green_channel,red_channel,ir_channel
49210,35941,22442
49152,35885,22366
49071,35807,22266
49005,35750,22188
48965,35726,22139
48910,35689,22071
48831,35630,21985
48778,35598,21930
48766,35601,21910
48756,35597,21885
48746,35593,21867
48791,35641,21915
48893,35737,22021
49006,35830,22144
49138,35937,22304
49336,36112,22547
49586,36336,22849
49840,36557,23156
50103,36783,23479
50411,37052,23850
50739,37336,24238
51032,37586,24595
51302,37821,24937
51586,38075,25291
51859,38315,25625
52078,38499,25902
52263,38652,26148
52452,38815,26394
52618,38955,26605
52726,39038,26749
52807,39101,26860
52895,39176,26970
52958,39227,27044
52967,39223,27055
52958,39204,27045
52959,39201,27044
52930,39172,27012
52849,39093,26932
52758,39009,26846
52685,38947,26772
52596,38871,26675
52477,38767,26544
52369,38679,26430
52291,38624,26346
52204,38561,26253
52096,38474,26139
52005,38406,26043
51943,38367,25974
51871,38314,25892
51786,38244,25797
51727,38197,25729
51692,38172,25678
51641,38121,25605
51576,38054,25519
51538,38019,25465
51523,38007,25429
51486,37971,25369
51442,37923,25299
51439,37913,25268
51464,37928,25264
51470,37924,25247
51469,37917,25232
51502,37944,25256
51554,37988,25296
51582,38007,25312
51605,38020,25328
51662,38068,25379
51724,38121,25434
51754,38144,25460
51783,38165,25493
51845,38223,25568
51913,38286,25652
51957,38320,25709
52001,38356,25772
52077,38428,25872
52151,38497,25970
52191,38532,26035
52230,38570,26099
52293,38635,26186
52338,38680,26253
52335,38680,26275
52325,38676,26292
52336,38692,26320
52332,38686,26319
52292,38645,26277
52256,38611,26241
52239,38594,26219
52200,38549,26168
52130,38475,26086
52073,38421,26017
52034,38387,25960
51971,38328,25872
51884,38249,25762
51817,38199,25676
51765,38170,25605
51680,38107,25496
51567,38018,25364
51473,37953,25260
51394,37902,25173
51291,37821,25060
51180,37723,24939
51104,37657,24851
51048,37604,24779
50972,37525,24685
50895,37446,24593
50851,37406,24537
50816,37374,24485
50745,37306,24397
50667,37232,24306
50622,37196,24252
50583,37165,24201
50510,37102,24119
50429,37038,24036
50384,37012,23989
50345,36988,23940
50275,36928,23858
50206,36872,23781
50172,36849,23739
50138,36818,23692
50073,36752,23616
50015,36697,23555
49991,36681,23533
49962,36664,23506
49906,36623,23453
49861,36594,23414
49841,36590,23398
49806,36568,23362
49742,36519,23298
49696,36492,23253
49679,36492,23232
49645,36469,23187
49585,36419,23117
49544,36386,23072
49523,36373,23047
49482,36336,22999
49420,36280,22933
49378,36248,22889
49350,36233,22858
49293,36190,22798
49217,36134,22721
49170,36110,22669
49134,36093,22619
49064,36036,22532
48977,35961,22432
48918,35913,22362
48868,35872,22301
48786,35794,22206
48691,35706,22104
48624,35645,22030
48559,35585,21954
48457,35490,21841
48345,35390,21724
48262,35326,21639
48181,35264,21554
48069,35169,21439
47961,35081,21332
47900,35042,21271
47863,35022,21231
47823,34997,21198
47822,35012,21221
47895,35099,21330
48009,35217,21486
48137,35335,21663
48310,35492,21896
48552,35706,22199
48820,35935,22527
49083,36152,22855
49371,36393,23212
49684,36659,23594
49977,36900,23950
50232,37105,24271
50482,37317,24591
50730,37534,24906
50935,37711,25171
51095,37848,25387
51256,37990,25601
51413,38127,25796
51511,38204,25920
51552,38228,25989
51592,38258,26058
51627,38287,26115
51612,38270,26117
51560,38221,26078
51522,38193,26046
51486,38172,26006
51409,38107,25917
51306,38019,25803
51223,37959,25711
51142,37902,25621
51024,37805,25493
50895,37697,25360
50801,37627,25266
50719,37568,25181
50612,37478,25068
50512,37392,24965
50453,37349,24905
50405,37311,24853
50331,37241,24771
50263,37174,24693
50226,37141,24645
50184,37104,24586
50107,37034,24494
50029,36970,24406
49978,36937,24344
49925,36900,24272
49849,36838,24176
49784,36790,24100
49747,36769,24057
49701,36734,24005
49638,36681,23938
49607,36660,23903
49613,36675,23902
49615,36682,23894
49607,36674,23883
49628,36695,23909
49678,36740,23963
49711,36762,23997
49732,36767,24020
49787,36806,24081
49865,36872,24166
49917,36911,24221
49949,36932,24258
50012,36986,24324
50086,37055,24397
50118,37082,24426
50122,37083,24431
50150,37108,24462
50185,37139,24496
50186,37136,24492
50166,37119,24475
50161,37127,24479
50152,37130,24470
50098,37089,24414
50027,37031,24342
49978,36994,24287
49926,36952,24222
49835,36871,24120
49737,36787,24016
49668,36733,23938
49596,36674,23853
49491,36578,23732
49390,36487,23616
49320,36432,23532
49242,36371,23443
49128,36274,23321
49018,36184,23205
48937,36125,23116
48849,36059,23014
48739,35970,22891
48651,35903,22794
48599,35868,22730
48541,35819,22653
48466,35748,22559
48412,35702,22492
48387,35687,22454
48348,35659,22399
48292,35617,22330
48261,35600,22289
48254,35602,22264
48225,35574,22208
48176,35524,22134
48152,35502,22088
48142,35493,22053
48100,35450,21986
48037,35388,21900
47996,35352,21839
47970,35329,21791
47913,35277,21720
47845,35220,21651
47813,35201,21623
47793,35194,21606
47749,35159,21564
47708,35125,21524
47706,35132,21520
47714,35146,21518
47695,35127,21486
47675,35107,21457
47685,35118,21461
47696,35123,21462
47676,35092,21430
47657,35068,21406
47670,35078,21414
47674,35078,21406
47633,35037,21358
47587,34996,21315
47568,34984,21302
47545,34969,21276
47493,34927,21218
47446,34894,21163
47424,34883,21129
47389,34852,21075
47324,34788,20993
47271,34738,20931
47243,34711,20888
47196,34662,20817
47123,34586,20720
47068,34533,20648
47035,34507,20603
46978,34456,20533
46897,34385,20448
46840,34339,20394
46801,34312,20361
46738,34258,20300
46660,34190,20222
46614,34151,20167
46590,34130,20124
46546,34090,20055
46498,34052,19990
46497,34064,19980
46535,34109,20010
46574,34144,20044
46641,34202,20118
46779,34328,20277
46965,34495,20494
47156,34659,20731
47380,34850,21016
47669,35104,21377
47989,35383,21771
48294,35645,22155
48607,35915,22552
48950,36216,22980
49279,36501,23385
49554,36732,23730
49804,36943,24050
50062,37165,24375
50292,37359,24666
50465,37499,24899
50616,37625,25111
50771,37760,25317
50886,37856,25469
50940,37891,25553
50973,37910,25611
51008,37936,25664
51009,37933,25675
50966,37890,25638
50921,37851,25595
50885,37823,25553
50817,37762,25472
50712,37667,25358
50619,37588,25261
50540,37527,25177
50433,37436,25058
50310,37330,24921
50218,37262,24818
50150,37215,24736
50058,37141,24629
49957,37054,24513
49897,37006,24438
49867,36984,24387
49813,36939,24315
49747,36891,24244
49714,36880,24208
49692,36876,24177
49641,36837,24110
49581,36789,24036
49549,36769,23994
49519,36750,23950
49456,36694,23872
49385,36633,23792
49342,36604,23744
49302,36571,23692
49236,36506,23611
49180,36452,23544
49167,36441,23523
49159,36431,23503
49127,36393,23461
49106,36371,23436
49126,36390,23454
49154,36412,23477
49160,36410,23486
49177,36421,23514
49222,36460,23568
49255,36484,23609
49259,36481,23623
49278,36492,23654
49325,36531,23706
49353,36549,23732
49354,36540,23731
49369,36551,23750
49398,36581,23782
49392,36582,23779
49353,36558,23749
49329,36555,23739
49315,36567,23736
49272,36548,23699
49212,36509,23644
49180,36496,23616
49163,36493,23593
49108,36448,23530
49032,36380,23444
48984,36340,23384
48947,36311,23329
48879,36247,23240
48802,36174,23144
48763,36134,23081
48737,36100,23022
48678,36029,22928
48607,35949,22832
48562,35902,22770
48517,35858,22707
48434,35781,22611
48343,35702,22517
48284,35659,22457
48227,35619,22396
48141,35547,22302
48057,35481,22214
48007,35451,22158
47955,35417,22094
47876,35350,21996
47809,35290,21905
47774,35261,21844
47730,35222,21772
47658,35155,21677
47601,35105,21602
47577,35088,21559
47544,35061,21505
47488,35014,21434
47450,34989,21385
47440,34991,21359
47417,34972,21316
47377,34933,21259
47358,34916,21231
47354,34915,21221
47320,34882,21184
47267,34830,21131
47241,34807,21104
47231,34801,21088
47188,34765,21039
47122,34709,20971
47075,34677,20927
47035,34653,20889
46960,34596,20816
46875,34531,20734
46827,34502,20685
46794,34486,20643
46736,34437,20569
46674,34383,20492
46648,34363,20452
46632,34352,20421
46588,34310,20359
46541,34265,20296
46526,34252,20268
46513,34238,20240
46467,34190,20180
46418,34142,20125
46396,34125,20101
46368,34102,20066
46306,34048,19996
46246,34002,19928
46217,33988,19885
46183,33960,19827
46116,33896,19741
46053,33839,19670
46016,33812,19629
45965,33773,19571
45887,33707,19487
45828,33661,19424
45802,33647,19392
45772,33625,19351
45740,33595,19305
45754,33606,19310
45823,33666,19376
45911,33741,19470
46027,33838,19606
46212,34005,19827
46460,34233,20122
46717,34464,20434
46986,34701,20763
47301,34985,21147
47648,35296,21564
47974,35579,21965
48283,35842,22358
48613,36128,22778
48946,36415,23194
49230,36650,23554
49474,36849,23871
49713,37052,24181
49921,37231,24452
50064,37347,24648
50171,37427,24801
50279,37509,24950
50361,37564,25062
50386,37568,25107
50392,37561,25126
50410,37573,25150
50405,37570,25146
50349,37522,25087
50278,37468,25016
50228,37436,24962
50166,37390,24890
50069,37310,24780
49976,37235,24673
49910,37187,24588
49832,37122,24485
49718,37023,24350
49613,36936,24232
49540,36882,24148
49462,36815,24057
49364,36724,23947
49286,36655,23860
49239,36614,23799
49177,36553,23716
49090,36470,23614
49018,36412,23538
48968,36378,23479
48897,36319,23388
48805,36239,23277
48742,36188,23196
48706,36163,23139
48650,36115,23061
48581,36051,22974
48545,36021,22925
48536,36015,22901
48509,35986,22860
48480,35956,22825
48490,35968,22836
48517,35992,22863
48519,35988,22865
48521,35984,22870
48562,36023,22917
48613,36071,22975
48639,36093,23005
48664,36117,23040
48719,36178,23114
48780,36241,23189
48808,36264,23224
48833,36282,23253
48886,36327,23311
48929,36360,23358
48925,36346,23362
48911,36329,23363
48927,36342,23388
48939,36350,23401
48917,36326,23376
48894,36307,23351
48892,36312,23340
48872,36300,23306
48819,36261,23240
48774,36235,23183
48748,36225,23140
48699,36186,23067
48622,36114,22963
48557,36058,22875
48508,36019,22806
48438,35953,22712
48346,35865,22599
48277,35804,22516
48229,35763,22452
48153,35693,22356
48055,35603,22239
47984,35546,22152
47932,35507,22080
47850,35439,21977
47753,35360,21865
47687,35314,21787
47633,35277,21719
47558,35207,21621
47482,35128,21520
47442,35088,21459
47416,35060,21413
47364,35005,21338
47307,34949,21265
47280,34929,21229
47257,34916,21196
47207,34876,21135
47161,34843,21079
47150,34847,21057
47140,34847,21028
47096,34809,20960
47055,34774,20896
47051,34774,20867
47042,34768,20832
46994,34723,20769
46944,34680,20718
46918,34660,20692
46880,34624,20652
46811,34562,20585
46755,34518,20534
46728,34504,20505
46691,34478,20458
46635,34432,20392
46603,34410,20353
46603,34415,20342
46592,34399,20312
46562,34361,20261
46548,34343,20233
46547,34343,20224
46517,34314,20187
46470,34269,20131
46452,34255,20098
46450,34260,20080
46419,34234,20033
46374,34192,19972
46358,34178,19940
46355,34177,19920
46320,34141,19869
46263,34086,19803
46223,34056,19762
46189,34032,19721
46122,33974,19643
46049,33908,19558
46008,33869,19503
45972,33834,19450
45906,33765,19364
45834,33694,19278
45788,33657,19223
45741,33623,19164
45662,33559,19076
45591,33504,18998
45565,33493,18967
45551,33493,18952
45525,33475,18930
45530,33485,18944
45603,33556,19027
45717,33660,19155
45848,33776,19314
46030,33942,19546
46282,34171,19856
46557,34414,20193
46829,34651,20534
47135,34917,20918
47482,35220,21342
47818,35509,21755
48128,35768,22142
48441,36032,22536
48753,36299,22924
49016,36521,23255
49223,36697,23529
49422,36871,23790
49607,37033,24029
49731,37133,24198
49805,37183,24308
49881,37236,24410
49947,37279,24490
49956,37266,24508
49920,37218,24488
49890,37189,24472
49856,37163,24435
49779,37092,24342
49681,37002,24227
49603,36938,24133
49520,36871,24033
49396,36763,23890
49261,36649,23737
49157,36569,23615
49058,36493,23493
48931,36387,23343
48807,36288,23203
48723,36233,23108
48651,36183,23022
48560,36103,22913
48481,36031,22821
48440,35998,22767
48398,35960,22708
48326,35891,22619
48260,35829,22537
48222,35795,22476
48176,35749,22398
48102,35675,22293
48046,35623,22210
48023,35607,22166
47991,35579,22115
47938,35528,22045
47910,35504,22005
47917,35519,22003
47915,35526,21992
47904,35521,21974
47929,35553,21999
47988,35615,22058
48034,35658,22101
48065,35686,22136
48123,35744,22204
48196,35817,22289
48240,35861,22349
48271,35891,22399
48334,35953,22480
48412,36028,22572
48462,36071,22632
48501,36106,22678
48565,36168,22751
48629,36231,22823
48653,36252,22853
48657,36254,22863
48681,36279,22892
48707,36301,22914
48700,36285,22896
48684,36259,22869
48689,36256,22862
48685,36242,22841
48641,36188,22778
48592,36136,22714
48569,36115,22678
48538,36086,22632
48473,36019,22547
48412,35954,22461
48384,35924,22401
48346,35887,22328
48266,35815,22221
48187,35750,22125
48132,35715,22054
48061,35664,21965
47956,35581,21843
47861,35507,21734
47788,35453,21650
47702,35377,21548
47594,35276,21428
47507,35199,21336
47443,35143,21269
47362,35066,21180
47267,34975,21077
47204,34920,21007
47170,34893,20962
47122,34846,20891
47062,34785,20802
47032,34756,20745
47023,34747,20710
46987,34716,20655
46939,34677,20597
46922,34671,20572
46919,34672,20554
46886,34637,20504
46840,34593,20448
46823,34583,20426
46816,34580,20413
46780,34548,20366
46733,34512,20314
46716,34507,20292
46706,34505,20273
46668,34472,20222
46630,34438,20173
46624,34438,20157
46623,34438,20139
46597,34407,20093
46581,34385,20058
46602,34401,20061
46624,34415,20060
46613,34394,20026
46604,34377,19999
46619,34385,19997
46617,34379,19983
46579,34338,19941
46541,34307,19910
46517,34297,19895
46467,34265,19848
46384,34196,19764
46310,34136,19688
46254,34095,19627
46174,34030,19541
46073,33945,19435
45996,33887,19357
45947,33854,19299
45881,33799,19216
45801,33727,19121
45758,33694,19072
45757,33701,19067
45761,33708,19066
45783,33728,19089
45869,33811,19192
46013,33949,19363
46173,34095,19558
46360,34261,19791
46612,34485,20096
46906,34739,20443
47191,34973,20784
47475,35207,21137
47791,35480,21529
48109,35759,21925
48390,36002,22279
48659,36235,22617
48946,36487,22967
49213,36715,23288
49421,36882,23544
49598,37024,23770
49771,37170,23992
49908,37283,24169
49979,37329,24272
50022,37350,24339
50065,37379,24398
50078,37381,24414
50039,37337,24377
49984,37285,24328
49931,37239,24280
49842,37160,24191
49708,37037,24055
49575,36919,23921
49464,36824,23801
49334,36708,23652
49180,36571,23476
49048,36465,23327
48944,36389,23204
48825,36292,23058
48690,36181,22898
48587,36106,22780
48514,36059,22693
48419,35986,22583
48308,35892,22459
48229,35824,22371
48171,35775,22301
48087,35697,22198
47987,35606,22078
47917,35548,21985
47863,35501,21900
47786,35424,21790
47705,35345,21685
47663,35309,21627
47643,35296,21592
47604,35265,21539
47569,35244,21497
47576,35271,21502
47599,35311,21521
47608,35325,21525
47635,35352,21552
47716,35425,21634
47813,35505,21730
47882,35553,21800
47951,35605,21876
48048,35689,21985
48133,35757,22083
48178,35786,22146
48223,35822,22214
48289,35882,22305
48339,35921,22371
48354,35922,22395
48375,35930,22422
48412,35960,22463
48422,35966,22472
48399,35940,22442
48382,35926,22421
48377,35929,22412
48346,35906,22376
48286,35859,22316
48243,35832,22273
48218,35824,22238
48170,35785,22172
48103,35720,22085
48063,35682,22026
48037,35660,21982
47976,35603,21902
47888,35519,21798
47818,35458,21715
47754,35404,21634
47656,35311,21513
47541,35201,21376
47454,35122,21268
47377,35056,21169
47274,34964,21040
47168,34873,20912
47101,34817,20822
47044,34769,20740
46955,34689,20628
46860,34607,20520
46800,34561,20452
46750,34518,20391
46679,34451,20307
46619,34399,20237
46598,34388,20210
46574,34374,20184
46518,34325,20126
46468,34284,20077
46452,34278,20056
46429,34260,20022
46375,34206,19960
46328,34165,19913
46310,34155,19893
46282,34130,19852
46226,34076,19780
46187,34041,19725
46177,34038,19698
46154,34022,19656
46105,33981,19595
46075,33960,19558
46070,33963,19542
46045,33942,19499
45997,33899,19436
45973,33884,19402
45971,33889,19391
45945,33863,19354
45896,33817,19300
45872,33801,19275
45865,33805,19264
45825,33775,19213
45763,33722,19141
45726,33696,19099
45705,33681,19067
45654,33631,19002
45589,33567,18927
45548,33532,18883
45512,33501,18844
45444,33435,18773
45372,33364,18697
45338,33333,18660
45325,33318,18636
45301,33288,18597
45295,33281,18585
45349,33340,18644
45441,33431,18745
45541,33524,18860
45684,33657,19033
45899,33862,19291
46149,34093,19594
46401,34317,19909
46690,34571,20268
47029,34866,20679
47365,35153,21086
47667,35407,21465
47968,35667,21852
48283,35940,22248
48567,36179,22606
48804,36370,22919
49032,36559,23223
49257,36748,23513
49429,36885,23738
49546,36972,23904
49658,37063,24066
49770,37158,24216
49835,37205,24304
49849,37210,24341
49864,37222,24375
49880,37236,24399
49847,37206,24367
49777,37141,24294
49718,37091,24229
49662,37042,24159
49569,36952,24046
49460,36846,23915
49374,36769,23807
49293,36699,23703
49182,36596,23569
49068,36492,23436
48991,36427,23341
48922,36371,23251
48821,36282,23130
48718,36193,23013
48645,36140,22931
48572,36087,22847
48469,35997,22730
48372,35913,22620
48313,35870,22548
48257,35830,22478
48175,35759,22381
48105,35699,22294
48083,35682,22244
48070,35667,22193
48035,35630,22122
48015,35613,22076
48031,35635,22067
48042,35650,22055
48031,35646,22034
48035,35662,22047
48068,35707,22097
48091,35737,22137
48098,35747,22166
48134,35782,22225
48209,35846,22314
48276,35892,22383
48327,35921,22437
48401,35978,22516
48487,36046,22606
48542,36077,22662
48574,36087,22694
48624,36125,22746
48678,36179,22802
48693,36196,22815
48682,36190,22803
48690,36208,22813
48700,36230,22826
48669,36210,22803
48624,36174,22768
48609,36165,22762
48603,36157,22756
48564,36112,22709
48514,36058,22649
48490,36036,22618
48468,36015,22583
48412,35956,22509
48352,35893,22428
48321,35861,22375
48282,35825,22310
48202,35753,22203
48120,35686,22096
48068,35652,22020
48008,35604,21937
47914,35518,21824
47829,35441,21724
47781,35400,21656
47729,35351,21581
47646,35273,21481
47571,35208,21397
47526,35172,21342
47472,35122,21276
47394,35047,21184
47332,34992,21111
47297,34966,21063
47246,34921,20998
47175,34850,20912
47125,34802,20847
47102,34782,20804
47063,34748,20742
47008,34701,20666
46976,34682,20620
46958,34680,20587
46909,34645,20524
46844,34591,20451
46814,34572,20419
46811,34576,20407
46787,34557,20369
46751,34531,20325
46744,34534,20313
46752,34545,20311
46732,34525,20280
46701,34498,20243
46695,34502,20236
46689,34505,20227
46648,34469,20181
46601,34428,20132
46587,34423,20120
46579,34422,20108
46542,34387,20062
46509,34351,20020
46511,34346,20009
46507,34332,19985
46464,34276,19920
46419,34219,19856
46406,34194,19826
46388,34166,19788
46338,34111,19721
46291,34070,19662
46269,34058,19630
46235,34030,19580
46169,33970,19500
46117,33927,19440
46096,33917,19413
46065,33893,19376
46015,33850,19327
46000,33843,19322
46037,33886,19368
46090,33937,19426
46159,33999,19508
46295,34125,19671
46495,34312,19908
46712,34510,20169
46951,34726,20461
47252,35000,20828
47593,35308,21246
47917,35591,21654
48232,35857,22057
48577,36146,22492
48928,36436,22928
49231,36677,23312
49496,36890,23659
49765,37115,24007
50014,37324,24330
50197,37470,24582
50337,37579,24789
50478,37699,24989
50598,37800,25153
50659,37843,25245
50690,37865,25303
50728,37901,25363
50745,37915,25388
50709,37874,25353
50658,37823,25299
50627,37797,25258
50583,37757,25190
50498,37674,25076
50407,37592,24963
50343,37541,24879
50273,37480,24787
50175,37390,24666
50088,37316,24562
50038,37279,24493
49989,37237,24420
49921,37174,24330
49874,37132,24262
49856,37122,24223
49826,37096,24171
49775,37049,24104
49742,37021,24061
49728,37012,24032
49687,36974,23975
49617,36912,23899
49565,36875,23851
49532,36854,23817
49475,36802,23748
49405,36734,23662
49369,36703,23612
49359,36695,23583
49330,36665,23533
49297,36632,23485
49305,36640,23483
49334,36666,23504
49337,36663,23500
49333,36659,23498
49369,36699,23541
49424,36754,23602
49459,36784,23639
49496,36816,23676
49567,36883,23746
49636,36946,23817
49668,36972,23854
49698,36998,23893
49755,37053,23963
49806,37098,24021
49820,37099,24040
49832,37097,24059
49874,37125,24107
49905,37145,24141
49892,37126,24136
49874,37107,24133
49875,37110,24146
49856,37089,24127
49800,37029,24067
49752,36980,24011
49724,36956,23967
49673,36908,23892
49587,36824,23781
49513,36754,23683
49462,36708,23606
49386,36640,23506
49281,36549,23384
49190,36482,23284
49116,36434,23202
49020,36361,23094
48904,36269,22969
48813,36207,22870
48743,36166,22790
48649,36096,22683
48543,36010,22563
48476,35957,22477
48434,35926,22408
48369,35867,22313
48296,35801,22215
48257,35771,22158
48229,35748,22114
48170,35690,22041
48100,35619,21960
48056,35578,21908
48014,35540,21857
47937,35468,21771
47855,35392,21683
47809,35352,21631
47771,35320,21583
47708,35263,21512
47655,35216,21453
47642,35208,21433
47634,35198,21409
47597,35159,21357
47567,35132,21318
47571,35142,21311
47566,35142,21292
47524,35108,21241
47491,35083,21203
47489,35087,21191
47470,35073,21158
47420,35028,21097
47384,34997,21055
47375,34993,21038
47352,34974,21003
47311,34938,20949
47294,34929,20924
47300,34941,20923
47285,34925,20894
47250,34886,20841
47235,34871,20809
47230,34869,20786
47192,34831,20727
47133,34771,20648
47100,34740,20595
47077,34724,20552
47020,34674,20480
46946,34607,20396
46898,34570,20344
46861,34544,20303
46792,34486,20229
46708,34416,20144
46653,34380,20094
46613,34360,20058
46557,34321,20010
46522,34299,19988
46550,34333,20034
46619,34397,20121
46699,34464,20223
46823,34575,20382
47030,34767,20634
47285,34998,20936
47546,35225,21251
47836,35478,21605
48178,35778,22015
48524,36076,22433
48837,36340,22828
49146,36602,23229
49469,36881,23644
49766,37133,24025
50014,37336,24355
50250,37529,24671
50490,37729,24979
50689,37887,25233
50829,37991,25420
50953,38087,25589
51072,38184,25745
51146,38236,25844
51168,38245,25889
51186,38257,25929
51210,38273,25964
51196,38250,25947
51146,38194,25888
51101,38150,25838
51058,38110,25787
50979,38030,25696
50877,37925,25577
50798,37850,25477
50732,37794,25381
50641,37716,25258
50543,37635,25136
50480,37594,25055
50435,37571,24991
50366,37521,24899
50291,37463,24806
50251,37439,24748
50222,37419,24698
50163,37362,24620
50100,37301,24543
50072,37275,24503
50045,37251,24459
49984,37193,24376
49926,37138,24296
49906,37119,24253
49886,37097,24209
49834,37041,24136
49790,36994,24079
49787,36990,24067
49788,36991,24057
49767,36972,24027
49762,36975,24023
49793,37013,24056
49817,37041,24076
49820,37046,24075
49841,37074,24102
49891,37131,24165
49926,37172,24218
49938,37190,24252
49969,37224,24308
50024,37275,24379
50061,37296,24420
50079,37294,24441
50118,37320,24492
50172,37366,24556
50195,37379,24581
50196,37370,24581
50219,37389,24600
50252,37417,24623
50247,37406,24606
50218,37368,24565
50210,37353,24541
50208,37345,24522
50170,37304,24469
50114,37253,24406
50078,37228,24365
50038,37200,24319
49959,37133,24232
49870,37058,24135
49809,37013,24064
49751,36966,23987
49659,36879,23872
49567,36788,23756
49506,36731,23677
49443,36674,23597
49346,36584,23485
49252,36499,23377
49187,36446,23299
49119,36385,23213
49024,36298,23103
48939,36225,23008
48889,36189,22943
48839,36147,22866
48770,36085,22766
48717,36042,22686
48689,36026,22632
48647,35993,22561
48579,35936,22473
48531,35905,22414
48513,35904,22383
48487,35885,22335
48448,35850,22274
48435,35845,22251
48450,35865,22257
48444,35860,22241
48415,35833,22207
48409,35831,22205
48423,35845,22221
48411,35827,22203
48379,35789,22167
48369,35775,22156
48369,35767,22147
48335,35722,22098
48283,35665,22034
48258,35643,21999
48243,35633,21970
48196,35591,21907
48140,35544,21842
48113,35526,21808
48086,35511,21772
48025,35463,21703
47958,35415,21638
47924,35399,21608
47902,35385,21578
47857,35340,21518
47817,35296,21464
47807,35286,21441
47787,35267,21406
47728,35210,21332
47673,35158,21264
47649,35140,21223
47619,35116,21170
47558,35064,21091
47500,35019,21025
47465,34999,20985
47418,34960,20931
47345,34892,20853
47289,34842,20793
47267,34823,20763
47242,34791,20730
47212,34749,20698
47231,34756,20725
47312,34825,20816
47411,34909,20927
47527,35013,21067
47712,35186,21293
47958,35414,21590
48210,35641,21898
48468,35872,22220
48773,36152,22597
49105,36454,23008
49412,36722,23398
49702,36965,23772
50007,37225,24164
50307,37479,24547
50552,37681,24872
50760,37848,25157
50970,38019,25437
51159,38169,25680
51290,38263,25852
51386,38331,25982
51482,38406,26104
51555,38460,26191
51571,38459,26216
51562,38442,26216
51563,38446,26227
51544,38437,26214
51475,38377,26146
51393,38308,26065
51327,38265,25999
51246,38208,25910
51130,38115,25780
51023,38028,25653
50947,37970,25552
50864,37900,25437
50754,37802,25294
50665,37724,25173
50614,37683,25090
50555,37633,25003
50472,37562,24903
50410,37513,24828
50381,37495,24781
50341,37461,24716
50281,37404,24631
50241,37370,24573
50221,37354,24533
50177,37306,24461
50111,37236,24365
50069,37197,24299
50047,37182,24255
49997,37139,24186
49934,37083,24112
49910,37065,24081
49909,37066,24073
49890,37042,24045
49867,37016,24022
49882,37035,24044
49917,37075,24085
49933,37091,24107
49945,37102,24133
49987,37144,24194
50035,37189,24259
50056,37205,24294
50078,37223,24338
50136,37278,24418
50194,37330,24491
50213,37340,24519
50228,37346,24544
50272,37385,24602
50309,37419,24654
50303,37412,24664
50294,37403,24667
50313,37422,24688
50324,37426,24686
50298,37394,24644
50272,37367,24603
50262,37359,24574
50227,37325,24516
50153,37255,24419
50079,37190,24329
50021,37146,24255
49944,37080,24157
49840,36987,24034
49753,36911,23930
49688,36855,23845
49601,36775,23731
49487,36672,23595
49391,36593,23484
49313,36536,23391
49210,36456,23275
49094,36360,23150
49013,36297,23060
48957,36252,22988
48877,36179,22891
48780,36091,22784
48715,36038,22711
48674,36001,22654
48613,35940,22572
48543,35875,22488
48501,35847,22442
48469,35829,22406
48413,35782,22340
48356,35734,22273
48331,35722,22241
48315,35718,22215
48272,35683,22157
48230,35648,22102
48217,35647,22084
48203,35642,22064
48155,35601,22008
48110,35560,21953
48103,35554,21931
48097,35543,21904
48058,35491,21844
48018,35439,21793
48008,35421,21775
47993,35399,21751
47950,35352,21706
47914,35323,21676
47906,35324,21670
47887,35314,21647
47843,35281,21597
47816,35266,21558
47813,35274,21538
47793,35260,21495
47747,35215,21428
47713,35183,21384
47695,35167,21355
47652,35122,21294
47583,35055,21211
47535,35014,21155
47502,34993,21112
47436,34939,21038
47352,34866,20945
47301,34821,20878
47268,34789,20821
47205,34726,20736
47129,34657,20651
47086,34629,20611
47070,34627,20599
47044,34612,20580
47032,34612,20580
47078,34668,20640
47168,34764,20743
47270,34862,20864
47411,34989,21033
47622,35176,21284
47871,35392,21580
48112,35597,21882
48368,35821,22212
48666,36090,22593
48969,36355,22982
49244,36580,23341
49518,36800,23697
49810,37041,24073
50082,37262,24426
50303,37439,24731
50509,37607,25020
50719,37783,25302
50892,37925,25529
51006,38014,25690
51104,38099,25828
51201,38191,25953
51257,38241,26022
51262,38244,26035
51257,38244,26037
51254,38247,26032
51214,38210,25978
51138,38137,25887
51073,38082,25810
51017,38038,25740
50925,37954,25629
50805,37840,25491
50706,37751,25376
50623,37682,25275
50513,37584,25147
50394,37476,25013
50315,37412,24924
50262,37374,24858
50188,37311,24766
50109,37238,24669
50061,37198,24605
50023,37166,24547
49951,37100,24454
49869,37025,24355
49814,36980,24286
49760,36934,24214
49671,36853,24106
49583,36774,24001
49533,36737,23934
49493,36709,23869
49432,36657,23781
49384,36622,23714
49385,36636,23698
49400,36658,23695
49397,36653,23675
49408,36655,23675
49460,36696,23717
49514,36735,23761
49544,36751,23786
49589,36785,23837
49667,36855,23926
49736,36916,24006
49782,36952,24064
49839,37003,24139
49916,37077,24231
49966,37124,24293
49982,37137,24321
50009,37163,24363
50049,37205,24415
50059,37211,24428
50036,37184,24406
50021,37172,24396
50013,37168,24391
49970,37126,24343
49900,37059,24266
49850,37018,24208
49805,36985,24157
49720,36914,24071
49619,36831,23971
49545,36780,23897
49476,36735,23824
49371,36651,23713
49251,36550,23584
49155,36473,23476
49064,36398,23367
48940,36286,23221
48800,36165,23063
48688,36072,22932
48580,35981,22804
48443,35855,22646
48305,35729,22490
48199,35641,22369
48092,35551,22247
47956,35429,22096
47830,35320,21959
47747,35255,21864
47668,35191,21772
47566,35101,21662
47480,35027,21568
47435,34992,21509
47389,34954,21444
47322,34894,21364
47278,34856,21309
47270,34854,21288
47251,34838,21253
47205,34797,21196
47181,34783,21165
47188,34799,21163
47177,34796,21137
47141,34769,21093
47128,34769,21081
47137,34786,21089
47119,34768,21067
47079,34724,21025
47063,34703,21007
47059,34696,20998
47024,34660,20954
46975,34614,20899
46960,34604,20881
46963,34611,20878
46942,34588,20840
46912,34558,20794
46914,34566,20785
46929,34587,20787
46917,34576,20757
46895,34557,20717
46902,34572,20706
46912,34588,20695
46892,34567,20652
46869,34542,20613
46873,34549,20608
46874,34553,20595
46837,34514,20538
46794,34471,20479
46777,34459,20450
46751,34441,20418
46691,34389,20356
46636,34343,20301
46612,34326,20269
46582,34300,20222
46525,34244,20147
46480,34203,20087
46467,34194,20059
46444,34175,20021
46401,34137,19968
46391,34133,19958
46436,34182,20009
46505,34244,20086
46595,34319,20193
46747,34448,20375
46960,34631,20629
47188,34822,20908
47427,35019,21216
47720,35266,21591
48052,35550,22016
48363,35812,22429
48657,36057,22833
48985,36336,23268
49327,36627,23712
49625,36878,24108
49885,37097,24461
50146,37322,24810
50392,37533,25131
50578,37685,25380
50722,37800,25580
50865,37921,25771
50988,38024,25927
51054,38073,26013
51086,38096,26057
51122,38132,26098
51137,38149,26108
51096,38112,26055
51033,38058,25982
50989,38024,25925
50935,37975,25856
50844,37885,25747
50753,37797,25639
50693,37743,25559
50634,37687,25477
50550,37606,25372
50480,37540,25284
50447,37511,25235
50409,37479,25180
50346,37427,25107
50300,37396,25057
50284,37396,25037
50256,37378,25001
50203,37329,24939
50164,37294,24894
50147,37280,24869
50112,37241,24818
50052,37178,24742
50008,37137,24686
49983,37116,24642
49936,37070,24567
49873,37008,24477
49840,36976,24424
49832,36965,24395
49799,36928,24343
49751,36880,24282
49740,36876,24259
49759,36899,24263
49763,36904,24253
49769,36908,24253
49814,36953,24300
49877,37013,24363
49910,37041,24400
49934,37064,24437
49984,37121,24506
50034,37180,24571
50050,37204,24599
50066,37227,24628
50116,37281,24689
50160,37325,24741
50163,37323,24750
50159,37317,24754
50179,37339,24782
50188,37348,24788
50151,37310,24747
50103,37263,24702
50074,37236,24679
50032,37194,24634
49957,37116,24552
49890,37048,24476
49853,37009,24423
49805,36959,24351
49727,36881,24248
49659,36819,24159
49618,36787,24098
49559,36739,24020
49474,36673,23922
49408,36632,23846
49366,36613,23786
49301,36561,23692
49208,36479,23573
49135,36418,23478
49080,36373,23398
48998,36295,23286
48898,36197,23159
48826,36128,23067
48770,36073,22992
48680,35985,22885
48568,35883,22762
48487,35815,22670
48423,35759,22587
48331,35669,22471
48230,35573,22354
48162,35519,22277
48106,35478,22213
48024,35407,22119
47942,35335,22025
47896,35302,21968
47856,35276,21915
47783,35214,21827
47712,35152,21744
47679,35128,21702
47650,35101,21661
47590,35042,21593
47541,34993,21537
47530,34986,21520
47516,34976,21499
47471,34937,21449
47432,34908,21408
47424,34911,21396
47413,34907,21373
47376,34878,21324
47356,34865,21290
47365,34876,21279
47357,34866,21249
47317,34829,21194
47288,34810,21160
47281,34811,21148
47252,34786,21108
47195,34733,21040
47155,34698,20993
47138,34684,20960
47098,34644,20898
47037,34585,20816
47001,34556,20765
46983,34547,20735
46937,34507,20679
46869,34447,20608
46825,34416,20563
46795,34398,20527
46732,34343,20456
46654,34275,20371
46608,34243,20320
46573,34221,20277
46506,34163,20198
46430,34093,20111
46383,34054,20057
46347,34027,20015
46296,33981,19955
46263,33954,19920
46290,33988,19951
46352,34053,20025
46421,34117,20111
46532,34219,20254
46720,34396,20489
46950,34608,20776
47183,34813,21077
47448,35045,21423
47769,35325,21825
48101,35606,22234
48409,35857,22619
48718,36115,23012
49041,36389,23420
49333,36631,23796
49580,36830,24127
49814,37024,24448
50043,37218,24760
50228,37367,25015
50362,37467,25212
50485,37568,25395
50602,37669,25561
50671,37720,25661
50690,37726,25703
50709,37740,25741
50730,37761,25772
50710,37741,25749
50656,37690,25688
50616,37658,25637
50582,37634,25584
50514,37576,25491
50426,37504,25382
50369,37464,25302
50329,37442,25237
50264,37393,25147
50191,37336,25055
50152,37312,25000
50124,37298,24957
50065,37252,24891
50001,37201,24828
49970,37185,24798
49946,37173,24768
49889,37125,24707
49829,37073,24646
49802,37052,24611
49771,37025,24565
49703,36959,24480
49631,36892,24395
49591,36855,24340
49544,36809,24272
49458,36729,24166
49375,36657,24067
49329,36624,24003
49287,36594,23941
49232,36550,23869
49205,36533,23832
49219,36554,23841
49233,36564,23851
49228,36552,23846
49242,36560,23865
49287,36596,23913
49321,36614,23946
49337,36613,23965
49377,36644,24017
49441,36700,24088
49482,36728,24125
49500,36734,24134
49535,36765,24163
49575,36808,24198
49574,36812,24191
49543,36791,24161
49530,36792,24156
49527,36803,24160
49489,36775,24124
49429,36726,24062
49393,36700,24020
49363,36679,23980
49299,36619,23903
49221,36547,23816
49169,36505,23753
49119,36463,23685
49034,36387,23578
48943,36308,23466
48885,36266,23391
48833,36229,23320
48751,36158,23218
48667,36087,23121
48616,36053,23062
48563,36018,22999
48476,35946,22902
48390,35876,22812
48334,35837,22754
48273,35790,22686
48185,35713,22592
48115,35652,22515
48082,35624,22471
48043,35582,22412
47975,35505,22322
47915,35440,22239
47879,35404,22175
47827,35355,22093
47748,35283,21988
47684,35229,21903
47644,35198,21840
47587,35150,21757
47511,35087,21660
47461,35056,21599
47435,35049,21564
47383,35010,21504
47313,34949,21427
47273,34917,21382
47250,34902,21354
47201,34857,21297
47140,34799,21229
47115,34773,21194
47107,34759,21171
47068,34711,21118
47013,34654,21057
46985,34631,21026
46966,34616,20997
46916,34566,20932
46859,34512,20859
46836,34495,20817
46822,34483,20780
46777,34438,20712
46727,34390,20646
46707,34375,20614
46681,34356,20580
46616,34303,20513
46548,34252,20447
46507,34232,20408
46460,34207,20360
46385,34149,20280
46321,34097,20205
46292,34078,20158
46263,34052,20104
46207,33999,20027
46164,33960,19969
46148,33949,19938
46111,33912,19885
46042,33839,19800
45987,33784,19733
45961,33756,19695
45916,33711,19635
45843,33641,19547
45786,33594,19477
45751,33571,19428
45690,33521,19347
45604,33448,19242
45540,33401,19168
45500,33378,19121
45451,33340,19067
45410,33307,19029
45427,33334,19056
45497,33411,19138
45576,33489,19235
45682,33585,19369
45861,33751,19591
46100,33965,19881
46355,34179,20192
46637,34415,20541
46981,34710,20959
47350,35027,21403
47694,35316,21822
48032,35599,22242
48395,35907,22689
48743,36200,23118
49032,36435,23486
49286,36642,23821
49535,36852,24150
49745,37029,24435
49887,37142,24644
50000,37229,24815
50113,37323,24974
50185,37379,25078
50189,37369,25104
50167,37340,25101
50150,37320,25094
50103,37270,25047
50018,37181,24951
49938,37106,24856
49880,37057,24780
49801,36992,24682
49691,36899,24558
49597,36824,24452
49529,36775,24364
49446,36707,24254
49343,36620,24130
49266,36559,24041
49216,36526,23977
49147,36472,23892
49067,36404,23796
49019,36368,23737
48991,36351,23698
48932,36300,23630
48858,36235,23550
48817,36204,23502
48795,36189,23461
48742,36139,23382
48666,36068,23286
48614,36028,23219
48577,36001,23162
48518,35950,23082
48462,35905,23012
48450,35907,22989
48455,35926,22981
48435,35917,22947
48418,35906,22918
48442,35931,22928
48476,35961,22947
48484,35962,22945
48497,35970,22956
48548,36018,23010
48600,36064,23065
48618,36074,23090
48636,36088,23123
48684,36132,23182
48722,36161,23226
48726,36156,23237
48737,36162,23259
48772,36194,23301
48791,36208,23318
48782,36196,23304
48785,36204,23308
48809,36237,23337
48811,36245,23338
48777,36215,23306
48752,36194,23284
48743,36188,23272
48705,36152,23225
48635,36087,23150
48581,36041,23094
48542,36010,23050
48478,35950,22974
48399,35875,22882
48347,35830,22818
48311,35798,22762
48244,35730,22666
48156,35644,22551
48094,35586,22465
48044,35538,22389
47960,35457,22279
47861,35366,22156
47794,35307,22062
47741,35259,21977
47662,35179,21866
47577,35097,21757
47523,35051,21683
47474,35009,21613
47392,34935,21512
47310,34866,21418
47266,34838,21364
47225,34808,21308
47156,34745,21218
47097,34696,21140
47078,34688,21104
47057,34676,21067
47007,34632,21002
46974,34603,20952
46986,34616,20941
47004,34628,20926
47001,34621,20892
47016,34638,20883
47068,34693,20906
47111,34732,20917
47131,34742,20911
47168,34774,20934
47231,34835,20986
47279,34876,21019
47302,34892,21032
47339,34926,21068
47389,34974,21117
47406,34983,21122
47394,34960,21093
47399,34961,21084
47419,34977,21088
47405,34957,21059
47363,34912,21006
47346,34895,20979
47347,34895,20967
47321,34866,20926
47279,34825,20873
47266,34813,20852
47263,34810,20838
47229,34771,20789
47185,34724,20733
47170,34710,20708
47157,34698,20682
47109,34650,20619
47053,34598,20551
47027,34577,20511
47004,34554,20465
46950,34495,20384
46897,34443,20309
46877,34435,20275
46856,34425,20237
46794,34375,20160
46728,34322,20080
46694,34299,20030
46659,34270,19976
46601,34214,19900
46562,34176,19851
46572,34182,19855
46593,34194,19875
46614,34200,19904
46679,34250,19987
46805,34361,20140
46948,34485,20316
47094,34609,20506
47282,34770,20750
47517,34971,21048
47755,35167,21350
47988,35359,21653
48252,35586,21998
48534,35833,22364
48785,36044,22699
49012,36232,23008
49257,36443,23335
49503,36657,23653
49695,36819,23907
49839,36939,24111
49980,37063,24305
50098,37168,24467
50151,37213,24554
50157,37221,24591
50158,37232,24622
50138,37223,24624
50064,37159,24563
49962,37071,24471
49872,37000,24387
49768,36920,24278
49621,36797,24117
49468,36668,23947
49349,36574,23809
49237,36483,23675
49102,36362,23519
48975,36248,23381
48890,36173,23289
48812,36103,23203
48716,36013,23096
48638,35944,23007
48604,35921,22956
48572,35898,22898
48516,35855,22817
48479,35834,22754
48472,35845,22723
48453,35842,22675
48406,35808,22595
48371,35781,22529
48356,35770,22482
48320,35731,22409
48258,35664,22313
48220,35622,22251
48213,35611,22220
48193,35584,22176
48162,35551,22131
48170,35560,22135
48210,35599,22173
48234,35616,22197
48245,35619,22220
48292,35660,22283
48362,35722,22362
48405,35755,22411
48428,35771,22447
48473,35812,22508
48527,35859,22568
48546,35868,22586
48546,35863,22591
48567,35885,22622
48585,35903,22644
48561,35880,22623
48523,35851,22596
48512,35854,22596
48501,35855,22590
48452,35815,22546
48395,35770,22491
48359,35750,22456
48314,35718,22408
48229,35644,22320
48141,35568,22227
48078,35517,22155
48000,35453,22061
47885,35351,21931
47775,35253,21807
47696,35188,21710
47613,35114,21600
47505,35015,21466
47411,34931,21350
47344,34875,21260
47264,34803,21151
47157,34708,21019
47067,34639,20913
46997,34594,20833
46906,34525,20731
46797,34433,20613
46717,34369,20527
46660,34324,20461
46582,34246,20365
46485,34148,20251
46416,34083,20169
46370,34043,20106
46300,33978,20015
46214,33900,19916
46152,33856,19846
46099,33822,19781
46013,33754,19678
45914,33677,19567
45847,33635,19493
45795,33606,19432
45721,33546,19346
45646,33482,19261
45608,33453,19212
45576,33431,19171
45512,33376,19099
45449,33320,19029
45425,33300,18996
45403,33278,18961
45346,33222,18894
45288,33171,18831
45263,33155,18799
45235,33133,18757
45175,33077,18682
45123,33026,18619
45105,33008,18588
45082,32979,18545
45024,32918,18474
44970,32869,18416
44940,32846,18385
44891,32806,18337
44813,32739,18264
44751,32689,18207
44713,32662,18169
44654,32610,18099
44565,32529,17997
44497,32474,17917
44454,32445,17860
44394,32391,17777
44317,32319,17676
44269,32279,17607
44244,32264,17566
44194,32225,17502
44129,32173,17427
44102,32161,17392
44104,32177,17386
44094,32179,17374
44097,32192,17386
44167,32266,17475
44295,32385,17619
44432,32503,17776
44592,32639,17969
44810,32828,18232
45064,33043,18534
45307,33242,18832
45558,33449,19147
45847,33698,19506
46142,33950,19872
46396,34161,20203
46634,34360,20525
46889,34583,20865
47122,34786,21177
47296,34931,21424
47444,35054,21645
47595,35188,21863
47715,35294,22039
47777,35345,22148
47820,35381,22235
47871,35428,22320
47893,35441,22359
47869,35408,22343
47844,35382,22326
47835,35379,22319
47799,35351,22278
47730,35288,22202
47672,35240,22136
47634,35213,22084
47571,35160,22000
47481,35079,21893
47408,35018,21810
47352,34975,21742
47265,34901,21635
47156,34807,21507
47080,34748,21416
47029,34715,21351
46953,34657,21264
46861,34584,21167
46803,34545,21106
46771,34526,21065
46711,34475,20993
46634,34406,20905
46580,34358,20839
46531,34312,20771
46449,34234,20664
46354,34150,20547
46293,34102,20464
46250,34069,20393
46186,34012,20301
46125,33956,20218
46105,33942,20178
46095,33936,20148
46058,33899,20095
46027,33868,20058
46037,33879,20068
46050,33895,20080
46037,33886,20068
46038,33898,20081
46079,33951,20137
46116,33996,20187
46125,34009,20211
46148,34034,20249
46201,34084,20312
46244,34118,20356
46264,34129,20376
46298,34159,20417
46352,34212,20480
46384,34240,20515
46385,34239,20517
46395,34250,20534
46413,34269,20559
46394,34247,20539
46339,34190,20478
46296,34149,20426
46264,34120,20380
46199,34054,20293
46110,33965,20183
46043,33904,20101
45986,33854,20029
45896,33769,19920
45783,33666,19796
45696,33593,19702
45621,33532,19616
45514,33437,19492
45398,33334,19354
45317,33270,19250
45249,33217,19157
45150,33130,19037
45046,33042,18917
44978,32993,18832
44918,32946,18748
44828,32862,18636
44740,32783,18535
44687,32746,18476
44636,32708,18417
44554,32634,18322
44476,32568,18229
44436,32543,18170
44396,32516,18108
44325,32457,18017
44263,32409,17938
44238,32394,17891
44206,32365,17836
44148,32307,17762
44102,32266,17710
44084,32256,17687
44058,32233,17647
44008,32183,17580
43973,32149,17532
43963,32141,17508
43936,32114,17463
43887,32065,17401
43863,32043,17366
43864,32046,17351
43845,32025,17310
43807,31987,17252
43790,31979,17221
43786,31987,17203
43751,31961,17151
43696,31914,17085
43668,31895,17050
43654,31886,17024
43607,31843,16964
43543,31787,16893
43504,31761,16854
43474,31746,16827
43412,31698,16769
43338,31641,16702
43297,31613,16663
43270,31593,16629
43218,31543,16566
43170,31495,16504
43155,31481,16476
43143,31466,16442
43102,31419,16375
43064,31376,16315
43063,31369,16288
43058,31356,16255
43014,31310,16188
42971,31271,16128
42960,31269,16103
42943,31259,16068
42896,31217,16006
42863,31193,15967
42876,31212,15976
42897,31234,15994
42917,31246,16013
42981,31299,16085
43105,31406,16221
43247,31527,16379
43403,31660,16568
43617,31848,16835
43889,32088,17168
44167,32326,17510
44444,32560,17861
44758,32831,18262
45096,33124,18687
45404,33383,19077
45685,33610,19442
45979,33852,19824
46266,34091,20195
46499,34280,20505
46690,34431,20771
46883,34590,21033
47058,34734,21263
47166,34817,21417
47228,34866,21525
47290,34926,21627
47330,34971,21695
47315,34961,21694
47273,34929,21664
47250,34921,21649
47223,34909,21619
47158,34853,21544
47086,34788,21462
47041,34751,21407
46990,34711,21342
46904,34638,21239
46821,34570,21134
46772,34535,21059
46724,34495,20980
46652,34428,20882
46596,34379,20810
46585,34373,20786
46581,34368,20764
46555,34340,20725
46543,34329,20706
46569,34352,20720
46585,34365,20721
46573,34351,20696
46570,34348,20686
46585,34361,20692
46576,34347,20668
46536,34302,20613
46504,34272,20569
46486,34259,20537
46441,34215,20475
46369,34150,20392
46319,34116,20338
46297,34110,20305
46259,34081,20248
46210,34040,20184
46198,34037,20163
46212,34057,20164
46208,34055,20145
46198,34045,20127
46225,34070,20153
46269,34108,20200
46288,34116,20223
46301,34115,20242
46345,34150,20294
46397,34193,20349
46417,34202,20368
46431,34209,20383
46471,34248,20430
46508,34283,20469
46508,34276,20463
46502,34267,20452
46526,34290,20470
46541,34303,20473
46511,34274,20430
46476,34246,20388
46470,34251,20373
46452,34243,20343
46395,34195,20272
46334,34146,20200
46294,34120,20149
46242,34077,20083
46162,34003,19987
46095,33941,19903
46054,33907,19844
46000,33855,19768
45921,33774,19669
45859,33713,19589
45818,33679,19526
45755,33623,19434
45670,33546,19320
45609,33494,19236
45570,33461,19172
45502,33393,19078
45412,33303,18967
45353,33244,18890
45312,33207,18835
45239,33140,18752
45154,33064,18661
45107,33026,18608
45083,33005,18571
45032,32957,18505
44969,32901,18433
44936,32881,18394
44914,32873,18361
44866,32835,18295
44812,32794,18227
44791,32785,18191
44776,32776,18156
44732,32729,18089
44687,32677,18024
44673,32661,17994
44654,32645,17961
44597,32594,17896
44543,32552,17839
44527,32548,17819
44509,32539,17789
44455,32493,17727
44403,32452,17675
44385,32442,17652
44363,32424,17616
44309,32375,17546
44258,32334,17485
44229,32315,17447
44183,32275,17390
44105,32202,17305
44040,32144,17241
44004,32115,17205
43953,32067,17148
43874,31996,17067
43813,31951,17008
43769,31929,16962
43702,31880,16880
43620,31813,16781
43571,31777,16716
43545,31763,16673
43498,31721,16606
43437,31661,16528
43405,31631,16481
43392,31620,16452
43351,31579,16394
43292,31524,16325
43262,31503,16290
43249,31498,16263
43210,31464,16202
43163,31422,16137
43151,31417,16113
43158,31426,16102
43143,31409,16070
43131,31398,16055
43164,31433,16096
43220,31486,16165
43274,31530,16236
43361,31605,16354
43517,31747,16553
43708,31916,16790
43895,32074,17029
44114,32260,17308
44393,32502,17650
44681,32753,18006
44942,32972,18343
45210,33199,18697
45505,33455,19076
45783,33693,19429
46020,33888,19735
46251,34079,20032
46488,34276,20329
46684,34434,20577
46820,34537,20764
46935,34628,20929
47041,34716,21075
47103,34761,21159
47122,34769,21196
47141,34787,21234
47164,34811,21267
47146,34788,21244
47088,34725,21177
47039,34679,21124
46998,34648,21079
46919,34581,20993
46817,34491,20883
46739,34428,20795
46673,34379,20714
46583,34306,20605
46490,34228,20494
46437,34188,20425
46403,34163,20378
46347,34115,20311
46294,34066,20252
46287,34060,20238
46297,34068,20237
46280,34049,20210
46263,34031,20182
46280,34046,20184
46298,34058,20181
46274,34029,20132
46234,33990,20068
46207,33973,20019
46165,33939,19953
46081,33863,19850
45996,33789,19751
45941,33748,19685
45882,33702,19613
45796,33629,19518
45722,33570,19441
45685,33544,19402
45650,33514,19359
45601,33468,19305
45576,33451,19283
45589,33474,19300
45599,33489,19311
45594,33486,19309
45617,33509,19338
45672,33561,19398
45709,33590,19436
45720,33594,19455
45749,33620,19501
45796,33662,19566
45818,33674,19600
45817,33664,19609
45835,33679,19638
45863,33704,19666
45859,33693,19653
45833,33663,19618
45829,33659,19602
45834,33666,19587
45808,33637,19535
45765,33597,19473
45745,33587,19438
45726,33577,19401
45672,33531,19330
45609,33478,19257
45573,33454,19219
45540,33426,19179
45470,33354,19097
45393,33274,19008
45342,33227,18948
45282,33177,18881
45181,33087,18772
45075,32993,18660
44995,32928,18571
44905,32855,18467
44785,32750,18331
44678,32660,18209
44609,32609,18121
44540,32556,18025
44449,32478,17908
44377,32420,17818
44341,32398,17767
44297,32368,17708
44232,32317,17631
44192,32291,17581
44184,32292,17558
44161,32270,17514
44111,32220,17449
44080,32189,17411
44073,32181,17399
44046,32150,17362
43999,32100,17307
43977,32079,17277
43976,32077,17258
43950,32049,17207
43905,32006,17142
43888,31995,17108
43890,32003,17089
43863,31981,17042
43817,31938,16985
43796,31924,16961
43786,31919,16946
43744,31882,16897
43698,31842,16843
43693,31844,16827
43701,31857,16818
43676,31836,16775
43642,31808,16730
43643,31815,16720
43652,31825,16712
43630,31798,16670
43603,31771,16627
43608,31778,16619
43615,31783,16610
43584,31749,16569
43548,31712,16532
43540,31704,16526
43527,31688,16508
43479,31639,16449
43433,31599,16395
43415,31591,16366
43385,31569,16322
43325,31514,16250
43274,31470,16192
43247,31449,16159
43204,31410,16106
43133,31343,16026
43077,31292,15964
43049,31266,15924
43004,31221,15859
42941,31161,15776
42910,31139,15731
42914,31152,15720
42909,31150,15698
42910,31154,15690
42967,31218,15755
43072,31330,15879
43181,31433,16012
43305,31541,16169
43487,31703,16394
43712,31901,16666
43934,32088,16941
44165,32282,17237
44438,32518,17581
44731,32768,17940
44997,32986,18266
45246,33189,18579
45510,33412,18909
45764,33625,19225
45968,33795,19494
46149,33952,19745
46340,34125,20005
46510,34273,20226
46624,34360,20375
46714,34425,20492
46811,34502,20609
46883,34554,20692
46900,34553,20716
46894,34540,20721
46895,34544,20730
46869,34525,20705
46798,34462,20631
46722,34398,20551
46664,34353,20483
46582,34283,20387
46464,34177,20258
46357,34085,20147
46277,34021,20061
46185,33943,19955
46076,33848,19830
45998,33787,19740
45954,33758,19681
45896,33709,19601
45821,33646,19509
45772,33613,19450
45741,33596,19407
45677,33543,19326
45591,33464,19223
45532,33415,19150
45490,33382,19094
45415,33316,19007
45321,33234,18906
45262,33187,18842
45227,33159,18798
45177,33109,18735
45127,33060,18678
45117,33053,18666
45124,33060,18670
45110,33038,18651
45098,33021,18641
45123,33045,18674
45156,33078,18715
45165,33083,18728
45178,33091,18750
45227,33135,18810
45272,33176,18868
45281,33177,18887
45288,33182,18908
45330,33226,18965
45367,33267,19013
45366,33266,19021
45364,33262,19026
45388,33283,19050
45395,33289,19054
45363,33258,19023
45333,33234,18998
45328,33231,18992
45309,33209,18962
45261,33163,18904
45228,33139,18865
45221,33142,18849
45198,33124,18808
45151,33081,18739
45126,33064,18694
45125,33070,18671
45095,33043,18620
45038,32989,18542
45002,32961,18486
44983,32950,18442
44933,32908,18368
44858,32843,18276
44808,32803,18212
44771,32772,18159
44699,32704,18068
44607,32621,17961
44543,32572,17888
44494,32540,17828
44418,32476,17735
44335,32404,17637
44288,32366,17574
44252,32336,17520
44188,32273,17438
44123,32209,17359
44097,32186,17319
44080,32169,17287
44034,32117,17225
43991,32070,17168
43984,32062,17146
43970,32049,17117
43916,31994,17057
43863,31942,17004
43850,31928,16983
43837,31912,16951
43794,31866,16890
43757,31833,16840
43746,31829,16817
43717,31810,16772
43651,31759,16700
43596,31723,16651
43569,31717,16633
43530,31691,16597
43471,31638,16539
43434,31605,16504
43425,31597,16488
43399,31566,16443
43354,31516,16382
43335,31496,16356
43336,31496,16348
43310,31463,16307
43265,31413,16248
43248,31397,16221
43248,31400,16209
43212,31370,16159
43153,31324,16091
43117,31305,16051
43092,31298,16021
43037,31257,15957
42971,31202,15882
42937,31178,15837
42914,31156,15795
42856,31095,15719
42784,31023,15637
42738,30984,15585
42696,30949,15533
42623,30882,15448
42548,30817,15368
42517,30797,15336
42502,30793,15317
42471,30772,15283
42466,30776,15283
42528,30846,15359
42622,30944,15476
42720,31040,15607
42856,31171,15788
43062,31361,16039
43288,31561,16311
43499,31743,16580
43731,31945,16884
44000,32182,17232
44259,32404,17570
44487,32594,17874
44718,32793,18180
44960,33005,18489
45168,33183,18753
45328,33317,18969
45484,33450,19184
45638,33579,19389
45743,33658,19536
45802,33694,19632
45863,33737,19726
45923,33783,19809
45932,33779,19833
45898,33735,19812
45874,33706,19800
45860,33686,19788
45808,33632,19732
45732,33563,19652
45684,33531,19594
45650,33512,19539
45583,33458,19444
45503,33392,19340
45456,33360,19274
45423,33342,19227
45366,33298,19157
45312,33256,19088
45296,33251,19055
45284,33246,19023
45240,33205,18958
45196,33163,18898
45184,33154,18873
45162,33132,18838
45095,33066,18757
45025,33000,18674
44989,32970,18625
44947,32929,18572
44871,32852,18490
44805,32786,18417
44777,32756,18375
44749,32721,18325
44699,32666,18256
44667,32639,18214
44672,32655,18210
44673,32669,18202
44660,32663,18183
44670,32679,18194
44712,32724,18234
44743,32752,18258
44755,32758,18266
44788,32787,18304
44845,32834,18367
44879,32853,18405
44891,32851,18421
44923,32878,18461
44969,32923,18514
44983,32934,18534
44973,32925,18534
44986,32943,18558
45012,32971,18590
45002,32962,18583
44968,32929,18556
44957,32922,18555
44955,32920,18560
44918,32880,18524
44868,32831,18474
44847,32817,18453
44827,32806,18430
44771,32759,18366
44713,32709,18296
44689,32693,18253
44667,32671,18201
44606,32605,18106
44533,32533,18005
44484,32493,17933
44434,32453,17860
44351,32378,17757
44272,32307,17662
44233,32272,17603
44195,32233,17541
44127,32165,17451
44064,32108,17373
44027,32079,17319
43976,32038,17246
43895,31969,17144
43830,31920,17060
43796,31903,17009
43747,31870,16946
43673,31810,16862
43617,31769,16800
43584,31751,16759
43535,31710,16698
43467,31649,16620
43424,31615,16575
43406,31603,16551
43367,31565,16501
43312,31513,16440
43291,31499,16417
43292,31508,16413
43266,31489,16381
43227,31457,16339
43221,31460,16332
43232,31478,16335
43215,31460,16303
43187,31430,16259
43191,31432,16249
43204,31443,16245
43183,31417,16203
43151,31382,16157
43150,31378,16147
43154,31375,16137
43124,31333,16086
43081,31282,16027
43058,31257,15999
43025,31226,15964
42955,31160,15893
42889,31102,15828
42860,31085,15800
42830,31066,15766
42765,31012,15696
42706,30965,15632
42685,30957,15600
42662,30943,15561
42610,30899,15498
42573,30871,15455
42571,30876,15446
42561,30866,15419
42521,30826,15360
42492,30801,15316
42489,30805,15298
42469,30790,15259
42425,30751,15197
42404,30738,15162
42409,30747,15150
42391,30729,15113
42352,30690,15065
42342,30685,15058
42364,30710,15087
42382,30722,15112
42408,30735,15152
42495,30805,15259
42634,30925,15421
42782,31050,15599
42951,31196,15811
43179,31399,16094
43443,31630,16417
43693,31840,16736
43943,32054,17073
44231,32308,17454
44520,32562,17836
44760,32767,18170
44974,32950,18478
45206,33154,18793
45422,33343,19080
45582,33477,19303
45716,33590,19499
45856,33718,19696
45967,33818,19851
46020,33856,19937
46054,33877,20000
46103,33918,20072
46128,33935,20110
46099,33900,20088
46053,33856,20051
46023,33834,20024
45974,33794,19972
45886,33718,19878
45805,33652,19791
45754,33616,19729
45693,33567,19651
45607,33491,19551
45537,33432,19471
45490,33393,19415
45424,33333,19338
45335,33254,19241
45267,33205,19173
45225,33183,19132
45164,33134,19067
45087,33068,18987
45042,33037,18943
45019,33023,18920
44969,32975,18868
44908,32913,18804
44887,32891,18774
44887,32886,18752
44858,32851,18694
44816,32807,18628
44806,32802,18600
44808,32811,18587
44783,32790,18548
44758,32769,18514
44776,32792,18524
44813,32830,18546
44829,32844,18544
44844,32861,18544
44889,32917,18582
44939,32980,18624
44961,33014,18638
44989,33057,18663
45053,33141,18731
45117,33224,18801
45148,33271,18838
45183,33320,18883
45250,33401,18957
45308,33468,19015
45328,33496,19037
45345,33525,19063
45381,33575,19106
45398,33604,19122
45380,33600,19102
45370,33605,19089
45382,33629,19092
45371,33628,19070
45331,33597,19021
45303,33582,18991
45290,33584,18976
45249,33558,18926
45181,33503,18847
45136,33473,18792
45110,33462,18755
45053,33418,18683
44973,33352,18584
44921,33317,18513
44892,33300,18458
44836,33252,18375
44762,33186,18280
44716,33146,18217
44682,33115,18168
44614,33047,18090
44531,32968,18003
44481,32930,17951
44441,32905,17906
44369,32846,17829
44292,32782,17747
44253,32755,17698
44221,32732,17650
44156,32672,17566
44084,32609,17485
44045,32581,17439
44011,32549,17389
43954,32486,17306
43911,32438,17236
43911,32437,17206
43912,32438,17174
43884,32407,17117
43864,32387,17076
43881,32406,17072
43897,32418,17062
43886,32400,17030
43886,32396,17015
43911,32418,17029
43914,32419,17026
43884,32389,16996
43868,32378,16986
43878,32395,16999
43867,32391,16986
43829,32362,16948
43808,32352,16932
43807,32358,16930
43782,32334,16895
43731,32287,16837
43703,32270,16809
43692,32272,16797
43651,32240,16752
43588,32184,16685
43552,32155,16639
43531,32142,16603
43480,32099,16536
43414,32046,16457
43381,32029,16411
43366,32022,16374
43322,31981,16307
43267,31929,16234
43238,31905,16193
43217,31889,16157
43168,31846,16091
43115,31801,16026
43090,31788,15996
43063,31771,15962
42999,31714,15890
42927,31657,15819
42889,31636,15785
42854,31616,15754
42795,31567,15703
42759,31539,15680
42785,31571,15722
42843,31629,15795
42905,31686,15877
43011,31783,16012
43185,31943,16218
43380,32119,16453
43569,32291,16701
43793,32498,16997
44058,32740,17342
44315,32964,17678
44545,33155,17989
44786,33358,18317
45043,33579,18660
45272,33768,18966
45467,33922,19232
45667,34086,19500
45868,34253,19761
46020,34370,19960
46126,34445,20109
46231,34531,20255
46328,34615,20386
46370,34646,20453
46373,34642,20477
46387,34653,20505
46401,34663,20520
46366,34626,20479
46298,34564,20408
46246,34525,20352
46194,34488,20294
46104,34409,20198
46004,34320,20093
45937,34264,20021
45878,34219,19954
45789,34147,19859
45702,34080,19771
45655,34056,19727
45622,34039,19688
45567,33990,19616
45520,33945,19548
45509,33939,19516
45493,33928,19477
45441,33881,19404
45391,33840,19339
45369,33829,19303
45335,33807,19253
45263,33747,19170
45193,33691,19093
45147,33656,19039
45089,33599,18967
45000,33508,18866
44924,33434,18786
44873,33391,18733
44812,33339,18667
44737,33274,18589
44691,33238,18544
44676,33231,18529
44649,33206,18496
44613,33169,18456
44609,33167,18455
44631,33190,18480
44633,33190,18480
44624,33177,18470
44645,33197,18495
44678,33230,18538
44674,33226,18550
44651,33202,18549
44656,33206,18578
44672,33222,18614
44651,33206,18609
44611,33177,18584
44598,33177,18580
44590,33178,18571
44542,33138,18516
44482,33088,18451
44451,33069,18419
44421,33049,18384
44357,32989,18310
44288,32926,18234
44249,32896,18191
44209,32864,18143
44138,32799,18062
44075,32742,17992
44050,32727,17961
44025,32711,17924
43966,32660,17855
43910,32614,17789
43888,32597,17746
43856,32568,17686
43790,32507,17593
43728,32459,17513
43691,32435,17458
43640,32392,17385
43563,32324,17290
43504,32276,17217
43473,32253,17167
43430,32211,17099
43371,32151,17017
43336,32120,16967
43323,32113,16937
43287,32081,16880
43232,32030,16805
43203,32006,16766
43194,32002,16750
43159,31967,16702
43106,31915,16633
43082,31896,16594
43076,31897,16574
43044,31872,16529
43001,31836,16478
42988,31834,16461
42987,31844,16451
42960,31826,16405
42928,31804,16353
42926,31813,16334
42929,31823,16320
42897,31793,16275
42857,31754,16228
42848,31748,16215
42840,31742,16196
42797,31702,16139
42753,31666,16086
42745,31667,16071
42735,31663,16050
42690,31620,15991
42642,31577,15934
42619,31561,15905
42588,31533,15863
42523,31468,15790
42463,31408,15726
42432,31378,15689
42392,31337,15638
42325,31270,15559
42271,31223,15494
42245,31210,15455
42203,31178,15398
42132,31118,15319
42077,31073,15260
42047,31046,15219
41996,30994,15151
41919,30920,15066
41864,30871,15013
41832,30845,14982
41779,30792,14921
41709,30724,14844
41669,30688,14803
41653,30679,14788
41619,30650,14756
41585,30622,14725
41607,30651,14751
41678,30724,14828
41755,30794,14915
41851,30883,15034
42011,31036,15229
42219,31228,15475
42429,31412,15731
42654,31612,16017
42927,31862,16359
43220,32125,16718
43486,32351,17048
43743,32567,17371
44019,32807,17717
44280,33033,18042
44494,33208,18313
44689,33369,18562
44893,33544,18816
45066,33689,19032
45181,33775,19185
45273,33844,19314
45366,33922,19437
45421,33969,19512
45414,33962,19530
45391,33947,19534
45377,33943,19541
45335,33912,19512
45258,33845,19443
45193,33787,19381
45149,33747,19330
45083,33681,19246
44987,33586,19137
44906,33512,19053
44850,33463,18992
44775,33394,18905
44687,33315,18803
44631,33276,18736
44602,33263,18690
44546,33220,18615
44466,33155,18520
44409,33118,18454
44364,33092,18400
44284,33027,18309
44181,32939,18194
44101,32874,18099
44031,32815,18013
43935,32727,17900
43835,32634,17789
43776,32581,17717
43737,32544,17661
43681,32491,17589
43636,32453,17535
43640,32463,17534
43662,32490,17547
43663,32490,17538
43667,32493,17538
43706,32530,17577
43740,32564,17614
43742,32564,17618
43752,32576,17635
43803,32632,17695
43860,32690,17757
43894,32723,17798
43937,32767,17852
44013,32842,17934
44080,32904,17999
44112,32929,18034
44146,32957,18079
44205,33004,18147
44253,33036,18197
44282,33045,18222
44324,33075,18263
44388,33129,18321
44432,33163,18352
44447,33172,18355
44469,33194,18368
44493,33222,18381
44470,33203,18343
44406,33144,18267
44353,33098,18205
44309,33060,18152
44232,32989,18066
44139,32904,17969
44085,32857,17906
44059,32832,17858
44011,32785,17786
43953,32733,17715
43929,32717,17681
43922,32715,17654
43886,32686,17596
43845,32654,17537
43837,32656,17510
43841,32662,17487
43823,32636,17436
43806,32610,17391
43829,32620,17385
43865,32638,17386
43879,32630,17362
43900,32634,17350
43962,32684,17382
44028,32737,17415
44059,32756,17417
44087,32778,17420
44141,32828,17443
44185,32866,17446
44193,32867,17414
44204,32873,17392
44237,32904,17397
44254,32916,17389
44237,32896,17357
44226,32887,17341
44238,32901,17348
44228,32890,17332
44178,32840,17284
44130,32800,17247
44097,32777,17227
44038,32726,17174
43948,32645,17090
43874,32582,17023
43813,32533,16965
43724,32452,16868
43609,32350,16748
43516,32276,16658
43433,32219,16579
43313,32125,16462
43172,32009,16324
43060,31923,16212
42964,31850,16113
42838,31743,15987
42702,31628,15856
42608,31556,15767
42543,31508,15700
42472,31446,15617
42433,31412,15558
42475,31454,15575
42566,31536,15634
42654,31604,15683
42752,31681,15747
42885,31795,15853
43012,31900,15957
43098,31960,16020
43181,32016,16083
43293,32101,16178
43396,32174,16268
43468,32218,16337
43559,32284,16438
43708,32406,16601
43879,32546,16788
44048,32686,16984
44253,32862,17227
44514,33088,17526
44785,33321,17837
45047,33543,18145
45336,33790,18488
45653,34065,18862
45949,34317,19214
46211,34539,19539
46479,34773,19873
46752,35011,20204
46979,35201,20481
47153,35344,20707
47318,35486,20927
47468,35615,21127
47556,35681,21259
47593,35701,21339
47628,35728,21413
47653,35749,21466
47623,35715,21455
47553,35646,21404
47491,35585,21356
47421,35514,21291
47302,35396,21173
47160,35262,21036
47043,35161,20924
46936,35071,20817
46804,34953,20682
46674,34839,20551
46588,34770,20460
46515,34712,20375
46422,34626,20264
46338,34548,20163
46296,34511,20104
46264,34480,20045
46205,34419,19953
46149,34362,19867
46126,34337,19815
46094,34303,19753
46013,34231,19651
45925,34161,19554
45864,34122,19482
45796,34071,19396
45702,33994,19285
45625,33934,19200
45586,33906,19153
45542,33869,19100
45480,33813,19036
45441,33783,18999
45431,33783,18987
45409,33770,18961
45370,33739,18927
45359,33737,18931
45378,33764,18965
45384,33768,18979
45379,33754,18982
45403,33771,19024
45442,33803,19084
45446,33800,19106
45422,33775,19103
45413,33775,19120
45408,33784,19135
45356,33749,19101
45273,33689,19043
45207,33650,19008
45145,33615,18974
45046,33539,18900
44935,33447,18813
44851,33378,18749
44769,33304,18675
44649,33191,18556
44516,33073,18427
44411,32990,18324
44310,32914,18219
44182,32810,18083
44067,32714,17958
43997,32663,17877
43940,32620,17805
43863,32554,17713
43804,32505,17638
43789,32500,17604
43777,32494,17569
43741,32461,17512
43723,32443,17475
43747,32465,17473
43770,32482,17462
43768,32474,17428
43780,32483,17413
43813,32519,17421
43822,32530,17404
43797,32509,17359
43782,32500,17330
43787,32508,17320
43767,32484,17282
43716,32428,17218
43681,32395,17177
43661,32381,17151
43614,32337,17093
43545,32272,17016
43501,32235,16970
43478,32216,16942
43433,32171,16891
43382,32119,16836
43372,32109,16822
43386,32122,16826
43374,32107,16800
43352,32084,16766
43359,32096,16768
43379,32117,16779
43376,32106,16757
43366,32086,16730
43386,32098,16732
43412,32115,16734
43406,32097,16704
43393,32077,16675
43412,32091,16678
43429,32104,16673
43408,32081,16629
43387,32064,16589
43402,32085,16586
43416,32105,16583
43399,32092,16550
43393,32088,16529
43428,32121,16542
43458,32140,16545
43450,32119,16515
43441,32103,16494
43452,32112,16498
43445,32104,16483
43407,32068,16445
43384,32053,16435
43399,32075,16467
43419,32092,16501
43444,32107,16541
43515,32168,16640
43634,32273,16794
43756,32376,16954
43884,32482,17126
44063,32638,17360
44277,32830,17637
44477,33006,17903
44670,33177,18166
44902,33390,18465
45153,33622,18781
45368,33817,19059
45556,33985,19314
45763,34172,19590
45964,34352,19856
46112,34474,20062
46230,34565,20232
46358,34670,20404
46467,34758,20547
46513,34784,20621
46524,34780,20656
46539,34790,20697
46538,34790,20713
46491,34743,20671
46429,34685,20609
46389,34654,20566
46342,34613,20504
46254,34528,20398
46164,34445,20292
46108,34400,20219
46052,34355,20145
45969,34281,20050
45901,34225,19976
45877,34212,19944
45859,34196,19910
45822,34158,19860
45803,34140,19835
45818,34159,19842
45824,34166,19835
45802,34147,19797
45795,34141,19772
45813,34154,19764
45811,34141,19727
45783,34102,19666
45774,34085,19630
45786,34089,19615
45782,34070,19578
45770,34043,19534
45800,34061,19537
45864,34115,19576
45917,34154,19607
45964,34189,19641
46049,34265,19716
46157,34364,19816
46245,34440,19896
46327,34510,19977
46444,34617,20099
46576,34731,20227
46675,34806,20313
46756,34867,20381
46857,34956,20473
46951,35040,20562
47001,35078,20610
47029,35096,20648
47071,35131,20703
47095,35150,20738
47064,35115,20718
47009,35064,20681
46968,35034,20660
46909,34987,20614
46805,34896,20524
46693,34799,20432
46607,34729,20362
46512,34646,20273
46382,34525,20144
46256,34410,20021
46161,34325,19925
46053,34227,19814
45913,34098,19675
45782,33983,19549
45677,33894,19443
45558,33788,19315
45414,33655,19158
45288,33543,19019
45186,33456,18902
45060,33344,18756
44909,33208,18591
44781,33105,18460
44677,33028,18355
44549,32926,18223
44403,32807,18077
44292,32725,17970
44211,32671,17890
44112,32597,17788
44001,32513,17675
43923,32461,17593
43868,32425,17529
43797,32366,17448
43730,32313,17375
43705,32303,17346
43699,32306,17328
43669,32280,17286
43640,32256,17252
43649,32268,17259
43666,32284,17265
43650,32268,17231
43625,32250,17197
43630,32265,17198
43634,32277,17195
43600,32243,17148
43561,32203,17098
43554,32197,17082
43548,32188,17064
43513,32148,17012
43483,32116,16968
43486,32117,16954
43484,32111,16931
43452,32075,16881
43429,32053,16844
43431,32062,16835
43418,32056,16811
43373,32018,16757
43338,31988,16716
43324,31982,16698
43292,31953,16657
43231,31894,16587
43178,31850,16532
43135,31820,16492
43061,31757,16420
42958,31668,16323
42874,31603,16248
42810,31561,16191
42724,31497,16111
42637,31432,16034
42607,31426,16024
42629,31467,16072
42656,31506,16136
42705,31559,16236
42826,31675,16417
43006,31841,16655
43193,32008,16906
43400,32192,17185
43664,32427,17523
43954,32683,17886
44220,32909,18228
44480,33131,18567
44767,33379,18929
45044,33615,19276
45273,33804,19569
45484,33980,19840
45711,34180,20120
45914,34359,20368
46058,34477,20548
46178,34573,20703
46304,34677,20858
46397,34749,20974
46435,34768,21030
46463,34779,21070
46506,34808,21114
46526,34812,21125
46501,34777,21093
46477,34751,21064
46473,34748,21054
46451,34726,21019
46402,34676,20957
46368,34645,20912
46362,34644,20894
46349,34630,20864
46321,34600,20823
46317,34600,20815
46340,34624,20831
46343,34624,20819
46328,34603,20782
46337,34609,20770
46359,34632,20775
46344,34621,20747
46302,34589,20701
46284,34584,20681
46277,34590,20667
46234,34555,20609
46169,34498,20526
46128,34466,20468
46095,34437,20417
46037,34377,20343
45984,34320,20280
45978,34309,20265
45996,34318,20268
45997,34308,20252
46002,34310,20247
46048,34358,20287
46105,34416,20338
46131,34440,20359
46156,34465,20386
46217,34527,20450
46279,34587,20514
46312,34614,20547
46347,34646,20587
46408,34707,20653
46460,34754,20706
46478,34763,20727
46506,34782,20762
46568,34837,20831
46623,34880,20887
46643,34889,20906
46664,34904,20927
46697,34937,20960
46698,34941,20961
46657,34906,20924
46620,34880,20898
46602,34869,20887
46566,34835,20847
46511,34782,20785
46478,34754,20744
46467,34744,20719
46433,34702,20667
46379,34638,20595
46349,34602,20549
46342,34588,20519
46309,34550,20460
46258,34498,20386
46235,34480,20342
46225,34478,20307
46186,34444,20239
46130,34395,20159
46101,34372,20108
46081,34357,20068
46031,34309,19999
45974,34257,19927
45952,34241,19893
45936,34229,19863
45888,34180,19797
45836,34127,19727
45815,34102,19690
45791,34075,19651
45735,34012,19577
45681,33954,19506
45663,33933,19470
45644,33910,19430
45586,33855,19358
45530,33811,19298
45508,33804,19272
45482,33793,19236
45426,33754,19176
45380,33729,19137
45367,33729,19128
45347,33713,19103
45303,33670,19053
45274,33644,19024
45272,33643,19019
45259,33626,18994
45227,33590,18946
45214,33580,18921
45226,33595,18913
45216,33584,18880
45186,33553,18833
45182,33554,18822
45199,33571,18832
45189,33554,18810
45158,33518,18769
45152,33515,18756
45163,33533,18757
45144,33519,18722
45104,33488,18670
45092,33486,18648
45089,33494,18636
45053,33466,18592
45005,33423,18538
44990,33408,18516
44987,33397,18501
44952,33349,18456
44913,33298,18407
44914,33289,18396
44930,33298,18401
44933,33295,18396
44959,33321,18425
45044,33410,18523
45157,33521,18655
45267,33619,18794
45408,33745,18982
45613,33931,19241
45838,34134,19528
46047,34319,19811
46271,34523,20119
46530,34766,20468
46780,34998,20806
46994,35191,21109
47210,35384,21411
47445,35589,21722
47656,35766,22000
47822,35900,22233
47982,36034,22458
48145,36174,22674
48269,36276,22838
48345,36338,22952
48421,36405,23063
48498,36471,23160
48532,36490,23196
48528,36477,23190
48535,36482,23199
48547,36498,23214
48518,36471,23185
48459,36416,23130
48423,36387,23099
48398,36368,23076
48340,36314,23016
48270,36248,22945
48235,36220,22909
48217,36205,22881
48175,36158,22819
48129,36103,22749
48116,36082,22712
48107,36066,22681
48064,36015,22620
48017,35963,22564
48007,35951,22549
48001,35944,22535
47960,35902,22484
47916,35866,22431
47905,35867,22409
47893,35865,22380
47852,35827,22320
47818,35795,22269
47818,35800,22251
47814,35800,22226
47787,35775,22181
47775,35767,22160
47799,35794,22178
47818,35810,22190
47816,35803,22185
47843,35822,22209
47912,35881,22270
47977,35934,22322
48021,35965,22357
48086,36019,22415
48179,36100,22497
48249,36160,22557
48291,36195,22594
48346,36246,22649
48408,36304,22709
48431,36322,22730
48424,36310,22725
48431,36318,22744
48438,36327,22765
48397,36285,22736
48323,36210,22675
48267,36156,22630
48215,36111,22585
48123,36027,22498
48013,35930,22398
47930,35863,22329
47854,35801,22261
47738,35697,22153
47605,35581,22034
47501,35497,21943
47406,35416,21854
47281,35304,21733
47157,35190,21610
47069,35115,21514
46989,35044,21412
46878,34945,21275
46769,34854,21147
46696,34805,21059
46624,34757,20973
46524,34677,20860
46431,34604,20760
46378,34570,20695
46332,34537,20627
46267,34482,20541
46219,34446,20479
46212,34448,20455
46207,34444,20423
46188,34419,20377
46196,34420,20361
46240,34456,20379
46274,34480,20382
46286,34483,20368
46318,34512,20383
46376,34568,20422
46416,34604,20435
46435,34621,20429
46478,34666,20455
46537,34725,20500
46567,34749,20512
46575,34750,20501
46608,34778,20513
46652,34819,20535
46656,34819,20524
46633,34797,20500
46632,34799,20505
46639,34809,20514
46612,34780,20484
46568,34733,20437
46548,34713,20415
46534,34699,20397
46491,34655,20348
46442,34610,20297
46425,34600,20277
46409,34592,20248
46358,34545,20172
46297,34489,20091
46261,34460,20040
46218,34422,19981
46133,34341,19884
46047,34258,19789
45996,34212,19730
45946,34166,19669
45864,34092,19579
45790,34030,19503
45753,34003,19462
45713,33965,19412
45647,33900,19335
45599,33856,19280
45587,33847,19261
45568,33829,19233
45530,33790,19187
45518,33775,19170
45545,33799,19194
45578,33823,19222
45617,33851,19260
45709,33934,19359
45853,34071,19518
46005,34211,19688
46168,34358,19878
46381,34560,20135
46630,34797,20442
46863,35011,20740
47085,35214,21037
47345,35452,21373
47628,35705,21726
47880,35919,22048
48106,36105,22347
48345,36305,22654
48577,36494,22939
48758,36628,23162
48904,36735,23352
49056,36857,23546
49190,36970,23717
49274,37037,23834
49336,37089,23931
49415,37164,24043
49483,37230,24134
49509,37249,24169
49524,37256,24186
49562,37288,24221
49592,37313,24240
49581,37301,24221
49567,37293,24204
49589,37320,24215
49608,37341,24215
49592,37327,24179
49578,37315,24149
49591,37328,24148
49594,37329,24133
49569,37301,24094
49564,37290,24074
49590,37308,24083
49604,37309,24076
49596,37286,24043
49604,37285,24027
49628,37302,24025
49620,37287,23985
49577,37241,23916
49543,37214,23867
49525,37207,23831
49485,37177,23767
49430,37131,23694
49406,37115,23663
49410,37121,23661
49395,37102,23639
49373,37075,23615
49387,37085,23630
49419,37111,23656
49426,37108,23651
49429,37099,23645
49464,37123,23677
49505,37153,23715
49509,37145,23718
49500,37128,23713
49517,37145,23742
49539,37168,23771
49527,37156,23761
49506,37138,23745
49509,37148,23757
49507,37151,23758
49467,37115,23716
49418,37078,23670
49396,37072,23651
49369,37058,23622
49310,37009,23558
49257,36968,23508
49238,36962,23496
49208,36946,23475
49148,36896,23424
49106,36859,23387
49102,36861,23381
49097,36858,23363
49066,36829,23317
49043,36811,23285
49042,36815,23276
49024,36800,23244
48975,36756,23183
48935,36723,23131
48910,36704,23087
48862,36659,23009
48793,36596,22909
48748,36562,22841
48722,36544,22791
48671,36497,22714
48601,36434,22622
48556,36400,22560
48529,36386,22519
48476,36340,22452
48411,36275,22373
48378,36244,22327
48367,36235,22301
48330,36205,22250
48278,36165,22193
48255,36153,22167
48238,36145,22148
48190,36101,22096
48142,36053,22044
48134,36045,22026
48136,36043,22010
48106,36008,21960
48068,35968,21910
48060,35960,21892
48051,35947,21869
48008,35893,21809
47968,35847,21753
47960,35842,21732
47948,35838,21706
47908,35804,21654
47883,35785,21618
47893,35803,21619
47895,35809,21611
47866,35780,21576
47845,35760,21552
47850,35766,21551
47841,35754,21531
47804,35711,21481
47781,35684,21447
47784,35687,21436
47772,35675,21406
47734,35639,21351
47712,35626,21318
47712,35636,21305
47692,35621,21270
47653,35587,21221
47637,35582,21205
47635,35591,21202
47600,35563,21159
47547,35512,21095
47526,35490,21067
47524,35485,21054
47494,35451,21009
47450,35408,20951
47436,35397,20922
47431,35396,20896
47393,35361,20832
47342,35314,20760
47320,35298,20719
47304,35287,20680
47259,35246,20615
47217,35213,20563
47220,35227,20559
47239,35255,20574
47242,35258,20579
47266,35277,20613
47350,35353,20719
47466,35455,20860
47582,35552,21004
47739,35687,21192
47961,35886,21453
48202,36100,21738
48427,36300,22020
48673,36523,22338
48959,36786,22703
49240,37038,23056
49487,37252,23372
49740,37468,23693
50007,37696,24027
50242,37889,24320
50431,38039,24564
50617,38193,24806
50799,38350,25043
50933,38459,25226
51022,38525,25361
51111,38599,25490
51195,38674,25606
51228,38702,25659
51217,38690,25665
51211,38688,25676
51204,38686,25678
51157,38640,25629
51084,38569,25549
51034,38521,25488
50995,38479,25430
50926,38405,25338
50843,38321,25237
50788,38271,25169
50744,38234,25108
50670,38169,25016
50592,38105,24928
50558,38086,24888
50537,38076,24859
50483,38031,24798
50424,37981,24736
50399,37962,24706
50376,37938,24672
50319,37875,24603
50262,37815,24535
50235,37792,24499
50202,37768,24455
50134,37713,24376
50072,37667,24302
50052,37661,24267
50038,37653,24230
50000,37614,24171
49982,37590,24138
50004,37603,24148
50022,37609,24152
50018,37596,24140
50033,37609,24157
50081,37654,24207
50120,37684,24243
50135,37693,24259
50168,37730,24304
50229,37796,24377
50276,37836,24428
50302,37851,24463
50351,37891,24527
50419,37951,24612
50460,37978,24666
50475,37976,24693
50507,37998,24740
50546,38032,24788
50548,38030,24789
50529,38009,24766
50532,38014,24767
50537,38025,24765
50500,37996,24716
50443,37950,24648
50409,37932,24605
50378,37916,24563
50312,37858,24485
50236,37791,24401
50192,37759,24350
50156,37729,24297
50084,37662,24206
50004,37590,24111
49953,37552,24044
49902,37513,23972
49816,37436,23862
49733,37363,23755
49684,37325,23680
49628,37280,23602
49535,37198,23498
49450,37123,23408
49400,37087,23350
49346,37045,23283
49265,36975,23188
49194,36917,23109
49155,36889,23061
49112,36848,23001
49049,36784,22920
49004,36738,22861
48985,36715,22827
48948,36670,22771
48887,36601,22695
48845,36558,22647
48830,36542,22622
48798,36509,22574
48749,36464,22513
48727,36454,22486
48726,36466,22477
48697,36446,22437
48645,36407,22380
48622,36400,22354
48618,36409,22341
48583,36381,22295
48534,36337,22239
48518,36326,22218
48513,36326,22206
48475,36289,22155
48431,36242,22097
48421,36232,22076
48421,36234,22062
48393,36208,22019
48366,36186,21978
48377,36206,21981
48401,36234,21995
48401,36228,21982
48408,36225,21977
48452,36259,22008
48491,36290,22029
48490,36283,22009
48483,36272,21984
48498,36287,21982
48499,36290,21966
48460,36254,21918
48421,36223,21879
48406,36216,21861
48377,36188,21821
48311,36123,21748
48253,36070,21686
48225,36049,21650
48184,36016,21599
48112,35956,21520
48057,35914,21461
48033,35900,21432
48002,35869,21390
47961,35828,21346
47958,35830,21355
48007,35882,21421
48067,35939,21500
48141,36008,21605
48275,36138,21785
48462,36316,22024
48647,36483,22266
48837,36646,22515
49075,36858,22816
49343,37097,23142
49588,37307,23443
49819,37506,23734
50076,37737,24053
50335,37968,24366
50543,38143,24627
50717,38284,24862
50900,38438,25104
51070,38578,25326
51191,38672,25489
51289,38746,25624
51396,38836,25760
51485,38911,25867
51523,38939,25913
51539,38953,25935
51569,38985,25966
51577,38998,25970
51535,38961,25917
51480,38914,25851
51443,38885,25802
51387,38835,25731
51290,38745,25624
51197,38663,25529
51132,38608,25462
51058,38539,25380
50964,38450,25274
50890,38385,25192
50850,38358,25143
50798,38318,25082
50723,38254,25001
50668,38211,24942
50637,38192,24901
50587,38148,24833
50516,38080,24745
50471,38039,24689
50448,38020,24650
50403,37974,24578
50343,37915,24493
50314,37895,24443
50310,37897,24413
50281,37868,24360
50238,37824,24304
50230,37817,24292
50243,37830,24301
50232,37818,24288
50217,37804,24277
50242,37833,24315
50286,37877,24370
50304,37887,24397
50318,37892,24423
50365,37931,24481
50422,37974,24541
50455,37989,24572
50490,38008,24605
50556,38065,24673
50616,38120,24738
50634,38139,24763
50645,38157,24787
50682,38207,24840
50707,38243,24879
50686,38230,24868
50659,38207,24851
50659,38208,24857
50652,38195,24844
50612,38148,24794
50574,38108,24747
50551,38088,24718
50502,38043,24659
50416,37965,24562
50344,37904,24476
50299,37870,24416
50239,37818,24335
50154,37742,24228
50089,37690,24148
50055,37665,24098
50005,37617,24028
49933,37546,23937
49884,37501,23877
49852,37474,23837
49787,37411,23762
49699,37326,23665
49642,37279,23600
49605,37257,23550
49539,37208,23471
49458,37147,23383
49407,37115,23323
49372,37094,23266
49308,37035,23172
49231,36961,23070
49180,36920,23003
49131,36882,22942
49048,36808,22850
48963,36731,22763
48915,36697,22718
48877,36672,22681
48815,36619,22613
48761,36571,22553
48755,36568,22539
48757,36571,22532
48728,36545,22494
48698,36524,22460
48701,36536,22457
48699,36540,22446
48662,36507,22403
48628,36481,22373
48627,36484,22372
48617,36471,22353
48574,36425,22302
48542,36395,22268
48539,36391,22257
48519,36363,22223
48470,36305,22161
48438,36270,22118
48428,36266,22097
48397,36244,22048
48337,36195,21972
48293,36168,21920
48270,36161,21890
48225,36127,21835
48158,36067,21763
48116,36031,21718
48091,36010,21684
48039,35958,21618
47973,35892,21541
47937,35865,21498
47914,35857,21466
47862,35821,21404
47799,35770,21334
47771,35747,21300
47762,35737,21285
47736,35708,21257
47726,35697,21254
47776,35752,21320
47867,35843,21430
47963,35935,21549
48097,36059,21716
48300,36249,21959
48533,36463,22236
48753,36662,22507
48986,36876,22806
49264,37132,23160
49544,37383,23522
49788,37590,23851
50028,37789,24173
50284,38005,24504
50513,38197,24800
50689,38337,25039
50852,38467,25264
51022,38606,25490
51158,38711,25675
51246,38770,25806
51330,38829,25923
51421,38901,26032
51471,38938,26089
51475,38933,26093
51475,38933,26096
51481,38943,26102
51452,38918,26069
51384,38858,26001
51325,38814,25945
51281,38783,25896
51207,38717,25807
51107,38626,25693
51029,38563,25603
50962,38517,25527
50868,38438,25419
50765,38347,25303
50704,38294,25226
50669,38260,25167
50612,38202,25086
50547,38139,25007
50509,38110,24962
50478,38089,24922
50417,38037,24849
50352,37980,24776
50316,37954,24736
50281,37928,24693
50216,37870,24612
50151,37814,24535
50123,37797,24495
50101,37785,24457
50049,37741,24390
50001,37704,24334
49997,37709,24326
50001,37716,24327
49980,37696,24308
49974,37690,24305
50010,37724,24340
50048,37759,24374
50062,37770,24387
50089,37796,24420
50146,37851,24482
50187,37890,24529
50193,37896,24548
50205,37912,24582
50243,37951,24639
50262,37967,24670
50255,37955,24675
50268,37963,24702
50300,37989,24741
50304,37985,24742
50280,37955,24714
50271,37950,24706
50274,37963,24711
50242,37941,24681
50184,37897,24631
50154,37879,24607
50143,37872,24594
50102,37828,24546
50041,37764,24479
50005,37730,24431
49978,37706,24383
49914,37648,24296
49839,37580,24203
49801,37550,24147
49770,37530,24095
49700,37472,24004
49620,37403,23905
49569,37361,23836
49522,37318,23769
49440,37238,23670
49351,37153,23571
49292,37103,23508
49238,37055,23443
49158,36980,23350
49088,36915,23266
49052,36885,23211
49011,36850,23143
48943,36786,23047
48883,36734,22964
48852,36713,22910
48811,36685,22848
48745,36632,22766
48695,36597,22709
48677,36591,22684
48649,36564,22642
48596,36511,22576
48559,36480,22531
48548,36475,22509
48518,36449,22463
48462,36399,22395
48427,36372,22355
48417,36365,22339
48386,36330,22297
48336,36276,22233
48310,36254,22197
48299,36250,22180
48256,36217,22132
48196,36168,22070
48176,36157,22044
48184,36170,22040
48163,36152,22007
48120,36114,21957
48101,36103,21933
48094,36098,21912
48053,36056,21854
47997,36005,21783
47972,35992,21746
47955,35985,21714
47906,35944,21647
47854,35900,21582
47835,35889,21552
47815,35872,21522
47760,35815,21455
47700,35759,21385
47669,35741,21346
47629,35719,21299
47555,35662,21225
47495,35614,21172
47487,35610,21167
47499,35618,21175
47506,35619,21185
47553,35662,21244
47663,35770,21371
47799,35898,21528
47944,36031,21707
48136,36211,21950
48386,36444,22254
48649,36678,22570
48906,36902,22889
49190,37152,23249
49502,37426,23638
49791,37671,24000
50051,37887,24335
50321,38118,24682
50599,38354,25026
50829,38539,25312
51007,38678,25547
51176,38823,25779
51334,38967,25999
51440,39062,26158
51508,39119,26268
51579,39182,26367
51637,39232,26439
51643,39227,26448
51616,39193,26423
51602,39174,26409
51582,39150,26383
51516,39083,26305
51429,38999,26205
51363,38942,26127
51299,38887,26045
51203,38799,25926
51107,38712,25809
51045,38664,25733
50986,38618,25660
50896,38539,25555
50813,38464,25457
50775,38430,25397
50744,38397,25335
50687,38332,25249
50633,38274,25176
50612,38250,25138
50589,38225,25094
50535,38177,25024
50485,38142,24965
50458,38132,24926
50416,38104,24869
50346,38045,24786
50290,38003,24720
50261,37989,24680
50218,37957,24624
50157,37903,24550
50121,37876,24510
50114,37878,24503
50095,37863,24481
50069,37839,24451
50081,37857,24463
50127,37908,24507
50158,37939,24532
50174,37957,24551
50220,38005,24609
50281,38068,24685
50308,38093,24731
50315,38100,24761
50349,38137,24817
50395,38182,24876
50407,38192,24897
50407,38190,24904
50433,38217,24934
50462,38243,24959
50454,38231,24946
50437,38211,24925
50446,38220,24931
50455,38224,24932
50430,38191,24896
50402,38158,24858
50402,38160,24851
50394,38154,24831
50343,38104,24765
50289,38050,24699
50269,38029,24664
50246,38003,24621
50185,37944,24543
50121,37890,24466
50078,37858,24407
50020,37810,24327
49930,37728,24215
49844,37652,24117
49783,37602,24047
49705,37534,23957
49595,37433,23831
49500,37349,23718
49434,37291,23625
49354,37215,23513
49256,37125,23390
49181,37066,23308
49131,37030,23252
49060,36964,23169
48971,36879,23068
48907,36826,22996
48866,36798,22943
48804,36742,22863
48730,36670,22772
48691,36635,22719
48675,36627,22686
48633,36597,22630
48578,36556,22570
48555,36548,22547
48556,36555,22540
48535,36534,22507
48509,36503,22469
48514,36504,22460
48526,36508,22451
48501,36474,22403
48464,36435,22349
48455,36431,22326
48452,36435,22307
48422,36408,22259
48393,36382,22220
48393,36388,22216
48385,36386,22205
48337,36339,22156
48287,36290,22106
48265,36268,22081
48235,36236,22043
48171,36170,21970
48114,36116,21907
48090,36096,21874
48061,36071,21829
48011,36024,21760
47977,35992,21708
47968,35982,21680
47938,35946,21630
47874,35879,21550
47819,35830,21487
47785,35805,21444
47730,35760,21374
47651,35693,21278
47590,35651,21207
47547,35631,21157
47482,35585,21083
47404,35520,20996
47358,35486,20945
47337,35475,20917
47303,35444,20875
47274,35417,20844
47301,35444,20875
47372,35513,20951
47447,35584,21034
47547,35679,21149
47715,35838,21341
47924,36032,21582
48127,36214,21827
48347,36409,22103
48619,36657,22444
48911,36921,22808
49177,37154,23148
49437,37379,23488
49719,37628,23856
49987,37864,24206
50209,38050,24504
50418,38228,24788
50644,38429,25085
50848,38610,25353
50999,38735,25563
51133,38844,25753
51282,38967,25945
51405,39064,26097
51473,39111,26187
51522,39148,26256
51573,39188,26318
51586,39191,26332
51548,39147,26289
51508,39109,26244
51490,39093,26211
51451,39052,26146
51376,38979,26053
51308,38920,25979
51256,38879,25920
51184,38812,25832
51091,38726,25723
51024,38670,25643
50978,38635,25583
50907,38570,25492
50820,38485,25384
50765,38432,25310
50728,38397,25254
50662,38333,25167
50582,38259,25069
50536,38222,25003
50510,38199,24945
50457,38141,24852
50388,38071,24749
50347,38033,24682
50313,38003,24622
50247,37944,24536
50180,37888,24457
50151,37875,24421
50130,37874,24395
50087,37849,24347
50058,37833,24312
50072,37857,24321
50093,37880,24335
50090,37873,24327
50102,37879,24340
50159,37927,24399
50216,37971,24461
50243,37984,24499
50282,38008,24551
50354,38069,24634
50417,38124,24705
50447,38152,24742
50481,38189,24790
50538,38248,24860
50573,38284,24906
50577,38286,24919
50589,38302,24941
50616,38335,24974
50616,38338,24975
50582,38304,24943
50556,38284,24922
50546,38279,24909
50511,38241,24862
50458,38181,24796
50424,38147,24756
50399,38128,24726
50340,38074,24656
50259,38002,24561
50208,37962,24493
50181,37940,24438
50130,37885,24353
50066,37815,24257
50031,37778,24195
50001,37748,24143
49936,37684,24058
49859,37612,23964
49805,37570,23897
49754,37531,23825
49671,37460,23717
49583,37384,23608
49527,37340,23537
49476,37299,23473
49399,37227,23381
49329,37159,23296
49298,37131,23247
49268,37104,23198
49204,37048,23119
49147,37004,23051
49128,37000,23017
49103,36985,22968
49043,36933,22888
48992,36891,22823
48976,36880,22793
48954,36856,22753
48908,36806,22693
48880,36776,22655
48880,36774,22639
48862,36754,22598
48815,36708,22533
48784,36690,22495
48783,36706,22485
48764,36702,22453
48723,36673,22405
48704,36671,22386
48708,36690,22386
48690,36680,22358
48652,36645,22312
48641,36636,22294
48651,36648,22292
48634,36631,22264
48600,36603,22227
48598,36612,22225
48612,36635,22230
48594,36625,22197
48558,36601,22153
48545,36604,22136
48532,36606,22117
48482,36566,22060
48426,36517,21997
48406,36505,21967
48395,36498,21940
48348,36452,21876
48292,36397,21806
48267,36372,21763
48238,36342,21714
48167,36272,21623
48091,36203,21534
48052,36176,21482
48016,36149,21427
47949,36086,21342
47894,36033,21276
47882,36025,21257
47878,36023,21244
47862,36008,21225
47882,36030,21255
47963,36111,21356
48069,36210,21485
48182,36311,21631
48344,36458,21841
48571,36663,22121
48813,36872,22417
49051,37077,22722
49321,37318,23072
49622,37590,23455
49905,37839,23817
50162,38063,24159
50432,38305,24516
50705,38549,24870
50926,38741,25163
51105,38895,25409
51291,39061,25655
51472,39223,25883
51597,39328,26045
51681,39395,26165
51771,39473,26285
51856,39542,26387
51893,39555,26429
51899,39538,26440
51916,39542,26463
51927,39546,26471
51895,39512,26432
51845,39465,26378
51817,39447,26344
51785,39423,26297
51712,39356,26203
51631,39285,26105
51583,39248,26037
51536,39205,25965
51454,39121,25858
51373,39039,25754
51324,38993,25684
51268,38944,25607
51179,38865,25500
51100,38799,25406
51054,38766,25343
50996,38719,25264
50901,38634,25151
50814,38560,25050
50756,38517,24975
50691,38463,24885
50605,38388,24776
50542,38338,24693
50518,38321,24646
50489,38291,24595
50443,38244,24536
50426,38228,24517
50442,38243,24529
50440,38238,24521
50426,38217,24501
50448,38237,24523
50501,38289,24573
50534,38317,24602
50555,38330,24626
50614,38381,24693
50691,38452,24781
50733,38489,24836
50758,38513,24879
50814,38571,24951
50879,38637,25030
50907,38662,25069
50923,38670,25094
50969,38708,25146
51017,38746,25196
51026,38746,25203
51023,38741,25201
51044,38767,25224
51059,38784,25233
51035,38759,25201
51008,38733,25163
51010,38737,25150
51002,38729,25125
50949,38678,25059
50893,38626,24994
50868,38606,24955
50833,38573,24903
50759,38499,24817
50686,38427,24734
50633,38378,24669
50564,38311,24584
50466,38217,24471
50384,38142,24374
50333,38099,24305
50266,38041,24217
50172,37954,24107
50098,37886,24021
50049,37842,23953
49980,37777,23857
49887,37691,23737
49817,37636,23648
49772,37604,23584
49708,37547,23495
49630,37474,23391
49582,37432,23320
49552,37413,23270
49491,37364,23194
49414,37295,23105
49365,37256,23047
49329,37228,23001
49266,37165,22926
49193,37096,22846
49157,37066,22799
49134,37048,22759
49081,36998,22689
49018,36941,22618
48992,36921,22584
48981,36911,22558
48943,36869,22503
48902,36828,22450
48898,36825,22435
48898,36825,22420
48864,36791,22372
48834,36765,22334
48842,36781,22340
48849,36797,22341
48822,36777,22306
48797,36763,22278
48805,36781,22282
48807,36787,22274
48776,36754,22233
48753,36730,22204
48758,36734,22200
48744,36713,22172
48694,36656,22111
48657,36616,22067
48641,36599,22043
48600,36560,21990
48531,36494,21909
48482,36454,21851
48459,36436,21813
48413,36391,21745
48345,36324,21658
48305,36290,21604
48288,36281,21570
48242,36240,21507
48176,36182,21431
48134,36157,21385
48102,36143,21348
48037,36092,21274
47959,36026,21190
47925,35998,21148
47926,36000,21137
47918,35991,21123
47924,36000,21135
47989,36073,21217
48101,36186,21347
48222,36303,21495
48379,36447,21692
48609,36656,21976
48875,36893,22305
49130,37115,22632
49404,37353,22985
49726,37636,23388
50050,37917,23791
50333,38157,24154
50605,38389,24507
50899,38639,24874
51173,38867,25213
51394,39046,25495
51595,39217,25760
51801,39405,26030
51977,39564,26257
52098,39669,26418
52201,39760,26556
52308,39853,26684
52378,39905,26766
52398,39909,26794
52408,39912,26812
52420,39923,26828
52394,39899,26799
52331,39841,26730
52278,39796,26666
52235,39761,26606
52162,39693,26511
52066,39599,26399
51997,39533,26318
51946,39487,26253
51865,39409,26152
51768,39315,26035
51706,39255,25954
51665,39214,25887
51592,39136,25784
51503,39044,25666
51444,38986,25580
51399,38941,25500
51329,38865,25392
51255,38786,25284
51216,38750,25218
51189,38733,25165
51136,38692,25088
51081,38652,25016
51064,38653,24985
51058,38660,24962
51031,38638,24920
51016,38625,24896
51051,38658,24919
51100,38699,24947
51122,38710,24955
51148,38732,24982
51207,38795,25049
51265,38855,25113
51300,38887,25156
51355,38939,25223
51445,39025,25324
51524,39091,25410
51577,39123,25470
51642,39167,25545
51727,39234,25638
51785,39277,25701
51805,39287,25728
51837,39312,25767
51887,39353,25818
51907,39359,25832
51892,39330,25811
51888,39317,25808
51895,39321,25815
51868,39291,25784
51811,39235,25725
51772,39204,25685
51747,39187,25651
51690,39136,25579
51615,39068,25488
51571,39033,25426
51538,39008,25371
51470,38945,25278
51386,38867,25174
51334,38823,25104
51294,38791,25040
51220,38726,24942
51136,38655,24838
51086,38613,24766
51041,38569,24697
50960,38484,24596
50873,38400,24497
50821,38355,24437
50771,38314,24378
50687,38236,24283
50606,38165,24190
50562,38134,24134
50517,38098,24071
50438,38024,23974
50364,37955,23885
50321,37916,23823
50268,37866,23747
50186,37785,23641
50116,37720,23549
50079,37689,23486
50034,37650,23412
49967,37589,23321
49924,37553,23258
49916,37548,23229
49891,37522,23184
49837,37468,23118
49796,37435,23075
49774,37425,23055
49733,37393,23009
49671,37345,22945
49632,37329,22910
49614,37334,22892
49569,37304,22840
49503,37248,22766
49459,37215,22714
49424,37189,22666
49354,37126,22581
49266,37045,22483
49209,36999,22416
49168,36968,22361
49106,36912,22280
49040,36852,22202
49008,36828,22164
48989,36811,22136
48942,36764,22081
48893,36716,22029
48879,36705,22013
48864,36697,21997
48814,36653,21946
48767,36613,21899
48760,36612,21887
48753,36606,21865
48709,36561,21802
48666,36516,21739
48651,36501,21700
48624,36474,21647
48554,36410,21560
48485,36354,21483
48454,36331,21438
48419,36297,21381
48354,36232,21298
48301,36182,21236
48278,36170,21207
48246,36149,21162
48194,36108,21100
48175,36097,21077
48205,36129,21106
48244,36162,21148
48293,36202,21211
48401,36300,21346
48569,36452,21548
48746,36608,21771
48934,36773,22025
49181,36996,22354
49472,37259,22731
49750,37500,23095
50015,37729,23451
50309,37989,23840
50609,38257,24228
50863,38479,24565
51083,38671,24870
51312,38873,25180
51529,39061,25469
51692,39196,25692
51825,39306,25876
51971,39435,26064
52105,39550,26228
52190,39613,26330
52249,39653,26403
52316,39708,26478
52362,39742,26521
52350,39721,26502
52315,39686,26464
52294,39675,26443
52253,39646,26396
52166,39569,26299
52071,39489,26194
51996,39432,26105
51904,39357,25992
51776,39244,25839
51659,39143,25701
51577,39074,25601
51489,38993,25492
51376,38885,25357
51277,38796,25241
51213,38742,25157
51138,38677,25060
51040,38585,24940
50966,38513,24841
50918,38463,24758
50848,38388,24648
50756,38295,24520
50690,38234,24425
50647,38199,24359
50583,38141,24274
50504,38071,24183
50459,38045,24140
50444,38052,24126
50413,38035,24091
50374,38008,24049
50376,38025,24049
50409,38065,24077
50425,38079,24084
50434,38084,24090
50477,38129,24140
50537,38186,24207
50573,38214,24251
50605,38236,24297
50670,38291,24378
50741,38348,24466
50780,38371,24520
50815,38391,24571
50883,38446,24654
50945,38494,24727
50965,38498,24755
50983,38504,24779
51029,38544,24829
51058,38572,24861
51039,38558,24850
51010,38544,24837
51002,38556,24837
50980,38548,24809
50921,38501,24743
50865,38459,24684
50837,38440,24646
50797,38400,24585
50728,38327,24495
50670,38268,24420
50635,38231,24366
50575,38169,24282
50483,38077,24168
50406,38008,24075
50352,37966,24003
50278,37903,23904
50184,37822,23788
50120,37775,23706
50079,37750,23646
50006,37686,23550
49913,37598,23433
49856,37544,23350
49816,37507,23282
49739,37433,23179
49643,37340,23062
49576,37277,22976
49518,37221,22895
49427,37133,22781
49325,37039,22665
49255,36984,22587
49198,36943,22518
49121,36878,22426
49054,36819,22345
49032,36800,22308
49022,36787,22274
48983,36742,22210
48946,36700,22154
48945,36698,22138
48944,36698,22121
48913,36672,22072
48886,36655,22030
48892,36673,22022
48892,36683,22010
48858,36657,21971
48828,36637,21942
48827,36643,21938
48811,36632,21916
48764,36589,21860
48731,36560,21818
48730,36557,21798
48714,36534,21759
48670,36485,21700
48641,36457,21663
48639,36454,21650
48622,36433,21612
48580,36392,21552
48558,36374,21520
48553,36374,21507
48521,36345,21467
48466,36296,21408
48437,36280,21383
48424,36286,21376
48380,36259,21336
48316,36208,21271
48279,36184,21227
48255,36171,21188
48197,36119,21112
48121,36050,21026
48075,36011,20972
48043,35981,20926
47984,35915,20842
47915,35839,20749
47876,35799,20687
47842,35766,20630
47773,35698,20543
47702,35628,20458
47666,35598,20412
47635,35576,20371
47571,35522,20297
47505,35471,20226
47471,35457,20187
47443,35444,20151
47399,35409,20104
47390,35402,20096
47447,35457,20158
47533,35535,20256
47629,35618,20376
47778,35750,20562
47997,35948,20826
48242,36166,21118
48488,36383,21423
48771,36637,21780
49097,36931,22186
49418,37211,22590
49715,37464,22976
50015,37725,23375
50317,37991,23773
50578,38216,24118
50793,38397,24415
51004,38580,24707
51204,38755,24978
51349,38873,25177
51449,38947,25320
51550,39031,25455
51646,39110,25572
51691,39136,25630
51695,39126,25649
51705,39131,25675
51711,39138,25688
51669,39099,25646
51598,39034,25576
51544,38989,25519
51487,38942,25450
51387,38851,25330
51273,38745,25192
51185,38667,25078
51103,38591,24965
50992,38483,24822
50882,38381,24688
50810,38321,24595
50742,38265,24500
50641,38177,24371
50542,38091,24248
50478,38039,24164
50411,37980,24074
50305,37883,23944
50197,37789,23820
50118,37730,23726
50033,37664,23618
49924,37572,23484
49831,37501,23374
49776,37465,23299
49716,37416,23216
49641,37350,23125
49596,37314,23071
49591,37315,23056
49584,37303,23034
49571,37280,23008
49598,37297,23026
49663,37350,23081
49717,37386,23120
49755,37407,23157
49821,37464,23237
49904,37544,23343
49958,37596,23420
49994,37631,23481
50064,37698,23576
50156,37785,23682
50215,37838,23749
50251,37871,23797
50312,37933,23874
50384,38002,23956
50423,38034,23998
50443,38050,24020
50482,38087,24058
50515,38114,24085
50501,38088,24062
50467,38042,24021
50454,38025,24004
50435,38003,23978
50372,37940,23907
50302,37878,23833
50261,37850,23787
50213,37818,23732
50124,37747,23637
50037,37676,23541
49985,37637,23473
49930,37587,23391
49846,37498,23275
49770,37414,23167
49720,37358,23083
49655,37286,22979
49558,37186,22849
49470,37105,22736
49405,37054,22649
49321,36985,22543
49208,36890,22418
49111,36816,22318
49041,36768,22243
48954,36698,22144
48846,36607,22027
48764,36546,21943
48706,36511,21882
48626,36448,21793
48528,36364,21683
48454,36310,21603
48400,36274,21540
48323,36209,21448
48239,36131,21346
48193,36089,21280
48168,36064,21233
48118,36014,21166
48061,35961,21101
48038,35944,21075
48024,35935,21058
47979,35891,21008
47929,35842,20953
47916,35831,20931
47908,35827,20912
47862,35788,20859
47808,35745,20803
47784,35736,20780
47761,35727,20752
47708,35684,20689
47660,35646,20631
47653,35645,20607
47644,35636,20577
47599,35589,20512
47554,35546,20453
47539,35537,20424
47518,35522,20391
47467,35479,20337
47425,35446,20295
47412,35442,20278
47387,35424,20243
47333,35378,20181
47292,35348,20135
47274,35339,20109
47236,35307,20058
47173,35249,19984
47131,35214,19935
47111,35202,19906
47072,35165,19852
47013,35104,19782
46977,35070,19743
46959,35058,19728
46919,35026,19693
46874,34989,19659
46880,35001,19679
46931,35055,19743
46986,35107,19812
47062,35180,19912
47205,35317,20089
47398,35497,20323
47597,35675,20569
47818,35866,20845
48087,36104,21183
48378,36355,21545
48642,36574,21885
48893,36785,22220
49160,37020,22578
49414,37241,22917
49615,37409,23199
49791,37556,23459
49975,37719,23725
50139,37863,23957
50251,37956,24121
50347,38038,24257
50456,38138,24395
50542,38217,24500
50579,38246,24553
50606,38268,24597
50648,38306,24650
50667,38320,24667
50646,38295,24637
50625,38276,24603
50620,38281,24582
50592,38260,24534
50527,38200,24448
50465,38147,24371
50416,38109,24302
50339,38040,24202
50236,37945,24079
50152,37870,23979
50086,37810,23889
49993,37718,23760
49877,37607,23610
49785,37527,23491
49709,37464,23390
49603,37368,23261
49474,37253,23114
49374,37170,22996
49295,37109,22893
49197,37023,22763
49098,36934,22635
49043,36890,22555
49012,36869,22503
48959,36827,22434
48910,36789,22376
48906,36796,22367
48927,36819,22382
48934,36820,22385
48955,36831,22406
49023,36887,22478
49104,36957,22566
49162,37006,22638
49223,37065,22724
49321,37163,22846
49420,37260,22964
49487,37322,23051
49553,37389,23141
49650,37487,23259
49741,37569,23359
49792,37607,23419
49841,37645,23478
49910,37700,23551
49955,37728,23593
49957,37718,23596
49957,37715,23602
49975,37736,23623
49969,37735,23616
49928,37695,23575
49896,37665,23545
49883,37654,23529
49847,37615,23479
49783,37552,23400
49739,37512,23343
49715,37492,23305
49666,37444,23239
49598,37375,23156
49559,37337,23106
49537,37319,23069
49485,37271,22996
49413,37205,22901
49365,37165,22832
49328,37133,22769
49260,37069,22671
49175,36994,22562
49119,36954,22486
49075,36924,22421
49002,36861,22329
48925,36794,22235
48882,36760,22177
48845,36724,22123
48777,36650,22034
48706,36576,21947
48671,36542,21899
48643,36514,21857
48588,36460,21790
48536,36415,21734
48518,36409,21714
48498,36401,21685
48442,36358,21622
48390,36322,21566
48378,36322,21543
48363,36314,21509
48319,36272,21447
48287,36241,21400
48287,36237,21379
48271,36213,21338
48221,36158,21274
48184,36123,21236
48174,36118,21227
48152,36095,21197
48111,36052,21146
48091,36035,21121
48091,36043,21116
48067,36025,21080
48018,35982,21018
47992,35964,20983
47986,35964,20968
47954,35932,20920
47899,35873,20849
47864,35837,20801
47837,35811,20760
47775,35751,20684
47697,35677,20596
47650,35636,20544
47619,35610,20508
47565,35556,20442
47506,35498,20370
47483,35478,20331
47474,35471,20303
47442,35440,20251
47416,35415,20209
47432,35435,20215
47456,35467,20237
47457,35478,20246
47477,35508,20287
47558,35598,20398
47674,35718,20549
47796,35836,20710
47961,35989,20921
48198,36206,21208
48461,36440,21528
48716,36656,21847
48997,36892,22198
49324,37170,22594
49648,37439,22984
49937,37674,23347
50224,37913,23718
50524,38168,24105
50794,38394,24455
51016,38573,24751
51228,38749,25038
51438,38926,25319
51601,39058,25545
51713,39142,25715
51818,39228,25876
51920,39317,26026
51976,39362,26117
51992,39368,26161
52013,39384,26205
52030,39398,26235
51998,39363,26201
51926,39292,26121
51866,39243,26050
51816,39205,25980
51729,39131,25872
51622,39039,25752
51544,38977,25663
51480,38928,25581
51389,38848,25465
51293,38763,25343
51233,38717,25260
51186,38681,25191
51112,38618,25097
51038,38560,25012
51004,38545,24967
50979,38535,24922
50925,38487,24837
50868,38434,24750
50843,38411,24695
50818,38384,24636
50762,38323,24550
50710,38270,24474
50692,38254,24435
50671,38235,24396
50623,38192,24339
50589,38168,24305
50590,38182,24310
50589,38189,24311
50572,38177,24296
50579,38190,24306
50626,38237,24351
50674,38275,24390
50711,38295,24416
50772,38337,24475
50857,38402,24562
50922,38447,24632
50964,38470,24687
51025,38515,24768
51101,38579,24863
51148,38610,24923
51173,38622,24961
51221,38663,25029
51278,38717,25109
51297,38736,25149
51292,38737,25166
51314,38768,25201
51348,38809,25232
51342,38807,25218
51308,38780,25179
51290,38773,25157
51275,38763,25130
51226,38714,25064
51166,38654,24986
51134,38623,24932
51101,38592,24873
51029,38522,24774
50947,38445,24673
50893,38396,24604
50838,38340,24528
50748,38248,24418
50662,38163,24317
50612,38117,24253
50561,38071,24186
50474,37992,24089
50389,37920,23999
50337,37880,23939
50281,37835,23870
50196,37765,23779
50129,37716,23706
50103,37703,23660
50075,37681,23599
50024,37632,23513
49988,37597,23449
49978,37587,23413
49956,37558,23359
49910,37507,23288
49880,37479,23245
49868,37474,23220
49831,37442,23161
49765,37382,23076
49718,37349,23021
49696,37343,22992
49652,37313,22942
49592,37265,22882
49562,37248,22855
49548,37245,22843
49507,37209,22803
49455,37157,22754
49438,37139,22737
49435,37134,22726
49403,37098,22681
49365,37056,22629
49361,37054,22614
49366,37060,22606
49340,37034,22567
49309,37004,22525
49308,37008,22511
49311,37011,22493
49279,36978,22440
49242,36941,22385
49233,36934,22362
49215,36920,22335
49156,36868,22272
49095,36819,22215
49072,36808,22190
49049,36793,22155
48992,36745,22084
48939,36702,22022
48914,36687,21986
48877,36656,21930
48811,36593,21843
48758,36548,21777
48735,36533,21744
48700,36504,21698
48641,36449,21633
48609,36422,21600
48621,36435,21608
48638,36444,21614
48656,36449,21627
48727,36503,21703
48850,36608,21841
48982,36718,21997
49128,36844,22183
49335,37030,22447
49592,37264,22771
49845,37488,23102
50097,37711,23444
50393,37978,23838
50717,38268,24257
51011,38523,24645
51277,38753,25010
51551,38997,25386
51815,39231,25742
52026,39414,26033
52208,39568,26286
52395,39732,26538
52562,39874,26760
52669,39957,26912
52749,40015,27031
52842,40091,27157
52918,40153,27257
52937,40162,27297
52936,40156,27318
52950,40171,27351
52943,40168,27356
52887,40118,27308
52828,40071,27255
52799,40057,27226
52761,40030,27178
52691,39964,27090
52632,39906,27011
52605,39881,26957
52566,39844,26884
52500,39780,26785
52451,39734,26710
52432,39716,26664
52394,39676,26600
52325,39606,26514
52270,39555,26449
52239,39529,26405
52188,39480,26331
52116,39407,26234
52064,39360,26165
52027,39330,26112
51960,39269,26027
51873,39191,25926
51815,39151,25861
51778,39133,25817
51717,39085,25748
51644,39028,25675
51610,39013,25643
51606,39017,25633
51588,38996,25603
51572,38973,25580
51593,38991,25604
51631,39020,25645
51645,39023,25665
51656,39027,25690
51703,39067,25752
51757,39109,25813
51781,39116,25840
51802,39121,25868
51856,39160,25929
51912,39200,25987
51936,39206,26014
51962,39222,26048
52020,39279,26116
52066,39326,26168
52066,39326,26173
52059,39321,26171
52074,39337,26186
52074,39335,26182
52032,39295,26141
51984,39256,26102
51953,39236,26077
51903,39195,26023
51818,39121,25931
51742,39060,25848
51686,39021,25780
51605,38954,25681
51494,38857,25552
51402,38780,25444
51336,38726,25359
51253,38649,25250
51147,38552,25126
51063,38485,25033
51000,38440,24959
50912,38369,24852
50809,38284,24731
50738,38233,24649
50689,38199,24583
50615,38134,24488
50528,38057,24383
50475,38019,24315
50443,37998,24265
50387,37947,24188
50323,37888,24106
50290,37861,24058
50267,37838,24013
50212,37778,23936
50151,37716,23862
50123,37689,23823
50105,37668,23786
50059,37619,23721
50011,37576,23661
49995,37572,23636
49978,37563,23603
49923,37514,23533
49869,37468,23470
49848,37457,23445
49824,37441,23414
49771,37393,23351
49728,37359,23301
49719,37361,23286
49706,37353,23262
49666,37318,23214
49634,37294,23182
49627,37293,23176
49606,37272,23150
49559,37225,23099
49531,37199,23069
49533,37200,23064
49515,37179,23032
49470,37132,22978
49445,37106,22947
49447,37103,22931
49431,37075,22883
49395,37028,22819
49383,37011,22785
49384,37008,22764
49350,36967,22707
49292,36904,22631
49256,36870,22587
49232,36852,22554
49178,36806,22491
49112,36754,22420
49073,36734,22377
49039,36723,22335
48969,36674,22255
48889,36610,22167
48839,36575,22110
48797,36546,22058
48725,36486,21976
48654,36429,21901
48623,36412,21868
48607,36406,21846
48578,36376,21809
48572,36366,21802
48626,36417,21864
48708,36492,21959
48789,36561,22070
48915,36671,22244
49119,36855,22509
49360,37069,22816
49603,37282,23135
49880,37529,23497
50206,37818,23907
50531,38099,24310
50829,38350,24688
51139,38617,25081
51470,38906,25490
51769,39162,25862
52018,39372,26186
52253,39578,26504
52480,39783,26809
52658,39939,27052
52787,40048,27243
52911,40159,27426
53027,40262,27589
53091,40314,27686
53114,40331,27738
53144,40360,27795
53175,40390,27842
53160,40372,27834
53112,40324,27788
53081,40295,27753
53052,40267,27711
52980,40195,27620
52889,40106,27508
52826,40050,27423
52767,40001,27343
52672,39916,27229
52572,39827,27113
52511,39777,27038
52467,39741,26980
52402,39683,26902
52344,39632,26833
52326,39621,26803
52315,39611,26774
52272,39565,26709
52229,39521,26646
52217,39512,26612
52198,39496,26566
52141,39446,26482
52087,39403,26407
52066,39396,26363
52041,39381,26310
51985,39330,26234
51938,39289,26177
51925,39279,26157
51909,39260,26132
51875,39222,26095
51866,39213,26092
51892,39240,26125
51908,39253,26147
51906,39245,26154
51931,39263,26190
51986,39311,26254
52021,39338,26297
52035,39344,26324
52073,39380,26382
52135,39439,26461
52174,39469,26509
52188,39478,26533
52222,39512,26578
52268,39557,26631
52283,39570,26651
52276,39561,26652
52288,39574,26677
52305,39591,26701
52285,39570,26684
52249,39536,26651
52237,39530,26640
52224,39526,26625
52171,39480,26570
52104,39422,26504
52061,39393,26462
52018,39362,26408
51939,39291,26312
51859,39217,26213
51815,39180,26149
51773,39142,26083
51695,39066,25980
51618,38990,25881
51575,38951,25816
51528,38909,25744
51449,38834,25640
51377,38768,25546
51332,38733,25479
51277,38684,25399
51197,38607,25295
51134,38553,25214
51102,38532,25163
51054,38497,25096
50979,38435,25006
50920,38391,24937
50886,38369,24890
50829,38324,24819
50749,38256,24732
50697,38216,24678
50678,38204,24648
50643,38167,24590
50590,38111,24511
50560,38082,24461
50547,38071,24428
50508,38030,24366
50455,37974,24293
50433,37953,24258
50428,37949,24241
50388,37912,24193
50331,37863,24136
50303,37849,24109
50287,37844,24087
50237,37798,24030
50175,37738,23966
50140,37708,23932
50106,37681,23894
50037,37618,23814
49962,37549,23730
49922,37515,23683
49886,37483,23640
49818,37417,23563
49753,37354,23490
49725,37330,23455
49695,37305,23416
49630,37243,23341
49567,37186,23271
49538,37165,23234
49507,37139,23189
49442,37080,23116
49382,37032,23055
49353,37019,23025
49316,36995,22982
49244,36937,22906
49177,36887,22837
49134,36860,22785
49073,36809,22707
48981,36726,22599
48903,36665,22514
48851,36632,22451
48781,36579,22365
48690,36503,22262
48622,36452,22191
48578,36417,22138
48513,36353,22056
48434,36272,21958
48386,36224,21894
48361,36199,21860
48319,36155,21815
48277,36111,21779
48291,36125,21806
48351,36187,21884
48419,36254,21978
48522,36352,22117
48704,36527,22348
48942,36753,22642
49189,36978,22954
49463,37225,23304
49795,37526,23718
50146,37839,24153
50468,38118,24558
50784,38390,24960
51125,38689,25389
51454,38972,25800
51727,39198,26152
51975,39404,26479
52232,39620,26808
52458,39807,27099
52618,39932,27319
52745,40037,27506
52875,40155,27689
52973,40243,27828
53016,40276,27904
53048,40297,27960
53091,40330,28013
53104,40334,28024
53071,40295,27989
53032,40259,27951
53004,40238,27915
52951,40191,27838
52867,40113,27729
52800,40054,27639
52752,40017,27566
52677,39948,27462
52578,39855,27337
52507,39791,27244
52455,39749,27175
52371,39676,27079
52265,39582,26969
52189,39524,26891
52132,39489,26823
52040,39419,26714
51926,39324,26588
51838,39255,26492
51762,39193,26404
51651,39093,26279
51527,38981,26141
51435,38902,26033
51355,38829,25933
51249,38723,25804
51140,38618,25680
51068,38557,25604
51010,38512,25545
50935,38449,25474
50875,38404,25430
50867,38413,25441
50876,38436,25463
50868,38433,25463
50874,38444,25478
50925,38500,25536
50980,38555,25592
51009,38579,25624
51052,38620,25679
51135,38702,25772
51214,38775,25854
51265,38816,25909
51329,38868,25979
51417,38950,26074
51486,39012,26146
51519,39040,26183
51556,39076,26227
51606,39127,26280
51632,39143,26298
51626,39124,26282
51628,39118,26280
51636,39122,26284
51605,39087,26241
51543,39022,26165
51499,38983,26109
51465,38955,26064
51397,38891,25980
51305,38807,25877
51240,38752,25799
51190,38710,25729
51108,38636,25626
51009,38547,25511
50936,38489,25427
50872,38439,25352
50777,38359,25247
50674,38275,25135
50603,38227,25053
50540,38183,24976
50449,38106,24869
50360,38028,24767
50310,37987,24698
50267,37946,24629
50196,37873,24528
50130,37805,24436
50104,37779,24388
50077,37753,24342
50012,37691,24267
49952,37640,24204
49930,37633,24178
49904,37621,24144
49843,37573,24078
49786,37532,24018
49760,37520,23980
49724,37496,23926
49658,37442,23844
49608,37403,23784
49588,37391,23754
49555,37361,23706
49496,37308,23639
49459,37280,23599
49450,37278,23584
49421,37251,23542
49371,37202,23482
49348,37181,23452
49348,37182,23443
49325,37155,23408
49286,37110,23359
49281,37104,23345
49298,37120,23347
49289,37106,23320
49269,37078,23284
49286,37087,23282
49315,37109,23291
49308,37096,23269
49288,37077,23242
49300,37098,23253
49320,37129,23270
49305,37120,23250
49271,37095,23218
49259,37097,23205
49246,37096,23182
49199,37057,23120
49146,37012,23053
49125,36997,23016
49108,36976,22974
49057,36915,22897
49003,36856,22829
48986,36836,22799
48969,36813,22761
48921,36758,22691
48877,36716,22636
48869,36718,22616
48859,36718,22591
48826,36695,22548
48818,36698,22535
48858,36746,22569
48913,36803,22616
48971,36860,22677
49074,36960,22798
49238,37115,22987
49422,37281,23201
49618,37450,23438
49865,37666,23743
50162,37925,24105
50456,38171,24464
50735,38403,24817
51037,38665,25205
51354,38943,25610
51636,39181,25979
51885,39387,26324
52145,39608,26683
52398,39826,27028
52593,39988,27307
52743,40113,27537
52895,40247,27763
53036,40370,27961
53121,40436,28088
53170,40468,28167
53224,40511,28242
53266,40542,28292
53254,40519,28280
53215,40474,28243
53192,40452,28220
53158,40422,28178
53077,40349,28088
52984,40275,27989
52916,40233,27914
52840,40180,27821
52724,40084,27681
52607,39988,27544
52521,39927,27439
52429,39857,27324
52309,39751,27181
52203,39660,27059
52138,39609,26979
52071,39550,26891
51975,39459,26775
51887,39378,26666
51823,39325,26577
51743,39257,26468
51633,39163,26336
51533,39088,26228
51456,39035,26144
51366,38961,26038
51267,38871,25922
51204,38816,25848
51173,38787,25805
51130,38737,25744
51081,38680,25683
51073,38670,25672
51100,38696,25695
51112,38705,25703
51119,38710,25709
51165,38758,25760
51231,38826,25834
51268,38865,25885
51298,38897,25933
51361,38965,26015
51435,39042,26103
51476,39081,26153
51502,39108,26192
51555,39164,26260
51609,39220,26331
51627,39233,26365
51634,39234,26389
51665,39261,26435
51689,39277,26468
51671,39245,26451
51644,39203,26420
51640,39189,26406
51620,39163,26373
51555,39099,26298
51486,39041,26230
51444,39019,26189
51391,38985,26130
51303,38909,26035
51218,38836,25948
51161,38789,25885
51094,38728,25802
50999,38640,25693
50923,38575,25604
50882,38545,25546
50831,38503,25475
50756,38438,25382
50701,38395,25309
50675,38378,25259
50631,38339,25186
50570,38281,25098
50535,38253,25044
50520,38246,25012
50476,38210,24948
50409,38154,24863
50373,38133,24808
50357,38131,24771
50312,38099,24707
50249,38046,24627
50211,38017,24574
50183,37994,24528
50121,37933,24447
50047,37860,24358
50007,37824,24309
49981,37802,24272
49928,37752,24209
49872,37699,24148
49855,37686,24132
49848,37681,24126
49810,37642,24085
49770,37602,24044
49769,37601,24038
49774,37606,24034
49746,37578,23997
49716,37552,23962
49714,37558,23955
49701,37554,23936
49649,37506,23879
49602,37461,23828
49590,37449,23805
49572,37428,23765
49521,37372,23689
49477,37327,23627
49455,37307,23590
49414,37266,23535
49344,37197,23456
49286,37149,23398
49251,37129,23363
49196,37093,23307
49115,37034,23230
49055,36998,23174
49020,36985,23137
48965,36946,23071
48894,36890,22987
48857,36865,22936
48849,36863,22910
48819,36828,22856
48767,36771,22785
48744,36747,22750
48742,36746,22739
48717,36722,22712
48693,36699,22696
48723,36729,22739
48795,36796,22825
48867,36860,22920
48966,36949,23055
49135,37110,23272
49350,37309,23539
49567,37500,23816
49810,37712,24132
50110,37979,24511
50431,38265,24914
50730,38523,25293
51030,38779,25674
51357,39064,26085
51669,39334,26481
51924,39551,26824
52158,39758,27148
52406,39988,27476
52627,40191,27762
52782,40325,27976
52908,40433,28154
53031,40541,28317
53115,40610,28426
53142,40622,28473
53154,40626,28504
53172,40641,28536
53156,40624,28525
53093,40564,28465
53028,40504,28401
52971,40452,28346
52884,40371,28257
52772,40267,28143
52681,40191,28052
52614,40137,27975
52526,40057,27867
52421,39959,27742
52351,39897,27650
52310,39861,27583
52243,39798,27490
52157,39719,27385
52102,39677,27314
52068,39656,27258
52007,39602,27170
51928,39532,27071
51876,39495,27006
51833,39466,26951
51759,39399,26859
51678,39324,26760
51629,39283,26694
51588,39249,26632
51521,39188,26543
51463,39138,26464
51446,39134,26431
51438,39134,26409
51407,39107,26365
51383,39088,26339
51398,39112,26360
51417,39137,26386
51405,39130,26387
51406,39136,26404
51451,39187,26464
51502,39235,26525
51528,39254,26564
51567,39286,26621
51637,39351,26709
51694,39397,26780
51716,39405,26817
51737,39420,26861
51775,39457,26919
51791,39469,26945
51780,39448,26938
51782,39444,26945
51795,39457,26961
51772,39435,26934
51714,39384,26875
51674,39355,26838
51649,39342,26812
51592,39291,26744
51511,39219,26655
51456,39178,26597
51419,39154,26554
51356,39101,26482
51279,39036,26397
51231,39005,26339
51195,38986,26282
51127,38931,26183
51045,38860,26070
50994,38821,25991
50950,38786,25918
50864,38707,25805
50764,38615,25686
50693,38553,25599
50623,38492,25510
50515,38391,25381
50403,38286,25251
50322,38216,25155
50241,38147,25057
50128,38047,24926
50023,37958,24806
49961,37915,24732
49905,37875,24662
49819,37801,24568
49742,37739,24488
49700,37713,24441
49656,37682,24386
49593,37627,24309
49553,37592,24257
49547,37594,24242
49528,37582,24212
49480,37540,24152
49448,37515,24110
49443,37513,24095
49421,37490,24060
49372,37440,24001
49347,37414,23967
49354,37416,23960
49339,37395,23925
49300,37350,23869
49283,37335,23845
49286,37342,23843
49260,37317,23808
49216,37271,23755
49198,37258,23733
49197,37262,23723
49165,37233,23678
49115,37187,23619
49095,37172,23592
49082,37165,23571
49033,37123,23512
48974,37070,23442
48946,37052,23405
48924,37036,23369
48866,36978,23292
48799,36912,23209
48764,36884,23160
48733,36857,23111
48665,36791,23029
48587,36722,22951
48537,36691,22912
48488,36660,22872
48408,36593,22799
48333,36531,22735
48297,36513,22710
48268,36503,22691
48221,36470,22660
48206,36464,22670
48259,36519,22750
48346,36600,22865
48450,36693,23008
48617,36846,23228
48861,37071,23533
49131,37312,23866
49409,37554,24214
49733,37839,24617
50097,38162,25066
50439,38462,25498
50746,38734,25908
51063,39024,26337
51389,39322,26773
51678,39571,27159
51931,39780,27500
52190,39998,27837
52439,40212,28153
52621,40366,28393
52744,40470,28573
52857,40573,28736
52947,40658,28867
52972,40679,28925
52956,40663,28940
52949,40662,28963
52940,40661,28972
52886,40616,28926
52809,40550,28849
52755,40510,28789
52703,40471,28721
52614,40392,28611
52519,40306,28497
52460,40259,28422
52412,40221,28355
52342,40154,28266
52281,40097,28190
52257,40083,28156
52233,40065,28120
52178,40012,28054
52129,39966,28001
52118,39959,27984
52106,39947,27956
52065,39902,27894
52028,39860,27839
52014,39843,27806
51980,39807,27751
51910,39737,27661
51848,39678,27581
51812,39649,27525
51755,39603,27451
51669,39535,27357
51606,39493,27294
51574,39483,27264
51528,39455,27218
51467,39411,27158
51443,39405,27134
51452,39429,27140
51446,39429,27127
51431,39415,27107
51453,39439,27127
51500,39489,27173
51526,39514,27204
51545,39528,27234
51604,39578,27304
51682,39642,27388
51727,39669,27434
51749,39676,27467
51792,39712,27529
51835,39752,27593
51834,39749,27611
51816,39728,27609
51821,39737,27629
51824,39746,27641
51786,39714,27608
51738,39673,27564
51717,39663,27546
51690,39648,27515
51618,39588,27436
51541,39525,27351
51496,39495,27292
51443,39452,27214
51345,39364,27090
51245,39272,26967
51175,39209,26874
51094,39135,26767
50980,39031,26627
50877,38941,26500
50807,38884,26403
50728,38815,26298
50625,38723,26176
50544,38654,26079
50494,38620,26012
50430,38570,25926
50347,38498,25821
50292,38456,25749
50266,38441,25705
50220,38398,25638
50152,38332,25554
50105,38290,25497
50077,38270,25460
50022,38223,25396
49950,38159,25317
49906,38128,25271
49878,38115,25236
49822,38069,25167
49749,38006,25086
49704,37974,25038
49670,37950,24997
49603,37889,24921
49526,37817,24837
49484,37780,24788
49457,37752,24748
49405,37693,24680
49351,37634,24613
49332,37615,24584
49320,37604,24558
49274,37559,24500
49225,37511,24441
49209,37497,24413
49195,37480,24382
49153,37432,24318
49120,37396,24269
49121,37397,24260
49113,37389,24243
49068,37346,24192
49025,37310,24148
49014,37306,24127
48998,37288,24088
48954,37242,24021
48920,37214,23970
48908,37218,23947
48878,37204,23906
48817,37161,23836
48769,37131,23785
48739,37118,23750
48686,37072,23682
48603,36997,23585
48538,36947,23511
48494,36920,23461
48424,36865,23387
48330,36787,23295
48262,36740,23230
48219,36714,23179
48157,36660,23098
48079,36589,23005
48035,36553,22947
48015,36540,22913
47975,36502,22863
47933,36466,22825
47944,36486,22848
48002,36544,22918
48067,36599,23003
48165,36683,23138
48343,36844,23367
48576,37055,23654
48818,37266,23954
49087,37498,24292
49409,37786,24695
49744,38086,25118
50050,38350,25519
50354,38614,25929
50686,38911,26372
51004,39193,26799
51270,39421,27172
51516,39634,27520
51768,39860,27866
51990,40056,28170
52151,40192,28404
52288,40313,28611
52427,40443,28810
52528,40537,28959
52575,40575,29045
52610,40603,29113
52651,40636,29172
52657,40628,29179
52617,40578,29138
52581,40539,29106
52561,40521,29083
52512,40476,29022
52432,40401,28927
52363,40347,28848
52307,40307,28780
52222,40234,28678
52119,40142,28561
52052,40088,28483
52012,40060,28429
51949,40006,28351
51879,39941,28269
51846,39915,28226
51826,39903,28197
51772,39857,28135
51706,39801,28065
51670,39774,28027
51640,39749,27985
51571,39682,27899
51490,39604,27802
51441,39565,27738
51400,39535,27677
51329,39472,27582
51257,39410,27491
51223,39389,27439
51197,39377,27394
51142,39336,27322
51096,39306,27264
51097,39321,27255
51104,39338,27254
51086,39324,27231
51080,39320,27224
51118,39353,27257
51156,39380,27290
51165,39379,27301
51183,39395,27333
51232,39443,27396
51266,39473,27443
51262,39470,27458
51266,39481,27484
51292,39512,27523
51300,39519,27535
51283,39496,27520
51284,39494,27523
51305,39513,27541
51301,39505,27528
51273,39476,27495
51267,39472,27490
51275,39481,27495
51248,39451,27458
51192,39397,27393
51158,39369,27350
51133,39352,27313
51067,39292,27233
50977,39208,27131
50916,39153,27058
50868,39109,26991
50787,39034,26889
50690,38947,26773
50622,38889,26685
50558,38836,26598
50458,38744,26474
50348,38649,26347
50273,38594,26256
