green_channel,red_channel,ir_channel
22575,17617,29178
22567,17613,29166
22549,17607,29152
22528,17586,29122
22519,17567,29093
22513,17562,29080
22492,17556,29064
22461,17539,29035
22437,17519,29006
22413,17503,28982
22381,17484,28952
22357,17460,28912
22345,17442,28878
22327,17434,28854
22293,17420,28821
22259,17399,28775
22241,17384,28735
22223,17378,28708
22195,17364,28676
22171,17340,28636
22159,17321,28606
22142,17309,28586
22112,17291,28554
22087,17268,28509
22074,17255,28475
22057,17247,28450
22026,17230,28416
21997,17208,28376
21977,17195,28348
21951,17183,28326
21914,17155,28288
21883,17121,28242
21866,17103,28209
21842,17096,28183
21808,17082,28146
21780,17067,28111
21762,17064,28092
21735,17060,28076
21699,17043,28039
21678,17025,27998
21677,17020,27974
21672,17018,27959
21657,17005,27931
21645,16991,27899
21639,16986,27881
21625,16981,27863
21606,16965,27829
21597,16951,27794
21593,16952,27775
21578,16952,27755
21554,16936,27723
21538,16920,27697
21523,16911,27684
21498,16900,27666
21474,16885,27638
21462,16876,27619
21447,16876,27613
21415,16867,27595
21387,16845,27559
21379,16830,27529
21375,16826,27512
21357,16815,27489
21339,16795,27458
21334,16781,27435
21328,16774,27421
21310,16763,27399
21296,16747,27371
21290,16741,27352
21279,16740,27340
21257,16733,27316
21239,16720,27282
21233,16718,27261
21224,16722,27249
21208,16717,27226
21201,16708,27200
21205,16712,27192
21201,16719,27191
21182,16711,27171
21168,16695,27143
21166,16690,27130
21161,16688,27120
21148,16673,27094
21143,16658,27066
21147,16660,27061
21146,16668,27066
21145,16673,27064
21167,16689,27075
21211,16726,27117
21262,16772,27178
21324,16816,27243
21406,16867,27325
21503,16936,27438
21605,17011,27568
21716,17082,27702
21844,17161,27854
21979,17254,28032
22103,17344,28214
22226,17426,28387
22360,17514,28567
22490,17608,28757
22606,17697,28937
22723,17777,29099
22850,17860,29262
22967,17943,29426
23060,18011,29567
23142,18062,29682
23223,18109,29788
23286,18152,29887
23327,18182,29962
23365,18201,30016
23409,18222,30070
23442,18243,30123
23457,18250,30155
23468,18248,30170
23478,18246,30184
23475,18244,30194
23460,18232,30183
23451,18218,30165
23448,18217,30164
23433,18216,30165
23402,18199,30142
23373,18176,30103
23349,18161,30069
23318,18148,30037
23286,18126,29992
23267,18103,29949
23253,18090,29924
23223,18074,29901
23180,18045,29862
23147,18017,29825
23123,18002,29804
23094,17991,29786
23068,17973,29758
23058,17961,29737
23055,17960,29732
23045,17956,29723
23033,17943,29701
23033,17936,29685
23033,17934,29678
23020,17926,29661
23010,17912,29631
23013,17907,29609
23010,17911,29599
22990,17907,29579
22972,17893,29545
22968,17886,29520
22964,17888,29507
22950,17885,29488
22944,17879,29464
22947,17880,29454
22944,17883,29455
22930,17872,29445
22922,17855,29427
22928,17851,29421
22933,17854,29426
22932,17852,29422
22939,17849,29418
22956,17860,29431
22968,17873,29451
22970,17877,29457
22985,17882,29458
23017,17905,29478
23044,17932,29505
23056,17943,29519
23070,17947,29529
23091,17961,29553
23100,17973,29576
23100,17976,29582
23109,17982,29587
23124,18000,29608
23128,18017,29628
23125,18020,29628
23127,18020,29623
23130,18026,29627
23123,18028,29628
23114,18015,29614
23111,18004,29601
23105,18007,29599
23084,18004,29586
23063,17987,29555
23056,17971,29527
23047,17961,29509
23022,17945,29482
22997,17921,29445
22984,17907,29420
22969,17902,29407
22938,17886,29379
22908,17860,29337
22892,17845,29305
22876,17837,29284
22850,17821,29250
22831,17797,29209
22822,17780,29177
22804,17771,29149
22772,17754,29111
22748,17733,29067
22735,17723,29036
22715,17719,29013
22689,17709,28982
22670,17696,28948
22658,17690,28926
22636,17682,28907
22605,17660,28873
22584,17636,28837
22577,17626,28818
22566,17621,28805
22548,17606,28776
22536,17587,28744
22528,17578,28723
22510,17568,28699
22485,17546,28659
22470,17528,28619
22463,17526,28595
22448,17526,28572
22429,17515,28537
22417,17501,28500
22404,17494,28473
22380,17485,28442
22354,17464,28399
22344,17446,28364
22337,17440,28344
22314,17430,28321
22287,17411,28291
22270,17399,28268
22248,17396,28254
22209,17388,28233
22172,17372,28201
22155,17364,28178
22147,17363,28166
22127,17352,28144
22108,17332,28112
22100,17319,28089
22091,17312,28073
22070,17296,28043
22053,17276,28004
22045,17266,27979
22031,17263,27966
22002,17252,27942
21973,17236,27911
21956,17228,27890
21935,17222,27872
21908,17209,27840
21888,17197,27809
21881,17199,27798
21869,17200,27791
21845,17184,27765
21824,17161,27730
21811,17149,27710
21793,17140,27695
21769,17123,27667
21758,17108,27640
21757,17106,27630
21745,17103,27624
21723,17086,27601
21713,17071,27577
21714,17071,27566
21711,17069,27554
21705,17056,27531
21702,17042,27507
21690,17036,27491
21660,17023,27463
21627,16996,27415
21607,16974,27377
21589,16968,27357
21559,16957,27332
21533,16939,27298
21523,16931,27272
21510,16934,27258
21488,16934,27237
21479,16932,27214
21498,16943,27212
21528,16971,27240
21558,17001,27279
21607,17033,27327
21684,17083,27404
21772,17149,27509
21865,17213,27624
21977,17276,27751
22110,17354,27908
22244,17444,28088
22373,17528,28265
22508,17612,28441
22647,17705,28632
22772,17797,28825
22880,17874,28999
22992,17947,29164
23114,18033,29339
23232,18122,29514
23340,18197,29666
23449,18265,29805
23558,18340,29942
23646,18409,30066
23714,18455,30159
23779,18491,30237
23842,18533,30318
23888,18572,30391
23919,18593,30441
23944,18603,30479
23959,18616,30515
23953,18621,30534
23940,18609,30529
23937,18595,30523
23935,18589,30526
23916,18579,30519
23895,18561,30496
23881,18546,30478
23858,18535,30467
23818,18513,30439
23777,18480,30392
23751,18458,30351
23730,18451,30326
23702,18442,30296
23680,18425,30260
23673,18415,30234
23664,18410,30219
23647,18398,30195
23636,18379,30161
23637,18370,30138
23634,18369,30126
23623,18365,30105
23619,18358,30075
23621,18362,30057
23611,18370,30048
23588,18366,30027
23568,18353,29998
23554,18346,29982
23531,18339,29971
23497,18318,29946
23475,18295,29918
23467,18288,29905
23453,18284,29894
23430,18270,29869
23421,18258,29843
23427,18263,29836
23429,18272,29836
23430,18273,29831
23442,18272,29828
23459,18276,29841
23470,18280,29851
23479,18277,29846
23499,18281,29845
23523,18296,29863
23536,18307,29877
23543,18307,29877
23560,18308,29882
23578,18318,29900
23583,18326,29912
23587,18326,29913
23603,18334,29925
23617,18354,29951
23616,18367,29967
23613,18365,29967
23620,18364,29970
23623,18367,29982
23611,18358,29985
23599,18339,29975
23597,18327,29970
23588,18323,29971
23562,18309,29957
23534,18286,29928
23515,18270,29904
23493,18262,29888
23463,18248,29862
23438,18230,29829
23419,18221,29809
23395,18213,29792
23366,18195,29760
23348,18177,29720
23341,18171,29696
23322,18167,29679
23288,18147,29643
23253,18118,29598
23223,18100,29566
23189,18085,29536
23152,18059,29490
23120,18029,29438
23089,18005,29397
23051,17979,29356
23007,17943,29302
22973,17911,29250
22940,17895,29214
22894,17877,29178
22844,17845,29127
22807,17815,29077
22775,17796,29039
22734,17776,28997
22697,17749,28947
22671,17725,28906
22641,17708,28878
22595,17683,28842
22552,17649,28791
22529,17624,28751
22510,17614,28727
22479,17600,28696
22450,17578,28652
22432,17562,28616
22406,17551,28588
22368,17535,28555
22339,17514,28519
22326,17500,28497
22311,17492,28485
22283,17474,28457
22258,17450,28416
22245,17437,28384
22233,17433,28363
22215,17423,28334
22207,17413,28305
22206,17412,28291
22194,17412,28282
22171,17398,28255
22156,17381,28224
22157,17380,28213
22153,17387,28213
22137,17384,28196
22124,17374,28171
22117,17372,28156
22104,17367,28141
22086,17349,28107
22078,17333,28073
22077,17332,28056
22065,17332,28041
22045,17321,28014
22033,17309,27987
22021,17304,27970
22000,17297,27953
21977,17282,27921
21963,17267,27895
21951,17258,27886
21930,17244,27873
21909,17222,27847
21902,17208,27826
21891,17201,27813
21865,17191,27791
21843,17176,27756
21841,17170,27729
21842,17174,27716
21829,17170,27697
21813,17156,27667
21806,17146,27646
21795,17139,27634
21774,17127,27611
21761,17111,27579
21761,17106,27558
21755,17108,27550
21738,17105,27533
21726,17095,27507
21724,17092,27490
21717,17095,27481
21704,17092,27465
21703,17093,27450
21716,17108,27457
21724,17129,27474
21726,17139,27482
21745,17151,27494
21786,17184,27535
21835,17229,27597
21893,17276,27664
21980,17336,27753
22094,17418,27882
22212,17506,28033
22334,17586,28184
22471,17668,28343
22615,17763,28520
22753,17858,28705
22887,17943,28884
23027,18027,29067
23161,18118,29259
23273,18202,29439
23376,18270,29596
23482,18336,29747
23579,18405,29898
23655,18464,30032
23727,18512,30150
23808,18565,30267
23880,18623,30383
23930,18666,30475
23971,18690,30541
24015,18714,30600
24046,18737,30655
24052,18745,30687
24053,18741,30696
24062,18740,30703
24059,18739,30710
24038,18724,30698
24017,18699,30671
24003,18680,30649
23985,18668,30630
23959,18647,30600
23941,18623,30568
23929,18608,30552
23907,18597,30539
23872,18576,30507
23841,18553,30460
23821,18540,30424
23796,18530,30394
23764,18511,30352
23742,18493,30308
23728,18485,30278
23701,18475,30247
23665,18454,30201
23646,18435,30159
23642,18432,30140
23636,18432,30127
23624,18422,30100
23616,18412,30072
23606,18410,30056
23584,18403,30037
23557,18380,30001
23538,18361,29969
23524,18355,29955
23498,18346,29938
23469,18327,29908
23451,18311,29887
23430,18302,29877
23398,18287,29857
23374,18268,29826
23371,18259,29807
23373,18260,29807
23363,18255,29801
23355,18240,29781
23359,18231,29771
23362,18233,29772
23357,18230,29767
23355,18225,29755
23366,18233,29760
23376,18251,29783
23375,18262,29802
23375,18265,29814
23386,18273,29834
23392,18283,29857
23390,18279,29864
23394,18271,29867
23407,18276,29887
23414,18285,29910
23407,18282,29914
23404,18275,29910
23407,18279,29917
23399,18284,29923
23377,18274,29908
23363,18262,29891
23356,18260,29889
23340,18257,29888
23317,18242,29871
23301,18228,29850
23288,18224,29838
23268,18217,29823
23242,18195,29792
23222,18172,29757
23200,18158,29736
23163,18143,29709
23124,18119,29667
23100,18098,29624
23075,18084,29590
23040,18063,29551
23009,18034,29502
22993,18011,29464
22975,17998,29445
22940,17977,29417
22902,17949,29371
22876,17931,29326
22850,17920,29287
22809,17900,29237
22768,17870,29179
22739,17846,29136
22705,17828,29105
22661,17801,29063
22624,17769,29014
22602,17748,28974
22575,17733,28940
22537,17710,28895
22505,17682,28847
22486,17663,28817
22463,17650,28795
22431,17628,28761
22405,17604,28723
22390,17594,28700
22370,17590,28682
22346,17575,28650
22330,17560,28617
22320,17557,28598
22300,17553,28581
22268,17535,28547
22246,17511,28511
22230,17495,28487
22207,17481,28464
22182,17464,28430
22166,17453,28397
22152,17454,28380
22130,17451,28363
22106,17435,28332
22097,17421,28304
22092,17417,28287
22078,17410,28265
22065,17396,28233
22059,17388,28207
22049,17384,28193
22024,17372,28170
21999,17349,28134
21989,17333,28107
21980,17327,28097
21958,17319,28081
21938,17307,28057
21931,17301,28042
21921,17299,28032
21900,17288,28009
21881,17272,27976
21874,17266,27954
21866,17264,27942
21850,17255,27923
21843,17243,27899
21846,17242,27887
21842,17245,27883
21827,17238,27863
21816,17226,27834
21813,17221,27818
21803,17219,27808
21786,17210,27782
21781,17202,27751
21782,17208,27734
21769,17210,27718
21743,17194,27687
21721,17171,27653
21710,17162,27639
21705,17165,27637
21710,17170,27634
21739,17183,27646
21787,17217,27691
21838,17260,27759
21899,17300,27833
21980,17349,27925
22077,17414,28046
22180,17486,28180
22300,17558,28318
22443,17642,28478
22592,17743,28666
22734,17844,28859
22880,17939,29049
23038,18039,29253
23188,18147,29466
23317,18247,29665
23443,18332,29843
23574,18417,30021
23696,18504,30200
23795,18580,30356
23885,18644,30487
23975,18709,30615
24051,18770,30743
24109,18813,30851
24166,18844,30935
24227,18878,31014
24279,18915,31088
24314,18942,31140
24342,18958,31174
24366,18974,31206
24373,18983,31229
24363,18977,31227
24358,18967,31212
24363,18967,31208
24357,18969,31206
24335,18957,31186
24312,18938,31155
24292,18925,31132
24264,18910,31110
24233,18883,31072
24217,18860,31036
24211,18853,31016
24195,18847,30999
24170,18828,30969
24149,18806,30934
24133,18793,30907
24115,18782,30878
24097,18766,30839
24090,18756,30806
24085,18757,30789
24069,18754,30768
24052,18742,30737
24043,18734,30714
24032,18730,30703
24011,18719,30683
23995,18699,30650
23992,18689,30626
23989,18689,30614
23973,18683,30594
23959,18669,30563
23959,18663,30543
23955,18662,30532
23939,18654,30515
23931,18643,30492
23937,18644,30487
23941,18655,30495
23934,18659,30497
23934,18658,30493
23947,18666,30502
23955,18678,30520
23957,18680,30528
23968,18678,30531
23988,18690,30549
24001,18709,30577
24007,18719,30595
24024,18725,30611
24052,18740,30642
24067,18754,30672
24070,18756,30681
24080,18757,30682
24100,18768,30697
24116,18784,30718
24127,18792,30727
24140,18798,30732
24152,18807,30745
24148,18809,30751
24132,18795,30735
24121,18779,30716
24111,18773,30711
24092,18766,30707
24071,18753,30694
24057,18741,30682
24041,18735,30681
24012,18721,30668
23980,18696,30636
23962,18679,30606
23944,18670,30584
23910,18652,30551
23874,18624,30506
23851,18604,30470
23827,18596,30445
23792,18582,30410
23759,18558,30362
23738,18541,30323
23715,18530,30294
23684,18511,30257
23661,18487,30212
23650,18474,30180
23635,18468,30161
23607,18453,30132
23581,18428,30095
23561,18409,30066
23533,18392,30038
23497,18365,29996
23472,18340,29952
23457,18331,29925
23434,18324,29901
23397,18302,29858
23363,18270,29802
23337,18248,29758
23305,18232,29720
23268,18210,29672
23242,18188,29625
23223,18178,29591
23191,18166,29557
23153,18140,29505
23124,18114,29454
23102,18100,29423
23075,18088,29400
23051,18069,29369
23036,18051,29340
23022,18043,29324
23001,18034,29303
22982,18015,29269
22973,18000,29241
22962,17994,29226
22938,17985,29204
22916,17969,29171
22904,17956,29142
22887,17945,29121
22853,17926,29089
22822,17901,29048
22806,17888,29018
22792,17884,29000
22769,17874,28974
22751,17857,28940
22740,17848,28917
22725,17848,28904
22701,17840,28882
22683,17827,28853
22680,17824,28838
22674,17826,28830
22655,17818,28807
22638,17803,28777
22628,17793,28755
22612,17784,28735
22584,17765,28700
22563,17743,28662
22554,17735,28641
22540,17730,28625
22514,17714,28595
22491,17694,28559
22477,17683,28537
22462,17677,28522
22443,17666,28497
22434,17656,28474
22435,17659,28466
22423,17661,28456
22402,17649,28430
22391,17635,28399
22386,17630,28380
22370,17624,28361
22346,17610,28330
22324,17600,28303
22301,17600,28289
22269,17595,28269
22241,17578,28236
22233,17569,28214
22239,17575,28217
22247,17583,28231
22272,17596,28256
22326,17631,28311
22397,17688,28400
22476,17747,28504
22579,17811,28620
22712,17894,28771
22857,17995,28954
23002,18097,29147
23157,18196,29341
23326,18303,29550
23493,18419,29771
23652,18526,29986
23815,18630,30194
23980,18743,30415
24135,18859,30643
24274,18962,30856
24412,19054,31054
24550,19148,31254
24672,19236,31445
24776,19309,31611
24880,19377,31761
24983,19453,31913
25067,19520,32052
25130,19565,32156
25189,19598,32236
25248,19634,32312
25292,19664,32376
25323,19682,32417
25351,19698,32448
25377,19722,32484
25385,19738,32510
25382,19734,32511
25382,19726,32502
25383,19727,32499
25373,19722,32490
25358,19705,32468
25348,19690,32448
25335,19682,32441
25311,19669,32426
25289,19644,32396
25280,19628,32373
25274,19626,32363
25254,19620,32347
25233,19607,32320
25228,19602,32302
25224,19608,32294
25208,19608,32275
25196,19602,32248
25198,19603,32235
25199,19608,32234
25189,19604,32224
25180,19591,32204
25179,19583,32191
25173,19579,32182
25158,19567,32161
25151,19553,32138
25153,19551,32132
25147,19551,32133
25129,19538,32119
25114,19519,32095
25107,19512,32081
25095,19511,32074
25076,19501,32059
25067,19493,32045
25070,19500,32048
25067,19511,32055
25058,19512,32051
25059,19510,32049
25071,19517,32065
25078,19525,32085
25079,19526,32092
25086,19528,32099
25096,19539,32116
25095,19547,32130
25089,19544,32131
25096,19544,32138
25113,19557,32164
25122,19564,32183
25125,19558,32188
25135,19553,32195
25142,19555,32207
25134,19551,32208
25128,19542,32197
25133,19545,32198
25135,19558,32212
25121,19559,32218
25102,19544,32208
25092,19533,32204
25080,19527,32207
25057,19511,32200
25034,19486,32179
25020,19469,32164
25005,19459,32156
24982,19441,32133
24963,19420,32095
24950,19409,32065
24927,19400,32039
24888,19378,31998
24850,19347,31948
24822,19324,31909
24792,19308,31874
24754,19284,31827
24720,19259,31775
24693,19242,31734
24654,19225,31694
24604,19194,31640
24561,19160,31582
24529,19139,31540
24495,19121,31503
24457,19094,31452
24428,19066,31400
24404,19047,31362
24369,19026,31322
24328,18992,31264
24299,18961,31209
24275,18946,31174
24242,18932,31145
24208,18909,31105
24186,18890,31069
24165,18878,31042
24130,18860,31007
24092,18835,30962
24071,18817,30931
24057,18805,30915
24029,18783,30888
23998,18751,30842
23981,18727,30800
23962,18713,30768
23930,18692,30730
23900,18665,30683
23883,18648,30650
23866,18644,30632
23838,18634,30603
23811,18613,30560
23794,18599,30526
23773,18590,30500
23741,18572,30463
23713,18549,30419
23693,18533,30386
23668,18521,30359
23634,18499,30318
23608,18475,30271
23591,18462,30242
23570,18454,30222
23545,18439,30195
23531,18424,30166
23523,18419,30149
23502,18411,30133
23470,18390,30103
23452,18369,30069
23444,18363,30049
23426,18361,30029
23399,18350,29998
23377,18336,29965
23356,18327,29940
23325,18315,29909
23292,18290,29860
23270,18266,29814
23252,18253,29788
23223,18238,29763
23191,18213,29727
23170,18192,29695
23152,18180,29674
23122,18162,29645
23094,18135,29606
23080,18117,29579
23063,18110,29567
23030,18096,29546
23000,18073,29510
22986,18059,29480
22972,18053,29461
22945,18039,29430
22921,18019,29389
22908,18005,29359
22889,17995,29339
22858,17977,29309
22833,17955,29270
22822,17946,29242
22809,17947,29227
22792,17944,29208
22790,17942,29193
22808,17952,29202
22834,17974,29231
22868,17998,29268
22928,18034,29330
23017,18098,29433
23113,18179,29565
23212,18260,29703
23328,18346,29856
23467,18449,30040
23614,18559,30246
23765,18665,30454
23931,18774,30673
24106,18894,30914
24270,19012,31157
24425,19116,31382
24589,19220,31603
24757,19332,31833
24908,19439,32056
25046,19530,32258
25182,19614,32453
25305,19699,32643
25406,19772,32807
25498,19826,32941
25590,19878,33067
25672,19933,33192
25730,19972,33290
25775,19994,33358
25821,20016,33422
25857,20042,33485
25875,20061,33527
25890,20070,33545
25911,20081,33560
25919,20089,33572
25907,20083,33563
25896,20067,33539
25893,20055,33523
25884,20050,33515
25863,20038,33496
25847,20022,33469
25841,20011,33452
25829,20003,33439
25805,19983,33410
25788,19962,33377
25782,19953,33358
25767,19947,33346
25738,19931,33317
25713,19913,33284
25699,19910,33269
25679,19911,33261
25653,19900,33238
25641,19886,33213
25642,19885,33202
25635,19884,33193
25621,19868,33171
25613,19851,33149
25608,19843,33141
25592,19834,33133
25572,19817,33111
25558,19801,33089
25542,19793,33078
25513,19784,33063
25482,19767,33032
25466,19760,33007
25457,19764,32999
25442,19763,32989
25435,19754,32975
25447,19751,32970
25455,19754,32975
25449,19752,32971
25448,19742,32957
25461,19741,32955
25471,19750,32967
25465,19753,32972
25459,19749,32969
25466,19752,32976
25470,19762,32993
25464,19763,33001
25468,19758,33003
25488,19765,33018
25502,19778,33041
25503,19779,33053
25508,19771,33055
25519,19768,33066
25519,19765,33078
25506,19752,33075
25499,19741,33069
25504,19744,33078
25500,19748,33089
25481,19737,33080
25466,19723,33064
25460,19722,33061
25444,19725,33056
25416,19712,33028
25388,19693,32990
25360,19680,32962
25320,19663,32933
25273,19629,32885
25236,19595,32836
25207,19575,32802
25168,19556,32766
25125,19525,32718
25092,19492,32667
25058,19465,32623
25015,19434,32574
24978,19398,32516
24952,19371,32464
24921,19351,32423
24873,19322,32372
24820,19282,32306
24780,19251,32247
24742,19231,32197
24696,19206,32140
24659,19174,32075
24636,19147,32019
24606,19125,31971
24561,19095,31914
24523,19061,31851
24498,19035,31802
24466,19018,31768
24422,18994,31730
24383,18964,31686
24354,18937,31650
24322,18913,31620
24280,18882,31575
24243,18849,31524
24217,18830,31486
24184,18817,31453
24141,18793,31408
24102,18764,31359
24071,18743,31325
24032,18721,31293
23987,18689,31248
23959,18660,31204
23944,18646,31178
23920,18636,31155
23888,18617,31117
23860,18598,31076
23838,18589,31048
23812,18582,31024
23783,18567,30985
23761,18551,30944
23740,18538,30914
23705,18521,30878
23663,18493,30826
23634,18471,30781
23610,18462,30754
23579,18450,30725
23553,18431,30684
23540,18417,30649
23522,18406,30623
23493,18386,30586
23475,18361,30540
23473,18345,30506
23464,18340,30488
23437,18329,30465
23413,18311,30434
23402,18299,30411
23387,18291,30393
23357,18274,30361
23328,18252,30319
23304,18238,30286
23273,18228,30259
23230,18207,30220
23193,18181,30175
23166,18165,30145
23139,18155,30126
23104,18133,30097
23073,18106,30059
23050,18085,30031
23021,18067,30007
22988,18041,29967
22968,18016,29923
22957,18006,29895
22934,17998,29870
22896,17977,29829
22866,17951,29784
22846,17933,29752
22824,17918,29725
22802,17898,29688
22790,17881,29653
22785,17874,29636
22777,17869,29626
22776,17862,29615
22797,17868,29622
22832,17895,29663
22869,17928,29721
22921,17965,29791
23003,18019,29890
23105,18094,30024
23216,18179,30177
23348,18272,30344
23508,18385,30542
23677,18513,30765
23831,18634,30984
23982,18741,31190
24146,18849,31405
24309,18960,31631
24455,19058,31847
24594,19143,32047
24731,19231,32248
24855,19323,32447
24961,19402,32624
25064,19471,32777
25167,19543,32928
25254,19614,33071
25322,19668,33186
25381,19705,33275
25433,19737,33358
25468,19763,33429
25487,19772,33476
25507,19775,33510
25529,19787,33549
25533,19797,33579
25520,19791,33585
25509,19778,33578
25502,19772,33574
25486,19770,33568
25465,19758,33546
25451,19746,33521
25441,19741,33507
25417,19732,33488
25383,19706,33450
25357,19678,33406
25335,19660,33368
25304,19642,33329
25272,19619,33283
25250,19603,33245
25230,19598,33222
25198,19586,33192
25167,19562,33150
25151,19542,33117
25138,19531,33099
25114,19514,33077
25093,19492,33048
25085,19481,33028
25074,19478,33018
25048,19465,32996
25025,19443,32960
25014,19428,32934
25003,19421,32919
24981,19403,32897
24959,19377,32866
24944,19360,32841
24920,19350,32823
24884,19331,32791
24856,19309,32751
24844,19300,32730
24834,19301,32728
24823,19295,32723
24820,19288,32713
24827,19291,32717
24826,19294,32722
24815,19285,32710
24815,19276,32697
24828,19282,32703
24833,19294,32717
24828,19294,32719
24828,19292,32722
24836,19301,32740
24841,19314,32761
24846,19320,32768
24861,19326,32777
24882,19342,32801
24889,19356,32822
24887,19356,32827
24891,19357,32831
24895,19364,32842
24886,19364,32844
24871,19352,32830
24862,19341,32817
24848,19330,32809
24821,19310,32789
24798,19282,32755
24788,19261,32733
24776,19250,32723
24747,19231,32699
24715,19202,32657
24692,19179,32620
24663,19163,32591
24620,19139,32551
24579,19108,32500
24547,19084,32455
24509,19067,32418
24460,19040,32370
24415,19007,32312
24382,18982,32263
24346,18964,32220
24299,18938,32167
24253,18904,32107
24214,18879,32061
24170,18858,32021
24119,18826,31968
24076,18787,31909
24045,18759,31866
24013,18735,31832
23973,18703,31786
23940,18672,31736
23914,18655,31702
23883,18641,31671
23849,18617,31621
23827,18594,31569
23811,18585,31533
23784,18575,31501
23751,18553,31453
23723,18528,31400
23696,18509,31358
23660,18490,31315
23622,18463,31261
23596,18440,31214
23574,18428,31186
23541,18412,31154
23506,18388,31114
23484,18368,31083
23460,18354,31062
23425,18334,31033
23397,18307,30993
23385,18292,30961
23374,18287,30942
23350,18276,30914
23327,18255,30873
23314,18239,30840
23298,18231,30818
23274,18217,30789
23259,18199,30752
23257,18190,30729
23248,18186,30716
23223,18173,30693
23197,18156,30660
23179,18145,30635
23159,18136,30615
23135,18119,30585
23118,18100,30552
23109,18094,30535
23092,18092,30524
23066,18080,30495
23045,18063,30457
23031,18053,30428
23011,18043,30402
22986,18021,30365
22972,18002,30331
22966,18000,30315
22947,17998,30299
22917,17983,30268
22893,17963,30231
22875,17952,30205
22850,17940,30181
22823,17918,30145
22803,17899,30112
22782,17890,30097
22748,17879,30082
22716,17862,30053
22705,17853,30028
22708,17859,30018
22716,17869,30017
22743,17882,30027
22800,17914,30069
22869,17965,30147
22938,18021,30239
23022,18078,30342
23136,18155,30476
23265,18252,30646
23400,18354,30830
23551,18457,31026
23721,18570,31247
23892,18691,31483
24054,18805,31709
24215,18912,31925
24380,19024,32148
24536,19140,32373
24677,19246,32578
24814,19342,32767
24948,19442,32956
25063,19535,33138
25157,19606,33288
25249,19663,33416
25343,19725,33546
25424,19783,33668
25484,19821,33757
25538,19848,33828
25587,19878,33900
25618,19904,33960
25634,19915,33992
25652,19922,34012
25669,19938,34038
25666,19945,34055
25646,19933,34042
25631,19916,34017
25620,19904,34000
25600,19892,33982
25579,19871,33948
25561,19849,33913
25538,19835,33887
25500,19817,33854
25461,19787,33805
25438,19762,33763
25421,19747,33738
25393,19729,33708
25368,19706,33668
25358,19692,33636
25345,19684,33616
25320,19669,33588
25300,19650,33552
25296,19640,33527
25291,19640,33515
25274,19631,33494
25257,19616,33462
25250,19610,33437
25240,19613,33423
25217,19608,33402
25199,19593,33374
25189,19580,33356
25171,19568,33343
25142,19547,33321
25123,19526,33295
25117,19522,33284
25109,19527,33282
25096,19523,33268
25092,19512,33249
25100,19510,33246
25104,19512,33252
25107,19509,33250
25125,19511,33252
25155,19528,33270
25173,19545,33288
25175,19550,33290
25183,19558,33293
25199,19578,33314
25207,19597,33337
25208,19600,33347
25216,19601,33357
25226,19611,33380
25226,19617,33400
25223,19611,33403
25232,19609,33409
25245,19621,33428
25246,19629,33441
25243,19624,33441
25251,19624,33446
25255,19631,33459
25243,19631,33457
25232,19622,33438
25233,19620,33422
25228,19624,33417
25206,19616,33400
25182,19598,33367
25167,19585,33338
25145,19576,33312
25109,19556,33275
25077,19529,33230
25053,19510,33194
25021,19497,33161
24979,19475,33114
24943,19449,33058
24917,19430,33014
24882,19412,32977
24832,19377,32925
24781,19335,32865
24738,19304,32821
24693,19280,32784
24643,19246,32733
24605,19214,32682
24577,19198,32647
24539,19182,32613
24490,19149,32558
24452,19113,32500
24426,19089,32457
24392,19068,32420
24352,19039,32367
24317,19009,32310
24286,18988,32263
24249,18967,32217
24214,18939,32160
24190,18914,32110
24167,18901,32075
24129,18884,32038
24085,18858,31991
24054,18839,31949
24028,18830,31919
23995,18815,31882
23969,18793,31835
23955,18775,31796
23936,18763,31770
23901,18742,31740
23868,18712,31699
23850,18691,31668
23835,18683,31650
23811,18668,31622
23791,18644,31580
23780,18626,31545
23761,18616,31521
23730,18599,31487
23704,18578,31448
23686,18568,31421
23662,18564,31405
23631,18550,31376
23607,18530,31335
23594,18519,31302
23576,18513,31275
23549,18497,31241
23531,18476,31205
23520,18465,31184
23501,18457,31164
23474,18439,31130
23457,18421,31092
23450,18415,31072
23434,18411,31054
23409,18396,31019
23394,18380,30984
23385,18375,30964
23364,18369,30946
23336,18351,30915
23317,18333,30884
23301,18327,30866
23281,18323,30850
23264,18311,30824
23253,18299,30799
23235,18290,30782
23206,18275,30758
23177,18251,30717
23161,18233,30679
23144,18226,30655
23112,18212,30622
23079,18188,30573
23060,18171,30534
23044,18161,30508
23020,18146,30479
23000,18128,30448
22999,18125,30439
23006,18135,30454
23018,18147,30474
23051,18167,30505
23113,18210,30572
23189,18273,30674
23274,18341,30792
23382,18414,30924
23515,18505,31088
23657,18608,31279
23802,18709,31477
23964,18814,31686
24141,18935,31916
24310,19057,32155
24466,19165,32379
24625,19270,32597
24790,19386,32831
24943,19503,33064
25077,19604,33271
25205,19694,33462
25333,19788,33654
25451,19880,33836
25554,19956,33993
25654,20021,34134
25744,20087,34276
25813,20143,34401
25867,20181,34496
25925,20216,34578
25977,20257,34660
26010,20288,34726
26033,20304,34769
26059,20318,34805
26081,20333,34837
26088,20336,34850
26093,20328,34844
26104,20325,34841
26108,20331,34845
26092,20327,34833
26071,20306,34801
26062,20289,34777
26055,20280,34766
26034,20264,34746
26014,20241,34716
26002,20228,34694
25985,20222,34679
25962,20209,34656
25952,20196,34631
25954,20194,34623
25951,20198,34626
25937,20192,34616
25931,20185,34601
25938,20193,34601
25942,20206,34610
25934,20207,34604
25929,20202,34590
25929,20204,34588
25919,20205,34588
25899,20191,34573
25887,20176,34551
25880,20175,34540
25862,20175,34528
25836,20162,34499
25820,20148,34469
25814,20146,34455
25800,20147,34445
25782,20138,34421
25772,20126,34397
25765,20122,34389
25754,20118,34386
25745,20109,34379
25748,20106,34382
25754,20114,34401
25750,20119,34413
25747,20113,34411
25759,20113,34414
25773,20122,34427
25775,20125,34433
25783,20125,34431
25807,20134,34441
25826,20149,34464
25827,20156,34479
25827,20154,34483
25839,20161,34497
25850,20176,34518
25850,20181,34528
25848,20177,34524
25851,20177,34524
25847,20181,34530
25826,20173,34518
25805,20154,34490
25792,20141,34469
25773,20133,34457
25742,20116,34436
25713,20093,34408
25688,20075,34385
25655,20058,34360
25617,20030,34317
25590,20003,34271
25570,19987,34244
25537,19972,34221
25492,19943,34177
25452,19907,34122
25420,19880,34075
25382,19856,34030
25339,19824,33971
25304,19794,33911
25276,19779,33869
25239,19762,33828
25196,19732,33771
25161,19705,33715
25128,19689,33675
25086,19672,33634
25046,19648,33588
25016,19627,33550
24985,19612,33522
24945,19593,33483
24909,19564,33426
24886,19542,33378
24864,19531,33346
24827,19515,33308
24791,19489,33258
24767,19468,33217
24741,19453,33187
24701,19432,33148
24667,19406,33099
24648,19389,33058
24628,19380,33026
24598,19363,32987
24571,19339,32939
24555,19321,32899
24535,19308,32867
24507,19288,32828
24482,19269,32786
24467,19265,32761
24448,19266,32743
24420,19252,32712
24394,19229,32673
24373,19213,32646
24342,19196,32620
24301,19168,32582
24272,19143,32547
24256,19135,32530
24232,19129,32514
24196,19110,32477
24165,19084,32431
24142,19066,32397
24115,19051,32369
24085,19030,32329
24064,19011,32288
24046,19000,32263
24019,18986,32237
23991,18960,32192
23978,18940,32150
23969,18933,32126
23947,18924,32102
23920,18908,32068
23903,18898,32040
23885,18895,32023
23854,18884,31997
23825,18865,31958
23808,18854,31928
23785,18850,31906
23749,18836,31875
23714,18812,31832
23694,18792,31797
23679,18778,31775
23652,18755,31746
23625,18725,31708
23607,18706,31678
23588,18697,31660
23560,18682,31632
23538,18662,31595
23527,18651,31565
23512,18644,31540
23488,18629,31504
23468,18610,31458
23456,18600,31422
23435,18592,31390
23401,18570,31346
23372,18545,31301
23347,18531,31275
23313,18520,31257
23280,18505,31233
23272,18496,31216
23288,18507,31228
23315,18532,31264
23356,18560,31314
23424,18601,31390
23515,18668,31505
23618,18750,31648
23735,18835,31803
23877,18930,31984
24036,19046,32203
24197,19168,32436
24364,19284,32666
24543,19404,32906
24719,19530,33158
24879,19649,33404
25037,19756,33633
25200,19865,33864
25355,19981,34098
25486,20088,34314
25609,20179,34503
25740,20271,34684
25861,20364,34861
25960,20443,35014
26051,20507,35141
26144,20570,35263
26221,20630,35381
26273,20671,35473
26316,20695,35537
26361,20721,35595
26398,20746,35648
26421,20758,35681
26439,20760,35699
26451,20762,35716
26443,20760,35727
26422,20747,35718
26412,20731,35702
26416,20728,35698
26413,20728,35701
26394,20716,35688
26373,20698,35665
26358,20688,35652
26334,20678,35642
26301,20658,35618
26282,20641,35595
26275,20637,35586
26261,20631,35577
26244,20614,35553
26238,20595,35531
26234,20589,35523
26222,20589,35517
26211,20586,35499
26212,20586,35482
26215,20596,35476
26202,20599,35462
26182,20587,35432
26173,20579,35408
26168,20580,35399
26151,20575,35384
26135,20561,35359
26129,20551,35340
26119,20547,35328
26093,20534,35306
26069,20510,35270
26056,20495,35242
26044,20493,35233
26024,20487,35222
26008,20474,35205
26005,20469,35199
26002,20471,35202
25992,20466,35195
25987,20459,35181
25993,20464,35185
25994,20478,35203
25989,20482,35214
25989,20482,35219
25994,20491,35236
25990,20502,35256
25979,20502,35262
25979,20502,35264
25993,20515,35280
26001,20531,35300
25994,20529,35301
25988,20520,35289
25988,20519,35289
25980,20517,35291
25968,20504,35278
25965,20492,35264
25964,20490,35263
25946,20485,35257
25918,20466,35235
25894,20443,35207
25867,20426,35185
25826,20407,35154
25782,20375,35103
25747,20347,35054
25714,20331,35022
25671,20310,34986
25630,20281,34942
25600,20254,34906
25568,20233,34879
25521,20205,34837
25472,20166,34778
25435,20134,34725
25396,20111,34683
25344,20082,34631
25292,20046,34566
25251,20015,34508
25208,19990,34460
25154,19957,34403
25106,19920,34335
25072,19891,34276
25040,19870,34229
24999,19842,34173
24962,19807,34110
24934,19779,34058
24895,19755,34014
24847,19722,33960
24810,19688,33903
24784,19669,33863
24750,19654,33831
24708,19630,33785
24677,19607,33736
24654,19597,33703
24621,19589,33675
24584,19567,33631
24556,19545,33586
24533,19533,33558
24501,19519,33532
24463,19490,33490
24428,19455,33439
24394,19426,33397
24352,19400,33354
24306,19370,33298
24272,19347,33249
24244,19340,33215
24208,19331,33178
24176,19312,33131
24157,19295,33088
24135,19281,33055
24104,19259,33015
24076,19229,32965
24061,19207,32925
24043,19198,32901
24008,19183,32870
23970,19159,32826
23942,19139,32790
23910,19127,32765
23868,19109,32731
23834,19088,32689
23814,19075,32657
23790,19066,32630
23757,19047,32589
23732,19020,32540
23715,18999,32501
23693,18981,32469
23662,18955,32428
23635,18927,32383
23615,18910,32353
23588,18898,32330
23552,18879,32293
23524,18858,32252
23506,18849,32225
23482,18844,32203
23449,18827,32169
23427,18810,32135
23415,18803,32116
23391,18796,32097
23357,18777,32062
23331,18758,32024
23312,18749,32000
23287,18740,31975
23260,18718,31935
23238,18693,31897
23215,18680,31875
23179,18664,31847
23139,18635,31801
23112,18611,31758
23090,18598,31728
23060,18582,31691
23033,18561,31646
23017,18549,31613
22999,18546,31595
22973,18541,31578
22958,18533,31559
22972,18539,31564
23005,18566,31597
23043,18599,31643
23100,18637,31703
23186,18696,31798
23287,18774,31929
23391,18853,32073
23513,18937,32231
23659,19039,32423
23810,19153,32645
23962,19263,32872
24124,19373,33101
24294,19495,33341
24455,19624,33586
24609,19741,33816
24770,19851,34037
24929,19964,34261
25064,20070,34476
25178,20153,34661
25294,20223,34825
25410,20295,34988
25507,20363,35143
25587,20416,35271
25660,20462,35380
25724,20510,35485
25765,20550,35574
25792,20570,35632
25822,20585,35676
25847,20608,35723
25853,20623,35759
25850,20623,35773
25851,20623,35777
25846,20629,35782
25827,20627,35773
25808,20612,35747
25799,20599,35722
25787,20593,35706
25756,20575,35675
25719,20542,35623
25695,20514,35579
25672,20496,35551
25641,20475,35518
25618,20448,35477
25609,20431,35449
25597,20423,35434
25573,20408,35414
25553,20387,35386
25544,20378,35367
25533,20380,35359
25511,20375,35340
25493,20363,35313
25478,20356,35296
25453,20350,35282
25418,20332,35254
25391,20312,35221
25375,20304,35203
25354,20300,35189
25323,20283,35156
25297,20258,35117
25279,20242,35095
25258,20229,35080
25236,20208,35054
25232,20189,35029
25238,20187,35019
25233,20190,35012
25220,20184,34991
25216,20179,34971
25218,20186,34968
25213,20196,34972
25208,20198,34970
25212,20199,34970
25216,20208,34984
25207,20210,34994
25194,20195,34992
25193,20183,34997
25198,20186,35017
25194,20189,35033
25194,20187,35037
25209,20192,35049
25221,20205,35072
25213,20209,35085
25203,20205,35082
25206,20208,35084
25209,20220,35096
25195,20225,35096
25176,20217,35079
25164,20212,35066
25145,20208,35058
25113,20191,35035
25084,20164,34999
25066,20141,34972
25044,20126,34953
25012,20103,34922
24983,20076,34882
24957,20058,34852
24921,20044,34823
24878,20020,34775
24842,19991,34724
24812,19969,34688
24771,19949,34656
24718,19915,34606
24670,19876,34549
24630,19848,34502
24584,19823,34457
24534,19790,34401
24497,19761,34346
24469,19745,34307
24429,19726,34265
24384,19695,34204
24351,19667,34138
24322,19652,34086
24286,19638,34037
24253,19614,33978
24232,19590,33924
24206,19571,33881
24163,19546,33833
24118,19511,33775
24089,19485,33728
24065,19469,33698
24031,19450,33665
24002,19429,33622
23984,19417,33587
23957,19408,33559
23915,19390,33519
23876,19366,33468
23853,19350,33426
23831,19345,33394
23801,19332,33354
23775,19310,33308
23759,19292,33273
23740,19277,33247
23710,19253,33211
23684,19227,33170
23667,19213,33142
23645,19206,33120
23616,19189,33085
23592,19165,33042
23577,19152,33016
23558,19145,33000
23534,19129,32972
23518,19107,32937
23507,19093,32915
23484,19082,32894
23450,19062,32858
23426,19046,32818
23413,19045,32796
23396,19047,32781
23375,19038,32755
23359,19027,32725
23344,19022,32708
23319,19017,32689
23290,18998,32654
23274,18978,32618
23262,18968,32596
23241,18957,32569
23219,18939,32528
23209,18925,32491
23198,18918,32466
23174,18906,32435
23153,18887,32397
23148,18879,32371
23142,18882,32363
23124,18880,32355
23112,18873,32344
23128,18882,32352
23160,18911,32387
23196,18945,32432
23249,18981,32491
23330,19037,32585
23426,19112,32712
23527,19191,32849
23646,19272,32999
23789,19371,33182
23943,19485,33399
24095,19596,33621
24257,19707,33845
24427,19829,34086
24589,19952,34332
24740,20059,34561
24895,20157,34781
25050,20266,35007
25190,20377,35229
25311,20470,35422
25428,20550,35596
25545,20633,35770
25647,20710,35933
25733,20767,36069
25816,20815,36189
25893,20869,36308
25947,20914,36412
25983,20938,36483
26020,20957,36534
26056,20983,36582
26077,21004,36619
26089,21013,36636
26099,21018,36643
26101,21024,36652
26088,21020,36647
26070,21004,36621
26063,20990,36596
26058,20987,36577
26039,20975,36546
26013,20951,36501
25994,20933,36464
25972,20923,36441
25939,20908,36414
25912,20888,36379
25901,20877,36351
25889,20872,36333
25866,20858,36308
25843,20835,36272
25834,20824,36249
25827,20826,36242
25810,20825,36229
25792,20816,36206
25777,20811,36192
25751,20807,36182
25718,20793,36155
25695,20774,36120
25685,20765,36097
25671,20759,36082
25648,20742,36055
25631,20721,36022
25617,20710,36003
25594,20701,35984
25565,20683,35953
25551,20669,35923
25547,20671,35911
25539,20674,35902
25527,20663,35879
25521,20650,35857
25521,20649,35851
25514,20652,35850
25504,20649,35841
25503,20649,35838
25504,20662,35853
25497,20672,35868
25493,20672,35869
25501,20677,35874
25512,20691,35894
25514,20702,35911
25519,20707,35919
25535,20714,35934
25546,20723,35955
25541,20721,35964
25536,20708,35957
25545,20705,35956
25553,20712,35967
25544,20712,35968
25530,20701,35953
25522,20695,35939
25507,20696,35930
25479,20688,35906
25455,20670,35869
25446,20659,35842
25433,20655,35825
25408,20640,35797
25382,20615,35756
25358,20593,35723
25322,20573,35693
25275,20543,35646
25233,20510,35592
25197,20488,35549
25152,20467,35506
25102,20435,35449
25065,20404,35390
25040,20385,35346
25008,20366,35298
24964,20334,35231
24925,20298,35163
24894,20275,35114
24858,20254,35068
24816,20223,35007
24776,20188,34943
24735,20162,34893
24683,20136,34840
24629,20099,34770
24587,20067,34705
24551,20044,34661
24507,20015,34616
24463,19974,34561
24427,19939,34510
24386,19913,34467
24336,19885,34417
24293,19856,34356
24265,19838,34306
24234,19829,34273
24187,19810,34231
24140,19782,34176
24107,19761,34128
24071,19744,34090
24025,19718,34043
23986,19687,33989
23961,19664,33946
23932,19647,33911
23893,19623,33866
23861,19597,33815
23843,19583,33781
23827,19575,33760
23803,19556,33731
23780,19531,33698
23759,19513,33672
23728,19499,33643
23689,19476,33596
23660,19451,33548
23639,19435,33518
23607,19420,33491
23563,19392,33447
23530,19365,33401
23510,19353,33369
23487,19345,33337
23459,19327,33292
23436,19307,33243
23414,19296,33205
23378,19280,33165
23337,19250,33111
23309,19225,33062
23285,19217,33028
23253,19211,32996
23223,19197,32959
23205,19185,32929
23187,19177,32910
23158,19162,32880
23132,19136,32836
23119,19116,32800
23104,19108,32779
23074,19095,32752
23043,19075,32713
23021,19061,32679
22990,19051,32647
22946,19033,32606
22910,19008,32557
22891,18994,32519
22871,18988,32492
22842,18973,32457
22826,18955,32417
22832,18951,32398
22845,18959,32399
22859,18969,32406
22893,18987,32427
22952,19030,32486
23022,19091,32577
23094,19152,32681
23187,19219,32806
23308,19305,32972
23441,19400,33168
23584,19495,33374
23754,19601,33599
23943,19729,33854
24126,19864,34120
24296,19985,34372
24468,20101,34618
24643,20224,34872
24810,20350,35125
24968,20464,35359
25127,20573,35586
25280,20685,35816
25410,20786,36031
25518,20864,36215
25623,20935,36380
25720,21008,36535
25797,21069,36664
25864,21113,36765
25932,21154,36858
25986,21198,36952
26013,21228,37026
26028,21240,37070
26049,21250,37105
26065,21265,37138
26066,21270,37149
26067,21267,37142
26079,21268,37143
26087,21275,37149
26076,21271,37139
26064,21256,37114
26062,21248,37095
26056,21247,37084
26040,21240,37063
26026,21223,37033
26017,21210,37011
26000,21199,36996
25975,21179,36969
25954,21159,36938
25944,21152,36922
25933,21152,36915
25919,21141,36898
25911,21129,36881
25910,21128,36880
25898,21126,36882
25875,21113,36867
25859,21102,36846
25853,21106,36839
25841,21113,36835
25822,21107,36818
25808,21097,36796
25796,21095,36783
25776,21090,36763
25751,21071,36724
25736,21053,36686
25726,21044,36662
25709,21036,36641
25694,21024,36615
25687,21017,36596
25674,21015,36586
25650,21007,36568
25633,20989,36540
25632,20977,36524
25634,20978,36523
25621,20977,36520
25608,20972,36507
25606,20975,36504
25602,20985,36511
25588,20987,36510
25581,20981,36498
25586,20980,36496
25587,20981,36503
25579,20975,36501
25574,20965,36490
25577,20963,36488
25575,20964,36492
25562,20958,36486
25553,20950,36474
25551,20951,36471
25537,20953,36467
25508,20939,36444
25484,20918,36413
25471,20908,36400
25457,20903,36398
25437,20888,36383
25426,20866,36361
25420,20847,36349
25397,20824,36330
25359,20786,36286
25328,20749,36234
25301,20728,36194
25261,20714,36156
25211,20693,36106
25164,20668,36055
25116,20648,36017
25061,20623,35971
25007,20585,35905
24965,20549,35841
24926,20522,35791
24877,20490,35737
24830,20449,35667
24795,20416,35601
24753,20392,35547
24698,20363,35486
24649,20328,35414
24618,20305,35357
24590,20295,35318
24548,20277,35273
24507,20250,35215
24478,20230,35165
24444,20213,35126
24397,20188,35077
24354,20158,35018
24326,20137,34969
24296,20122,34930
24256,20099,34884
24218,20072,34828
24185,20053,34781
24143,20038,34743
24096,20016,34696
24061,19991,34645
24037,19973,34610
24009,19955,34581
23975,19927,34536
23951,19896,34483
23936,19880,34443
23912,19868,34409
23882,19848,34365
23860,19827,34318
23841,19814,34284
23806,19798,34248
23763,19772,34194
23734,19750,34141
23715,19739,34106
23689,19725,34075
23661,19699,34034
23639,19671,33996
23615,19648,33967
23581,19624,33933
23548,19593,33884
23530,19573,33845
23514,19569,33825
23484,19560,33796
23450,19540,33749
23430,19523,33709
23408,19513,33683
23372,19498,33650
23342,19480,33607
23322,19467,33570
23297,19457,33542
23263,19437,33504
23235,19413,33459
23218,19398,33425
23198,19390,33402
23166,19374,33369
23137,19351,33330
23117,19337,33301
23091,19329,33277
23056,19313,33239
23032,19295,33195
23023,19288,33168
23009,19281,33146
22982,19260,33107
22961,19235,33061
22950,19222,33034
22930,19212,33011
22896,19189,32971
22865,19158,32925
22838,19135,32892
22801,19113,32856
22759,19082,32803
22731,19053,32751
22713,19038,32717
22686,19024,32685
22654,19003,32644
22636,18989,32609
22633,18991,32595
22635,19002,32599
22655,19016,32619
22702,19045,32670
22765,19097,32760
22835,19159,32872
22926,19225,33000
23052,19311,33163
23198,19422,33363
23344,19537,33576
23503,19651,33795
23686,19777,34038
23876,19915,34304
24055,20047,34565
24236,20170,34817
24424,20299,35078
24604,20431,35346
24766,20548,35596
24922,20652,35824
25079,20756,36049
25226,20861,36269
25353,20951,36464
25469,21027,36636
25577,21101,36798
25662,21168,36943
25726,21217,37053
25787,21256,37136
25847,21299,37215
25890,21337,37288
25913,21358,37334
25932,21371,37365
25952,21391,37402
25957,21407,37432
25951,21405,37436
25953,21399,37428
25962,21401,37427
25958,21400,37424
25941,21386,37406
25925,21368,37382
25908,21357,37364
25884,21346,37342
25861,21329,37308
25852,21317,37282
25848,21320,37273
25834,21320,37262
25820,21310,37243
25819,21305,37231
25817,21305,37229
25803,21299,37221
25794,21289,37202
25800,21289,37195
25803,21299,37203
25791,21298,37201
25778,21285,37183
25777,21280,37174
25775,21281,37176
25760,21275,37167
25746,21266,37147
25742,21263,37132
25733,21262,37124
25710,21249,37102
25690,21229,37069
25681,21218,37049
25672,21217,37039
25661,21214,37022
25658,21210,37004
25666,21215,37004
25668,21222,37009
25662,21221,37000
25667,21221,36987
25684,21237,36991
25699,21257,37003
25705,21263,37002
25715,21260,36996
25730,21266,37005
25733,21271,37018
25728,21266,37018
25734,21263,37020
25751,21274,37039
25756,21285,37055
25755,21283,37057
25764,21283,37059
25781,21296,37074
25790,21308,37086
25793,21311,37083
25799,21315,37079
25798,21325,37085
25781,21326,37082
25761,21314,37059
25754,21306,37041
25748,21308,37035
25728,21301,37021
25706,21282,36995
25690,21265,36973
25665,21251,36953
25626,21227,36919
25589,21196,36871
25563,21173,36830
25534,21158,36796
25494,21137,36752
25455,21110,36697
25424,21089,36651
25389,21070,36612
25343,21041,36559
25305,21008,36499
25279,20987,36449
25249,20972,36403
25206,20944,36340
25163,20908,36266
25122,20880,36203
25071,20853,36145
25015,20817,36074
24971,20785,36001
24936,20767,35947
24892,20751,35900
24840,20721,35840
24796,20686,35776
24763,20662,35731
24727,20642,35693
24689,20614,35645
24658,20587,35599
24627,20571,35565
24584,20553,35525
24536,20523,35471
24498,20495,35420
24464,20474,35381
24422,20450,35336
24384,20413,35277
24359,20379,35223
24333,20354,35183
24295,20323,35133
24256,20283,35068
24229,20253,35015
24201,20237,34982
24160,20219,34943
24121,20198,34893
24092,20182,34851
24059,20171,34817
24012,20149,34771
23970,20119,34715
23938,20097,34667
23897,20078,34630
23842,20051,34584
23791,20018,34530
23748,19991,34485
23703,19964,34444
23653,19928,34392
23612,19890,34337
23580,19865,34297
23541,19846,34262
23496,19821,34215
23458,19795,34164
23433,19780,34125
23402,19765,34089
23365,19740,34041
23340,19719,33994
23323,19713,33964
23293,19703,33935
23247,19676,33890
23206,19642,33839
23170,19618,33799
23127,19594,33759
23080,19560,33709
23043,19528,33663
23009,19506,33631
22966,19482,33594
22922,19448,33541
22891,19419,33490
22861,19400,33453
22825,19378,33411
22793,19350,33359
22774,19329,33315
22752,19322,33286
22713,19308,33248
22673,19284,33194
22648,19265,33147
22622,19255,33114
22580,19238,33072
22538,19216,33020
22512,19204,32985
22488,19202,32968
22465,19197,32953
22465,19191,32949
22497,19205,32980
22547,19243,33050
22613,19293,33139
22706,19354,33247
22825,19436,33393
22952,19531,33568
23084,19624,33749
23234,19722,33944
23407,19843,34174
23583,19975,34425
23753,20100,34671
23928,20224,34918
24107,20358,35181
24271,20489,35439
24422,20602,35669
24578,20708,35886
24736,20819,36108
24877,20924,36321
24999,21011,36506
25112,21086,36670
25214,21161,36828
25289,21225,36962
25343,21264,37058
25395,21294,37138
25441,21327,37218
25470,21353,37281
25492,21364,37319
25514,21374,37348
25523,21388,37377
25511,21387,37384
25495,21371,37364
25488,21357,37347
25476,21349,37340
25445,21332,37320
25410,21306,37281
25383,21287,37246
25350,21274,37221
25311,21254,37189
25282,21233,37150
25270,21223,37125
25256,21219,37114
25234,21207,37093
25217,21189,37061
25204,21175,37033
25184,21162,37011
25158,21142,36977
25144,21123,36940
25139,21116,36920
25125,21113,36907
25101,21097,36882
25083,21074,36851
25070,21059,36832
25047,21049,36815
25011,21029,36780
24981,21007,36743
24957,20993,36719
24919,20978,36691
24873,20952,36645
24839,20928,36596
24811,20914,36560
24780,20902,36527
24748,20884,36486
24724,20865,36450
24701,20854,36433
24675,20840,36418
24652,20815,36392
24644,20795,36375
24639,20789,36374
24625,20785,36370
24617,20779,36358
24623,20782,36357
24626,20792,36370
24618,20792,36373
24617,20782,36362
24632,20784,36363
24646,20800,36382
24645,20809,36393
24638,20805,36389
24637,20807,36390
24631,20813,36400
24614,20810,36399
24603,20797,36388
24602,20791,36387
24595,20790,36392
24576,20781,36383
24554,20764,36359
24534,20753,36340
24506,20743,36320
24470,20721,36283
24438,20696,36241
24408,20679,36214
24364,20659,36186
24307,20622,36136
24253,20578,36075
24205,20545,36022
24147,20511,35968
24077,20464,35897
24006,20410,35820
23933,20361,35748
23845,20308,35670
23748,20242,35573
23662,20178,35479
23587,20132,35406
23509,20090,35338
23432,20042,35260
23365,19996,35180
23298,19954,35109
23226,19908,35034
23159,19858,34946
23106,19820,34866
23054,19797,34804
22990,19770,34739
22926,19732,34667
22878,19700,34606
22833,19675,34559
22780,19646,34505
22734,19612,34439
22704,19585,34382
22674,19563,34337
22634,19537,34284
22598,19506,34224
22576,19488,34176
22554,19480,34140
22527,19465,34098
22507,19443,34052
22497,19430,34018
22484,19423,33994
22464,19410,33959
22451,19395,33919
22443,19388,33888
22422,19383,33858
22392,19368,33813
22377,19353,33766
22374,19352,33740
22366,19354,33723
22349,19346,33697
22342,19335,33666
22341,19334,33646
22332,19332,33624
22319,19319,33590
22317,19310,33561
22323,19314,33550
22319,19316,33541
22309,19307,33519
22304,19297,33496
22295,19296,33486
22279,19292,33472
22265,19280,33446
22265,19271,33424
22266,19271,33413
22256,19266,33393
22245,19253,33359
22244,19249,33331
22238,19253,33315
22219,19246,33291
22203,19228,33254
22202,19217,33222
22197,19215,33198
22179,19205,33161
22158,19186,33114
22148,19175,33080
22139,19175,33062
22126,19171,33042
22125,19165,33024
22146,19175,33032
22180,19205,33069
22226,19239,33116
22296,19283,33185
22394,19347,33295
22503,19422,33436
22620,19496,33590
22762,19584,33766
22929,19697,33982
23098,19821,34225
23263,19937,34465
23438,20054,34709
23624,20188,34977
23805,20325,35250
23981,20452,35504
24166,20582,35756
24353,20723,36019
24524,20858,36274
24679,20973,36500
24827,21074,36707
24960,21172,36906
25070,21259,37083
25167,21326,37229
25262,21386,37365
25347,21447,37498
25407,21495,37606
25454,21525,37680
25502,21552,37741
25533,21578,37796
25539,21589,37829
25538,21583,37839
25547,21580,37849
25555,21586,37864
25545,21584,37859
25529,21572,37830
25519,21562,37803
25500,21555,37780
25466,21535,37744
25436,21508,37695
25421,21491,37658
25404,21479,37632
25377,21458,37597
25352,21435,37555
25336,21425,37527
25313,21421,37508
25282,21405,37476
25259,21382,37439
25248,21370,37418
25234,21363,37406
25212,21350,37382
25198,21337,37356
25191,21336,37343
25170,21333,37330
25137,21316,37298
25109,21295,37259
25086,21282,37230
25056,21272,37199
25024,21256,37153
25004,21241,37110
24988,21236,37084
24960,21227,37059
24928,21204,37020
24907,21178,36985
24886,21159,36963
24859,21137,36937
24837,21114,36902
24835,21103,36881
24838,21107,36883
24829,21110,36886
24823,21106,36884
24831,21108,36893
24839,21119,36914
24840,21126,36929
24848,21127,36937
24869,21136,36953
24887,21152,36976
24892,21158,36988
24900,21158,36989
24918,21164,36998
24930,21175,37012
24928,21178,37016
24928,21175,37010
24932,21179,37012
24930,21186,37015
24917,21181,37006
24907,21171,36988
24899,21165,36978
24875,21158,36967
24838,21134,36933
24806,21102,36884
24782,21081,36843
24750,21063,36804
24708,21035,36753
24675,21003,36702
24648,20980,36666
24607,20956,36627
24556,20919,36569
24514,20887,36509
24481,20869,36464
24444,20852,36421
24404,20823,36362
24368,20790,36300
24329,20764,36249
24278,20734,36195
24223,20695,36127
24180,20663,36064
24139,20642,36013
24087,20614,35955
24039,20578,35883
24003,20546,35815
23961,20520,35758
23906,20488,35692
23860,20450,35614
23829,20424,35546
23798,20405,35492
23753,20377,35434
23709,20343,35369
23675,20314,35312
23637,20292,35265
23589,20264,35208
23549,20233,35145
23526,20213,35096
23504,20202,35057
23470,20183,35010
23438,20161,34958
23409,20145,34920
23373,20129,34885
23328,20099,34835
23291,20066,34780
23264,20045,34745
23232,20028,34717
23192,20002,34675
23159,19977,34629
23134,19964,34597
23104,19953,34564
23073,19932,34515
23059,19911,34467
23055,19904,34441
23043,19899,34422
23024,19882,34391
23009,19864,34355
22995,19853,34328
22971,19843,34297
22945,19823,34251
22931,19806,34208
22921,19804,34179
22897,19798,34146
22872,19785,34105
22858,19776,34073
22840,19772,34052
22807,19754,34022
22776,19725,33978
22762,19704,33939
22750,19697,33913
22728,19688,33882
22710,19673,33845
22701,19665,33821
22681,19663,33808
22646,19652,33783
22621,19630,33741
22612,19612,33705
22600,19598,33676
22576,19575,33637
22556,19550,33592
22542,19538,33557
22519,19531,33526
22483,19511,33480
22454,19485,33427
22435,19470,33391
22411,19461,33365
22380,19445,33329
22366,19431,33295
22372,19435,33283
22375,19443,33280
22373,19444,33274
22390,19453,33280
22427,19483,33321
22477,19526,33392
22545,19574,33480
22646,19636,33597
22775,19725,33759
22910,19825,33950
23052,19924,34153
23216,20036,34378
23399,20167,34630
23584,20302,34893
23775,20437,35159
23979,20579,35440
24181,20728,35740
24368,20869,36032
24552,20997,36303
24746,21130,36573
24937,21267,36844
25108,21391,37092
25267,21501,37315
25419,21611,37530
25546,21717,37736
25641,21799,37910
25720,21859,38049
25798,21914,38175
25867,21969,38292
25917,22011,38385
25963,22040,38456
26008,22070,38522
26037,22095,38577
26047,22102,38602
26057,22100,38610
26072,22105,38625
26080,22114,38641
26075,22111,38635
26071,22105,38617
26068,22105,38606
26052,22101,38593
26028,22083,38559
26017,22065,38522
26017,22062,38504
26007,22062,38491
25985,22050,38464
25967,22036,38434
25955,22033,38420
25939,22030,38411
25922,22018,38391
25919,22012,38377
25922,22021,38383
25919,22029,38391
25914,22026,38387
25913,22022,38381
25907,22022,38381
25889,22016,38371
25873,22000,38346
25872,21990,38328
25870,21990,38322
25846,21979,38304
25813,21955,38268
25790,21933,38238
25765,21917,38216
25731,21895,38181
25702,21868,38136
25687,21852,38104
25669,21845,38087
25642,21833,38066
25623,21817,38040
25618,21812,38026
25613,21812,38020
25602,21804,37998
25602,21794,37973
25614,21798,37967
25619,21805,37974
25614,21801,37971
25612,21792,37962
25616,21792,37966
25609,21792,37975
25595,21782,37969
25592,21775,37965
25599,21783,37980
25596,21792,37998
25583,21787,37998
25577,21779,37991
25577,21783,37997
25568,21787,38008
25554,21780,38004
25546,21771,37993
25538,21772,37991
25517,21767,37981
25486,21746,37949
25463,21725,37917
25442,21715,37895
25411,21702,37863
25380,21682,37813
25356,21663,37763
25324,21644,37717
25273,21611,37659
25220,21563,37587
25178,21522,37523
25133,21495,37472
25078,21465,37415
25025,21432,37347
24983,21408,37285
24938,21392,37230
24885,21369,37167
24838,21338,37092
24806,21315,37028
24771,21300,36976
24726,21276,36918
24685,21243,36854
24651,21214,36800
24613,21187,36749
24563,21147,36683
24515,21103,36612
24474,21068,36558
24424,21038,36508
24365,20996,36438
24315,20949,36362
24277,20918,36304
24235,20896,36255
24188,20866,36196
24156,20839,36138
24133,20827,36100
24099,20813,36063
24056,20784,36009
24025,20753,35954
24004,20735,35913
23976,20718,35873
23945,20689,35819
23918,20658,35763
23887,20635,35718
23846,20609,35665
23802,20575,35596
23768,20546,35537
23734,20527,35494
23690,20503,35448
23650,20472,35392
23623,20448,35345
23591,20430,35310
23546,20407,35269
23509,20379,35219
23489,20360,35180
23472,20351,35152
23444,20335,35115
23418,20312,35066
23404,20296,35025
23386,20285,34994
23355,20267,34956
23325,20244,34911
23302,20226,34875
23270,20213,34845
23228,20187,34800
23189,20153,34743
23158,20128,34695
23124,20113,34655
23084,20092,34605
23052,20070,34556
23027,20058,34526
22994,20046,34500
22954,20018,34459
22928,19986,34417
22917,19966,34387
22901,19948,34359
22878,19922,34316
22858,19896,34268
22838,19882,34231
22809,19869,34194
22777,19847,34142
22754,19828,34091
22731,19821,34055
22694,19810,34017
22653,19789,33965
22623,19771,33917
22593,19761,33881
22555,19747,33843
22521,19725,33799
22500,19708,33765
22477,19696,33741
22442,19676,33708
22414,19649,33665
22410,19637,33641
22421,19647,33644
22438,19662,33664
22480,19683,33707
22559,19730,33792
22658,19801,33915
22769,19882,34058
22904,19974,34224
23067,20088,34433
23243,20222,34678
23423,20356,34931
23614,20491,35187
23817,20638,35460
24017,20788,35745
24213,20931,36024
24414,21069,36302
24616,21213,36592
24801,21351,36880
24966,21470,37143
25128,21580,37386
25292,21699,37630
25444,21818,37864
25576,21922,38071
25699,22013,38254
25808,22099,38426
25891,22168,38573
25953,22212,38681
26013,22247,38771
26064,22287,38857
26092,22314,38925
26106,22322,38961
26123,22322,38985
26135,22323,39007
26129,22318,39014
26116,22302,39000
26108,22289,38980
26094,22282,38963
26063,22266,38935
26028,22240,38891
26006,22222,38853
25988,22215,38830
25960,22201,38798
25933,22177,38754
25916,22159,38718
25894,22147,38693
25864,22127,38661
25842,22101,38621
25831,22088,38595
25817,22086,38584
25792,22077,38565
25771,22061,38539
25760,22054,38523
25745,22052,38512
25725,22039,38488
25716,22023,38461
25714,22019,38450
25700,22015,38442
25671,21998,38411
25643,21976,38368
25623,21964,38335
25599,21955,38305
25569,21935,38265
25550,21914,38226
25537,21906,38206
25513,21897,38185
25481,21877,38147
25461,21860,38113
25452,21858,38098
25435,21857,38086
25414,21848,38063
25403,21841,38042
25397,21841,38035
25387,21840,38029
25380,21831,38013
25381,21825,38004
25377,21828,38010
25358,21823,38006
25339,21806,37988
25336,21796,37980
25335,21795,37988
25324,21789,37993
25316,21778,37991
25318,21777,37996
25316,21785,38007
25305,21788,38009
25301,21784,37999
25305,21788,37994
25301,21795,37990
25286,21787,37972
25273,21768,37941
25264,21751,37915
25243,21735,37890
25210,21709,37849
25177,21676,37796
25144,21650,37755
25099,21625,37717
25040,21586,37662
24986,21541,37596
24944,21511,37542
24896,21488,37492
24840,21453,37424
24790,21414,37348
24744,21384,37286
24690,21357,37227
24630,21317,37155
24580,21275,37083
24537,21242,37026
24482,21207,36969
24419,21162,36896
24365,21123,36822
24319,21098,36762
24269,21074,36701
24220,21041,36628
24181,21010,36555
24141,20983,36491
24092,20950,36424
24045,20906,36348
24009,20870,36282
23975,20847,36232
23926,20817,36173
23875,20777,36098
23838,20746,36033
23804,20725,35982
23756,20696,35925
23709,20659,35862
23672,20628,35809
23631,20604,35765
23583,20574,35710
23544,20541,35649
23516,20519,35599
23481,20501,35554
23436,20473,35496
23393,20440,35432
23355,20414,35381
23313,20388,35339
23263,20355,35286
23220,20321,35229
23183,20298,35185
23138,20276,35141
23082,20241,35082
23039,20207,35024
23013,20190,34988
22982,20175,34961
22942,20147,34917
22909,20116,34866
22883,20097,34822
22849,20079,34777
22812,20050,34717
22785,20025,34660
22766,20012,34622
22736,19998,34586
22701,19974,34539
22677,19952,34499
22654,19939,34474
22621,19923,34443
22590,19901,34400
22566,19883,34362
22536,19868,34331
22490,19843,34289
22447,19810,34235
22422,19787,34190
22401,19774,34156
22371,19756,34114
22341,19730,34061
22327,19711,34020
22313,19701,33993
22283,19684,33957
22252,19659,33909
22227,19638,33867
22194,19621,33833
22148,19595,33786
22109,19564,33728
22082,19542,33680
22048,19525,33640
22002,19498,33589
21962,19470,33533
21937,19452,33493
21916,19441,33467
21899,19427,33445
21904,19424,33441
21932,19447,33471
21966,19480,33524
22011,19512,33588
22089,19559,33679
22198,19636,33814
22318,19728,33981
22447,19819,34158
22598,19920,34356
22769,20044,34587
22946,20182,34839
23127,20317,35095
23318,20453,35361
23510,20594,35643
23690,20729,35918
23866,20849,36174
24047,20969,36427
24220,21093,36679
24368,21202,36909
24502,21294,37113
24633,21383,37307
24745,21469,37493
24830,21539,37650
24906,21594,37772
24985,21650,37880
25048,21703,37980
25084,21736,38053
25108,21749,38097
25132,21759,38134
25145,21769,38166
25140,21766,38175
25131,21751,38163
25123,21736,38152
25107,21722,38140
25080,21699,38110
25053,21671,38066
25030,21653,38029
24997,21641,37996
24953,21616,37948
24911,21584,37893
24874,21558,37849
24831,21536,37807
24785,21505,37754
24753,21477,37704
24730,21464,37672
24700,21451,37644
24666,21423,37602
24647,21396,37559
24642,21383,37532
24628,21373,37507
24603,21354,37469
24583,21333,37430
24562,21319,37402
24530,21302,37369
24491,21271,37320
24458,21241,37273
24425,21219,37240
24383,21194,37199
24342,21163,37145
24318,21145,37101
24299,21139,37073
24273,21130,37043
24257,21119,37007
24261,21117,36985
24262,21124,36978
24255,21125,36964
24260,21122,36945
24280,21130,36942
24293,21147,36951
24290,21157,36955
24286,21158,36953
24291,21165,36963
24291,21176,36985
24282,21174,36998
24279,21165,37001
24282,21165,37015
24275,21168,37033
24260,21162,37033
24254,21156,37026
24259,21161,37032
24255,21167,37043
24238,21159,37036
24223,21140,37016
24213,21129,37002
24194,21121,36989
24163,21101,36964
24137,21079,36935
24113,21062,36916
24074,21039,36890
24023,21001,36840
23978,20961,36787
23933,20930,36746
23867,20895,36698
23787,20845,36628
23711,20794,36555
23633,20746,36488
23543,20691,36411
23455,20624,36315
23377,20557,36216
23298,20497,36126
23203,20429,36024
23106,20352,35908
23022,20285,35807
22942,20232,35725
22851,20177,35637
22763,20117,35538
22688,20065,35449
22612,20018,35372
22527,19964,35286
22453,19906,35192
22393,19857,35110
22327,19817,35038
22248,19771,34955
22175,19721,34866
22118,19680,34790
22060,19645,34722
21995,19602,34646
21939,19559,34569
21893,19527,34507
21840,19496,34453
21778,19454,34382
21726,19409,34308
21690,19379,34254
21654,19357,34210
21612,19326,34153
21576,19293,34090
21549,19273,34041
21517,19254,33994
21480,19224,33934
21452,19192,33876
21430,19172,33838
21396,19153,33802
21357,19121,33751
21326,19088,33697
21296,19063,33651
21253,19037,33601
21210,19007,33545
21176,18982,33498
21136,18962,33463
21082,18934,33419
21032,18896,33364
21001,18869,33322
20980,18858,33300
20958,18850,33280
20954,18847,33261
20982,18863,33255
21021,18894,33263
21061,18926,33267
21118,18957,33266
21193,18998,33281
21264,19046,33306
21316,19084,33319
21366,19112,33321
21422,19142,33330
21470,19170,33343
21508,19189,33348
21554,19208,33357
21614,19244,33398
21678,19293,33465
21749,19342,33539
21842,19398,33633
21965,19480,33772
22103,19581,33948
22256,19689,34142
22442,19813,34361
22657,19963,34621
22878,20121,34902
23100,20274,35185
23338,20433,35481
23586,20607,35802
23827,20782,36128
24059,20943,36441
24291,21099,36747
24514,21259,37054
24716,21410,37344
24899,21541,37602
25080,21667,37845
25247,21794,38083
25385,21905,38298
25506,21994,38480
25625,22076,38647
25727,22153,38802
25805,22212,38929
25882,22254,39026
25965,22294,39116
26031,22335,39204
26073,22363,39266
26109,22378,39301
26146,22396,39332
26167,22415,39359
26171,22420,39367
26179,22416,39360
26191,22419,39359
26191,22424,39360
26176,22417,39343
26163,22403,39313
26160,22398,39293
26155,22396,39278
26143,22385,39254
26141,22375,39233
26147,22380,39230
26141,22386,39230
26122,22376,39212
26112,22360,39188
26115,22356,39179
26110,22357,39172
26092,22348,39147
26081,22339,39117
26073,22339,39100
26049,22333,39080
26019,22309,39040
25998,22284,38997
25983,22270,38972
25954,22254,38944
25920,22227,38899
25894,22199,38852
25868,22179,38817
25836,22159,38780
25806,22137,38734
25791,22125,38698
25777,22125,38682
25756,22122,38664
25737,22110,38634
25733,22105,38616
25734,22110,38616
25730,22112,38615
25736,22109,38609
25761,22116,38617
25788,22132,38640
25807,22144,38658
25834,22155,38670
25871,22177,38696
25899,22205,38732
25913,22224,38761
25929,22234,38782
25951,22247,38809
25961,22257,38831
25959,22253,38834
25963,22245,38828
25975,22248,38836
25976,22256,38848
25962,22250,38840
25949,22236,38822
25942,22232,38818
25930,22232,38818
25909,22221,38802
25892,22205,38778
25874,22197,38764
25842,22187,38746
25802,22165,38706
25772,22145,38661
25745,22135,38627
25705,22119,38586
25658,22089,38525
25616,22054,38460
25573,22024,38401
25521,21989,38336
25466,21944,38258
25416,21900,38182
25358,21865,38120
25287,21826,38051
25221,21780,37970
25171,21745,37897
25119,21720,37837
25049,21684,37765
24976,21631,37675
24914,21582,37592
24847,21540,37521
24768,21491,37445
24696,21439,37361
24637,21394,37287
24571,21352,37222
24497,21302,37148
24435,21252,37068
24392,21215,37001
24349,21187,36942
24303,21152,36874
24262,21117,36803
24227,21091,36745
24182,21070,36692
24131,21041,36629
24092,21016,36568
24065,21004,36525
24032,20993,36484
23989,20964,36427
23955,20930,36364
23936,20911,36318
23912,20896,36278
23881,20869,36225
23856,20842,36174
23836,20827,36141
23803,20809,36112
23765,20777,36068
23738,20746,36026
23720,20732,35999
23689,20719,35969
23653,20698,35927
23624,20679,35888
23594,20666,35859
23558,20651,35823
23532,20630,35774
23521,20614,35738
23507,20604,35717
23476,20584,35686
23444,20552,35636
23424,20525,35593
23401,20508,35566
23366,20487,35538
23339,20464,35503
23327,20450,35473
23312,20444,35446
23285,20433,35412
23259,20418,35372
23238,20411,35344
23211,20413,35328
23178,20406,35303
23148,20389,35267
23122,20375,35234
23091,20361,35201
23052,20337,35149
23021,20308,35092
23002,20291,35053
22978,20279,35023
22948,20257,34985
22930,20236,34948
22932,20233,34935
22944,20244,34943
22971,20259,34963
23030,20291,35014
23121,20353,35114
23221,20431,35246
23333,20513,35392
23475,20611,35570
23643,20735,35791
23820,20874,36041
24011,21017,36306
24218,21169,36592
24426,21332,36902
24628,21491,37215
24835,21639,37517
25059,21795,37829
25285,21963,38158
25495,22121,38476
25697,22266,38770
25900,22410,39054
26084,22548,39331
26237,22669,39580
26377,22774,39798
26517,22876,40004
26640,22975,40201
26738,23054,40368
26826,23113,40504
26909,23168,40629
26973,23218,40740
27015,23252,40820
27052,23274,40875
27088,23295,40923
27105,23308,40958
27096,23301,40961
27081,23284,40943
27066,23275,40928
27040,23266,40904
27004,23242,40860
26978,23217,40815
26965,23207,40789
26940,23196,40766
26902,23167,40722
26869,23133,40668
26846,23112,40627
26819,23095,40589
26789,23071,40541
26772,23051,40499
26766,23045,40478
26754,23039,40461
26737,23023,40430
26728,23008,40398
26719,23005,40378
26702,23001,40356
26687,22989,40322
26682,22979,40292
26674,22974,40274
26648,22960,40247
26612,22930,40203
26584,22904,40169
26556,22889,40151
26516,22870,40123
26478,22846,40082
26454,22831,40045
26427,22823,40016
26388,22808,39977
26355,22788,39933
26334,22778,39903
26309,22770,39883
26279,22753,39855
26261,22732,39820
26260,22723,39798
26263,22725,39791
26262,22723,39784
26270,22724,39780
26288,22738,39797
26299,22755,39821
26303,22762,39832
26320,22771,39846
26356,22799,39885
26387,22830,39934
26404,22846,39963
26425,22853,39980
26452,22867,40004
26472,22880,40026
26483,22881,40033
26495,22880,40037
26507,22889,40054
26507,22895,40066
26499,22890,40058
26500,22885,40048
26500,22890,40047
26484,22888,40037
26459,22871,40006
26437,22852,39968
26409,22836,39933
26364,22812,39885
26319,22779,39823
26282,22750,39764
26237,22728,39715
26170,22696,39655
26100,22650,39577
26044,22609,39502
25988,22575,39437
25915,22528,39360
25840,22467,39266
25772,22410,39176
25700,22358,39091
25618,22298,38996
25545,22234,38894
25487,22180,38805
25425,22133,38727
25355,22080,38642
25290,22027,38549
25232,21986,38469
25170,21953,38396
25104,21912,38312
25049,21867,38226
25000,21829,38152
24938,21787,38077
24868,21732,37985
24811,21678,37893
24765,21638,37818
24706,21600,37746
24636,21551,37661
24573,21500,37574
24519,21465,37505
24460,21433,37444
24401,21393,37372
24350,21353,37300
24300,21320,37241
24242,21286,37180
24183,21243,37104
24136,21203,37032
24090,21172,36973
24032,21133,36906
23970,21083,36825
23919,21038,36752
23871,21003,36693
23812,20965,36627
23759,20926,36552
23721,20896,36488
23680,20875,36436
23624,20846,36375
23573,20812,36304
23539,20788,36249
23507,20775,36212
23464,20754,36170
23425,20722,36116
23397,20694,36066
23363,20670,36020
23320,20636,35960
23284,20598,35893
23252,20569,35839
23206,20540,35790
23147,20499,35723
23094,20454,35649
23054,20421,35592
23008,20394,35543
22951,20356,35480
22898,20313,35411
22852,20280,35356
22797,20249,35301
22738,20209,35232
22694,20170,35164
22663,20147,35116
22624,20127,35070
22579,20094,35010
22546,20062,34947
22521,20043,34899
22486,20024,34852
22447,19996,34793
22418,19969,34741
22398,19954,34715
22385,19949,34708
22390,19957,34713
22424,19988,34754
22475,20042,34840
22537,20104,34951
22629,20171,35081
22763,20259,35249
22919,20372,35458
23076,20492,35686
23250,20614,35927
23451,20750,36195
23655,20896,36483
23850,21038,36770
24050,21175,37053
24263,21321,37352
24468,21473,37666
24655,21617,37971
24837,21750,38256
25020,21882,38534
25189,22012,38797
25341,22127,39028
25486,22227,39233
25623,22326,39426
25732,22415,39597
25814,22479,39728
25889,22526,39834
25963,22574,39939
26016,22616,40033
26044,22635,40094
26063,22639,40131
26077,22648,40164
26076,22656,40186
26064,22650,40183
26053,22636,40166
26039,22625,40153
26010,22611,40134
25974,22582,40092
25945,22552,40044
25915,22532,40004
25871,22506,39953
25825,22472,39885
25793,22445,39821
25763,22428,39771
25722,22406,39712
25686,22379,39643
25664,22357,39584
25638,22342,39542
25603,22320,39498
25573,22293,39445
25558,22277,39403
25539,22272,39375
25506,22259,39336
25473,22233,39282
25454,22209,39239
25434,22192,39206
25404,22171,39165
25376,22146,39114
25355,22130,39072
25325,22117,39037
25282,22094,38986
25245,22064,38926
25222,22045,38882
25196,22035,38847
25165,22019,38804
25145,22001,38759
25134,21994,38731
25114,21988,38709
25090,21973,38676
25081,21963,38650
25085,21972,38649
25079,21984,38656
25066,21982,38650
25065,21978,38646
25075,21987,38662
25082,21998,38687
25086,22000,38699
25096,21998,38707
25107,22006,38727
25111,22014,38748
25114,22013,38755
25131,22019,38765
25153,22037,38790
25163,22047,38811
25167,22044,38814
25178,22043,38817
25181,22046,38830
25172,22042,38832
25168,22031,38821
25171,22027,38815
25164,22026,38817
25139,22016,38805
25117,21997,38775
25104,21986,38746
25083,21979,38721
25049,21962,38679
25018,21939,38626
24996,21923,38580
24966,21908,38540
24923,21878,38485
24884,21839,38418
24854,21807,38363
24821,21783,38315
24779,21752,38254
24741,21719,38188
24710,21697,38133
24668,21676,38076
24615,21639,38001
24572,21601,37928
24543,21578,37875
24509,21560,37829
24466,21531,37769
24431,21497,37703
24402,21472,37647
24367,21449,37591
24331,21419,37520
24306,21391,37450
24284,21374,37400
24250,21355,37351
24206,21328,37287
24169,21303,37225
24132,21288,37178
24088,21270,37130
24049,21244,37071
24019,21220,37017
23982,21200,36973
23933,21173,36918
23895,21137,36852
23875,21112,36797
23854,21099,36756
23814,21080,36707
23771,21052,36642
23741,21033,36582
23710,21020,36530
23668,21000,36471
23629,20973,36404
23602,20951,36350
23572,20933,36308
23533,20904,36259
23502,20868,36203
23484,20844,36161
23463,20827,36130
23435,20801,36086
23413,20772,36033
23395,20754,35991
23367,20743,35953
23333,20725,35903
23309,20706,35851
23289,20695,35817
23252,20683,35787
23207,20657,35744
23178,20632,35701
23166,20622,35675
23146,20612,35650
23122,20589,35611
23109,20567,35570
23105,20562,35546
23102,20567,35534
23106,20571,35521
23126,20582,35524
23160,20613,35559
23199,20650,35610
23256,20688,35670
23349,20745,35768
23468,20831,35916
23598,20930,36093
23749,21036,36287
23929,21161,36518
24122,21307,36786
24316,21455,37068
24525,21605,37354
24753,21768,37660
24981,21937,37982
25192,22095,38294
25400,22243,38592
25616,22397,38898
25822,22554,39207
26006,22696,39490
26181,22821,39744
26346,22940,39987
26487,23047,40214
26606,23131,40410
26717,23203,40578
26820,23278,40735
26897,23344,40872
26948,23386,40967
26995,23411,41031
27039,23438,41088
27060,23459,41131
27056,23457,41147
27045,23443,41143
27031,23435,41136
27002,23427,41119
26963,23407,41077
26932,23385,41029
26905,23371,40995
26862,23349,40955
26808,23309,40891
26765,23268,40819
26730,23237,40759
26686,23206,40698
26640,23168,40623
26606,23133,40553
26572,23106,40499
26531,23078,40447
26498,23047,40388
26479,23029,40342
26453,23022,40311
26410,23006,40270
26370,22976,40213
26344,22953,40164
26318,22939,40126
26279,22917,40078
26241,22885,40018
26208,22858,39963
26163,22832,39914
26105,22796,39850
26054,22756,39776
26019,22730,39716
25984,22711,39668
25941,22681,39609
25904,22644,39545
25878,22617,39501
25849,22599,39471
25819,22577,39436
25805,22557,39406
25803,22549,39395
25793,22545,39390
25781,22536,39374
25789,22534,39363
25811,22549,39377
25824,22570,39399
25826,22578,39406
25835,22585,39410
25853,22605,39430
25866,22626,39454
25877,22636,39464
25898,22643,39473
25924,22659,39500
25943,22673,39527
25956,22675,39535
25974,22680,39543
25985,22695,39560
25978,22703,39568
25965,22702,39560
25958,22701,39553
25945,22704,39553
25918,22699,39543
25894,22683,39520
25878,22668,39498
25853,22657,39480
25811,22634,39446
25772,22600,39394
25748,22573,39345
25722,22552,39298
25680,22520,39236
25636,22479,39161
25601,22443,39096
25559,22412,39040
25507,22372,38972
25461,22326,38894
25425,22290,38831
25381,22259,38776
25324,22216,38705
25271,22169,38624
25224,22134,38553
25170,22101,38483
25110,22056,38399
25061,22012,38314
25023,21979,38246
24972,21944,38181
24907,21895,38098
24847,21843,38012
24796,21806,37942
24742,21778,37879
24686,21744,37805
24639,21709,37730
24594,21682,37671
24541,21653,37611
24490,21613,37536
24453,21578,37466
24422,21556,37413
24377,21529,37356
24328,21489,37288
24288,21449,37221
24247,21416,37161
24196,21382,37094
24151,21349,37020
24122,21329,36957
24088,21318,36906
24036,21298,36849
23985,21266,36780
23954,21242,36719
23925,21227,36670
23885,21203,36616
23846,21167,36553
23817,21134,36501
23782,21107,36456
23734,21072,36399
23691,21032,36332
23661,21002,36280
23630,20983,36241
23595,20962,36194
23570,20937,36147
23552,20923,36116
23528,20918,36095
23505,20911,36069
23510,20915,36056
23545,20945,36079
23595,20994,36136
23660,21048,36207
23753,21111,36302
23874,21196,36443
24012,21297,36626
24170,21405,36830
24354,21524,37062
24552,21662,37330
24747,21806,37615
24943,21944,37897
25156,22090,38192
25377,22252,38509
25584,22413,38826
25781,22560,39126
25979,22704,39422
26163,22846,39714
26325,22972,39981
26481,23084,40217
26638,23194,40440
26777,23303,40651
26883,23390,40829
26973,23455,40971
27061,23514,41101
27132,23572,41221
27174,23609,41310
27200,23626,41365
27222,23638,41406
27225,23648,41436
27207,23644,41437
27189,23630,41418
27177,23617,41400
27152,23600,41377
27110,23564,41332
27065,23515,41268
27023,23472,41207
26969,23431,41147
26902,23383,41070
26840,23333,40986
26783,23295,40917
26717,23258,40849
26646,23208,40767
26592,23161,40690
26553,23132,40636
26508,23104,40585
26456,23064,40517
26413,23024,40443
26377,22996,40381
26337,22974,40323
26297,22944,40257
26265,22914,40193
26230,22890,40140
26181,22861,40084
26130,22822,40013
26089,22786,39944
26047,22759,39889
25989,22724,39829
25927,22678,39755
25878,22637,39686
25829,22608,39629
25773,22578,39569
25727,22548,39505
25700,22531,39456
25671,22525,39422
25635,22510,39382
25609,22488,39333
25600,22477,39301
25592,22475,39288
25574,22463,39272
25559,22444,39252
25557,22436,39244
25551,22437,39246
25535,22435,39242
25526,22431,39236
25525,22435,39242
25518,22441,39254
25505,22434,39249
25502,22422,39236
25513,22425,39243
25519,22434,39259
25509,22428,39259
25499,22415,39250
25495,22411,39251
25485,22408,39251
25470,22393,39229
25464,22379,39201
25460,22374,39182
25437,22363,39158
25402,22333,39112
25377,22304,39064
25354,22287,39026
25316,22267,38983
25269,22237,38924
25230,22206,38865
25191,22182,38811
25141,22152,38749
25093,22113,38675
25053,22078,38605
25002,22048,38545
24934,22009,38474
24870,21960,38389
24822,21917,38314
24771,21883,38253
24703,21839,38181
24633,21780,38093
24574,21728,38009
24514,21684,37934
24448,21635,37853
24389,21584,37766
24339,21545,37691
24283,21511,37623
24217,21470,37541
24160,21427,37452
24114,21395,37378
24062,21367,37313
24000,21325,37231
23943,21274,37141
23895,21233,37067
23842,21198,37003
23784,21154,36929
23737,21109,36855
23698,21075,36798
23654,21047,36747
23608,21016,36682
23574,20987,36613
23542,20967,36562
23496,20943,36514
23439,20907,36452
23393,20870,36387
23353,20844,36330
23307,20821,36273
23261,20793,36206
23224,20765,36144
23185,20744,36096
23136,20717,36045
23087,20678,35977
23051,20645,35915
23020,20625,35871
22980,20600,35822
22945,20566,35763
22923,20539,35711
22896,20519,35671
22851,20493,35622
22809,20462,35559
22781,20438,35506
22747,20419,35463
22700,20391,35410
22661,20357,35345
22638,20333,35293
22615,20320,35252
22584,20302,35208
22563,20284,35169
22562,20284,35157
22569,20297,35171
22590,20313,35195
22643,20342,35241
22730,20399,35336
22835,20478,35469
22951,20561,35621
23093,20656,35800
23267,20776,36024
23449,20913,36278
23631,21049,36533
23823,21188,36793
24023,21338,37074
24215,21489,37361
24403,21631,37635
24599,21774,37908
24793,21923,38193
24964,22060,38464
25116,22174,38707
25268,22280,38935
25413,22387,39160
25533,22479,39362
25636,22549,39526
25735,22612,39670
25818,22672,39804
25876,22718,39911
25923,22747,39987
25967,22774,40052
25988,22800,40110
25980,22808,40138
25964,22798,40132
25958,22791,40123
25946,22788,40118
25919,22772,40100
25895,22745,40064
25879,22723,40030
25854,22704,39997
25814,22677,39946
25779,22645,39883
25753,22619,39831
25718,22595,39784
25671,22561,39721
25632,22524,39650
25604,22501,39598
25570,22484,39557
25528,22458,39503
25496,22430,39448
25475,22414,39410
25451,22402,39378
25423,22384,39335
25405,22365,39292
25390,22354,39261
25361,22337,39226
25320,22302,39170
25290,22266,39113
25268,22244,39071
25236,22222,39030
25196,22187,38973
25161,22151,38914
25127,22126,38871
25087,22105,38830
25051,22080,38778
25027,22060,38729
25004,22051,38693
24969,22036,38649
24939,22011,38595
24927,21993,38554
24919,21985,38533
24901,21970,38512
24891,21953,38489
24899,21948,38480
24902,21956,38485
24893,21960,38484
24892,21961,38476
24908,21972,38480
24923,21989,38495
24929,21998,38501
24939,22000,38501
24956,22007,38510
24962,22016,38525
24958,22012,38526
24962,22005,38521
24976,22010,38529
24982,22022,38541
24975,22022,38533
24972,22016,38518
24979,22021,38516
24975,22028,38519
24956,22020,38503
24940,22003,38477
24929,21994,38461
24906,21983,38439
24873,21957,38393
24848,21927,38340
24827,21909,38303
24791,21891,38266
24747,21859,38213
24710,21825,38154
24675,21799,38105
24631,21772,38052
24585,21734,37982
24547,21695,37910
24507,21663,37851
24452,21626,37786
24397,21580,37710
24356,21544,37644
24316,21520,37593
24261,21490,37529
24206,21451,37451
24169,21424,37386
24138,21410,37336
24099,21389,37278
24065,21358,37206
24040,21334,37143
24007,21318,37092
23960,21291,37029
23918,21253,36956
23889,21223,36894
23856,21199,36844
23812,21167,36788
23770,21132,36727
23734,21108,36674
23690,21085,36620
23639,21048,36552
23597,21008,36479
23569,20982,36427
23535,20961,36386
23489,20929,36331
23453,20894,36269
23429,20872,36223
23399,20854,36183
23360,20826,36131
23331,20800,36081
23307,20786,36045
23272,20769,36005
23229,20736,35945
23197,20704,35883
23171,20688,35835
23134,20672,35788
23093,20646,35731
23060,20620,35678
23026,20604,35642
22986,20585,35603
22956,20558,35551
22942,20535,35505
22927,20521,35471
22894,20499,35427
22856,20468,35368
22831,20444,35319
22805,20427,35286
22770,20402,35247
22742,20370,35200
22722,20343,35161
22690,20321,35130
22641,20291,35088
22600,20255,35035
22572,20230,34990
22540,20215,34953
22500,20194,34907
22468,20171,34858
22445,20161,34823
22417,20155,34794
22385,20138,34755
22369,20119,34718
22372,20115,34706
22379,20121,34713
22393,20131,34724
22432,20154,34754
22501,20204,34826
22584,20269,34931
22682,20340,35052
22816,20433,35209
22981,20555,35416
23154,20689,35648
23334,20819,35886
23531,20954,36143
23740,21103,36427
23944,21252,36715
24143,21388,36985
24338,21517,37246
24516,21646,37507
24667,21763,37752
24809,21863,37970
24953,21962,38182
25086,22064,38397
25191,22151,38588
25288,22222,38749
25387,22293,38897
25467,22360,39036
25520,22412,39146
25568,22452,39224
25618,22488,39291
25651,22517,39347
25660,22526,39376
25658,22519,39379
25656,22514,39380
25640,22508,39378
25608,22490,39355
25576,22463,39318
25551,22441,39288
25514,22417,39253
25459,22374,39195
25406,22323,39123
25365,22285,39062
25323,22256,39009
25278,22222,38946
25242,22189,38882
25213,22164,38835
25176,22140,38794
25136,22109,38740
25109,22083,38686
25092,22074,38650
25066,22066,38615
25033,22046,38564
25006,22026,38510
24986,22017,38466
24961,22007,38422
24936,21985,38369
24915,21960,38317
24894,21942,38277
24861,21919,38234
24825,21884,38178
24801,21856,38127
24779,21838,38092
24742,21813,38052
24704,21781,38000
24677,21756,37955
24643,21738,37918
24595,21712,37872
24562,21683,37822
24553,21670,37789
24549,21672,37775
24537,21671,37758
24532,21662,37734
24542,21663,37723
24550,21672,37724
24548,21673,37720
24548,21670,37714
24555,21675,37720
24552,21683,37735
24540,21679,37740
24536,21669,37738
24543,21671,37748
24545,21678,37762
24541,21677,37761
24543,21673,37752
24549,21678,37754
24544,21686,37759
24535,21685,37751
24535,21686,37741
24540,21695,37743
24529,21695,37738
24507,21679,37709
24494,21661,37676
24487,21652,37655
24468,21641,37634
24443,21618,37599
24420,21592,37560
24392,21573,37528
24353,21552,37491
24312,21522,37441
24277,21495,37392
24237,21474,37352
24183,21444,37301
24128,21401,37234
24087,21364,37174
24046,21335,37125
23989,21299,37066
23933,21254,36993
23890,21220,36925
23845,21193,36861
23787,21157,36786
23733,21115,36701
23692,21082,36630
23644,21055,36571
23583,21015,36501
23524,20967,36422
23478,20929,36352
23429,20897,36291
23372,20858,36220
23319,20812,36141
23272,20772,36072
23218,20737,36011
23160,20696,35942
23111,20658,35874
23070,20631,35819
23020,20605,35764
22962,20568,35690
22917,20532,35616
22886,20510,35564
22846,20486,35522
22793,20448,35463
22743,20404,35396
22701,20370,35340
22656,20341,35286
22610,20307,35224
22569,20275,35160
22525,20253,35106
22472,20227,35047
22422,20191,34976
22390,20160,34914
22361,20140,34867
22320,20112,34814
22276,20074,34749
22248,20047,34695
22223,20032,34655
22188,20011,34609
22157,19981,34552
22137,19958,34507
22106,19936,34474
22060,19903,34431
22018,19864,34377
21991,19833,34336
21958,19809,34307
21911,19777,34268
21867,19745,34219
21839,19727,34176
21813,19718,34139
21783,19702,34093
21763,19681,34042
21745,19664,34002
21711,19645,33962
21667,19614,33908
21634,19581,33853
21612,19561,33818
21582,19544,33790
21543,19515,33745
21511,19485,33694
21494,19474,33664
21484,19475,33652
21480,19477,33642
21499,19490,33653
21542,19528,33707
21598,19580,33789
21672,19637,33882
21778,19712,34008
21911,19812,34181
22048,19919,34378
22194,20024,34582
22364,20142,34808
22551,20279,35059
22735,20415,35314
22919,20541,35560
23110,20668,35809
23291,20796,36059
23446,20912,36290
23590,21012,36499
23731,21108,36703
23855,21199,36902
23952,21272,37071
24040,21331,37208
24131,21392,37341
24208,21452,37473
24258,21490,37578
24298,21512,37654
24336,21536,37721
24361,21559,37778
24364,21565,37807
24356,21554,37809
24346,21544,37806
24321,21533,37795
24285,21509,37761
24255,21480,37717
24230,21459,37684
24189,21435,37649
24132,21395,37586
24084,21352,37511
24047,21323,37451
24002,21297,37394
23947,21258,37318
23898,21214,37237
23859,21183,37174
23817,21156,37118
23771,21121,37052
23729,21084,36986
23689,21057,36936
23642,21031,36891
23596,20992,36834
23562,20955,36779
23530,20929,36738
23485,20900,36689
23436,20860,36619
23402,20825,36553
23372,20803,36502
23329,20777,36444
23285,20741,36374
23252,20710,36313
23216,20688,36267
23167,20659,36214
23125,20625,36152
23101,20601,36104
23078,20591,36072
23044,20576,36036
23016,20553,35993
23005,20539,35964
22995,20535,35951
22982,20528,35937
22982,20524,35921
22996,20531,35920
23003,20540,35926
23001,20537,35918
23008,20533,35907
23027,20545,35917
23040,20566,35944
23046,20579,35963
23060,20588,35981
23086,20607,36014
23102,20625,36049
23109,20629,36066
23130,20633,36080
23160,20648,36104
23174,20659,36123
23173,20653,36122
23177,20645,36113
23184,20649,36114
23181,20656,36118
23168,20649,36105
23158,20638,36087
23144,20637,36078
23113,20630,36061
23078,20609,36021
23055,20591,35982
23034,20583,35953
22999,20571,35916
22962,20548,35866
22937,20525,35822
22908,20505,35787
22864,20474,35743
22826,20434,35686
22801,20401,35632
22767,20377,35584
22716,20345,35525
22665,20303,35452
22624,20269,35388
22578,20244,35335
22520,20209,35273
22465,20167,35203
22420,20133,35144
22372,20106,35093
22320,20069,35030
22277,20028,34961
22240,19998,34907
22194,19975,34862
22143,19943,34799
22104,19907,34724
22077,19886,34661
22041,19866,34605
21994,19831,34539
21954,19791,34474
21923,19761,34427
21886,19735,34386
21844,19701,34332
21815,19671,34278
21794,19656,34243
21761,19639,34207
21721,19609,34154
21690,19580,34099
21661,19562,34058
21620,19547,34017
21578,19523,33965
21545,19499,33916
21507,19482,33877
21461,19461,33832
21428,19436,33780
21412,19418,33737
21392,19409,33709
21356,19392,33671
21322,19365,33618
21304,19344,33577
21287,19331,33551
21258,19310,33520
21232,19283,33480
21212,19263,33449
21185,19247,33424
21149,19223,33387
21121,19196,33341
21104,19181,33307
21082,19173,33281
21052,19155,33245
21026,19130,33199
21007,19115,33165
20985,19108,33140
20960,19095,33107
20950,19083,33076
20954,19088,33072
20962,19103,33088
20972,19116,33108
21005,19136,33142
21070,19185,33217
21155,19254,33327
21256,19330,33457
21386,19422,33614
21544,19537,33813
21709,19660,34034
21880,19777,34258
22071,19902,34497
22272,20042,34760
22461,20181,35023
22643,20310,35269
22827,20436,35509
23000,20562,35750
23153,20675,35972
23296,20770,36166
23440,20861,36354
23569,20951,36541
23666,21023,36704
23748,21073,36835
23833,21123,36954
23905,21173,37067
23949,21208,37154
23984,21229,37216
24021,21250,37270
24040,21270,37316
24035,21271,37333
24023,21256,37322
24014,21247,37310
23995,21241,37300
23959,21222,37270
23920,21191,37219
23881,21163,37170
23835,21136,37121
23784,21095,37053
23745,21048,36977
23715,21013,36919
23671,20980,36870
23613,20934,36801
23559,20883,36723
23514,20847,36656
23463,20816,36594
23409,20778,36518
23368,20743,36440
23333,20723,36378
23285,20701,36317
23230,20664,36241
23190,20628,36168
23159,20606,36115
23120,20585,36068
23078,20555,36010
23045,20525,35953
23011,20503,35908
22967,20479,35861
22923,20445,35802
22893,20419,35751
22868,20405,35718
22833,20387,35677
22800,20359,35620
22785,20342,35574
22772,20338,35545
22750,20327,35514
22738,20307,35479
22747,20299,35462
22756,20304,35466
22757,20308,35468
22769,20310,35467
22797,20321,35481
22821,20343,35508
22830,20357,35524
22839,20363,35531
22858,20376,35549
22871,20391,35574
22877,20397,35587
22894,20401,35597
22922,20420,35627
22941,20441,35664
22948,20449,35677
22965,20452,35681
22995,20467,35702
23017,20485,35730
23026,20489,35741
23036,20484,35743
23044,20484,35753
23037,20483,35761
23023,20470,35750
23017,20458,35733
23012,20458,35727
22987,20452,35712
22953,20433,35675
22930,20416,35636
22911,20408,35607
22877,20396,35571
22839,20372,35521
22813,20351,35474
22785,20337,35433
22744,20312,35380
22703,20275,35311
22673,20242,35249
22639,20218,35205
22585,20184,35154
22531,20139,35089
22496,20102,35029
22461,20076,34982
22416,20047,34931
22377,20013,34873
22352,19990,34827
22320,19975,34789
22274,19949,34738
22231,19913,34672
22196,19884,34613
22151,19861,34562
22097,19833,34501
22051,19800,34432
22015,19773,34375
21971,19746,34322
21923,19707,34257
21890,19672,34192
21869,19656,34147
21835,19641,34108
21788,19612,34054
21752,19580,33996
21730,19558,33954
21704,19538,33916
21669,19508,33867
21644,19482,33817
21624,19469,33784
21594,19457,33751
21559,19431,33702
21535,19406,33655
21514,19393,33621
21484,19380,33585
21453,19359,33536
21436,19344,33492
21418,19338,33460
21389,19327,33427
21369,19307,33384
21368,19294,33352
21365,19293,33336
21342,19284,33310
21316,19264,33268
21303,19248,33235
21289,19240,33210
21261,19225,33172
21236,19204,33124
21222,19191,33088
21202,19184,33064
21173,19172,33032
21151,19154,32992
21142,19145,32965
21132,19144,32949
21124,19143,32932
21136,19150,32923
21171,19174,32945
21211,19211,32996
21257,19246,33061
21334,19295,33153
21448,19376,33297
21581,19480,33480
21729,19588,33680
21905,19703,33896
22105,19838,34143
22302,19981,34408
22491,20115,34667
22693,20249,34932
22901,20393,35216
23094,20534,35497
23275,20660,35754
23456,20779,36000
23626,20900,36245
23774,21012,36475
23912,21108,36678
24047,21200,36870
24166,21292,37054
24256,21365,37209
24328,21413,37328
24399,21456,37431
24454,21498,37527
24480,21522,37596
24498,21531,37638
24524,21543,37675
24539,21557,37713
24529,21555,37727
24515,21539,37713
24510,21528,37698
24498,21523,37686
24470,21506,37657
24440,21481,37611
24414,21459,37570
24376,21439,37533
24325,21406,37479
24283,21364,37414
24248,21331,37361
24202,21301,37310
24144,21259,37240
24095,21212,37163
24059,21181,37103
24019,21156,37053
23970,21121,36988
23929,21083,36919
23896,21057,36872
23852,21034,36832
23803,20999,36779
23770,20968,36727
23748,20952,36692
23718,20939,36656
23681,20913,36599
23653,20884,36540
23629,20866,36492
23596,20848,36445
23565,20822,36390
23545,20798,36341
23524,20784,36308
23491,20764,36269
23462,20735,36217
23449,20718,36179
23439,20717,36163
23419,20714,36145
23402,20705,36119
23405,20706,36106
23410,20714,36113
23404,20715,36119
23403,20711,36118
23417,20716,36130
23436,20734,36157
23447,20747,36179
23465,20756,36194
23497,20773,36219
23526,20798,36254
23544,20816,36283
23566,20828,36306
23590,20844,36334
23595,20855,36360
23587,20850,36361
23588,20838,36351
23599,20841,36355
23599,20855,36369
23587,20858,36368
23586,20854,36357
23593,20858,36356
23591,20863,36357
23579,20854,36341
23575,20841,36319
23572,20837,36307
23550,20827,36290
23515,20802,36249
23489,20778,36204
23468,20766,36171
23435,20752,36138
23397,20724,36092
23366,20693,36043
23334,20669,36004
23292,20640,35959
23250,20605,35899
23219,20578,35845
23189,20562,35806
23142,20538,35757
23092,20500,35690
23056,20465,35628
23019,20440,35577
22973,20411,35520
22934,20378,35458
22909,20353,35403
22874,20336,35354
22826,20311,35295
22785,20281,35228
22756,20257,35171
22720,20236,35123
22674,20207,35067
22637,20176,35005
22610,20154,34953
22573,20132,34902
22528,20097,34838
22491,20059,34773
22464,20031,34728
22426,20005,34691
22372,19964,34639
22324,19921,34579
22291,19895,34535
22259,19879,34499
22225,19858,34450
22200,19837,34399
22181,19829,34364
22150,19819,34329
22114,19793,34277
22092,19768,34227
22077,19757,34192
22051,19744,34156
22020,19721,34104
21995,19697,34051
21968,19680,34012
21930,19662,33973
21899,19640,33924
21882,19623,33883
21864,19614,33858
21832,19598,33828
21802,19571,33786
21787,19551,33754
21774,19543,33734
21748,19533,33708
21727,19516,33671
21719,19502,33644
21703,19492,33624
21673,19475,33592
21648,19452,33549
21636,19438,33519
21617,19432,33499
21585,19417,33469
21557,19394,33429
21541,19377,33397
21525,19365,33373
21507,19347,33340
21501,19331,33311
21507,19332,33304
21509,19342,33310
21512,19349,33312
21543,19365,33328
21608,19410,33385
21685,19475,33476
21772,19545,33582
21888,19630,33716
22031,19741,33895
22187,19867,34103
22359,19992,34322
22556,20124,34566
22767,20272,34845
22971,20422,35133
23171,20559,35409
23379,20697,35687
23584,20844,35978
23772,20985,36261
23955,21113,36524
24140,21239,36781
24308,21360,37028
24451,21465,37248
24585,21555,37435
24718,21643,37612
24830,21728,37783
24912,21792,37926
24981,21837,38036
25052,21879,38134
25107,21920,38224
25135,21942,38287
25150,21948,38324
25163,21955,38356
25161,21960,38384
25143,21948,38387
25126,21926,38369
25111,21912,38352
25084,21903,38334
25047,21884,38299
25014,21857,38251
24990,21837,38211
24958,21818,38169
24917,21787,38107
24885,21753,38042
24859,21732,37994
24819,21713,37949
24768,21680,37884
24727,21643,37815
24694,21620,37764
24657,21603,37721
24619,21577,37666
24593,21549,37611
24573,21531,37571
24547,21510,37535
24521,21480,37487
24505,21457,37442
24490,21447,37411
24460,21433,37376
24424,21407,37323
24398,21383,37272
24372,21368,37233
24334,21353,37192
24299,21334,37147
24280,21319,37115
24259,21311,37097
24230,21299,37072
24215,21281,37042
24221,21273,37026
24223,21274,37022
24212,21271,37009
24209,21265,36987
24221,21270,36980
24233,21282,36989
24235,21287,36991
24244,21288,36988
24268,21299,37001
24291,21315,37029
24308,21324,37053
24331,21331,37078
24358,21351,37119
24373,21372,37159
24377,21377,37178
24388,21378,37187
24410,21392,37211
24421,21409,37239
24417,21413,37248
24416,21408,37243
24420,21409,37247
24415,21409,37253
24403,21397,37246
24399,21385,37237
24400,21385,37237
24388,21379,37228
24365,21357,37195
24350,21335,37160
24332,21323,37135
24296,21306,37103
24255,21278,37055
24225,21251,37011
24192,21233,36980
24149,21212,36944
24112,21189,36896
24088,21171,36851
24054,21155,36811
24000,21125,36758
23950,21082,36686
23917,21047,36619
23882,21025,36563
23834,20998,36496
23789,20961,36419
23755,20930,36352
23714,20905,36293
23659,20870,36224
23607,20827,36146
23563,20791,36081
23511,20762,36029
23446,20723,35965
23385,20676,35895
23337,20641,35840
23289,20615,35793
23240,20582,35734
23204,20549,35672
23177,20527,35627
23137,20508,35586
23089,20476,35528
23054,20443,35464
23032,20424,35417
23004,20409,35377
22969,20380,35327
22942,20348,35274
22917,20326,35230
22880,20306,35189
22836,20277,35136
22798,20251,35084
22763,20233,35046
22714,20207,35004
22660,20167,34947
22620,20131,34894
22588,20108,34857
22547,20083,34818
22511,20052,34768
22490,20031,34725
22467,20019,34692
22432,20001,34649
22402,19975,34592
22388,19956,34547
22369,19944,34519
22334,19922,34484
22299,19892,34436
22278,19873,34395
22258,19862,34363
22230,19843,34321
22208,19819,34273
22196,19806,34238
22178,19800,34212
22154,19788,34177
22142,19773,34138
22136,19770,34113
22119,19768,34094
22088,19754,34060
22064,19733,34019
22050,19721,33992
22029,19710,33970
22002,19687,33934
21987,19667,33899
21983,19666,33886
21970,19671,33879
21954,19665,33860
21960,19665,33850
21990,19687,33873
22030,19724,33922
22083,19762,33981
22160,19811,34059
22259,19883,34174
22371,19971,34321
22506,20066,34486
22672,20178,34680
22854,20310,34910
23037,20444,35153
23229,20575,35397
23437,20716,35659
23643,20868,35943
23832,21010,36222
24018,21139,36487
24214,21273,36754
24399,21409,37024
24562,21531,37274
24721,21638,37501
24880,21746,37722
25015,21853,37936
25117,21941,38118
25207,22008,38265
25292,22070,38399
25358,22125,38523
25402,22159,38617
25438,22180,38685
25471,22200,38745
25486,22212,38793
25484,22208,38813
25485,22195,38816
25491,22192,38823
25482,22188,38822
25455,22166,38794
25428,22135,38748
25408,22113,38710
25380,22093,38674
25340,22061,38621
25303,22027,38562
25270,22004,38515
25229,21980,38468
25186,21945,38407
25153,21912,38346
25123,21891,38301
25081,21868,38255
25037,21835,38195
25008,21807,38140
24982,21792,38100
24944,21775,38058
24911,21751,38005
24892,21729,37958
24868,21714,37919
24828,21692,37869
24790,21661,37809
24766,21638,37765
24739,21628,37739
24694,21610,37703
24652,21583,37650
24627,21565,37606
24602,21553,37572
24570,21533,37528
24549,21508,37478
24545,21495,37445
24538,21493,37429
24521,21484,37404
24508,21468,37370
24504,21460,37350
24497,21459,37342
24488,21453,37330
24492,21447,37322
24505,21453,37334
24509,21462,37354
24507,21462,37361
24523,21463,37370
24553,21480,37399
24575,21501,37435
24590,21510,37456
24610,21518,37473
24634,21538,37502
24649,21561,37532
24657,21572,37546
24673,21582,37561
24690,21601,37593
24691,21612,37617
24680,21604,37614
24676,21592,37604
24675,21591,37604
24660,21585,37596
24639,21565,37572
24623,21545,37549
24598,21533,37532
24556,21513,37503
24517,21481,37454
24493,21457,37412
24468,21444,37382
24427,21422,37343
24385,21388,37287
24354,21356,37235
24315,21330,37190
24260,21294,37134
24209,21252,37065
24171,21221,37003
24132,21201,36951
24083,21175,36889
24039,21142,36817
24000,21115,36753
23954,21091,36692
23901,21056,36621
23859,21018,36546
23826,20988,36488
23785,20960,36435
23731,20918,36366
23681,20876,36291
23638,20847,36231
23586,20823,36180
23531,20787,36117
23490,20751,36054
23456,20725,36007
23410,20695,35957
23360,20653,35889
23324,20616,35825
23298,20595,35784
23258,20575,35745
23209,20541,35691
23168,20508,35631
23130,20485,35582
23085,20462,35534
23039,20430,35479
23002,20402,35429
22960,20384,35390
22901,20358,35339
22846,20319,35271
22811,20289,35215
22783,20273,35176
22748,20254,35134
22719,20227,35082
22704,20205,35038
22686,20189,35002
22656,20166,34958
22630,20138,34908
22614,20118,34871
22589,20104,34845
22548,20082,34806
22512,20053,34758
22486,20032,34720
22455,20014,34688
22419,19990,34643
22394,19964,34594
22374,19951,34560
22343,19940,34530
22306,19916,34486
22282,19889,34441
22272,19876,34417
22253,19868,34400
22217,19846,34367
22182,19817,34324
22152,19796,34288
22117,19776,34249
22078,19747,34197
22050,19720,34146
22025,19704,34112
21987,19686,34078
21947,19660,34031
21928,19641,33992
21927,19641,33980
21930,19647,33983
21947,19657,33995
21992,19688,34034
22053,19739,34111
22122,19799,34209
22218,19867,34324
22350,19958,34474
22496,20071,34664
22640,20185,34870
22796,20296,35084
22981,20421,35324
23173,20561,35587
23358,20699,35852
23548,20829,36110
23749,20968,36377
23937,21108,36648
24104,21232,36898
24269,21341,37128
24435,21451,37358
24581,21558,37581
24702,21646,37773
24816,21716,37939
24917,21782,38096
24988,21837,38230
25033,21870,38327
25075,21895,38402
25112,21926,38475
25127,21947,38532
25123,21944,38552
25119,21930,38548
25116,21922,38545
25097,21914,38536
25063,21891,38505
25032,21862,38465
25000,21838,38431
24955,21808,38389
24905,21765,38325
24865,21724,38260
24825,21694,38209
24773,21660,38155
24718,21613,38088
24672,21568,38022
24622,21529,37965
24563,21488,37899
24510,21445,37823
24470,21413,37755
24422,21389,37699
24357,21357,37633
24295,21317,37555
24250,21285,37489
24204,21263,37439
24150,21234,37383
24104,21198,37316
24073,21169,37260
24037,21147,37213
23990,21118,37157
23951,21088,37095
23928,21071,37050
23901,21062,37018
23866,21045,36974
23841,21024,36925
23830,21014,36894
23820,21011,36877
23810,21003,36855
23815,20997,36835
23832,21005,36836
23840,21016,36847
23842,21020,36851
23863,21028,36860
23901,21051,36892
23928,21076,36934
23945,21089,36963
23972,21101,36990
24005,21123,37031
24029,21144,37078
24050,21154,37113
24076,21166,37147
24102,21189,37190
24119,21213,37228
24136,21227,37248
24164,21243,37268
24188,21265,37301
24195,21278,37326
24194,21277,37332
24197,21278,37334
24190,21282,37339
24166,21273,37330
24146,21254,37306
24139,21240,37287
24125,21231,37274
24095,21212,37247
24067,21184,37207
24048,21162,37172
24020,21146,37144
23980,21118,37101
23944,21085,37047
23918,21061,37000
23884,21039,36957
23836,21007,36899
23794,20969,36834
23761,20942,36781
23720,20919,36734
23668,20884,36672
23620,20842,36602
23581,20811,36545
23535,20784,36493
23484,20748,36425
23443,20715,36355
23408,20697,36301
23358,20676,36248
23297,20640,36176
23252,20602,36104
23219,20579,36052
23182,20559,36006
23140,20527,35947
23101,20489,35883
23060,20459,35828
23013,20430,35770
22971,20394,35701
22944,20367,35641
22919,20354,35599
22879,20338,35554
22840,20313,35500
22816,20294,35457
22784,20278,35426
22738,20253,35387
22701,20220,35336
22683,20195,35295
22662,20178,35264
22626,20153,35222
22594,20120,35171
22575,20093,35129
22552,20074,35096
22515,20047,35052
22484,20018,34999
22466,20001,34957
22442,19992,34922
22412,19975,34873
22389,19954,34817
22373,19945,34778
22351,19940,34748
22321,19923,34705
22297,19900,34654
22277,19884,34618
22245,19869,34591
22207,19840,34552
22185,19811,34514
22173,19796,34498
22154,19787,34489
22135,19776,34472
22139,19778,34466
22168,19805,34495
22210,19850,34554
22273,19901,34630
22370,19967,34734
22490,20054,34882
22621,20154,35061
22772,20260,35256
22953,20387,35479
23148,20538,35736
23340,20690,36003
23540,20835,36273
23757,20985,36560
23970,21140,36864
24169,21286,37162
24371,21420,37443
24583,21559,37723
24781,21699,38001
24948,21821,38252
25100,21925,38472
25249,22029,38680
25379,22134,38878
25481,22219,39045
25571,22282,39178
25656,22338,39298
25716,22383,39403
25751,22407,39475
25781,22416,39519
25809,22428,39560
25819,22441,39595
25810,22437,39603
25800,22422,39590
25787,22411,39579
25758,22394,39559
25717,22361,39513
25687,22326,39460
25663,22306,39422
25626,22288,39383
25575,22256,39324
25528,22220,39256
25485,22193,39198
25436,22167,39142
25384,22132,39075
25342,22098,39012
25303,22076,38965
25256,22052,38914
25209,22017,38847
25180,21990,38789
25159,21975,38751
25131,21957,38712
25105,21930,38663
25091,21906,38621
25073,21886,38588
25040,21859,38542
25007,21823,38479
24991,21797,38426
24972,21785,38389
24934,21767,38346
24892,21741,38296
24866,21727,38259
24847,21723,38234
24823,21711,38200
24808,21693,38158
24806,21689,38135
24805,21695,38129
24798,21696,38119
24801,21696,38106
24814,21709,38113
24821,21726,38131
24823,21730,38138
24840,21734,38144
24870,21754,38173
24893,21782,38215
24909,21797,38245
24931,21807,38271
24958,21825,38309
24976,21843,38346
24986,21848,38365
25007,21855,38380
25036,21874,38409
25052,21893,38437
25056,21898,38445
25065,21896,38446
25071,21901,38456
25060,21901,38458
25040,21885,38437
25028,21871,38411
25015,21867,38396
24987,21857,38377
24957,21836,38345
24939,21819,38317
24916,21809,38295
24875,21789,38259
24838,21754,38204
24814,21723,38156
24786,21697,38116
24740,21660,38064
24691,21613,37997
24649,21572,37932
24600,21540,37874
24541,21500,37807
24490,21455,37731
24450,21422,37665
24403,21399,37610
24344,21371,37546
24292,21339,37475
24245,21313,37412
24192,21288,37350
24135,21254,37275
24092,21218,37200
24060,21192,37142
24019,21166,37088
23967,21126,37016
23922,21081,36935
23886,21049,36870
23847,21023,36812
23804,20989,36745
23772,20955,36677
23746,20933,36625
23703,20906,36574
23649,20866,36508
23606,20827,36442
23566,20799,36388
23517,20769,36336
23468,20730,36275
23430,20694,36218
23394,20673,36180
23349,20653,36141
23307,20625,36087
23284,20603,36038
23263,20591,36004
23228,20575,35962
23197,20551,35908
23180,20536,35861
23161,20528,35828
23128,20510,35789
23098,20484,35740
23084,20466,35702
23070,20457,35677
23041,20440,35641
23012,20415,35595
22995,20400,35561
22970,20391,35536
22933,20370,35496
22903,20343,35443
22884,20326,35400
22861,20314,35368
22830,20296,35329
22808,20275,35285
22792,20262,35256
22768,20250,35233
22738,20229,35194
22721,20208,35154
22717,20204,35136
22707,20205,35126
22693,20198,35106
22695,20194,35092
22716,20210,35108
22749,20240,35147
22804,20277,35196
22897,20333,35279
23015,20421,35413
23141,20522,35582
23279,20625,35769
23444,20740,35984
23621,20871,36234
23799,21005,36499
23991,21139,36769
24203,21284,37057
24414,21442,37364
24608,21590,37663
24799,21723,37943
24998,21860,38224
25187,22002,38505
25350,22131,38764
25506,22245,38999
25664,22358,39227
25802,22468,39448
25915,22558,39638
26019,22627,39795
26121,22694,39938
26201,22757,40065
26259,22799,40160
26309,22826,40230
26350,22852,40295
26370,22871,40350
26372,22873,40377
26376,22864,40381
26383,22859,40386
26379,22855,40388
26360,22836,40371
26345,22812,40344
26333,22798,40326
26303,22780,40304
26261,22748,40263
26233,22719,40219
26217,22707,40191
26196,22703,40165
26172,22689,40122
26157,22671,40077
26142,22661,40051
26118,22649,40025
26093,22628,39983
26084,22614,39944
26078,22613,39922
26062,22608,39897
26049,22596,39862
26043,22587,39834
26030,22585,39817
26000,22577,39788
25970,22558,39741
25951,22545,39699
25925,22537,39670
25879,22517,39634
25837,22488,39593
25812,22464,39562
25786,22444,39538
25752,22415,39502
25731,22385,39456
25730,22370,39425
25726,22367,39410
25713,22358,39390
25708,22348,39368
25710,22350,39361
25704,22355,39361
25691,22348,39346
25693,22341,39329
25708,22350,39335
25718,22367,39355
25722,22375,39367
25739,22382,39379
25769,22403,39410
25790,22425,39444
25801,22434,39460
25820,22443,39474
25845,22464,39504
25859,22483,39536
25860,22488,39552
25864,22487,39561
25868,22494,39579
25861,22499,39592
25852,22496,39585
25850,22494,39577
25844,22500,39578
25825,22498,39567
25803,22480,39537
25790,22464,39508
25773,22453,39486
25741,22434,39452
25712,22408,39407
25695,22389,39370
25669,22375,39340
25625,22348,39296
25584,22308,39234
25557,22272,39176
25527,22245,39125
25481,22212,39062
25440,22175,38989
25408,22144,38925
25366,22116,38867
25311,22079,38797
25264,22040,38721
25228,22013,38659
25184,21991,38605
25136,21962,38541
25097,21929,38475
25064,21903,38421
25017,21877,38369
24960,21836,38301
24913,21790,38227
24876,21757,38169
24831,21729,38116
24780,21698,38050
24741,21668,37984
24710,21647,37929
24668,21622,37872
24622,21583,37804
24589,21545,37744
24564,21524,37703
24529,21507,37665
24492,21483,37613
24466,21461,37563
24437,21444,37524
24397,21422,37480
24356,21390,37425
24329,21366,37377
24301,21349,37342
24263,21327,37302
24232,21300,37250
24216,21282,37203
24191,21268,37164
24151,21245,37116
24116,21215,37059
24100,21196,37015
24084,21189,36988
24057,21175,36955
24035,21153,36911
24026,21138,36877
24008,21129,36851
23974,21108,36812
23943,21078,36763
23921,21058,36726
23896,21047,36699
23866,21029,36658
23847,21010,36612
23835,21000,36581
23810,20991,36554
23775,20969,36507
23750,20943,36451
23736,20929,36411
23711,20916,36379
23673,20892,36334
23638,20865,36287
23606,20850,36253
23565,20834,36217
23523,20807,36165
23500,20785,36116
23489,20777,36089
23475,20771,36070
23468,20761,36046
23478,20761,36037
23501,20782,36061
23531,20816,36105
23585,20854,36164
23674,20909,36258
23782,20988,36395
23898,21075,36554
24036,21168,36731
24205,21282,36943
24382,21414,37190
24551,21547,37446
24732,21678,37706
24933,21822,37985
25130,21975,38280
25306,22117,38564
25482,22245,38828
25666,22375,39093
25841,22507,39358
25995,22624,39600
26145,22726,39821
26291,22828,40038
26413,22924,40244
26508,22997,40412
26594,23051,40546
26675,23106,40669
26734,23154,40778
26774,23184,40853
26816,23204,40905
26854,23232,40960
26868,23252,41002
26864,23251,41011
26866,23244,41005
26873,23248,41004
26862,23250,40996
26834,23232,40967
26806,23206,40929
26779,23186,40899
26745,23164,40869
26711,23132,40825
26687,23104,40781
26662,23090,40751
26621,23071,40715
26578,23039,40663
26553,23011,40615
26528,22991,40579
26493,22971,40539
26467,22947,40493
26458,22934,40460
26449,22933,40445
26428,22925,40426
26408,22905,40394
26402,22892,40369
26394,22891,40354
26369,22881,40327
26345,22859,40289
26327,22843,40257
26299,22830,40229
26261,22808,40186
26233,22780,40130
26221,22762,40086
26207,22752,40054
26183,22737,40016
26162,22719,39976
26148,22708,39949
26122,22696,39926
26090,22674,39889
26072,22655,39856
26070,22654,39849
26066,22659,39856
26057,22657,39851
26058,22656,39844
26067,22667,39854
26071,22681,39870
26073,22687,39873
26092,22698,39880
26117,22720,39902
26126,22735,39920
26126,22732,39916
26141,22732,39914
26160,22745,39928
26161,22754,39936
26156,22747,39927
26157,22740,39919
26150,22738,39921
26128,22728,39914
26109,22709,39893
26101,22695,39878
26081,22689,39873
26042,22671,39854
26006,22636,39815
25987,22608,39779
25965,22591,39753
25931,22567,39717
25901,22534,39666
25878,22506,39619
25845,22485,39574
25797,22454,39514
25754,22417,39445
25719,22392,39385
25675,22372,39330
25620,22342,39261
25569,22303,39184
25522,22269,39119
25464,22235,39057
25397,22187,38979
25341,22134,38893
25295,22094,38821
25239,22059,38758
25175,22018,38684
25121,21976,38608
25074,21944,38545
25020,21912,38483
24965,21870,38408
24926,21832,38338
24896,21812,38290
24857,21796,38246
24812,21768,38186
24771,21737,38125
24732,21713,38080
24685,21688,38032
24641,21655,37968
24611,21626,37906
24582,21607,37856
24536,21579,37798
24488,21540,37725
24455,21505,37660
24420,21478,37611
24374,21447,37561
24337,21414,37507
24316,21395,37465
24292,21384,37436
24252,21361,37395
24213,21329,37339
24185,21305,37289
24156,21288,37246
24116,21261,37191
24082,21230,37130
24057,21209,37085
24025,21194,37051
23982,21171,37008
23943,21142,36957
23913,21120,36918
23876,21097,36883
23832,21065,36831
23802,21036,36775
23783,21022,36737
23755,21011,36703
23715,20987,36654
23682,20960,36599
23659,20943,36556
23628,20926,36516
23592,20896,36467
23568,20867,36421
23548,20848,36390
23514,20826,36355
23475,20792,36303
23448,20757,36252
23423,20735,36212
23388,20716,36169
23353,20691,36115
23321,20666,36066
23281,20645,36032
23229,20620,35990
23185,20590,35934
23165,20572,35891
23158,20571,35874
23154,20575,35872
23177,20586,35887
23234,20617,35936
23301,20669,36019
23374,20728,36120
23476,20799,36240
23610,20893,36402
23755,21004,36602
23899,21116,36817
24055,21230,37039
24225,21357,37281
24391,21488,37536
24551,21609,37781
24722,21726,38021
24901,21852,38273
25063,21977,38525
25207,22086,38751
25351,22182,38957
25495,22281,39164
25622,22378,39363
25729,22457,39533
25831,22524,39686
25925,22593,39839
25992,22650,39973
26035,22681,40069
26078,22702,40141
26114,22726,40207
26126,22740,40256
26119,22733,40270
26111,22717,40266
26095,22706,40259
26063,22689,40236
26023,22658,40186
25995,22630,40139
25966,22615,40106
25922,22594,40065
25882,22564,40006
25856,22539,39953
25827,22524,39912
25784,22501,39863
25749,22470,39804
25729,22449,39759
25705,22438,39729
25664,22419,39689
25628,22393,39639
25607,22374,39596
25580,22358,39562
25544,22334,39519
25515,22305,39471
25496,22284,39433
25467,22266,39404
25424,22239,39362
25386,22204,39312
25355,22174,39276
25317,22146,39244
25272,22110,39195
25240,22073,39142
25217,22050,39105
25188,22034,39076
25157,22012,39036
25139,21992,38994
25133,21986,38969
25117,21984,38948
25097,21973,38918
25095,21968,38896
25102,21980,38898
25097,21994,38905
25085,21997,38899
25082,21996,38893
25082,22004,38902
25078,22010,38909
25079,22006,38903
25093,22008,38902
25103,22023,38917
25098,22032,38930
25092,22033,38937
25096,22039,38953
25096,22050,38976
25085,22051,38988
25084,22041,38989
25098,22038,38997
25104,22043,39013
25094,22038,39015
25085,22021,39001
25085,22008,38989
25078,22001,38981
25058,21988,38957
25041,21971,38922
25032,21962,38898
25013,21954,38879
24977,21930,38842
24942,21895,38790
24910,21865,38745
24867,21840,38705
24815,21811,38652
24774,21782,38594
24740,21761,38548
24690,21739,38501
24625,21699,38434
24570,21656,38358
24530,21625,38296
24486,21596,38241
24432,21554,38174
24383,21508,38102
24340,21473,38043
24287,21436,37982
24229,21384,37897
24186,21338,37812
24152,21310,37747
24108,21285,37686
24061,21251,37618
24024,21220,37559
23987,21199,37514
23941,21176,37464
23900,21148,37402
23876,21127,37349
23850,21115,37307
23805,21095,37254
23760,21062,37182
23730,21035,37117
23694,21014,37067
23647,20984,37013
23612,20948,36955
23594,20923,36911
23568,20902,36876
23529,20872,36830
23499,20840,36778
23478,20821,36740
23449,20809,36713
23407,20788,36677
23372,20760,36634
23344,20742,36599
23311,20725,36568
23275,20697,36522
23253,20671,36471
23241,20659,36439
23218,20650,36414
23183,20626,36373
23156,20597,36323
23139,20579,36286
23113,20564,36252
23079,20539,36203
23054,20512,36153
23034,20497,36121
23001,20482,36088
22965,20456,36038
22943,20431,35990
22927,20417,35958
22898,20403,35924
22866,20382,35879
22844,20366,35840
22823,20364,35819
22795,20361,35800
22783,20352,35778
22805,20359,35780
22846,20389,35821
22891,20426,35881
22956,20468,35955
23057,20535,36068
23176,20625,36224
23303,20722,36400
23450,20824,36590
23626,20946,36811
23810,21085,37060
23986,21220,37312
24167,21351,37563
24357,21490,37827
24539,21630,38097
24706,21757,38353
24873,21877,38596
25043,22001,38842
25196,22122,39081
25330,22223,39288
25458,22309,39471
25579,22395,39648
25677,22474,39811
25754,22529,39940
25828,22573,40045
25898,22617,40147
25941,22651,40233
25958,22662,40281
25977,22663,40305
25998,22671,40329
26005,22677,40344
25998,22668,40335
25992,22653,40314
25978,22646,40299
25946,22631,40271
25905,22600,40220
25873,22568,40170
25842,22546,40135
25798,22519,40093
25755,22486,40038
25727,22462,39992
25698,22449,39961
25660,22431,39922
25635,22408,39872
25628,22395,39834
25616,22391,39811
25588,22378,39780
25561,22356,39734
25547,22341,39694
25526,22332,39659
25492,22313,39612
25461,22288,39555
25437,22269,39508
25404,22251,39466
25361,22223,39412
25325,22193,39353
25300,22175,39315
25272,22165,39290
25241,22146,39253
25222,22127,39214
25211,22120,39191
25188,22109,39168
25156,22084,39127
25142,22060,39088
25146,22055,39076
25144,22060,39074
25135,22055,39061
25135,22047,39044
25144,22052,39047
25150,22062,39057
25156,22063,39057
25175,22067,39060
25198,22086,39083
25209,22104,39108
25214,22112,39120
25233,22124,39137
25251,22146,39167
25255,22160,39190
25258,22162,39200
25267,22164,39213
25266,22171,39234
25248,22166,39242
25235,22150,39231
25241,22142,39221
25246,22146,39218
25235,22142,39200
25222,22129,39168
25219,22119,39144
25206,22114,39126
25176,22101,39092
25150,22080,39046
25130,22063,39008
25097,22044,38973
25045,22010,38920
24993,21967,38853
24947,21933,38795
24897,21905,38746
24845,21871,38686
24805,21837,38623
24773,21813,38575
24731,21787,38529
24681,21747,38460
24643,21706,38385
24619,21681,38327
24591,21664,38278
24557,21638,38218
24527,21608,38151
24497,21588,38097
24454,21568,38045
24407,21536,37979
24369,21502,37912
24332,21478,37859
24279,21448,37806
24218,21403,37738
24170,21361,37671
24128,21330,37614
24080,21299,37554
24035,21264,37488
24004,21236,37433
23971,21219,37394
23925,21196,37347
23883,21166,37287
23860,21143,37236
23837,21129,37200
23799,21105,37155
23761,21071,37097
23737,21045,37046
23710,21029,37004
23671,21006,36952
23640,20978,36891
23624,20961,36844
23604,20951,36811
23569,20931,36768
23536,20907,36718
23512,20892,36680
23483,20881,36652
23451,20863,36617
23429,20841,36580
23414,20829,36554
23383,20817,36528
23343,20794,36485
23317,20769,36437
23307,20756,36405
23290,20747,36378
23263,20725,36338
23241,20699,36295
23225,20685,36266
23202,20673,36238
23176,20651,36194
23161,20632,36152
23152,20627,36128
23128,20619,36103
23097,20597,36060
23077,20574,36018
23061,20561,35988
23037,20550,35953
23012,20532,35906
22999,20519,35868
22985,20517,35852
22965,20512,35841
22959,20506,35832
22988,20522,35853
23038,20564,35912
23099,20615,35989
23184,20672,36081
23303,20753,36216
23439,20856,36395
23577,20960,36592
23732,21068,36805
23909,21196,37050
24093,21341,37323
24271,21484,37595
24455,21622,37864
24647,21763,38143
24828,21902,38424
24998,22029,38686
25176,22151,38939
25358,22282,39201
25521,22407,39457
25661,22508,39680
25796,22594,39878
25925,22683,40070
26030,22767,40245
26115,22829,40382
26196,22881,40496
26270,22934,40606
26316,22974,40693
26339,22991,40741
26359,22999,40769
26374,23010,40799
26371,23016,40822
26357,23008,40823
26348,22996,40815
26338,22991,40814
26309,22980,40801
26275,22955,40765
26253,22932,40731
26232,22916,40706
26203,22895,40673
26183,22870,40628
26180,22855,40593
26169,22848,40574
26138,22833,40550
26108,22807,40515
26096,22789,40490
26082,22781,40476
26056,22768,40453
26036,22749,40419
26029,22737,40394
26014,22729,40378
25986,22711,40349
25964,22687,40311
25954,22676,40283
25939,22675,40263
25915,22663,40229
25895,22645,40187
25881,22637,40160
25855,22629,40137
25820,22607,40096
25798,22581,40051
25789,22570,40026
25769,22564,40005
25737,22547,39968
25712,22529,39926
25702,22525,39901
25693,22527,39886
25685,22520,39863
25685,22514,39843
25688,22519,39843
25680,22524,39846
25671,22517,39836
25677,22515,39829
25688,22526,39840
25687,22536,39851
25686,22538,39855
25695,22545,39865
25700,22557,39884
25694,22561,39891
25698,22557,39884
25717,22561,39892
25733,22575,39918
25734,22579,39933
25735,22574,39930
25750,22578,39932
25760,22591,39943
25753,22593,39942
25748,22587,39924
25749,22586,39908
25737,22586,39892
25702,22569,39858
25664,22540,39808
25635,22516,39767
25599,22497,39732
25555,22467,39682
25519,22435,39625
25493,22414,39585
25458,22393,39548
25410,22359,39492
25364,22317,39425
25326,22287,39374
25282,22265,39326
25230,22231,39258
25188,22195,39186
25158,22173,39131
25118,22149,39077
25068,22109,39003
25026,22067,38927
24990,22037,38868
24944,22011,38811
24895,21976,38740
24855,21940,38671
24816,21913,38621
24766,21885,38570
24716,21847,38505
24682,21815,38444
24652,21797,38399
24611,21776,38350
24573,21748,38291
24551,21728,38243
24524,21714,38207
24482,21688,38163
24444,21651,38104
24423,21624,38054
24399,21608,38016
24363,21585,37966
24330,21555,37903
24307,21532,37849
24276,21512,37802
24235,21482,37746
24205,21448,37685
24187,21427,37638
24162,21413,37601
24125,21388,37552
24093,21360,37495
24068,21341,37454
24033,21326,37420
23993,21305,37375
23965,21285,37329
23949,21280,37303
23923,21278,37285
23888,21260,37251
23864,21238,37209
23848,21225,37180
23824,21213,37152
23796,21190,37108
23780,21166,37063
23769,21154,37034
23745,21142,37004
23714,21118,36957
23695,21097,36914
23680,21087,36885
23651,21075,36852
23618,21050,36805
23594,21029,36763
23569,21019,36736
23535,21004,36701
23504,20976,36652
23489,20956,36615
23472,20949,36597
23437,20934,36568
23399,20905,36521
23371,20881,36476
23337,20866,36438
23294,20843,36389
23262,20814,36328
23245,20795,36279
23220,20784,36244
23182,20766,36200
23153,20742,36152
23142,20728,36123
23138,20725,36114
23142,20724,36111
23174,20734,36123
23237,20772,36178
23315,20830,36271
23403,20891,36382
23519,20965,36517
23661,21065,36696
23810,21182,36907
23962,21300,37129
24135,21428,37368
24324,21574,37637
24507,21724,37916
24684,21862,38180
24868,21992,38438
25054,22126,38709
25224,22254,38975
25380,22368,39219
25537,22477,39453
25683,22587,39686
25799,22682,39895
25898,22752,40068
25998,22816,40223
26088,22883,40369
26155,22936,40488
26216,22972,40578
26278,23005,40656
26321,23037,40725
26331,23051,40767
26330,23047,40777
26331,23040,40779
26318,23035,40780
26283,23017,40761
26247,22990,40723
26219,22966,40685
26180,22947,40651
26126,22919,40601
26078,22883,40539
26041,22855,40484
25997,22829,40432
25945,22794,40365
25905,22755,40297
25879,22729,40253
25845,22710,40222
25804,22683,40176
25775,22653,40125
25757,22635,40092
25729,22620,40064
25697,22596,40022
25682,22576,39978
25678,22570,39951
25660,22563,39927
25626,22539,39882
25591,22508,39828
25554,22484,39786
25506,22460,39744
25458,22428,39687
25423,22400,39632
25392,22385,39596
25347,22368,39559
25303,22340,39508
25276,22314,39465
25249,22297,39435
25212,22276,39400
25182,22253,39354
25167,22242,39321
25152,22244,39309
25126,22239,39293
25105,22220,39267
25103,22208,39251
25100,22208,39251
25088,22207,39249
25085,22201,39242
25094,22201,39246
25096,22203,39255
25084,22192,39249
25075,22173,39232
25076,22166,39226
25075,22166,39227
25066,22156,39215
25061,22143,39197
25065,22143,39195
25058,22146,39198
25038,22134,39182
25020,22115,39156
25007,22108,39144
24985,22104,39135
24953,22090,39108
24932,22076,39077
24919,22075,39059
24889,22069,39036
24845,22043,38986
24808,22009,38928
24776,21982,38882
24732,21953,38837
24681,21912,38774
24638,21871,38709
24599,21841,38655
24546,21810,38595
24489,21767,38516
24446,21727,38439
24403,21699,38376
24345,21666,38307
24290,21622,38229
24252,21586,38164
24212,21563,38117
24155,21534,38064
24098,21495,37997
24058,21465,37935
24019,21447,37883
23967,21422,37821
23920,21386,37745
23885,21353,37676
23845,21323,37618
23793,21285,37546
23743,21240,37464
23702,21203,37394
23655,21171,37334
23598,21132,37262
23546,21090,37186
23501,21059,37126
23449,21035,37076
23391,21000,37014
23344,20961,36950
23312,20936,36904
23278,20916,36868
23241,20887,36817
23219,20855,36762
23204,20836,36724
23174,20819,36692
23133,20793,36642
23101,20770,36590
23079,20759,36553
23050,20748,36518
23016,20724,36469
22989,20696,36416
22961,20676,36375
22922,20654,36331
22878,20620,36272
22847,20589,36218
22819,20571,36176
22780,20549,36128
22744,20518,36073
22722,20494,36030
22696,20479,36002
22660,20461,35967
22632,20438,35919
22617,20421,35877
22596,20412,35843
22556,20395,35799
22517,20368,35745
22489,20345,35700
22455,20328,35665
22411,20305,35621
22377,20278,35569
22354,20260,35530
22323,20242,35497
22280,20208,35451
22244,20167,35395
22215,20135,35350
22174,20105,35305
22125,20070,35247
22091,20040,35190
22071,20027,35155
22044,20021,35132
22011,20006,35100
21998,19995,35072
22009,20006,35075
22030,20031,35105
22062,20058,35144
22121,20095,35205
22204,20154,35305
22296,20221,35431
22403,20290,35568
22541,20376,35737
