green_channel,red_channel,ir_channel
32507,53158,43824
32565,53208,43898
32601,53231,43940
32617,53232,43952
32609,53214,43935
32581,53179,43890
32535,53128,43822
32476,53061,43732
32404,52984,43625
32321,52899,43507
32231,52808,43378
32138,52712,43243
32042,52612,43104
31945,52511,42967
31849,52411,42832
31755,52312,42701
31660,52217,42577
31570,52131,42461
31486,52054,42353
31409,51979,42250
31339,51909,42154
31279,51848,42064
31223,51793,41981
31167,51739,41902
31108,51683,41825
31049,51625,41746
30992,51568,41667
30936,51511,41586
30880,51454,41502
30827,51400,41422
30781,51350,41350
30741,51305,41287
30705,51263,41232
30673,51228,41184
30645,51200,41145
30620,51179,41116
30599,51166,41095
30585,51161,41085
30580,51163,41082
30579,51170,41087
30583,51179,41100
30594,51191,41118
30611,51208,41138
30630,51229,41162
30652,51252,41191
30675,51278,41226
30700,51304,41264
30726,51329,41299
30750,51352,41330
30770,51373,41357
30786,51389,41381
30799,51402,41401
30809,51413,41419
30816,51423,41434
30820,51428,41443
30821,51429,41445
30819,51423,41441
30811,51411,41430
30798,51391,41408
30776,51361,41372
30745,51323,41324
30706,51279,41267
30661,51233,41200
30614,51181,41122
30563,51122,41035
30508,51058,40944
30446,50992,40850
30376,50924,40749
30302,50854,40644
30225,50782,40536
30147,50708,40424
30072,50632,40310
30000,50558,40196
29929,50487,40083
29855,50414,39969
29781,50338,39853
29706,50259,39736
29629,50180,39622
29550,50102,39509
29470,50023,39400
29391,49945,39294
29314,49870,39191
29239,49797,39090
29169,49728,38990
29103,49665,38894
29042,49607,38802
28982,49550,38714
28920,49494,38630
28862,49439,38553
28810,49387,38482
28763,49337,38413
28719,49290,38344
28677,49245,38278
28636,49200,38216
28599,49156,38157
28564,49117,38101
28532,49082,38050
28506,49051,38003
28483,49026,37959
28461,49005,37917
28438,48985,37881
28414,48964,37847
28389,48942,37812
28362,48919,37775
28336,48899,37737
28312,48881,37697
28290,48863,37656
28269,48843,37615
28245,48818,37575
28216,48784,37534
28183,48745,37489
28147,48707,37443
28111,48669,37396
28077,48630,37349
28044,48590,37300
28013,48553,37248
27983,48517,37194
27950,48481,37138
27916,48444,37080
27879,48408,37019
27840,48369,36958
27799,48328,36895
27755,48284,36830
27708,48238,36766
27660,48195,36702
27615,48157,36640
27577,48126,36586
27552,48103,36550
27547,48095,36545
27567,48110,36579
27618,48160,36659
27704,48251,36788
27828,48385,36972
27989,48556,37211
28188,48763,37503
28422,49001,37841
28685,49263,38216
28970,49543,38616
29270,49837,39035
29580,50141,39466
29891,50450,39900
30197,50756,40330
30494,51053,40748
30776,51334,41146
31038,51595,41515
31278,51834,41852
31497,52050,42155
31692,52242,42422
31860,52407,42650
32001,52545,42842
32117,52652,42998
32206,52730,43119
32269,52781,43200
32305,52806,43243
32319,52812,43257
32313,52803,43244
32289,52777,43205
32248,52735,43142
32192,52676,43062
32124,52604,42967
32045,52518,42856
31958,52424,42730
31864,52324,42593
31761,52221,42451
31653,52115,42303
31545,52008,42154
31439,51902,42006
31336,51797,41861
31236,51694,41718
31140,51596,41582
31049,51506,41454
30962,51425,41333
30881,51348,41218
30805,51274,41110
30732,51201,41007
30657,51125,40906
30581,51048,40804
30505,50969,40700
30427,50890,40595
30349,50811,40490
30274,50735,40387
30204,50667,40291
30141,50606,40205
30085,50554,40127
30036,50509,40059
29992,50471,40001
29955,50439,39953
29929,50414,39914
29914,50399,39886
29911,50394,39871
29918,50398,39868
29933,50409,39877
29953,50425,39897
29973,50445,39925
29993,50466,39958
30016,50488,39994
30040,50512,40029
30064,50537,40067
30089,50561,40103
30112,50581,40135
30131,50599,40161
30144,50613,40179
30152,50620,40190
30154,50624,40194
30149,50624,40187
30140,50619,40170
30127,50608,40147
30110,50587,40119
30092,50562,40086
30072,50535,40047
30047,50504,40001
30011,50464,39944
29965,50416,39878
29911,50363,39806
29854,50308,39727
29795,50251,39642
29735,50189,39553
29670,50123,39460
29604,50053,39363
29536,49977,39264
29464,49897,39159
29388,49816,39051
29311,49736,38940
29234,49657,38828
29155,49578,38717
29076,49502,38608
28996,49426,38496
28915,49348,38382
28838,49270,38271
28765,49196,38165
28697,49125,38061
28632,49056,37956
28568,48988,37851
28504,48919,37746
28437,48848,37641
28369,48778,37539
28301,48709,37441
28234,48643,37347
28168,48577,37254
28102,48510,37162
28038,48444,37070
27976,48381,36980
27917,48322,36894
27861,48267,36815
27809,48218,36741
27760,48173,36672
27714,48135,36607
27668,48099,36542
27623,48062,36478
27577,48020,36412
27532,47975,36346
27489,47931,36282
27450,47890,36226
27415,47852,36175
27382,47819,36124
27352,47789,36075
27321,47757,36029
27289,47722,35985
27257,47684,35941
27229,47649,35900
27204,47617,35861
27180,47588,35824
27155,47562,35786
27131,47539,35748
27107,47517,35708
27082,47493,35663
27053,47465,35616
27021,47435,35568
26988,47407,35518
26956,47377,35469
26924,47346,35421
26892,47315,35375
26861,47285,35331
26827,47253,35283
26789,47216,35229
26750,47176,35170
26710,47133,35110
26667,47087,35047
26622,47039,34981
26574,46991,34911
26525,46944,34839
26477,46898,34766
26429,46851,34692
26385,46804,34625
26342,46759,34564
26301,46720,34512
26272,46694,34476
26263,46690,34469
26279,46714,34499
26327,46772,34574
26413,46869,34704
26542,47010,34897
26717,47195,35153
26936,47421,35472
27193,47685,35847
27483,47978,36268
27796,48293,36721
28123,48624,37196
28461,48964,37685
28802,49305,38178
29139,49643,38665
29465,49970,39137
29776,50284,39589
30072,50579,40012
30349,50851,40400
30604,51096,40753
30836,51317,41069
31045,51512,41349
31224,51678,41590
31375,51816,41791
31496,51926,41956
31589,52012,42086
31656,52071,42181
31698,52105,42238
31719,52120,42261
31721,52117,42255
31706,52095,42226
31676,52055,42175
31630,52003,42109
31569,51940,42027
31497,51865,41929
31417,51781,41818
31334,51693,41698
31248,51603,41573
31159,51514,41446
31067,51425,41320
30977,51340,41198
30890,51260,41081
30808,51183,40971
30731,51108,40870
30661,51040,40778
30598,50978,40690
30543,50923,40609
30492,50871,40537
30444,50823,40472
30397,50777,40406
30346,50729,40337
30294,50679,40265
30243,50627,40192
30191,50574,40118
30139,50519,40043
30088,50468,39971
30040,50420,39905
29996,50376,39843
29954,50335,39785
29916,50297,39730
29882,50262,39678
29852,50234,39633
29827,50212,39596
29810,50197,39570
29800,50189,39556
29797,50186,39548
29796,50184,39542
29796,50185,39540
29795,50187,39541
29797,50191,39545
29803,50196,39549
29811,50206,39554
29817,50218,39561
29826,50230,39570
29836,50238,39579
29844,50242,39585
29845,50242,39587
29842,50238,39587
29834,50233,39585
29824,50227,39580
29811,50217,39574
29796,50203,39565
29780,50183,39548
29764,50161,39523
29747,50137,39486
29725,50110,39441
29695,50077,39388
29661,50040,39329
29621,49997,39265
29574,49948,39193
29520,49892,39114
29461,49831,39028
29396,49769,38940
29328,49704,38849
29260,49635,38757
29194,49566,38662
29125,49495,38561
29054,49424,38456
28981,49352,38349
28908,49277,38245
28835,49201,38143
28762,49125,38042
28690,49050,37941
28616,48978,37838
28540,48903,37732
28459,48826,37622
28379,48749,37512
28303,48673,37405
28229,48596,37299
28160,48518,37195
28096,48443,37096
28036,48374,37001
27976,48309,36907
27912,48245,36812
27849,48183,36717
27789,48125,36624
27734,48070,36540
27686,48020,36464
27643,47975,36396
27600,47931,36331
27554,47887,36267
27504,47840,36202
27455,47794,36139
27407,47750,36078
27362,47711,36017
27320,47675,35958
27279,47639,35898
27237,47600,35836
27196,47560,35774
27157,47522,35713
27120,47490,35659
27087,47461,35612
27056,47431,35568
27026,47402,35527
26997,47373,35485
26967,47341,35442
26939,47306,35395
26911,47272,35349
26885,47240,35305
26859,47211,35265
26831,47182,35224
26801,47150,35183
26767,47117,35141
26732,47084,35097
26695,47050,35049
26658,47015,34996
26621,46981,34942
26581,46946,34885
26537,46911,34827
26492,46876,34770
26451,46841,34715
26409,46804,34659
26366,46763,34603
26326,46721,34546
26288,46678,34485
26251,46634,34423
26215,46588,34359
26178,46540,34293
26136,46489,34222
26090,46436,34147
26041,46382,34071
25992,46328,33994
25944,46276,33917
25899,46228,33842
25860,46187,33774
25829,46157,33722
25809,46142,33690
25808,46146,33687
25832,46176,33723
25889,46241,33809
25986,46345,33952
26128,46492,34159
26316,46684,34431
26547,46918,34764
26812,47186,35149
27103,47481,35571
27413,47794,36020
27735,48122,36489
28061,48459,36967
28386,48794,37444
28708,49123,37911
29020,49439,38360
29318,49736,38786
29595,50009,39183
29850,50257,39549
30079,50479,39882
30283,50675,40177
30461,50847,40433
30617,50995,40653
30753,51117,40837
30861,51215,40982
30939,51288,41087
30990,51335,41157
31018,51359,41196
31028,51362,41205
31021,51347,41186
30999,51318,41148
30962,51279,41094
30911,51229,41026
30851,51167,40941
30783,51095,40840
30707,51011,40726
30624,50919,40603
30535,50826,40477
30443,50736,40353
30349,50648,40231
30257,50561,40112
30168,50477,39999
30082,50397,39892
29999,50321,39791
29924,50249,39693
29860,50186,39600
29803,50130,39513
29749,50078,39431
29698,50026,39354
29647,49972,39280
29596,49914,39205
29543,49853,39127
29492,49791,39046
29442,49732,38964
29394,49677,38881
29345,49624,38799
29297,49573,38719
29248,49526,38646
29201,49484,38581
29157,49447,38524
29118,49417,38474
29084,49395,38432
29055,49376,38397
29032,49361,38369
29016,49348,38350
29006,49338,38340
28999,49333,38335
28999,49333,38333
29005,49335,38337
29013,49340,38346
29022,49346,38359
29031,49350,38371
29040,49353,38384
29048,49354,38395
29051,49353,38400
29051,49352,38400
29050,49353,38398
29048,49356,38393
29044,49357,38387
29037,49352,38373
29026,49340,38351
29009,49323,38322
28986,49300,38286
28961,49273,38247
28933,49245,38204
28902,49215,38157
28869,49180,38103
28830,49138,38040
28785,49088,37969
28734,49033,37892
28678,48971,37809
28617,48906,37722
28554,48840,37632
28487,48774,37540
28416,48704,37442
28343,48630,37338
28271,48556,37229
28200,48483,37123
28131,48411,37018
28062,48339,36916
27995,48266,36815
27927,48193,36717
27854,48118,36617
27780,48044,36513
27709,47972,36410
27641,47903,36311
27573,47835,36213
27507,47767,36116
27446,47703,36021
27388,47643,35929
27331,47586,35840
27273,47528,35752
27218,47471,35668
27163,47416,35587
27106,47362,35509
27051,47309,35433
26996,47257,35357
26942,47207,35281
26889,47157,35205
26840,47110,35131
26795,47064,35060
26749,47018,34992
26703,46971,34925
26658,46925,34861
26615,46883,34800
26573,46844,34742
26531,46807,34688
26493,46770,34638
26461,46734,34588
26433,46701,34540
26405,46673,34493
26377,46648,34450
26350,46624,34410
26322,46597,34373
26292,46564,34335
26262,46533,34294
26232,46504,34252
26202,46476,34210
26171,46450,34169
26139,46425,34129
26109,46402,34089
26080,46377,34046
26049,46348,34000
26018,46316,33953
25986,46281,33907
25952,46245,33860
25918,46207,33811
25884,46168,33761
25849,46128,33707
25814,46087,33650
25779,46048,33590
25742,46009,33529
25703,45969,33468
25663,45927,33405
25621,45884,33342
25579,45840,33279
25535,45795,33215
25489,45750,33152
25441,45705,33091
25393,45662,33028
25346,45617,32961
25298,45570,32887
25249,45522,32810
25202,45477,32733
25157,45437,32663
25115,45400,32602
25080,45370,32555
25058,45354,32529
25058,45361,32536
25089,45396,32584
25156,45466,32683
25262,45574,32839
25407,45718,33052
25590,45901,33317
25808,46121,33631
26054,46375,33989
26322,46654,34384
26606,46947,34803
26901,47248,35237
27200,47550,35675
27496,47845,36106
27781,48128,36524
28052,48399,36923
28303,48652,37294
28533,48883,37632
28743,49091,37936
28934,49275,38207
29101,49437,38443
29245,49574,38639
29365,49684,38797
29461,49767,38920
29531,49824,39010
29577,49859,39069
29601,49875,39098
29604,49876,39101
29590,49859,39082
29561,49825,39043
29519,49775,38984
29467,49712,38909
29411,49641,38823
29349,49561,38728
29283,49479,38627
29215,49397,38522
29142,49316,38409
29063,49233,38288
28980,49148,38164
28894,49064,38038
28809,48983,37914
28727,48906,37794
28648,48832,37680
28573,48760,37575
28501,48691,37475
28434,48624,37381
28374,48561,37290
28318,48498,37199
28263,48436,37109
28209,48377,37025
28154,48324,36948
28099,48277,36875
28045,48231,36802
27993,48184,36729
27945,48140,36659
27901,48097,36594
27861,48058,36535
27828,48026,36484
27805,48003,36446
27790,47989,36421
27779,47980,36405
27770,47976,36398
27769,47979,36400
27773,47988,36408
27781,48002,36424
27795,48018,36450
27817,48038,36486
27845,48064,36529
27876,48093,36573
27909,48125,36618
27942,48159,36662
27975,48195,36705
28006,48227,36746
28037,48253,36782
28064,48274,36810
28086,48288,36831
28102,48298,36846
28113,48304,36855
28117,48303,36854
28115,48298,36844
28106,48288,36824
28093,48275,36798
28074,48257,36762
28048,48229,36718
28014,48195,36666
27972,48155,36606
27925,48111,36538
27875,48064,36462
27824,48013,36384
27772,47961,36306
27720,47909,36228
27664,47853,36146
27604,47795,36062
27541,47734,35976
27478,47671,35887
27414,47606,35794
27350,47539,35697
27285,47470,35599
27220,47401,35502
27153,47334,35407
27084,47267,35312
27014,47201,35218
26948,47138,35123
26886,47076,35025
26829,47016,34929
26774,46960,34837
26719,46904,34749
26665,46849,34663
26612,46791,34577
26560,46732,34492
26505,46673,34409
26447,46613,34327
26391,46555,34248
26341,46503,34176
26296,46456,34108
26254,46411,34042
26213,46367,33980
26173,46329,33922
26135,46295,33868
26099,46263,33816
26066,46235,33767
26035,46211,33722
26009,46188,33682
25984,46162,33643
25956,46133,33602
25925,46102,33559
25894,46069,33516
25860,46036,33472
25827,46005,33429
25800,45978,33389
25776,45952,33352
25751,45928,33316
25726,45904,33281
25700,45879,33245
25672,45850,33205
25645,45819,33163
25620,45787,33119
25592,45755,33071
25562,45723,33021
25530,45689,32972
25495,45655,32922
25459,45621,32868
25424,45586,32813
25391,45554,32759
25357,45525,32708
25320,45493,32657
25283,45461,32605
25245,45429,32554
25207,45398,32504
25172,45369,32456
25146,45348,32420
25135,45341,32407
25146,45355,32427
25182,45394,32479
25247,45461,32570
25343,45561,32707
25473,45698,32896
25639,45871,33135
25837,46077,33421
26063,46309,33752
26312,46563,34117
26576,46830,34506
26848,47106,34908
27125,47388,35317
27405,47669,35726
27682,47941,36126
27949,48201,36507
28198,48442,36864
28424,48661,37191
28626,48854,37483
28802,49025,37739
28954,49174,37960
29086,49305,38152
29197,49413,38313
29288,49498,38444
29359,49561,38546
29412,49605,38616
29444,49627,38655
29459,49631,38666
29456,49619,38652
29436,49592,38615
29402,49549,38558
29357,49494,38486
29302,49431,38402
29239,49362,38309
29171,49289,38208
29102,49215,38102
29034,49140,37994
28965,49062,37883
28895,48984,37769
28822,48904,37653
28747,48824,37538
28671,48744,37426
28597,48668,37318
28530,48597,37218
28467,48533,37129
28405,48474,37046
28344,48416,36965
28285,48360,36883
28228,48304,36799
28174,48249,36714
28121,48194,36629
28067,48139,36542
28014,48084,36457
27961,48031,36375
27909,47979,36294
27859,47931,36219
27814,47885,36152
27775,47846,36095
27744,47817,36050
27723,47797,36019
27708,47787,35998
27698,47782,35983
27691,47780,35974
27691,47781,35974
27697,47784,35984
27709,47794,36002
27727,47810,36028
27748,47831,36059
27772,47853,36092
27796,47875,36125
27820,47898,36155
27842,47922,36184
27864,47946,36213
27884,47967,36241
27902,47985,36265
27918,48000,36286
27931,48010,36300
27937,48011,36304
27936,48006,36301
27932,48000,36292
27925,47990,36276
27911,47972,36251
27891,47949,36218
27864,47921,36178
27833,47891,36133
27796,47855,36081
27755,47814,36024
27711,47772,35964
27663,47726,35897
27612,47677,35823
27562,47625,35747
27510,47570,35669
27454,47511,35586
27396,47450,35502
27338,47388,35418
27281,47324,35332
27222,47256,35240
27158,47187,35141
27091,47118,35039
27022,47050,34935
26951,46982,34830
26880,46913,34726
26809,46846,34625
26739,46779,34529
26669,46714,34435
26601,46650,34341
26539,46590,34251
26479,46529,34163
26420,46466,34075
26363,46404,33989
26308,46346,33905
26257,46291,33824
26206,46235,33743
26154,46181,33664
26100,46130,33588
26048,46081,33513
25995,46031,33440
25945,45984,33368
25897,45940,33301
25853,45898,33238
25813,45857,33177
25776,45820,33117
25740,45786,33058
25704,45754,33001
25670,45720,32947
25636,45685,32897
25602,45651,32851
25569,45618,32808
25537,45586,32768
25507,45555,32727
25480,45523,32685
25453,45491,32643
25423,45459,32601
25395,45432,32562
25369,45408,32526
25343,45386,32492
25317,45363,32458
25292,45339,32421
25268,45317,32384
25245,45297,32347
25220,45277,32308
25196,45255,32268
25172,45232,32227
25144,45202,32182
25110,45167,32135
25073,45132,32089
25035,45097,32045
24997,45061,31997
24961,45021,31945
24926,44981,31889
24892,44943,31834
24858,44907,31777
24823,44870,31720
24784,44834,31664
24741,44797,31605
24698,44756,31539
24654,44714,31472
24615,44676,31413
24584,44649,31365
24561,44632,31329
24549,44629,31313
24555,44644,31328
24587,44680,31382
24650,44746,31481
24751,44852,31635
24893,45004,31848
25075,45196,32120
25296,45426,32449
25550,45688,32828
25833,45975,33248
26137,46280,33698
26454,46599,34167
26776,46925,34645
27097,47250,35121
27413,47565,35584
27716,47867,36026
28003,48150,36442
28267,48411,36828
28506,48647,37177
28720,48859,37490
28906,49045,37767
29065,49204,38007
29202,49337,38209
29319,49443,38375
29416,49524,38504
29494,49583,38598
29551,49621,38660
29588,49640,38691
29606,49639,38696
29606,49622,38680
29591,49591,38643
29562,49550,38590
29522,49502,38525
29475,49446,38447
29420,49384,38359
29360,49318,38265
29294,49251,38168
29224,49183,38070
29150,49116,37972
29078,49050,37874
29011,48985,37781
28950,48923,37694
28894,48863,37611
28845,48810,37531
28801,48763,37457
28762,48723,37392
28729,48688,37334
28701,48655,37283
28676,48625,37238
28649,48593,37195
28620,48559,37152
28588,48525,37109
28556,48491,37063
28524,48457,37017
28493,48424,36969
28462,48394,36921
28432,48364,36876
28403,48335,36833
28374,48306,36792
28347,48280,36756
28324,48259,36728
28306,48242,36708
28296,48229,36694
28291,48223,36685
28288,48222,36679
28286,48223,36677
28286,48225,36678
28289,48231,36684
28296,48239,36697
28306,48250,36718
28318,48264,36745
28331,48280,36773
28345,48298,36796
28358,48316,36817
28375,48336,36839
28393,48356,36858
28409,48372,36874
28420,48381,36886
28427,48384,36892
28432,48385,36892
28431,48383,36883
28422,48375,36867
28408,48362,36844
28388,48344,36816
28363,48324,36785
28335,48297,36749
28303,48263,36708
28268,48223,36662
28230,48181,36608
28190,48133,36545
28145,48080,36478
28098,48027,36407
28046,47973,36330
27992,47916,36250
27936,47858,36167
27878,47799,36083
27817,47738,35995
27752,47678,35901
27686,47622,35806
27620,47567,35714
27556,47510,35622
27491,47447,35530
27425,47382,35437
27363,47316,35343
27303,47250,35251
27247,47187,35161
27191,47124,35073
27133,47063,34987
27076,47001,34901
27021,46940,34814
26969,46887,34728
26918,46839,34643
26867,46791,34562
26816,46741,34486
26761,46691,34411
26703,46642,34337
26646,46591,34263
26594,46543,34192
26549,46503,34124
26507,46465,34062
26465,46424,34001
26422,46379,33940
26379,46336,33878
26337,46293,33816
26296,46250,33753
26257,46208,33693
26220,46167,33639
26184,46128,33587
26149,46092,33537
26119,46060,33489
26091,46033,33443
26063,46006,33398
26036,45978,33354
26011,45951,33313
25986,45926,33275
25959,45903,33235
25930,45880,33193
25901,45856,33153
25872,45832,33115
25842,45806,33077
25812,45776,33038
25781,45745,32997
25748,45712,32954
25717,45679,32908
25686,45645,32860
25654,45606,32811
25620,45564,32760
25582,45523,32709
25540,45483,32659
25495,45444,32608
25449,45406,32555
25401,45368,32497
25352,45329,32437
25303,45292,32377
25256,45255,32313
25211,45217,32243
25169,45176,32172
25127,45135,32101
25083,45090,32027
25037,45040,31954
24995,44990,31886
24962,44947,31830
24942,44921,31796
24940,44915,31790
24962,44939,31823
25016,44997,31903
25106,45092,32039
25235,45227,32231
25406,45404,32482
25617,45620,32790
25859,45872,33148
26129,46152,33549
26421,46455,33988
26729,46770,34448
27043,47088,34917
27356,47403,35386
27661,47713,35845
27954,48010,36286
28231,48289,36700
28485,48547,37081
28716,48781,37427
28924,48988,37734
29107,49165,38001
29263,49318,38232
29395,49445,38428
29500,49544,38585
29582,49616,38704
29643,49666,38787
29685,49698,38839
29709,49712,38863
29714,49707,38864
29702,49684,38842
29676,49648,38799
29636,49600,38734
29585,49542,38652
29526,49477,38561
29458,49407,38460
29384,49330,38349
29306,49248,38229
29227,49166,38106
29149,49084,37986
29074,49004,37872
29004,48930,37762
28938,48862,37661
28878,48800,37567
28820,48740,37481
28763,48682,37401
28708,48627,37327
28654,48573,37257
28603,48521,37189
28556,48472,37124
28513,48427,37061
28470,48383,36998
28427,48339,36933
28384,48293,36867
28344,48249,36803
28307,48208,36743
28274,48171,36685
28244,48136,36634
28215,48105,36590
28187,48079,36551
28163,48057,36517
28142,48041,36488
28128,48032,36467
28119,48029,36452
28113,48029,36442
28108,48033,36440
28106,48038,36447
28109,48045,36460
28115,48053,36476
28125,48067,36499
28138,48087,36528
28155,48110,36560
28173,48132,36590
28191,48154,36619
28210,48179,36645
28229,48205,36670
28247,48225,36691
28263,48238,36708
28275,48244,36723
28280,48244,36732
28278,48240,36732
28274,48234,36724
28268,48224,36709
28256,48209,36689
28238,48191,36665
28214,48166,36635
28185,48134,36597
28151,48093,36549
28110,48047,36490
28066,47999,36426
28020,47947,36360
27971,47893,36291
27917,47837,36218
27859,47780,36139
27795,47722,36055
27731,47665,35967
27667,47607,35874
27606,47548,35781
27546,47488,35687
27487,47429,35590
27427,47368,35492
27363,47305,35395
27297,47237,35296
27230,47167,35197
27163,47097,35097
27096,47028,34998
27029,46962,34903
26963,46897,34809
26899,46834,34715
26838,46774,34623
26780,46714,34534
26724,46655,34446
26671,46597,34363
26619,46544,34286
26569,46495,34212
26520,46447,34140
26471,46402,34070
26423,46359,34003
26376,46316,33938
26331,46274,33873
26290,46234,33813
26251,46198,33757
26212,46161,33704
26172,46126,33655
26132,46092,33608
26093,46058,33567
26059,46026,33528
26030,45997,33490
26005,45972,33458
25982,45951,33432
25959,45929,33404
25935,45905,33372
25909,45878,33337
25880,45851,33301
25849,45825,33262
25821,45800,33222
25795,45775,33181
25770,45749,33139
25744,45723,33092
25715,45697,33046
25686,45672,33002
25656,45646,32957
25625,45616,32906
25594,45584,32851
25563,45553,32797
25530,45520,32745
25496,45487,32696
25463,45453,32650
25425,45418,32602
25382,45379,32548
25337,45335,32491
25294,45294,32437
25258,45260,32393
25234,45236,32363
25228,45230,32356
25248,45246,32380
25296,45292,32446
25375,45371,32559
25487,45486,32722
25633,45638,32936
25813,45828,33205
26022,46051,33522
26257,46300,33875
26511,46570,34259
26781,46851,34664
27059,47137,35080
27341,47423,35500
27619,47705,35915
27885,47975,36316
28133,48226,36691
28362,48455,37036
28571,48660,37349
28757,48839,37625
28917,48994,37866
29054,49123,38071
29169,49230,38238
29260,49314,38370
29328,49373,38468
29374,49410,38534
29401,49428,38571
29407,49429,38578
29393,49413,38557
29364,49381,38512
29323,49335,38448
29273,49278,38365
29216,49211,38267
29153,49136,38159
29083,49057,38047
29008,48974,37930
28927,48888,37806
28841,48800,37680
28753,48710,37556
28666,48621,37432
28582,48536,37308
28502,48455,37189
28426,48378,37078
28354,48304,36972
28285,48232,36867
28219,48163,36766
28158,48097,36668
28098,48034,36571
28038,47972,36475
27980,47913,36384
27922,47858,36296
27866,47803,36210
27811,47749,36128
27760,47700,36050
27710,47655,35979
27661,47614,35911
27616,47575,35848
27577,47540,35795
27547,47511,35753
27526,47489,35720
27514,47476,35696
27512,47474,35686
27519,47482,35690
27531,47495,35704
27547,47513,35728
27566,47536,35762
27588,47561,35804
27612,47585,35848
27641,47610,35894
27674,47640,35941
27708,47674,35989
27742,47709,36035
27773,47744,36081
27799,47777,36127
27821,47807,36170
27840,47831,36207
27857,47849,36238
27871,47863,36263
27881,47872,36282
27886,47876,36292
27888,47875,36292
27886,47868,36282
27877,47853,36263
27857,47830,36234
27830,47799,36193
27795,47761,36141
27754,47715,36077
27707,47661,36004
27655,47601,35927
27598,47540,35846
27539,47481,35764
27481,47424,35682
27421,47368,35600
27358,47312,35515
27295,47254,35426
27232,47194,35334
27170,47135,35245
27111,47076,35157
27052,47014,35066
26990,46951,34972
26927,46887,34881
26862,46823,34789
26795,46757,34692
26727,46687,34593
26661,46618,34494
26598,46549,34397
26537,46482,34302
26477,46416,34210
26419,46355,34122
26362,46298,34035
26305,46242,33950
26248,46186,33869
26193,46135,33793
26143,46089,33718
26097,46045,33647
26055,46006,33581
26015,45973,33521
25975,45942,33463
25935,45907,33403
25897,45869,33346
25863,45832,33293
25832,45797,33244
25799,45762,33198
25768,45730,33156
25740,45700,33119
25712,45673,33082
25686,45645,33046
25663,45617,33012
25641,45590,32983
25617,45564,32954
25591,45540,32926
25563,45519,32897
25533,45498,32865
25504,45474,32826
25473,45449,32782
25442,45423,32738
25414,45399,32697
25390,45373,32657
25366,45348,32616
25341,45325,32572
25310,45300,32524
25275,45271,32470
25240,45240,32414
25208,45209,32360
25176,45176,32310
25146,45143,32263
25116,45111,32219
25088,45085,32180
25070,45068,32155
25068,45068,32153
25088,45090,32185
25136,45143,32261
25214,45231,32386
25328,45354,32562
25479,45514,32796
25669,45711,33087
25894,45941,33430
26147,46197,33814
26423,46475,34230
26717,46770,34669
27021,47078,35119
27329,47390,35573
27633,47699,36021
27929,47998,36456
28208,48277,36869
28468,48533,37254
28704,48765,37605
28913,48973,37920
29098,49158,38197
29260,49318,38431
29397,49451,38624
29510,49556,38780
29596,49633,38900
29657,49684,38985
29695,49710,39039
29715,49715,39063
29715,49703,39058
29700,49679,39029
29670,49641,38981
29627,49591,38917
29575,49532,38840
29515,49465,38749
29449,49395,38648
29377,49319,38539
29298,49239,38419
29216,49156,38292
29135,49075,38167
29053,48996,38045
28971,48917,37926
28889,48837,37807
28810,48760,37690
28736,48686,37579
28665,48615,37473
28597,48548,37375
28533,48485,37286
28474,48426,37203
28419,48370,37124
28365,48316,37049
28312,48263,36978
28257,48207,36905
28201,48147,36830
28148,48088,36755
28097,48035,36682
28049,47989,36614
28003,47949,36552
27962,47915,36496
27927,47886,36445
27900,47862,36404
27881,47843,36372
27873,47831,36353
27873,47827,36348
27881,47831,36355
27896,47843,36375
27916,47862,36404
27937,47885,36441
27959,47913,36483
27982,47944,36527
28005,47976,36571
28031,48010,36615
28057,48042,36659
28082,48071,36702
28106,48097,36741
28128,48119,36778
28148,48138,36810
28165,48153,36833
28177,48163,36849
28184,48167,36856
28185,48163,36854
28181,48156,36847
28173,48145,36830
28158,48127,36801
28137,48100,36763
28110,48066,36716
28077,48027,36662
28038,47983,36604
27993,47935,36542
27944,47887,36478
27892,47842,36410
27838,47793,36338
27780,47739,36257
27719,47679,36170
27655,47615,36080
27592,47550,35990
27529,47485,35900
27465,47420,35810
27400,47356,35720
27333,47287,35631
27267,47217,35541
27200,47148,35449
27132,47081,35352
27062,47014,35249
26992,46946,35144
26923,46877,35044
26855,46809,34947
26789,46740,34851
26727,46674,34759
26665,46611,34673
26602,46551,34588
26539,46493,34502
26478,46436,34415
26422,46383,34332
26370,46336,34255
26320,46290,34181
26271,46246,34108
26221,46203,34035
26171,46159,33963
26120,46114,33893
26070,46071,33825
26021,46031,33762
25975,45991,33703
25933,45950,33648
25895,45910,33596
25862,45875,33549
25834,45845,33506
25808,45816,33463
25784,45783,33417
25759,45749,33370
25732,45717,33322
25703,45686,33274
25671,45657,33228
25641,45630,33187
25614,45604,33147
25590,45580,33110
25566,45557,33077
25542,45532,33048
25514,45505,33016
25484,45476,32979
25452,45447,32938
25419,45417,32894
25389,45387,32848
25357,45357,32800
25324,45331,32753
25292,45306,32709
25262,45281,32667
25231,45253,32624
25200,45221,32580
25167,45184,32533
25133,45145,32482
25102,45107,32427
25072,45072,32375
25041,45038,32321
25006,45002,32265
24968,44965,32206
24927,44928,32148
24885,44889,32089
24848,44853,32034
24821,44827,31991
24811,44820,31972
24824,44836,31988
24863,44882,32050
24935,44965,32166
25045,45090,32341
25198,45255,32579
25395,45460,32877
25633,45704,33234
25905,45980,33642
26207,46284,34089
26529,46607,34566
26864,46941,35062
27202,47279,35566
27538,47614,36065
27866,47939,36551
28181,48250,37017
28479,48545,37457
28758,48820,37866
29014,49072,38238
29244,49296,38573
29447,49495,38870
29622,49666,39124
29767,49808,39336
29884,49921,39505
29972,50004,39632
30030,50059,39720
30063,50087,39775
30075,50094,39799
30070,50084,39796
30050,50060,39771
30018,50022,39726
29975,49974,39662
29925,49918,39585
29867,49854,39498
29801,49785,39404
29731,49714,39306
29657,49642,39204
29582,49566,39097
29507,49488,38990
29432,49411,38883
29360,49336,38779
29294,49265,38680
29234,49201,38588
29179,49146,38506
29126,49096,38432
29075,49047,38361
29028,49001,38293
28983,48960,38231
28942,48924,38173
28905,48889,38117
28871,48857,38065
28836,48827,38015
28799,48794,37961
28760,48759,37905
28720,48725,37849
28682,48690,37794
28645,48655,37740
28609,48621,37689
28577,48589,37644
28547,48563,37605
28519,48537,37570
28495,48512,37539
28475,48492,37516
28461,48478,37501
28453,48470,37492
28450,48469,37490
28454,48473,37494
28462,48481,37503
28472,48492,37516
28484,48505,37532
28500,48521,37550
28518,48537,37572
28534,48553,37596
28548,48567,37621
28558,48578,37646
28563,48583,37667
28562,48582,37679
28558,48575,37683
28551,48567,37682
28541,48557,37674
28526,48541,37659
28506,48521,37637
28482,48499,37610
28456,48472,37578
28427,48440,37539
28395,48401,37492
28360,48362,37441
28322,48321,37387
28283,48278,37329
28240,48231,37264
28192,48181,37189
28136,48128,37103
28074,48074,37011
28009,48016,36917
27941,47953,36820
27869,47887,36720
27795,47818,36618
27721,47745,36516
27648,47672,36413
27575,47597,36311
27501,47520,36208
27429,47443,36105
27359,47367,36001
27291,47294,35899
27225,47222,35800
27161,47151,35705
27096,47082,35611
27027,47010,35514
26952,46940,35416
26878,46874,35317
26809,46815,35221
26746,46761,35130
26690,46712,35045
26640,46665,34965
26593,46620,34890
26547,46576,34815
26502,46533,34743
26458,46492,34674
26414,46453,34608
26369,46413,34543
26324,46372,34480
26283,46331,34419
26245,46290,34360
26209,46249,34301
26171,46209,34246
26129,46173,34192
26085,46136,34138
26041,46098,34081
25999,46062,34022
25961,46030,33965
25927,46002,33914
25896,45977,33869
25867,45954,33826
25839,45932,33787
25811,45906,33750
25780,45875,33712
25749,45842,33674
25720,45810,33638
25691,45780,33601
25664,45751,33561
25634,45723,33518
25603,45696,33471
25570,45666,33422
25536,45632,33372
25498,45596,33322
25462,45558,33274
25427,45517,33226
25392,45475,33176
25354,45433,33123
25315,45393,33068
25273,45354,33010
25231,45313,32951
25188,45273,32893
25146,45233,32835
25103,45191,32775
25059,45149,32712
25012,45105,32645
24963,45058,32573
24911,45007,32500
24860,44957,32429
24814,44912,32363
24775,44874,32309
24751,44851,32275
24749,44851,32276
24778,44883,32321
24840,44953,32417
24942,45064,32568
25087,45219,32780
25273,45415,33055
25497,45648,33387
25755,45914,33771
26041,46208,34199
26348,46521,34659
26669,46844,35137
26997,47172,35620
27325,47502,36101
27646,47826,36570
27955,48136,37021
28247,48427,37448
28516,48697,37849
28759,48939,38216
28974,49150,38541
29163,49331,38823
29326,49486,39062
29461,49614,39261
29568,49714,39418
29649,49789,39538
29706,49840,39625
29738,49866,39676
29748,49871,39694
29739,49860,39684
29715,49836,39648
29678,49800,39590
29627,49750,39512
29563,49688,39419
29489,49615,39314
29407,49535,39202
29318,49447,39081
29224,49355,38955
29133,49265,38830
29042,49174,38705
28954,49084,38580
28871,49001,38462
28792,48925,38350
28713,48850,38242
28638,48777,38138
28570,48707,38039
28509,48641,37946
28453,48580,37859
28402,48521,37777
28352,48466,37701
28304,48416,37628
28256,48367,37557
28209,48320,37485
28163,48274,37414
28116,48227,37344
28068,48178,37275
28023,48133,37212
27982,48096,37156
27948,48065,37109
27919,48038,37069
27895,48020,37040
27878,48013,37023
27869,48017,37016
27869,48027,37019
27877,48040,37032
27890,48054,37052
27903,48071,37076
27919,48091,37103
27939,48117,37136
27962,48147,37176
27988,48179,37221
28015,48207,37265
28044,48233,37308
28072,48259,37351
28099,48283,37395
28125,48304,37439
28149,48321,37480
28169,48336,37516
28187,48348,37542
28203,48355,37557
28214,48359,37564
28217,48360,37564
28212,48355,37555
28199,48343,37535
28178,48325,37506
28151,48303,37470
28120,48277,37426
28084,48244,37373
28046,48203,37313
28003,48158,37248
27952,48108,37177
27895,48053,37101
27834,47995,37021
27772,47934,36933
27711,47868,36839
27650,47801,36742
27590,47736,36644
27529,47672,36547
27466,47606,36451
27402,47539,36358
27340,47473,36267
27277,47409,36173
27210,47341,36074
27141,47272,35972
27074,47205,35874
27009,47142,35779
26945,47083,35686
26883,47026,35595
26824,46971,35505
26765,46916,35417
26709,46860,35329
26653,46803,35242
26598,46745,35158
26541,46689,35077
26486,46636,35002
26434,46585,34931
26382,46535,34865
26332,46486,34803
26287,46437,34745
26247,46394,34689
26212,46360,34639
26182,46333,34594
26154,46308,34549
26123,46278,34505
26088,46245,34462
26051,46210,34421
26015,46176,34380
25981,46145,34341
25948,46118,34303
25917,46093,34262
25889,46070,34220
25861,46048,34177
25832,46027,34133
25802,46004,34087
25773,45979,34038
25748,45953,33993
25727,45926,33950
25705,45897,33909
25682,45867,33870
25656,45834,33826
25623,45799,33777
25586,45765,33725
25547,45733,33673
25510,45703,33620
25475,45672,33565
25439,45639,33510
25404,45607,33458
25373,45582,33419
25354,45569,33398
25353,45574,33403
25375,45605,33443
25429,45668,33530
25520,45766,33670
25649,45900,33865
25817,46070,34115
26021,46276,34417
26254,46513,34762
26510,46772,35143
26786,47049,35551
27077,47338,35978
27374,47634,36414
27670,47929,36849
27960,48218,37275
28240,48500,37685
28503,48765,38070
28743,49008,38423
28962,49226,38741
29160,49417,39021
29335,49579,39265
29483,49714,39473
29603,49825,39643
29695,49913,39777
29759,49976,39877
29802,50016,39944
29829,50036,39984
29838,50038,39995
29825,50021,39978
29794,49985,39935
29747,49934,39868
29687,49869,39783
29615,49792,39680
29535,49708,39565
29450,49618,39442
29362,49526,39315
29275,49432,39185
29188,49339,39055
29100,49248,38927
29013,49160,38800
28928,49073,38678
28844,48990,38560
28761,48911,38447
28680,48838,38339
28600,48765,38234
28522,48692,38134
28447,48620,38038
28374,48550,37944
28304,48483,37849
28236,48418,37753
28173,48354,37658
28112,48290,37565
28052,48230,37475
27994,48175,37389
27940,48125,37309
27891,48077,37233
27847,48035,37163
27811,48001,37103
27785,47978,37056
27769,47964,37021
27763,47956,37000
27765,47954,36994
27772,47959,37000
27782,47968,37016
27796,47982,37040
27816,48004,37074
27843,48034,37116
27874,48064,37161
27904,48093,37207
27932,48122,37254
27959,48152,37304
27986,48184,37351
28012,48215,37394
28038,48247,37439
28062,48277,37481
28082,48301,37516
28097,48319,37543
28110,48333,37563
28118,48341,37572
28118,48338,37568
28110,48324,37551
28096,48305,37527
28077,48285,37497
28052,48259,37459
28020,48225,37414
27982,48185,37360
27937,48140,37298
27887,48091,37227
27835,48036,37148
27784,47978,37065
27733,47918,36979
27675,47853,36887
27611,47784,36787
27542,47712,36683
27471,47640,36578
27399,47568,36472
27328,47498,36368
27259,47429,36266
27191,47360,36165
27123,47290,36064
27053,47223,35962
26982,47157,35864
26911,47090,35767
26842,47023,35668
26776,46960,35575
26713,46902,35486
26651,46846,35400
26593,46791,35317
26538,46738,35238
26486,46688,35162
26434,46638,35086
26382,46585,35010
26330,46530,34933
26280,46476,34857
26229,46422,34782
26182,46370,34709
26139,46323,34637
26095,46277,34568
26050,46232,34503
26005,46188,34443
25964,46148,34388
25927,46114,34335
25892,46084,34284
25861,46054,34234
25830,46026,34187
25798,46000,34143
25767,45977,34100
25739,45955,34059
25711,45931,34018
25681,45905,33975
25653,45880,33931
25628,45856,33891
25606,45836,33857
25584,45818,33826
25560,45798,33795
25535,45775,33766
25512,45751,33740
25489,45725,33713
25468,45698,33682
25448,45672,33649
25427,45648,33616
25400,45622,33580
25371,45594,33540
25340,45567,33496
25309,45540,33448
25278,45512,33398
25247,45480,33344
25217,45446,33292
25186,45411,33243
25151,45375,33193
25113,45338,33140
25074,45301,33084
25032,45262,33025
24988,45221,32963
24945,45180,32899
24906,45141,32839
24869,45104,32785
24838,45074,32740
24819,45056,32713
24822,45060,32718
24853,45093,32762
24919,45160,32855
25025,45268,33010
25174,45423,33230
25365,45621,33514
25595,45858,33857
25857,46132,34252
26148,46437,34692
26461,46764,35166
26792,47107,35661
27136,47459,36169
27484,47813,36679
27826,48160,37177
28155,48489,37654
28466,48797,38104
28756,49080,38520
29020,49335,38896
29254,49561,39229
29461,49760,39521
29643,49932,39771
29799,50076,39979
29928,50192,40149
30026,50280,40281
30095,50342,40380
30140,50380,40446
30163,50396,40481
30166,50394,40492
30153,50376,40481
30126,50344,40448
30087,50300,40394
30036,50246,40324
29976,50184,40241
29908,50114,40145
29833,50038,40042
29756,49958,39934
29676,49879,39824
29595,49800,39713
29516,49724,39606
29441,49650,39503
29371,49579,39405
29305,49510,39313
29245,49444,39224
29190,49382,39142
29139,49326,39064
29093,49278,38990
29050,49235,38922
29010,49197,38862
28970,49161,38809
28931,49126,38759
28894,49093,38708
28856,49058,38657
28816,49021,38604
28775,48980,38547
28732,48938,38491
28690,48898,38438
28653,48860,38390
28621,48827,38345
28594,48799,38307
28572,48776,38278
28551,48756,38254
28531,48741,38236
28517,48733,38227
28512,48733,38228
28513,48742,38236
28521,48757,38248
28535,48776,38262
28552,48795,38278
28571,48810,38296
28589,48823,38316
28608,48837,38339
28628,48857,38366
28648,48878,38394
28667,48897,38425
28686,48913,38455
28702,48927,38481
28715,48936,38499
28722,48941,38508
28723,48946,38511
28718,48948,38506
28709,48945,38495
28696,48937,38476
28677,48921,38447
28651,48896,38411
28618,48861,38366
28578,48818,38312
28533,48770,38249
28484,48719,38179
28433,48661,38100
28381,48601,38015
28326,48539,37924
28267,48475,37830
28205,48407,37732
28141,48337,37635
28077,48268,37542
28013,48200,37450
27947,48131,37355
27879,48061,37257
27806,47991,37162
27732,47920,37067
27661,47850,36970
27596,47783,36873
27535,47718,36774
27477,47654,36677
27419,47589,36580
27357,47524,36484
27295,47459,36390
27235,47398,36301
27177,47341,36215
27119,47288,36132
27065,47240,36052
27014,47193,35973
26966,47147,35898
26918,47102,35826
26869,47059,35756
26821,47016,35686
26775,46974,35619
26730,46936,35558
26686,46899,35502
26643,46861,35445
26602,46824,35389
26566,46788,35336
26532,46752,35284
26500,46716,35230
26468,46682,35176
26436,46651,35122
26404,46620,35070
26373,46586,35019
26344,46551,34970
26317,46520,34925
26290,46492,34884
26261,46468,34844
26231,46446,34806
26201,46427,34768
26173,46405,34729
26146,46378,34687
26120,46348,34645
26094,46318,34603
26064,46288,34562
26031,46259,34522
26000,46229,34482
25969,46198,34444
25937,46166,34405
25907,46133,34363
25877,46100,34319
25847,46067,34272
25813,46028,34220
25776,45988,34165
25738,45951,34108
25699,45915,34047
25656,45875,33982
25610,45830,33914
25563,45783,33846
25514,45735,33775
25464,45688,33702
25416,45642,33629
25368,45597,33558
25322,45554,33490
25276,45510,33423
25231,45467,33355
25187,45427,33291
25146,45390,33233
25114,45357,33188
25098,45340,33170
25105,45351,33189
25144,45395,33254
25220,45475,33371
25338,45596,33549
25500,45764,33791
25705,45977,34095
25948,46227,34456
26226,46511,34867
26529,46823,35317
26850,47152,35795
27183,47491,36287
27523,47837,36784
27862,48179,37276
28190,48508,37752
28501,48818,38204
28792,49105,38627
29060,49368,39018
29302,49604,39368
29514,49810,39676
29698,49988,39946
29856,50139,40178
29986,50261,40369
30090,50354,40519
30168,50420,40631
30222,50461,40705
30254,50478,40747
30268,50475,40760
30266,50460,40751
30247,50432,40719
30210,50391,40665
30157,50338,40593
30094,50279,40507
30024,50215,40412
29949,50145,40309
29871,50072,40200
29792,49997,40087
29715,49919,39974
29639,49840,39863
29565,49761,39756
29494,49686,39653
29425,49617,39553
29358,49552,39458
29293,49488,39370
29232,49430,39291
29176,49378,39221
29124,49332,39155
29076,49290,39093
29030,49251,39029
28985,49213,38964
28942,49175,38898
28897,49136,38834
28850,49096,38769
28801,49054,38704
28752,49008,38636
28707,48959,38571
28666,48912,38513
28628,48868,38462
28596,48831,38417
28567,48803,38382
28542,48785,38352
28519,48771,38325
28502,48759,38305
28492,48751,38292
28488,48749,38287
28489,48752,38289
28495,48758,38295
28506,48765,38308
28521,48775,38325
28537,48789,38346
28557,48807,38370
28578,48826,38397
28598,48848,38426
28616,48870,38454
28632,48892,38478
28642,48909,38499
28647,48918,38517
28649,48919,38527
28645,48913,38529
28636,48905,38522
28623,48895,38508
28607,48881,38487
28588,48865,38461
28567,48843,38431
28540,48813,38391
28505,48773,38339
28466,48728,38281
28423,48682,38218
28375,48633,38146
28323,48577,38068
28266,48519,37986
28206,48459,37903
28144,48397,37815
28081,48333,37722
28019,48270,37627
27958,48208,37533
27899,48147,37438
27840,48085,37343
27782,48024,37247
27724,47963,37152
27661,47898,37056
27594,47831,36958
27527,47762,36859
27461,47693,36760
27395,47622,36663
27330,47553,36567
27265,47486,36472
27200,47420,36380
27133,47354,36287
27065,47287,36194
26999,47222,36102
26933,47159,36011
26868,47099,35921
26808,47043,35833
26752,46993,35750
26701,46947,35674
26654,46902,35602
26607,46858,35535
26559,46814,35469
26510,46769,35405
26461,46723,35342
26415,46680,35282
26373,46641,35226
26334,46607,35172
26295,46572,35118
26256,46536,35067
26218,46503,35017
26185,46472,34969
26155,46442,34921
26130,46412,34876
26105,46383,34834
26078,46353,34794
26051,46322,34756
26026,46293,34719
26003,46267,34682
25980,46243,34646
25956,46222,34609
25932,46204,34576
25908,46186,34545
25882,46163,34511
25855,46140,34474
25827,46117,34437
25797,46093,34399
25765,46065,34357
25731,46030,34312
25695,45991,34264
25657,45952,34214
25619,45911,34161
25580,45870,34108
25540,45831,34054
25500,45792,33996
25460,45752,33934
25421,45709,33870
25378,45667,33806
25334,45624,33741
25290,45580,33677
25247,45535,33613
25202,45489,33549
25155,45442,33482
25106,45393,33409
25059,45342,33332
25016,45294,33259
24979,45252,33199
24951,45221,33158
24941,45210,33145
24954,45229,33171
24998,45282,33246
25079,45372,33375
25199,45502,33562
25357,45673,33807
25556,45881,34108
25792,46127,34461
26061,46405,34861
26354,46708,35294
26660,47023,35749
26973,47341,36213
27289,47659,36676
27599,47970,37129
27898,48270,37562
28184,48552,37972
28451,48815,38356
28693,49054,38706
28909,49266,39016
29098,49447,39285
29261,49599,39512
29394,49721,39698
29499,49812,39848
29579,49878,39964
29639,49925,40047
29679,49952,40100
29696,49961,40122
29692,49952,40115
29671,49931,40085
29636,49899,40034
29590,49852,39962
29530,49788,39873
29458,49714,39771
29376,49632,39658
29288,49544,39536
29196,49454,39408
29103,49363,39278
29010,49272,39148
28916,49181,39019
28821,49093,38891
28728,49008,38766
28641,48924,38644
28560,48842,38527
28484,48765,38416
28413,48693,38310
28341,48621,38207
28272,48551,38107
28206,48484,38012
28142,48419,37920
28080,48356,37828
28021,48296,37740
27965,48236,37656
27909,48177,37578
27853,48120,37502
27798,48068,37427
27750,48024,37360
27709,47987,37301
27673,47954,37250
27644,47926,37209
27624,47906,37183
27613,47894,37171
27609,47891,37169
27611,47897,37176
27619,47909,37197
27632,47929,37228
27650,47953,37264
27674,47977,37303
27702,48001,37341
27733,48029,37379
27767,48059,37418
27801,48092,37457
27830,48126,37497
27855,48156,37538
27876,48180,37575
27892,48200,37607
27903,48219,37633
27910,48235,37653
27913,48247,37663
27912,48251,37663
27906,48246,37652
27895,48232,37627
27877,48210,37591
27857,48183,37549
27833,48150,37501
27802,48109,37446
27764,48062,37383
27720,48010,37315
27673,47954,37239
27622,47896,37158
27570,47835,37072
27515,47773,36984
27456,47708,36896
27391,47639,36804
27322,47567,36709
27251,47497,36611
27179,47427,36512
27107,47356,36409
27037,47285,36304
26969,47217,36201
26900,47151,36099
26828,47087,35995
26755,47022,35887
26685,46956,35783
26617,46890,35684
26552,46822,35590
26490,46753,35498
26427,46685,35408
26364,46621,35319
26298,46559,35228
26234,46499,35136
26176,46442,35043
26123,46386,34953
26072,46330,34864
26021,46277,34779
25969,46228,34700
25916,46181,34626
25864,46134,34558
25814,46087,34496
25769,46042,34440
25727,45998,34383
25684,45953,34323
25639,45910,34263
25595,45869,34207
25552,45829,34152
25515,45790,34096
25483,45751,34042
25457,45717,33993
25434,45686,33949
25412,45657,33906
25387,45629,33865
25360,45602,33827
25334,45577,33790
25309,45553,33754
25285,45532,33722
25262,45511,33694
25240,45490,33669
25219,45469,33644
25198,45447,33619
25175,45427,33590
25147,45407,33557
25118,45387,33520
25090,45364,33481
25060,45338,33441
25028,45308,33399
24993,45274,33354
24959,45238,33310
24926,45203,33265
24893,45168,33215
24859,45133,33161
24822,45099,33104
24784,45062,33047
24747,45023,32989
24709,44984,32932
24668,44944,32874
24622,44901,32812
24574,44855,32743
24527,44809,32670
24481,44761,32594
24435,44711,32517
24388,44661,32441
24342,44616,32370
24300,44579,32307
24266,44549,32260
24246,44532,32235
24248,44540,32242
24281,44579,32293
24349,44653,32397
24454,44766,32559
24601,44922,32786
24791,45118,33075
25023,45351,33419
25288,45617,33813
25576,45912,34249
25884,46227,34718
26205,46554,35203
26534,46886,35692
26867,47219,36177
27194,47544,36650
27506,47853,37100
27796,48138,37518
28062,48398,37902
28301,48632,38250
28515,48840,38561
28706,49023,38836
28873,49180,39071
29012,49311,39265
29123,49414,39418
29208,49492,39535
29268,49546,39619
29306,49576,39674
29325,49586,39702
29324,49578,39703
29305,49549,39678
29269,49503,39630
29220,49445,39560
29162,49381,39473
29098,49311,39371
29025,49233,39254
28944,49149,39128
28858,49058,38998
28768,48964,38868
28675,48872,38736
28582,48782,38607
28493,48698,38483
28409,48621,38366
28327,48551,38256
28249,48482,38153
28178,48417,38058
28110,48356,37968
28046,48296,37880
27985,48234,37794
27929,48173,37711
27876,48112,37625
27822,48048,37537
27767,47986,37449
27714,47926,37368
27664,47870,37292
27617,47817,37219
27574,47768,37149
27535,47725,37086
27500,47690,37033
27469,47665,36990
27446,47648,36958
27431,47638,36938
27423,47635,36929
27421,47639,36929
27423,47649,36938
27430,47667,36956
27442,47687,36984
27456,47708,37015
27475,47731,37046
27501,47760,37076
27530,47791,37106
27559,47820,37138
27588,47848,37174
27615,47876,37213
27638,47900,37247
27656,47916,37275
27671,47928,37299
27681,47935,37317
27688,47939,37330
27690,47940,37335
27686,47935,37331
27673,47925,37319
27654,47907,37296
27632,47881,37265
27610,47853,37229
27589,47823,37192
27563,47790,37151
27530,47752,37104
27492,47708,37049
27446,47657,36985
27392,47601,36912
27333,47540,36830
27273,47478,36743
27212,47418,36653
27150,47355,36561
27083,47291,36467
27015,47228,36370
26945,47163,36270
26878,47096,36167
26813,47031,36064
26750,46967,35961
26687,46900,35859
26623,46831,35754
26557,46763,35646
26490,46695,35538
26422,46627,35428
26353,46558,35317
26283,46490,35210
26213,46423,35108
26145,46356,35012
26078,46291,34921
26013,46230,34834
25949,46172,34747
25887,46118,34660
25828,46068,34576
25775,46021,34497
25723,45976,34426
25672,45931,34359
25622,45881,34295
25573,45832,34232
25528,45785,34170
25486,45741,34108
25444,45698,34043
25407,45657,33982
25373,45618,33925
25338,45578,33870
25300,45538,33818
25264,45502,33769
25229,45468,33719
25196,45433,33669
25165,45398,33621
25138,45369,33579
25115,45343,33542
25095,45319,33506
25075,45297,33469
25054,45277,33432
25028,45256,33394
25000,45233,33357
24973,45210,33319
24946,45189,33281
24920,45168,33242
24894,45144,33203
24869,45116,33161
24842,45083,33119
24814,45049,33078
24785,45015,33037
24755,44983,32995
24728,44956,32955
24704,44933,32914
24681,44910,32871
24657,44885,32825
24631,44858,32777
24601,44830,32727
24567,44799,32674
24529,44768,32622
24491,44736,32570
24454,44700,32518
24417,44662,32464
24381,44625,32411
24344,44591,32355
24306,44555,32298
24268,44516,32241
24230,44480,32184
24193,44446,32130
24151,44409,32073
24107,44367,32012
24060,44321,31947
24011,44274,31879
23962,44228,31810
23915,44183,31740
23869,44140,31672
23822,44096,31604
23772,44047,31532
23720,43994,31461
23674,43946,31398
23643,43912,31351
23632,43902,31331
23649,43921,31354
23699,43975,31429
23788,44068,31562
23920,44203,31761
24098,44384,32028
24321,44609,32362
24582,44873,32754
24874,45170,33195
25194,45495,33675
25532,45839,34186
25881,46194,34713
26235,46552,35243
26588,46907,35765
26936,47251,36272
27268,47579,36753
27576,47883,37201
27859,48160,37612
28113,48411,37984
28338,48635,38311
28534,48830,38593
28706,48998,38834
28854,49141,39039
28976,49255,39206
29072,49339,39335
29139,49394,39427
29180,49427,39487
29199,49438,39513
29199,49430,39506
29183,49405,39475
29154,49368,39425
29111,49321,39360
29058,49266,39282
28997,49206,39196
28929,49139,39104
28851,49063,39003
28768,48980,38893
28681,48896,38780
28592,48812,38663
28505,48730,38545
28425,48650,38431
28352,48574,38322
28284,48502,38216
28219,48431,38115
28159,48363,38022
28105,48304,37939
28055,48251,37864
28008,48202,37797
27965,48160,37737
27928,48124,37683
27895,48089,37631
27863,48055,37578
27831,48020,37522
27795,47985,37467
27756,47947,37413
27718,47909,37359
27683,47874,37309
27652,47844,37263
27623,47818,37220
27597,47795,37181
27575,47777,37147
27557,47765,37122
27547,47760,37108
27545,47762,37104
27550,47773,37110
27558,47788,37125
27568,47805,37143
27579,47822,37162
27592,47839,37185
27607,47856,37210
27620,47871,37235
27632,47885,37258
27643,47897,37280
27655,47907,37303
27665,47913,37323
27675,47917,37339
27682,47919,37352
27688,47917,37363
27691,47912,37367
27691,47905,37365
27689,47895,37357
27682,47882,37341
27667,47865,37318
27647,47844,37287
27620,47818,37248
27589,47785,37199
27551,47746,37141
27506,47701,37073
27456,47650,37000
27404,47596,36923
27351,47541,36842
27298,47487,36762
27244,47432,36683
27185,47373,36602
27123,47311,36516
27060,47250,36424
26997,47188,36328
26935,47126,36226
26873,47062,36118
26809,46996,36010
26745,46926,35902
26682,46855,35797
26622,46785,35695
26562,46715,35591
26500,46644,35485
26436,46573,35377
26370,46499,35271
26304,46426,35170
26237,46355,35075
26171,46286,34984
26107,46221,34900
26047,46162,34823
25990,46105,34747
25935,46051,34669
25884,46000,34592
25835,45948,34516
25786,45895,34444
25737,45845,34374
25689,45797,34303
25638,45752,34233
25589,45709,34166
25543,45668,34104
25500,45632,34047
25460,45600,33996
25421,45569,33947
25384,45537,33900
25350,45505,33854
25320,45474,33808
25293,45445,33760
25267,45415,33711
25239,45383,33662
25209,45348,33614
25177,45311,33565
25142,45274,33512
25106,45238,33457
25074,45207,33406
25046,45182,33359
25019,45158,33314
24991,45133,33271
24962,45103,33228
24930,45068,33183
24896,45030,33137
24862,44995,33093
24830,44959,33051
24800,44922,33007
24773,44884,32961
24746,44848,32913
24717,44814,32862
24685,44779,32807
24651,44743,32751
24617,44708,32697
24582,44673,32644
24543,44635,32591
24502,44595,32538
24463,44556,32485
24424,44519,32431
24384,44481,32376
24342,44442,32320
24300,44405,32264
24258,44367,32207
24216,44324,32147
24173,44275,32082
24131,44227,32017
24090,44181,31952
24049,44139,31884
24008,44097,31815
23967,44054,31747
23927,44010,31681
23887,43968,31616
23849,43928,31555
23811,43889,31495
23770,43847,31433
23722,43802,31366
23670,43752,31297
23618,43699,31225
23567,43648,31152
23516,43597,31077
23464,43546,30999
23413,43498,30921
23364,43450,30846
23321,43407,30779
23292,43378,30733
23286,43374,30717
23308,43399,30743
23362,43461,30820
23449,43560,30955
23576,43700,31154
23745,43882,31418
23956,44105,31741
24205,44366,32120
24487,44657,32545
24793,44967,33006
25118,45291,33489
25453,45627,33986
25790,45968,34487
26122,46304,34979
26441,46625,35452
26742,46929,35901
27020,47210,36318
27273,47462,36697
27501,47685,37036
27703,47881,37336
27878,48051,37594
28027,48192,37809
28149,48305,37983
28244,48391,38120
28314,48448,38219
28359,48479,38282
28385,48492,38314
28396,48490,38320
28391,48473,38302
28371,48442,38263
28339,48400,38207
28296,48349,38140
28244,48288,38060
28184,48220,37968
28118,48146,37867
28049,48071,37763
27978,47997,37656
27909,47923,37547
27845,47852,37440
27783,47786,37337
27722,47722,37235
27660,47656,37137
27602,47594,37045
27547,47538,36962
27498,47491,36890
27458,47453,36830
27424,47420,36779
27394,47388,36734
27364,47356,36688
27335,47323,36642
27306,47293,36596
27278,47265,36553
27250,47235,36510
27224,47204,36465
27200,47172,36422
27175,47143,36380
27152,47115,36339
27129,47090,36299
27106,47068,36262
27084,47051,36231
27065,47037,36205
27052,47025,36187
27046,47017,36178
27048,47018,36179
27058,47025,36188
27073,47037,36202
27091,47051,36220
27106,47063,36240
27122,47076,36262
27139,47091,36285
27159,47110,36311
27181,47130,36338
27202,47148,36361
27221,47162,36383
27237,47172,36409
27248,47181,36435
27258,47189,36458
27267,47197,36477
27275,47206,36489
27281,47214,36494
27286,47219,36493
27290,47220,36484
27287,47216,36467
27277,47203,36439
27261,47179,36403
27238,47147,36361
27208,47109,36314
27172,47065,36259
27133,47017,36196
27093,46968,36131
27050,46920,36064
27003,46871,35991
26955,46821,35913
26906,46769,35831
26854,46714,35747
26798,46660,35661
26742,46606,35574
26685,46550,35486
26627,46492,35396
26567,46431,35304
26507,46367,35213
26448,46299,35121
26389,46230,35029
26330,46162,34936
26270,46097,34842
26210,46035,34751
26150,45976,34663
26091,45918,34575
26033,45862,34486
25978,45809,34397
25927,45754,34310
25879,45699,34226
25833,45646,34148
25789,45594,34074
25744,45543,34002
25698,45493,33931
25652,45444,33864
25607,45397,33798
25565,45354,33735
25525,45316,33672
25488,45281,33612
25454,45247,33557
25422,45212,33505
25392,45179,33453
25363,45148,33403
25334,45118,33353
25304,45087,33301
25275,45057,33250
25247,45029,33202
25220,45004,33158
25192,44981,33117
25164,44956,33077
25137,44929,33038
25111,44902,32999
25087,44874,32961
25066,44846,32926
25048,44819,32892
25030,44797,32860
25010,44774,32828
24990,44750,32795
24973,44727,32763
24957,44706,32729
24943,44689,32695
24930,44675,32663
24915,44661,32632
24893,44645,32601
24866,44624,32565
24837,44600,32522
24808,44573,32473
24778,44544,32422
24747,44513,32368
24715,44480,32314
24682,44445,32262
24645,44408,32208
24604,44371,32150
24566,44336,32091
24533,44301,32035
24502,44266,31980
24471,44229,31927
24438,44190,31874
24401,44147,31821
24360,44102,31764
24316,44055,31701
24273,44006,31636
24232,43959,31569
24195,43913,31500
24161,43869,31432
24130,43831,31370
24104,43801,31319
24086,43784,31286
24082,43783,31278
24102,43805,31303
24149,43855,31370
24230,43939,31487
24347,44060,31659
24498,44218,31883
24682,44410,32159
24896,44632,32480
25136,44880,32841
25394,45148,33233
25661,45429,33643
25935,45717,34062
26211,46007,34480
26482,46291,34891
26741,46562,35284
26985,46812,35650
27213,47041,35987
27421,47246,36291
27604,47426,36560
27762,47579,36792
27896,47705,36987
28004,47807,37144
28089,47886,37266
28151,47944,37354
28193,47981,37412
28216,47997,37443
28222,47992,37447
28212,47967,37426
28190,47931,37386
28158,47887,37328
28117,47836,37254
28069,47779,37169
28014,47715,37076
27955,47645,36977
27890,47569,36869
27821,47489,36755
27752,47408,36640
27686,47331,36525
27623,47256,36411
27564,47183,36300
27510,47115,36197
27462,47056,36104
27417,47004,36018
27374,46957,35936
27333,46912,35861
27296,46867,35791
27259,46821,35725
27222,46776,35662
27183,46736,35601
27144,46699,35540
27106,46660,35478
27068,46618,35413
27029,46578,35348
26991,46540,35284
26956,46507,35226
26926,46477,35173
26902,46451,35124
26883,46428,35082
26871,46408,35048
26867,46394,35025
26871,46387,35014
26880,46389,35016
26894,46400,35026
26912,46420,35043
26934,46444,35067
26960,46468,35096
26987,46492,35129
27017,46520,35166
27049,46551,35207
27083,46584,35252
27123,46619,35300
27165,46655,35351
27204,46690,35402
27240,46721,35450
27270,46747,35492
27296,46771,35530
27320,46793,35563
27344,46813,35589
27362,46829,35608
27373,46843,35621
27377,46852,35626
27375,46851,35620
27371,46841,35604
27361,46825,35580
27343,46804,35548
27321,46777,35508
27296,46746,35463
27268,46710,35411
27233,46669,35353
27193,46626,35288
27153,46582,35217
27113,46535,35145
27071,46484,35072
27027,46429,34997
26985,46374,34925
26942,46319,34855
26898,46263,34785
26854,46207,34712
26812,46154,34633
26772,46105,34549
26732,46055,34463
26690,46003,34377
26649,45949,34293
26605,45896,34209
26556,45844,34126
26503,45791,34043
26451,45739,33962
26399,45690,33883
26350,45643,33807
26303,45599,33735
26260,45558,33666
26217,45518,33600
26173,45475,33537
26129,45432,33474
26090,45392,33413
26053,45357,33355
26021,45324,33301
25991,45292,33250
25960,45258,33198
25929,45221,33143
25897,45184,33087
25866,45147,33032
25838,45114,32983
25815,45087,32940
25795,45063,32898
25777,45039,32857
25761,45018,32820
25746,44998,32787
25730,44980,32755
25713,44964,32725
25696,44951,32695
25679,44937,32664
25662,44921,32631
25646,44906,32600
25632,44890,32569
25617,44875,32541
25601,44861,32516
25587,44847,32492
25570,44831,32467
25552,44815,32440
25532,44800,32411
25515,44784,32386
25500,44766,32361
25485,44747,32335
25466,44728,32305
25445,44707,32269
25423,44684,32227
25402,44660,32185
25381,44634,32144
25361,44607,32105
25341,44582,32067
25318,44555,32025
25291,44527,31981
25263,44499,31938
25232,44469,31895
25200,44433,31851
25169,44397,31803
25139,44362,31752
25108,44330,31700
25075,44298,31646
25042,44266,31593
25010,44235,31539
24974,44204,31485
24938,44172,31431
24905,44141,31383
24880,44119,31348
24870,44111,31334
24882,44126,31352
24922,44171,31409
24994,44249,31514
25103,44364,31671
25246,44518,31882
25426,44709,32145
25639,44935,32455
25880,45190,32808
26143,45467,33195
26422,45759,33605
26709,46061,34029
26996,46363,34457
27277,46658,34880
27549,46939,35294
27806,47201,35691
28047,47441,36063
28269,47659,36404
28467,47852,36710
28637,48019,36979
28783,48159,37208
28906,48277,37400
29010,48376,37558
29096,48456,37686
29164,48515,37781
29213,48553,37847
29245,48571,37888
29259,48574,37903
29255,48561,37895
29239,48534,37865
29213,48495,37815
29177,48446,37749
29130,48391,37672
29077,48335,37587
29022,48278,37497
28966,48217,37405
28910,48154,37311
28858,48090,37217
28808,48027,37124
28758,47967,37031
28709,47910,36939
28660,47855,36850
28613,47803,36765
28568,47753,36687
28527,47705,36616
28490,47662,36550
28459,47624,36492
28434,47591,36441
28412,47560,36394
28394,47531,36350
28379,47506,36309
28364,47483,36270
28348,47460,36230
28332,47439,36192
28316,47417,36158
28301,47391,36125
28287,47367,36091
28275,47345,36055
28261,47324,36022
28247,47307,35996
28238,47296,35979
28237,47294,35974
28242,47302,35978
28254,47315,35989
28271,47332,36005
28289,47349,36024
28310,47368,36049
28335,47391,36077
28363,47419,36109
28394,47450,36144
28424,47482,36182
28452,47515,36221
28480,47546,36262
28510,47578,36303
28539,47608,36342
28567,47634,36376
28593,47655,36407
28616,47673,36434
28634,47686,36456
28648,47693,36470
28657,47697,36479
28658,47696,36484
28653,47690,36483
28645,47676,36471
28633,47656,36446
28615,47631,36415
28592,47603,36381
28566,47572,36342
28540,47539,36298
28512,47503,36247
28479,47461,36189
28443,47413,36126
28407,47367,36063
28371,47323,35999
28334,47281,35932
28296,47239,35865
28256,47195,35797
28213,47152,35727
28168,47108,35654
28121,47062,35577
28075,47016,35499
28028,46971,35421
27980,46923,35344
27932,46875,35269
27886,46826,35196
27838,46778,35123
27792,46731,35049
27748,46684,34977
27710,46637,34909
27674,46590,34846
27639,46545,34784
27605,46503,34724
27571,46463,34664
27536,46423,34604
27501,46383,34545
27464,46343,34487
27425,46304,34428
27385,46266,34371
27347,46229,34319
27314,46195,34270
27283,46166,34223
27251,46139,34177
27221,46113,34130
27192,46088,34086
27163,46064,34042
27134,46039,33995
27107,46014,33949
27083,45991,33906
27061,45969,33867
27041,45947,33830
27022,45924,33793
27004,45902,33757
26985,45882,33722
26968,45863,33689
26951,45841,33657
26934,45818,33625
26916,45797,33594
26894,45779,33563
26871,45762,33532
26849,45748,33500
26827,45734,33468
26805,45715,33437
26786,45696,33408
26770,45679,33382
26755,45664,33357
26737,45647,33330
26716,45625,33300
26694,45599,33267
26669,45569,33233
26641,45533,33193
26613,45497,33151
26588,45464,33111
26567,45435,33073
26546,45410,33034
26523,45386,32997
26496,45364,32962
26468,45343,32928
26441,45320,32893
26415,45296,32855
26387,45270,32812
26358,45243,32766
26327,45216,32719
26294,45187,32670
26259,45155,32620
26227,45121,32568
26197,45085,32515
26168,45049,32460
26138,45015,32406
26105,44979,32353
26069,44941,32299
26031,44902,32244
25991,44863,32187
25952,44827,32132
25915,44793,32082
25885,44766,32041
25866,44749,32016
25861,44749,32012
25882,44772,32040
25935,44829,32114
26025,44927,32239
26152,45065,32423
26317,45244,32668
26518,45464,32973
26754,45721,33333
27018,46006,33736
27301,46308,34170
27598,46622,34624
27902,46940,35089
28202,47256,35551
28492,47560,36002
28770,47849,36437
29033,48118,36847
29279,48365,37226
29504,48587,37570
29706,48785,37878
29882,48957,38149
30031,49103,38383
30152,49225,38578
30251,49324,38737
30330,49400,38864
30391,49452,38958
30432,49487,39023
30459,49507,39063
30471,49508,39078
30469,49494,39067
30454,49468,39033
30427,49431,38983
30393,49387,38922
30353,49338,38854
30308,49284,38779
30260,49227,38700
30209,49167,38619
30158,49105,38538
30109,49042,38458
30061,48981,38378
30013,48922,38297
29966,48868,38219
29924,48819,38147
29887,48772,38081
29857,48729,38021
29829,48693,37967
29803,48663,37919
29779,48640,37879
29757,48622,37844
29737,48603,37811
29720,48584,37780
29705,48565,37751
29689,48545,37722
29676,48527,37692
29664,48510,37662
29650,48494,37633
29634,48477,37604
29614,48461,37576
29595,48445,37551
29580,48434,37530
29572,48425,37513
29567,48420,37502
29563,48417,37496
29563,48415,37494
29571,48416,37496
29585,48422,37504
29605,48433,37523
29626,48449,37547
29650,48469,37572
29675,48495,37599
29700,48525,37630
29725,48556,37661
29749,48584,37693
29776,48609,37728
29805,48637,37766
29836,48664,37804
29867,48689,37838
29893,48709,37863
29912,48725,37883
29922,48737,37896
29926,48745,37904
29925,48749,37907
29921,48749,37904
29916,48748,37897
29909,48745,37889
29900,48741,37881
29889,48734,37869
29873,48721,37850
29853,48700,37824
29832,48674,37794
29810,48643,37758
29784,48607,37714
29756,48568,37664
29723,48526,37609
29684,48481,37549
29640,48433,37485
29596,48384,37418
29552,48335,37350
29508,48285,37280
29460,48235,37205
29411,48181,37127
29363,48126,37047
29313,48071,36968
29260,48016,36885
29206,47962,36803
29154,47909,36725
29106,47857,36650
29062,47806,36576
29018,47756,36506
28973,47708,36439
28929,47661,36371
28885,47616,36305
28844,47574,36242
28804,47535,36183
28761,47497,36123
28717,47460,36062
28673,47422,36002
28630,47388,35946
28591,47355,35895
28558,47324,35847
28529,47293,35803
28499,47263,35759
28467,47230,35712
28438,47194,35664
28411,47159,35616
28384,47129,35571
28357,47101,35529
28330,47075,35492
28304,47052,35459
28279,47030,35428
28253,47007,35397
28228,46985,35365
28204,46964,35332
28180,46943,35297
28156,46917,35257
28130,46890,35217
28103,46861,35177
28076,46833,35137
28050,46805,35096
28026,46779,35053
28001,46753,35013
27977,46726,34975
27952,46699,34939
27926,46675,34905
27898,46652,34871
27870,46630,34833
27842,46609,34793
27813,46587,34754
27786,46565,34720
27761,46543,34689
27737,46518,34658
27714,46494,34628
27687,46472,34599
27656,46449,34567
27625,46424,34531
27596,46398,34493
27572,46373,34458
27551,46348,34422
27528,46323,34382
27501,46297,34338
27469,46272,34294
27433,46243,34246
27394,46211,34195
27355,46178,34144
27318,46144,34091
27282,46104,34039
27247,46062,33989
27210,46021,33941
27170,45982,33893
27129,45945,33845
27089,45910,33795
27050,45878,33743
27010,45848,33689
26970,45814,33633
26931,45777,33576
26890,45737,33517
26849,45695,33454
26807,45653,33388
26767,45612,33326
26730,45575,33268
26694,45540,33213
26659,45507,33165
26630,45480,33130
26614,45468,33115
26616,45478,33128
26647,45519,33180
26715,45598,33284
26821,45718,33448
26962,45877,33671
27139,46073,33948
27350,46304,34276
27592,46564,34650
27861,46851,35061
28149,47157,35498
28449,47472,35951
28750,47787,36408
29044,48093,36857
29326,48385,37288
29589,48661,37695
29832,48916,38074
30056,49145,38421
30257,49348,38733
30433,49522,39009
30583,49667,39248
30708,49783,39451
30809,49875,39616
30888,49946,39745
30945,49999,39840
30983,50034,39905
31004,50054,39945
31010,50060,39962
31003,50052,39956
30983,50027,39925
30953,49988,39876
30916,49939,39813
30872,49884,39738
30821,49819,39653
30764,49749,39560
30704,49677,39462
30640,49604,39361
30574,49534,39258
30511,49465,39156
30450,49399,39059
30393,49337,38969
30342,49279,38888
30297,49226,38812
30255,49179,38743
30216,49136,38679
30182,49096,38621
30154,49062,38572
30130,49036,38529
30107,49013,38489
30086,48990,38447
30067,48969,38404
30047,48949,38365
30027,48930,38327
30007,48909,38288
29989,48886,38247
29973,48859,38208
29953,48828,38171
29930,48797,38138
29907,48769,38110
29885,48743,38087
29867,48721,38068
29854,48706,38054
29851,48703,38048
29858,48712,38050
29871,48729,38060
29887,48749,38079
29905,48772,38105
29924,48797,38136
29944,48825,38171
29966,48857,38212
29992,48892,38257
30019,48927,38303
30044,48958,38345
30068,48987,38385
30092,49012,38423
30116,49034,38458
30140,49055,38489
30161,49073,38516
30176,49087,38540
30186,49097,38560
30194,49102,38575
30197,49106,38583
30194,49105,38587
30185,49099,38584
30172,49088,38575
30157,49073,38561
30139,49055,38543
30119,49033,38519
30095,49006,38486
30064,48970,38443
30028,48930,38391
29987,48886,38334
29944,48842,38272
29901,48798,38207
29858,48755,38140
29814,48712,38070
29770,48666,37999
29724,48619,37926
29678,48569,37852
29631,48514,37773
29582,48457,37693
29531,48400,37612
29479,48343,37531
29425,48286,37447
29370,48231,37363
29317,48180,37284
29263,48132,37212
29209,48085,37144
29160,48039,37078
29117,47995,37014
29076,47952,36948
29034,47907,36882
28992,47861,36815
28948,47816,36747
28901,47773,36680
28855,47729,36613
28810,47687,36549
28767,47648,36488
28722,47610,36430
28678,47570,36375
28639,47531,36323
28602,47496,36271
28567,47464,36220
28533,47433,36171
28504,47404,36125
28478,47377,36082
28451,47351,36041
28423,47327,36002
28394,47304,35964
28365,47282,35927
28336,47256,35894
28311,47231,35862
28289,47209,35836
28270,47191,35812
28249,47173,35788
28229,47158,35768
28208,47144,35748
28187,47131,35725
28165,47113,35698
28143,47092,35670
28124,47071,35641
28107,47049,35615
28088,47025,35589
28066,47000,35559
28039,46975,35527
28009,46950,35492
27977,46924,35451
27946,46894,35408
27917,46864,35365
27888,46836,35321
27855,46807,35275
27820,46777,35230
27783,46751,35184
27743,46724,35138
27704,46692,35088
27666,46656,35036
27630,46621,34986
27595,46586,34937
27560,46552,34888
27527,46518,34842
27493,46482,34796
27455,46443,34744
27416,46402,34688
27377,46362,34631
27339,46326,34576
27298,46294,34522
27256,46261,34466
27215,46226,34409
27176,46191,34355
27139,46162,34307
27111,46141,34272
27099,46136,34262
27110,46155,34286
27149,46202,34351
27220,46281,34465
27330,46396,34632
27475,46549,34852
27651,46737,35119
27858,46957,35430
28091,47202,35779
28344,47464,36159
28608,47737,36558
28876,48017,36966
29141,48297,37372
29401,48570,37771
29647,48832,38155
29876,49077,38516
30086,49301,38849
30279,49501,39150
30452,49674,39418
30606,49821,39654
30739,49947,39858
30851,50054,40027
30941,50140,40165
31012,50207,40270
31059,50255,40345
31084,50281,40394
31090,50285,40416
31083,50275,40415
31067,50252,40395
31040,50217,40357
31003,50171,40303
30958,50118,40236
30905,50059,40157
30844,49993,40064
30777,49919,39962
30707,49842,39857
30636,49767,39752
30565,49693,39647
30493,49617,39543
30423,49540,39441
30356,49468,39344
30293,49399,39249
30234,49332,39157
30179,49272,39069
30129,49221,38990
30082,49176,38920
30039,49134,38858
29997,49092,38799
29954,49051,38742
29910,49010,38682
29867,48969,38622
29826,48929,38565
29786,48889,38507
29746,48849,38448
29710,48810,38391
29678,48772,38337
29650,48740,38289
29622,48714,38249
29595,48691,38217
29571,48672,38194
29554,48659,38181
29545,48654,38177
29542,48658,38183
29546,48669,38200
29555,48687,38226
29566,48708,38258
29582,48733,38292
29602,48761,38329
29627,48793,38369
29653,48829,38412
29681,48869,38458
29712,48913,38507
29741,48957,38556
29765,48996,38603
29784,49029,38648
29801,49055,38688
29816,49073,38723
29828,49081,38751
29836,49085,38769
29841,49088,38782
29839,49088,38790
29830,49085,38790
29814,49075,38779
29794,49058,38757
29768,49031,38725
29737,48998,38686
29704,48960,38642
29668,48920,38594
29629,48877,38542
29584,48831,38488
29535,48783,38431
29481,48730,38369
29425,48675,38301
29372,48619,38230
29321,48562,38157
29270,48504,38081
29215,48445,38002
29153,48385,37921
29088,48322,37840
29023,48259,37755
28958,48195,37665
28893,48132,37571
28829,48071,37480
28764,48009,37390
28702,47949,37305
28641,47893,37226
28581,47838,37148
28521,47783,37069
28463,47730,36988
28405,47679,36907
28347,47628,36826
28289,47577,36745
28230,47525,36665
28171,47472,36586
28116,47421,36509
28063,47370,36434
28014,47319,36362
27970,47270,36295
27927,47226,36234
27880,47185,36176
27831,47143,36121
27784,47104,36069
27740,47066,36019
27698,47030,35967
27660,46995,35915
27626,46961,35864
27593,46929,35815
27558,46894,35768
27521,46857,35721
27486,46823,35675
27452,46794,35631
27419,46767,35588
27385,46745,35548
27350,46726,35513
27316,46707,35479
27283,46687,35446
27251,46665,35410
27217,46641,35373
27184,46616,35335
27154,46590,35299
27127,46566,35267
27101,46544,35235
27077,46520,35202
27053,46490,35167
27027,46459,35131
26999,46428,35095
26969,46398,35058
26939,46369,35020
26911,46339,34982
26882,46312,34944
26849,46283,34900
26813,46251,34852
26774,46216,34800
26736,46179,34747
26698,46143,34695
26661,46105,34644
26626,46065,34594
26592,46027,34544
26556,45991,34494
26518,45957,34442
26481,45924,34392
26443,45891,34342
26404,45854,34287
26361,45814,34227
26316,45775,34163
26269,45734,34096
26221,45690,34028
26174,45645,33963
26131,45604,33905
26096,45574,33861
26071,45556,33835
26065,45556,33838
26086,45582,33879
26141,45641,33965
26229,45737,34098
26354,45874,34285
26514,46053,34529
26708,46268,34829
26934,46516,35174
27187,46788,35559
27461,47079,35975
27749,47379,36412
28046,47682,36859
28346,47984,37309
28641,48281,37753
28925,48569,38183
29190,48840,38592
29436,49092,38975
29663,49321,39330
29868,49527,39651
30052,49707,39932
30214,49865,40174
30350,49999,40380
30456,50106,40551
30540,50189,40687
30605,50253,40793
30653,50298,40870
30681,50324,40919
30693,50332,40942
30686,50321,40942
30664,50296,40923
30630,50260,40886
30589,50217,40833
30542,50167,40768
30490,50112,40691
30429,50053,40605
30364,49990,40513
30297,49925,40417
30230,49856,40320
30164,49786,40222
30101,49716,40127
30039,49648,40035
29979,49581,39948
29921,49517,39867
29866,49458,39792
29818,49407,39726
29775,49362,39667
29734,49323,39614
29697,49288,39564
29662,49256,39516
29628,49223,39469
29597,49190,39421
29567,49157,39375
29539,49128,39331
29510,49100,39287
29483,49074,39243
29459,49048,39201
29434,49022,39161
29409,48997,39125
29386,48977,39094
29366,48964,39071
29350,48957,39054
29338,48954,39043
29329,48951,39036
29323,48951,39032
29321,48957,39033
29323,48966,39038
29328,48976,39047
29334,48988,39062
29345,49004,39084
29358,49022,39110
29372,49042,39141
29387,49065,39174
29405,49089,39209
29421,49112,39246
29435,49132,39286
29448,49152,39323
29460,49167,39355
29468,49177,39380
29469,49182,39398
29465,49186,39409
29459,49189,39415
29453,49188,39416
29445,49182,39410
29435,49170,39397
29419,49153,39376
29396,49130,39347
29366,49100,39310
29332,49064,39269
29297,49026,39222
29259,48983,39170
29216,48938,39113
29169,48890,39049
29118,48841,38979
29064,48790,38903
29008,48737,38825
28952,48684,38745
28896,48628,38662
28839,48571,38578
28779,48513,38493
28717,48452,38408
28653,48388,38321
28588,48321,38233
28526,48253,38145
28466,48187,38058
28403,48121,37971
28339,48055,37882
28274,47988,37789
28210,47921,37695
28146,47856,37600
28080,47794,37508
28014,47735,37421
27953,47682,37339
27896,47631,37260
27841,47581,37183
27788,47533,37107
27736,47485,37037
27683,47438,36970
27633,47394,36905
27585,47351,36840
27539,47307,36777
27494,47261,36714
27450,47216,36651
27406,47173,36589
27362,47128,36526
27316,47082,36459
27273,47035,36394
27232,46992,36333
27190,46952,36279
27149,46913,36227
27112,46876,36179
27078,46839,36133
27044,46805,36089
27011,46774,36047
26980,46748,36006
26950,46722,35966
26919,46697,35926
26885,46669,35883
26848,46640,35838
26810,46611,35793
26770,46580,35747
26731,46549,35703
26695,46518,35662
26659,46488,35623
26624,46457,35583
26589,46427,35539
26553,46397,35492
26517,46365,35444
26481,46332,35394
26444,46296,35343
26407,46261,35292
26371,46228,35243
26337,46195,35192
26302,46159,35141
26265,46122,35092
26226,46083,35044
26189,46045,34996
26156,46010,34946
26122,45978,34893
26086,45945,34841
26047,45909,34789
26005,45872,34734
25959,45835,34679
25911,45797,34624
25866,45756,34567
25823,45714,34507
25783,45672,34444
25739,45628,34378
25690,45583,34310
25637,45536,34240
25582,45488,34166
25529,45438,34090
25477,45387,34015
25429,45337,33944
25383,45290,33878
25338,45245,33813
25291,45199,33748
25246,45152,33681
25202,45108,33614
25161,45069,33552
25128,45039,33501
25109,45024,33472
25108,45031,33471
25130,45061,33505
25183,45119,33584
25270,45215,33716
25395,45352,33907
25558,45528,34157
25759,45739,34464
25990,45982,34821
26248,46254,35221
26527,46547,35655
26821,46853,36113
27124,47165,36585
27429,47479,37059
27729,47791,37525
28022,48094,37975
28304,48383,38404
28567,48650,38805
28807,48892,39174
29022,49109,39507
29212,49298,39802
29380,49460,40057
29522,49595,40274
29641,49705,40453
29740,49792,40594
29817,49855,40701
29872,49894,40775
29906,49912,40821
29921,49913,40843
29920,49905,40844
29904,49887,40821
29876,49858,40780
29838,49819,40726
29792,49772,40662
29740,49719,40588
29685,49662,40504
29625,49602,40415
29562,49541,40323
29498,49477,40229
29434,49412,40137
29370,49348,40046
29307,49282,39956
29243,49217,39869
29180,49155,39788
29121,49098,39712
29067,49044,39642
29020,48995,39579
28978,48952,39523
28939,48914,39474
28903,48881,39428
28871,48849,39384
28840,48822,39345
28811,48799,39310
28783,48774,39276
28753,48746,39238
28719,48717,39199
28681,48687,39157
28642,48655,39112
28605,48623,39067
28570,48594,39026
28540,48569,38994
28512,48546,38968
28489,48526,38948
28473,48511,38934
28460,48503,38926
28450,48503,38925
28445,48510,38928
28443,48522,38936
28444,48538,38948
28450,48553,38966
28460,48568,38987
28471,48583,39010
28481,48595,39032
28490,48605,39054
28498,48616,39076
28506,48627,39099
28512,48635,39120
28515,48639,39134
28515,48641,39142
28515,48641,39146
28514,48639,39146
28513,48634,39144
28508,48625,39138
28496,48612,39126
28477,48590,39106
28454,48558,39078
28428,48524,39045
28397,48490,39005
28359,48453,38957
28314,48414,38899
28266,48372,38837
28215,48327,38770
28161,48277,38698
28102,48223,38622
28043,48167,38545
27985,48112,38466
27927,48056,38385
27867,47998,38302
27806,47936,38215
27741,47871,38123
27675,47805,38025
27607,47739,37924
27539,47671,37822
27471,47603,37719
27402,47532,37616
27331,47459,37514
27259,47387,37416
27188,47316,37320
27120,47246,37225
27054,47177,37131
26989,47114,37041
26925,47053,36955
26860,46992,36872
26794,46931,36791
26728,46872,36710
26664,46812,36628
26603,46752,36545
26547,46694,36465
26496,46642,36390
26444,46595,36316
26393,46549,36244
26345,46504,36174
26299,46460,36108
26255,46417,36047
26214,46377,35986
26177,46339,35926
26142,46304,35869
26106,46271,35811
26070,46238,35752
26034,46206,35692
25995,46171,35632
25954,46131,35573
25912,46092,35518
25871,46055,35468
25830,46018,35418
25788,45978,35365
25748,45936,35310
25711,45895,35256
25677,45855,35204
25642,45818,35152
25607,45783,35102
25571,45747,35053
25534,45711,35002
25496,45675,34950
25458,45641,34899
25421,45609,34851
25384,45579,34805
25348,45550,34759
25311,45520,34711
25274,45489,34661
25235,45457,34608
25196,45423,34553
25158,45389,34496
25122,45357,34437
25086,45325,34379
25051,45291,34322
25015,45254,34266
24977,45216,34213
24938,45178,34161
24900,45141,34111
24864,45105,34060
24827,45067,34008
24784,45027,33951
24735,44982,33889
24687,44937,33824
24642,44895,33760
24599,44856,33695
24557,44817,33631
24513,44775,33568
24470,44732,33506
24426,44687,33442
24381,44639,33374
24336,44592,33304
24289,44546,33231
24239,44498,33156
24191,44449,33082
24146,44398,33009
24100,44349,32941
24057,44306,32882
24026,44277,32841
24011,44268,32828
24018,44285,32849
24054,44332,32913
24125,44414,33027
24234,44534,33195
24381,44692,33418
24563,44886,33692
24778,45113,34014
25023,45371,34379
25291,45651,34780
25573,45944,35203
25864,46239,35638
26153,46531,36073
26433,46814,36497
26700,47086,36905
26952,47342,37293
27186,47579,37655
27400,47794,37985
27593,47984,38278
27762,48148,38531
27908,48289,38746
28031,48406,38927
28130,48498,39074
28207,48567,39189
28263,48615,39272
28298,48644,39325
28315,48657,39352
28315,48654,39357
28300,48636,39338
28273,48603,39297
28236,48557,39239
28191,48501,39169
28137,48439,39091
28073,48371,39006
28004,48301,38913
27933,48230,38814
27861,48159,38710
27789,48085,38603
27715,48008,38494
27642,47933,38385
27573,47862,38279
27507,47794,38178
27443,47728,38085
27384,47669,37999
27328,47615,37922
27277,47564,37849
27228,47518,37780
27182,47475,37712
27138,47434,37647
27095,47396,37583
27050,47361,37520
27004,47329,37457
26959,47294,37396
26915,47252,37333
26870,47207,37267
26828,47165,37203
26791,47126,37146
26762,47091,37096
26737,47061,37051
26716,47037,37015
26697,47020,36989
26679,47009,36975
26664,47003,36969
26656,47004,36970
26656,47013,36980
26662,47026,36998
26671,47044,37021
26685,47065,37047
26701,47087,37075
26719,47105,37104
26739,47121,37134
26759,47139,37166
26782,47161,37200
26805,47185,37234
26826,47208,37267
26842,47228,37299
26854,47243,37327
26861,47257,37351
26867,47270,37372
26873,47281,37385
26880,47286,37389
26885,47286,37386
26886,47284,37379
26879,47275,37366
26864,47256,37344
26843,47229,37312
26819,47197,37272
26790,47164,37225
26754,47126,37170
26712,47085,37110
26664,47042,37043
26611,46996,36965
26554,46945,36883
26497,46889,36800
26439,46831,36717
26379,46773,36631
26317,46714,36545
26255,46654,36458
26194,46594,36368
26133,46531,36272
26071,46465,36174
26011,46402,36078
25952,46340,35986
25891,46278,35896
25828,46216,35806
25765,46153,35719
25701,46090,35634
25638,46030,35548
25575,45971,35463
25512,45913,35379
25452,45855,35297
25395,45799,35214
25339,45742,35134
25282,45686,35056
25227,45632,34980
25174,45583,34905
25124,45539,34831
25075,45500,34762
25030,45462,34696
24987,45421,34633
24943,45377,34574
24899,45333,34517
24855,45290,34463
24813,45246,34410
24775,45205,34356
24740,45168,34303
24710,45136,34254
24683,45108,34208
24657,45083,34163
24634,45063,34121
24612,45045,34083
24589,45026,34044
24565,45002,34004
24540,44975,33965
24512,44945,33927
24481,44912,33887
24449,44880,33845
24418,44851,33804
24388,44822,33766
24360,44793,33726
24333,44762,33684
24308,44732,33641
24286,44701,33600
24265,44671,33560
24244,44643,33521
24220,44620,33483
24191,44597,33444
24160,44573,33402
24129,44549,33358
24098,44526,33316
24063,44498,33274
24025,44467,33231
23988,44436,33186
23950,44403,33137
23913,44370,33085
23879,44338,33033
23849,44307,32982
23819,44275,32930
23786,44239,32874
23749,44202,32815
23711,44162,32754
23671,44121,32696
23628,44078,32634
23582,44035,32570
23536,43993,32505
23490,43950,32438
23446,43907,32371
23405,43865,32307
23370,43832,32253
23346,43813,32216
23338,43813,32202
23349,43833,32220
23386,43879,32279
23452,43955,32383
23550,44061,32536
23680,44203,32741
23846,44378,32994
24044,44582,33297
24271,44813,33643
24523,45068,34024
24795,45341,34430
25078,45623,34852
25365,45910,35280
25645,46193,35700
25915,46467,36106
26173,46724,36493
26415,46963,36856
26638,47181,37191
26842,47377,37493
27021,47549,37756
27173,47698,37982
27300,47822,38171
27404,47921,38322
27483,47997,38437
27540,48056,38522
27578,48096,38581
27601,48118,38615
27608,48123,38624
27601,48109,38609
27581,48080,38574
27547,48040,38521
27500,47990,38455
27445,47932,38383
27383,47870,38301
27317,47805,38210
27247,47738,38111
27176,47669,38007
27106,47601,37904
27036,47532,37801
26969,47462,37699
26906,47391,37599
26845,47325,37504
26788,47264,37409
26735,47206,37315
26686,47150,37226
26637,47096,37142
26587,47041,37064
26537,46984,36989
26488,46928,36916
26442,46874,36844
26395,46822,36773
26348,46775,36704
26298,46732,36637
26252,46691,36573
26210,46653,36512
26172,46619,36455
26135,46591,36405
26101,46565,36362
26072,46542,36327
26049,46524,36300
26033,46514,36280
26025,46510,36268
26024,46509,36265
26027,46511,36269
26034,46516,36281
26045,46527,36299
26061,46540,36322
26078,46555,36347
26098,46573,36376
26119,46596,36407
26141,46623,36441
26163,46651,36477
26187,46677,36515
26210,46702,36552
26231,46726,36586
26252,46747,36615
26270,46765,36639
26286,46778,36658
26296,46786,36672
26302,46790,36678
26300,46790,36679
26290,46785,36672
26274,46774,36655
26254,46758,36630
26233,46737,36597
26207,46712,36557
26174,46679,36512
26133,46641,36459
26091,46602,36399
26048,46559,36334
26007,46512,36267
25962,46464,36198
25915,46417,36129
25864,46368,36057
25808,46313,35983
25747,46254,35908
25682,46197,35829
25618,46140,35745
25554,46082,35656
25491,46024,35564
25431,45964,35471
25374,45902,35378
25316,45838,35287
25260,45775,35198
25208,45716,35109
25155,45657,35020
25100,45596,34933
25044,45536,34848
24990,45476,34765
24939,45418,34683
24893,45362,34601
24846,45310,34521
24797,45265,34445
24746,45222,34370
24692,45180,34294
24640,45136,34221
24588,45091,34149
24536,45044,34078
24487,44999,34010
24444,44957,33947
24406,44919,33886
24371,44882,33829
24335,44847,33776
24299,44815,33726
24264,44780,33677
24232,44743,33629
24205,44710,33585
24183,44681,33545
24159,44653,33506
24133,44625,33465
24106,44597,33422
24077,44571,33376
24045,44546,33329
24015,44520,33285
23987,44493,33244
23958,44467,33206
23925,44440,33170
23892,44410,33135
23860,44382,33100
23829,44356,33065
23800,44330,33027
23772,44303,32987
23743,44273,32943
23711,44242,32895
23678,44209,32846
23645,44177,32798
23616,44148,32754
23587,44122,32713
23556,44096,32673
23526,44072,32632
23499,44048,32592
23473,44024,32553
23446,43997,32513
23418,43966,32468
23388,43933,32421
23357,43901,32373
23329,43873,32324
23301,43849,32276
23273,43827,32231
23243,43804,32185
23214,43776,32136
23183,43743,32085
23147,43707,32033
23106,43667,31978
23062,43623,31921
23017,43579,31864
22973,43535,31806
22929,43490,31747
22886,43445,31687
22845,43403,31628
22806,43366,31568
22768,43330,31504
22730,43294,31437
22692,43256,31370
22655,43218,31307
22618,43183,31249
22585,43153,31200
22560,43131,31165
22549,43122,31153
22559,43137,31172
22598,43180,31228
22671,43257,31333
22781,43372,31495
22928,43526,31717
23112,43719,31995
23331,43949,32327
23578,44209,32705
23849,44493,33120
24140,44798,33562
24446,45118,34023
24763,45445,34496
25081,45768,34970
25391,46083,35436
25689,46384,35885
25969,46664,36307
26230,46922,36693
26468,47156,37043
26682,47366,37359
26870,47550,37639
27031,47708,37883
27169,47839,38089
27282,47943,38257
27370,48021,38388
27436,48078,38487
27485,48117,38559
27518,48139,38606
27536,48145,38628
27539,48135,38623
27529,48112,38599
27505,48080,38561
27468,48040,38508
27425,47993,38443
27380,47942,38370
27333,47889,38294
27283,47832,38214
27232,47775,38132
27180,47717,38047
27127,47660,37961
27074,47608,37877
27020,47559,37795
26967,47511,37718
26920,47466,37646
26881,47425,37580
26847,47387,37521
26815,47352,37468
26784,47320,37421
26755,47291,37380
26727,47263,37344
26699,47234,37311
26670,47208,37277
26641,47186,37242
26612,47166,37205
26585,47145,37167
26558,47124,37131
26531,47101,37095
26505,47075,37058
26479,47045,37022
26453,47012,36984
26430,46981,36948
26414,46958,36920
26406,46944,36901
26401,46937,36889
26401,46936,36881
26407,46939,36879
26416,46946,36884
26428,46956,36894
26440,46971,36908
26455,46991,36927
26470,47012,36952
26484,47032,36979
26495,47053,37005
26504,47073,37032
26511,47093,37061
26518,47111,37089
26526,47126,37115
26533,47136,37137
26540,47144,37156
26547,47148,37170
26552,47151,37177
26556,47152,37178
26558,47151,37175
26556,47144,37164
26549,47131,37146
26536,47114,37120
26516,47093,37087
26490,47067,37048
26463,47037,37005
26433,47003,36957
26398,46965,36904
26357,46925,36844
26310,46880,36779
26262,46833,36710
26212,46784,36636
26160,46732,36557
26105,46678,36473
26050,46625,36388
25995,46573,36305
25941,46521,36222
25888,46465,36138
25832,46407,36051
25773,46346,35960
25712,46283,35866
25650,46221,35772
25589,46159,35683
25530,46097,35598
25469,46033,35512
25407,45970,35425
25345,45910,35340
25286,45854,35257
25230,45803,35178
25178,45752,35100
25126,45700,35023
25072,45645,34945
25019,45589,34866
24970,45536,34791
24928,45490,34724
24889,45447,34659
24850,45405,34596
24808,45366,34535
24764,45328,34475
24721,45291,34413
24678,45254,34349
24636,45218,34288
24597,45185,34231
24559,45152,34178
24524,45120,34127
24492,45091,34079
24463,45064,34033
24435,45035,33985
24408,45004,33939
24382,44974,33899
24356,44946,33861
24329,44917,33822
24301,44890,33782
24275,44863,33743
24253,44836,33705
24235,44808,33665
24215,44782,33625
24191,44757,33588
24163,44732,33552
24131,44703,33513
24096,44670,33467
24058,44636,33419
24020,44602,33371
23983,44566,33322
23947,44531,33276
23912,44499,33231
23877,44468,33185
23840,44436,33136
23804,44403,33085
23771,44371,33035
23740,44341,32986
23713,44312,32939
23686,44284,32893
23660,44257,32844
23630,44229,32794
23597,44195,32743
23563,44160,32690
23528,44122,32634
23490,44084,32579
23453,44048,32527
23415,44015,32475
23374,43980,32420
23330,43942,32363
23286,43902,32306
23244,43861,32250
23204,43821,32194
23166,43780,32136
23129,43742,32079
23092,43706,32024
23054,43670,31970
23014,43631,31914
22971,43592,31857
22929,43554,31797
22889,43516,31733
22852,43477,31666
22813,43437,31599
22773,43395,31534
22731,43353,31469
22689,43310,31404
22651,43271,31345
22621,43243,31299
22604,43230,31273
22604,43236,31277
22629,43269,31318
22684,43334,31405
22775,43432,31544
22906,43570,31738
23076,43747,31989
23284,43962,32299
23528,44213,32664
23799,44493,33072
24092,44794,33513
24400,45107,33979
24716,45425,34457
25033,45744,34937
25347,46061,35413
25653,46372,35878
25946,46666,36320
26222,46941,36734
26478,47196,37117
26711,47427,37465
26917,47634,37773
27100,47815,38042
27261,47969,38273
27398,48096,38465
27508,48196,38618
27595,48273,38737
27659,48332,38823
27705,48371,38881
27733,48391,38914
27748,48395,38925
27749,48387,38917
27736,48366,38891
27711,48332,38849
27674,48289,38793
27629,48241,38727
27577,48189,38653
27523,48132,38573
27466,48072,38493
27406,48010,38413
27344,47947,38327
27282,47883,38236
27223,47823,38147
27168,47768,38064
27117,47718,37986
27072,47674,37913
27031,47635,37844
26991,47598,37784
26955,47563,37731
26923,47531,37682
26895,47502,37637
26870,47475,37593
26843,47445,37547
26815,47412,37499
26786,47380,37449
26760,47349,37403
26731,47319,37359
26698,47289,37317
26664,47257,37276
26630,47225,37236
26599,47193,37199
26570,47164,37166
26548,47141,37138
26530,47125,37117
26516,47116,37103
26505,47113,37096
26500,47118,37096
26500,47129,37101
26504,47143,37111
26509,47156,37125
26517,47169,37144
26527,47183,37167
26540,47196,37192
26554,47210,37218
26571,47226,37245
26589,47243,37273
26607,47261,37301
26626,47280,37330
26645,47298,37360
26662,47314,37387
26674,47326,37408
26683,47332,37423
26686,47335,37431
26684,47333,37429
26678,47324,37417
26670,47313,37397
26658,47299,37367
26640,47280,37330
26615,47255,37287
26587,47224,37238
26555,47189,37184
26521,47154,37127
26483,47116,37068
26438,47074,37006
26387,47027,36940
26334,46975,36868
26283,46920,36792
26233,46865,36712
26181,46810,36629
26125,46751,36543
26063,46689,36455
25998,46627,36365
25928,46563,36269
25858,46500,36169
25790,46441,36069
25725,46386,35973
25662,46332,35882
25602,46277,35795
25545,46220,35709
25490,46162,35625
25438,46103,35541
25384,46044,35458
25333,45987,35376
25285,45931,35300
25238,45875,35225
25190,45818,35150
25141,45764,35075
25092,45711,35001
25040,45658,34928
24987,45608,34853
24935,45561,34779
24887,45520,34710
24844,45481,34647
24800,45441,34587
24757,45399,34530
24716,45359,34477
24678,45324,34426
24643,45293,34379
24613,45266,34336
24587,45244,34296
24563,45223,34258
24540,45202,34222
24515,45180,34186
24490,45160,34150
24466,45142,34115
24445,45124,34082
24423,45103,34048
24399,45081,34011
24374,45056,33971
24346,45028,33929
24319,45002,33886
24293,44977,33845
24266,44950,33804
24237,44922,33762
24208,44893,33720
24181,44862,33678
24155,44830,33635
24131,44800,33590
24110,44772,33550
24090,44746,33517
24068,44719,33485
24040,44691,33449
24009,44663,33409
23977,44635,33368
23943,44607,33326
23907,44577,33278
23870,44546,33226
23831,44516,33172
23790,44485,33117
23749,44449,33065
23709,44411,33014
23669,44372,32962
23627,44333,32904
23584,44290,32844
23544,44246,32785
23506,44203,32725
23470,44161,32664
23434,44120,32603
23396,44080,32541
23357,44037,32474
23315,43991,32403
23273,43945,32331
23231,43900,32261
23191,43857,32191
23154,43816,32125
23119,43780,32064
23088,43752,32012
23062,43730,31972
23046,43720,31951
23051,43734,31963
23088,43776,32018
23159,43851,32120
23268,43963,32275
23413,44113,32487
23594,44301,32758
23808,44521,33080
24050,44771,33442
24319,45046,33839
24608,45340,34265
24910,45644,34712
25218,45955,35171
25526,46268,35630
25826,46573,36079
26113,46863,36509
26383,47135,36915
26635,47386,37292
26866,47614,37631
27074,47817,37931
27258,47995,38193
27416,48146,38419
27549,48272,38609
27656,48374,38763
27741,48451,38884
27805,48505,38974
27846,48536,39032
27866,48547,39060
27871,48543,39060
27863,48529,39039
27841,48504,39000
27807,48466,38946
27762,48415,38878
27710,48354,38798
27651,48283,38709
27585,48208,38614
27513,48133,38518
27442,48061,38422
27371,47992,38325
27301,47923,38226
27232,47857,38127
27165,47792,38029
27101,47728,37932
27043,47668,37838
26989,47614,37751
26939,47565,37670
26891,47519,37594
26846,47476,37524
26801,47437,37461
26755,47401,37402
26709,47364,37344
26664,47326,37287
26622,47283,37230
26583,47239,37173
26544,47194,37113
26505,47152,37053
26467,47115,36996
26432,47083,36943
26402,47055,36891
26375,47030,36844
26349,47007,36805
26327,46986,36775
26312,46970,36753
26306,46962,36742
26310,46965,36746
26321,46978,36765
26337,46997,36795
26356,47021,36830
26379,47048,36869
26406,47073,36910
26435,47097,36951
26464,47123,36993
26492,47153,37036
26517,47183,37077
26542,47211,37115
26565,47235,37149
26586,47256,37177
26604,47275,37199
26620,47293,37215
26631,47307,37228
26641,47315,37237
26647,47315,37241
26646,47309,37238
26640,47299,37226
26629,47284,37207
26613,47262,37180
26591,47233,37145
26563,47202,37106
26530,47169,37060
26492,47132,37007
26450,47093,36947
26403,47050,36880
26352,47003,36805
26297,46952,36723
26242,46899,36639
26187,46844,36554
26131,46790,36471
26074,46734,36387
26016,46675,36304
25955,46612,36219
25891,46546,36127
25825,46477,36029
25758,46409,35929
25692,46340,35828
25627,46269,35728
25562,46200,35628
25500,46136,35533
25441,46078,35444
25381,46022,35358
25320,45965,35271
25258,45905,35183
25195,45846,35094
25134,45788,35008
25078,45734,34925
25028,45682,34847
24985,45634,34774
24945,45587,34704
24909,45544,34641
24876,45504,34585
24843,45469,34532
24809,45438,34481
24775,45409,34431
24742,45379,34380
24709,45346,34329
24677,45315,34278
24649,45285,34230
24624,45258,34188
24598,45232,34149
24569,45204,34111
24539,45175,34075
24511,45146,34039
24486,45119,34002
24462,45093,33964
24437,45068,33925
24413,45044,33888
24387,45024,33854
24362,45006,33821
24338,44991,33791
24317,44976,33763
24297,44959,33737
24277,44940,33711
24258,44922,33684
24238,44904,33655
24215,44883,33620
24187,44859,33581
24159,44834,33540
24132,44810,33500
24105,44787,33461
24076,44765,33421
24046,44745,33382
24015,44725,33343
23984,44703,33305
23956,44680,33263
23929,44653,33219
23903,44622,33174
23875,44587,33129
23845,44546,33079
23815,44504,33025
23782,44462,32968
23746,44419,32910
23708,44376,32849
23668,44333,32787
23626,44291,32724
23584,44253,32666
23549,44223,32619
23527,44208,32591
23523,44213,32591
23541,44240,32623
23588,44296,32696
23670,44388,32817
23790,44519,32991
23947,44688,33220
24144,44895,33503
24377,45134,33840
24640,45401,34224
24925,45690,34644
25228,45996,35090
25541,46314,35550
25857,46634,36014
26168,46946,36471
26469,47244,36916
26752,47526,37337
27014,47786,37728
27254,48022,38085
27474,48236,38407
27674,48427,38692
27851,48594,38938
28005,48736,39147
28135,48856,39321
28242,48954,39463
28326,49029,39577
28388,49082,39666
28431,49116,39730
28457,49133,39771
28466,49132,39788
28460,49121,39782
28443,49102,39754
28414,49074,39707
28372,49033,39645
28323,48983,39572
28267,48925,39490
28205,48862,39404
28137,48795,39313
28068,48727,39220
27997,48659,39124
27928,48594,39027
27861,48528,38929
27797,48465,38838
27737,48405,38755
27679,48349,38679
27627,48295,38607
27583,48250,38540
27545,48212,38478
27510,48177,38420
27477,48140,38363
27445,48101,38305
27412,48059,38245
27374,48013,38181
27334,47970,38116
27294,47930,38053
27254,47892,37992
27214,47855,37936
27172,47817,37883
27130,47781,37832
27093,47751,37787
27061,47727,37747
27037,47709,37716
27020,47700,37696
27013,47699,37685
27010,47702,37680
27012,47710,37682
27023,47726,37695
27040,47748,37715
27058,47772,37743
27076,47798,37774
27094,47824,37806
27114,47849,37841
27135,47872,37876
27156,47893,37909
27177,47913,37942
27199,47932,37974
27222,47948,38001
27243,47960,38022
27258,47969,38038
27270,47977,38049
27278,47983,38054
27281,47981,38051
27278,47973,38043
27271,47961,38031
27257,47946,38013
27238,47926,37987
27215,47903,37956
27188,47875,37918
27157,47842,37876
27121,47808,37829
27083,47774,37776
27040,47736,37715
26990,47691,37643
26934,47640,37565
26875,47585,37483
26814,47524,37397
26754,47460,37308
26695,47393,37218
26635,47328,37125
26573,47263,37029
26509,47196,36932
26446,47129,36836
26384,47062,36743
26322,46995,36652
26259,46929,36565
26197,46865,36480
26137,46801,36395
26078,46739,36310
26021,46677,36220
25966,46616,36130
25910,46559,36042
25854,46504,35956
25800,46451,35871
25747,46403,35791
25696,46357,35716
25646,46312,35643
25599,46271,35574
25555,46233,35509
25509,46194,35445
25462,46155,35382
25415,46114,35318
25370,46074,35257
25328,46035,35199
25291,45997,35144
25258,45957,35093
25226,45917,35043
25193,45878,34996
25160,45842,34948
25131,45809,34900
25106,45782,34854
25083,45758,34813
25061,45738,34775
25040,45723,34742
25019,45707,34710
24999,45689,34675
24979,45668,34641
24962,45648,34607
24947,45628,34574
24931,45609,34542
24910,45586,34509
24884,45561,34477
24856,45534,34444
24828,45507,34407
24801,45481,34368
24778,45458,34329
24755,45434,34291
24730,45405,34253
24703,45375,34215
24674,45346,34177
24644,45320,34136
24615,45295,34093
24588,45270,34049
24562,45246,34008
24535,45223,33967
24504,45196,33920
24469,45166,33870
24434,45135,33818
24400,45105,33766
24368,45074,33716
24337,45041,33667
24304,45006,33619
24269,44970,33571
24232,44932,33521
24194,44891,33468
24155,44851,33413
24116,44810,33353
24075,44770,33289
24034,44729,33224
23992,44688,33159
23947,44647,33093
23900,44603,33022
23852,44556,32949
23808,44510,32879
23769,44465,32814
23735,44427,32757
23714,44406,32720
23712,44409,32717
23736,44437,32756
23790,44495,32843
23883,44592,32984
24020,44738,33188
24202,44933,33454
24427,45168,33779
24690,45437,34159
24983,45735,34586
25297,46056,35048
25625,46390,35534
25963,46733,36034
26305,47080,36537
26642,47419,37033
26970,47744,37513
27284,48055,37969
27577,48346,38394
27846,48612,38783
28091,48852,39135
28311,49066,39452
28504,49256,39734
28669,49421,39977
28808,49558,40179
28924,49670,40346
29017,49757,40481
29091,49821,40584
29148,49867,40658
29187,49894,40705
29207,49904,40727
29211,49900,40725
29203,49886,40704
29185,49862,40670
29159,49825,40626
29120,49781,40570
29070,49734,40504
29013,49683,40432
28953,49629,40355
28889,49570,40274
28824,49508,40192
28759,49447,40112
28694,49386,40032
28632,49328,39952
28577,49277,39875
28529,49235,39806
28488,49198,39746
28454,49164,39694
28424,49130,39648
28398,49099,39606
28373,49071,39566
28351,49045,39526
28328,49024,39489
28302,49004,39456
28274,48980,39420
28244,48952,39379
28215,48922,39336
28187,48890,39290
28157,48858,39242
28126,48828,39198
28096,48800,39159
28071,48774,39126
28049,48749,39095
28030,48728,39065
28017,48715,39040
28009,48712,39022
28004,48711,39011
28004,48711,39008
28006,48713,39015
28009,48720,39025
28014,48728,39036
28025,48736,39049
28039,48745,39067
28055,48757,39088
28072,48768,39109
28091,48778,39128
28107,48788,39145
28116,48797,39160
28120,48803,39171
28120,48810,39180
28119,48816,39185
28113,48818,39185
28102,48815,39179
28090,48809,39169
28077,48799,39152
28062,48785,39129
28042,48767,39100
28015,48742,39063
27983,48711,39020
27948,48676,38972
27911,48636,38917
27874,48593,38863
27838,48549,38808
27799,48504,38749
27756,48456,38683
27709,48404,38610
27659,48350,38534
27608,48295,38455
27556,48240,38374
27503,48183,38290
27446,48125,38203
27385,48064,38109
27320,47999,38010
27256,47932,37909
27192,47865,37812
27131,47800,37718
27072,47735,37628
27016,47674,37538
26958,47614,37449
26898,47554,37363
26842,47496,37281
26786,47440,37201
26730,47386,37120
26672,47331,37040
26615,47277,36961
26558,47225,36883
26502,47175,36808
26450,47126,36735
26402,47079,36665
26356,47037,36599
26309,46996,36535
26263,46955,36469
26220,46914,36401
26183,46876,36338
26150,46840,36280
26120,46804,36225
26091,46768,36173
26060,46735,36123
26028,46701,36075
25995,46666,36027
25962,46634,35982
25931,46604,35940
25900,46572,35899
25870,46539,35859
25842,46509,35822
25817,46483,35787
25794,46459,35752
25772,46437,35717
25748,46415,35683
25721,46393,35646
25690,46370,35604
25658,46346,35562
25629,46324,35521
25601,46301,35479
25572,46273,35434
25539,46242,35389
25506,46212,35346
25475,46184,35301
25444,46154,35253
25415,46125,35207
25388,46098,35166
25363,46073,35127
25336,46044,35085
25309,46012,35043
25280,45981,35001
25246,45951,34959
25211,45922,34914
25178,45891,34867
25147,45860,34817
25118,45829,34764
25090,45797,34709
25058,45764,34654
25020,45727,34600
24980,45687,34546
24940,45646,34490
24900,45604,34435
24857,45565,34380
24813,45524,34323
24767,45482,34263
24722,45436,34200
24677,45389,34136
24635,45342,34076
24595,45294,34017
24556,45248,33957
24517,45206,33898
24475,45166,33837
24430,45124,33773
24385,45084,33708
24342,45046,33642
24296,45006,33573
24250,44965,33503
24206,44923,33436
24163,44882,33373
24127,44846,33318
24106,44823,33281
24105,44821,33275
24130,44847,33307
24183,44904,33383
24272,44999,33510
24402,45137,33696
24574,45319,33944
24785,45541,34251
25033,45796,34613
25311,46082,35024
25616,46392,35474
25940,46717,35949
26277,47052,36439
26619,47393,36935
26960,47733,37428
27292,48062,37909
27611,48376,38369
27908,48671,38799
28180,48939,39196
28423,49181,39552
28641,49399,39868
28833,49594,40145
28998,49761,40386
29137,49899,40589
29247,50010,40753
29331,50096,40882
29391,50155,40977
29432,50193,41040
29459,50214,41075
29469,50218,41087
29462,50207,41074
29439,50179,41039
29407,50138,40987
29366,50086,40921
29317,50024,40843
29261,49957,40758
29196,49888,40669
29125,49818,40577
29055,49748,40482
28985,49678,40387
28917,49612,40296
28854,49552,40209
28797,49496,40126
28745,49444,40048
28694,49396,39976
28646,49353,39910
28603,49315,39850
28566,49281,39796
28531,49252,39747
28501,49224,39703
28473,49196,39661
28445,49169,39617
28416,49142,39574
28385,49115,39530
28353,49086,39484
28319,49054,39438
28284,49020,39389
28250,48985,39340
28217,48951,39291
28188,48919,39247
28162,48890,39210
28139,48868,39178
28122,48851,39151
28110,48840,39131
28104,48837,39120
28103,48839,39118
28105,48846,39123
28110,48853,39130
28117,48861,39138
28127,48871,39146
28140,48881,39158
28155,48893,39176
28172,48908,39201
28187,48924,39231
28200,48939,39263
28215,48955,39297
28232,48972,39328
28252,48988,39353
28272,49002,39375
28290,49014,39394
28303,49021,39409
28310,49022,39415
28311,49015,39410
28306,49005,39399
28296,48995,39382
28279,48982,39357
28258,48966,39324
28232,48946,39284
28199,48920,39237
28161,48888,39184
28119,48851,39124
28078,48811,39059
28036,48769,38991
27994,48724,38919
27950,48674,38846
27905,48620,38772
27855,48561,38694
27800,48497,38610
27742,48430,38522
27683,48364,38435
27624,48298,38348
27564,48233,38257
27502,48170,38166
27438,48106,38076
27375,48043,37983
27313,47981,37889
27251,47920,37800
27188,47861,37715
27124,47799,37632
27062,47738,37547
27004,47681,37462
26946,47626,37376
26889,47571,37292
26835,47519,37211
26786,47470,37136
26739,47428,37068
26694,47389,37004
26652,47352,36941
26615,47313,36881
26581,47273,36823
26546,47231,36768
26512,47189,36715
26480,47148,36665
26450,47110,36617
26421,47076,36571
26397,47050,36530
26375,47031,36493
26355,47014,36457
26333,46996,36422
26312,46978,36386
26294,46963,36352
26277,46951,36320
26260,46941,36288
26240,46929,36256
26220,46915,36226
26199,46902,36198
26177,46887,36167
26153,46867,36136
26129,46845,36106
26106,46821,36075
26084,46794,36039
26059,46765,36004
26033,46737,35969
26005,46709,35935
25976,46680,35899
25948,46653,35863
25922,46625,35826
25894,46596,35787
25865,46566,35743
25832,46533,35694
25794,46498,35640
25754,46464,35587
25713,46432,35534
25671,46397,35479
25627,46357,35421
25583,46311,35357
25540,46262,35288
25499,46215,35219
25458,46170,35151
25414,46123,35082
25369,46075,35013
25326,46028,34946
25285,45986,34886
25251,45949,34836
25232,45928,34803
25232,45928,34798
25256,45956,34829
25306,46014,34900
25389,46105,35016
25509,46234,35187
25669,46402,35413
25864,46604,35692
26092,46838,36019
26350,47101,36389
26631,47387,36793
26926,47688,37220
27228,47995,37660
27532,48303,38104
27831,48607,38542
28119,48902,38966
28390,49182,39370
28644,49443,39749
28880,49679,40098
29095,49889,40411
29287,50074,40686
29454,50232,40924
29596,50363,41124
29714,50466,41286
29807,50549,41415
29877,50615,41515
29926,50661,41586
29954,50688,41629
29967,50698,41644
29964,50693,41637
29948,50673,41608
29918,50638,41560
29875,50590,41499
29823,50533,41427
29763,50468,41342
29698,50397,41250
29630,50324,41157
29562,50249,41061
29492,50174,40962
29422,50101,40864
29353,50032,40767
29284,49967,40671
29218,49908,40579
29158,49853,40493
29104,49803,40416
29055,49755,40346
29009,49705,40279
28965,49656,40214
28924,49609,40149
28884,49565,40083
28843,49523,40015
28802,49478,39947
28760,49431,39876
28715,49383,39803
28668,49334,39730
28623,49287,39659
28580,49243,39596
28539,49203,39536
28501,49166,39476
28470,49135,39419
28445,49111,39373
28426,49094,39342
28412,49084,39325
28402,49082,39320
28398,49085,39325
28401,49093,39337
28412,49106,39357
28429,49125,39381
28452,49147,39411
28475,49168,39444
28499,49190,39479
28524,49213,39515
28550,49236,39549
28577,49259,39582
28604,49281,39613
28627,49300,39642
28641,49312,39663
28646,49319,39673
28647,49322,39675
28649,49326,39675
28651,49329,39674
28650,49326,39666
28644,49314,39650
28632,49298,39628
28615,49283,39604
28593,49264,39576
28568,49240,39539
28539,49211,39494
28504,49178,39441
28461,49137,39378
28413,49090,39306
28360,49038,39227
28303,48983,39145
28245,48924,39058
28185,48861,38968
28123,48792,38876
28060,48721,38781
27996,48651,38682
27934,48584,38583
27873,48520,38486
27811,48455,38389
27749,48387,38290
27687,48320,38192
27626,48255,38095
27565,48190,38001
27505,48125,37910
27443,48062,37820
27379,47997,37730
27315,47931,37639
27251,47867,37551
27189,47808,37466
27130,47754,37387
27072,47702,37308
27016,47652,37228
26964,47604,37150
26914,47557,37076
26868,47510,37005
26822,47464,36938
26779,47420,36872
26740,47377,36807
26704,47335,36743
26671,47296,36682
26639,47259,36624
26607,47223,36570
26575,47190,36519
26544,47161,36473
26515,47136,36433
26488,47112,36398
26459,47088,36363
26428,47067,36330
26399,47048,36297
26373,47029,36261
26347,47006,36220
26321,46981,36181
26295,46957,36147
26269,46934,36116
26245,46910,36082
26221,46883,36047
26197,46856,36010
26173,46828,35972
26149,46800,35935
26129,46774,35901
26110,46751,35868
26087,46727,35831
26062,46703,35789
26036,46680,35749
26010,46658,35714
25984,46633,35681
25955,46606,35646
25923,46578,35609
25889,46550,35568
25853,46518,35524
25818,46485,35476
25784,46453,35425
25748,46420,35372
25710,46384,35315
25671,46345,35253
25632,46306,35189
25592,46268,35124
25552,46228,35057
25514,46184,34989
25478,46141,34925
25440,46097,34864
25399,46052,34803
25356,46006,34740
25311,45961,34674
25262,45919,34608
25210,45878,34544
25161,45837,34483
25117,45797,34427
25081,45764,34383
25061,45746,34358
25066,45754,34365
25101,45795,34412
25172,45872,34510
25284,45989,34661
25438,46149,34872
25632,46351,35146
25865,46591,35476
26131,46863,35857
26423,47163,36282
26738,47485,36742
27069,47821,37225
27408,48159,37718
27748,48494,38210
28085,48826,38697
28414,49148,39170
28729,49455,39620
29023,49739,40038
29292,49999,40420
29533,50233,40762
29745,50437,41063
29931,50612,41326
30091,50761,41553
30224,50884,41745
30330,50981,41903
30413,51057,42028
30474,51113,42118
30514,51149,42173
30534,51170,42200
30537,51176,42206
30526,51168,42192
30502,51149,42161
30466,51117,42114
30419,51075,42052
30366,51026,41977
30307,50971,41896
30245,50913,41814
30184,50856,41733
30125,50797,41652
30064,50736,41568
30005,50679,41486
29951,50629,41411
29901,50583,41341
29854,50540,41276
29812,50500,41218
29779,50464,41169
29755,50433,41128
29738,50406,41091
29723,50383,41060
29707,50364,41031
29690,50344,41000
29674,50320,40967
29657,50296,40932
29636,50268,40897
29609,50232,40857
29578,50194,40813
29546,50161,40769
29516,50133,40724
29489,50109,40682
29465,50086,40643
29444,50065,40605
29425,50046,40572
29410,50029,40545
29399,50012,40522
29391,50001,40504
29387,49996,40494
29384,49995,40487
29383,49996,40483
29387,50002,40486
29394,50011,40496
29404,50020,40506
29416,50033,40520
29428,50049,40536
29440,50062,40553
29452,50072,40566
29464,50081,40577
29473,50090,40587
29482,50096,40598
29488,50096,40606
29490,50093,40609
29486,50088,40610
29478,50081,40606
29466,50074,40594
29450,50063,40576
29431,50050,40555
29410,50035,40529
29387,50013,40495
29359,49983,40453
29328,49950,40409
29293,49913,40361
29253,49869,40305
29204,49818,40239
29148,49761,40163
29090,49700,40076
29031,49636,39982
28970,49570,39886
28907,49501,39791
28840,49431,39694
28770,49359,39596
28700,49289,39497
28630,49220,39398
28560,49151,39299
28488,49082,39200
28416,49010,39101
28346,48942,39004
28279,48876,38909
28214,48811,38813
28152,48750,38718
28092,48689,38626
28031,48625,38535
27970,48561,38447
27912,48500,38365
27858,48445,38285
27810,48394,38209
27767,48347,38139
27729,48303,38075
27694,48261,38015
27656,48219,37955
27615,48179,37893
27574,48143,37832
27534,48107,37771
27494,48071,37714
27456,48039,37662
27420,48010,37617
27384,47982,37576
27349,47954,37532
27317,47928,37486
27289,47903,37439
27264,47879,37391
27238,47853,37343
27212,47826,37297
27184,47800,37251
27154,47771,37206
27124,47740,37163
27097,47711,37125
27072,47685,37091
27047,47660,37055
27021,47634,37015
26992,47607,36973
26962,47580,36930
26933,47552,36889
26903,47521,36849
26873,47488,36810
26842,47456,36771
26812,47423,36730
26784,47389,36686
26758,47353,36644
26732,47319,36603
26703,47285,36558
26668,47249,36507
26630,47215,36454
26590,47182,36400
26549,47149,36345
26508,47116,36290
26469,47083,36232
26433,47049,36175
26397,47013,36118
26361,46978,36062
26327,46945,36007
26295,46911,35955
26264,46874,35901
26230,46833,35846
26193,46793,35789
26153,46753,35732
26112,46713,35674
26070,46671,35615
26026,46628,35555
25981,46582,35493
25934,46533,35428
25887,46483,35362
25842,46436,35296
25797,46388,35231
25752,46341,35166
25707,46296,35100
25662,46255,35033
25617,46215,34968
25573,46175,34902
25528,46134,34835
25483,46092,34766
25436,46049,34696
25387,46006,34626
25336,45961,34557
25283,45916,34486
25232,45872,34415
25185,45829,34348
25149,45794,34295
25130,45774,34264
25135,45776,34265
25169,45808,34307
25236,45877,34399
25340,45989,34547
25485,46146,34754
25672,46345,35025
25900,46585,35360
26166,46863,35753
26464,47172,36191
26787,47505,36661
27128,47854,37157
27480,48213,37668
27836,48571,38183
28190,48920,38689
28534,49256,39176
28860,49575,39637
29163,49872,40067
29438,50142,40463
29685,50383,40825
29905,50595,41152
30096,50778,41440
30260,50933,41684
30397,51061,41883
30508,51164,42040
30596,51243,42160
30665,51302,42248
30714,51342,42309
30741,51362,42344
30748,51363,42354
30739,51350,42340
30717,51325,42307
30685,51292,42256
30643,51250,42191
30592,51198,42113
30535,51138,42027
30474,51072,41937
30412,51004,41844
30350,50938,41752
30291,50876,41666
30233,50820,41587
30179,50769,41513
30129,50723,41446
30085,50681,41387
30047,50644,41335
30016,50610,41290
29990,50581,41252
29966,50555,41219
29945,50534,41191
29928,50519,41167
29915,50508,41145
29901,50498,41123
29886,50487,41102
29871,50473,41079
29854,50453,41052
29836,50426,41018
29816,50395,40980
29794,50362,40937
29767,50331,40893
29739,50304,40849
29710,50279,40804
29684,50257,40761
29661,50241,40725
29640,50229,40699
29623,50220,40679
29610,50211,40662
29606,50206,40649
29608,50206,40642
29614,50208,40642
29623,50211,40648
29637,50216,40661
29650,50221,40677
29661,50225,40693
29673,50232,40710
29686,50243,40728
29697,50256,40744
29706,50269,40755
29714,50279,40766
29719,50288,40777
29718,50292,40783
29711,50288,40786
29701,50278,40782
29686,50265,40769
29667,50246,40745
29645,50223,40715
29621,50197,40679
29597,50170,40640
29568,50138,40594
29536,50102,40540
29501,50066,40482
29465,50027,40419
29424,49983,40353
29378,49935,40285
29326,49883,40211
29271,49826,40132
29213,49765,40047
29151,49701,39959
29086,49638,39870
29023,49577,39778
28959,49513,39684
28894,49447,39588
28829,49382,39492
28765,49318,39395
28703,49254,39299
28640,49188,39205
28577,49124,39114
28512,49060,39024
28449,48996,38932
28387,48934,38839
28328,48873,38749
28273,48815,38662
28220,48757,38577
28168,48699,38496
28117,48642,38419
28068,48590,38344
28022,48543,38268
27978,48501,38196
27935,48463,38131
27891,48425,38071
27847,48383,38013
27808,48340,37959
27771,48299,37906
27736,48261,37853
27702,48225,37803
27669,48191,37755
27636,48156,37708
27603,48121,37660
27571,48089,37611
27541,48060,37565
27511,48032,37524
27480,48003,37483
27449,47976,37441
27420,47955,37401
27393,47936,37360
27367,47915,37319
27340,47892,37277
27312,47865,37233
27280,47834,37186
27245,47799,37136
27210,47765,37087
27177,47735,37042
27144,47705,37002
27111,47674,36962
27076,47639,36918
27040,47603,36870
27005,47566,36819
26970,47531,36767
26937,47499,36716
26905,47468,36668
26869,47433,36619
26830,47393,36567
26792,47352,36515
26757,47313,36464
26724,47277,36413
26691,47243,36362
26658,47208,36310
26626,47174,36256
26594,47141,36201
26561,47109,36144
26526,47078,36085
26489,47044,36025
26449,47004,35962
26406,46960,35895
26363,46913,35825
26320,46864,35756
26276,46813,35686
26230,46764,35618
26184,46717,35552
26136,46669,35485
26087,46622,35417
26038,46577,35353
25991,46536,35290
25944,46495,35228
25898,46452,35162
25853,46405,35093
25808,46356,35022
25762,46308,34947
25716,46260,34875
25669,46216,34809
25628,46180,34751
25597,46157,34709
25585,46150,34689
25595,46166,34702
25635,46212,34759
25708,46289,34863
25817,46400,35019
25966,46551,35231
26153,46744,35501
26375,46975,35823
26624,47236,36192
26895,47520,36598
27184,47820,37028
27486,48128,37475
27793,48439,37930
28101,48750,38379
28403,49054,38815
28691,49343,39231
28962,49610,39621
29211,49853,39978
29435,50072,40302
29633,50262,40588
29804,50423,40833
29951,50559,41041
30075,50672,41212
30174,50760,41348
30248,50822,41448
30296,50856,41515
30321,50866,41551
30328,50857,41558
30321,50836,41541
30300,50807,41507
30265,50770,41457
30218,50724,41391
30165,50671,41315
30106,50612,41233
30042,50545,41144
29975,50474,41048
29907,50399,40946
29841,50324,40840
29775,50254,40734
29712,50188,40634
29651,50128,40542
29595,50074,40461
29543,50025,40390
29493,49977,40324
29449,49932,40264
29414,49892,40210
29384,49859,40160
29356,49827,40115
29327,49796,40072
29299,49767,40029
29270,49736,39984
29241,49703,39935
29213,49669,39885
29185,49636,39835
29155,49600,39781
29124,49563,39726
29092,49531,39674
29062,49506,39631
29036,49484,39593
29012,49463,39560
28992,49443,39532
28975,49426,39511
28964,49415,39497
28960,49413,39492
28963,49420,39498
28973,49434,39515
28987,49453,39536
29001,49475,39557
29017,49499,39581
29037,49522,39606
29060,49542,39632
29083,49560,39659
29104,49579,39688
29122,49599,39717
29138,49617,39744
29154,49633,39767
29168,49648,39784
29182,49662,39796
29194,49673,39801
29204,49678,39801
29208,49675,39798
29204,49662,39787
29195,49644,39767
29179,49622,39740
29156,49596,39708
29127,49565,39670
29093,49528,39624
29053,49484,39570
29009,49436,39512
28962,49384,39450
28912,49329,39382
28859,49269,39310
28807,49208,39233
28753,49148,39150
28697,49089,39062
28639,49029,38975
28579,48968,38890
28516,48903,38799
28449,48835,38705
28384,48770,38611
28321,48709,38517
28260,48650,38425
28199,48592,38336
28139,48534,38248
28080,48474,38160
28020,48412,38067
27958,48348,37974
27900,48287,37885
27844,48232,37800
27788,48180,37718
27734,48128,37636
27679,48078,37556
27624,48027,37479
27571,47976,37402
27523,47927,37323
27478,47880,37246
27432,47835,37174
27385,47789,37105
27339,47744,37041
27295,47700,36980
27256,47660,36922
27219,47623,36865
27187,47590,36813
27158,47560,36766
27129,47530,36721
27099,47499,36674
27068,47466,36628
27037,47433,36586
27006,47401,36547
26976,47373,36509
26950,47349,36470
26925,47325,36431
26900,47296,36391
26878,47263,36351
26859,47231,36313
26839,47203,36276
26816,47176,36239
26786,47147,36200
26753,47118,36155
26716,47090,36104
26679,47060,36050
26641,47028,35995
26604,46996,35943
26568,46966,35895
26533,46937,35850
26498,46906,35806
26465,46870,35759
26432,46834,35711
26400,46797,35663
26369,46763,35617
26337,46730,35574
26300,46697,35532
26261,46661,35485
26223,46626,35435
26188,46593,35384
26154,46560,35334
26120,46522,35279
26082,46481,35220
26042,46440,35160
25999,46401,35096
25953,46360,35029
25905,46318,34960
25856,46275,34892
25810,46229,34828
25766,46180,34764
25721,46130,34698
25675,46080,34633
25630,46033,34568
25587,45985,34500
25544,45936,34431
25500,45888,34360
25454,45839,34287
25407,45789,34214
25359,45739,34141
25310,45690,34071
25259,45644,34001
25208,45599,33932
25158,45556,33865
25111,45516,33803
25070,45485,33752
25046,45470,33723
25045,45477,33727
25075,45513,33773
25141,45582,33868
25244,45688,34017
25386,45835,34226
25564,46021,34492
25779,46243,34809
26031,46498,35177
26311,46782,35588
26614,47086,36030
26932,47403,36493
27257,47726,36968
27581,48052,37446
27900,48372,37916
28209,48680,38369
28506,48973,38799
28781,49247,39198
29032,49495,39563
29256,49714,39887
29454,49902,40172
29624,50064,40419
29769,50199,40628
29890,50310,40799
29985,50396,40937
30057,50457,41043
30105,50493,41117
30134,50510,41159
30146,50512,41174
30143,50501,41166
30125,50478,41136
30094,50443,41086
30053,50395,41022
30005,50336,40948
29950,50268,40863
29890,50198,40770
29827,50124,40675
29763,50050,40579
29697,49974,40483
29632,49900,40388
29571,49834,40298
29517,49777,40216
29470,49729,40141
29428,49691,40075
29389,49657,40017
29353,49626,39965
29325,49599,39917
29305,49578,39877
29289,49560,39845
29274,49543,39818
29257,49524,39791
29237,49502,39761
29212,49477,39729
29185,49453,39695
29161,49427,39660
29140,49403,39621
29119,49381,39582
29099,49359,39542
29081,49337,39505
29065,49315,39473
29049,49295,39447
29031,49278,39422
29014,49263,39397
29003,49253,39378
28997,49249,39367
28995,49247,39362
28997,49246,39362
29003,49249,39367
29012,49257,39375
29020,49269,39388
29025,49279,39404
29034,49288,39420
29049,49300,39439
29068,49315,39464
29088,49333,39491
29104,49351,39519
29116,49366,39544
29124,49378,39565
29131,49386,39580
29137,49393,39591
29142,49398,39596
29143,49399,39595
29141,49394,39588
29135,49384,39574
29125,49370,39554
29110,49350,39525
29093,49325,39488
29070,49296,39443
29039,49260,39391
29001,49217,39330
28957,49169,39258
28910,49119,39179
28861,49068,39099
28809,49014,39018
28756,48961,38939
28705,48910,38862
28654,48857,38783
28602,48797,38699
28545,48733,38610
28485,48669,38520
28423,48605,38429
28359,48536,38333
28293,48463,38234
28226,48390,38132
28157,48317,38028
28087,48246,37926
28017,48178,37826
27947,48110,37728
27877,48042,37631
27810,47977,37537
27746,47917,37449
27688,47865,37367
27635,47813,37289
27585,47762,37214
27538,47713,37143
27491,47665,37075
27445,47616,37008
27397,47565,36941
27351,47514,36876
27310,47468,36814
27273,47425,36751
27235,47385,36688
27199,47349,36624
27164,47315,36562
27131,47283,36504
27097,47253,36451
27061,47224,36402
27026,47193,36355
26991,47159,36305
26956,47125,36254
26922,47094,36206
26891,47064,36158
26863,47036,36111
26838,47011,36066
26813,46986,36026
26786,46960,35990
26756,46932,35953
26722,46901,35912
26688,46872,35867
26652,46842,35819
26615,46810,35768
26579,46778,35714
26544,46744,35660
26510,46709,35603
26474,46671,35542
26436,46631,35478
26396,46590,35416
26354,46549,35355
26313,46509,35295
26271,46471,35235
26230,46432,35176
26189,46390,35115
26146,46344,35052
26103,46298,34990
26061,46254,34933
26019,46214,34879
25979,46175,34823
25935,46135,34763
25890,46094,34698
25845,46054,34628
25802,46015,34557
25761,45978,34489
25723,45941,34424
25684,45902,34361
25644,45861,34302
25603,45819,34244
25562,45774,34184
25520,45727,34121
25481,45680,34058
25443,45636,33994
25405,45594,33931
25366,45550,33868
25324,45506,33803
25278,45462,33737
25231,45420,33672
25183,45379,33608
25137,45334,33546
25093,45288,33485
25049,45242,33422
25003,45196,33355
24955,45148,33284
24909,45102,33213
24861,45056,33141
24811,45010,33070
24758,44963,33000
24706,44917,32933
24656,44870,32868
24609,44825,32801
24566,44779,32735
24526,44735,32675
24489,44694,32620
24453,44659,32567
24422,44629,32523
24403,44614,32498
24404,44620,32503
24431,44654,32544
24490,44722,32630
24585,44826,32766
24717,44968,32957
24887,45148,33203
25094,45366,33502
25334,45614,33852
25600,45887,34242
25888,46177,34662
26189,46477,35103
26497,46786,35554
26809,47097,36006
27118,47402,36453
27417,47696,36886
27701,47974,37297
27960,48229,37676
28192,48456,38023
28400,48659,38336
28583,48836,38615
28743,48988,38856
28880,49118,39064
28994,49229,39237
29084,49318,39375
29152,49384,39477
29201,49426,39545
29230,49447,39579
29243,49450,39586
29239,49436,39574
29222,49410,39549
29197,49373,39515
29162,49327,39469
29117,49271,39407
29066,49210,39335
29013,49150,39255
28958,49090,39170
28903,49030,39081
28847,48971,38991
28794,48914,38904
28742,48859,38820
28692,48806,38740
28644,48757,38666
28602,48715,38601
28566,48677,38543
28534,48643,38492
28506,48612,38448
28481,48588,38411
28461,48570,38380
28446,48553,38351
28432,48534,38328
28419,48516,38309
28406,48496,38288
28393,48477,38264
28380,48460,38240
28364,48441,38213
28344,48420,38182
28321,48397,38147
28295,48374,38110
28268,48352,38073
28242,48332,38036
28220,48313,38002
28201,48298,37973
28187,48287,37951
28176,48278,37935
28167,48270,37925
28160,48265,37921
28157,48264,37917
28157,48263,37914
28159,48264,37914
28166,48269,37920
28177,48276,37931
28188,48282,37945
28198,48289,37962
28208,48298,37978
28217,48307,37990
28222,48312,37999
28226,48316,38008
28230,48320,38018
28233,48322,38023
28232,48320,38022
28227,48315,38014
28218,48310,38006
28207,48303,37997
28194,48291,37984
28180,48273,37962
28162,48248,37932
28139,48218,37893
28110,48185,37847
28077,48153,37799
28040,48118,37748
27998,48077,37690
27951,48029,37625
27901,47973,37554
27849,47915,37480
