green_channel,red_channel,ir_channel
35763,43286,23293
35778,43316,23288
35757,43286,23239
35749,43265,23207
35813,43329,23262
35891,43406,23336
35915,43413,23352
35932,43421,23370
36003,43502,23457
36077,43586,23549
36097,43609,23586
36112,43630,23631
36168,43707,23728
36216,43769,23808
36216,43762,23824
36219,43757,23848
36257,43802,23909
36273,43820,23928
36237,43774,23883
36209,43739,23858
36213,43743,23871
36184,43708,23836
36111,43622,23751
36063,43571,23701
36043,43555,23674
35978,43484,23582
35872,43360,23437
35792,43274,23327
35726,43215,23229
35607,43091,23057
35456,42925,22844
35346,42810,22683
35253,42721,22542
35114,42574,22340
34959,42409,22125
34860,42316,21982
34787,42250,21861
34675,42127,21682
34560,41998,21503
34504,41944,21396
34464,41904,21296
34371,41798,21126
34269,41686,20946
34222,41644,20836
34178,41605,20732
34074,41492,20555
33967,41377,20375
33920,41332,20262
33873,41288,20153
33768,41175,19983
33667,41063,19822
33624,41014,19732
33576,40959,19639
33479,40844,19493
33389,40742,19365
33342,40697,19286
33285,40635,19176
33195,40527,19027
33135,40456,18921
33118,40439,18857
33074,40386,18748
32992,40288,18598
32938,40231,18496
32917,40213,18433
32862,40143,18325
32779,40036,18183
32737,39981,18087
32717,39957,18016
32647,39872,17889
32547,39759,17739
32500,39718,17660
32492,39721,17627
32449,39676,17557
32404,39625,17497
32440,39671,17548
32536,39778,17676
32620,39861,17802
32733,39977,17981
32950,40220,18304
33229,40528,18713
33490,40797,19116
33770,41082,19565
34131,41468,20132
34508,41879,20738
34828,42221,21298
35146,42561,21869
35523,42978,22514
35896,43392,23151
36201,43724,23705
36497,44038,24246
36834,44398,24824
37140,44722,25350
37362,44952,25766
37561,45165,26149
37779,45408,26543
37955,45594,26867
38049,45689,27090
38126,45780,27290
38212,45888,27478
38242,45919,27566
38207,45870,27558
38187,45845,27552
38183,45848,27549
38122,45787,27466
38017,45673,27331
37942,45601,27233
37887,45558,27146
37783,45452,26983
37649,45304,26776
37564,45206,26620
37505,45134,26485
37395,45006,26283
37264,44859,26059
37185,44781,25902
37127,44722,25762
37013,44593,25555
36880,44450,25333
36802,44383,25181
36739,44328,25037
36622,44193,24819
36501,44046,24600
36443,43981,24462
36391,43928,24326
36281,43799,24120
36171,43666,23928
36132,43620,23831
36113,43597,23756
36052,43518,23632
36003,43449,23529
36022,43465,23512
36048,43491,23506
36026,43459,23452
36013,43439,23428
36051,43480,23471
36081,43506,23496
36066,43476,23478
36075,43482,23504
36131,43552,23588
36161,43589,23638
36157,43576,23649
36194,43609,23708
36274,43691,23808
36319,43725,23857
36329,43716,23871
36372,43763,23935
36434,43844,24027
36435,43857,24049
36394,43823,24032
36392,43840,24065
36409,43882,24111
36374,43855,24082
36313,43795,24020
36299,43794,24009
36306,43809,24005
36256,43748,23924
36179,43659,23820
36145,43627,23772
36120,43595,23719
36030,43481,23580
35924,43352,23423
35875,43298,23333
35835,43255,23248
35737,43144,23087
35636,43029,22918
35593,42982,22813
35543,42931,22705
35430,42811,22531
35322,42699,22364
35278,42658,22266
35237,42612,22157
35149,42503,21985
35071,42404,21830
35042,42370,21739
34995,42321,21629
34901,42217,21468
34830,42141,21343
34803,42117,21267
34747,42056,21149
34653,41945,20986
34588,41875,20875
34554,41851,20812
34484,41779,20698
34383,41671,20549
34332,41627,20466
34320,41623,20423
34265,41559,20324
34175,41457,20192
34129,41413,20125
34115,41404,20089
34062,41339,19990
33989,41249,19869
33958,41218,19812
33939,41203,19765
33870,41121,19649
33794,41026,19527
33772,41004,19482
33763,40998,19450
33701,40919,19345
33634,40836,19234
33630,40836,19199
33636,40850,19177
33586,40795,19097
33539,40756,19038
33573,40817,19082
33645,40909,19173
33699,40966,19248
33798,41068,19391
34006,41288,19676
34262,41555,20033
34508,41806,20408
34799,42108,20868
35167,42504,21447
35541,42907,22054
35876,43264,22642
36238,43654,23289
36657,44110,24006
37058,44544,24694
37415,44924,25329
37792,45328,25987
38187,45752,26663
38515,46100,27249
38768,46368,27740
39020,46645,28225
39264,46919,28688
39431,47102,29037
39538,47221,29294
39663,47371,29556
39789,47521,29797
39837,47580,29926
39836,47585,29982
39867,47629,30057
39901,47673,30115
39862,47630,30072
39784,47546,29982
39740,47513,29935
39695,47480,29870
39582,47357,29701
39459,47219,29509
39408,47167,29392
39368,47123,29279
39259,46996,29087
39151,46866,28896
39114,46815,28785
39077,46757,28674
38966,46613,28480
38842,46467,28273
38772,46399,28129
38694,46322,27977
38552,46171,27759
38416,46034,27556
38338,45965,27410
38252,45871,27236
38118,45713,27008
38007,45590,26822
37951,45536,26702
37879,45452,26556
37780,45330,26387
37730,45271,26290
37730,45271,26255
37692,45222,26177
37618,45136,26070
37595,45124,26039
37623,45172,26063
37622,45171,26043
37607,45140,26009
37653,45185,26056
37727,45270,26145
37746,45284,26171
37741,45266,26173
37795,45322,26252
37869,45405,26350
37877,45409,26361
37855,45384,26350
37890,45433,26424
37938,45499,26516
37918,45481,26524
37892,45458,26520
37942,45525,26597
37998,45593,26668
37974,45562,26637
37926,45514,26576
37932,45532,26571
37926,45530,26546
37842,45426,26430
37753,45315,26307
37727,45278,26248
37696,45231,26172
37595,45109,26019
37497,45005,25880
37464,44981,25806
37420,44934,25698
37310,44808,25518
37209,44696,25359
37151,44638,25245
37061,44539,25086
36927,44383,24878
36833,44279,24721
36789,44237,24614
36711,44149,24458
36594,44011,24263
36520,43932,24131
36482,43899,24044
36389,43798,23893
36256,43651,23699
36175,43570,23569
36133,43527,23475
36035,43411,23314
35905,43263,23127
35834,43195,23014
35792,43157,22927
35692,43042,22767
35573,42910,22596
35523,42866,22517
35495,42845,22459
35404,42744,22322
35299,42635,22178
35263,42615,22114
35236,42597,22051
35138,42487,21901
35039,42375,21747
35017,42358,21681
35003,42350,21625
34917,42260,21495
34827,42169,21369
34801,42156,21320
34766,42135,21260
34665,42032,21121
34576,41933,20992
34552,41907,20926
34520,41866,20829
34431,41757,20664
34352,41670,20535
34320,41642,20465
34266,41579,20360
34175,41466,20211
34122,41403,20122
34119,41402,20096
34086,41362,20036
34033,41295,19966
34061,41326,20005
34165,41447,20138
34256,41549,20269
34357,41654,20442
34565,41882,20766
34862,42211,21210
35152,42520,21664
35452,42832,22160
35841,43250,22785
36278,43722,23478
36670,44131,24126
37044,44519,24774
37468,44981,25505
37886,45447,26231
38211,45802,26837
38487,46105,27386
38795,46465,27978
39082,46808,28531
39273,47033,28945
39439,47221,29299
39656,47467,29686
39853,47686,30016
39952,47787,30204
40018,47853,30341
40117,47962,30505
40175,48030,30611
40137,47992,30601
40085,47939,30566
40073,47937,30559
40038,47901,30495
39944,47785,30346
39860,47683,30214
39816,47636,30123
39742,47546,29972
39615,47387,29755
39513,47266,29577
39452,47204,29444
39347,47091,29256
39192,46926,29024
39079,46820,28856
39012,46763,28737
38906,46649,28560
38770,46494,28343
38693,46407,28186
38653,46360,28066
38557,46245,27880
38431,46100,27672
38367,46032,27550
38338,46002,27464
38259,45904,27311
38164,45786,27150
38132,45753,27082
38119,45748,27038
38044,45664,26917
37964,45572,26794
37967,45582,26770
37996,45619,26767
37966,45579,26693
37938,45543,26627
37990,45605,26656
38054,45679,26701
38057,45672,26680
38063,45669,26669
38134,45746,26736
38206,45818,26803
38214,45817,26807
38223,45828,26830
38290,45906,26922
38346,45962,26996
38336,45940,27007
38319,45928,27031
38344,45967,27092
38347,45964,27099
38300,45898,27041
38278,45871,27019
38293,45895,27035
38267,45865,26991
38193,45778,26893
38154,45744,26844
38149,45749,26823
38088,45681,26726
37986,45563,26581
37934,45511,26497
37915,45496,26445
37834,45406,26322
37712,45279,26163
37639,45215,26060
37591,45169,25965
37487,45047,25788
37363,44908,25593
37301,44852,25483
37265,44819,25399
37176,44711,25240
37080,44596,25071
37051,44568,24984
37026,44546,24903
36920,44427,24731
36799,44294,24548
36746,44243,24448
36699,44198,24350
36590,44073,24167
36488,43953,23986
36453,43914,23884
36409,43869,23776
36300,43744,23601
36194,43625,23440
36152,43583,23343
36106,43530,23225
36005,43407,23046
35922,43310,22908
35896,43281,22843
35845,43220,22746
35744,43104,22602
35674,43036,22512
35644,43023,22472
35566,42949,22367
35444,42817,22211
35373,42745,22115
35346,42720,22057
35272,42629,21931
35163,42497,21763
35112,42437,21669
35102,42425,21619
35048,42353,21507
34973,42254,21372
34952,42230,21308
34951,42232,21267
34885,42156,21153
34797,42060,21024
34770,42044,20977
34759,42044,20943
34680,41958,20825
34586,41861,20701
34568,41860,20667
34571,41877,20645
34510,41810,20538
34444,41733,20428
34449,41742,20409
34457,41760,20402
34403,41701,20325
34368,41662,20280
34425,41736,20360
34514,41842,20488
34580,41908,20602
34699,42035,20802
34932,42290,21148
35201,42574,21545
35453,42829,21941
35752,43140,22427
36131,43542,23026
36502,43931,23628
36830,44274,24208
37191,44668,24857
37596,45119,25560
37951,45504,26195
38246,45818,26754
38575,46169,27340
38931,46552,27940
39210,46851,28440
39413,47071,28849
39619,47315,29261
39815,47555,29645
39924,47684,29900
39979,47745,30066
40068,47846,30248
40154,47948,30405
40153,47950,30438
40111,47907,30410
40113,47925,30428
40115,47947,30429
40038,47870,30315
39942,47771,30169
39910,47754,30096
39879,47736,30018
39767,47611,29837
39634,47461,29633
39565,47384,29503
39498,47306,29371
39360,47141,29151
39224,46979,28927
39162,46908,28782
39099,46839,28630
38969,46687,28403
38839,46540,28190
38767,46470,28050
38683,46381,27890
38535,46216,27670
38397,46070,27479
38310,45985,27337
38201,45864,27147
38038,45682,26904
37905,45545,26721
37828,45470,26607
37731,45359,26453
37611,45218,26262
37562,45158,26145
37577,45167,26097
37558,45126,26015
37508,45050,25919
37517,45056,25912
37563,45116,25957
37560,45110,25944
37529,45072,25908
37555,45110,25947
37612,45178,26018
37612,45171,26024
37586,45146,26022
37621,45203,26107
37671,45277,26203
37656,45266,26208
37631,45241,26202
37670,45300,26280
37710,45362,26353
37679,45336,26324
37647,45302,26283
37683,45347,26320
37714,45389,26354
37668,45336,26298
37610,45267,26226
37611,45269,26212
37600,45254,26175
37502,45137,26041
37390,45012,25898
37333,44961,25812
37261,44890,25697
37118,44737,25507
36982,44600,25336
36898,44521,25215
36797,44403,25051
36649,44227,24829
36537,44101,24655
36481,44041,24537
36391,43936,24368
36254,43780,24147
36161,43681,23985
36109,43632,23868
36007,43521,23684
35870,43366,23468
35788,43283,23330
35742,43241,23232
35642,43128,23067
35513,42983,22883
35440,42917,22779
35398,42885,22707
35303,42782,22569
35188,42659,22418
35130,42617,22344
35093,42597,22283
34997,42499,22146
34890,42395,22005
34854,42383,21957
34829,42379,21920
34730,42279,21790
34620,42162,21646
34587,42126,21582
34562,42090,21516
34466,41968,21366
34371,41850,21220
34346,41820,21160
34319,41789,21096
34226,41679,20953
34138,41579,20818
34111,41559,20757
34067,41526,20676
33957,41419,20528
33855,41325,20403
33807,41293,20338
33742,41234,20237
33635,41115,20081
33565,41041,19974
33549,41027,19920
33507,40968,19825
33439,40872,19708
33433,40857,19680
33490,40916,19729
33526,40949,19760
33557,40976,19801
33671,41106,19969
33852,41312,20241
34013,41487,20509
34179,41663,20809
34433,41943,21237
34740,42282,21742
35010,42574,22213
35277,42858,22697
35615,43230,23286
35973,43627,23896
36268,43939,24419
36543,44233,24928
36871,44602,25514
37184,44956,26076
37398,45193,26504
37573,45397,26879
37795,45666,27299
37993,45906,27676
38078,46017,27911
38120,46082,28080
38201,46192,28271
38262,46272,28409
38239,46248,28423
38205,46209,28408
38218,46226,28430
38205,46214,28404
38115,46113,28287
38020,46012,28173
37962,45955,28093
37869,45855,27951
37721,45690,27734
37596,45563,27548
37509,45488,27396
37374,45354,27177
37191,45167,26905
37053,45039,26690
36959,44955,26515
36818,44803,26278
36634,44599,25996
36498,44454,25776
36405,44355,25596
36274,44203,25355
36123,44022,25088
36028,43914,24900
35966,43850,24755
35861,43731,24556
35737,43596,24351
35676,43544,24231
35649,43526,24142
35578,43440,23996
35506,43350,23866
35503,43354,23841
35506,43376,23835
35448,43321,23756
35390,43264,23682
35404,43296,23701
35432,43340,23739
35403,43308,23715
35379,43279,23703
35430,43336,23773
35495,43399,23846
35501,43387,23850
35503,43383,23863
35561,43456,23943
35612,43522,24012
35603,43522,24021
35606,43538,24048
35657,43611,24125
35681,43650,24160
35652,43627,24135
35647,43632,24141
35680,43677,24180
35676,43663,24158
35628,43591,24081
35613,43562,24046
35623,43565,24041
35578,43505,23968
35495,43405,23845
35461,43363,23773
35458,43353,23725
35401,43278,23607
35311,43163,23452
35261,43098,23352
35225,43051,23265
35127,42934,23103
35000,42793,22917
34924,42720,22803
34870,42670,22711
34762,42553,22549
34643,42431,22381
34588,42394,22300
34545,42370,22230
34442,42269,22077
34332,42153,21912
34289,42114,21817
34256,42082,21718
34163,41973,21543
34066,41858,21372
34027,41813,21272
33979,41755,21161
33859,41617,20975
33736,41485,20800
33672,41427,20698
33605,41367,20588
33497,41255,20428
33415,41173,20303
33392,41159,20241
33362,41124,20151
33295,41035,20013
33250,40979,19916
33239,40971,19866
33182,40912,19767
33079,40797,19623
33016,40733,19529
32996,40712,19471
32939,40637,19358
32852,40528,19213
32812,40483,19129
32802,40476,19084
32745,40407,18989
32665,40313,18879
32650,40296,18853
32678,40328,18884
32684,40328,18894
32710,40354,18943
32832,40499,19131
33010,40711,19404
33175,40892,19669
33371,41099,19986
33662,41419,20441
33986,41784,20959
34269,42095,21446
34562,42416,21962
34929,42831,22579
35305,43251,23205
35619,43585,23755
35928,43908,24299
36290,44301,24902
36640,44680,25481
36913,44963,25964
37159,45214,26419
37426,45498,26885
37657,45746,27286
37808,45904,27581
37937,46042,27849
38077,46203,28119
38168,46310,28306
38192,46335,28401
38220,46371,28499
38263,46433,28605
38248,46428,28625
38180,46356,28568
38142,46312,28525
38119,46291,28487
38035,46203,28370
37907,46062,28193
37816,45964,28045
37747,45893,27912
37618,45756,27711
37457,45582,27473
37348,45466,27291
37272,45381,27131
37151,45237,26906
37011,45070,26663
36926,44969,26496
36861,44889,26349
36740,44740,26131
36606,44586,25910
36534,44519,25781
36476,44466,25671
36356,44336,25489
36230,44203,25305
36177,44154,25202
36139,44115,25109
36048,44008,24949
35960,43911,24796
35939,43899,24727
35929,43888,24674
35870,43812,24573
35826,43760,24498
35852,43797,24507
35888,43841,24522
35888,43832,24499
35903,43843,24516
35966,43915,24596
36013,43960,24646
36020,43951,24652
36060,43986,24708
36141,44078,24814
36178,44118,24866
36169,44097,24871
36201,44125,24925
36269,44200,25015
36285,44217,25037
36262,44191,25017
36284,44219,25054
36328,44275,25116
36317,44263,25103
36274,44210,25053
36272,44209,25056
36283,44223,25062
36231,44157,24978
36150,44053,24860
36116,44010,24802
36092,43978,24741
36009,43867,24591
35916,43750,24433
35888,43722,24356
35872,43706,24285
35787,43605,24126
35683,43492,23950
35639,43459,23850
35600,43430,23757
35497,43318,23585
35388,43200,23405
35344,43159,23298
35308,43121,23197
35216,43013,23037
35132,42918,22893
35113,42894,22819
35085,42856,22728
34997,42749,22570
34918,42656,22431
34887,42618,22345
34833,42549,22227
34733,42427,22060
34662,42345,21938
34629,42313,21863
34553,42234,21736
34445,42111,21564
34390,42045,21446
34374,42023,21374
34307,41941,21255
34204,41816,21104
34151,41754,21014
34131,41729,20955
34061,41637,20833
33967,41517,20683
33932,41477,20606
33928,41479,20567
33886,41429,20486
33843,41380,20419
33878,41432,20458
33958,41535,20557
34010,41595,20637
34084,41683,20769
34265,41899,21049
34506,42169,21407
34723,42399,21759
34967,42663,22176
35311,43048,22732
35692,43468,23346
36029,43828,23926
36371,44202,24531
36775,44655,25216
37174,45092,25889
37497,45437,26481
37801,45770,27056
38139,46149,27657
38450,46487,28201
38682,46731,28643
38896,46964,29061
39134,47227,29481
39324,47431,29812
39439,47547,30041
39549,47668,30269
39666,47810,30496
39724,47877,30628
39725,47870,30674
39751,47890,30736
39791,47931,30796
39762,47894,30750
39678,47793,30633
39628,47735,30556
39604,47706,30496
39519,47608,30353
39394,47466,30164
39321,47383,30032
39271,47327,29923
39158,47200,29744
39024,47054,29543
38961,46994,29416
38931,46959,29312
38843,46843,29130
38735,46706,28928
38681,46647,28801
38632,46598,28683
38513,46468,28478
38392,46332,28268
38344,46280,28141
38300,46234,28019
38188,46103,27820
38073,45968,27625
38025,45917,27512
37978,45873,27397
37871,45755,27220
37772,45652,27065
37743,45635,26996
37722,45620,26932
37661,45547,26829
37624,45503,26768
37652,45533,26777
37669,45541,26767
37643,45498,26716
37652,45501,26717
37716,45560,26779
37748,45573,26796
37737,45541,26765
37777,45576,26799
37863,45666,26889
37895,45692,26921
37890,45673,26912
37936,45712,26966
38004,45780,27050
38005,45776,27059
37970,45729,27021
37986,45740,27041
38019,45776,27080
37983,45738,27038
37923,45674,26964
37922,45681,26958
37929,45700,26960
37863,45632,26871
37777,45540,26757
37756,45527,26722
37747,45526,26690
37669,45439,26560
37585,45341,26415
37574,45331,26346
37563,45323,26269
37472,45220,26102
37376,45106,25936
37351,45075,25850
37317,45035,25757
37197,44894,25576
37068,44752,25396
37007,44690,25287
36947,44613,25161
36820,44457,24961
36695,44320,24784
36627,44258,24674
36550,44172,24534
36425,44027,24335
36331,43925,24178
36300,43887,24078
36243,43808,23933
36142,43683,23748
36093,43622,23628
36094,43612,23559
36047,43542,23437
35957,43425,23276
35914,43370,23177
35899,43354,23113
35825,43270,22976
35718,43144,22805
35660,43085,22705
35623,43058,22631
35528,42958,22485
35414,42834,22323
35363,42791,22239
35337,42772,22174
35250,42673,22032
35155,42570,21892
35143,42574,21863
35160,42610,21868
35126,42575,21814
35115,42556,21799
35217,42669,21936
35372,42842,22149
35504,42979,22350
35682,43158,22620
35973,43471,23046
36295,43828,23543
36576,44135,24027
36891,44474,24575
37305,44922,25244
37741,45390,25932
38130,45796,26567
38528,46214,27225
38973,46694,27943
39387,47133,28617
39726,47482,29209
40056,47838,29808
40407,48227,30420
40702,48542,30936
40919,48762,31347
41136,48995,31752
41359,49240,32143
41502,49386,32417
41576,49452,32593
41677,49561,32783
41792,49693,32965
41829,49728,33036
41804,49697,33027
41810,49712,33053
41826,49741,33084
41766,49682,33018
41669,49582,32908
41626,49549,32859
41604,49535,32816
41521,49436,32678
41418,49314,32513
41381,49277,32425
41364,49257,32349
41282,49148,32185
41188,49027,32010
41165,48997,31925
41144,48969,31843
41041,48842,31664
40928,48704,31469
40887,48653,31349
40848,48602,31226
40739,48466,31025
40631,48338,30837
40587,48294,30730
40530,48237,30610
40402,48096,30419
40285,47969,30254
40238,47919,30162
40186,47854,30041
40092,47732,29870
40032,47659,29758
40033,47668,29722
40013,47643,29657
39951,47563,29553
39922,47531,29505
39932,47550,29503
39902,47508,29443
39833,47419,29348
39818,47404,29327
39846,47441,29354
39829,47414,29325
39782,47352,29269
39795,47365,29286
39839,47412,29334
39820,47382,29310
39766,47321,29259
39763,47333,29279
39779,47361,29312
39735,47305,29256
39677,47232,29182
39690,47249,29199
39721,47285,29224
39681,47230,29144
39630,47161,29042
39640,47177,29019
39643,47195,28987
39559,47108,28851
39457,47002,28699
39418,46975,28623
39377,46941,28538
39258,46810,28362
39133,46674,28186
39076,46619,28085
39016,46553,27970
38891,46404,27776
38770,46262,27589
38703,46185,27455
38618,46084,27283
38475,45916,27043
38357,45783,26846
38292,45715,26717
38192,45608,26548
38050,45448,26332
37960,45348,26182
37923,45309,26088
37836,45214,25929
37705,45074,25726
37632,45006,25601
37603,44990,25525
37522,44902,25380
37414,44771,25208
37369,44716,25116
37361,44701,25057
37297,44612,24924
37202,44491,24765
37161,44451,24685
37148,44441,24630
37079,44350,24502
36993,44240,24364
36972,44218,24320
36963,44208,24288
36882,44106,24160
36793,43994,24016
36776,43977,23962
36762,43973,23915
36678,43883,23784
36604,43799,23664
36613,43816,23644
36624,43836,23624
36560,43763,23511
36489,43677,23389
36475,43661,23338
36450,43635,23274
36358,43531,23135
36279,43440,23012
36264,43424,22957
36239,43395,22880
36159,43302,22745
36092,43234,22646
36068,43224,22597
36007,43165,22490
35894,43040,22324
35817,42962,22213
35785,42940,22154
35719,42870,22047
35630,42763,21914
35616,42743,21871
35670,42796,21907
35696,42808,21922
35707,42810,21953
35809,42924,22116
35990,43125,22383
36161,43306,22654
36350,43512,22976
36658,43857,23463
37049,44285,24058
37416,44673,24646
37777,45067,25271
38214,45564,26012
38676,46081,26779
39070,46506,27462
39444,46908,28129
39871,47385,28871
40282,47850,29591
40598,48198,30186
40888,48514,30740
41218,48888,31331
41519,49227,31865
41713,49434,32253
41868,49601,32579
42062,49818,32920
42219,49994,33200
42278,50059,33357
42320,50109,33477
42405,50200,33611
42456,50241,33673
42426,50194,33636
42400,50165,33604
42422,50192,33613
42409,50167,33563
42332,50070,33443
42273,50014,33358
42247,50004,33308
42170,49927,33188
42043,49788,33017
41957,49706,32900
41911,49671,32816
41822,49575,32669
41712,49445,32499
41665,49391,32404
41648,49377,32341
41577,49293,32212
41478,49180,32060
41437,49143,31982
41421,49132,31925
41340,49036,31787
41234,48910,31625
41189,48866,31538
41165,48840,31458
41078,48730,31293
40983,48616,31127
40967,48601,31060
40962,48597,31008
40876,48497,30872
40782,48395,30737
40768,48389,30698
40760,48389,30669
40682,48302,30564
40608,48223,30464
40615,48240,30453
40634,48262,30451
40592,48211,30387
40562,48178,30349
40604,48226,30391
40640,48257,30414
40617,48221,30372
40617,48217,30370
40672,48275,30432
40691,48286,30445
40654,48234,30399
40653,48230,30407
40692,48278,30460
40680,48264,30442
40619,48192,30369
40608,48180,30356
40636,48213,30378
40599,48173,30315
40515,48080,30203
40477,48044,30150
40461,48035,30117
40384,47948,30002
40277,47823,29848
40218,47762,29754
40172,47721,29671
40068,47605,29505
39949,47472,29321
39891,47421,29225
39843,47386,29145
39731,47260,28974
39613,47120,28794
39568,47071,28700
39527,47028,28602
39405,46883,28402
39276,46729,28194
39222,46671,28071
39167,46620,27944
39038,46482,27735
38914,46347,27536
38869,46299,27426
38823,46242,27313
38702,46099,27120
38572,45960,26932
38498,45893,26808
38418,45807,26662
38275,45650,26457
38150,45528,26297
38096,45488,26212
38031,45421,26094
37924,45295,25925
37848,45216,25804
37815,45194,25730
37741,45119,25603
37628,44990,25436
37560,44920,25329
37535,44899,25262
37469,44821,25135
37376,44704,24979
37333,44653,24895
37318,44640,24849
37247,44560,24736
37153,44452,24599
37112,44420,24534
37088,44408,24487
37007,44315,24357
36921,44206,24210
36906,44185,24152
36904,44184,24112
36834,44101,23988
36753,44004,23858
36746,44000,23822
36747,44011,23796
36673,43929,23682
36593,43837,23562
36584,43832,23523
36573,43829,23475
36486,43731,23340
36392,43623,23209
36368,43598,23161
36340,43571,23101
36240,43456,22958
36139,43344,22823
36098,43306,22754
36044,43253,22658
35933,43134,22492
35845,43047,22359
35818,43026,22293
35778,42982,22198
35706,42896,22067
35685,42872,22013
35729,42928,22048
35766,42965,22081
35809,42999,22138
35953,43148,22339
36189,43404,22667
36424,43645,23008
36665,43889,23387
36989,44240,23901
37363,44658,24505
37698,45020,25087
38017,45361,25670
38401,45791,26345
38816,46258,27061
39170,46644,27704
39499,46999,28319
39879,47428,28996
40258,47858,29656
40554,48176,30190
40815,48452,30673
41113,48788,31191
41382,49101,31657
41546,49288,31983
41675,49431,32254
41843,49631,32555
41985,49804,32801
42029,49854,32914
42044,49869,32981
42109,49942,33085
42160,49984,33143
42127,49920,33095
42076,49844,33025
42065,49830,32989
42031,49790,32907
41928,49665,32745
41830,49551,32601
41778,49501,32510
41703,49420,32374
41579,49283,32180
41491,49192,32031
41452,49154,31933
41363,49055,31781
41220,48899,31583
41125,48808,31449
41077,48766,31361
40980,48658,31208
40848,48508,31018
40776,48434,30896
40750,48405,30810
40673,48305,30658
40567,48170,30478
40512,48110,30370
40480,48081,30283
40387,47973,30118
40273,47846,29942
40227,47813,29862
40210,47811,29807
40140,47730,29677
40064,47644,29555
40061,47656,29540
40073,47687,29547
40026,47631,29479
39984,47570,29418
40016,47600,29447
40049,47639,29482
40008,47597,29437
39969,47560,29394
40010,47613,29438
40055,47662,29486
40027,47624,29462
39997,47592,29447
40031,47642,29499
40059,47680,29529
40030,47641,29491
40014,47623,29477
40054,47673,29519
40071,47683,29510
40029,47613,29427
40005,47574,29380
40013,47589,29381
39966,47548,29318
39867,47445,29191
39816,47393,29111
39804,47385,29068
39733,47307,28954
39621,47181,28792
39562,47116,28690
39531,47084,28616
39433,46974,28464
39294,46822,28271
39214,46736,28145
39167,46684,28043
39062,46560,27856
38933,46414,27648
38870,46349,27527
38825,46304,27422
38713,46172,27228
38587,46022,27026
38526,45965,26914
38475,45924,26810
38359,45794,26618
38242,45659,26426
38202,45622,26327
38174,45596,26234
38081,45482,26063
37986,45367,25896
37965,45343,25816
37949,45321,25735
37861,45218,25579
37765,45120,25429
37726,45095,25343
37676,45049,25238
37566,44927,25069
37473,44832,24929
37439,44803,24850
37385,44742,24738
37284,44622,24574
37218,44549,24462
37202,44532,24408
37147,44464,24305
37042,44347,24154
36983,44295,24061
36972,44294,24010
36920,44226,23895
36839,44116,23744
36813,44083,23668
36818,44087,23633
36763,44016,23533
36677,43914,23408
36644,43886,23363
36634,43886,23350
36563,43810,23259
36466,43707,23136
36425,43679,23086
36401,43666,23050
36313,43568,22929
36218,43461,22800
36201,43453,22767
36202,43462,22746
36135,43384,22634
36068,43299,22513
36082,43304,22476
36096,43306,22436
36023,43214,22308
35941,43121,22175
35935,43115,22122
35925,43101,22061
35831,42995,21915
35733,42889,21773
35704,42864,21704
35673,42833,21620
35579,42725,21465
35498,42628,21332
35476,42600,21260
35437,42546,21153
35348,42432,20991
35285,42359,20882
35269,42352,20839
35222,42307,20763
35147,42227,20671
35148,42237,20682
35229,42338,20792
35305,42421,20898
35384,42503,21023
35561,42700,21284
35827,42994,21661
36090,43264,22044
36359,43535,22468
36712,43920,23029
37116,44368,23668
37481,44757,24273
37831,45129,24881
38241,45581,25577
38658,46045,26290
38992,46411,26907
39297,46749,27494
39659,47162,28149
40017,47565,28780
40283,47853,29272
40516,48105,29705
40789,48415,30173
41026,48691,30591
41149,48831,30864
41228,48921,31074
41336,49057,31304
41414,49156,31472
41401,49143,31519
41374,49111,31535
41402,49141,31583
41417,49147,31585
41358,49072,31498
41298,49004,31414
41281,48986,31368
41236,48926,31263
41135,48796,31086
41052,48700,30952
41006,48663,30872
40911,48568,30736
40760,48409,30542
40651,48305,30405
40587,48254,30314
40481,48140,30158
40344,47980,29955
40270,47891,29817
40239,47848,29720
40155,47735,29553
40037,47587,29351
39969,47511,29225
39921,47466,29126
39816,47346,28951
39697,47209,28762
39649,47166,28667
39628,47153,28599
39550,47063,28457
39471,46969,28313
39475,46975,28272
39495,47002,28256
39446,46946,28164
39391,46888,28077
39416,46930,28100
39448,46987,28143
39407,46955,28110
39368,46922,28086
39412,46980,28147
39469,47045,28211
39472,47032,28208
39486,47030,28222
39570,47113,28314
39649,47188,28391
39659,47183,28395
39666,47189,28412
39718,47259,28487
39746,47289,28523
39708,47239,28488
39683,47214,28481
39691,47237,28520
39650,47205,28496
39566,47114,28406
39536,47076,28358
39549,47086,28347
39508,47032,28263
39425,46932,28129
39390,46897,28060
39384,46900,28020
39313,46821,27898
39196,46685,27726
39120,46608,27612
39062,46558,27516
38940,46427,27343
38792,46265,27145
38708,46185,27022
38653,46130,26910
38542,45991,26712
38419,45840,26507
38364,45790,26396
38317,45756,26296
38195,45625,26109
38058,45477,25914
37999,45420,25804
37956,45370,25697
37843,45230,25506
37720,45088,25313
37662,45031,25198
37602,44970,25074
37475,44823,24870
37354,44681,24678
37302,44627,24572
37254,44574,24463
37150,44452,24293
37056,44348,24148
37024,44316,24067
36983,44258,23955
36890,44139,23787
36819,44060,23661
36797,44040,23590
36738,43972,23470
36630,43848,23299
36569,43783,23192
36556,43780,23148
36502,43729,23053
36414,43636,22915
36382,43606,22845
36389,43621,22815
36341,43560,22716
36259,43453,22583
36230,43414,22520
36230,43413,22486
36174,43343,22386
36090,43247,22266
36064,43228,22223
36062,43228,22197
35998,43146,22093
35908,43049,21980
35879,43037,21952
35857,43031,21928
35762,42929,21808
35660,42823,21675
35639,42813,21622
35628,42804,21564
35543,42701,21414
35456,42596,21259
35443,42573,21183
35425,42544,21104
35334,42433,20952
35250,42336,20812
35245,42330,20759
35247,42327,20711
35200,42266,20615
35182,42242,20575
35246,42315,20648
35319,42392,20739
35365,42434,20822
35472,42548,21013
35674,42773,21331
35892,43010,21670
36111,43242,22024
36412,43570,22493
36786,43981,23058
37126,44350,23592
37422,44670,24100
37765,45048,24684
38138,45462,25307
38447,45797,25859
38712,46078,26367
39018,46412,26921
39334,46761,27471
39567,47014,27912
39747,47212,28290
39966,47462,28700
40192,47709,29088
40329,47845,29351
40407,47928,29553
40519,48068,29792
40620,48192,29990
40619,48194,30055
40582,48159,30069
40603,48196,30128
40622,48220,30153
40558,48134,30061
40479,48035,29939
40460,48014,29877
40433,47984,29794
40326,47861,29618
40200,47730,29438
40131,47667,29325
40052,47585,29189
39904,47417,28975
39760,47262,28776
39673,47175,28630
39574,47060,28448
39424,46882,28208
39297,46742,28017
39223,46671,27889
39116,46561,27711
38958,46393,27475
38840,46273,27288
38769,46205,27144
38659,46082,26946
38516,45920,26717
38428,45827,26560
38381,45778,26452
38289,45670,26296
38179,45540,26131
38145,45497,26062
38157,45506,26044
38129,45462,25973
38094,45404,25897
38128,45438,25923
38192,45514,25993
38206,45527,25999
38210,45523,25995
38273,45600,26082
38344,45692,26187
38349,45701,26213
38348,45698,26228
38415,45776,26321
38485,45858,26416
38489,45858,26424
38498,45861,26433
38579,45947,26525
38657,46025,26612
38656,46009,26605
38642,45983,26585
38680,46021,26623
38702,46044,26636
38652,45985,26565
38599,45927,26500
38591,45920,26489
38560,45877,26435
38459,45757,26305
38370,45662,26195
38333,45626,26129
38272,45547,26014
38167,45413,25850
38105,45335,25741
38085,45311,25680
38013,45224,25548
37896,45084,25362
37823,45002,25233
37781,44960,25137
37681,44850,24965
37545,44699,24755
37465,44622,24618
37421,44585,24514
37320,44476,24341
37189,44336,24142
37116,44267,24020
37067,44221,23927
36960,44097,23759
36843,43961,23581
36798,43916,23495
36763,43885,23423
36651,43767,23264
36526,43641,23095
36481,43613,23017
36457,43605,22947
36372,43512,22796
36291,43414,22650
36285,43402,22594
36287,43397,22544
36222,43308,22414
36149,43209,22282
36131,43181,22221
36105,43148,22152
36013,43038,22011
35928,42940,21879
35913,42919,21811
35893,42889,21724
35815,42793,21579
35747,42716,21470
35722,42695,21418
35672,42638,21327
35585,42537,21193
35538,42493,21119
35533,42504,21097
35487,42458,21023
35404,42364,20909
35373,42331,20855
35376,42336,20836
35323,42271,20741
35233,42163,20598
35190,42116,20516
35173,42100,20463
35109,42021,20347
35034,41929,20215
35029,41926,20175
35064,41970,20190
35070,41971,20171
35092,41988,20184
35208,42124,20337
35371,42319,20560
35508,42472,20761
35678,42652,21022
35957,42960,21436
36277,43315,21914
36555,43612,22361
36850,43924,22850
37234,44340,23455
37639,44775,24087
37988,45136,24660
38335,45497,25241
38732,45923,25886
39111,46326,26507
39409,46639,27036
39687,46939,27547
39989,47281,28083
40239,47571,28555
40400,47762,28925
40556,47952,29278
40738,48168,29629
40865,48311,29881
40921,48373,30036
40989,48455,30195
41073,48553,30349
41087,48565,30403
41039,48509,30379
41019,48494,30385
41020,48502,30403
40953,48426,30329
40836,48295,30195
40763,48223,30112
40721,48189,30051
40622,48083,29912
40490,47938,29733
40406,47858,29610
40347,47808,29503
40238,47689,29325
40113,47552,29129
40056,47499,29014
40023,47470,28915
39929,47363,28739
39823,47239,28554
39777,47193,28447
39731,47147,28338
39612,47009,28139
39483,46864,27933
39420,46804,27814
39362,46750,27700
39247,46620,27514
39148,46503,27346
39129,46477,27264
39121,46455,27179
39060,46364,27036
39015,46297,26930
39035,46319,26916
39049,46334,26898
39015,46288,26830
38995,46267,26798
39025,46303,26827
39037,46307,26826
39016,46271,26793
39032,46292,26823
39091,46367,26909
39115,46397,26952
39112,46390,26965
39165,46448,27044
39258,46547,27160
39295,46575,27202
39291,46555,27200
39333,46591,27259
39395,46654,27338
39391,46641,27335
39351,46589,27292
39356,46596,27305
39371,46617,27329
39321,46560,27274
39259,46485,27194
39255,46489,27181
39256,46508,27168
39189,46441,27064
39109,46359,26948
39091,46355,26909
39079,46355,26873
39004,46266,26749
38923,46162,26609
38906,46132,26533
38893,46096,26447
38810,45971,26279
38717,45843,26110
38675,45788,26006
38623,45727,25891
38505,45592,25712
38390,45472,25553
38338,45426,25461
38282,45362,25346
38169,45228,25164
38059,45109,24999
37991,45041,24879
37899,44934,24719
37767,44778,24515
37674,44678,24360
37633,44637,24259
37565,44554,24118
37469,44434,23946
37423,44380,23845
37411,44375,23791
37344,44302,23675
37238,44180,23522
37179,44119,23430
37151,44091,23372
37077,43999,23257
36984,43887,23125
36950,43852,23068
36941,43852,23038
36878,43784,22936
36796,43695,22818
36771,43678,22775
36764,43675,22743
36707,43600,22635
36645,43525,22526
36649,43537,22503
36658,43555,22484
36596,43485,22376
36527,43402,22259
36521,43397,22216
36510,43387,22166
36426,43286,22035
36341,43184,21906
36323,43163,21854
36302,43141,21802
36214,43046,21682
36132,42959,21570
36110,42938,21515
36076,42898,21432
35984,42791,21289
35905,42708,21182
35883,42690,21137
35844,42642,21056
35768,42550,20931
35738,42515,20866
35767,42547,20867
35778,42549,20846
35779,42536,20826
35858,42621,20926
36008,42794,21135
36155,42954,21356
36323,43132,21622
36592,43430,22031
36935,43807,22542
37264,44154,23045
37593,44498,23567
37991,44933,24199
38418,45408,24882
38789,45814,25509
39137,46196,26128
39524,46643,26814
39905,47087,27490
40209,47427,28056
40484,47728,28574
40806,48085,29134
41115,48419,29657
41326,48632,30044
41505,48810,30376
41724,49045,30742
41914,49249,31056
41999,49336,31242
42054,49393,31384
42154,49505,31556
42234,49590,31679
42226,49575,31694
42196,49540,31684
42203,49554,31703
42185,49536,31674
42099,49440,31559
42021,49356,31448
41987,49321,31370
41920,49241,31234
41797,49095,31039
41697,48988,30886
41640,48932,30777
41540,48817,30608
41393,48645,30387
41288,48532,30226
41223,48471,30106
41114,48347,29918
40966,48177,29688
40869,48073,29523
40810,48009,29396
40709,47884,29206
40588,47730,28989
40520,47645,28845
40478,47597,28740
40388,47493,28583
40287,47381,28424
40248,47352,28353
40232,47349,28308
40160,47272,28194
40085,47192,28081
40087,47205,28061
40110,47236,28058
40074,47191,27985
40039,47149,27925
40079,47198,27961
40129,47258,28012
40119,47241,28000
40117,47231,28004
40184,47308,28093
40255,47390,28188
40261,47399,28218
40268,47412,28253
40327,47491,28341
40372,47551,28400
40362,47540,28398
40367,47545,28421
40427,47604,28492
40464,47628,28517
40445,47587,28475
40442,47577,28460
40470,47609,28478
40452,47583,28432
40389,47494,28329
40361,47450,28271
40360,47440,28244
40301,47362,28150
40202,47238,28010
40152,47176,27926
40128,47152,27874
40043,47057,27750
39925,46925,27584
39862,46862,27479
39820,46828,27393
39712,46719,27233
39578,46583,27055
39508,46522,26953
39465,46479,26865
39369,46361,26697
39265,46234,26519
39225,46199,26425
39198,46176,26339
39107,46065,26168
39008,45943,25993
38976,45905,25900
38946,45868,25807
38843,45737,25630
38731,45596,25450
38682,45538,25348
38637,45485,25248
38531,45360,25078
38427,45246,24917
38387,45215,24825
38346,45179,24723
38250,45074,24563
38170,44988,24430
38151,44967,24357
38120,44921,24257
38041,44821,24118
37986,44759,24033
37966,44747,23997
37904,44684,23906
37804,44569,23772
37745,44509,23692
37723,44497,23650
37665,44428,23545
37579,44316,23397
37543,44266,23306
37539,44256,23247
37482,44177,23124
37396,44064,22977
37369,44026,22907
37372,44025,22871
37322,43964,22770
37248,43885,22654
37229,43882,22619
37224,43899,22602
37153,43831,22500
37062,43742,22379
37035,43734,22340
37029,43742,22310
36968,43666,22195
36914,43592,22086
36942,43624,22080
36988,43675,22102
36985,43657,22079
37006,43661,22097
37118,43778,22237
37262,43933,22433
37382,44052,22624
37542,44221,22889
37807,44510,23287
38106,44830,23734
38373,45115,24170
38675,45449,24668
39059,45873,25262
39444,46287,25855
39786,46652,26413
40148,47050,27018
40535,47487,27664
40871,47863,28245
41149,48172,28763
41446,48503,29307
41751,48843,29849
41984,49092,30290
42158,49270,30652
42351,49480,31028
42544,49696,31386
42662,49816,31638
42728,49877,31813
42819,49982,32000
42909,50092,32162
42927,50107,32213
42907,50076,32214
42924,50100,32257
42938,50129,32282
42872,50066,32202
42779,49973,32091
42739,49944,32047
42704,49916,31998
42602,49798,31854
42495,49673,31695
42457,49633,31613
42418,49595,31526
42299,49463,31346
42167,49320,31152
42099,49255,31030
42031,49187,30900
41899,49038,30689
41770,48884,30476
41701,48800,30325
41628,48712,30166
41506,48566,29951
41406,48445,29769
41363,48394,29659
41300,48316,29526
41186,48183,29346
41104,48092,29213
41072,48063,29143
41017,48003,29041
40929,47905,28904
40888,47863,28831
40894,47875,28817
40867,47844,28763
40817,47782,28685
40829,47794,28689
40889,47862,28744
40900,47873,28740
40880,47848,28711
40914,47890,28766
40978,47972,28867
40992,47995,28913
40987,47989,28935
41044,48049,29022
41118,48124,29121
41123,48121,29139
41108,48105,29142
41156,48174,29226
41220,48255,29315
41217,48248,29311
41197,48222,29286
41241,48275,29332
41290,48328,29372
41262,48284,29318
41216,48221,29243
41221,48225,29230
41208,48208,29197
41110,48091,29072
40991,47964,28931
40927,47905,28846
40855,47834,28740
40717,47687,28558
40587,47553,28387
40515,47487,28273
40429,47400,28126
40301,47254,27923
40207,47143,27759
40162,47086,27645
40085,46984,27482
39968,46831,27272
39892,46732,27122
39855,46685,27019
39768,46581,26854
39642,46428,26647
39569,46340,26507
39533,46300,26409
39442,46194,26241
39318,46048,26044
39245,45972,25920
39198,45930,25826
39099,45819,25668
38978,45683,25492
38914,45622,25388
38876,45587,25305
38790,45486,25155
38699,45380,25003
38679,45365,24944
38675,45363,24904
38603,45276,24780
38521,45179,24646
38506,45166,24599
38492,45162,24562
38405,45069,24445
38311,44967,24320
38281,44949,24265
38246,44928,24199
38141,44814,24048
38032,44693,23895
37986,44647,23807
37944,44594,23711
37850,44474,23555
37771,44375,23420
37754,44350,23351
37730,44304,23262
37656,44195,23115
37602,44122,23004
37601,44112,22947
37573,44068,22860
37504,43985,22747
37486,43973,22714
37531,44035,22764
37556,44071,22799
37572,44095,22836
37673,44220,22987
37849,44432,23239
38018,44624,23489
38200,44818,23773
38477,45118,24188
38816,45487,24690
39126,45809,25174
39432,46128,25677
39805,46542,26281
40197,46983,26912
40523,47337,27471
40820,47663,28010
41160,48052,28613
41496,48433,29199
41749,48705,29668
41971,48949,30090
42233,49256,30555
42475,49538,30990
42626,49707,31305
42753,49850,31575
42923,50047,31877
43066,50205,32132
43116,50251,32267
43143,50277,32363
43211,50357,32489
43249,50400,32564
43206,50347,32535
43153,50286,32487
43142,50275,32472
43109,50232,32411
43016,50118,32270
42935,50026,32145
42891,49979,32061
42812,49886,31926
42696,49742,31739
42615,49644,31596
42567,49590,31490
42466,49474,31317
42318,49304,31094
42213,49189,30922
42143,49118,30780
42031,48988,30576
41892,48821,30344
41804,48720,30181
41745,48654,30050
41632,48519,29858
41500,48359,29648
41437,48287,29518
41412,48251,29425
41342,48154,29280
41258,48055,29142
41236,48045,29101
41236,48056,29088
41189,48003,29014
41146,47962,28954
41187,48025,28993
41255,48108,29055
41272,48120,29058
41296,48141,29074
41393,48249,29176
41496,48359,29288
41530,48384,29334
41554,48406,29383
41632,48505,29498
41705,48595,29601
41722,48606,29634
41745,48621,29678
41813,48696,29775
41864,48747,29834
41865,48732,29823
41883,48737,29837
41942,48791,29898
41966,48799,29907
41938,48749,29857
41934,48739,29848
41963,48769,29877
41938,48735,29840
41861,48644,29747
41821,48603,29695
41813,48595,29666
41752,48523,29568
41657,48418,29435
41613,48378,29360
41599,48369,29311
41530,48290,29196
41428,48172,29049
41375,48121,28959
41348,48097,28889
41271,48003,28757
41178,47893,28617
41141,47864,28553
41116,47849,28494
41025,47745,28351
40921,47625,28196
40883,47590,28119
40848,47557,28039
40741,47433,27874
40629,47307,27707
40592,47271,27613
40568,47242,27516
40477,47134,27348
40387,47034,27194
40370,47020,27126
40361,47004,27059
40289,46907,26925
40215,46811,26802
40195,46784,26743
40162,46739,26656
40070,46623,26502
39993,46529,26373
39966,46500,26298
39919,46445,26193
39828,46338,26051
39763,46272,25962
39739,46256,25918
39674,46185,25819
39571,46066,25676
39516,46004,25593
39501,45987,25552
39446,45919,25459
39367,45828,25340
39350,45811,25296
39383,45844,25301
39385,45829,25269
39384,45813,25251
39472,45905,25352
39620,46064,25533
39743,46192,25709
39874,46340,25938
40094,46608,26306
40367,46932,26748
40615,47209,27170
40881,47503,27631
41232,47904,28207
41605,48324,28807
41922,48662,29336
42235,48996,29871
42605,49411,30485
42960,49817,31084
43231,50120,31582
43469,50386,32042
43734,50695,32527
43967,50966,32958
44120,51134,33276
44265,51285,33568
44452,51484,33891
44606,51645,34153
44671,51711,34307
44714,51766,34444
44784,51858,34599
44812,51896,34676
44770,51850,34660
44738,51818,34655
44737,51820,34671
44686,51761,34606
44583,51643,34468
44517,51571,34364
44482,51536,34287
44396,51438,34139
44272,51297,33945
44187,51211,33803
44126,51148,33685
44010,51013,33498
43865,50847,33282
43770,50747,33124
43694,50667,32975
43553,50506,32751
43384,50324,32515
43279,50226,32360
43200,50150,32221
43064,49996,32009
42919,49833,31795
42842,49763,31670
42777,49704,31557
42653,49563,31370
42535,49427,31195
42504,49400,31122
42504,49400,31068
42456,49329,30947
42416,49264,30843
42447,49293,30836
42481,49331,30845
42460,49303,30806
42449,49290,30794
42501,49357,30856
42547,49412,30909
42543,49401,30913
42561,49414,30949
42639,49498,31043
42699,49556,31106
42707,49557,31125
42739,49597,31189
42812,49687,31297
42844,49722,31349
42831,49694,31347
42852,49709,31385
42899,49760,31446
42891,49743,31427
42844,49678,31358
42846,49672,31349
42879,49701,31371
42856,49659,31322
42793,49579,31235
42776,49563,31207
42778,49567,31191
42713,49492,31091
42612,49387,30958
42559,49355,30888
42524,49344,30831
42435,49250,30701
42339,49147,30567
42315,49137,30517
42305,49137,30469
42231,49041,30331
42143,48925,30183
42112,48885,30106
42073,48844,30019
41961,48716,29846
41848,48585,29673
41805,48536,29579
41773,48493,29493
41685,48382,29345
41601,48284,29211
41581,48265,29149
41556,48234,29074
41469,48128,28938
41387,48037,28822
41352,48010,28757
41301,47959,28654
41205,47846,28494
41132,47761,28376
41104,47728,28310
41042,47653,28195
40940,47529,28032
40881,47456,27927
40862,47433,27872
40800,47359,27763
40702,47245,27616
40659,47196,27533
40658,47195,27487
40612,47133,27372
40538,47038,27234
40514,47013,27175
40506,47016,27147
40436,46943,27047
40342,46840,26925
40302,46811,26879
40280,46802,26849
40199,46711,26734
40104,46601,26597
40076,46572,26540
40059,46558,26492
39981,46470,26363
39916,46394,26250
39944,46429,26254
40004,46500,26304
40024,46516,26314
40075,46558,26376
40226,46721,26579
40409,46925,26841
40568,47096,27095
40768,47311,27421
41061,47639,27879
41382,47993,28385
41671,48303,28874
41982,48646,29422
42353,49069,30059
42712,49470,30685
43022,49806,31256
43351,50164,31849
43713,50561,32465
44019,50893,33001
44250,51146,33448
44493,51423,33906
44751,51726,34373
44942,51947,34739
45070,52097,35014
45219,52278,35301
45373,52465,35579
45446,52553,35748
45461,52580,35848
45509,52651,35979
45568,52729,36106
45552,52712,36128
45490,52646,36082
45470,52635,36072
45470,52637,36061
45412,52554,35966
45329,52449,35850
45295,52419,35803
45266,52399,35753
45172,52296,35611
45069,52182,35459
45026,52141,35381
44979,52097,35298
44863,51969,35129
44739,51840,34948
44677,51789,34832
44616,51730,34705
44494,51582,34500
44377,51438,34303
44328,51376,34180
44275,51311,34045
44159,51171,33843
44054,51044,33663
44015,50993,33561
43967,50928,33447
43864,50805,33292
43780,50717,33180
43750,50694,33125
43710,50641,33045
43642,50550,32942
43617,50518,32907
43636,50546,32924
43624,50531,32892
43590,50478,32828
43611,50490,32836
43676,50553,32897
43695,50562,32912
43674,50536,32899
43696,50575,32949
43743,50646,33025
43734,50642,33032
43698,50602,33009
43720,50635,33055
43769,50698,33119
43759,50687,33101
43726,50654,33064
43750,50696,33110
43783,50743,33161
43748,50693,33118
43698,50623,33057
43708,50635,33071
43713,50647,33074
43639,50566,32981
43557,50481,32875
43544,50480,32839
43538,50478,32792
43465,50385,32658
43381,50279,32520
43348,50237,32443
43304,50186,32353
43196,50061,32192
43090,49947,32040
43045,49903,31946
42996,49842,31826
42889,49710,31642
42796,49597,31491
42755,49542,31398
42690,49456,31269
42579,49323,31091
42499,49240,30958
42456,49207,30866
42368,49117,30714
42239,48975,30520
42154,48884,30387
42110,48836,30294
42021,48728,30142
41902,48589,29960
41837,48525,29848
41800,48498,29768
41705,48396,29617
41583,48256,29443
41519,48186,29346
41480,48148,29279
41387,48047,29144
41279,47931,28995
41237,47895,28927
41221,47884,28881
41151,47806,28763
41078,47726,28638
41081,47734,28598
41096,47744,28563
41044,47664,28447
40985,47577,28329
40988,47578,28291
40986,47582,28250
40913,47503,28131
40838,47420,28018
40824,47415,27981
40807,47409,27933
40725,47324,27808
40652,47243,27690
40645,47231,27641
40628,47202,27576
40554,47103,27454
40491,47027,27362
40475,47014,27323
40437,46971,27246
40363,46883,27137
40344,46861,27110
40397,46921,27177
40443,46970,27243
40488,47013,27322
40620,47164,27523
40830,47411,27833
41035,47646,28156
41244,47879,28506
41529,48199,28967
41858,48567,29494
42145,48881,29987
42421,49184,30488
42763,49567,31082
43127,49968,31702
43426,50285,32240
43694,50574,32744
44003,50928,33305
44311,51284,33853
44545,51545,34294
44751,51775,34693
44993,52062,35124
45211,52322,35506
45336,52463,35762
45426,52564,35971
45550,52715,36211
45650,52839,36403
45665,52858,36474
45667,52853,36511
45721,52906,36594
45753,52937,36644
45699,52871,36594
45625,52791,36523
45591,52761,36489
45538,52703,36415
45429,52577,36270
45334,52478,36140
45289,52443,36054
45223,52373,35927
45112,52245,35753
45024,52152,35628
44968,52102,35540
44868,51997,35388
44735,51846,35191
44651,51754,35053
44601,51702,34955
44496,51585,34793
44355,51427,34592
44268,51330,34455
44222,51267,34354
44139,51146,34197
44036,51006,34024
43985,50946,33926
43959,50928,33857
43887,50853,33725
43810,50768,33589
43799,50764,33546
43809,50784,33529
43760,50732,33441
43703,50673,33354
43714,50698,33365
43740,50734,33401
43709,50692,33368
43682,50655,33343
43725,50710,33409
43777,50771,33490
43768,50752,33500
43760,50733,33506
43817,50796,33576
43872,50856,33635
43864,50835,33620
43855,50815,33611
43896,50863,33662
43923,50895,33690
43893,50854,33655
43869,50820,33640
43891,50841,33674
43886,50829,33659
43825,50755,33574
43784,50712,33517
43780,50712,33495
43736,50660,33412
43644,50552,33275
43585,50489,33186
43556,50464,33135
43474,50373,33018
43351,50237,32858
43276,50159,32755
43228,50112,32681
43125,49996,32534
42996,49849,32354
42922,49772,32239
42874,49727,32147
42772,49616,31985
42658,49486,31810
42613,49442,31720
42590,49425,31648
42506,49330,31500
42406,49221,31343
42369,49197,31265
42340,49181,31191
42239,49072,31028
42129,48950,30854
42096,48917,30767
42078,48892,30695
41996,48782,30548
41908,48670,30395
41875,48634,30312
41835,48592,30223
41730,48473,30063
41625,48355,29911
41578,48306,29826
41525,48250,29724
41419,48128,29558
41333,48026,29419
41302,47987,29340
41252,47926,29232
41161,47816,29076
41104,47750,28969
41096,47746,28921
41052,47700,28825
40962,47598,28679
40907,47543,28587
40885,47534,28539
40816,47465,28434
40716,47351,28293
40666,47297,28211
40649,47279,28158
40587,47197,28041
40506,47089,27901
40482,47058,27833
40480,47059,27794
40420,46993,27689
40335,46901,27565
40304,46878,27516
40285,46870,27484
40192,46775,27366
40076,46656,27222
40026,46613,27153
39991,46582,27091
39897,46474,26949
39808,46369,26811
39809,46367,26777
39838,46397,26776
39825,46372,26732
39836,46373,26734
39942,46487,26862
40076,46636,27040
40180,46745,27207
40327,46903,27444
40578,47182,27817
40858,47492,28237
41104,47756,28637
41371,48049,29088
41701,48416,29621
42021,48766,30139
42289,49054,30615
42575,49370,31134
42902,49737,31696
43192,50050,32197
43427,50298,32633
43674,50576,33089
43931,50873,33548
44113,51083,33909
44230,51218,34188
44369,51382,34484
44515,51551,34767
44580,51623,34938
44588,51638,35036
44630,51706,35164
44689,51792,35291
44678,51786,35320
44621,51731,35294
44602,51733,35310
44591,51742,35319
44510,51659,35233
44403,51550,35120
44349,51517,35072
44306,51492,35018
44202,51373,34866
44087,51239,34695
44039,51195,34600
43995,51157,34505
43889,51033,34330
43785,50910,34156
43752,50872,34056
43727,50832,33955
43638,50707,33783
43538,50582,33615
43491,50529,33514
43432,50461,33396
43311,50316,33207
43197,50187,33036
43135,50130,32926
43064,50061,32795
42951,49937,32621
42864,49843,32497
42831,49811,32442
42781,49756,32361
42708,49672,32250
42689,49654,32206
42713,49688,32221
42690,49665,32183
42633,49597,32108
42634,49596,32106
42676,49641,32157
42674,49627,32149
42646,49585,32111
42677,49619,32147
42741,49694,32222
42750,49705,32240
42736,49690,32239
42780,49744,32308
42845,49822,32396
42847,49827,32404
42823,49810,32393
42849,49861,32455
42883,49919,32521
42856,49893,32495
42821,49852,32451
42850,49887,32481
42876,49917,32506
42816,49850,32433
42743,49770,32342
42739,49768,32314
42740,49764,32276
42673,49673,32159
42601,49579,32041
42577,49555,31982
42533,49511,31894
42417,49375,31725
42301,49237,31566
42238,49164,31469
42165,49078,31345
42043,48937,31163
41946,48831,31015
41906,48786,30922
41843,48707,30792
41733,48577,30611
41646,48490,30468
41591,48446,30361
41497,48345,30201
41367,48193,30005
41282,48093,29868
41228,48037,29768
41126,47921,29607
40997,47769,29423
40927,47693,29316
40890,47668,29245
40808,47582,29112
40706,47466,28961
40660,47421,28882
40639,47407,28825
40570,47324,28697
40488,47223,28559
40468,47202,28508
40460,47202,28475
40388,47123,28358
40303,47025,28228
40279,47006,28178
40258,46991,28128
40170,46890,27992
40081,46785,27852
40064,46763,27795
40053,46748,27740
39977,46660,27609
39901,46572,27482
39889,46558,27427
39871,46537,27368
39786,46441,27247
39702,46354,27138
39673,46335,27086
39632,46293,27007
39536,46179,26868
39454,46085,26757
39421,46053,26700
39369,45996,26612
39282,45891,26487
39236,45842,26423
39245,45864,26422
39233,45860,26395
39204,45835,26361
39257,45902,26434
39389,46054,26598
39508,46186,26751
39625,46315,26924
39824,46540,27224
40084,46830,27616
40314,47077,27991
40534,47311,28374
40823,47625,28856
41143,47970,29384
41401,48241,29846
41624,48486,30283
41892,48800,30784
42176,49126,31290
42395,49362,31705
42585,49572,32088
42819,49846,32520
43037,50104,32923
43162,50251,33209
43259,50368,33450
43398,50540,33726
43507,50673,33956
43517,50690,34063
43502,50683,34128
43537,50737,34223
43561,50767,34276
43518,50706,34234
43469,50638,34176
43461,50629,34160
43427,50597,34104
43327,50484,33966
43234,50382,33833
43187,50339,33742
43114,50264,33606
42989,50126,33413
42887,50020,33262
42823,49962,33153
42715,49853,32983
42563,49691,32762
42452,49577,32594
42373,49505,32469
42245,49377,32283
42086,49208,32057
41981,49099,31895
41907,49024,31766
41778,48884,31570
41630,48721,31348
41554,48639,31206
41518,48595,31108
41439,48493,30962
41349,48383,30818
41320,48357,30761
41313,48358,30730
41258,48291,30631
41200,48221,30535
41213,48246,30538
41247,48291,30561
41228,48257,30512
41216,48228,30468
41283,48298,30522
41363,48379,30594
41371,48375,30597
41361,48362,30599
41410,48428,30676
41456,48488,30747
41428,48458,30738
41395,48427,30729
41424,48474,30784
41451,48514,30825
41427,48485,30803
41410,48472,30797
41441,48521,30840
41446,48533,30834
41390,48468,30761
41349,48428,30720
41349,48440,30725
41316,48402,30674
41235,48305,30562
41180,48251,30491
41156,48234,30454
41087,48148,30350
40981,48011,30201
40913,47932,30105
40862,47880,30030
40753,47755,29884
40614,47592,29697
40523,47497,29565
40461,47440,29456
40345,47315,29282
40205,47162,29082
40120,47083,28952
40057,47029,28842
39943,46903,28667
39819,46767,28489
39753,46710,28391
39694,46662,28300
39572,46531,28129
39444,46392,27952
39391,46345,27856
39359,46314,27771
39271,46207,27615
39184,46104,27461
39162,46086,27381
39136,46062,27299
39042,45952,27145
38947,45841,26994
38915,45808,26910
38880,45763,26812
38792,45646,26652
38720,45544,26520
38701,45510,26454
38664,45458,26361
38576,45349,26214
38508,45273,26103
38493,45256,26051
38451,45197,25966
38361,45087,25839
38304,45031,25759
38282,45022,25711
38219,44951,25600
38120,44833,25446
38061,44771,25347
38034,44749,25278
37959,44664,25149
37852,44543,24994
37793,44489,24907
37766,44474,24851
37701,44399,24743
37630,44308,24635
37631,44305,24621
37669,44350,24646
37673,44346,24629
37690,44356,24648
37802,44483,24806
37959,44663,25032
38084,44800,25226
38233,44967,25469
38478,45253,25852
38749,45571,26291
38970,45827,26693
39208,46098,27130
39538,46467,27678
39887,46848,28249
40174,47152,28750
40456,47454,29259
40791,47821,29835
41105,48165,30381
41335,48412,30827
41543,48643,31250
41778,48916,31700
41972,49141,32085
42087,49273,32365
42201,49403,32634
42339,49565,32906
42432,49670,33090
42472,49706,33193
42533,49773,33318
42615,49870,33456
42633,49893,33504
42590,49846,33473
42571,49832,33463
42566,49836,33458
42495,49763,33363
42381,49642,33219
42315,49578,33128
42273,49540,33052
42169,49426,32892
42038,49277,32704
41965,49198,32590
41917,49149,32500
41813,49031,32336
41691,48895,32154
41627,48833,32047
41575,48783,31945
41456,48644,31755
41326,48491,31556
41266,48428,31438
41219,48384,31323
41107,48260,31125
40999,48133,30934
40967,48099,30838
40944,48078,30752
40856,47978,30597
40769,47876,30454
40751,47856,30399
40731,47841,30347
40660,47758,30232
40610,47691,30138
40625,47697,30119
40630,47697,30095
40584,47642,30027
40560,47616,29998
40593,47653,30031
40607,47663,30032
40582,47629,29988
40592,47643,29998
40642,47704,30063
40652,47712,30084
40626,47677,30069
40640,47703,30112
40679,47768,30187
40664,47759,30192
40617,47703,30152
40622,47710,30163
40655,47749,30198
40633,47713,30165
40579,47639,30099
40569,47625,30088
40577,47632,30088
40523,47559,30007
40439,47456,29900
40404,47423,29859
40372,47397,29820
40267,47283,29686
40145,47155,29528
40085,47112,29444
40036,47078,29363
39927,46961,29199
39817,46840,29032
39779,46805,28944
39748,46773,28856
39644,46651,28683
39529,46521,28499
39473,46462,28380
39409,46391,28253
39279,46242,28060
39164,46108,27883
39120,46053,27777
39074,45991,27658
38972,45871,27483
38878,45770,27336
38830,45723,27249
38758,45644,27124
38636,45508,26948
38542,45412,26818
38487,45367,26741
38393,45279,26616
38262,45147,26450
38184,45072,26345
38153,45049,26287
38082,44974,26170
37977,44858,26013
37919,44799,25918
37893,44776,25858
37821,44691,25733
37735,44582,25590
37706,44547,25525
37694,44538,25483
37626,44461,25368
37543,44364,25238
37519,44342,25186
37504,44336,25147
37428,44257,25028
37352,44173,24907
37354,44179,24880
37369,44197,24864
37314,44128,24759
37248,44048,24645
37243,44044,24610
37232,44036,24571
37148,43943,24447
37061,43845,24317
37042,43821,24256
37022,43789,24193
36938,43682,24059
36863,43593,23944
36861,43595,23913
36867,43602,23893
36833,43560,23844
36827,43565,23854
36901,43663,23957
36999,43770,24075
37094,43865,24208
37258,44047,24456
37504,44325,24817
37756,44594,25194
38002,44848,25590
38309,45182,26093
38665,45582,26679
38984,45931,27233
39270,46237,27766
39602,46601,28366
39954,46992,28987
40239,47299,29522
40479,47556,30007
40753,47868,30531
41027,48189,31042
41222,48409,31442
41371,48575,31777
41556,48791,32140
41741,49002,32477
41841,49110,32694
41895,49180,32860
41989,49307,33064
42075,49418,33234
42073,49417,33277
42037,49381,33269
42043,49402,33301
42034,49403,33302
41946,49305,33195
41843,49197,33064
41797,49160,32987
41747,49113,32893
41628,48983,32720
41514,48860,32548
41467,48815,32445
41412,48754,32329
41290,48613,32144
41175,48484,31972
41110,48417,31855
41020,48322,31701
40873,48158,31481
40748,48024,31296
40677,47948,31159
40586,47832,30981
40458,47670,30766
40365,47565,30607
40311,47512,30498
40216,47405,30344
40085,47262,30160
40012,47193,30049
39985,47176,29986
39909,47098,29866
39804,46988,29722
39766,46951,29661
39768,46955,29643
39726,46898,29564
39672,46824,29475
39686,46836,29473
39721,46878,29498
39693,46846,29453
39646,46795,29402
39662,46828,29438
39699,46881,29491
39686,46859,29475
39678,46838,29467
39738,46903,29544
39798,46972,29618
39783,46953,29606
39750,46920,29586
39773,46961,29629
39794,46996,29658
39753,46949,29612
39719,46907,29575
39749,46942,29608
39771,46962,29619
39725,46893,29550
39668,46821,29480
39649,46807,29451
39604,46763,29380
39499,46644,29238
39405,46547,29121
39351,46505,29046
39269,46420,28921
39147,46277,28746
39062,46185,28618
39019,46145,28531
38933,46051,28388
38809,45910,28211
38730,45827,28096
38677,45779,28005
38569,45662,27837
38436,45507,27633
38361,45420,27500
38317,45366,27402
38221,45245,27242
38100,45102,27065
38034,45036,26959
37991,44999,26875
37896,44888,26722
37783,44758,26557
37723,44707,26467
37676,44670,26386
37570,44549,26225
37457,44420,26061
37419,44393,25986
37399,44382,25917
37318,44285,25762
37229,44177,25603
37195,44148,25521
37153,44117,25434
37042,44004,25271
36935,43894,25122
36897,43861,25056
36855,43820,24983
36746,43700,24833
36645,43593,24696
36611,43563,24628
36574,43518,24542
36489,43412,24404
36422,43341,24307
36411,43334,24271
36383,43296,24199
36312,43206,24078
36267,43162,23999
36255,43164,23955
36199,43106,23849
36109,42997,23698
36066,42947,23612
36052,42939,23567
35977,42859,23453
35865,42733,23301
35805,42669,23222
35775,42637,23181
35690,42538,23076
35576,42412,22945
35523,42365,22885
35506,42355,22853
35443,42281,22754
35378,42203,22656
35399,42233,22668
35464,42307,22732
35494,42326,22760
35546,42377,22840
35706,42567,23075
35915,42812,23387
36093,43008,23681
36302,43234,24031
36608,43578,24510
36938,43949,25036
37221,44255,25530
37525,44584,26066
37905,45009,26699
38279,45427,27330
38581,45751,27887
38877,46066,28440
39213,46435,29028
39517,46764,29561
39739,46993,29995
39949,47214,30419
40181,47473,30859
40360,47675,31214
40465,47795,31477
40575,47932,31746
40703,48093,32016
40767,48176,32178
40762,48182,32240
40776,48215,32312
40810,48267,32389
40787,48240,32371
40712,48152,32282
40670,48110,32228
40643,48087,32184
40549,47982,32047
40413,47834,31860
40322,47748,31728
40256,47688,31619
40135,47558,31437
39997,47409,31233
39926,47342,31108
39880,47298,30999
39772,47176,30811
39653,47048,30618
39604,47008,30518
39567,46975,30427
39457,46850,30246
39338,46713,30052
39288,46656,29932
39234,46596,29809
39098,46445,29601
38959,46296,29394
38897,46238,29272
38845,46186,29163
38737,46060,28997
38630,45940,28849
38585,45899,28777
38543,45863,28697
38453,45769,28568
38386,45702,28483
38384,45708,28471
38378,45699,28439
38344,45649,28366
38350,45647,28346
38409,45702,28385
38437,45712,28391
38422,45673,28361
38449,45695,28388
38508,45767,28457
38512,45773,28467
38474,45725,28442
38482,45736,28482
38519,45787,28553
38509,45771,28554
38476,45721,28520
38494,45734,28546
38526,45768,28587
38486,45723,28539
38407,45644,28457
38377,45632,28446
38361,45640,28451
38288,45571,28375
38206,45489,28282
38190,45486,28261
38178,45484,28238
38091,45387,28117
37989,45276,27973
37954,45251,27903
37929,45232,27834
37839,45125,27680
37743,45012,27518
37706,44978,27425
37667,44938,27326
37563,44813,27149
37454,44679,26972
37399,44611,26859
37331,44531,26722
37200,44384,26513
37080,44259,26329
37018,44204,26216
36940,44124,26081
36810,43981,25896
36698,43871,25752
36633,43820,25657
36550,43730,25515
36438,43592,25330
36378,43511,25208
36363,43486,25136
36301,43405,25002
36195,43277,24824
36135,43206,24710
36105,43168,24636
36015,43057,24493
35884,42909,24310
35805,42831,24193
35762,42792,24111
35668,42685,23967
35549,42552,23802
35490,42499,23714
35456,42475,23655
35366,42380,23529
35269,42277,23399
35239,42264,23354
35217,42260,23310
35123,42160,23171
35018,42042,23018
34975,42012,22950
34939,41990,22893
34842,41881,22756
34746,41766,22619
34717,41736,22559
34683,41710,22494
34582,41607,22356
34489,41511,22233
34464,41495,22182
34440,41473,22113
34360,41374,21971
34289,41282,21842
34277,41260,21775
34249,41217,21681
34159,41106,21529
34079,41018,21410
34037,40980,21345
33957,40893,21233
33830,40755,21073
33754,40686,20977
33746,40692,20950
33723,40663,20897
33687,40611,20842
33723,40651,20892
33828,40768,21029
33917,40856,21157
34008,40944,21306
34193,41146,21587
34449,41428,21965
34687,41677,22337
34926,41926,22738
35244,42278,23262
35604,42676,23848
35917,43009,24387
36213,43329,24927
36560,43720,25548
36905,44106,26171
37171,44391,26697
37406,44642,27186
37682,44956,27721
37939,45252,28222
38104,45435,28595
38243,45590,28920
38428,45811,29278
38587,46007,29583
38651,46091,29764
38690,46148,29902
38764,46256,30060
38805,46326,30153
38759,46286,30127
38704,46232,30086
38699,46229,30087
38672,46194,30042
38571,46078,29906
38470,45970,29777
38414,45910,29690
38333,45810,29549
38200,45651,29344
38092,45531,29176
38023,45458,29053
37916,45338,28875
37772,45174,28648
37668,45064,28474
37596,44993,28337
37471,44858,28141
37313,44691,27916
37216,44598,27757
37159,44538,27629
37045,44399,27431
36898,44226,27207
36811,44132,27059
36759,44072,26938
36652,43942,26747
36523,43796,26548
36461,43742,26443
36432,43721,26369
36360,43631,26232
36294,43547,26113
36306,43566,26103
36328,43604,26107
36286,43557,26037
36246,43508,25980
36276,43553,26018
36309,43612,26064
36286,43599,26040
36278,43593,26028
36348,43671,26102
36421,43746,26174
36429,43739,26174
36438,43734,26189
36512,43802,26278
36576,43859,26350
36572,43850,26354
36571,43856,26372
36617,43912,26435
36637,43925,26453
36605,43873,26408
36598,43862,26398
36627,43900,26424
36610,43878,26386
36550,43798,26294
36530,43766,26249
36539,43774,26234
36490,43713,26144
36398,43604,26012
36344,43552,25937
36306,43528,25885
36207,43429,25756
36074,43291,25591
35991,43216,25486
35939,43169,25394
35841,43054,25225
35724,42918,25040
35668,42864,24937
35636,42835,24852
35549,42730,24689
35448,42609,24519
35408,42570,24437
35369,42537,24353
35253,42410,24171
35131,42273,23979
35085,42227,23874
35047,42188,23776
34944,42068,23600
34845,41950,23424
34816,41912,23325
34783,41867,23226
34679,41746,23057
34581,41631,22897
34552,41591,22807
34522,41546,22713
34433,41441,22563
34355,41355,22435
34334,41333,22368
34304,41290,22273
34230,41196,22127
34179,41142,22029
34175,41140,21991
34130,41084,21903
34035,40971,21757
33982,40910,21660
33972,40904,21609
33920,40844,21495
33835,40739,21344
33801,40695,21264
33796,40690,21217
33732,40610,21095
33634,40489,20946
33592,40440,20870
33579,40429,20825
33516,40355,20720
33437,40266,20608
33422,40260,20585
33441,40290,20596
33425,40265,20558
33422,40257,20551
33506,40367,20671
33631,40524,20853
33732,40634,21011
33865,40769,21227
34100,41026,21582
34368,41321,21993
34590,41556,22374
34830,41805,22796
35153,42153,23329
35485,42514,23876
35755,42798,24355
36019,43085,24846
36335,43447,25410
36641,43793,25953
36875,44043,26406
37090,44272,26841
37330,44537,27294
37522,44754,27674
37637,44883,27950
37754,45019,28219
37897,45182,28495
37988,45276,28681
38023,45303,28784
38077,45361,28907
38140,45443,29032
38130,45442,29051
38063,45368,28995
38029,45336,28970
38017,45333,28948
37943,45255,28832
37827,45128,28665
37758,45062,28550
37711,45022,28450
37601,44897,28268
37461,44737,28055
37373,44642,27909
37295,44558,27773
37149,44386,27551
36993,44203,27315
36913,44113,27167
36852,44042,27031
36727,43892,26812
36594,43738,26589
36536,43679,26455
36487,43635,26330
36366,43508,26117
36234,43371,25896
36169,43312,25756
36108,43255,25619
35987,43119,25413
35880,42995,25232
35855,42968,25151
35840,42947,25079
35767,42855,24952
35700,42781,24857
35700,42783,24839
35699,42776,24808
35657,42719,24728
35644,42704,24696
35689,42752,24726
35714,42767,24719
35698,42733,24674
35717,42753,24694
35774,42827,24774
35786,42844,24802
35759,42809,24790
35784,42836,24844
35844,42910,24935
35843,42909,24953
35802,42858,24931
35813,42870,24973
35854,42915,25031
35838,42882,25005
35788,42813,24946
35783,42816,24956
35795,42847,24981
35743,42799,24925
35672,42726,24847
35659,42729,24839
35659,42740,24821
35594,42661,24703
35514,42566,24569
35503,42559,24514
35501,42558,24462
35426,42464,24325
35335,42359,24177
35300,42328,24097
35255,42283,24005
35138,42143,23828
35021,42006,23652
34966,41952,23548
34902,41894,23429
34776,41757,23233
34666,41632,23056
34630,41585,22961
34582,41525,22856
34467,41394,22688
34360,41281,22541
34305,41226,22444
34221,41126,22297
34079,40962,22087
33966,40850,21928
33904,40802,21824
33813,40706,21671
33695,40568,21484
33632,40499,21368
33614,40485,21301
33545,40407,21167
33439,40278,20993
33382,40208,20887
33347,40171,20811
33250,40066,20663
33123,39932,20485
33055,39872,20378
33019,39842,20299
32932,39741,20157
32828,39625,20005
32786,39595,19935
32764,39586,19886
32677,39491,19757
32576,39380,19620
32545,39363,19568
32525,39362,19518
32441,39276,19382
32368,39188,19254
32383,39198,19227
32410,39222,19221
32376,39179,19157
32360,39164,19129
32443,39263,19225
32551,39389,19364
32618,39465,19476
32727,39585,19650
32952,39824,19959
33218,40098,20324
33454,40342,20687
33726,40631,21126
34079,41006,21669
34427,41367,22217
34724,41677,22738
35040,42030,23317
35392,42439,23955
35698,42793,24533
35951,43081,25040
36241,43405,25578
36559,43753,26132
36806,44014,26590
36986,44202,26964
37185,44424,27358
37394,44657,27749
37526,44793,28033
37599,44868,28236
37698,44984,28455
37788,45095,28649
37789,45099,28722
37745,45053,28725
37745,45065,28761
37752,45083,28780
37689,45010,28698
37606,44915,28594
37576,44899,28561
37547,44886,28510
37444,44777,28352
37332,44655,28183
37294,44622,28101
37263,44597,28018
37164,44481,27843
37069,44360,27661
37044,44323,27555
37014,44284,27442
36917,44166,27246
36816,44046,27047
36771,43995,26918
36716,43928,26782
36594,43785,26583
36478,43660,26411
36424,43608,26303
36361,43536,26171
36249,43402,25991
36158,43306,25862
36116,43278,25795
36042,43209,25682
35930,43088,25516
35873,43026,25412
35868,43022,25368
35826,42970,25280
35757,42881,25166
35750,42862,25136
35785,42892,25160
35770,42869,25132
35730,42820,25082
35753,42844,25109
35807,42903,25175
35803,42897,25183
35779,42874,25175
35824,42934,25250
35899,43019,25349
35916,43024,25370
35916,43011,25377
35977,43085,25464
36043,43167,25552
36037,43152,25545
36017,43120,25524
36061,43174,25579
36101,43231,25622
36060,43193,25566
36013,43149,25501
36039,43187,25513
36068,43215,25519
36021,43149,25440
35962,43076,25359
35955,43077,25339
35931,43061,25290
35837,42959,25156
35752,42862,25034
35728,42831,24972
35684,42774,24881
35572,42646,24722
35472,42541,24585
35424,42494,24491
35350,42402,24351
35229,42250,24161
35143,42150,24023
35099,42108,23937
35012,42013,23795
34889,41874,23609
34818,41800,23489
34784,41767,23406
34694,41658,23251
34572,41507,23058
34512,41435,22940
34492,41417,22859
34419,41337,22713
34324,41234,22550
34301,41213,22475
34312,41222,22437
34262,41153,22330
34181,41062,22211
34152,41053,22176
34129,41053,22142
34032,40959,22011
33926,40848,21868
33901,40825,21816
33894,40813,21774
33823,40717,21648
33753,40619,21521
33755,40613,21476
33759,40615,21429
33688,40535,21300
33618,40459,21185
33618,40465,21159
33610,40459,21124
33524,40366,21007
33436,40278,20893
33411,40263,20843
33391,40238,20779
33328,40153,20669
33291,40104,20608
33327,40143,20630
33370,40181,20646
33397,40198,20654
33482,40291,20761
33636,40466,20972
33783,40623,21194
33928,40774,21444
34158,41027,21823
34452,41362,22296
34724,41666,22750
34992,41958,23213
35341,42337,23790
35736,42764,24440
36075,43122,25041
36374,43442,25617
36720,43831,26257
37086,44245,26908
37382,44573,27465
37646,44858,27975
37957,45202,28534
38263,45539,29067
38478,45769,29471
38656,45961,29815
38876,46209,30192
39073,46429,30519
39157,46518,30703
39196,46561,30825
39280,46662,30981
39348,46746,31092
39326,46721,31079
39290,46672,31038
39313,46690,31055
39320,46693,31047
39244,46602,30943
39160,46508,30830
39130,46477,30771
39081,46421,30680
38965,46288,30510
38857,46172,30351
38802,46119,30242
38729,46035,30090
38606,45892,29878
38513,45796,29716
38470,45756,29608
38389,45663,29448
38260,45512,29236
38173,45419,29080
38131,45378,28977
38043,45277,28820
37912,45128,28623
37827,45043,28485
37778,44997,28381
37687,44888,28218
37581,44755,28041
37542,44706,27956
37531,44699,27908
37461,44624,27795
37373,44529,27675
37356,44521,27653
37370,44544,27664
37334,44499,27603
37295,44456,27541
37333,44515,27580
37390,44591,27644
37383,44574,27629
37372,44548,27616
37435,44624,27701
37511,44718,27798
37521,44725,27814
37526,44722,27832
37597,44801,27930
37660,44875,28019
37647,44856,28019
37634,44832,28018
37694,44886,28086
37748,44932,28133
37723,44897,28095
37694,44871,28063
37722,44910,28086
37734,44918,28069
37684,44847,27982
37641,44798,27926
37627,44798,27909
37566,44743,27824
37460,44625,27680
37404,44561,27593
37398,44548,27553
37343,44473,27448
37247,44359,27299
37200,44313,27211
37181,44298,27152
37100,44199,27015
36982,44055,26834
36917,43979,26714
36879,43938,26616
36790,43829,26451
36682,43698,26276
36635,43646,26190
36605,43620,26122
36504,43513,25966
36385,43389,25799
36337,43355,25734
36307,43342,25687
36214,43247,25550
36117,43148,25406
36100,43144,25351
36096,43148,25298
36020,43054,25151
35939,42951,24997
35929,42938,24930
35914,42926,24860
35828,42829,24709
35752,42739,24570
35751,42730,24516
35750,42714,24460
35681,42619,24337
35613,42535,24232
35599,42524,24196
35562,42491,24127
35461,42389,23989
35386,42321,23886
35370,42312,23843
35332,42258,23753
35251,42145,23614
35207,42086,23536
35206,42081,23509
35155,42017,23422
35053,41903,23285
34990,41850,23198
34963,41841,23141
34891,41761,23015
34796,41641,22860
34761,41596,22789
34760,41598,22761
34709,41539,22671
34643,41460,22573
34656,41473,22584
34716,41540,22658
34738,41563,22697
34776,41612,22775
34926,41795,23005
35139,42041,23319
35323,42237,23613
35535,42464,23964
35857,42826,24462
36214,43222,25013
36515,43535,25511
36822,43854,26038
37207,44279,26678
37595,44709,27325
37908,45044,27886
38212,45371,28443
38565,45764,29060
38890,46132,29638
39125,46397,30105
39346,46647,30550
39606,46942,31022
39821,47181,31415
39932,47305,31676
40025,47415,31904
40151,47555,32136
40232,47626,32279
40236,47611,32324
40245,47622,32375
40280,47670,32439
40255,47640,32412
40165,47534,32309
40106,47477,32244
40074,47458,32199
39980,47362,32068
39852,47218,31894
39785,47148,31787
39752,47119,31711
39655,47011,31552
39527,46862,31355
39453,46784,31227
39392,46728,31110
39263,46592,30899
39116,46436,30670
39035,46367,30532
38970,46319,30415
38837,46182,30212
38691,46027,29998
38620,45965,29877
38567,45915,29762
38449,45772,29557
38329,45626,29355
38282,45578,29251
38244,45544,29155
38143,45429,28990
38058,45325,28851
38061,45321,28813
38068,45326,28773
38006,45250,28658
37951,45185,28562
37969,45204,28554
37988,45223,28545
37951,45178,28481
37933,45162,28453
37979,45220,28498
38006,45243,28514
37977,45201,28475
37977,45204,28483
38028,45266,28549
38043,45274,28567
38013,45226,28533
38032,45233,28556
38092,45285,28621
38102,45266,28616
38071,45203,28563
38084,45209,28570
38119,45253,28604
38090,45221,28558
38024,45150,28475
38009,45148,28463
38013,45169,28473
37947,45110,28394
37851,45021,28280
37816,45004,28233
37792,45001,28195
37696,44908,28070
37585,44796,27925
37544,44764,27861
37507,44731,27797
37387,44596,27633
37257,44451,27450
37207,44399,27346
37167,44351,27246
37051,44210,27062
36927,44068,26875
36874,44015,26770
36821,43963,26664
36697,43825,26478
36573,43692,26294
36513,43644,26178
36450,43588,26047
36331,43456,25853
36228,43342,25691
36186,43304,25605
36129,43243,25494
36019,43119,25329
35934,43033,25204
35894,43002,25122
35819,42918,24983
35705,42782,24798
35635,42711,24679
35609,42697,24617
35534,42620,24499
35413,42490,24332
35342,42422,24223
35316,42398,24150
35245,42303,24010
35141,42171,23837
35089,42118,23742
35067,42105,23692
34992,42021,23583
34895,41914,23454
34854,41887,23392
34828,41878,23336
34741,41786,23199
34647,41684,23065
34622,41678,23032
34614,41689,23011
34542,41605,22898
34461,41503,22775
34443,41490,22739
34417,41480,22699
34312,41376,22560
34203,41263,22409
34171,41232,22338
34148,41202,22273
34057,41089,22130
33964,40981,21984
33935,40955,21913
33905,40922,21836
33815,40811,21696
33743,40725,21584
33740,40725,21547
33735,40719,21494
33689,40661,21407
33682,40653,21395
33747,40730,21482
33812,40803,21568
33873,40863,21653
34018,41016,21854
34239,41255,22167
34443,41474,22487
34641,41687,22826
34922,41998,23285
35263,42376,23832
35568,42702,24346
35844,42996,24848
36176,43365,25438
36536,43762,26067
36835,44076,26619
37104,44357,27136
37422,44709,27707
37746,45072,28271
37985,45331,28724
38173,45536,29125
38393,45789,29561
38595,46025,29955
38693,46139,30202
38742,46205,30376
38828,46323,30583
38891,46420,30747
38860,46408,30780
38820,46381,30777
38853,46433,30831
38878,46467,30857
38809,46390,30766
38719,46295,30647
38686,46272,30579
38643,46229,30482
38519,46087,30293
38387,45940,30103
38315,45862,29970
38239,45766,29807
38107,45597,29574
37986,45450,29365
37914,45366,29211
37810,45244,29014
37646,45061,28762
37511,44928,28561
37426,44855,28415
37306,44732,28223
37147,44562,27992
37042,44454,27822
36982,44396,27697
36877,44277,27514
36747,44129,27307
36681,44062,27184
36654,44033,27104
36569,43931,26964
36457,43801,26809
36417,43761,26746
36420,43765,26722
36372,43703,26638
36309,43628,26548
36316,43645,26547
36348,43690,26573
36321,43660,26536
36286,43629,26512
36329,43699,26596
36387,43785,26697
36372,43778,26703
36352,43763,26697
36419,43845,26785
36499,43935,26879
36504,43931,26880
36501,43914,26869
36566,43980,26933
36621,44042,26984
36598,44017,26954
36574,43991,26929
36610,44038,26967
36630,44068,26976
36576,44011,26900
36530,43955,26838
36544,43958,26835
36539,43931,26790
36471,43838,26675
36414,43776,26596
36393,43760,26562
36327,43684,26464
36213,43551,26305
36148,43477,26200
36127,43449,26136
36048,43354,26000
35925,43215,25815
35855,43142,25693
35816,43106,25603
35713,42995,25436
35576,42846,25236
35499,42769,25108
35452,42729,25007
35348,42621,24831
35228,42497,24648
35178,42458,24564
35154,42446,24508
35063,42352,24363
34950,42236,24203
34903,42205,24137
34873,42190,24079
34779,42090,23926
34681,41983,23763
34662,41966,23691
34649,41950,23623
34560,41842,23467
34464,41727,23311
34444,41695,23244
34424,41663,23179
34331,41555,23035
34241,41463,22899
34228,41460,22843
34216,41450,22777
34137,41350,22635
34064,41256,22509
34045,41232,22444
33998,41184,22347
33888,41067,22194
33800,40978,22091
33764,40946,22050
33701,40875,21961
33596,40753,21818
33535,40681,21727
33519,40655,21679
33457,40576,21566
33358,40462,21411
33310,40414,21317
33300,40406,21260
33245,40339,21145
33169,40247,21012
33161,40240,20970
33186,40280,20981
33162,40263,20945
33145,40247,20926
33239,40349,21048
33407,40526,21267
33552,40672,21480
33711,40844,21747
33970,41141,22158
34277,41483,22628
34536,41753,23045
34800,42032,23491
35157,42432,24066
35534,42857,24673
35839,43191,25207
36143,43522,25747
36514,43941,26366
36864,44334,26961
37117,44602,27439
37347,44842,27887
37619,45141,28373
37860,45410,28806
38005,45567,29116
38129,45701,29394
38293,45889,29700
38416,46037,29939
38449,46082,30060
38473,46116,30154
38527,46174,30251
38539,46169,30262
38489,46093,30187
38451,46052,30129
38433,46044,30090
38356,45957,29973
38228,45806,29794
38143,45711,29659
38097,45659,29553
38000,45538,29376
37862,45371,29149
37768,45269,28977
37697,45203,28836
37563,45059,28627
37394,44878,28386
37282,44774,28215
37193,44697,28063
37040,44534,27831
36864,44347,27578
36747,44243,27402
36654,44164,27245
36506,44008,27016
36357,43853,26792
36299,43807,26674
36272,43785,26579
36181,43673,26407
36080,43556,26240
36063,43542,26178
36067,43547,26135
36014,43474,26020
35972,43412,25920
36002,43444,25914
36034,43478,25921
36002,43436,25872
35972,43407,25845
36013,43462,25899
36062,43511,25943
36055,43487,25924
36056,43485,25938
36117,43555,26021
36162,43600,26075
36156,43582,26072
36179,43602,26115
36242,43675,26210
36259,43690,26241
36228,43645,26211
36241,43655,26232
36286,43706,26280
36273,43682,26253
36217,43609,26187
36208,43604,26188
36226,43633,26214
36179,43578,26156
36093,43477,26053
36060,43446,26009
36048,43440,25981
35970,43351,25869
35859,43225,25721
35798,43169,25635
35751,43130,25560
35639,43010,25405
35512,42874,25238
35453,42823,25148
35407,42776,25055
35290,42640,24873
35171,42507,24692
35134,42479,24603
35109,42456,24519
35014,42344,24349
34917,42234,24180
34890,42211,24091
34865,42181,23997
34773,42061,23829
34688,41947,23674
34666,41915,23589
34634,41876,23492
34547,41766,23337
34473,41676,23209
34453,41658,23143
34411,41614,23047
34310,41501,22890
34228,41418,22771
34201,41399,22712
34151,41339,22612
34063,41226,22466
34018,41172,22375
34012,41172,22328
33955,41109,22218
33859,41000,22070
33816,40959,21994
33807,40959,21958
33741,40888,21849
33643,40779,21704
33600,40743,21628
33588,40737,21580
33518,40654,21460
33419,40536,21319
33377,40490,21254
33355,40471,21211
33267,40377,21089
33162,40271,20951
33134,40258,20899
33136,40270,20866
33079,40197,20752
33018,40117,20638
33031,40140,20620
33051,40179,20610
33002,40130,20518
32961,40083,20447
33017,40141,20496
33101,40229,20591
33145,40272,20658
33235,40367,20794
33442,40593,21082
33684,40852,21432
33887,41065,21769
34125,41321,22173
34461,41685,22699
34823,42063,23256
35149,42396,23797
35501,42771,24404
35906,43218,25085
36283,43628,25723
36599,43967,26298
36930,44328,26902
37278,44716,27523
37560,45026,28050
37778,45264,28497
38022,45540,28971
38282,45839,29442
38461,46042,29793
38573,46168,30055
38712,46327,30335
38850,46485,30590
38902,46535,30716
38902,46517,30761
38931,46545,30834
38953,46580,30885
38892,46521,30828
38801,46429,30733
38766,46410,30696
38743,46401,30650
38653,46296,30500
38538,46164,30327
38475,46115,30230
38409,46068,30128
38267,45921,29928
38119,45765,29716
38049,45705,29579
37989,45653,29443
37865,45512,29229
37743,45366,29020
37690,45303,28892
37624,45231,28751
37478,45065,28524
37340,44902,28303
37279,44825,28158
37217,44747,27997
37096,44601,27775
36995,44485,27597
36961,44449,27500
36910,44391,27377
36805,44273,27209
36730,44195,27100
36705,44177,27055
36647,44118,26971
36559,44017,26848
36534,43982,26792
36557,44003,26788
36533,43971,26734
36481,43913,26661
36498,43935,26673
36558,44002,26734
36562,44002,26732
36533,43964,26705
36562,44001,26763
36620,44072,26854
36616,44066,26864
36593,44033,26852
36636,44081,26924
36696,44150,27010
36692,44135,27007
36677,44106,26990
36725,44166,27058
36773,44230,27123
36741,44190,27082
36693,44132,27019
36708,44161,27030
36720,44189,27027
36647,44113,26924
36556,44022,26808
36528,44008,26761
36498,43981,26697
36393,43858,26538
36281,43727,26371
36233,43667,26276
36181,43597,26168
36061,43449,25988
35943,43311,25826
35875,43243,25721
35792,43149,25573
35654,42987,25360
35537,42862,25190
35475,42801,25078
35385,42697,24914
35254,42543,24702
35167,42450,24553
35122,42406,24455
35029,42302,24296
34903,42157,24097
34834,42081,23966
34800,42050,23876
34704,41954,23718
34576,41823,23530
34511,41764,23415
34484,41742,23329
34406,41645,23174
34308,41522,23005
34275,41482,22925
34263,41473,22877
34179,41384,22751
34068,41274,22611
34019,41244,22550
33983,41223,22488
33883,41107,22333
33786,40987,22177
33768,40970,22125
33759,40964,22089
33676,40868,21969
33593,40775,21850
33589,40775,21818
33591,40775,21782
33518,40683,21653
33442,40586,21519
33434,40574,21464
33419,40561,21399
33330,40464,21259
33246,40372,21135
33219,40349,21070
33176,40308,20973
33076,40196,20813
32995,40111,20694
32971,40095,20636
32926,40044,20542
32841,39941,20411
32802,39899,20352
32815,39926,20361
32803,39911,20330
32769,39865,20281
32811,39911,20341
32930,40045,20498
33039,40157,20655
33150,40265,20845
33349,40481,21175
33619,40778,21608
33870,41045,22036
34126,41311,22500
34464,41678,23089
34840,42093,23736
35163,42447,24323
35474,42789,24904
35857,43218,25576
36262,43671,26267
36594,44038,26860
36896,44374,27417
37246,44771,28031
37573,45144,28609
37789,45390,29041
37961,45590,29407
38175,45841,29804
38362,46056,30142
38447,46148,30334
38506,46207,30477
38614,46320,30661
38698,46403,30794
38689,46379,30804
38656,46333,30777
38659,46336,30778
38627,46302,30722
38510,46177,30569
38391,46056,30418
38323,45988,30310
38234,45887,30158
38092,45728,29947
37986,45613,29780
37934,45554,29662
37837,45439,29483
37689,45271,29251
37587,45163,29072
37528,45099,28935
37418,44970,28735
37269,44802,28492
37170,44700,28314
37100,44629,28172
36972,44487,27959
36813,44316,27718
36719,44224,27552
36665,44167,27424
36566,44042,27243
36456,43906,27064
36415,43870,26982
36402,43869,26925
36333,43791,26792
36249,43697,26657
36228,43695,26624
36224,43714,26610
36162,43647,26518
36103,43574,26428
36124,43600,26437
36154,43639,26461
36115,43592,26411
36084,43548,26377
36140,43603,26449
36207,43667,26531
36207,43653,26538
36203,43647,26551
36259,43725,26634
36306,43791,26701
36288,43774,26697
36287,43773,26714
36348,43844,26793
36392,43892,26833
36375,43869,26803
36370,43869,26796
36407,43912,26829
36402,43891,26799
36336,43795,26706
36299,43746,26661
36293,43746,26652
36228,43678,26562
36119,43553,26411
36064,43489,26317
36046,43464,26260
35968,43367,26128
35854,43229,25954
35790,43163,25846
35749,43131,25760
35646,43018,25591
35518,42872,25394
35454,42803,25278
35411,42758,25182
35303,42632,25003
35184,42496,24816
35140,42457,24726
35116,42437,24654
35027,42326,24495
34923,42202,24328
34881,42168,24247
34841,42142,24160
34731,42018,23974
34624,41889,23789
34589,41849,23696
34549,41812,23607
34436,41693,23441
34327,41576,23276
34287,41537,23184
34244,41488,23083
34140,41364,22911
34048,41258,22756
34022,41228,22674
33991,41183,22581
33910,41075,22439
33849,40998,22337
33841,40993,22293
33805,40955,22205
33714,40855,22063
33656,40799,21977
33639,40794,21944
33571,40729,21848
33457,40608,21697
33397,40545,21609
33378,40532,21565
33307,40453,21452
33200,40327,21301
33149,40272,21220
33133,40256,21167
33059,40168,21040
32960,40041,20889
32925,39995,20819
32919,39992,20783
32855,39922,20670
32776,39831,20538
32760,39823,20494
32758,39833,20465
32681,39749,20341
32586,39643,20203
32562,39629,20160
32554,39635,20134
32489,39566,20038
32445,39516,19968
32509,39586,20029
32612,39696,20144
32674,39756,20231
32770,39860,20381
32985,40103,20687
33248,40388,21064
33481,40627,21433
33751,40907,21876
34111,41298,22445
34483,41701,23039
34804,42046,23600
35145,42417,24210
35553,42865,24901
35941,43285,25557
36264,43632,26139
36600,44000,26745
36959,44398,27374
37247,44708,27905
37460,44933,28339
37695,45195,28787
37949,45486,29233
38121,45684,29565
38223,45804,29807
38351,45958,30063
38488,46115,30300
38538,46165,30412
38527,46144,30435
38549,46164,30481
38579,46188,30516
38525,46115,30442
38422,45995,30308
38364,45940,30226
38321,45899,30148
38207,45771,29975
38073,45624,29780
38005,45562,29667
37950,45509,29554
37822,45363,29340
37684,45204,29117
37617,45136,28983
37554,45076,28847
37419,44931,28623
37291,44791,28405
37243,44741,28280
37199,44692,28155
37085,44559,27947
36974,44428,27745
36931,44381,27622
36880,44327,27490
36764,44194,27294
36657,44074,27130
36614,44028,27041
36555,43963,26927
36438,43829,26758
36347,43735,26642
36320,43721,26604
36280,43681,26536
36214,43597,26431
36208,43584,26398
36261,43642,26431
36273,43650,26421
36240,43617,26379
36256,43653,26411
36316,43733,26484
36330,43745,26488
36313,43714,26459
36349,43751,26507
36408,43816,26589
36402,43800,26598
36372,43750,26585
36405,43784,26651
36462,43849,26731
36456,43831,26720
36433,43786,26686
36468,43821,26735
36507,43868,26791
36473,43824,26752
36434,43771,26699
36470,43814,26732
36506,43863,26763
36461,43813,26692
36409,43751,26609
36425,43773,26598
36439,43786,26564
36374,43697,26428
36299,43596,26284
36283,43573,26210
36252,43534,26115
36142,43405,25933
36032,43286,25759
35979,43240,25647
35908,43170,25513
35769,43021,25316
35640,42887,25149
35564,42813,25043
35466,42708,24895
35327,42554,24697
35227,42454,24557
35176,42415,24471
35095,42324,24323
34986,42185,24123
34935,42116,23989
34931,42101,23906
34872,42025,23766
34775,41912,23596
34732,41867,23494
34722,41852,23421
34650,41756,23277
34542,41619,23104
34488,41553,23004
34452,41514,22929
34345,41396,22772
34220,41256,22597
34164,41207,22514
34137,41190,22450
34055,41095,22307
33961,40993,22164
33938,40989,22122
33930,40997,22092
33849,40912,21972
33764,40829,21854
33760,40846,21830
33760,40864,21809
33678,40784,21699
33596,40698,21581
33589,40693,21539
33584,40682,21489
33507,40583,21355
33430,40481,21226
33417,40460,21169
33396,40431,21098
33313,40329,20962
33244,40247,20856
33233,40236,20813
33201,40194,20738
33115,40089,20606
33066,40038,20531
33086,40072,20543
33096,40090,20551
33093,40086,20559
33177,40178,20687
33345,40369,20934
33501,40546,21187
33657,40717,21457
33907,40989,21851
34228,41339,22341
34523,41652,22814
34811,41952,23299
35172,42343,23894
35563,42779,24542
35894,43139,25127
36195,43463,25690
36548,43858,26322
36911,44268,26951
37193,44575,27470
37431,44832,27939
37705,45140,28449
37966,45433,28916
38135,45614,29247
38274,45764,29527
38459,45975,29850
38611,46158,30121
38654,46212,30243
38662,46223,30306
38719,46289,30406
38755,46330,30456
38703,46261,30383
38646,46178,30288
38646,46160,30250
38616,46114,30175
38499,45974,30003
38374,45839,29831
38297,45770,29706
38199,45671,29537
38043,45500,29298
37906,45354,29094
37819,45268,28941
37711,45145,28738
37563,44973,28485
37453,44853,28282
37390,44784,28127
37288,44650,27916
37146,44465,27667
37053,44348,27484
37003,44288,27346
36916,44176,27156
36805,44035,26947
36745,43970,26816
36714,43949,26723
36631,43862,26566
36528,43746,26396
36487,43705,26316
36472,43699,26275
36403,43629,26175
36326,43551,26073
36324,43564,26068
36352,43602,26096
36330,43566,26060
36310,43536,26035
36367,43609,26115
36433,43697,26212
36428,43699,26231
36422,43701,26251
36501,43800,26358
36600,43908,26467
36637,43931,26495
36671,43949,26520
36760,44044,26610
36837,44126,26689
36846,44122,26695
36849,44116,26706
36900,44174,26771
36946,44219,26810
36943,44196,26780
36950,44189,26764
37002,44238,26787
37026,44247,26758
36992,44189,26667
36972,44163,26611
36975,44172,26590
36923,44111,26504
36821,43988,26359
36761,43919,26259
36736,43890,26188
36657,43792,26050
36536,43652,25871
36463,43572,25748
36426,43524,25654
36344,43410,25500
36236,43267,25317
36184,43201,25197
36160,43172,25101
36086,43080,24944
35996,42973,24780
35966,42948,24699
35960,42945,24642
35896,42861,24513
35805,42753,24370
35760,42719,24303
35720,42691,24231
35621,42578,24070
35522,42459,23909
35495,42436,23839
35472,42421,23777
35377,42313,23636
35279,42200,23498
35249,42172,23437
35214,42135,23362
35112,42014,23208
35018,41906,23063
34992,41884,22991
34968,41862,22915
34890,41772,22786
34823,41699,22680
34806,41694,22629
34765,41656,22538
34665,41542,22386
34582,41454,22274
34540,41420,22214
34477,41350,22107
34388,41233,21951
34342,41166,21850
34330,41148,21797
34278,41082,21698
34197,40982,21575
34170,40950,21529
34188,40976,21540
34178,40972,21522
34180,40976,21520
34280,41085,21644
34447,41267,21862
34598,41429,22080
34761,41604,22344
35009,41883,22744
35305,42217,23221
35568,42510,23674
35838,42811,24159
36189,43208,24765
36572,43629,25409
36902,43974,25985
37224,44316,26559
37606,44741,27204
37975,45152,27826
38245,45443,28330
38471,45693,28786
38733,45992,29267
38970,46252,29689
39112,46391,29977
39224,46500,30215
39369,46662,30474
39485,46793,30679
39509,46815,30768
39505,46813,30822
39535,46860,30898
39537,46866,30912
39458,46776,30828
39373,46689,30743
39322,46651,30681
39237,46570,30556
39102,46426,30369
38989,46315,30215
38898,46239,30086
38756,46102,29887
38583,45916,29641
38472,45789,29458
38403,45706,29314
38279,45560,29101
38120,45373,28842
38019,45253,28645
37955,45171,28483
37837,45027,28259
37687,44854,28012
37593,44755,27836
37529,44683,27683
37405,44529,27454
37256,44347,27212
37165,44254,27062
37094,44195,26938
36974,44065,26741
36864,43937,26559
36846,43918,26500
36852,43929,26477
36795,43862,26379
36741,43804,26290
36777,43854,26309
36827,43914,26345
36802,43885,26310
36775,43859,26288
36835,43933,26361
36913,44017,26442
36930,44023,26456
36947,44038,26486
37023,44132,26589
37086,44205,26678
37081,44198,26703
37082,44206,26747
37146,44283,26847
37205,44335,26907
37212,44318,26899
37231,44323,26920
37286,44374,26979
37299,44362,26970
37246,44282,26891
37214,44250,26851
37213,44261,26842
37158,44199,26761
37062,44081,26629
37015,44025,26556
37002,44012,26516
36936,43934,26405
36837,43820,26259
36791,43778,26178
36767,43767,26114
36681,43676,25966
36571,43551,25795
36527,43499,25705
36507,43472,25635
36424,43371,25483
36325,43257,25316
36290,43223,25234
36256,43192,25160
36136,43066,24990
35999,42926,24800
35938,42875,24692
35890,42832,24589
35767,42701,24400
35644,42571,24214
35605,42536,24125
35575,42500,24048
35470,42371,23890
35359,42243,23730
35315,42199,23642
35266,42147,23544
35153,42012,23375
35050,41887,23227
35013,41844,23156
34969,41793,23068
34870,41679,22925
34789,41593,22822
34761,41568,22775
34706,41507,22680
34612,41400,22532
34563,41351,22443
34561,41355,22408
34514,41301,22313
34420,41198,22169
34374,41160,22082
34372,41166,22032
34323,41100,21917
34238,40995,21773
34205,40965,21704
34200,40972,21665
34135,40896,21548
34038,40776,21397
33996,40726,21322
33978,40711,21280
33897,40628,21168
33795,40529,21044
33770,40520,21014
33789,40549,21027
33769,40519,20997
33764,40510,21001
33863,40637,21146
34018,40823,21366
34158,40967,21573
34349,41153,21858
34653,41476,22303
34984,41838,22811
35260,42141,23282
35554,42467,23792
35936,42892,24412
36327,43322,25047
36649,43673,25612
36970,44027,26184
37350,44444,26816
37707,44828,27417
37981,45114,27928
38240,45395,28427
38523,45716,28939
38756,45972,29362
38911,46132,29679
39071,46304,29999
39252,46509,30328
39364,46633,30551
39401,46670,30671
39458,46736,30802
39532,46829,30942
39534,46840,30986
39478,46786,30952
39461,46773,30942
39456,46774,30932
39377,46686,30828
39256,46556,30676
39185,46492,30580
39142,46451,30502
39039,46332,30350
38902,46182,30171
38813,46104,30058
38743,46051,29954
38622,45923,29772
38500,45787,29590
38458,45749,29505
38432,45730,29424
38334,45619,29248
38230,45497,29069
38197,45464,28981
38160,45431,28889
38046,45303,28702
37932,45170,28508
37901,45125,28401
37875,45087,28303
37784,44974,28141
37705,44879,28001
37706,44876,27957
37710,44872,27915
37648,44794,27803
37586,44728,27713
37589,44735,27703
37591,44731,27680
37545,44671,27606
37533,44655,27581
37588,44711,27628
37624,44737,27642
37620,44720,27617
37652,44763,27650
37722,44859,27735
37745,44890,27765
37726,44870,27755
37757,44911,27803
37831,44995,27893
37859,45012,27923
37848,44986,27916
37888,45024,27969
37955,45090,28045
37953,45075,28039
37914,45021,27990
37930,45038,28009
37960,45074,28044
37913,45024,27990
37838,44948,27911
37822,44951,27905
37812,44958,27898
37727,44868,27789
37632,44769,27659
37615,44765,27610
37607,44765,27564
37526,44670,27433
37438,44571,27302
37420,44558,27249
37398,44534,27187
37301,44414,27032
37196,44289,26867
37149,44239,26765
37094,44171,26648
36974,44023,26455
36857,43891,26272
36800,43834,26161
36735,43760,26037
36613,43615,25854
36504,43496,25696
36458,43450,25603
36398,43376,25479
36287,43240,25299
36209,43155,25172
36180,43133,25101
36105,43057,24975
35984,42928,24797
35916,42862,24683
35894,42841,24621
35827,42758,24500
35729,42641,24345
35689,42597,24265
35677,42589,24219
35605,42501,24090
35503,42373,23928
35465,42325,23846
35457,42321,23799
35393,42248,23683
35309,42146,23551
35285,42119,23507
35274,42115,23484
35196,42031,23374
35103,41930,23247
35076,41918,23208
35059,41923,23177
34973,41837,23054
34882,41735,22924
34860,41715,22882
34835,41699,22842
34733,41593,22714
34634,41485,22585
34612,41464,22539
34587,41440,22482
34487,41331,22336
34398,41233,22199
34395,41227,22154
34404,41225,22123
34367,41166,22054
34362,41152,22043
34450,41245,22146
34564,41358,22283
34663,41461,22433
34830,41649,22698
35094,41944,23094
35363,42233,23509
35614,42502,23935
35924,42853,24461
36285,43271,25060
36613,43639,25622
36915,43968,26160
37269,44364,26763
37648,44791,27392
37959,45128,27939
38215,45402,28427
38497,45717,28943
38779,46034,29445
38978,46242,29832
39124,46390,30155
39304,46590,30518
39484,46791,30862
39579,46885,31080
39631,46931,31228
39720,47034,31408
39797,47125,31557
39786,47109,31583
39748,47067,31571
39770,47102,31620
39789,47135,31650
39721,47061,31567
39624,46963,31459
39581,46943,31413
39533,46915,31345
39418,46789,31181
39306,46664,31018
39263,46626,30935
39216,46578,30840
39100,46443,30667
38985,46312,30505
38927,46257,30411
38868,46196,30299
38759,46070,30120
38662,45966,29965
38613,45928,29864
38537,45851,29721
38411,45706,29527
38317,45605,29383
38267,45562,29287
38178,45468,29140
38056,45329,28959
37990,45258,28844
37971,45243,28774
37915,45173,28650
37834,45067,28504
37811,45040,28437
37826,45059,28411
37794,45010,28323
37739,44937,28221
37747,44946,28210
37781,44989,28245
37756,44961,28218
37711,44917,28181
37740,44963,28232
37798,45038,28304
37795,45032,28297
37778,45013,28285
37838,45092,28372
37922,45190,28477
37944,45198,28493
37960,45198,28499
38046,45288,28590
38128,45376,28672
38131,45367,28657
38123,45347,28633
38173,45404,28681
38212,45451,28709
38176,45399,28644
38133,45339,28577
38138,45351,28577
38123,45339,28548
38034,45236,28433
37946,45142,28327
37907,45116,28271
37847,45061,28170
37731,44934,28006
37637,44834,27886
37593,44790,27816
37514,44698,27684
37385,44547,27494
37298,44454,27367
37252,44417,27287
37159,44321,27139
37039,44182,26947
36984,44111,26826
36969,44082,26748
36898,43986,26601
36787,43852,26416
36731,43791,26301
36707,43760,26217
36624,43649,26062
36507,43505,25880
36440,43439,25776
36395,43399,25698
36292,43281,25543
36178,43150,25378
36135,43104,25303
36110,43074,25243
36014,42960,25095
35904,42842,24936
35866,42823,24871
35835,42812,24813
35728,42701,24666
35618,42582,24524
35587,42556,24473
35556,42533,24417
35450,42418,24274
35343,42304,24132
35309,42276,24062
35280,42242,23978
35191,42132,23826
35118,42046,23705
35117,42048,23672
35104,42033,23624
35027,41945,23507
34966,41878,23412
34954,41871,23372
34915,41829,23293
34831,41735,23165
34784,41689,23092
34781,41695,23066
34731,41645,22976
34632,41543,22833
34578,41496,22750
34560,41491,22709
34486,41416,22600
34382,41296,22448
34346,41246,22366
34347,41232,22318
34288,41148,22200
34202,41042,22057
34175,41016,21991
34168,41017,21949
34104,40946,21832
34022,40855,21703
34000,40847,21663
34006,40871,21652
33967,40834,21586
33936,40811,21549
33995,40901,21639
34096,41031,21785
34167,41111,21895
34279,41227,22054
34515,41479,22361
34803,41779,22737
35058,42034,23100
35337,42320,23520
35699,42708,24058
36072,43105,24621
36389,43433,25127
36719,43773,25655
37112,44193,26262
37490,44600,26864
37795,44928,27401
38083,45253,27938
38399,45619,28495
38679,45932,28982
38884,46155,29370
39082,46380,29751
39296,46625,30137
39448,46790,30427
39522,46873,30624
39605,46977,30826
39697,47096,31022
39721,47130,31118
39690,47099,31137
39685,47104,31179
39692,47124,31223
39632,47061,31173
39533,46951,31068
39479,46894,31014
39446,46862,30974
39350,46753,30847
39220,46603,30680
39139,46517,30570
39082,46456,30472
38975,46329,30305
38857,46196,30133
38802,46153,30048
38767,46132,29976
38671,46035,29818
38567,45930,29646
38530,45901,29552
38494,45871,29456
38389,45753,29277
38284,45633,29102
38245,45591,29007
38197,45541,28904
38077,45410,28721
37962,45287,28553
37922,45246,28472
37885,45205,28396
37800,45100,28267
37733,45014,28166
37728,45003,28141
37710,44986,28106
37642,44916,28017
37599,44874,27962
37606,44895,27968
37599,44890,27947
37563,44845,27890
37564,44847,27888
37605,44894,27933
37610,44894,27929
37585,44853,27892
37606,44873,27919
37658,44937,27984
37656,44935,27986
37623,44893,27958
37636,44913,27993
37672,44958,28046
37649,44925,28018
37593,44856,27955
37583,44849,27952
37588,44861,27962
37539,44802,27895
37473,44726,27807
37459,44719,27787
37448,44719,27771
37363,44632,27663
37260,44526,27538
37218,44502,27495
37184,44493,27455
37089,44400,27325
36999,44300,27183
36973,44277,27114
36938,44246,27036
36824,44125,26867
36705,43997,26690
36657,43948,26587
36612,43897,26485
36500,43769,26311
36389,43650,26150
36340,43608,26058
36289,43556,25953
36181,43431,25783
36076,43311,25627
36012,43244,25517
35927,43154,25375
35794,43009,25182
35684,42900,25027
35620,42839,24918
35527,42733,24763
35398,42584,24569
35316,42497,24435
35282,42467,24350
35213,42387,24218
35109,42265,24054
35051,42205,23959
35023,42188,23902
34945,42111,23781
34837,41998,23630
34782,41946,23552
34754,41923,23504
34676,41838,23389
34580,41731,23246
34541,41696,23166
34528,41686,23104
34469,41606,22977
34396,41509,22850
34379,41487,22809
34366,41478,22775
34288,41389,22658
34208,41300,22540
34201,41304,22512
34204,41322,22496
34146,41259,22403
34088,41191,22306
34091,41195,22284
34084,41188,22248
34004,41092,22126
33923,40992,22003
33904,40969,21947
33884,40949,21880
33805,40860,21745
33729,40776,21625
33704,40752,21566
33665,40707,21482
33573,40596,21338
33495,40509,21225
33462,40483,21163
33409,40428,21061
33324,40330,20924
33283,40292,20859
33301,40326,20872
33306,40337,20878
33308,40336,20893
33393,40428,21014
33557,40601,21227
33716,40754,21440
33871,40909,21676
34102,41162,22028
34390,41479,22461
34653,41759,22877
34907,42030,23307
35222,42379,23834
35562,42757,24396
35851,43067,24891
36113,43348,25368
36414,43688,25906
36713,44027,26431
36940,44269,26855
37138,44482,27249
37379,44762,27691
37607,45027,28095
37738,45176,28370
37826,45287,28592
37951,45447,28845
38049,45570,29051
38054,45581,29134
38043,45575,29181
38090,45634,29270
38123,45666,29322
38073,45596,29270
38001,45506,29188
37964,45461,29134
37901,45392,29043
37768,45252,28875
37644,45127,28718
37579,45065,28613
37500,44982,28474
37370,44840,28279
37268,44733,28127
37216,44681,28020
37138,44586,27862
37028,44442,27664
36956,44345,27520
36914,44292,27415
36821,44182,27251
36691,44028,27045
36607,43934,26896
36554,43882,26776
36450,43773,26592
36322,43634,26389
36254,43571,26265
36224,43554,26183
36152,43476,26047
36062,43370,25899
36024,43336,25831
36009,43333,25795
35954,43272,25703
35905,43214,25623
35925,43250,25641
35965,43306,25676
35947,43279,25633
35922,43239,25587
35960,43288,25624
36006,43350,25671
35988,43331,25650
35972,43309,25646
36029,43373,25728
36087,43437,25802
36077,43414,25793
36058,43388,25787
36095,43442,25853
36132,43491,25907
36112,43463,25882
36099,43443,25863
36144,43494,25904
36175,43523,25918
36146,43479,25871
36117,43451,25845
36122,43463,25854
36096,43421,25799
36015,43314,25679
35953,43247,25594
35919,43221,25539
35840,43130,25420
35718,42985,25256
35630,42889,25141
35573,42835,25059
35468,42723,24915
35327,42574,24729
35239,42489,24593
35189,42437,24481
35098,42323,24303
34989,42191,24103
34935,42133,23979
34899,42101,23882
34800,41993,23711
34672,41856,23522
34599,41789,23415
34545,41740,23322
34436,41620,23147
34325,41497,22969
34286,41468,22887
34258,41449,22816
34162,41344,22661
34063,41234,22505
34036,41213,22435
34010,41191,22368
33913,41076,22216
33819,40957,22068
33800,40926,22002
33782,40905,21937
33697,40815,21803
33614,40731,21683
33587,40720,21632
33550,40691,21563
33453,40588,21430
33374,40507,21321
33362,40499,21273
33341,40469,21199
33275,40381,21079
33230,40327,20999
33229,40327,20961
33196,40280,20866
33124,40181,20720
33094,40139,20632
33102,40144,20592
33057,40082,20492
32965,39973,20351
32920,39926,20274
32910,39918,20235
32841,39839,20130
32731,39719,19986
32670,39666,19905
32638,39644,19850
32558,39551,19726
32464,39434,19585
32431,39398,19520
32417,39391,19474
32347,39311,19358
32269,39219,19249
32269,39226,19253
32311,39282,19306
32323,39298,19321
32370,39351,19388
32530,39531,19597
32725,39752,19864
32876,39924,20104
33058,40131,20402
33346,40458,20836
33668,40812,21316
33946,41104,21756
34237,41415,22230
34605,41817,22803
34973,42212,23382
35271,42525,23894
35567,42842,24415
35915,43218,24987
36239,43559,25520
36485,43815,25972
36712,44068,26419
36953,44349,26871
37141,44561,27234
37255,44683,27502
37374,44827,27775
37513,45004,28050
37593,45100,28228
37618,45118,28326
37674,45174,28450
37747,45258,28580
37749,45258,28611
37702,45194,28573
37695,45179,28574
37710,45191,28581
37662,45121,28495
37574,45005,28355
37531,44953,28268
37498,44920,28194
37398,44803,28037
37277,44662,27858
37220,44602,27757
37182,44563,27674
37085,44450,27513
36976,44328,27348
36925,44288,27271
36871,44254,27200
36750,44134,27043
36634,44014,26884
36600,43990,26811
36574,43970,26736
36483,43860,26572
36386,43744,26401
36349,43705,26300
36309,43662,26196
36209,43551,26028
36122,43454,25878
36110,43439,25811
36097,43421,25750
36025,43339,25646
35971,43286,25580
35987,43308,25589
35996,43310,25581
35958,43255,25530
35945,43235,25525
35979,43266,25575
35978,43251,25577
35935,43194,25533
35935,43199,25547
35979,43258,25614
35981,43267,25629
35952,43238,25609
35977,43275,25656
36033,43353,25736
36035,43360,25739
36007,43324,25705
36034,43354,25728
36083,43407,25760
36074,43378,25704
36039,43316,25619
36053,43325,25606
36082,43354,25613
36044,43296,25544
35976,43210,25453
35957,43195,25429
35944,43186,25401
35858,43090,25285
35761,42993,25163
35731,42986,25119
35707,42977,25072
35614,42876,24936
35513,42765,24790
35476,42732,24714
35434,42693,24631
35321,42566,24465
35210,42446,24303
35168,42409,24216
35130,42367,24123
35031,42245,23964
34928,42128,23818
34876,42078,23732
34819,42018,23624
34715,41895,23453
34630,41795,23313
34597,41757,23232
34539,41694,23110
34432,41576,22935
34349,41494,22802
34302,41453,22714
34221,41360,22576
34112,41230,22403
34054,41172,22296
34032,41164,22232
33964,41094,22112
33866,40979,21960
33819,40920,21871
33797,40894,21806
33724,40804,21670
33632,40685,21506
33597,40638,21411
33590,40627,21341
33533,40548,21208
33454,40451,21075
33429,40436,21034
33425,40448,21019
33365,40383,20931
33293,40306,20836
33282,40315,20818
33280,40334,20803
33220,40267,20709
33159,40194,20612
33169,40209,20595
33188,40227,20577
33136,40157,20476
33073,40083,20374
33070,40085,20347
33062,40079,20308
32983,39989,20185
32902,39902,20064
32879,39890,20019
32857,39870,19975
32783,39783,19876
32718,39713,19790
32705,39704,19756
32680,39669,19695
32610,39576,19580
32564,39522,19497
32566,39523,19461
32544,39481,19380
32478,39393,19251
32446,39355,19172
32448,39363,19141
32400,39315,19059
32318,39230,18951
32303,39224,18929
32353,39286,18973
32389,39323,18996
32433,39361,19044
32568,39510,19221
32774,39743,19501
32970,39958,19791
33182,40189,20133
33483,40528,20609
33833,40914,21150
34144,41244,21656
34454,41578,22184
34836,42001,22825
35233,42433,23494
35561,42776,24082
35869,43104,24654
36236,43510,25294
36593,43902,25906
36857,44177,26388
37099,44421,26828
37387,44727,27318
37644,45004,27761
37805,45165,28076
37942,45302,28350
38115,45493,28649
38255,45645,28891
38305,45686,29014
38337,45711,29111
38409,45788,29238
38452,45831,29312
38419,45791,29291
38384,45757,29275
38387,45772,29298
38350,45740,29256
38250,45634,29136
38174,45560,29049
38140,45534,28995
38069,45449,28877
37960,45310,28708
37889,45228,28592
37844,45185,28512
37742,45073,28362
37608,44925,28176
37534,44852,28067
37490,44819,27992
37387,44711,27837
37259,44570,27653
37191,44506,27544
37152,44474,27460
37056,44363,27295
36931,44227,27111
36859,44176,27010
36813,44153,26934
36723,44060,26793
36631,43968,26663
36620,43979,26636
36638,44007,26624
36595,43943,26526
36546,43872,26429
36578,43904,26428
36632,43954,26443
36628,43930,26387
36630,43913,26345
36700,43988,26401
36759,44060,26464
36743,44044,26453
36735,44034,26455
36802,44111,26534
36869,44175,26600
36868,44156,26594
36866,44151,26603
36917,44222,26676
36945,44262,26721
36903,44223,26702
36880,44206,26714
36906,44238,26770
36889,44212,26764
36818,44125,26695
36787,44093,26671
36797,44116,26682
36753,44074,26620
36665,43977,26502
36624,43939,26435
36618,43936,26395
36560,43858,26280
36465,43736,26124
36415,43676,26032
36387,43645,25969
36300,43544,25834
36184,43413,25673
36124,43353,25582
36085,43316,25502
35993,43198,25339
35886,43062,25167
35839,43014,25090
35801,42984,25030
35688,42861,24873
35563,42727,24702
35515,42691,24623
35475,42662,24538
35356,42530,24347
35226,42390,24149
35177,42350,24049
35141,42316,23961
35036,42192,23791
34936,42073,23622
34915,42044,23537
34895,42013,23446
34803,41900,23274
34710,41793,23114
34683,41762,23034
34649,41723,22941
34554,41614,22783
34473,41525,22655
34453,41503,22591
34418,41454,22490
34335,41342,22336
34274,41269,22233
34250,41253,22187
34182,41185,22092
34073,41066,21949
34017,41012,21864
34010,41012,21825
33955,40952,21720
33864,40849,21575
33827,40810,21497
33818,40803,21455
33747,40722,21344
33646,40606,21206
33607,40564,21145
33598,40559,21117
33534,40489,21018
33455,40399,20900
33446,40393,20869
33460,40414,20863
33402,40354,20772
33319,40275,20659
33299,40276,20629
33286,40282,20604
33203,40193,20483
33120,40092,20356
33115,40086,20319
33120,40086,20286
33054,39992,20164
32983,39890,20037
32977,39877,19986
32961,39859,19921
32871,39748,19768
32785,39642,19624
32770,39622,19558
32753,39600,19485
32673,39507,19349
32596,39428,19235
32581,39422,19199
32569,39413,19161
32533,39370,19093
32555,39392,19106
32663,39513,19236
32777,39639,19390
32884,39754,19566
33067,39962,19863
33333,40267,20272
33592,40554,20679
33839,40821,21095
34161,41179,21622
34538,41601,22226
34872,41967,22781
35176,42298,23313
35540,42701,23926
35929,43126,24573
36245,43459,25137
36516,43740,25653
36828,44071,26216
37137,44402,26760
37359,44637,27186
37537,44827,27557
37749,45070,27966
37946,45298,28334
38048,45410,28564
38114,45481,28744
38220,45611,28966
38308,45722,29145
38307,45716,29192
38279,45676,29193
38296,45699,29231
38292,45702,29235
38206,45602,29142
38109,45490,29038
38067,45453,28990
38015,45407,28917
37886,45276,28754
37752,45140,28579
37675,45065,28448
37589,44974,28292
37448,44823,28076
37328,44698,27889
37272,44640,27764
37197,44556,27605
37072,44417,27394
36974,44319,27228
36920,44277,27106
36837,44186,26933
36715,44043,26720
36630,43950,26568
36579,43900,26460
36486,43789,26293
36363,43640,26095
36288,43561,25972
36248,43526,25891
36165,43430,25753
36064,43313,25598
36030,43277,25531
36030,43281,25506
35983,43225,25423
35925,43155,25331
35937,43174,25325
35979,43227,25350
35972,43213,25317
35956,43191,25291
36005,43256,25360
36064,43335,25445
36062,43329,25447
36052,43310,25444
36105,43374,25522
36158,43442,25601
36139,43420,25595
36119,43393,25583
36170,43445,25642
36221,43492,25697
36201,43454,25671
36170,43411,25638
36191,43431,25666
36197,43434,25674
36135,43362,25606
36083,43309,25548
36092,43325,25546
36082,43311,25505
36012,43225,25393
35949,43158,25303
35924,43135,25246
35865,43064,25134
35752,42940,24966
35667,42862,24841
35622,42827,24757
35534,42733,24620
35400,42585,24435
35307,42488,24299
35249,42428,24195
35144,42308,24027
35013,42155,23821
34939,42073,23679
34893,42027,23568
34788,41919,23389
34658,41783,23190
34584,41716,23068
34531,41671,22966
34421,41549,22784
34296,41405,22585
34234,41337,22471
34188,41288,22374
34078,41162,22199
33957,41027,22024
33895,40976,21940
33833,40933,21863
33703,40802,21697
33579,40668,21529
33539,40631,21449
33518,40611,21378
33438,40520,21238
33359,40433,21105
33341,40424,21044
33317,40408,20971
33228,40314,20829
33148,40226,20705
33129,40210,20652
33100,40182,20583
33013,40088,20452
32938,40011,20344
32917,39995,20295
32874,39952,20211
32780,39853,20072
32719,39793,19981
32709,39786,19943
32666,39735,19852
32585,39635,19717
32542,39583,19638
32528,39570,19595
32464,39500,19488
32369,39391,19344
32325,39342,19261
32313,39333,19211
32253,39270,19098
32164,39172,18953
32123,39126,18869
32103,39099,18809
32028,39006,18685
31938,38899,18555
31920,38877,18519
31944,38898,18531
31935,38875,18508
31938,38874,18519
32036,38998,18664
32184,39179,18881
32303,39320,19083
32451,39488,19344
32702,39779,19746
32994,40114,20202
33250,40393,20619
33528,40686,21073
33884,41066,21632
34236,41448,22200
34511,41747,22692
34778,42040,23185
35101,42394,23745
35413,42730,24288
35648,42977,24745
35864,43213,25184
36112,43493,25643
36330,43728,26036
36473,43874,26331
36605,44020,26612
36757,44197,26893
36868,44315,27088
36917,44357,27196
36974,44419,27314
37047,44503,27439
37051,44504,27476
36980,44428,27436
36929,44385,27419
36897,44368,27413
36802,44280,27322
36666,44144,27169
36578,44062,27060
36513,44004,26967
36392,43874,26790
36248,43709,26572
36157,43609,26410
36084,43537,26266
35959,43399,26056
35823,43249,25831
35749,43176,25678
35695,43118,25539
35580,42983,25328
35448,42834,25106
35375,42765,24969
35316,42712,24848
35205,42592,24653
35105,42483,24468
35078,42466,24375
35052,42456,24290
34959,42366,24136
34870,42278,23999
34852,42278,23956
34843,42283,23925
34783,42216,23834
34733,42157,23760
34747,42174,23763
34756,42189,23762
34718,42150,23714
34702,42134,23697
34742,42183,23744
34774,42221,23776
34771,42217,23774
34801,42254,23827
34879,42346,23937
34931,42396,24003
34943,42393,24020
34987,42437,24085
35064,42529,24190
35092,42563,24237
35077,42546,24238
35103,42584,24291
35158,42656,24371
35158,42654,24380
35123,42608,24347
35131,42618,24362
35157,42649,24392
35121,42603,24346
35048,42519,24260
35013,42494,24222
34991,42484,24192
34914,42391,24084
34814,42274,23953
34764,42228,23886
34715,42186,23809
34594,42053,23640
34460,41910,23460
34387,41855,23357
34318,41808,23258
34183,41676,23083
34051,41543,22906
33990,41496,22800
33936,41450,22691
33824,41325,22515
33715,41197,22346
33668,41144,22249
33620,41087,22150
33512,40960,21985
33411,40844,21833
33366,40794,21744
33307,40731,21635
33196,40618,21472
33108,40537,21338
33073,40515,21257
33022,40463,21142
32929,40363,20982
32864,40303,20873
32843,40290,20821
32790,40232,20724
32701,40130,20586
32662,40087,20508
32669,40091,20473
32635,40041,20382
32569,39956,20257
32547,39927,20193
32551,39928,20155
32495,39861,20047
32400,39756,19901
32352,39707,19816
32328,39686,19750
32254,39601,19612
32165,39495,19460
32140,39462,19395
32136,39456,19360
32074,39385,19263
32006,39313,19166
32019,39332,19164
32061,39378,19195
32063,39367,19176
32087,39385,19189
32210,39524,19330
32367,39704,19530
32485,39833,19714
32630,39995,19957
32872,40272,20334
33144,40578,20769
33385,40838,21182
33653,41131,21637
33992,41511,22183
34335,41887,22740
34634,42202,23254
34942,42532,23789
35286,42910,24372
35597,43246,24913
35843,43505,25379
36095,43776,25846
36370,44072,26321
36589,44299,26710
36739,44453,27012
36901,44632,27317
37077,44826,27617
37185,44940,27821
37226,44982,27948
37290,45052,28095
37376,45139,28244
37404,45151,28299
37389,45108,28289
37402,45104,28305
37411,45107,28314
37346,45025,28232
37244,44906,28105
37187,44848,28025
37142,44809,27952
37028,44697,27798
36890,44563,27617
36807,44497,27499
36739,44438,27373
36608,44291,27154
36462,44128,26921
36377,44047,26768
36300,43975,26624
36161,43822,26406
36024,43668,26196
35962,43609,26076
35904,43560,25961
35783,43433,25770
35669,43310,25579
35624,43262,25460
35584,43214,25341
35493,43102,25169
35418,43010,25025
35409,42999,24962
35401,42983,24904
35356,42918,24815
35340,42891,24769
35387,42935,24790
35425,42956,24788
35418,42932,24742
35437,42951,24751
35500,43023,24817
35537,43055,24845
35548,43047,24841
35605,43095,24900
35696,43191,25001
35735,43227,25046
35736,43216,25060
35785,43262,25133
35866,43340,25233
35894,43349,25268
35891,43320,25268
35937,43352,25322
36004,43404,25386
36010,43384,25375
35989,43345,25344
36025,43378,25380
36078,43421,25416
36070,43380,25364
36045,43325,25294
36083,43353,25304
36127,43390,25326
36094,43338,25263
36043,43269,25181
36050,43273,25167
36044,43270,25142
35964,43175,25028
35889,43079,24917
35883,43072,24888
35876,43063,24851
35803,42971,24733
35734,42882,24619
35735,42870,24575
35730,42847,24517
35657,42746,24390
35585,42652,24279
35568,42626,24227
35542,42587,24149
35466,42489,24019
35410,42423,23927
35409,42423,23895
35385,42385,23826
35318,42296,23705
35286,42258,23636
35293,42267,23612
35251,42215,23526
35168,42113,23393
35134,42071,23320
35134,42071,23291
35073,42004,23192
34970,41890,23047
34914,41840,22958
34887,41823,22886
34810,41728,22731
34707,41600,22551
34661,41556,22462
34644,41554,22422
34578,41484,22334
34509,41407,22256
34533,41439,22295
34615,41525,22398
34671,41568,22478
34752,41651,22619
34947,41877,22923
35195,42155,23304
35410,42383,23658
35654,42645,24060
35995,43024,24596
36355,43417,25172
36652,43731,25691
36957,44058,26231
37337,44477,26866
37705,44881,27498
37990,45183,28037
38264,45478,28566
38585,45836,29145
38868,46152,29663
39055,46360,30057
39227,46559,30427
39438,46805,30812
39611,46995,31112
39702,47082,31304
39792,47174,31496
39900,47294,31695
39941,47328,31794
39907,47276,31799
39900,47265,31830
39924,47295,31876
39890,47253,31822
39809,47147,31688
39767,47092,31593
39736,47063,31512
39628,46944,31343
39473,46777,31128
39369,46675,30970
39293,46601,30834
39162,46453,30626
39012,46284,30397
38929,46202,30252
38865,46147,30132
38733,46006,29930
38583,45842,29712
38494,45756,29571
38417,45682,29431
38267,45516,29198
38105,45342,28951
38019,45262,28785
37944,45185,28625
37797,45015,28381
37649,44844,28141
37584,44772,27999
37524,44710,27866
37394,44565,27661
37271,44434,27480
37226,44403,27399
37192,44381,27326
37104,44289,27195
37026,44215,27094
37020,44222,27074
37008,44213,27041
36942,44139,26950
36906,44103,26898
36935,44139,26914
36935,44141,26897
36883,44085,26833
36864,44072,26826
36889,44109,26867
36874,44090,26847
36817,44023,26784
36810,44021,26782
36844,44068,26817
36826,44044,26780
36771,43974,26694
36768,43963,26666
36786,43975,26658
36736,43904,26564
36652,43794,26435
36620,43757,26377
36603,43747,26333
36518,43653,26207
36409,43532,26058
36360,43491,25980
36334,43469,25913
36244,43363,25759
36136,43246,25590
36096,43218,25509
36062,43195,25432
35944,43073,25259
35808,42938,25068
35741,42891,24957
35679,42846,24844
35550,42708,24647
35435,42570,24462
35401,42523,24367
35370,42479,24266
35267,42348,24082
35161,42220,23904
35114,42173,23800
35064,42117,23680
34958,41985,23490
34870,41872,23323
34845,41836,23230
34800,41780,23113
34688,41655,22935
34594,41560,22798
34552,41529,22723
34486,41461,22604
34377,41338,22436
34306,41264,22322
34281,41239,22254
34209,41151,22119
34094,41013,21940
34035,40943,21831
34021,40926,21766
33956,40844,21633
33857,40719,21466
33813,40670,21380
33808,40671,21351
33761,40623,21280
33711,40566,21217
33748,40613,21273
33847,40728,21404
33935,40814,21524
34054,40933,21708
34284,41193,22062
34571,41518,22516
34825,41797,22951
35102,42099,23432
35483,42524,24058
35897,42986,24737
36255,43370,25354
36619,43754,25985
37059,44229,26710
37488,44689,27427
37826,45039,28032
38143,45368,28601
38507,45756,29208
38838,46115,29769
39062,46363,30209
39255,46585,30615
39481,46851,31039
39672,47071,31392
39772,47183,31632
39856,47282,31849
39971,47421,32073
40045,47506,32218
40042,47507,32268
40042,47525,32326
40068,47573,32404
40039,47550,32395
39961,47461,32306
39923,47423,32255
39914,47428,32230
39851,47364,32122
39748,47248,31962
39694,47191,31863
39670,47163,31794
39586,47056,31646
39475,46914,31459
39422,46846,31341
39393,46810,31248
39303,46696,31084
39188,46558,30903
39135,46504,30799
39104,46475,30709
39011,46364,30532
38903,46231,30340
38863,46184,30240
38841,46158,30160
38755,46048,30000
38664,45938,29843
38648,45929,29779
38634,45928,29719
38537,45831,29571
38432,45731,29426
38408,45726,29371
38401,45725,29329
38334,45643,29218
38272,45570,29118
38286,45588,29104
38306,45609,29089
38268,45553,29008
38241,45508,28951
38278,45540,28973
38310,45560,28982
38291,45516,28942
38285,45501,28945
38324,45550,29010
38331,45560,29028
38289,45510,28992
38280,45512,29010
38317,45570,29079
38312,45569,29090
38264,45518,29054
38265,45527,29074
38304,45571,29123
38282,45535,29083
38218,45453,28993
38211,45444,28971
38238,45475,28974
38202,45422,28887
38117,45318,28753
38076,45280,28683
38058,45266,28630
37970,45165,28492
37847,45029,28326
37780,44970,28240
37735,44935,28173
37627,44813,28015
37496,44669,27839
37429,44612,27747
37375,44566,27654
37255,44428,27463
37127,44284,27263
37072,44232,27145
37016,44179,27018
36884,44031,26796
36757,43877,26569
36707,43813,26426
36661,43755,26291
36549,43616,26089
36440,43481,25903
36399,43428,25795
36354,43368,25674
36247,43238,25485
36154,43132,25322
36123,43098,25231
36076,43041,25113
35969,42919,24940
35887,42840,24814
35864,42825,24750
35803,42757,24634
35687,42625,24463
35612,42550,24357
35583,42535,24304
35505,42459,24186
35388,42331,24022
35326,42268,23924
35311,42251,23871
35255,42172,23757
35172,42056,23608
35148,42009,23525
35151,41994,23471
35096,41909,23346
35007,41796,23205
34968,41763,23144
34952,41762,23106
34879,41686,22987
34786,41591,22848
34752,41571,22788
34726,41558,22734
34630,41453,22590
34529,41346,22454
34509,41351,22430
34515,41385,22433
34468,41342,22369
34440,41310,22326
34523,41395,22412
34657,41523,22559
34761,41609,22688
34902,41745,22893
35150,42013,23258
35437,42322,23695
35694,42589,24124
35988,42899,24619
36374,43318,25236
36769,43747,25871
37112,44117,26459
37471,44510,27084
37879,44964,27767
38251,45369,28393
38556,45700,28940
38872,46053,29505
39204,46433,30088
39461,46721,30574
39642,46913,30962
39840,47129,31349
40052,47363,31720
40189,47499,31977
40261,47559,32145
40354,47658,32329
40455,47770,32502
40474,47784,32564
40435,47739,32556
40434,47748,32586
40449,47775,32617
40390,47717,32551
40298,47619,32443
40261,47592,32404
40233,47580,32371
40133,47474,32237
40016,47343,32080
39967,47297,32007
39933,47267,31938
39837,47147,31776
39737,47021,31607
39719,46994,31531
39711,46981,31471
39626,46881,31332
39532,46774,31185
39501,46746,31105
39462,46708,31004
39350,46582,30816
39242,46459,30635
39194,46410,30522
39133,46341,30391
39002,46186,30187
38877,46040,29995
38817,45967,29867
38752,45884,29722
38643,45752,29530
38570,45668,29392
38557,45653,29325
38521,45606,29227
38450,45517,29094
38423,45486,29031
38437,45507,29024
38409,45474,28962
38351,45396,28863
38347,45383,28835
38382,45421,28859
38364,45397,28827
38309,45334,28765
38311,45343,28775
38349,45391,28817
38334,45366,28784
38293,45309,28724
38313,45325,28738
38354,45365,28774
38327,45322,28732
38270,45250,28668
38273,45259,28679
38295,45289,28699
38253,45236,28625
38194,45166,28535
38189,45174,28524
38173,45174,28502
38075,45069,28375
37970,44956,28234
37943,44931,28172
37921,44903,28104
37829,44785,27946
37741,44672,27791
37726,44651,27717
37703,44620,27634
37596,44493,27465
37482,44366,27292
37434,44316,27182
37383,44253,27051
37272,44112,26847
37162,43984,26665
37098,43919,26547
37012,43827,26401
36875,43679,26208
36766,43568,26062
36695,43505,25962
36584,43389,25802
36436,43220,25585
36340,43114,25420
36297,43065,25302
36217,42964,25130
36107,42826,24925
36052,42760,24795
36032,42742,24713
35957,42658,24567
35851,42533,24384
35802,42472,24273
35780,42440,24196
35699,42333,24050
35591,42200,23882
35536,42144,23790
35499,42115,23722
35402,42015,23587
35294,41905,23449
35254,41880,23397
35224,41863,23350
35124,41754,23210
35023,41640,23063
35005,41626,23009
35003,41623,22957
34931,41531,22819
34858,41441,22687
34863,41444,22642
34869,41445,22595
34792,41351,22463
34705,41247,22326
34681,41219,22262
34649,41185,22189
34547,41071,22039
34453,40967,21902
34422,40936,21829
34383,40887,21729
34289,40776,21573
34211,40694,21460
34185,40671,21405
34140,40610,21298
