green_channel,red_channel,ir_channel
59696,43719,15249
59651,43655,15129
59606,43596,15008
59559,43540,14885
59504,43477,14750
59446,43407,14606
59390,43339,14464
59332,43271,14323
59266,43192,14175
59196,43108,14027
59128,43026,13883
59060,42939,13739
58986,42845,13590
58911,42750,13443
58841,42659,13305
58773,42571,13169
58704,42483,13032
58638,42401,12899
58577,42326,12775
58520,42255,12658
58465,42183,12543
58411,42115,12427
58362,42058,12319
58317,42005,12216
58276,41945,12110
58241,41883,12007
58210,41825,11911
58176,41766,11816
58134,41703,11713
58091,41642,11608
58049,41587,11505
58004,41534,11397
57957,41479,11282
57909,41428,11169
57862,41380,11061
57819,41331,10957
57782,41281,10862
57751,41239,10776
57726,41203,10697
57701,41166,10622
57679,41131,10558
57673,41114,10519
57683,41122,10518
57707,41155,10559
57757,41223,10661
57844,41344,10850
57973,41522,11137
58149,41752,11518
58373,42032,11996
58643,42364,12562
58944,42738,13196
59256,43132,13874
59576,43537,14576
59899,43945,15282
60216,44341,15964
60516,44712,16606
60796,45054,17201
61052,45365,17743
61275,45638,18222
61461,45865,18632
61618,46051,18977
61749,46205,19265
61852,46322,19496
61925,46403,19672
61975,46458,19802
62007,46492,19894
62020,46501,19943
62013,46486,19950
61992,46457,19928
61964,46425,19887
61929,46385,19825
61883,46331,19743
61834,46266,19648
61784,46197,19545
61732,46124,19433
61681,46050,19314
61630,45978,19198
61579,45908,19086
61529,45841,18974
61482,45776,18861
61438,45713,18749
61394,45652,18638
61346,45585,18521
61293,45510,18397
61237,45436,18274
61180,45364,18153
61118,45285,18024
61054,45199,17880
60992,45112,17731
60928,45024,17577
60860,44930,17420
60796,44840,17271
60740,44763,17133
60688,44693,16999
60637,44624,16870
60593,44563,16753
60558,44513,16655
60528,44474,16577
60505,44448,16519
60496,44439,16489
60506,44452,16494
60527,44479,16530
60555,44514,16584
60593,44559,16654
60643,44619,16746
60698,44684,16852
60758,44750,16964
60825,44821,17081
60890,44898,17202
60946,44971,17317
60990,45033,17415
61028,45087,17499
61061,45133,17572
61088,45164,17627
61108,45178,17662
61124,45189,17680
61135,45195,17683
61133,45190,17667
61121,45172,17633
61101,45149,17589
61072,45121,17537
61037,45081,17470
60997,45029,17388
60953,44971,17299
60905,44907,17203
60853,44834,17096
60800,44755,16978
60745,44677,16861
60687,44595,16743
60623,44506,16616
60555,44415,16479
60486,44329,16339
60415,44243,16196
60343,44152,16047
60272,44063,15892
60206,43981,15741
60142,43899,15589
60076,43811,15429
60009,43720,15269
59945,43633,15116
59880,43549,14965
59810,43462,14811
59738,43374,14656
59666,43288,14507
59594,43202,14364
59519,43116,14221
59448,43036,14080
59385,42964,13948
59326,42893,13817
59264,42824,13684
59204,42760,13558
59147,42699,13439
59089,42631,13317
59029,42556,13188
58975,42483,13061
58926,42416,12944
58879,42350,12831
58833,42281,12715
58789,42213,12599
58741,42147,12481
58684,42076,12357
58624,42001,12229
58567,41929,12104
58513,41862,11982
58459,41792,11859
58406,41719,11740
58355,41654,11629
58308,41600,11527
58265,41553,11434
58234,41519,11362
58219,41508,11333
58223,41525,11355
58251,41570,11432
58312,41655,11582
58418,41797,11825
58575,42002,12167
58779,42265,12603
59030,42583,13130
59323,42950,13736
59644,43351,14400
59978,43769,15094
60318,44193,15803
60654,44607,16508
60968,44993,17180
61251,45339,17798
61503,45642,18353
61725,45912,18845
61913,46146,19274
62065,46333,19634
62185,46481,19928
62282,46600,20168
62355,46690,20354
62399,46747,20482
62424,46776,20562
62436,46787,20605
62432,46776,20610
62411,46743,20578
62383,46699,20519
62345,46648,20439
62296,46585,20336
62243,46511,20212
62192,46433,20077
62135,46349,19934
62069,46257,19779
61997,46156,19615
61924,46055,19451
61850,45960,19288
61771,45866,19120
61690,45774,18947
61610,45684,18773
61530,45590,18602
61446,45486,18430
61363,45377,18258
61286,45271,18090
61211,45164,17919
61131,45051,17737
61048,44938,17552
60966,44833,17374
60881,44728,17199
60792,44622,17021
60709,44521,16845
60634,44432,16682
60564,44350,16538
60501,44276,16411
60451,44216,16305
60422,44177,16227
60410,44155,16178
60408,44145,16150
60418,44152,16147
60442,44176,16172
60476,44211,16219
60516,44251,16285
60565,44303,16373
60620,44369,16480
60674,44442,16594
60727,44517,16707
60782,44592,16822
60838,44669,16942
60891,44740,17055
60934,44795,17150
60970,44836,17230
61003,44866,17296
61022,44881,17341
61028,44879,17364
61019,44868,17369
60997,44853,17358
60962,44828,17323
60919,44790,17266
60876,44747,17197
60832,44701,17117
60784,44647,17021
60737,44587,16913
60685,44520,16795
60623,44440,16659
60551,44345,16502
60474,44244,16332
60399,44145,16163
60322,44041,15992
60236,43929,15810
60148,43813,15620
60063,43705,15431
59977,43599,15238
59883,43489,15038
59785,43375,14835
59689,43258,14636
59592,43136,14441
59492,43010,14249
59395,42887,14060
59304,42772,13881
59215,42657,13708
59126,42542,13533
59040,42433,13360
58957,42335,13191
58874,42241,13026
58792,42145,12859
58712,42049,12693
58633,41959,12534
58557,41871,12376
58481,41780,12215
58410,41691,12059
58344,41608,11912
58278,41525,11765
58206,41439,11612
58134,41353,11460
58063,41268,11311
57991,41180,11157
57920,41087,10999
57851,40994,10847
57783,40901,10700
57711,40803,10550
57634,40702,10397
57556,40608,10247
57480,40524,10101
57407,40442,9952
57339,40364,9805
57280,40294,9670
57228,40234,9553
57184,40184,9453
57153,40152,9390
57145,40153,9388
57170,40196,9464
57234,40290,9629
57348,40446,9897
57524,40682,10291
57759,40993,10811
58042,41363,11434
58363,41781,12138
58715,42233,12900
59080,42699,13691
59449,43164,14484
59815,43619,15259
60166,44055,16000
60487,44455,16685
60771,44809,17299
61017,45117,17839
61225,45381,18306
61392,45597,18692
61521,45760,18994
61618,45874,19223
61691,45954,19390
61738,46002,19501
61756,46015,19553
61750,46003,19557
61729,45972,19521
61689,45916,19442
61630,45835,19322
61557,45737,19175
61472,45632,19006
61378,45516,18814
61278,45391,18608
61175,45263,18396
61070,45131,18181
60961,44993,17955
60849,44850,17715
60736,44704,17468
60622,44554,17216
60500,44398,16953
60372,44234,16683
60249,44072,16416
60133,43917,16155
60016,43762,15890
59897,43604,15621
59779,43446,15354
59659,43286,15086
59534,43124,14813
59408,42971,14549
59289,42835,14304
59179,42712,14076
59077,42596,13864
58987,42490,13677
58911,42401,13519
58846,42325,13388
58792,42262,13284
58758,42220,13214
58744,42207,13184
58745,42217,13194
58756,42244,13238
58785,42290,13317
58831,42358,13433
58892,42440,13572
58962,42527,13723
59042,42623,13882
59128,42730,14053
59213,42840,14225
59289,42941,14385
59359,43035,14537
59426,43123,14683
59486,43199,14813
59535,43260,14920
59576,43309,15011
59608,43347,15084
59625,43369,15129
59630,43375,15147
59622,43366,15140
59599,43338,15107
59558,43290,15045
59505,43225,14955
59449,43151,14844
59388,43068,14716
59314,42973,14565
59230,42867,14392
59143,42759,14208
59050,42649,14020
58952,42530,13823
58850,42404,13617
58752,42277,13410
58655,42150,13203
58551,42019,12991
58444,41887,12774
58341,41763,12562
58241,41644,12354
58140,41522,12145
58038,41400,11938
57940,41283,11738
57847,41169,11541
57757,41055,11344
57672,40946,11151
57592,40847,10963
57512,40750,10776
57429,40650,10589
57347,40549,10412
57263,40448,10247
57178,40346,10085
57095,40242,9920
57014,40142,9757
56932,40050,9600
56847,39963,9441
56756,39874,9271
56663,39786,9099
56569,39699,8931
56477,39603,8761
56395,39502,8588
56323,39402,8417
56256,39304,8251
56189,39205,8088
56120,39105,7928
56055,39012,7776
55994,38929,7633
55931,38850,7495
55871,38778,7369
55828,38726,7273
55806,38701,7221
55809,38710,7226
55849,38767,7310
55941,38893,7508
56093,39096,7840
56306,39378,8309
56581,39741,8917
56916,40176,9651
57293,40664,10478
57693,41174,11355
58103,41688,12253
58514,42199,13145
58911,42692,14006
59281,43151,14809
59619,43572,15541
59924,43951,16195
60192,44278,16758
60415,44548,17223
60594,44763,17599
60730,44929,17896
60823,45044,18116
60880,45114,18263
60912,45149,18346
60919,45153,18378
60897,45130,18357
60851,45077,18278
60789,45003,18156
60714,44914,18007
60626,44808,17829
60524,44683,17622
60416,44549,17395
60299,44411,17157
60172,44261,16904
60038,44097,16635
59901,43927,16358
59764,43757,16079
59627,43584,15795
59489,43404,15505
59352,43221,15216
59219,43037,14927
59081,42846,14626
58938,42652,14313
58793,42464,13997
58642,42279,13682
58488,42094,13363
58335,41912,13044
58191,41741,12734
58052,41578,12436
57918,41418,12151
57794,41266,11885
57688,41130,11645
57594,41011,11433
57511,40908,11250
57442,40830,11108
57398,40781,11014
57377,40753,10959
57374,40738,10937
57386,40744,10956
57416,40779,11021
57463,40840,11125
57523,40917,11262
57599,41012,11433
57689,41129,11640
57786,41260,11866
57885,41392,12096
57985,41520,12325
58084,41645,12552
58176,41764,12765
58256,41868,12950
58324,41956,13107
58381,42033,13238
58422,42094,13336
58448,42132,13399
58464,42155,13435
58470,42163,13446
58458,42153,13426
58428,42125,13371
58386,42084,13290
58337,42031,13187
58273,41958,13060
58191,41867,12913
58100,41765,12753
58004,41653,12580
57900,41529,12386
57791,41397,12172
57684,41263,11948
57577,41124,11716
57468,40976,11478
57357,40828,11236
57249,40687,10997
57139,40547,10759
57023,40400,10516
56907,40254,10275
56796,40116,10042
56685,39981,9813
56570,39839,9579
56456,39696,9347
56351,39567,9131
56248,39451,8929
56146,39339,8732
56049,39230,8536
55960,39127,8342
55873,39025,8148
55785,38919,7955
55698,38814,7767
55614,38710,7586
55529,38604,7407
55443,38493,7226
55360,38385,7046
55280,38282,6865
55194,38176,6677
55097,38060,6476
54993,37937,6269
54890,37816,6063
54791,37696,5858
54694,37576,5654
54605,37464,5462
54526,37370,5294
54460,37296,5156
54415,37245,5056
54402,37233,5022
54430,37276,5084
54505,37383,5263
54641,37570,5584
54855,37854,6072
55150,38232,6727
55515,38695,7530
55941,39228,8450
56412,39812,9453
56905,40418,10489
57395,41017,11513
57868,41598,12500
58312,42150,13433
58714,42659,14291
59069,43111,15055
59380,43505,15719
59648,43844,16290
59873,44127,16768
60047,44345,17141
60169,44501,17420
60250,44614,17625
60299,44689,17760
60321,44721,17825
60323,44715,17830
60306,44683,17788
60270,44626,17704
60216,44545,17580
60148,44447,17424
60072,44338,17244
59985,44214,17041
59883,44073,16815
59776,43924,16573
59668,43775,16326
59551,43621,16073
59427,43459,15812
59297,43297,15545
59164,43139,15279
59029,42983,15014
58895,42829,14749
58763,42676,14486
58633,42520,14225
58504,42362,13959
58371,42201,13685
58242,42043,13410
58116,41889,13137
57991,41732,12857
57870,41573,12572
57758,41423,12295
57655,41283,12035
57554,41149,11791
57457,41019,11562
57368,40905,11358
57289,40808,11188
57217,40721,11043
57155,40650,10925
57114,40607,10849
57098,40589,10815
57101,40589,10817
57126,40612,10862
57180,40663,10959
57254,40733,11094
57335,40817,11251
57426,40920,11426
57526,41041,11620
57622,41168,11823
57703,41293,12022
57779,41414,12214
57857,41529,12400
57927,41629,12571
57985,41711,12716
58036,41777,12833
58085,41834,12927
58121,41876,12999
58142,41894,13037
58149,41897,13049
58139,41892,13044
58109,41871,13015
58064,41832,12961
58016,41776,12888
57970,41703,12796
57915,41620,12676
57844,41530,12526
57764,41432,12359
57677,41322,12179
57581,41202,11978
57476,41081,11759
57372,40965,11536
57268,40848,11314
57160,40722,11087
57051,40587,10857
56945,40455,10634
56840,40329,10420
56737,40205,10204
56639,40080,9987
56547,39961,9779
56461,39847,9579
56374,39729,9378
56287,39611,9177
56203,39499,8980
56119,39388,8786
56028,39273,8590
55939,39161,8400
55855,39058,8220
55773,38962,8046
55690,38865,7873
55613,38770,7705
55542,38685,7546
55473,38601,7391
55402,38512,7234
55332,38427,7079
55267,38351,6933
55206,38279,6795
55145,38207,6663
55091,38145,6546
55050,38100,6455
55024,38073,6397
55017,38072,6384
55047,38116,6446
55129,38223,6617
55270,38402,6914
55481,38664,7355
55769,39020,7953
56127,39465,8701
56536,39976,9564
56982,40528,10499
57448,41105,11476
57915,41691,12464
58366,42262,13428
58795,42799,14344
59197,43297,15200
59564,43748,15982
59888,44144,16673
60165,44483,17263
60403,44770,17760
60601,45006,18169
60754,45186,18493
60866,45317,18740
60948,45411,18922
61001,45472,19045
61025,45499,19110
61030,45496,19127
61019,45473,19111
60988,45432,19060
60936,45369,18974
60875,45295,18863
60815,45221,18738
60752,45144,18599
60679,45055,18441
60599,44958,18270
60523,44861,18096
60450,44763,17921
60377,44659,17740
60304,44553,17562
60235,44450,17391
60166,44350,17223
60095,44249,17054
60027,44154,16890
59959,44062,16732
59886,43967,16568
59807,43865,16392
59724,43760,16207
59640,43653,16013
59550,43539,15807
59454,43417,15588
59357,43295,15368
59264,43178,15159
59171,43061,14954
59079,42944,14751
58997,42841,14566
58928,42756,14409
58869,42685,14278
58824,42628,14171
58796,42587,14094
58783,42563,14046
58781,42555,14024
58790,42561,14030
58812,42586,14068
58844,42627,14135
58883,42677,14220
58933,42737,14322
58999,42814,14446
59076,42903,14584
59153,42993,14722
59229,43083,14863
59302,43177,15008
59370,43271,15151
59432,43356,15280
59489,43428,15392
59539,43493,15493
59579,43546,15578
59607,43575,15630
59625,43586,15652
59636,43590,15657
59636,43585,15643
59626,43563,15603
59608,43529,15541
59587,43487,15464
59555,43434,15369
59508,43368,15256
59455,43297,15132
59396,43223,14997
59327,43141,14846
59247,43049,14678
59162,42951,14504
59077,42851,14328
58989,42748,14147
58896,42636,13955
58801,42521,13761
58708,42408,13569
58614,42294,13375
58513,42173,13175
58412,42055,12980
58317,41946,12793
58227,41837,12606
58145,41728,12418
58071,41624,12239
58006,41526,12069
57941,41428,11904
57873,41331,11742
57807,41238,11587
57742,41146,11435
57670,41051,11278
57594,40957,11114
57525,40871,10955
57457,40791,10803
57388,40710,10650
57321,40629,10497
57262,40556,10353
57206,40487,10213
57149,40414,10069
57094,40340,9922
57047,40273,9784
57005,40212,9660
56962,40151,9549
56927,40104,9465
56913,40084,9425
56928,40099,9444
56979,40160,9543
57079,40286,9752
57240,40495,10098
57466,40790,10587
57751,41163,11209
58093,41604,11947
58483,42107,12777
58902,42647,13667
59332,43197,14582
59762,43745,15498
60185,44280,16397
60587,44781,17244
60955,45231,18021
61287,45631,18726
61581,45982,19355
61836,46281,19902
62050,46530,20364
62228,46740,20752
62371,46914,21069
62480,47044,21315
62562,47135,21501
62623,47198,21640
62663,47237,21737
62682,47251,21788
62687,47245,21799
62681,47227,21781
62662,47197,21739
62633,47153,21672
62600,47101,21588
62570,47050,21501
62539,46997,21414
62500,46936,21319
62458,46873,21215
62418,46820,21111
62380,46772,21013
62339,46719,20911
62301,46661,20807
62263,46607,20708
62217,46551,20610
62167,46489,20510
62120,46429,20410
62074,46372,20308
62026,46309,20196
61977,46240,20072
61928,46171,19942
61878,46101,19811
61822,46025,19672
61759,45939,19522
61693,45850,19363
61632,45766,19209
61567,45685,19056
61498,45601,18899
61434,45518,18746
61376,45443,18604
61321,45373,18474
61274,45309,18357
61240,45261,18264
61219,45234,18199
61207,45218,18155
61205,45211,18127
61216,45220,18122
61235,45241,18143
61259,45268,18182
61289,45302,18234
61327,45346,18299
61369,45395,18378
61409,45443,18459
61453,45489,18536
61498,45537,18614
61538,45584,18688
61573,45625,18755
61603,45656,18811
61625,45680,18861
61637,45691,18898
61636,45684,18909
61625,45667,18898
61615,45651,18878
61604,45632,18847
61584,45602,18796
61555,45563,18729
61521,45520,18654
61481,45470,18567
61436,45411,18461
61392,45347,18345
61348,45284,18224
61299,45217,18095
61241,45138,17956
61177,45052,17808
61112,44966,17654
61042,44877,17493
60964,44777,17321
60889,44672,17146
60823,44573,16972
60761,44476,16796
60694,44377,16615
60626,44280,16437
60560,44193,16267
60491,44106,16100
60417,44013,15932
60345,43919,15767
60273,43830,15611
60198,43740,15457
60120,43647,15304
60047,43559,15159
59980,43478,15025
59913,43400,14892
59846,43322,14757
59780,43247,14627
59714,43174,14501
59646,43098,14371
59576,43020,14234
59514,42947,14099
59460,42877,13971
59407,42802,13846
59353,42728,13723
59306,42664,13610
59265,42604,13500
59225,42539,13380
59185,42471,13253
59145,42411,13130
59101,42354,13013
59054,42297,12898
59009,42247,12792
58971,42210,12703
58942,42183,12636
58927,42169,12599
58939,42183,12613
58987,42244,12708
59079,42366,12905
59220,42555,13214
59419,42815,13647
59679,43148,14207
59990,43546,14871
60342,43990,15611
60726,44468,16408
61127,44965,17236
61523,45454,18063
61897,45916,18858
62249,46346,19608
62577,46746,20298
62867,47104,20913
63114,47412,21452
63330,47676,21924
63523,47902,22333
63686,48085,22673
63814,48228,22947
63914,48344,23166
63988,48432,23337
64035,48488,23461
64059,48515,23535
64065,48523,23569
64059,48516,23571
64040,48490,23544
64011,48449,23491
63982,48403,23425
63954,48355,23351
63923,48302,23264
63890,48241,23167
63856,48181,23071
63822,48125,22980
63785,48071,22891
63747,48019,22806
63712,47973,22729
63678,47932,22658
63645,47887,22583
63614,47838,22503
63585,47792,22425
63554,47743,22337
63515,47684,22230
63468,47619,22112
63418,47555,21991
63361,47485,21862
63298,47404,21720
63231,47318,21570
63161,47232,21415
63087,47145,21255
63011,47052,21092
62944,46957,20929
62890,46872,20777
62842,46798,20634
62794,46732,20499
62748,46674,20384
62706,46630,20295
62673,46594,20226
62653,46566,20173
62651,46551,20140
62663,46549,20131
62681,46556,20140
62703,46571,20164
62732,46599,20205
62765,46638,20263
62796,46683,20332
62829,46736,20409
62867,46795,20495
62907,46851,20580
62941,46894,20655
62970,46928,20721
62999,46962,20782
63023,46996,20834
63040,47020,20870
63054,47033,20893
63072,47045,20912
63087,47050,20922
63090,47038,20909
63084,47012,20874
63074,46982,20828
63056,46944,20770
63025,46894,20693
62984,46837,20600
62940,46780,20500
62891,46718,20389
62832,46648,20267
62768,46570,20137
62701,46489,20002
62629,46403,19857
62553,46310,19698
62478,46218,19536
62407,46130,19376
62336,46043,19216
62265,45954,19055
62199,45870,18900
62137,45790,18750
62070,45706,18593
62001,45616,18428
61933,45527,18263
61868,45440,18104
61801,45349,17946
61732,45254,17783
61665,45158,17624
61604,45066,17473
61540,44974,17322
61471,44881,17169
61405,44796,17026
61344,44720,16896
61282,44644,16768
61220,44565,16638
61161,44490,16512
61104,44420,16390
61042,44350,16267
60978,44280,16146
60918,44217,16035
60859,44156,15929
60797,44090,15815
60735,44021,15697
60678,43955,15580
60624,43888,15461
60569,43812,15335
60515,43735,15207
60467,43667,15086
60422,43604,14969
60376,43540,14853
60334,43478,14737
60294,43423,14631
60254,43371,14535
60211,43316,14444
60171,43263,14364
60146,43227,14306
60139,43216,14282
60154,43234,14305
60206,43303,14406
60309,43443,14616
60468,43656,14948
60687,43946,15404
60967,44318,15989
61296,44755,16681
61655,45226,17441
62027,45705,18228
62401,46175,19013
62763,46623,19767
63094,47031,20462
63390,47393,21085
63651,47711,21638
63876,47983,22122
64061,48207,22532
64214,48386,22869
64339,48528,23145
64438,48638,23367
64510,48718,23534
64560,48770,23649
64592,48802,23722
64608,48816,23759
64607,48806,23759
64593,48776,23727
64574,48736,23674
64546,48687,23606
64507,48622,23518
64456,48545,23410
64399,48462,23286
64336,48375,23150
64269,48283,23004
64202,48192,22855
64138,48107,22707
64079,48025,22562
64020,47939,22419
63961,47853,22275
63907,47774,22134
63853,47699,21993
63794,47624,21850
63735,47552,21706
63679,47484,21565
63616,47412,21425
63545,47331,21278
63471,47245,21128
63396,47157,20978
63319,47064,20824
63237,46961,20660
63155,46854,20489
63082,46753,20322
63014,46656,20160
62946,46560,20000
62884,46477,19856
62834,46412,19738
62794,46360,19640
62763,46320,19560
62745,46296,19504
62738,46287,19473
62739,46286,19462
62747,46292,19471
62768,46315,19507
62802,46353,19565
62839,46396,19634
62878,46445,19714
62925,46505,19807
62976,46575,19911
63028,46645,20016
63081,46713,20117
63132,46778,20214
63172,46833,20300
63200,46872,20365
63220,46897,20414
63241,46917,20456
63259,46933,20490
63269,46933,20502
63272,46918,20493
63272,46898,20472
63263,46872,20436
63242,46836,20379
63214,46795,20308
63180,46751,20231
63136,46695,20142
63081,46628,20035
63020,46556,19916
62957,46482,19790
62891,46403,19655
62822,46320,19510
62757,46236,19361
62689,46152,19212
62614,46065,19061
62537,45974,18901
62463,45883,18739
62390,45793,18580
62313,45702,18418
62240,45611,18253
62177,45530,18095
62123,45459,17951
62070,45390,17811
62012,45313,17667
61948,45233,17520
61883,45155,17370
61816,45070,17215
61746,44975,17054
61677,44879,16899
61608,44788,16751
61536,44697,16606
61467,44612,16463
61403,44539,16328
61342,44470,16198
61279,44399,16070
61217,44333,15948
61163,44275,15838
61112,44215,15731
61056,44147,15619
61000,44077,15503
60950,44014,15391
60902,43953,15285
60850,43888,15177
60799,43822,15064
60749,43761,14953
60697,43702,14842
60640,43638,14725
60583,43573,14603
60531,43513,14489
60482,43455,14380
60433,43391,14270
60386,43326,14164
60342,43269,14068
60302,43220,13985
60270,43179,13923
60258,43166,13899
60275,43194,13932
60329,43268,14040
60428,43398,14245
60587,43602,14571
60809,43884,15026
61083,44234,15595
61399,44637,16253
61746,45079,16978
62102,45538,17736
62448,45983,18480
62771,46395,19182
63065,46768,19831
63329,47095,20414
63555,47373,20918
63742,47604,21345
63899,47800,21705
64030,47960,22000
64131,48079,22226
64203,48161,22387
64251,48214,22498
64276,48240,22566
64280,48240,22593
64270,48218,22590
64251,48185,22563
64219,48137,22508
64172,48070,22422
64119,47992,22314
64060,47913,22195
63994,47833,22067
63920,47739,21923
63844,47634,21764
63768,47529,21600
63688,47423,21429
63602,47311,21241
63512,47196,21042
63424,47084,20841
63337,46970,20637
63251,46853,20427
63166,46737,20216
63078,46625,20007
62984,46509,19796
62885,46390,19582
62790,46275,19370
62699,46161,19162
62604,46044,18950
62506,45924,18735
62416,45805,18526
62334,45694,18329
62252,45585,18140
62174,45482,17960
62106,45391,17799
62050,45317,17664
61999,45253,17551
61954,45199,17457
61922,45160,17387
61903,45140,17347
61898,45136,17333
61905,45144,17342
61923,45171,17380
61955,45216,17446
61993,45273,17532
62041,45340,17640
62102,45417,17772
62167,45500,17920
62234,45584,18069
62304,45671,18214
62379,45760,18357
62447,45844,18493
62502,45916,18610
62549,45979,18707
62588,46034,18790
62616,46073,18854
62627,46092,18893
62624,46094,18911
62615,46087,18911
62599,46064,18888
62573,46027,18842
62543,45983,18782
62509,45936,18714
62465,45881,18632
62411,45813,18533
62353,45742,18424
62293,45671,18307
62228,45599,18178
62159,45519,18037
62087,45432,17888
62014,45342,17740
61939,45245,17585
61859,45141,17418
61778,45033,17244
61698,44929,17071
61618,44826,16894
61538,44721,16712
61460,44620,16533
61387,44529,16365
61316,44442,16203
61246,44353,16044
61177,44265,15891
61108,44182,15743
61037,44100,15594
60966,44015,15443
60896,43933,15297
60828,43854,15159
60756,43774,15021
60686,43697,14881
60625,43628,14749
60568,43562,14622
60507,43494,14493
60449,43426,14367
60398,43365,14252
60351,43303,14142
60300,43233,14029
60251,43164,13914
60207,43102,13804
60163,43043,13700
60111,42977,13590
60057,42907,13476
60007,42846,13374
59959,42791,13282
59909,42737,13186
59861,42686,13089
59818,42640,12997
59773,42593,12906
59728,42539,12811
59684,42484,12718
59642,42431,12633
59595,42378,12544
59542,42321,12447
59491,42267,12351
59445,42217,12260
59400,42166,12167
59358,42115,12073
59322,42076,11992
59298,42052,11937
59287,42039,11909
59299,42044,11920
59344,42094,12005
59433,42206,12193
59571,42386,12496
59769,42642,12921
60029,42979,13477
60346,43384,14148
60698,43831,14890
61064,44293,15660
61432,44756,16432
61784,45202,17175
62105,45608,17857
62390,45963,18463
62638,46268,18991
62841,46521,19439
63000,46719,19806
63124,46871,20103
63219,46987,20340
63284,47066,20516
63318,47107,20632
63328,47119,20696
63323,47112,20719
63303,47085,20705
63264,47034,20655
63212,46967,20578
63153,46890,20481
63090,46802,20362
63022,46702,20212
62949,46594,20039
62872,46488,19853
62789,46379,19655
62701,46264,19440
62611,46145,19216
62520,46030,18992
62420,45911,18763
62310,45784,18522
62201,45656,18274
62095,45533,18032
61989,45406,17792
61881,45274,17549
61776,45145,17305
61672,45019,17059
61564,44883,16803
61452,44734,16541
61343,44583,16281
61235,44437,16029
61127,44292,15781
61017,44150,15540
60912,44020,15318
60819,43909,15121
60733,43810,14947
60657,43720,14798
60597,43649,14682
60553,43595,14600
60522,43554,14545
60505,43528,14516
60504,43524,14520
60515,43540,14555
60537,43572,14616
60575,43624,14707
60633,43700,14833
60701,43790,14987
60774,43885,15158
60854,43985,15338
60943,44097,15527
61033,44215,15716
61115,44324,15894
61191,44422,16058
61265,44515,16209
61332,44593,16339
61385,44647,16439
61426,44681,16514
61456,44703,16571
61469,44712,16609
61465,44704,16626
61452,44685,16624
61433,44661,16605
61404,44629,16565
61364,44586,16507
61320,44539,16437
61277,44491,16359
61230,44436,16266
61179,44370,16155
61126,44297,16028
61070,44223,15891
61005,44141,15736
60932,44049,15565
60859,43957,15393
60785,43869,15226
60704,43778,15054
60615,43680,14877
60524,43582,14699
60430,43482,14520
60334,43377,14342
60238,43272,14166
60148,43171,13992
60063,43070,13816
59978,42964,13635
59897,42857,13452
59823,42758,13280
59755,42670,13118
59686,42583,12958
59620,42496,12799
59563,42416,12647
59512,42343,12506
59458,42269,12365
59399,42193,12226
59336,42120,12094
59267,42046,11967
59191,41968,11833
59116,41889,11699
59045,41815,11572
58973,41741,11448
58904,41667,11324
58843,41599,11205
58791,41538,11096
58742,41480,10994
58695,41421,10889
58653,41361,10787
58614,41304,10693
58574,41247,10604
58533,41183,10513
58496,41122,10424
58464,41074,10340
58431,41029,10255
58389,40977,10165
58342,40927,10073
58294,40878,9978
58242,40822,9872
58187,40760,9756
58135,40703,9645
58086,40652,9546
58036,40598,9451
57987,40539,9356
57942,40487,9270
57906,40451,9209
57880,40430,9180
57876,40436,9201
57913,40493,9308
58006,40619,9531
58158,40819,9879
58377,41097,10354
58660,41454,10959
58997,41878,11678
59372,42349,12473
59768,42846,13310
60169,43348,14152
60552,43828,14958
60898,44268,15698
61205,44660,16357
61473,45000,16932
61698,45280,17417
61877,45495,17808
62013,45650,18110
62114,45760,18339
62183,45833,18500
62221,45870,18592
62229,45873,18628
62215,45851,18621
62181,45804,18573
62129,45733,18489
62067,45648,18379
62000,45555,18253
61927,45452,18106
61844,45338,17935
61757,45221,17749
61665,45105,17556
61566,44984,17344
61458,44857,17105
61347,44726,16848
61237,44591,16583
61123,44445,16304
60998,44287,16011
60863,44124,15713
60718,43958,15408
60568,43787,15095
60420,43612,14774
60278,43438,14452
60136,43265,14133
59989,43085,13811
59842,42899,13486
59700,42719,13171
59564,42546,12873
59430,42374,12586
59299,42209,12312
59180,42062,12062
59077,41934,11842
58985,41823,11645
58906,41727,11479
58845,41650,11351
58801,41588,11258
58770,41542,11195
58759,41518,11167
58765,41523,11179
58781,41552,11228
58806,41598,11307
58847,41660,11416
58908,41741,11559
58980,41836,11733
59061,41942,11929
59156,42061,12147
59261,42195,12382
59368,42335,12621
59473,42473,12856
59580,42607,13086
59688,42737,13305
59789,42854,13503
59873,42950,13671
59943,43022,13810
59998,43073,13921
60033,43108,14001
60046,43125,14047
60045,43128,14065
60035,43119,14062
60014,43095,14029
59985,43055,13967
59948,43007,13889
59903,42952,13798
59851,42888,13692
59794,42817,13571
59734,42743,13441
59670,42667,13305
59601,42587,13160
59529,42500,13005
59456,42412,12844
59381,42324,12675
59301,42228,12494
59215,42123,12302
59126,42017,12108
59034,41912,11914
58939,41803,11716
58846,41689,11515
58753,41577,11316
58661,41466,11122
58571,41355,10930
58484,41252,10745
58397,41155,10571
58306,41057,10403
58211,40954,10232
58122,40855,10062
58042,40764,9902
57968,40680,9753
57896,40594,9605
57828,40509,9460
57766,40430,9321
57705,40350,9181
57639,40265,9040
57571,40182,8899
57506,40106,8760
57443,40031,8623
57379,39953,8487
57316,39879,8358
57257,39808,8237
57196,39733,8111
57129,39652,7977
57064,39579,7846
57007,39518,7728
56955,39456,7617
56907,39391,7505
56866,39332,7398
56828,39279,7295
56786,39221,7185
56737,39159,7069
56689,39099,6958
56642,39043,6855
56594,38984,6752
56545,38923,6651
56497,38866,6563
56450,38818,6498
56409,38780,6459
56389,38764,6465
56411,38797,6551
56487,38897,6746
56628,39079,7075
56846,39355,7552
57144,39725,8179
57509,40173,8932
57920,40680,9782
58364,41228,10695
58819,41793,11631
59259,42347,12544
59666,42859,13394
60030,43314,14158
60349,43713,14832
60617,44049,15403
60831,44314,15864
60997,44516,16225
61119,44666,16501
61198,44765,16697
61240,44816,16819
61257,44830,16879
61253,44816,16892
61224,44777,16861
61174,44718,16788
61113,44648,16686
61047,44570,16563
60975,44480,16417
60892,44370,16242
60801,44250,16045
60704,44130,15833
60604,44001,15597
60497,43860,15334
60384,43714,15053
60263,43562,14758
60131,43397,14443
59992,43220,14117
59851,43042,13790
59708,42861,13460
59560,42674,13121
59408,42486,12775
59252,42296,12429
59094,42101,12085
58934,41899,11738
58776,41699,11396
58626,41515,11072
58483,41345,10765
58339,41173,10468
58198,41005,10187
58071,40851,9934
57955,40711,9704
57848,40580,9486
57758,40467,9292
57690,40379,9134
57641,40312,9015
57607,40265,8935
57589,40243,8897
57586,40245,8901
57596,40265,8945
57622,40302,9026
57670,40364,9146
57742,40454,9304
57830,40565,9491
57929,40690,9697
58042,40828,9923
58170,40980,10176
58301,41136,10443
58427,41285,10710
58549,41433,10974
58668,41579,11231
58777,41715,11467
58872,41835,11677
58957,41943,11863
59032,42037,12021
59096,42113,12146
59146,42170,12236
59182,42210,12296
59201,42229,12327
59202,42227,12329
59189,42206,12302
59170,42176,12259
59146,42140,12206
59111,42090,12133
59066,42028,12034
59016,41962,11917
58959,41889,11787
58889,41802,11638
58808,41703,11471
58722,41600,11292
58631,41494,11103
58535,41382,10906
58442,41272,10709
58359,41169,10520
58280,41072,10334
58200,40976,10146
58119,40881,9961
58039,40789,9784
57960,40699,9613
57881,40608,9446
57807,40518,9283
57740,40432,9127
57676,40347,8974
57610,40261,8824
57547,40179,8681
57490,40105,8547
57434,40034,8415
57373,39959,8279
57310,39884,8140
57247,39810,8005
57181,39733,7871
57111,39650,7734
57041,39566,7599
56973,39482,7468
56902,39395,7334
56830,39306,7197
56759,39223,7065
56691,39148,6939
56620,39070,6811
56548,38989,6678
56483,38914,6547
56426,38843,6420
56365,38770,6290
56303,38700,6159
56248,38638,6036
56200,38582,5923
56157,38523,5812
56121,38462,5703
56090,38408,5606
56059,38363,5527
56037,38329,5469
56036,38323,5456
56071,38365,5524
56150,38469,5701
56283,38646,6009
56483,38909,6466
56755,39266,7080
57094,39704,7829
57488,40206,8683
57919,40751,9606
58370,41317,10561
58813,41872,11500
59227,42391,12379
59600,42858,13172
59925,43268,13869
60198,43613,14462
60419,43888,14949
60597,44105,15337
60738,44275,15643
60842,44394,15870
60907,44462,16019
60940,44491,16104
60951,44491,16139
60935,44463,16124
60897,44413,16063
60846,44347,15970
60783,44267,15854
60709,44174,15713
60625,44070,15546
60537,43958,15361
60446,43844,15161
60351,43727,14943
60253,43603,14708
60155,43478,14466
60053,43350,14217
59944,43211,13955
59829,43063,13682
59711,42912,13408
59593,42757,13136
59473,42595,12856
59350,42433,12569
59225,42276,12282
59096,42116,11993
58962,41945,11692
58829,41771,11382
58695,41597,11074
58555,41420,10770
58406,41237,10466
58256,41058,10169
58119,40896,9892
57997,40751,9639
57888,40615,9407
57791,40491,9202
57711,40387,9034
57645,40301,8904
57593,40235,8808
57557,40193,8756
57543,40182,8750
57549,40195,8779
57574,40227,8838
57619,40280,8931
57682,40358,9061
57755,40455,9221
57839,40566,9403
57937,40693,9609
58050,40838,9841
58172,40988,10083
58293,41132,10322
58414,41271,10560
58531,41411,10797
58637,41542,11021
58729,41655,11226
58815,41757,11410
58892,41848,11568
58951,41921,11693
58994,41972,11782
59025,42007,11844
59042,42026,11880
59043,42024,11885
59032,42005,11863
59016,41979,11822
58992,41944,11766
58958,41895,11690
58916,41834,11594
58871,41773,11488
58822,41714,11372
58767,41650,11242
58706,41580,11101
58644,41504,10955
58576,41419,10800
58500,41326,10634
58421,41230,10463
58345,41135,10295
58272,41038,10126
58197,40936,9951
58117,40836,9774
58035,40742,9607
57952,40653,9446
57868,40561,9284
57791,40472,9125
57723,40391,8973
57658,40313,8824
57594,40234,8676
57535,40160,8532
57476,40091,8391
57415,40017,8247
57355,39935,8102
57297,39859,7957
57234,39795,7812
57167,39732,7667
57101,39663,7524
57037,39593,7391
56977,39525,7272
56916,39452,7160
56853,39372,7049
56797,39295,6943
56747,39224,6843
56698,39155,6743
56649,39088,6639
56605,39029,6534
56563,38974,6428
56521,38918,6320
56483,38862,6213
56449,38813,6115
56412,38768,6022
56367,38718,5926
56322,38664,5828
56285,38619,5743
56260,38586,5679
56244,38563,5640
56248,38562,5645
56290,38613,5736
56383,38734,5942
56534,38934,6280
56753,39224,6759
57042,39604,7377
57390,40056,8119
57783,40554,8952
58205,41080,9841
58634,41615,10748
59047,42131,11629
59430,42603,12443
59778,43025,13173
60085,43398,13815
60344,43712,14358
60554,43963,14798
60724,44159,15151
60859,44309,15426
60954,44410,15628
61011,44466,15765
61037,44491,15845
61038,44494,15874
61017,44470,15861
60980,44424,15814
60934,44363,15743
60882,44295,15655
60823,44215,15543
60756,44123,15405
60686,44026,15248
60612,43925,15080
60527,43813,14896
60436,43692,14701
60351,43571,14501
60268,43452,14295
60178,43328,14071
60080,43199,13833
59979,43071,13598
59872,42943,13362
59758,42809,13116
59640,42672,12862
59521,42534,12606
59402,42393,12345
59280,42246,12080
59159,42098,11818
59040,41952,11566
58923,41807,11317
58808,41660,11068
58700,41520,10830
58602,41391,10612
58509,41274,10414
58421,41164,10233
58340,41065,10069
58276,40987,9933
58228,40925,9827
58193,40873,9746
58173,40835,9693
58170,40816,9675
58181,40817,9687
58202,40834,9723
58238,40872,9790
58287,40936,9899
58348,41016,10041
58418,41106,10200
58497,41211,10379
58585,41330,10576
58679,41451,10778
58779,41568,10978
58883,41687,11177
58985,41807,11372
59075,41915,11548
59150,42007,11697
59212,42089,11826
59262,42160,11937
59298,42212,12026
59320,42242,12088
59334,42260,12129
59340,42268,12148
59332,42261,12139
59313,42240,12103
59285,42210,12050
59249,42168,11979
59205,42110,11886
59156,42043,11776
59104,41976,11662
59047,41905,11544
58983,41824,11417
58921,41739,11279
58862,41660,11140
58803,41584,10998
58738,41501,10847
58670,41413,10691
58604,41325,10535
58537,41233,10376
58462,41136,10209
58385,41043,10039
58310,40958,9872
58236,40874,9708
58160,40787,9547
58089,40701,9394
58022,40617,9249
57956,40532,9103
57889,40442,8956
57825,40354,8812
57761,40273,8676
57695,40195,8540
57627,40114,8402
57564,40038,8268
57506,39971,8145
57451,39903,8026
57392,39829,7904
57336,39757,7786
57283,39692,7674
57228,39626,7558
57170,39559,7438
57112,39498,7321
57055,39445,7209
57003,39393,7097
56960,39340,6989
56920,39290,6887
56879,39241,6791
56833,39189,6693
56785,39138,6594
56739,39092,6503
56696,39048,6420
56654,38997,6337
56615,38944,6254
56585,38902,6186
56569,38876,6141
56569,38863,6127
56593,38879,6168
56661,38951,6301
56781,39093,6552
56961,39314,6932
57206,39620,7447
57513,40005,8093
57865,40449,8841
58247,40926,9653
58643,41419,10492
59037,41910,11328
59411,42378,12123
59751,42802,12847
60049,43172,13483
60303,43491,14030
60514,43756,14484
60682,43966,14847
60810,44125,15128
60906,44246,15346
60971,44325,15503
61009,44363,15601
61026,44373,15653
61024,44362,15664
61000,44326,15634
60962,44272,15574
60916,44209,15491
60861,44136,15386
60795,44051,15260
60719,43955,15118
60637,43852,14969
60553,43747,14814
60467,43639,14646
60380,43532,14465
60295,43428,14277
60209,43322,14082
60119,43209,13879
60031,43094,13670
59946,42979,13462
59859,42863,13253
59767,42738,13035
59675,42611,12811
59587,42493,12588
59497,42380,12370
59398,42260,12148
59294,42136,11921
59194,42017,11700
59096,41905,11488
58995,41792,11279
58897,41681,11076
58807,41576,10889
58724,41476,10720
58645,41380,10568
58575,41295,10437
58520,41225,10329
58479,41168,10243
58452,41123,10182
58438,41097,10153
58439,41098,10159
58458,41123,10198
58490,41165,10263
58540,41226,10355
58607,41310,10478
58685,41406,10627
58767,41509,10791
58859,41621,10969
58958,41737,11154
59053,41844,11336
59141,41941,11512
59222,42036,11685
59292,42129,11847
59351,42209,11985
59402,42274,12095
59445,42326,12185
59477,42364,12252
59496,42385,12292
59504,42391,12309
59506,42391,12313
59501,42382,12301
59489,42357,12267
59467,42318,12214
59439,42274,12147
59403,42226,12067
59358,42169,11974
59308,42105,11873
59258,42040,11766
59207,41973,11648
59150,41903,11518
59092,41832,11383
59035,41762,11247
58976,41684,11104
58909,41597,10951
58838,41508,10793
58765,41422,10635
58690,41337,10478
58613,41247,10319
58536,41158,10160
58463,41078,10009
58392,41000,9861
58321,40917,9711
58253,40836,9566
58185,40755,9430
58114,40668,9296
58042,40577,9158
57975,40490,9027
57915,40411,8905
57857,40337,8785
57800,40269,8666
57746,40208,8552
57695,40153,8444
57646,40097,8335
57596,40036,8222
57553,39978,8114
57516,39926,8016
57478,39873,7919
57434,39818,7820
57390,39770,7728
57347,39728,7645
57306,39683,7561
57267,39635,7470
57232,39585,7378
57197,39534,7286
57154,39476,7188
57106,39418,7088
57065,39369,6997
57029,39329,6910
56992,39286,6821
56955,39241,6733
56922,39202,6659
56896,39168,6601
56880,39137,6562
56880,39126,6555
56902,39152,6601
56957,39223,6720
57053,39347,6927
57203,39535,7243
57412,39803,7684
57676,40147,8245
57983,40547,8902
58321,40989,9630
58680,41456,10397
59043,41916,11166
59392,42349,11903
59717,42749,12590
60012,43113,13218
60267,43430,13769
60478,43697,14237
60654,43918,14630
60802,44096,14954
60922,44226,15208
61011,44311,15392
61073,44362,15518
61111,44389,15594
61122,44388,15623
61109,44360,15608
61081,44318,15566
61040,44268,15507
60987,44208,15422
60925,44132,15309
60859,44050,15181
60789,43965,15042
60713,43873,14887
60632,43773,14722
60553,43672,14555
60474,43571,14383
60392,43465,14201
60307,43357,14011
60224,43254,13823
60139,43150,13633
60045,43037,13434
59948,42920,13233
59857,42809,13041
59772,42697,12849
59689,42580,12651
59604,42465,12453
59517,42356,12258
59428,42246,12063
59332,42128,11861
59236,42009,11659
59151,41902,11468
59073,41805,11288
59001,41708,11117
58935,41622,10961
58880,41561,10836
58836,41516,10737
58804,41478,10657
58787,41455,10604
58785,41453,10588
58795,41464,10604
58818,41489,10649
58861,41536,10728
58916,41604,10838
58979,41683,10969
59047,41771,11116
59124,41872,11280
59208,41983,11459
59292,42094,11645
59371,42200,11825
59447,42301,11998
59522,42397,12159
59586,42475,12298
59637,42532,12411
59680,42579,12508
59716,42620,12586
59741,42646,12637
59753,42659,12662
59756,42665,12670
59751,42656,12659
59734,42629,12624
59710,42591,12570
59685,42547,12503
59649,42494,12425
59602,42432,12334
59548,42366,12234
59493,42301,12133
59435,42236,12031
59372,42165,11917
59308,42091,11795
59250,42019,11671
59190,41947,11539
59120,41868,11397
59052,41785,11253
58989,41706,11111
58925,41626,10963
58857,41541,10806
58791,41457,10651
58727,41377,10502
58658,41293,10353
58585,41202,10198
58512,41109,10046
58441,41020,9902
58371,40934,9763
58299,40847,9623
58228,40762,9486
58160,40684,9358
58093,40610,9237
58023,40537,9120
57963,40472,9012
57918,40414,8911
57872,40353,8805
57821,40288,8692
57773,40227,8585
57727,40169,8482
57679,40112,8375
57631,40060,8265
57585,40011,8162
57536,39958,8064
57489,39900,7963
57451,39841,7861
57421,39791,7767
57393,39745,7678
57360,39695,7583
57322,39643,7486
57285,39596,7399
57250,39551,7323
57211,39502,7244
57173,39452,7162
57136,39410,7088
57100,39372,7021
57066,39337,6961
57042,39316,6921
57036,39317,6915
57051,39342,6953
57096,39399,7055
57184,39508,7247
57322,39681,7547
57512,39918,7958
57749,40217,8473
58032,40575,9082
58351,40984,9768
58690,41421,10491
59030,41854,11212
59360,42268,11909
59669,42651,12562
59944,42988,13148
60182,43276,13661
60386,43522,14104
60554,43731,14476
60687,43901,14774
60792,44032,15003
60874,44127,15176
60932,44189,15298
60965,44216,15370
60975,44214,15397
60966,44191,15385
60936,44152,15342
60885,44094,15268
60823,44020,15169
60757,43942,15055
60688,43857,14926
60615,43762,14777
60539,43660,14611
60461,43555,14437
60378,43445,14260
60284,43324,14072
60186,43199,13876
60094,43082,13683
60005,42966,13488
59909,42844,13284
59811,42721,13076
59720,42603,12871
59630,42487,12669
59536,42366,12464
59439,42244,12260
59342,42126,12058
59244,42007,11850
59143,41885,11635
59041,41765,11420
58941,41650,11213
58838,41534,11012
58739,41418,10819
58653,41311,10645
58584,41223,10501
58530,41152,10383
58486,41093,10283
58459,41053,10211
58450,41039,10178
58456,41046,10177
58472,41072,10202
58501,41117,10259
58547,41181,10349
58608,41254,10463
58679,41338,10599
58764,41438,10762
58858,41551,10945
58951,41664,11132
59042,41773,11313
59133,41882,11495
59216,41983,11670
59283,42068,11824
59336,42140,11953
59379,42201,12060
59413,42249,12143
59435,42277,12196
59445,42289,12221
59445,42295,12232
59436,42293,12229
59417,42277,12202
59393,42247,12155
59364,42211,12098
59328,42165,12023
59284,42103,11926
59232,42036,11816
59176,41967,11701
59110,41890,11578
59036,41801,11440
58959,41708,11295
58881,41618,11149
58801,41526,10996
58719,41427,10835
58636,41326,10670
58551,41230,10510
58463,41135,10351
58371,41033,10184
58282,40931,10015
58202,40835,9850
58127,40740,9687
58052,40641,9522
57981,40545,9362
57916,40458,9213
57855,40372,9067
57790,40283,8921
57725,40199,8781
57665,40126,8649
57607,40053,8518
57546,39979,8386
57490,39909,8262
57438,39842,8143
57383,39773,8025
57327,39705,7904
57271,39641,7783
57214,39579,7665
57154,39515,7550
57092,39447,7438
57036,39384,7334
56984,39327,7236
56930,39267,7139
56875,39204,7043
56823,39146,6951
56776,39091,6860
56730,39034,6764
56687,38978,6665
56650,38926,6571
56613,38874,6479
56575,38819,6381
56541,38765,6280
56513,38720,6188
56482,38678,6105
56446,38633,6024
56409,38594,5956
56381,38573,5913
56370,38574,5903
56378,38600,5936
56418,38663,6035
56504,38780,6229
56637,38959,6535
56818,39199,6953
57053,39505,7481
57337,39869,8104
57657,40274,8796
58001,40702,9532
58355,41140,10286
58707,41571,11028
59039,41976,11726
59342,42339,12357
59609,42658,12918
59840,42933,13403
60030,43154,13807
60176,43322,14129
60287,43455,14382
60370,43558,14575
60422,43626,14706
60444,43661,14783
60446,43673,14820
60432,43664,14816
60400,43632,14771
60358,43582,14695
60308,43520,14596
60246,43442,14471
60170,43346,14314
60084,43238,14135
59993,43125,13947
59896,43004,13750
59789,42868,13537
59673,42721,13308
59557,42579,13077
59444,42441,12845
59326,42299,12605
59205,42153,12361
59088,42009,12120
58978,41867,11884
58871,41724,11651
58767,41589,11424
58665,41464,11203
58564,41339,10979
58464,41210,10751
58368,41084,10529
58276,40964,10319
58185,40849,10114
58095,40736,9914
58010,40633,9731
57935,40545,9575
57870,40469,9439
57816,40405,9317
57781,40364,9226
57765,40347,9179
57762,40346,9163
57774,40358,9175
57807,40391,9222
57855,40444,9302
57913,40512,9414
57982,40595,9556
58064,40700,9728
58158,40824,9924
58257,40955,10132
58359,41091,10348
58468,41234,10574
58580,41376,10801
58682,41503,11014
58776,41614,11206
58861,41718,11383
58929,41804,11534
58978,41863,11647
59015,41900,11725
59046,41927,11783
59062,41941,11819
59058,41934,11823
59041,41911,11801
59019,41881,11765
58988,41842,11713
58945,41790,11637
58899,41732,11540
58848,41666,11430
58784,41588,11306
58711,41503,11170
58638,41419,11026
58568,41336,10880
58498,41248,10727
58424,41151,10563
58349,41053,10395
58273,40959,10225
58195,40865,10051
58117,40766,9872
58042,40669,9700
57971,40578,9538
57902,40487,9382
57832,40396,9229
57765,40313,9080
57701,40242,8938
57633,40170,8798
57557,40094,8657
57486,40020,8520
57421,39950,8392
57355,39878,8265
57290,39804,8137
57236,39739,8018
57191,39681,7909
57144,39625,7805
57097,39571,7705
57053,39521,7616
57014,39472,7533
56975,39420,7447
56935,39365,7358
56897,39314,7271
56860,39265,7181
56820,39212,7086
56780,39158,6990
56744,39109,6899
56711,39066,6810
56675,39021,6722
56638,38978,6634
56604,38942,6554
56571,38908,6479
56538,38872,6405
56510,38841,6341
56490,38821,6297
56477,38811,6277
56473,38815,6288
56493,38849,6352
56555,38936,6497
56665,39081,6740
56826,39287,7088
57036,39555,7544
57292,39887,8103
57587,40268,8743
57909,40678,9433
58250,41106,10153
58600,41539,10877
58942,41955,11574
59259,42338,12223
59547,42687,12819
59803,42999,13353
60021,43261,13812
60198,43473,14194
60338,43644,14507
60446,43775,14760
60521,43863,14947
60570,43915,15073
60600,43943,15153
60610,43950,15190
60601,43935,15188
60582,43902,15154
60558,43860,15098
60522,43806,15019
60469,43734,14911
60405,43651,14780
60337,43564,14642
60266,43474,14501
60193,43374,14346
60120,43268,14178
60051,43164,14008
59980,43067,13837
59902,42966,13659
59820,42864,13477
59741,42768,13299
59663,42672,13123
59578,42575,12944
59495,42480,12768
59416,42389,12596
59338,42293,12418
59258,42189,12232
59176,42084,12044
59093,41982,11861
59008,41878,11679
58922,41770,11488
58840,41667,11302
58767,41578,11136
58701,41494,10987
58643,41414,10850
58600,41350,10738
58575,41310,10663
58564,41284,10617
58563,41271,10601
58576,41283,10624
58606,41323,10687
58650,41383,10777
58703,41457,10891
58770,41548,11032
58849,41654,11195
58933,41763,11367
59019,41869,11546
59108,41980,11732
59196,42093,11915
59277,42196,12084
59352,42287,12239
59420,42373,12380
59478,42447,12504
59522,42500,12605
59555,42537,12685
59580,42566,12749
59595,42587,12792
59598,42591,12802
59589,42581,12786
59574,42562,12757
59549,42531,12713
59511,42485,12647
59462,42428,12566
59413,42369,12477
59360,42306,12377
59301,42232,12260
59238,42152,12133
59178,42074,12002
59117,41990,11862
59053,41899,11712
58990,41814,11564
58928,41735,11419
58863,41653,11268
58795,41563,11110
58726,41470,10951
58656,41378,10798
58584,41285,10644
58509,41189,10487
58438,41101,10335
58370,41021,10192
58301,40945,10053
58237,40868,9916
58183,40802,9789
58137,40748,9677
58092,40697,9571
58043,40645,9465
57994,40595,9366
57948,40548,9274
57905,40501,9180
57868,40450,9084
57833,40402,8995
57797,40358,8915
57758,40312,8837
57719,40265,8758
57686,40224,8686
57654,40187,8618
57624,40148,8548
57594,40108,8474
57564,40071,8402
57532,40034,8332
57499,39992,8262
57466,39949,8192
57434,39911,8125
57404,39873,8056
57372,39828,7978
57340,39783,7897
57313,39747,7823
57289,39715,7756
57261,39678,7684
57236,39642,7612
57215,39613,7553
57198,39593,7509
57186,39586,7487
57193,39601,7504
57234,39655,7586
57316,39758,7751
57442,39914,8011
57616,40133,8379
57840,40418,8856
58109,40760,9426
58409,41142,10071
58735,41556,10773
59075,41985,11505
59412,42408,12230
59737,42814,12921
60041,43191,13563
60315,43530,14145
60555,43827,14658
60762,44079,15102
60938,44292,15484
61082,44466,15803
61191,44597,16055
61271,44689,16244
61333,44755,16387
61376,44798,16492
61393,44815,16556
61390,44811,16584
61377,44796,16588
61353,44768,16569
61320,44725,16526
61280,44674,16461
61235,44625,16384
61188,44574,16296
61135,44511,16190
61076,44443,16068
61017,44373,15941
60956,44297,15807
60892,44207,15665
60828,44115,15522
60767,44029,15384
60704,43944,15247
60639,43856,15106
60579,43772,14967
60526,43693,14834
60472,43615,14703
60415,43536,14568
60359,43459,14434
60304,43386,14310
60246,43315,14189
60183,43241,14064
60125,43167,13940
60070,43102,13822
60015,43037,13705
59959,42967,13586
59911,42902,13477
59874,42850,13384
59845,42808,13304
59824,42775,13234
59815,42755,13186
59815,42748,13170
59822,42753,13178
59837,42768,13211
59864,42800,13272
59902,42850,13356
59945,42911,13454
59997,42984,13565
60053,43069,13694
60110,43158,13832
60166,43242,13970
60223,43320,14103
60285,43395,14232
60346,43463,14354
60397,43517,14455
60441,43561,14535
60481,43603,14604
60513,43638,14659
60533,43661,14691
60544,43671,14702
60549,43672,14700
60543,43661,14686
60525,43637,14653
60499,43604,14606
60472,43567,14550
60440,43523,14481
60397,43462,14394
60347,43393,14291
60297,43327,14180
60240,43259,14061
60174,43183,13928
60108,43107,13792
60043,43034,13657
59976,42955,13515
59906,42870,13368
59839,42790,13220
59776,42713,13072
59712,42631,12924
59641,42543,12774
59571,42459,12631
59504,42384,12497
59435,42308,12363
59364,42229,12225
59299,42153,12089
59242,42080,11961
59186,42009,11836
59130,41939,11714
59080,41876,11598
59034,41820,11491
58990,41765,11387
58948,41710,11287
58910,41660,11194
58871,41614,11108
58829,41563,11024
58790,41510,10941
58756,41463,10866
58726,41422,10799
58694,41378,10729
58661,41329,10657
58633,41288,10593
58606,41254,10535
58575,41218,10477
58544,41180,10417
58521,41150,10360
58495,41123,10302
58463,41089,10237
58431,41053,10171
58401,41018,10105
58367,40978,10036
58326,40932,9960
58289,40890,9887
58260,40858,9823
58236,40828,9763
58212,40799,9699
58187,40775,9638
58159,40760,9583
58130,40744,9529
58104,40723,9475
58091,40710,9436
58092,40714,9428
58112,40736,9461
58156,40784,9545
58236,40871,9703
58361,41013,9954
58528,41210,10302
58736,41463,10742
58991,41781,11278
59288,42154,11895
59609,42554,12555
59937,42962,13227
60259,43364,13895
60565,43747,14541
60847,44097,15147
61102,44413,15702
61335,44698,16205
61541,44949,16651
61715,45159,17033
61857,45333,17352
61973,45478,17617
62064,45590,17835
62127,45667,18003
62168,45717,18127
62196,45748,18213
62214,45757,18262
62218,45749,18277
62208,45729,18269
62190,45705,18246
62167,45674,18204
62136,45632,18140
62097,45583,18063
62057,45534,17982
62011,45481,17891
61957,45422,17792
61900,45360,17687
61843,45297,17582
61787,45233,17476
61732,45162,17365
61677,45090,17253
61623,45026,17150
61567,44963,17049
61511,44895,16945
61459,44829,16847
61411,44769,16758
61365,44712,16669
61318,44653,16570
61272,44595,16468
61228,44540,16369
61180,44481,16266
61131,44417,16155
61088,44358,16044
61052,44304,15937
61018,44252,15835
60985,44203,15742
60958,44165,15667
60935,44139,15612
60914,44117,15568
60901,44101,15536
60902,44101,15525
60912,44117,15536
60927,44141,15558
60945,44171,15593
60970,44209,15647
61000,44250,15715
61032,44289,15792
61069,44333,15881
61113,44386,15981
61159,44442,16082
61202,44493,16176
61239,44538,16266
61273,44580,16351
61299,44612,16423
61318,44631,16476
61333,44645,16514
61346,44658,16543
61351,44665,16557
61343,44661,16551
61329,44645,16528
61313,44625,16496
61290,44596,16450
61257,44555,16383
61217,44508,16301
61172,44459,16213
61122,44404,16118
61065,44337,16007
61001,44265,15888
60938,44190,15766
60875,44114,15635
60809,44032,15494
60742,43948,15352
60673,43862,15213
60603,43771,15067
60532,43678,14915
60465,43592,14766
60397,43508,14620
60324,43420,14470
60251,43331,14319
60185,43244,14171
60120,43156,14024
60053,43065,13874
59982,42972,13723
59913,42888,13581
59852,42811,13446
59793,42736,13308
59739,42662,13170
59687,42595,13047
59635,42535,12941
59580,42475,12837
59524,42412,12732
59475,42353,12639
59431,42299,12553
59387,42245,12466
59350,42195,12383
59319,42156,12306
59289,42120,12228
59258,42082,12151
59229,42047,12082
59206,42017,12021
59184,41990,11961
59160,41958,11901
59140,41927,11847
59123,41904,11801
59105,41884,11757
59081,41860,11708
59054,41830,11659
59026,41799,11612
58997,41766,11560
58965,41730,11501
58935,41697,11440
58909,41668,11377
58879,41637,11306
58845,41597,11225
58812,41557,11142
58782,41521,11064
58750,41478,10983
58713,41429,10899
58676,41385,10819
58643,41345,10746
58611,41307,10674
58585,41275,10613
58570,41259,10580
58567,41262,10585
58582,41285,10634
58630,41343,10751
58724,41458,10957
58865,41635,11258
59050,41869,11650
59282,42158,12131
59558,42501,12697
59859,42881,13326
60167,43278,13989
60478,43678,14663
60787,44072,15328
61083,44445,15961
61352,44779,16543
61593,45074,17071
61810,45339,17547
61998,45569,17964
62151,45759,18314
62278,45913,18603
62379,46042,18847
62454,46145,19045
62503,46219,19188
62528,46264,19286
62535,46286,19350
62528,46286,19377
62508,46264,19371
62477,46230,19339
62442,46189,19290
62399,46136,19218
62347,46070,19121
62296,45997,19013
62247,45921,18900
62192,45840,18780
62132,45756,18657
62072,45675,18538
62012,45596,18418
61949,45515,18294
61885,45436,18169
61828,45365,18050
61777,45305,17939
61730,45250,17833
61686,45198,17731
61647,45149,17637
61609,45101,17547
61565,45049,17452
61516,44993,17350
61466,44935,17246
61413,44874,17139
61355,44805,17021
61295,44731,16898
61240,44660,16782
61188,44589,16671
61136,44516,16557
61089,44452,16445
61056,44407,16353
61030,44377,16287
61011,44358,16242
61005,44354,16219
61014,44365,16218
61025,44385,16238
61038,44412,16278
61056,44451,16338
61086,44507,16419
61124,44569,16513
61167,44627,16607
61213,44682,16700
61261,44740,16794
61305,44794,16883
61344,44837,16960
61379,44875,17029
61412,44911,17095
61442,44940,17149
61463,44956,17185
61472,44964,17209
61476,44967,17222
61466,44957,17217
61442,44937,17198
61414,44916,17172
61387,44891,17137
61356,44854,17086
61321,44806,17017
61284,44756,16938
61239,44702,16850
61186,44639,16746
61130,44570,16628
61075,44500,16505
61015,44424,16376
60946,44334,16235
60870,44242,16086
60796,44157,15939
60721,44073,15791
60646,43984,15636
60576,43899,15482
60513,43823,15338
60453,43746,15195
60392,43663,15045
60328,43580,14893
60266,43503,14745
60206,43428,14600
60142,43350,14452
60078,43267,14307
60017,43187,14173
59957,43107,14045
59895,43026,13912
59835,42948,13780
59777,42879,13659
59720,42813,13544
59661,42746,13427
59603,42679,13314
59554,42619,13215
59511,42562,13125
59468,42504,13032
59431,42453,12939
59399,42409,12851
59366,42364,12764
59329,42318,12679
59295,42280,12602
59268,42250,12534
59241,42217,12469
59209,42182,12404
59176,42150,12343
59145,42121,12285
59112,42088,12225
59082,42056,12163
59056,42027,12103
59029,41995,12042
59000,41957,11980
58974,41917,11920
58953,41879,11862
58933,41844,11803
58908,41804,11738
58879,41762,11667
58847,41719,11594
58812,41674,11518
58769,41624,11434
58723,41574,11347
58681,41529,11265
58640,41483,11184
58593,41430,11096
58543,41372,11000
58499,41320,10903
58457,41270,10810
58414,41220,10718
58376,41174,10630
58350,41140,10562
58335,41119,10521
58330,41114,10514
58348,41144,10564
58404,41226,10698
58502,41364,10928
58647,41559,11256
58842,41817,11691
59087,42141,12228
59374,42515,12842
59687,42917,13509
60014,43336,14210
60344,43762,14922
60659,44172,15614
60950,44548,16259
61217,44885,16855
61459,45183,17396
61671,45439,17872
61854,45656,18279
62012,45840,18626
62141,45993,18916
62237,46109,19146
62306,46193,19324
62352,46254,19455
62375,46289,19538
62377,46296,19574
62365,46280,19572
62344,46251,19544
62310,46207,19491
62263,46141,19412
62205,46063,19310
62139,45981,19197
62067,45895,19075
61990,45802,18940
61919,45710,18798
61858,45629,18661
61800,45556,18527
61737,45481,18388
61672,45403,18248
61611,45329,18112
61549,45255,17979
61484,45177,17843
61421,45095,17707
61364,45015,17577
61309,44935,17449
61252,44852,17316
61197,44771,17181
61144,44693,17046
61084,44615,16905
61015,44534,16752
60946,44457,16597
60881,44386,16452
60818,44315,16317
60757,44242,16193
60704,44177,16086
60660,44122,15995
60623,44076,15919
60595,44043,15859
60580,44025,15823
60579,44024,15813
60589,44032,15823
60606,44048,15850
60632,44077,15898
60667,44125,15967
60705,44182,16049
60744,44240,16140
60786,44302,16242
60826,44365,16348
60863,44420,16449
60896,44466,16542
60927,44507,16628
60956,44545,16709
60980,44575,16778
60996,44596,16830
61009,44614,16874
61020,44629,16907
61022,44632,16916
61014,44621,16901
61000,44601,16873
60979,44572,16829
60944,44532,16766
60903,44487,16688
60861,44438,16597
60812,44374,16489
60754,44296,16366
60695,44213,16234
60636,44135,16099
60572,44055,15956
60502,43970,15799
60432,43884,15637
60364,43799,15477
60292,43710,15313
60210,43615,15138
60124,43515,14957
60038,43411,14776
59952,43303,14595
59867,43190,14411
59784,43081,14230
59707,42983,14062
59630,42888,13898
59550,42793,13731
59475,42703,13571
59409,42619,13422
59346,42537,13275
59283,42457,13129
59224,42381,12989
59167,42307,12855
59106,42231,12725
59040,42156,12600
58978,42085,12479
58920,42017,12360
58859,41943,12238
58795,41868,12115
58734,41801,11999
58675,41741,11890
58615,41677,11781
58559,41615,11678
58512,41561,11591
58470,41512,11514
58429,41458,11434
58393,41405,11351
58366,41364,11278
58346,41327,11213
58322,41285,11146
58298,41246,11079
58278,41216,11019
58255,41188,10957
58224,41154,10885
58190,41117,10808
58159,41081,10734
58128,41041,10660
58090,40995,10580
58050,40948,10498
58008,40897,10413
57960,40837,10317
57905,40769,10206
57844,40698,10089
57780,40625,9971
57714,40546,9848
57644,40460,9715
57573,40376,9579
57502,40298,9448
57429,40220,9315
57359,40143,9179
57295,40075,9055
57238,40020,8948
57187,39973,8859
57153,39935,8796
57144,39919,8779
57166,39941,8827
57225,40006,8954
57327,40127,9180
57480,40320,9520
57683,40584,9974
57928,40908,10527
58212,41280,11164
58531,41695,11870
58873,42134,12618
59220,42576,13375
59565,43010,14119
59901,43432,14838
60209,43825,15508
60480,44171,16109
60716,44466,16632
60919,44720,17083
61086,44928,17459
61211,45084,17755
61301,45197,17981
61364,45281,18153
61398,45336,18271
61405,45356,18334
61394,45347,18347
61368,45319,18324
61327,45273,18266
61268,45204,18169
61200,45120,18042
61127,45028,17895
61050,44927,17730
60966,44815,17547
60878,44700,17353
60791,44582,17156
60701,44458,16950
60609,44329,16734
60519,44207,16522
60430,44090,16318
60338,43974,16115
60247,43855,15909
60156,43732,15706
60066,43612,15509
59971,43494,15316
59875,43380,15122
59784,43272,14930
59694,43170,14739
59598,43062,14540
59499,42947,14331
59405,42836,14127
59316,42729,13935
59226,42625,13748
59141,42522,13567
59064,42423,13402
58994,42328,13250
58927,42238,13110
58868,42161,12988
58825,42106,12898
58799,42074,12843
58788,42059,12819
58791,42065,12829
58811,42098,12876
58844,42153,12949
58885,42215,13034
58930,42280,13131
58984,42354,13251
59043,42434,13386
59105,42513,13525
59169,42593,13671
59237,42674,13821
59301,42749,13960
59355,42817,14080
59403,42879,14185
59443,42932,14274
59470,42969,14341
59481,42986,14381
59478,42987,14398
59465,42976,14393
59440,42950,14355
59403,42904,14284
59361,42844,14193
59316,42776,14088
59259,42693,13966
59190,42599,13823
59115,42503,13669
59033,42406,13508
58940,42302,13337
58839,42188,13152
58738,42074,12961
58640,41963,12765
58541,41849,12563
58441,41732,12355
58346,41619,12150
58257,41507,11948
58169,41388,11748
58083,41269,11552
58001,41158,11363
57921,41055,11180
57838,40952,10996
57754,40850,10814
57672,40752,10637
57587,40658,10461
57497,40561,10284
57408,40461,10110
57324,40367,9948
57248,40279,9793
57174,40191,9638
57102,40106,9490
57037,40028,9358
56978,39954,9237
56922,39879,9120
56870,39810,9008
56824,39749,8906
56778,39689,8808
56731,39628,8706
56686,39570,8609
56645,39519,8521
56605,39469,8434
56561,39416,8343
56516,39370,8257
56478,39332,8179
56441,39292,8099
56402,39248,8015
56363,39202,7930
56321,39151,7846
56272,39093,7755
56219,39032,7653
56168,38975,7549
56118,38921,7449
56067,38865,7347
56017,38806,7238
55972,38749,7128
55930,38694,7020
55885,38634,6910
55837,38569,6797
55793,38509,6686
55749,38453,6578
55698,38393,6465
55643,38331,6348
55593,38272,6238
55549,38215,6144
55512,38165,6075
55492,38137,6047
55500,38147,6082
55542,38207,6199
55623,38324,6415
55761,38514,6749
55965,38787,7212
56233,39134,7799
56553,39542,8489
56912,39996,9256
57297,40483,10075
57688,40982,10909
58072,41467,11727
58444,41931,12514
58794,42368,13259
59108,42764,13940
59380,43105,14541
59613,43396,15061
59812,43642,15503
59971,43840,15857
60091,43988,16120
60178,44098,16309
60235,44172,16437
60259,44208,16501
60256,44204,16504
60233,44173,16458
60193,44118,16372
60134,44038,16244
60061,43936,16081
59981,43822,15896
59892,43699,15694
59791,43567,15473
59679,43425,15234
59562,43279,14985
59440,43131,14728
59313,42973,14459
59183,42810,14182
59054,42651,13905
58924,42495,13631
58792,42334,13356
58661,42172,13081
58534,42018,12810
58408,41864,12541
58279,41705,12270
58155,41545,12001
58040,41389,11739
57925,41234,11482
57805,41080,11224
57683,40929,10972
57568,40791,10734
57462,40664,10512
57362,40544,10302
57277,40439,10116
57208,40361,9966
57154,40305,9851
57115,40264,9766
57098,40240,9716
57103,40239,9706
57125,40257,9735
57161,40291,9801
57214,40349,9906
57280,40430,10049
57354,40526,10214
57435,40629,10394
57526,40744,10593
57628,40868,10808
57729,40996,11024
57824,41121,11230
57915,41241,11426
57999,41353,11611
58071,41449,11777
58132,41528,11918
58186,41595,12037
58232,41658,12134
58266,41707,12203
58289,41738,12242
58301,41754,12257
58303,41757,12249
58291,41743,12215
58268,41715,12156
58241,41679,12082
58209,41634,11994
58165,41574,11884
58114,41503,11759
58061,41430,11629
58005,41352,11491
57943,41260,11339
57876,41163,11178
57809,41071,11015
57739,40977,10851
57664,40876,10678
57590,40775,10497
57517,40677,10316
57438,40578,10131
57348,40471,9935
57249,40360,9739
57151,40251,9548
57054,40144,9356
56960,40036,9161
56868,39933,8974
56783,39836,8801
56702,39742,8635
56623,39647,8471
56554,39559,8315
56496,39481,8170
56441,39407,8030
56384,39334,7895
56329,39271,7772
56282,39219,7669
56242,39171,7578
56205,39122,7487
56169,39072,7398
56134,39026,7309
56092,38976,7214
56044,38917,7113
55997,38854,7014
55949,38791,6920
55898,38723,6816
55844,38654,6703
55795,38591,6591
55748,38531,6480
55697,38468,6365
55646,38406,6252
55603,38352,6148
55566,38299,6049
55530,38239,5945
55497,38179,5844
55468,38137,5760
55438,38112,5693
55410,38089,5634
55393,38069,5586
55385,38065,5566
55386,38086,5584
55407,38129,5650
55465,38208,5789
55570,38345,6029
55725,38546,6386
55932,38813,6857
56195,39148,7438
56509,39547,8122
56857,39989,8880
57223,40451,9677
57599,40921,10485
57975,41390,11291
58341,41841,12071
58683,42263,12805
58996,42651,13485
59278,43007,14106
59522,43321,14649
59725,43582,15108
59895,43794,15489
60032,43963,15795
60129,44087,16025
60191,44164,16183
60229,44207,16280
60247,44221,16325
60242,44205,16318
60219,44167,16267
60182,44109,16181
60129,44033,16062
60058,43937,15909
59974,43822,15726
59885,43694,15523
59789,43557,15305
59680,43411,15070
59558,43258,14822
59431,43106,14572
59301,42953,14318
59164,42792,14050
59026,42630,13774
58894,42475,13505
58765,42322,13243
58633,42161,12979
58499,41995,12715
58369,41837,12455
58238,41681,12198
58105,41519,11933
57974,41355,11664
57846,41196,11400
57718,41042,11142
57591,40889,10887
57473,40741,10643
57368,40608,10422
57273,40490,10220
57189,40383,10032
57117,40292,9869
57061,40225,9742
57020,40178,9650
56995,40147,9586
56985,40133,9554
56990,40138,9564
57009,40155,9608
57039,40186,9675
57083,40237,9768
57138,40307,9890
57199,40385,10028
57264,40464,10173
57335,40548,10329
57411,40638,10496
57483,40729,10660
57548,40816,10812
57606,40903,10955
57657,40986,11090
57703,41055,11206
57744,41106,11295
57775,41142,11358
57792,41160,11396
57791,41158,11407
57780,41143,11396
57762,41121,11369
57734,41089,11320
57693,41040,11242
57643,40978,11142
57591,40910,11026
57533,40835,10891
57460,40748,10736
57378,40653,10568
57292,40555,10397
57199,40450,10218
57099,40335,10024
56998,40215,9823
56901,40098,9621
56806,39978,9415
56710,39853,9200
56618,39729,8986
56535,39612,8781
56456,39499,8586
56375,39392,8399
56296,39294,8221
56225,39204,8054
56159,39114,7894
56090,39021,7735
56023,38933,7581
55961,38858,7440
55902,38793,7305
55846,38730,7170
55797,38671,7042
55761,38621,6933
55731,38574,6834
55701,38525,6741
55677,38484,6658
55657,38454,6589
55636,38426,6523
55616,38398,6458
55601,38376,6397
55587,38359,6339
55571,38340,6280
55556,38318,6217
55545,38305,6160
55537,38299,6107
55524,38288,6048
55509,38271,5986
55493,38253,5928
55473,38230,5870
55446,38197,5804
55417,38159,5739
55389,38125,5683
55361,38095,5634
55338,38069,5589
55333,38053,5564
55351,38062,5582
55394,38105,5656
55467,38193,5804
55593,38346,6055
55784,38582,6440
56041,38900,6962
56357,39292,7604
56723,39748,8346
57129,40255,9169
57559,40791,10044
58000,41336,10942
58439,41881,11838
58867,42415,12708
59270,42918,13531
59634,43374,14286
59958,43779,14965
60244,44134,15564
60488,44437,16078
60695,44689,16509
60867,44893,16865
61003,45050,17151
61104,45164,17368
61174,45240,17523
61218,45291,17626
61241,45319,17685
61242,45316,17699
61227,45284,17674
61204,45236,17625
61172,45177,17555
61123,45103,17458
61063,45018,17340
60998,44930,17212
60926,44840,17073
60846,44744,16919
60763,44644,16755
60686,44549,16599
60617,44461,16450
60551,44373,16298
60491,44285,16144
60437,44205,15998
60385,44131,15859
60331,44054,15722
60277,43976,15590
60223,43901,15463
60163,43825,15332
60093,43745,15192
60022,43663,15047
59952,43582,14900
59878,43496,14746
59801,43403,14581
59726,43308,14416
59652,43214,14258
59573,43116,14103
59497,43021,13953
59431,42938,13822
59374,42868,13710
59323,42804,13612
59283,42750,13533
59261,42718,13484
59255,42714,13472
59261,42732,13489
59282,42770,13532
59326,42830,13608
59389,42911,13717
59466,43003,13847
59557,43101,13989
59661,43209,14146
59771,43328,14317
59881,43452,14491
59986,43572,14659
60087,43687,14819
60181,43796,14968
60260,43889,15093
60325,43961,15192
60382,44016,15273
60427,44059,15333
60455,44082,15364
60468,44086,15369
60471,44077,15357
60462,44053,15327
60439,44014,15278
60407,43967,15211
60371,43918,15133
60330,43866,15042
60280,43801,14932
60221,43724,14804
60159,43643,14671
60095,43560,14533
60028,43470,14379
59959,43380,14216
59891,43298,14058
59827,43218,13903
59763,43138,13746
59701,43061,13593
59642,42991,13449
59589,42922,13309
59537,42845,13169
59483,42765,13032
59429,42691,12902
59373,42616,12766
59310,42534,12623
59248,42453,12483
59188,42374,12347
59122,42292,12208
59051,42207,12069
58981,42124,11933
58908,42042,11796
58831,41958,11655
58755,41872,11512
58685,41786,11374
58616,41702,11241
58545,41616,11110
58472,41530,10981
58404,41450,10856
58336,41374,10732
58266,41291,10601
58190,41198,10461
58110,41099,10316
58022,40994,10164
57922,40877,9994
57817,40751,9808
57714,40628,9622
57609,40507,9438
57497,40381,9249
57381,40252,9059
57273,40135,8883
57178,40033,8729
57097,39945,8605
57039,39884,8535
57016,39870,8549
57042,39915,8664
57123,40029,8892
57264,40222,9244
57463,40493,9720
57710,40825,10296
57989,41198,10948
58296,41605,11657
58619,42029,12396
58939,42447,13130
59245,42843,13834
59532,43210,14498
59791,43542,15109
60016,43830,15649
60205,44073,16112
60365,44274,16507
60499,44444,16840
60600,44575,17105
60666,44662,17301
60706,44716,17437
60726,44745,17524
60724,44749,17559
60707,44731,17547
60682,44697,17502
60650,44653,17434
60613,44600,17342
60571,44538,17225
60524,44467,17093
60470,44389,16949
60407,44298,16792
60336,44193,16625
60262,44085,16451
60181,43977,16271
60094,43862,16084
60010,43749,15893
59933,43646,15710
59853,43546,15529
59765,43440,15343
59674,43332,15158
59587,43231,14984
59505,43134,14815
59423,43037,14640
59345,42944,14465
59276,42862,14301
59213,42786,14145
59152,42709,13990
59099,42637,13838
59053,42578,13702
59013,42529,13576
58978,42483,13455
58954,42444,13348
58941,42419,13266
58932,42404,13204
58923,42388,13152
58920,42377,13117
58925,42376,13100
58934,42382,13093
58945,42391,13099
58963,42410,13125
58986,42436,13171
59013,42467,13231
59042,42505,13305
59078,42553,13392
59123,42610,13487
59166,42661,13585
59203,42703,13684
59246,42746,13788
59290,42790,13888
59326,42827,13970
59350,42855,14034
59363,42873,14080
59359,42875,14101
59335,42853,14090
59292,42812,14050
59235,42757,13993
59166,42691,13917
59083,42612,13814
58992,42525,13686
58900,42434,13547
58808,42336,13400
58713,42229,13243
58624,42118,13076
58543,42012,12907
58464,41911,12737
58386,41809,12562
58313,41709,12384
58246,41619,12211
58181,41534,12040
58115,41445,11864
58051,41358,11694
57992,41282,11535
57935,41210,11382
57877,41137,11231
57818,41064,11083
57763,40993,10943
57709,40919,10808
57654,40845,10676
57603,40777,10550
57555,40711,10427
57501,40638,10295
57437,40556,10155
57371,40473,10011
57305,40392,9868
57235,40306,9724
57159,40214,9577
57085,40126,9435
57013,40043,9297
56933,39958,9154
56852,39874,9007
56779,39796,8865
56714,39726,8728
56651,39655,8595
56591,39584,8464
56537,39516,8340
56485,39450,8222
56430,39379,8105
56377,39308,7990
56332,39247,7883
56294,39198,7782
56257,39150,7678
56224,39105,7574
56196,39070,7483
56169,39040,7409
56141,39006,7342
56119,38977,7290
56113,38966,7267
56127,38979,7280
56164,39016,7335
56233,39095,7460
56346,39238,7684
56510,39451,8020
56728,39732,8467
57003,40080,9028
57328,40488,9692
57687,40937,10427
58066,41405,11202
58459,41886,11997
58858,42373,12798
59241,42843,13581
59593,43279,14317
59907,43676,14996
60182,44028,15607
60412,44322,16134
60597,44554,16575
60740,44734,16939
60843,44868,17230
60906,44957,17448
60934,45007,17600
60941,45027,17698
60932,45019,17745
60903,44982,17741
60855,44923,17693
60791,44849,17611
60715,44761,17500
60628,44659,17359
60536,44546,17196
60444,44431,17019
60351,44315,16832
60257,44195,16637
60170,44078,16436
60089,43970,16238
60007,43864,16044
59920,43754,15851
59835,43648,15661
59763,43554,15481
59696,43465,15307
59624,43369,15129
59549,43270,14950
59476,43180,14782
59404,43093,14616
59330,43000,14444
59254,42901,14267
59181,42800,14092
59109,42698,13916
59034,42592,13735
58959,42484,13554
58886,42383,13381
58815,42285,13214
58744,42191,13052
58677,42106,12908
58619,42035,12786
58566,41974,12683
58521,41923,12598
58490,41890,12542
58474,41876,12520
58467,41877,12522
58472,41889,12546
58489,41918,12593
58520,41965,12663
58560,42020,12749
58607,42078,12845
58663,42143,12953
58726,42219,13073
58785,42294,13190
58836,42359,13299
58886,42420,13405
58934,42478,13509
58972,42523,13596
59003,42555,13662
59029,42579,13712
59043,42593,13744
59040,42589,13751
59026,42572,13731
59010,42552,13691
58989,42526,13634
58957,42484,13557
58912,42424,13461
58858,42354,13352
58792,42277,13232
58719,42197,13097
58650,42116,12955
58589,42037,12813
58530,41958,12672
58471,41875,12526
58414,41794,12381
58362,41722,12242
58310,41655,12100
58257,41587,11954
58207,41523,11811
58161,41465,11680
58114,41409,11553
58066,41348,11423
58020,41287,11294
57977,41232,11171
57934,41177,11051
57892,41121,10927
57852,41066,10805
57815,41018,10692
57777,40968,10585
57741,40915,10480
57714,40869,10384
57692,40828,10299
57667,40788,10217
57637,40748,10132
57609,40714,10048
57583,40682,9966
57556,40646,9884
57525,40604,9805
57493,40566,9733
57460,40533,9664
57424,40496,9589
57385,40453,9506
57346,40410,9421
57305,40365,9331
57262,40314,9235
57219,40261,9135
57180,40210,9040
57139,40158,8947
57092,40097,8847
57041,40030,8739
56991,39967,8635
56944,39908,8534
56899,39847,8428
56854,39785,8318
56813,39733,8215
56775,39687,8122
56739,39641,8034
56713,39602,7960
56703,39583,7918
56710,39592,7921
56743,39635,7985
56816,39726,8136
56934,39877,8393
57097,40089,8758
57305,40360,9227
57563,40691,9792
57866,41074,10439
58193,41485,11138
58533,41910,11862
58881,42344,12595
59226,42773,13318
59554,43181,14011
59855,43554,14658
60129,43894,15254
60372,44197,15791
60576,44458,16257
60745,44676,16647
60889,44856,16968
61006,45001,17225
61088,45106,17416
61140,45170,17541
61170,45203,17613
61178,45210,17642
61164,45189,17628
61136,45146,17574
61103,45090,17491
61065,45021,17382
61012,44936,17245
60944,44837,17089
60868,44735,16924
60783,44628,16746
60690,44511,16549
60594,44389,16339
60501,44267,16128
60405,44142,15913
60307,44012,15695
60212,43883,15481
60122,43762,15276
60035,43642,15076
59945,43520,14878
59856,43403,14686
59770,43293,14498
59682,43186,14306
59591,43074,14103
59500,42958,13891
59411,42843,13680
59320,42727,13474
59225,42607,13268
59134,42490,13072
59051,42386,12898
58975,42295,12745
58905,42213,12609
58847,42146,12498
58804,42101,12422
58776,42078,12378
58764,42074,12361
58771,42094,12378
58795,42135,12427
58828,42186,12495
58873,42242,12577
58930,42306,12680
58994,42374,12802
59061,42445,12935
59130,42517,13072
59199,42594,13216
59264,42673,13362
59321,42741,13498
59370,42797,13617
59413,42844,13721
59445,42880,13809
59461,42901,13870
59467,42908,13899
59463,42906,13904
59447,42891,13884
59413,42854,13835
59365,42799,13758
59309,42735,13661
59244,42659,13543
59167,42568,13402
59085,42468,13250
59001,42365,13088
58914,42255,12915
58822,42136,12728
58732,42018,12533
58648,41906,12338
58562,41792,12141
58472,41675,11940
58383,41563,11744
58299,41460,11556
58213,41355,11368
58124,41245,11177
58036,41137,10990
57952,41036,10811
57869,40937,10632
57783,40838,10450
57698,40743,10276
57615,40653,10116
57531,40559,9955
57443,40462,9788
57363,40369,9622
57292,40279,9465
57222,40186,9310
57150,40089,9152
57079,39996,9000
57008,39905,8858
56934,39810,8717
56856,39713,8574
56781,39621,8435
56707,39535,8304
56635,39453,8174
56569,39377,8047
56509,39310,7929
56454,39245,7814
56401,39176,7694
56350,39103,7571
56302,39036,7453
56249,38971,7334
56188,38898,7210
56127,38823,7087
56070,38757,6974
56015,38696,6864
55955,38632,6752
55898,38571,6640
55847,38519,6531
55801,38469,6425
55757,38415,6317
55721,38363,6217
55691,38320,6130
55663,38282,6050
55639,38248,5981
55630,38228,5939
55643,38236,5948
55678,38279,6019
55745,38364,6166
55857,38505,6413
56025,38718,6780
56249,39004,7267
56526,39352,7857
56848,39755,8537
57203,40200,9289
57574,40667,10082
57950,41140,10886
58326,41611,11685
58690,42069,12459
59033,42498,13190
59347,42892,13863
59629,43246,14468
59876,43554,14997
60081,43806,15438
60247,44006,15794
60380,44166,16078
60480,44284,16291
60549,44360,16434
60593,44399,16515
60618,44412,16546
60622,44398,16530
60601,44353,16469
60561,44289,16373
60507,44214,16249
60440,44123,16102
60360,44015,15930
60270,43894,15733
60174,43773,15521
60072,43648,15294
59960,43507,15047
59841,43354,14783
59718,43200,14517
59591,43046,14250
59463,42889,13983
59335,42734,13720
59214,42589,13468
59099,42448,13222
58986,42308,12973
58878,42171,12726
58780,42041,12488
58685,41909,12252
58585,41773,12016
58488,41643,11790
58395,41525,11579
58304,41411,11377
58212,41302,11185
58127,41207,11015
58057,41128,10878
58008,41062,10771
57977,41006,10691
57959,40971,10647
57949,40962,10641
57948,40975,10665
57963,41011,10717
58000,41074,10804
58057,41165,10924
58127,41265,11064
58205,41363,11219
58291,41469,11394
58381,41583,11584
58473,41696,11775
58567,41808,11960
58660,41922,12142
58743,42028,12317
58816,42116,12475
58883,42189,12612
58944,42253,12730
58994,42302,12823
59029,42331,12886
59052,42347,12923
59066,42356,12943
59066,42352,12936
59054,42330,12897
59030,42294,12830
58997,42249,12747
58952,42191,12648
58894,42116,12527
58829,42030,12388
58761,41946,12241
58690,41860,12084
58612,41764,11910
58531,41660,11728
58450,41553,11551
58365,41443,11376
58270,41329,11198
58171,41220,11017
58073,41119,10832
57980,41018,10646
57895,40918,10463
57819,40824,10287
57751,40737,10117
57686,40648,9948
57623,40560,9783
57565,40478,9626
57507,40398,9478
57445,40318,9331
57382,40243,9186
57325,40175,9051
57273,40111,8927
57221,40046,8806
57168,39976,8684
57115,39907,8566
57062,39839,8452
57010,39767,8334
56956,39694,8212
56902,39626,8096
56845,39562,7983
56784,39496,7866
56721,39429,7745
56662,39367,7629
56603,39303,7513
56546,39233,7393
56498,39167,7277
56459,39111,7174
56423,39058,7076
56383,39007,6979
56344,38961,6887
56309,38924,6810
56280,38894,6749
56259,38874,6710
56256,38874,6705
56280,38909,6753
56334,38986,6872
56427,39111,7079
56573,39297,7393
56774,39554,7827
57026,39877,8370
57326,40252,9004
57665,40674,9718
58032,41129,10485
58411,41597,11273
58790,42064,12057
59163,42521,12824
59521,42958,13559
59850,43359,14239
60142,43718,14851
60399,44038,15393
60617,44312,15861
60790,44532,16249
60923,44698,16556
61026,44821,16791
61102,44907,16961
61150,44955,17067
61172,44967,17114
61175,44955,17116
61163,44927,17082
61129,44879,17008
61078,44807,16898
61020,44722,16764
60951,44626,16607
60865,44515,16425
60767,44393,16229
60666,44269,16027
60560,44140,15811
60448,44002,15580
60335,43862,15349
60228,43728,15123
60125,43597,14899
60023,43467,14673
59923,43340,14449
59829,43220,14233
59735,43100,14021
59638,42976,13803
59542,42853,13583
59450,42735,13371
59356,42617,13166
59257,42496,12960
59160,42379,12759
59074,42277,12576
58995,42183,12408
58928,42096,12253
58877,42029,12121
58843,41983,12019
58822,41952,11941
58813,41935,11889
58821,41941,11871
58846,41969,11886
58886,42013,11926
58938,42072,11991
59004,42147,12089
59082,42235,12218
59168,42333,12369
59262,42437,12539
59363,42553,12727
59464,42675,12927
59561,42791,13124
59654,42899,13312
59744,43007,13494
59824,43110,13666
59890,43196,13814
59943,43269,13937
59991,43335,14042
60030,43394,14125
60056,43432,14177
60070,43448,14204
60079,43451,14212
60082,43443,14196
60075,43419,14155
60060,43383,14094
60036,43342,14020
60001,43292,13927
59959,43231,13814
59914,43162,13691
59867,43093,13567
59817,43020,13437
59759,42940,13295
59695,42854,13146
59626,42764,12990
59544,42664,12824
59449,42555,12646
59351,42443,12462
59257,42333,12277
59163,42223,12092
59070,42108,11902
58983,41992,11714
58901,41882,11536
58820,41773,11361
58744,41663,11186
58678,41564,11026
58620,41477,10888
58559,41398,10756
58490,41325,10622
58422,41259,10491
58356,41200,10363
58295,41141,10236
58241,41082,10115
58196,41027,10004
58152,40974,9898
58103,40913,9791
58050,40847,9685
57999,40783,9586
57951,40718,9489
57902,40651,9387
57855,40584,9284
57811,40524,9182
57770,40466,9075
57727,40405,8961
57689,40345,8847
57659,40295,8743
57631,40250,8648
57597,40204,8552
57563,40158,8461
57533,40121,8383
57505,40091,8318
57477,40064,8267
57462,40055,8243
57472,40076,8265
57510,40133,8346
57583,40235,8505
57703,40398,8765
57877,40629,9143
58098,40918,9631
58364,41260,10212
58672,41653,10875
59013,42087,11599
59373,42539,12357
59738,42991,13120
60099,43434,13871
60448,43859,14596
60770,44248,15268
61060,44593,15873
61318,44896,16415
61540,45157,16893
61726,45375,17302
61878,45552,17640
61998,45692,17915
62087,45798,18128
62144,45869,18277
62174,45910,18369
62188,45932,18422
62186,45936,18440
62165,45916,18423
62127,45874,18371
62081,45819,18289
62027,45749,18176
61962,45660,18036
61889,45560,17884
61816,45462,17730
61742,45359,17571
61663,45247,17399
61582,45132,17218
61499,45022,17041
61413,44915,16867
61326,44810,16691
61247,44711,16517
61179,44623,16356
61112,44541,16202
61041,44456,16050
60972,44368,15901
60904,44283,15756
60835,44197,15609
60767,44109,15453
60703,44021,15294
60644,43937,15139
60585,43856,14992
60524,43775,14849
60469,43706,14717
60421,43652,14600
60377,43604,14493
60336,43559,14397
60302,43524,14321
60278,43502,14269
60262,43492,14237
60256,43493,14229
60265,43509,14247
60287,43539,14289
60321,43576,14350
60368,43622,14425
60429,43683,14521
60499,43756,14635
60572,43831,14756
60644,43906,14878
60714,43984,15008
60778,44064,15143
60831,44135,15268
60878,44198,15377
60922,44258,15478
60962,44313,15569
60991,44350,15635
61010,44369,15673
61023,44378,15693
61027,44376,15695
61021,44364,15671
61007,44345,15628
60988,44320,15576
60961,44284,15512
60923,44231,15427
60874,44168,15325
60818,44099,15210
60752,44019,15079
60677,43925,14932
60604,43826,14779
60535,43727,14628
60465,43629,14472
60394,43530,14304
60325,43432,14130
60258,43339,13958
60189,43247,13786
60117,43153,13614
60046,43064,13449
59980,42985,13294
59917,42909,13142
59851,42832,12992
59787,42758,12851
59728,42691,12719
59670,42624,12590
59613,42557,12464
59562,42493,12346
59512,42429,12232
59459,42360,12111
59403,42288,11985
59351,42217,11863
59300,42149,11745
59248,42080,11625
59204,42016,11506
59164,41956,11396
59121,41896,11293
59074,41833,11188
59027,41769,11086
58987,41716,10997
58954,41673,10918
58917,41630,10833
58877,41587,10739
58837,41548,10649
58798,41510,10566
58754,41463,10480
58710,41409,10392
58667,41357,10305
58621,41304,10217
58571,41245,10125
58528,41190,10037
58497,41147,9960
58473,41110,9892
58459,41079,9840
58462,41071,9818
58489,41095,9841
58544,41160,9927
58634,41270,10089
58769,41439,10349
58957,41673,10722
59192,41970,11198
59470,42319,11766
59780,42714,12415
60113,43145,13124
60461,43593,13863
60813,44040,14608
61160,44474,15341
61492,44887,16044
61799,45267,16703
62076,45601,17301
62326,45897,17832
62547,46160,18297
62730,46382,18692
62875,46562,19022
62990,46708,19297
63081,46823,19521
63145,46904,19691
63189,46956,19815
63223,46990,19901
63248,47006,19943
63256,47001,19943
63250,46981,19912
63233,46948,19862
63203,46900,19790
63160,46836,19696
63110,46764,19586
63057,46690,19467
62998,46608,19339
62928,46512,19199
62855,46414,19056
62790,46327,18921
62730,46250,18795
62675,46174,18670
62625,46103,18548
62578,46042,18432
62532,45983,18318
62482,45918,18199
62426,45851,18075
62364,45785,17950
62293,45716,17818
62214,45636,17671
62136,45548,17514
62061,45457,17355
61988,45360,17189
61915,45256,17015
61849,45152,16848
61788,45053,16697
61726,44957,16557
61665,44870,16428
61615,44804,16323
61577,44755,16244
61550,44718,16188
61532,44695,16154
61526,44692,16144
61527,44706,16157
61536,44732,16186
61558,44768,16230
61598,44821,16297
61650,44888,16385
61707,44960,16483
61768,45031,16581
61830,45101,16680
61884,45167,16778
61926,45221,16865
61961,45263,16942
61993,45304,17015
62020,45343,17084
62037,45370,17139
62047,45383,17175
62052,45389,17196
62053,45388,17197
62049,45373,17173
62041,45350,17130
62028,45322,17075
62002,45283,17006
61964,45230,16923
61919,45169,16827
61872,45105,16720
61819,45034,16603
61755,44950,16471
61686,44859,16329
61622,44770,16186
61556,44679,16038
61483,44585,15880
61409,44494,15716
61335,44408,15555
61261,44321,15389
61187,44229,15216
61120,44140,15049
61056,44059,14893
60987,43973,14737
60913,43877,14572
60839,43781,14406
60770,43689,14243
60702,43596,14080
60633,43504,13916
60565,43421,13758
60497,43345,13608
60424,43264,13460
60352,43181,13315
60289,43104,13181
60230,43030,13055
60172,42957,12935
60116,42887,12820
60068,42826,12714
60026,42770,12612
59984,42713,12509
59941,42657,12408
59901,42608,12319
59863,42566,12241
59825,42521,12159
59787,42472,12070
59751,42430,11986
59714,42393,11903
59674,42350,11812
59631,42302,11715
59585,42251,11616
59536,42195,11510
59483,42132,11398
59430,42072,11288
59381,42016,11183
59334,41958,11080
59291,41898,10980
59258,41845,10892
59235,41810,10827
59220,41790,10781
59216,41784,10755
59235,41799,10770
59279,41849,10847
59354,41938,10995
59466,42076,11225
59624,42278,11552
59833,42547,11984
60088,42874,12512
60379,43245,13115
60700,43649,13781
61043,44075,14492
61388,44501,15218
61720,44914,15931
62037,45313,16619
62334,45689,17266
62603,46028,17853
62840,46326,18377
63050,46583,18838
63230,46798,19234
63379,46969,19564
63496,47102,19831
63588,47211,20046
63657,47295,20212
63701,47349,20327
63726,47378,20397
63738,47389,20434
63734,47380,20437
63713,47351,20405
63682,47305,20344
63646,47252,20266
63603,47188,20170
63546,47110,20053
63481,47026,19927
63417,46947,19803
63353,46870,19677
63283,46785,19541
63215,46700,19400
63154,46622,19267
63099,46549,19139
63046,46480,19009
62996,46421,18885
62950,46370,18770
62902,46314,18655
62851,46248,18535
62798,46176,18415
62742,46105,18296
62683,46031,18172
62618,45950,18039
62551,45867,17898
62484,45784,17752
62414,45697,17602
62345,45610,17452
62284,45529,17312
62228,45453,17187
62175,45377,17073
62129,45304,16968
62095,45245,16877
62071,45204,16805
62051,45172,16746
62035,45148,16703
62029,45144,16687
62034,45161,16699
62047,45187,16727
62070,45219,16767
62103,45261,16826
62143,45311,16903
62185,45362,16990
62229,45413,17081
62275,45472,17176
62317,45534,17268
62350,45585,17347
62378,45625,17414
62402,45661,17471
62418,45686,17511
62422,45693,17529
62418,45690,17532
62412,45682,17525
62399,45664,17504
62378,45634,17461
62351,45597,17403
62320,45554,17335
62279,45501,17250
62230,45436,17148
62179,45367,17036
62132,45300,16923
62082,45230,16806
62021,45150,16673
61955,45061,16529
61889,44974,16382
61818,44885,16224
61742,44792,16054
61666,44704,15885
61591,44621,15721
61512,44532,15553
61432,44434,15381
61353,44336,15215
61277,44243,15059
61199,44147,14902
61125,44046,14742
61056,43947,14590
60990,43853,14441
60924,43763,14290
60860,43679,14140
60799,43604,13993
60736,43530,13847
60668,43453,13700
60597,43375,13560
60532,43302,13432
60471,43236,13313
60409,43168,13193
60350,43100,13074
60300,43039,12967
60260,42986,12871
60218,42929,12771
60174,42870,12667
60135,42819,12570
60100,42774,12481
60065,42726,12392
60028,42675,12302
59990,42625,12216
59948,42573,12128
59900,42511,12034
59851,42447,11940
59807,42389,11852
59767,42332,11762
59726,42272,11666
59685,42215,11569
59648,42164,11480
59609,42116,11392
59566,42067,11301
59520,42023,11212
59478,41984,11128
59437,41941,11044
59400,41895,10959
59374,41858,10888
59360,41841,10840
59358,41841,10822
59373,41861,10842
59418,41920,10923
59506,42033,11090
59641,42202,11353
59822,42429,11720
60047,42713,12189
60311,43050,12748
60607,43426,13376
60927,43830,14055
61267,44258,14770
61615,44694,15497
61949,45114,16206
62263,45510,16881
62555,45875,17510
62816,46201,18080
63041,46481,18580
63232,46718,19011
63392,46917,19375
63522,47072,19670
63622,47186,19896
63699,47271,20070
63757,47333,20202
63792,47368,20290
63806,47375,20331
63804,47362,20333
63788,47339,20306
63757,47301,20252
63712,47244,20168
63657,47174,20061
63596,47097,19942
63529,47013,19811
63456,46921,19668
63383,46827,19522
63313,46739,19381
63244,46656,19242
63172,46573,19095
63098,46495,18944
63028,46421,18795
62957,46341,18642
62885,46251,18485
62819,46159,18335
62758,46069,18188
62692,45975,18038
62619,45873,17881
62543,45767,17717
62466,45662,17547
62380,45551,17371
62290,45438,17193
62207,45335,17025
62130,45244,16869
62058,45158,16719
61995,45080,16577
61942,45019,16453
61896,44975,16350
61857,44940,16264
61828,44916,16201
61816,44908,16171
61816,44921,16169
61825,44940,16185
61844,44963,16212
61876,45000,16257
61918,45048,16315
61961,45094,16378
62009,45142,16453
62061,45195,16542
62108,45248,16636
62147,45295,16727
62182,45339,16814
62216,45379,16897
62242,45411,16969
62258,45430,17018
62267,45444,17046
62271,45453,17056
62265,45451,17047
62248,45429,17013
62223,45396,16962
62193,45359,16904
62154,45311,16834
62107,45246,16745
62054,45172,16646
61997,45097,16538
61931,45017,16414
61858,44928,16271
61779,44835,16120
61694,44741,15966
61601,44639,15804
61506,44528,15628
61415,44418,15446
61328,44309,15264
61240,44198,15078
61151,44083,14889
61060,43967,14699
60967,43846,14507
60868,43720,14306
60768,43595,14099
60673,43477,13897
60582,43364,13698
60492,43253,13501
60399,43147,13307
60307,43048,13122
60216,42952,12945
60125,42854,12771
60036,42757,12605
59952,42664,12447
59874,42570,12293
59800,42473,12137
59730,42377,11983
59666,42287,11838
59599,42199,11696
59525,42108,11550
59451,42020,11410
59381,41938,11278
59309,41855,11146
59232,41769,11009
59159,41690,10873
59096,41623,10747
59034,41561,10629
58970,41496,10513
58913,41434,10404
58862,41376,10304
58812,41315,10202
58763,41246,10090
58716,41180,9978
58673,41120,9872
58627,41060,9764
58575,40991,9646
58518,40922,9526
58457,40854,9409
58391,40774,9288
58323,40685,9160
58259,40598,9036
58198,40516,8920
58139,40440,8808
58085,40372,8698
58039,40317,8597
58002,40274,8513
57972,40243,8454
57955,40238,8439
57968,40275,8490
58020,40363,8625
58120,40506,8858
58276,40712,9201
58489,40986,9662
58752,41319,10230
59050,41697,10883
59374,42108,11594
59720,42545,12341
60073,42994,13101
60419,43435,13846
60751,43859,14561
61065,44261,15238
61353,44631,15862
61608,44953,16419
61831,45230,16906
62020,45466,17322
62173,45654,17659
62288,45794,17914
62372,45890,18097
62429,45952,18221
62457,45979,18289
62453,45971,18301
62428,45938,18271
62388,45889,18208
62331,45817,18107
62255,45718,17966
62165,45601,17799
62067,45474,17615
61962,45336,17408
61848,45191,17179
61730,45043,16938
61609,44893,16691
61483,44737,16435
61356,44580,16173
61236,44426,15912
61120,44274,15657
61001,44122,15405
60874,43972,15156
60748,43831,14914
60624,43691,14674
60499,43546,14430
60375,43398,14186
60259,43254,13951
60145,43114,13724
60030,42972,13495
59924,42833,13271
59831,42710,13064
59742,42599,12877
59656,42494,12699
59580,42402,12538
59516,42330,12404
59464,42273,12295
59422,42224,12203
59389,42187,12131
59372,42170,12093
59371,42171,12086
59380,42186,12104
59402,42218,12153
59439,42267,12234
59485,42328,12337
59536,42397,12453
59591,42475,12586
59653,42566,12737
59720,42660,12892
59787,42745,13035
59855,42826,13170
59919,42905,13299
59972,42971,13406
60011,43018,13484
60038,43053,13541
60054,43077,13583
60057,43084,13603
60048,43072,13597
60029,43049,13569
59999,43011,13517
59952,42954,13435
59890,42882,13329
59825,42801,13209
59754,42713,13073
59673,42612,12915
59584,42500,12741
59492,42388,12561
59398,42276,12374
59300,42157,12177
59201,42031,11974
59105,41906,11775
59007,41780,11572
58902,41645,11357
58799,41509,11136
58703,41384,10920
58607,41264,10707
58503,41142,10491
58398,41021,10276
58295,40908,10075
58194,40799,9884
58091,40688,9694
57992,40574,9505
57902,40466,9327
57819,40362,9153
57736,40257,8978
57654,40158,8809
57577,40068,8654
57500,39979,8504
57421,39887,8353
57348,39801,8205
57284,39721,8061
57221,39640,7914
57155,39556,7768
57091,39477,7629
57029,39405,7501
56967,39331,7375
56904,39253,7241
56842,39175,7106
56781,39100,6975
56713,39023,6842
56640,38940,6702
56570,38857,6562
56504,38777,6426
56439,38696,6289
56372,38617,6153
56308,38543,6021
56250,38477,5893
56191,38408,5765
56133,38338,5640
56082,38274,5527
56034,38218,5428
55987,38167,5343
55955,38134,5288
55953,38136,5286
55984,38177,5354
56051,38263,5505
56168,38412,5761
56345,38640,6140
56579,38943,6647
56862,39307,7268
57190,39727,7986
57558,40191,8779
57944,40676,9612
58330,41156,10448
58706,41625,11263
59070,42080,12044
59410,42507,12770
59722,42894,13427
60006,43244,14016
60259,43553,14535
60473,43809,14972
60644,44010,15322
60775,44163,15592
60872,44275,15792
60932,44344,15921
60957,44370,15981
60956,44363,15985
60930,44332,15942
60875,44272,15851
60797,44185,15712
60709,44077,15537
60613,43954,15334
60500,43813,15102
60375,43654,14843
60242,43486,14570
60102,43315,14290
59954,43140,14000
59802,42960,13703
59650,42784,13409
59502,42614,13120
59358,42444,12830
59220,42276,12536
59093,42115,12243
58973,41957,11950
58850,41796,11654
58726,41635,11360
58607,41478,11074
58489,41322,10795
58368,41161,10519
58248,41002,10253
58138,40858,10006
58034,40726,9775
57932,40597,9553
57835,40474,9350
57748,40370,9179
57674,40289,9043
57613,40228,8941
57570,40188,8873
57550,40176,8845
57550,40187,8855
57569,40213,8894
57607,40256,8965
57661,40317,9068
57723,40393,9198
57792,40481,9351
57871,40583,9527
57961,40700,9724
58055,40825,9929
58147,40947,10132
58242,41063,10329
58334,41175,10515
58412,41273,10679
58475,41352,10815
58530,41419,10927
58578,41474,11019
58609,41510,11079
58622,41522,11103
58622,41515,11103
58610,41495,11082
58583,41462,11036
58545,41418,10963
58502,41366,10870
58449,41305,10762
58384,41231,10635
58313,41146,10490
58242,41056,10337
58168,40961,10175
58084,40852,9995
57991,40733,9797
57895,40612,9590
57793,40485,9381
57685,40351,9168
57579,40221,8958
57483,40104,8758
57395,39992,8560
57307,39877,8359
57218,39762,8158
57132,39655,7967
57047,39553,7786
56962,39451,7608
56880,39353,7436
56805,39265,7275
56734,39182,7118
56664,39096,6958
56598,39010,6804
56537,38930,6663
56477,38851,6527
56420,38770,6387
56368,38695,6252
56320,38628,6124
56267,38557,5992
56207,38479,5855
56145,38405,5722
56083,38335,5596
56019,38262,5467
55954,38187,5338
55893,38118,5220
55832,38055,5107
55767,37991,4990
55703,37927,4874
55650,37870,4765
55609,37819,4659
55568,37767,4551
55525,37714,4445
55488,37667,4351
55457,37628,4275
55434,37602,4222
55428,37603,4209
55451,37643,4266
55514,37734,4409
55626,37880,4652
55795,38091,5010
56029,38380,5502
56322,38745,6125
56667,39170,6852
57057,39644,7658
57476,40156,8521
57900,40680,9406
58314,41189,10276
58717,41677,11113
59103,42144,11908
59459,42581,12645
59775,42969,13309
60052,43308,13892
60288,43598,14393
60481,43833,14809
60629,44014,15138
60742,44154,15391
60824,44253,15571
60872,44307,15675
60888,44320,15712
60878,44301,15695
60844,44256,15633
60783,44182,15528
60703,44085,15384
60613,43974,15211
60515,43855,15016
60408,43724,14803
60293,43579,14574
60175,43432,14335
60056,43286,14089
59935,43130,13831
59811,42968,13562
59685,42809,13295
59560,42659,13036
59438,42513,12781
59319,42370,12527
59204,42230,12276
59090,42086,12029
58973,41936,11782
58855,41789,11534
58737,41647,11290
58620,41506,11045
58504,41362,10796
58399,41223,10553
58303,41095,10331
58209,40975,10131
58117,40862,9945
58037,40765,9779
57976,40689,9643
57931,40633,9535
57896,40590,9448
57873,40564,9391
57866,40560,9374
57875,40575,9392
57897,40606,9432
57934,40653,9497
57988,40721,9596
58051,40801,9723
58119,40889,9866
58189,40985,10024
58262,41091,10195
58337,41199,10368
58408,41299,10531
58474,41388,10683
58540,41472,10827
58604,41544,10955
58663,41602,11061
58716,41651,11150
58760,41691,11221
58787,41713,11265
58798,41718,11284
58799,41716,11283
58789,41707,11259
58765,41683,11207
58730,41645,11131
58687,41598,11039
58637,41543,10936
58576,41475,10816
58506,41397,10678
58432,41312,10528
58350,41212,10366
58254,41095,10187
58151,40971,9995
58050,40850,9800
57950,40725,9602
57851,40594,9398
57757,40464,9194
57668,40342,8995
57576,40224,8800
57481,40107,8602
57386,39995,8407
57297,39894,8225
57210,39797,8050
57121,39697,7876
57035,39598,7705
56957,39503,7544
56886,39413,7391
56816,39323,7239
56746,39234,7087
56681,39151,6944
56618,39073,6805
56554,38994,6664
56494,38919,6525
56441,38853,6392
56387,38788,6259
56325,38717,6119
56262,38646,5982
56204,38578,5853
56149,38510,5728
56090,38435,5596
56033,38361,5464
55983,38292,5340
55936,38223,5220
55888,38152,5099
55842,38087,4984
55798,38031,4879
55754,37978,4780
55709,37927,4685
55669,37883,4602
55638,37850,4539
55612,37825,4495
55598,37814,4482
55611,37832,4526
55664,37899,4648
55763,38025,4862
55917,38221,5194
56137,38499,5662
56420,38856,6260
56755,39275,6965
57136,39747,7756
57553,40263,8613
57983,40797,9507
58408,41322,10395
58821,41828,11253
59216,42315,12072
59583,42771,12836
59916,43178,13525
60209,43532,14131
60461,43840,14655
60672,44100,15094
60840,44306,15446
60970,44456,15718
61069,44559,15923
61133,44619,16064
61163,44642,16141
61166,44637,16163
61148,44614,16142
61107,44567,16080
61047,44496,15980
60977,44408,15852
60901,44312,15707
60818,44205,15543
60727,44086,15356
60631,43961,15160
60535,43835,14959
60437,43704,14747
60338,43571,14527
60243,43443,14314
60151,43321,14111
60056,43203,13910
59963,43089,13713
59874,42984,13526
59788,42881,13344
59697,42773,13157
59605,42663,12966
59521,42557,12779
59440,42451,12593
59356,42341,12398
59270,42229,12198
59180,42121,12003
59082,42014,11815
58983,41904,11632
58892,41800,11461
58817,41711,11310
58757,41639,11178
58710,41582,11062
58677,41539,10974
58659,41516,10921
58656,41512,10898
58666,41519,10897
58688,41537,10923
58721,41574,10984
58764,41628,11072
58813,41692,11173
58869,41761,11285
58932,41837,11411
58997,41914,11543
59060,41985,11671
59119,42055,11799
59178,42129,11930
59235,42201,12050
59283,42259,12147
59320,42305,12224
59349,42342,12285
59365,42364,12325
59369,42373,12341
59365,42375,12338
59354,42370,12320
59336,42350,12283
59311,42312,12225
59280,42264,12152
59240,42209,12067
59188,42147,11960
59127,42076,11832
59064,42001,11695
58999,41921,11556
58932,41834,11409
58865,41745,11253
58796,41656,11096
58717,41561,10935
58629,41455,10766
58537,41345,10590
58450,41240,10415
58367,41136,10241
58282,41026,10063
58196,40914,9882
58111,40808,9701
58023,40704,9522
57931,40599,9344
57842,40499,9173
57763,40405,9012
57689,40312,8857
57618,40219,8704
57550,40133,8555
57484,40054,8415
57417,39977,8280
57347,39898,8145
57283,39819,8010
57228,39749,7880
57174,39681,7754
57115,39607,7622
57055,39530,7487
56995,39454,7351
56930,39374,7211
56863,39290,7071
56803,39213,6935
56747,39147,6808
56690,39084,6691
56631,39020,6579
56577,38960,6475
56534,38906,6382
56497,38857,6295
56469,38815,6218
56453,38788,6161
56450,38780,6138
56466,38796,6159
56511,38847,6244
56599,38952,6419
56737,39123,6702
56929,39363,7100
57176,39673,7614
57473,40050,8237
57806,40480,8945
58162,40937,9707
58534,41410,10496
58916,41891,11296
59295,42363,12084
59656,42811,12837
59992,43227,13544
60300,43609,14199
60575,43947,14784
60812,44234,15289
61015,44477,15717
61183,44678,16076
61313,44833,16363
61409,44946,16581
61480,45023,16739
61529,45071,16843
61552,45088,16896
61553,45075,16902
61537,45043,16869
61506,45001,16809
61462,44944,16724
61409,44873,16615
61350,44795,16487
61288,44713,16350
61219,44625,16204
61143,44529,16046
61063,44431,15882
60985,44334,15721
60909,44234,15563
60834,44134,15407
60763,44043,15256
60696,43959,15109
60631,43873,14958
60570,43789,14804
60511,43713,14655
60450,43642,14509
60381,43562,14359
60306,43471,14204
60230,43379,14046
60150,43288,13885
60066,43193,13717
59985,43094,13545
59912,43000,13382
59845,42912,13231
59783,42827,13089
59729,42752,12959
59687,42695,12855
59651,42653,12775
59621,42620,12715
59604,42595,12677
59601,42589,12664
59608,42601,12673
59619,42622,12696
59639,42651,12737
59674,42695,12802
59719,42747,12886
59768,42798,12976
59822,42856,13072
59885,42926,13179
59948,43000,13288
60006,43074,13393
60061,43148,13496
60115,43215,13596
60161,43266,13680
60198,43304,13744
60225,43337,13790
60242,43363,13820
60248,43374,13830
60238,43364,13812
60215,43339,13776
60182,43310,13729
60141,43272,13665
60099,43220,13580
60058,43163,13485
60012,43106,13387
59956,43041,13276
59893,42964,13147
59827,42878,13008
59756,42783,12863
59679,42680,12710
59599,42574,12552
59519,42475,12394
59437,42379,12233
59354,42276,12065
59273,42171,11895
59198,42075,11734
59122,41983,11579
59042,41885,11416
58962,41785,11250
58889,41693,11093
58817,41602,10943
58741,41508,10792
58667,41415,10643
58602,41333,10505
58542,41256,10373
58479,41176,10239
58417,41096,10103
58358,41024,9970
58296,40958,9836
58232,40891,9699
58171,40826,9565
58115,40760,9437
58059,40690,9312
58002,40614,9187
57949,40543,9067
57900,40479,8954
57847,40416,8839
57793,40352,8720
57740,40293,8604
57688,40236,8493
57633,40175,8380
57576,40108,8264
57524,40045,8156
57480,39992,8064
57443,39944,7980
57416,39902,7905
57401,39871,7847
57395,39858,7817
57403,39865,7825
57437,39902,7888
57506,39984,8025
57615,40126,8254
57768,40326,8583
57969,40587,9014
58222,40912,9547
58519,41292,10171
58848,41706,10858
59201,42144,11586
59567,42600,12343
59930,43056,13104
60275,43491,13838
60596,43892,14528
60891,44263,15168
61155,44597,15745
61383,44885,16250
61578,45130,16683
61742,45335,17047
61876,45495,17344
61980,45609,17574
62060,45689,17746
62118,45744,17869
62149,45768,17945
62151,45761,17972
62133,45733,17962
62102,45693,17926
62058,45638,17859
62000,45565,17758
61939,45482,17634
61880,45396,17496
61816,45308,17346
61749,45217,17192
61685,45132,17045
61627,45060,16910
61571,44994,16781
61513,44924,16650
61456,44856,16522
61398,44793,16405
61340,44725,16290
61283,44650,16170
61231,44577,16052
61181,44507,15936
61126,44433,15809
61063,44353,15669
60998,44272,15525
60932,44191,15378
60862,44103,15223
60789,44010,15064
60721,43924,14910
60660,43844,14767
60602,43763,14630
60548,43687,14507
60501,43626,14406
60463,43579,14324
60432,43540,14255
60410,43512,14204
60402,43505,14180
60405,43512,14181
60413,43528,14200
60431,43553,14240
60463,43596,14301
60508,43653,14376
60560,43717,14461
60612,43787,14556
60664,43861,14661
60716,43933,14768
60768,43997,14871
60823,44060,14973
60874,44119,15068
60913,44164,15141
60941,44196,15192
60962,44222,15233
60978,44242,15266
60985,44250,15282
60981,44243,15277
60974,44231,15260
60966,44217,15235
60950,44194,15193
60926,44160,15130
60893,44120,15054
60854,44077,14971
60808,44026,14878
60757,43965,14772
60703,43898,14655
60648,43825,14534
60584,43743,14405
60516,43655,14266
60455,43572,14128
60397,43497,13992
60337,43422,13851
60276,43342,13703
60219,43261,13560
60163,43181,13420
60102,43096,13278
60039,43008,13137
59975,42929,13004
59910,42858,12876
59841,42784,12747
59770,42708,12619
59704,42639,12501
59641,42575,12386
59580,42507,12268
59521,42436,12153
59470,42370,12045
59426,42310,11936
59385,42249,11823
59344,42188,11711
59304,42132,11606
59260,42075,11502
59211,42011,11395
59163,41945,11286
59118,41884,11180
59069,41821,11074
59015,41747,10961
58960,41668,10847
58904,41596,10736
58848,41528,10624
58792,41457,10511
58738,41392,10399
58688,41337,10294
58641,41282,10195
58599,41224,10097
58563,41173,10010
58533,41133,9940
58510,41101,9886
58500,41081,9851
58510,41090,9855
58547,41135,9913
58617,41220,10037
58727,41357,10248
58883,41554,10561
59084,41810,10974
59324,42112,11471
59597,42456,12040
59896,42840,12669
60211,43246,13338
60527,43656,14023
60843,44063,14710
61156,44464,15383
61454,44842,16024
61725,45182,16611
61967,45483,17138
62183,45747,17607
62371,45971,18018
62527,46153,18368
62657,46301,18655
62763,46418,18886
62841,46503,19065
62892,46560,19189
62923,46596,19266
62937,46615,19310
62932,46614,19325
62909,46593,19305
62878,46558,19260
62844,46511,19196
62803,46453,19111
62755,46386,19006
62703,46318,18892
62651,46251,18777
62598,46181,18657
62540,46106,18533
62481,46033,18417
62430,45972,18313
62386,45914,18212
62345,45852,18105
62309,45791,17996
62274,45733,17884
62233,45674,17764
62183,45610,17638
62129,45546,17514
62073,45482,17390
62013,45409,17257
61947,45328,17114
61882,45248,16970
61819,45167,16825
61752,45080,16677
61686,44995,16536
61623,44922,16411
61564,44858,16298
61507,44798,16196
61462,44748,16111
61434,44713,16050
61421,44693,16012
61418,44682,15992
61427,44683,15996
61450,44702,16025
61482,44739,16073
61520,44786,16135
61565,44842,16216
61617,44907,16318
61666,44974,16425
61712,45037,16525
61760,45095,16618
61813,45153,16709
61863,45205,16794
61904,45244,16865
61939,45273,16922
61972,45297,16972
61994,45308,17009
62002,45302,17025
61998,45290,17024
61984,45279,17013
61962,45261,16980
61930,45226,16922
61894,45183,16849
61854,45141,16771
61809,45092,16684
61762,45038,16587
61719,44985,16485
61683,44930,16379
61644,44871,16267
61597,44809,16149
61545,44751,16031
61490,44693,15913
61430,44627,15787
61366,44552,15654
61305,44476,15520
61245,44395,15388
61179,44308,15253
61107,44220,15118
61034,44133,14988
60961,44044,14858
60885,43950,14719
60812,43857,14576
60751,43774,14435
60694,43696,14296
60635,43617,14152
60576,43537,14009
60521,43466,13875
60467,43399,13749
60409,43331,13622
60347,43260,13497
60288,43190,13378
60230,43120,13260
60168,43044,13138
60108,42966,13015
60055,42893,12902
60005,42827,12791
59953,42758,12673
59899,42689,12556
59848,42625,12446
59796,42562,12335
59744,42496,12220
59694,42434,12110
59647,42378,12009
59599,42323,11910
59548,42265,11809
59501,42212,11712
59460,42167,11622
59422,42119,11536
59387,42069,11454
59357,42027,11378
59332,41995,11314
59310,41969,11267
59299,41958,11246
59312,41977,11274
59352,42032,11370
59423,42127,11538
59531,42273,11788
59687,42483,12131
59888,42754,12569
60123,43065,13082
60387,43408,13652
60681,43784,14271
60992,44179,14922
61300,44566,15575
61598,44932,16211
61881,45278,16818
62144,45600,17383
62375,45887,17896
62575,46135,18350
62749,46347,18746
62896,46520,19078
63012,46650,19342
63097,46746,19549
63159,46817,19707
63197,46858,19816
63210,46871,19876
63205,46864,19899
63187,46842,19891
63155,46800,19853
63112,46741,19785
63061,46675,19693
63002,46604,19583
62933,46524,19456
62855,46436,19309
62775,46343,19150
62699,46252,18993
62625,46161,18833
62547,46063,18669
62470,45967,18510
62395,45877,18362
62318,45783,18209
62240,45687,18051
62167,45592,17894
62094,45493,17736
62012,45386,17567
61923,45273,17386
61828,45157,17197
61726,45036,17000
61615,44907,16791
61501,44775,16572
61392,44651,16359
61290,44532,16158
61193,44413,15963
61107,44299,15783
61034,44203,15634
60972,44126,15514
60917,44058,15409
60876,44002,15323
60854,43972,15271
60848,43963,15248
60849,43960,15242
60854,43965,15256
60871,43986,15297
60895,44022,15356
60921,44064,15421
60952,44109,15490
60988,44159,15568
61024,44206,15648
61055,44248,15724
61083,44285,15798
61105,44318,15867
61114,44341,15921
61111,44353,15956
61106,44357,15974
61101,44353,15975
61087,44330,15955
61060,44287,15908
61025,44230,15838
60978,44167,15752
60915,44095,15648
60839,44009,15524
60756,43914,15390
60669,43818,15248
60577,43716,15089
60480,43603,14908
60385,43488,14717
60294,43375,14525
60202,43258,14328
60106,43142,14128
60015,43030,13936
59930,42924,13752
59845,42816,13569
59762,42709,13388
59684,42608,13217
59604,42514,13058
59522,42417,12899
59439,42321,12740
59360,42229,12582
59284,42142,12424
59208,42053,12265
59136,41966,12109
59071,41884,11959
59006,41805,11809
58940,41723,11655
58881,41641,11504
58825,41563,11362
58767,41484,11222
58704,41399,11078
58639,41311,10935
58575,41229,10800
58509,41150,10668
58437,41070,10534
58366,40991,10398
58301,40918,10271
58237,40848,10150
58174,40775,10027
58114,40704,9903
58056,40636,9780
57995,40564,9656
57932,40488,9529
57871,40417,9404
57816,40356,9280
57766,40298,9159
57714,40235,9036
57665,40173,8915
57620,40115,8805
57574,40055,8700
57524,39992,8597
57475,39935,8503
57432,39884,8421
57398,39838,8349
57376,39804,8300
57372,39795,8289
57394,39824,8332
57447,39894,8443
57538,40014,8639
57671,40198,8941
57849,40446,9351
58068,40746,9856
58326,41088,10439
58617,41467,11090
58931,41869,11789
59255,42280,12505
59579,42690,13216
59895,43090,13907
60194,43466,14561
60466,43805,15162
60712,44107,15704
60933,44374,16184
61120,44602,16597
61266,44785,16934
61376,44924,17193
61457,45025,17384
61505,45086,17510
61520,45105,17572
61509,45090,17580
61478,45049,17544
61430,44982,17466
61365,44891,17349
61290,44790,17205
61208,44688,17043
61115,44577,16866
61014,44457,16670
60915,44334,16462
60815,44211,16247
60711,44082,16023
60607,43949,15789
60507,43818,15555
60411,43689,15326
60316,43560,15099
60220,43430,14872
60126,43307,14650
60032,43190,14435
59932,43070,14219
59829,42945,13998
59730,42822,13783
59634,42703,13574
59536,42583,13364
59438,42459,13153
59346,42340,12952
59258,42231,12765
59168,42128,12588
59085,42035,12427
59018,41963,12296
58966,41909,12191
58928,41869,12105
58905,41844,12042
58898,41838,12010
58905,41846,12007
58925,41869,12032
58960,41912,12088
59008,41975,12173
59064,42046,12276
59121,42118,12390
59184,42197,12523
59256,42287,12673
59329,42379,12831
59401,42466,12984
59475,42553,13132
59547,42637,13275
59610,42710,13402
59663,42770,13503
59707,42820,13582
59739,42864,13646
59759,42894,13689
59762,42903,13702
59753,42897,13689
59734,42879,13655
59706,42843,13593
59670,42787,13503
59628,42721,13398
59577,42648,13282
59515,42564,13145
59443,42470,12989
59368,42375,12826
59290,42279,12662
59211,42180,12495
59134,42079,12326
59059,41985,12162
58987,41898,12001
58913,41809,11839
58840,41724,11681
58780,41653,11538
58732,41591,11406
58687,41528,11276
58649,41468,11151
58616,41417,11037
58582,41367,10930
58537,41306,10817
58486,41236,10701
58436,41171,10594
58386,41109,10492
58334,41044,10384
58282,40979,10272
58231,40916,10161
58180,40852,10047
58124,40781,9924
58067,40710,9800
58011,40646,9686
57954,40581,9572
57895,40512,9453
57837,40446,9335
57779,40384,9222
57720,40316,9105
57662,40242,8981
57612,40173,8859
57569,40116,8747
57531,40064,8639
57491,40008,8531
57452,39954,8430
57414,39907,8337
57372,39857,8242
57330,39804,8148
57293,39756,8066
57266,39718,7999
57247,39689,7948
57241,39678,7923
57261,39701,7950
57314,39767,8044
57401,39880,8220
57530,40051,8495
57714,40291,8882
57951,40595,9377
58225,40944,9958
58529,41328,10611
58858,41742,11317
59200,42171,12045
59541,42592,12767
59875,43004,13470
60199,43405,14147
60506,43785,14783
60785,44128,15359
61032,44429,15866
61245,44691,16308
61422,44913,16684
61567,45091,16989
61685,45228,17226
61778,45334,17407
61843,45411,17532
61883,45454,17601
61904,45471,17625
61913,45469,17615
61910,45443,17571
61888,45392,17490
61849,45324,17383
61798,45245,17261
61738,45153,17118
61669,45050,16955
61595,44946,16786
61518,44846,16614
61433,44744,16431
61341,44635,16239
61251,44524,16045
61160,44412,15848
61062,44294,15645
60959,44168,15432
60853,44040,15212
60741,43911,14987
60624,43773,14752
60509,43630,14512
60403,43494,14276
60305,43367,14046
60209,43244,13821
60118,43126,13605
60037,43023,13413
59968,42938,13250
59908,42862,13107
59856,42798,12985
59814,42752,12891
59781,42719,12824
59753,42693,12780
59740,42681,12765
59747,42692,12782
59772,42722,12827
59809,42764,12894
59857,42816,12984
59910,42880,13098
59968,42957,13231
60029,43042,13375
60098,43130,13524
60172,43223,13681
60246,43310,13833
60314,43382,13969
60371,43443,14093
60420,43501,14207
60458,43548,14301
60485,43583,14369
60505,43613,14418
60520,43638,14453
60525,43647,14466
60516,43637,14453
60499,43616,14422
60476,43590,14377
60445,43553,14314
60406,43505,14231
60363,43453,14133
60317,43397,14023
60262,43331,13898
60199,43257,13762
60131,43177,13621
60060,43088,13474
59985,42992,13317
59907,42891,13154
59831,42792,12989
59756,42694,12825
59678,42592,12654
59599,42485,12477
59526,42381,12304
59456,42285,12139
59385,42194,11978
59315,42109,11823
59250,42035,11680
59189,41964,11542
59121,41889,11403
59049,41812,11271
58982,41733,11146
58918,41649,11017
58848,41556,10881
58776,41460,10739
58708,41368,10594
58637,41280,10446
58555,41187,10290
58470,41091,10134
58389,41002,9981
58309,40914,9827
58230,40825,9669
58155,40739,9515
58089,40659,9373
58024,40578,9238
57961,40495,9109
57904,40417,8992
57853,40347,8882
57803,40283,8772
57758,40224,8665
57726,40177,8574
57707,40150,8511
57701,40141,8479
57714,40150,8488
57757,40198,8563
57837,40301,8724
57956,40458,8980
58119,40666,9333
58333,40933,9791
58591,41254,10344
58875,41613,10967
59178,42001,11637
59494,42409,12338
59815,42822,13050
60129,43224,13750
60431,43607,14424
60712,43969,15062
60968,44299,15649
61192,44585,16168
61385,44831,16617
61553,45043,17006
61696,45220,17334
61808,45350,17588
61888,45440,17774
61945,45503,17905
61984,45540,17986
62002,45551,18019
62003,45544,18017
61994,45525,17990
61971,45491,17933
61932,45443,17847
61882,45385,17744
61825,45318,17627
61758,45239,17494
61685,45149,17344
61615,45057,17188
61547,44967,17033
61478,44876,16873
61403,44777,16703
61322,44674,16529
61243,44572,16358
61163,44466,16184
61077,44349,15999
60989,44228,15808
60900,44107,15619
60806,43984,15427
60708,43857,15230
60612,43736,15030
60519,43624,14831
60429,43515,14632
60341,43408,14438
60263,43313,14260
60196,43230,14103
60138,43156,13963
60089,43094,13840
60057,43052,13744
60041,43030,13676
60033,43022,13632
60037,43025,13615
60056,43048,13634
60085,43084,13683
60119,43124,13748
60163,43173,13826
60221,43237,13922
60285,43311,14034
60347,43386,14152
60407,43461,14274
60469,43536,14398
60528,43607,14515
60576,43668,14620
60616,43722,14713
60649,43771,14797
60670,43810,14866
60680,43836,14911
60686,43853,14938
60691,43862,14951
60688,43855,14945
60674,43825,14914
60653,43779,14858
60623,43727,14786
60578,43668,14699
60521,43599,14598
60459,43525,14493
60397,43452,14387
60336,43376,14269
60270,43292,14134
60202,43210,13993
60137,43136,13849
60074,43060,13696
60010,42975,13533
59948,42889,13371
59881,42802,13210
59808,42710,13047
59735,42618,12887
59668,42534,12733
59605,42453,12587
59540,42372,12443
59475,42295,12306
59422,42230,12182
59382,42177,12071
59343,42124,11962
59303,42068,11849
59264,42014,11739
59226,41964,11633
59186,41913,11525
59144,41862,11414
59102,41814,11307
59057,41763,11198
59005,41698,11079
58945,41622,10951
58883,41544,10820
58817,41459,10679
58744,41363,10525
58662,41262,10368
58578,41162,10212
58490,41057,10053
58401,40948,9890
58320,40847,9734
58248,40755,9587
58176,40665,9441
58106,40577,9296
58044,40498,9162
57996,40436,9049
57960,40391,8961
57939,40368,8908
57946,40380,8907
57986,40434,8979
58058,40533,9130
58173,40684,9373
58344,40901,9728
58570,41189,10199
58846,41535,10770
59160,41926,11419
59506,42356,12133
59873,42814,12889
60248,43275,13661
60621,43722,14424
60977,44155,15161
61304,44570,15854
61600,44951,16490
61865,45286,17062
62096,45573,17566
62291,45812,17996
62449,46000,18344
62572,46141,18619
62668,46249,18833
62735,46321,18989
62767,46351,19080
62770,46345,19115
62751,46317,19110
62711,46267,19069
62652,46196,18991
62581,46112,18886
62503,46017,18763
62421,45911,18621
62333,45798,18461
62243,45686,18293
62155,45584,18124
62070,45490,17957
61988,45395,17790
61915,45303,17632
61857,45223,17494
61805,45151,17370
61755,45078,17246
61705,45008,17126
61655,44945,17013
61601,44880,16895
61541,44804,16759
61473,44721,16612
61399,44636,16462
61323,44544,16307
61245,44441,16139
61168,44338,15966
61094,44238,15793
61019,44133,15616
60943,44030,15442
60875,43940,15285
60816,43867,15151
60765,43808,15035
60727,43763,14936
60704,43740,14862
60694,43734,14815
60694,43737,14788
60708,43751,14784
60737,43780,14809
60776,43824,14859
60816,43868,14924
60860,43912,14996
60913,43965,15078
60969,44026,15168
61022,44087,15256
61067,44144,15339
61108,44197,15420
61145,44241,15496
61174,44271,15557
61199,44293,15607
61220,44314,15649
61232,44328,15681
61231,44329,15695
61222,44323,15694
61212,44317,15686
61199,44305,15666
61181,44285,15630
61158,44259,15581
61135,44229,15524
61108,44193,15455
61074,44148,15369
61035,44097,15270
60991,44041,15164
60942,43980,15051
60885,43907,14926
60828,43832,14795
60772,43763,14666
60711,43689,14527
60644,43601,14371
60575,43508,14210
60506,43417,14052
60434,43325,13890
60360,43231,13727
60291,43139,13570
60228,43053,13421
60168,42971,13274
60106,42888,13128
60045,42807,12987
59983,42728,12847
59917,42644,12700
59847,42555,12550
59776,42469,12405
59699,42382,12261
59618,42288,12108
59538,42191,11946
59465,42099,11789
59397,42011,11639
59328,41919,11489
59257,41829,11340
59189,41746,11199
59123,41669,11060
59055,41590,10917
58988,41512,10770
58923,41442,10631
58860,41375,10502
58798,41302,10373
58746,41232,10248
58705,41174,10136
58668,41125,10032
58631,41078,9934
58598,41039,9847
58576,41012,9782
58563,40993,9736
58560,40983,9710
58577,40998,9724
58623,41055,9804
58701,41157,9965
58820,41312,10218
58986,41529,10575
59202,41808,11034
59462,42140,11581
59761,42518,12199
60093,42935,12880
60446,43378,13606
60802,43824,14350
61150,44260,15088
61484,44680,15800
61797,45072,16469
62082,45427,17078
62335,45739,17622
62556,46012,18100
62747,46247,18513
62906,46439,18858
63039,46590,19138
63150,46713,19364
63239,46810,19539
63301,46875,19657
63342,46911,19726
63367,46929,19764
63373,46926,19772
63357,46899,19744
63328,46853,19684
63293,46800,19605
63250,46740,19511
63200,46670,19396
63148,46597,19267
63097,46524,19130
63041,46443,18988
62979,46352,18840
62914,46259,18691
62850,46172,18547
62786,46085,18406
62718,45995,18265
62651,45905,18126
62586,45819,17991
62519,45734,17853
62450,45650,17711
62381,45567,17566
62312,45480,17419
62238,45384,17258
62158,45279,17078
62073,45171,16890
61981,45064,16703
61879,44947,16513
61771,44819,16316
61669,44696,16128
61577,44589,15959
61488,44491,15803
61407,44400,15661
61341,44327,15545
61293,44278,15460
61261,44246,15400
61248,44232,15365
61255,44238,15363
61276,44259,15390
61302,44283,15432
61332,44313,15485
61370,44358,15554
61412,44409,15633
61448,44449,15709
61477,44480,15779
61505,44512,15846
61529,44542,15905
61545,44563,15949
61555,44578,15981
61565,44590,16001
61572,44591,16005
61565,44579,15990
61546,44556,15961
61517,44526,15921
61479,44481,15867
61431,44422,15795
61380,44359,15709
61327,44298,15614
61271,44235,15508
61211,44164,15388
61148,44086,15252
61084,44006,15111
61013,43924,14963
60935,43832,14804
60855,43738,14639
60776,43648,14476
60696,43555,14308
60616,43453,14132
60537,43349,13957
60460,43249,13786
60379,43149,13610
60295,43046,13429
60210,42944,13252
60129,42846,13083
60047,42747,12913
59964,42648,12743
59886,42555,12581
59815,42466,12426
59744,42372,12270
59670,42276,12112
59598,42185,11957
59527,42095,11804
59454,41999,11649
59379,41906,11497
59310,41824,11353
59246,41750,11214
59182,41672,11070
59118,41592,10925
59060,41516,10784
59000,41437,10641
58931,41350,10494
58857,41264,10349
58782,41183,10212
58706,41103,10076
58626,41014,9930
58545,40921,9779
58468,40836,9636
58396,40755,9499
58328,40672,9356
58264,40587,9211
58205,40507,9073
58147,40428,8943
58087,40349,8818
58031,40278,8703
57985,40221,8610
57955,40182,8542
57943,40167,8510
57962,40190,8542
58023,40267,8661
58128,40404,8883
58280,40603,9218
58484,40874,9675
58742,41213,10243
59041,41602,10896
59370,42025,11607
59720,42474,12359
60081,42932,13130
60436,43379,13892
60778,43805,14623
61102,44209,15315
61401,44583,15951
61664,44908,16514
61888,45184,16997
62076,45417,17406
62225,45603,17741
62335,45740,18000
62415,45837,18187
62471,45902,18317
62501,45935,18397
62505,45934,18422
62490,45907,18399
62458,45863,18342
62411,45805,18252
62350,45729,18130
62279,45640,17982
62202,45544,17817
62114,45436,17635
62016,45313,17438
61914,45180,17227
61809,45043,17012
61696,44906,16792
61576,44764,16564
61457,44619,16330
61345,44479,16098
61234,44338,15864
61118,44188,15622
61002,44039,15377
60890,43901,15140
60778,43767,14905
60663,43627,14663
60551,43487,14421
60451,43359,14187
60359,43237,13960
60268,43116,13740
60182,43001,13534
60098,42894,13342
60018,42795,13162
59944,42704,13000
59884,42627,12862
59834,42565,12748
59790,42513,12658
59759,42471,12592
59746,42451,12559
59747,42453,12559
59756,42469,12585
59777,42501,12632
59814,42550,12702
59859,42612,12791
59908,42677,12893
59963,42744,13009
60028,42821,13141
60097,42902,13278
60161,42977,13401
60221,43047,13511
60279,43117,13615
60332,43181,13711
60374,43234,13787
60406,43274,13843
60433,43306,13886
60451,43328,13913
60453,43333,13916
60439,43321,13897
60416,43294,13862
60387,43254,13805
60352,43200,13724
60311,43142,13625
60266,43080,13515
60209,43007,13389
60141,42922,13247
60072,42834,13098
60001,42747,12949
59921,42654,12793
59833,42552,12626
59747,42448,12453
59661,42344,12277
59574,42236,12097
59485,42122,11909
59395,42006,11720
59307,41895,11535
59215,41782,11349
59119,41661,11155
59021,41541,10965
58921,41427,10779
58820,41312,10594
58716,41193,10405
58614,41076,10213
58518,40964,10022
58424,40851,9831
58332,40739,9639
58247,40635,9453
58168,40537,9278
58090,40438,9103
58011,40341,8929
57935,40253,8764
57860,40164,8605
57782,40071,8442
57704,39977,8276
57629,39890,8117
57553,39802,7966
57474,39709,7815
57398,39618,7669
57330,39532,7527
57265,39446,7383
57201,39361,7236
57138,39284,7095
57077,39213,6964
57017,39141,6832
56954,39061,6693
56894,38980,6555
56840,38906,6430
56788,38838,6317
56738,38770,6204
56691,38709,6098
56652,38664,6018
56625,38639,5967
56613,38635,5955
56633,38673,6015
56696,38768,6173
56809,38924,6437
56976,39143,6815
57204,39434,7315
57491,39792,7931
57821,40203,8637
58180,40653,9406
58556,41126,10216
58935,41606,11038
59302,42071,11840
59653,42516,12602
59990,42938,13318
60303,43330,13978
60579,43678,14565
60818,43975,15071
61021,44225,15501
61187,44430,15857
61309,44585,16133
61392,44689,16329
61442,44750,16454
61460,44775,16515
61446,44760,16515
61408,44714,16462
61356,44646,16367
61291,44558,16227
61209,44446,16044
61114,44317,15831
61009,44178,15600
60890,44023,15347
60755,43853,15073
60615,43677,14788
60475,43499,14498
60333,43315,14201
60185,43125,13895
60037,42935,13584
59891,42751,13278
59744,42571,12975
59591,42390,12669
59436,42210,12364
59287,42036,12065
59143,41865,11765
59000,41690,11459
58863,41517,11160
58731,41349,10875
58602,41183,10598
58478,41021,10330
58362,40872,10077
58256,40742,9846
58160,40626,9638
58078,40525,9460
58018,40446,9321
57977,40394,9223
57946,40356,9159
57929,40333,9131
57932,40336,9143
57953,40360,9189
57989,40399,9263
58043,40457,9366
58109,40536,9499
58178,40631,9657
58248,40730,9828
58327,40836,10011
58417,40958,10209
58511,41091,10411
58596,41215,10599
58674,41323,10766
58747,41419,10918
58813,41500,11049
58863,41558,11150
58898,41600,11227
58923,41632,11281
58937,41651,11303
58940,41650,11292
58932,41633,11259
58912,41605,11210
58880,41561,11143
58836,41499,11056
58780,41425,10951
58717,41345,10831
58645,41255,10694
58564,41155,10533
58480,41051,10355
58391,40945,10170
58291,40829,9974
58189,40704,9766
58093,40582,9557
58005,40470,9353
57916,40362,9153
57825,40251,8956
57738,40140,8768
57656,40033,8590
57572,39924,8411
57488,39818,8232
57406,39719,8059
57330,39624,7890
57255,39524,7716
57179,39424,7542
57108,39330,7374
57037,39238,7211
56965,39144,7048
56894,39054,6892
56825,38971,6748
56754,38890,6609
56678,38805,6461
