green_channel,red_channel,ir_channel
61121,32972,39720
61089,32929,39655
61057,32891,39593
61021,32857,39529
60983,32825,39464
60951,32794,39401
60918,32763,39341
60875,32727,39281
60831,32688,39218
60795,32653,39154
60764,32620,39093
60728,32581,39030
60689,32539,38962
60657,32498,38896
60626,32458,38837
60593,32417,38786
60564,32377,38738
60541,32339,38688
60517,32302,38638
60487,32268,38588
60459,32242,38542
60437,32223,38499
60415,32207,38459
60390,32193,38419
60370,32183,38379
60354,32172,38339
60331,32155,38299
60302,32133,38257
60279,32115,38219
60262,32101,38184
60245,32084,38151
60225,32063,38117
60210,32043,38081
60200,32030,38050
60190,32020,38025
60175,32007,38001
60161,31992,37977
60148,31976,37957
60129,31957,37939
60106,31938,37922
60088,31927,37905
60076,31920,37888
60060,31910,37867
60042,31894,37837
60026,31875,37805
60014,31855,37772
59993,31831,37736
59969,31808,37697
59951,31791,37657
59936,31780,37622
59919,31766,37589
59905,31750,37556
59899,31738,37526
59892,31726,37498
59880,31706,37466
59866,31684,37434
59854,31666,37408
59840,31655,37387
59825,31650,37369
59820,31653,37358
59825,31662,37363
59833,31679,37392
59847,31706,37448
59883,31750,37537
59946,31817,37661
60024,31902,37814
60113,31995,37989
60222,32101,38183
60352,32225,38404
60491,32361,38650
60629,32498,38906
60771,32640,39166
60918,32787,39431
61059,32930,39693
61190,33064,39947
61318,33197,40192
61444,33330,40423
61556,33450,40628
61655,33551,40803
61748,33639,40951
61828,33714,41074
61881,33772,41172
61914,33817,41248
61942,33855,41308
61966,33885,41354
61976,33900,41380
61979,33906,41388
61985,33909,41389
61988,33907,41385
61980,33896,41375
61967,33878,41356
61954,33862,41332
61938,33845,41304
61912,33823,41273
61885,33801,41241
61868,33782,41213
61858,33765,41189
61847,33748,41166
61837,33734,41140
61830,33722,41110
61820,33709,41080
61802,33689,41049
61783,33663,41011
61766,33638,40967
61742,33612,40916
61708,33580,40858
61669,33541,40796
61631,33503,40734
61589,33465,40671
61542,33425,40606
61501,33388,40545
61465,33357,40487
61429,33330,40428
61394,33304,40370
61370,33285,40321
61354,33272,40283
61335,33259,40253
61316,33248,40229
61309,33241,40213
61310,33240,40207
61312,33241,40210
61316,33243,40217
61330,33255,40230
61353,33271,40255
61375,33283,40290
61387,33293,40325
61397,33307,40359
61415,33323,40388
61426,33335,40403
61424,33343,40406
61427,33349,40408
61437,33353,40412
61443,33352,40414
61443,33348,40412
61442,33345,40408
61436,33342,40401
61423,33330,40385
61406,33314,40362
61393,33302,40339
61379,33290,40314
61356,33270,40281
61329,33242,40241
61306,33213,40201
61278,33182,40159
61242,33147,40112
61210,33115,40063
61186,33087,40012
61159,33059,39956
61123,33027,39891
61085,32998,39825
61053,32974,39767
61018,32950,39712
60978,32919,39654
60944,32882,39593
60916,32846,39536
60886,32808,39476
60847,32764,39409
60809,32721,39342
60778,32684,39280
60744,32651,39224
60708,32616,39168
60678,32583,39111
60652,32553,39055
60619,32520,38999
60579,32481,38939
60546,32444,38878
60521,32413,38821
60496,32386,38767
60471,32361,38712
60449,32341,38660
60429,32323,38614
60406,32300,38572
60387,32276,38534
60379,32255,38497
60372,32236,38461
60353,32214,38425
60327,32190,38385
60306,32169,38347
60290,32152,38314
60271,32136,38280
60248,32121,38242
60227,32107,38206
60206,32093,38178
60183,32076,38157
60166,32059,38137
60156,32043,38118
60140,32027,38097
60120,32005,38069
60103,31985,38036
60091,31971,38004
60075,31956,37975
60054,31936,37945
60038,31920,37915
60032,31910,37889
60027,31902,37868
60017,31890,37842
60010,31881,37810
60008,31874,37778
59998,31863,37745
59979,31845,37712
59962,31830,37681
59945,31814,37652
59919,31789,37619
59888,31760,37581
59863,31734,37543
59844,31714,37508
59823,31696,37475
59800,31676,37441
59782,31661,37406
59765,31649,37378
59741,31633,37350
59719,31615,37321
59708,31605,37298
59702,31604,37289
59700,31612,37296
59707,31632,37324
59730,31666,37377
59768,31715,37457
59821,31779,37568
59897,31859,37710
59999,31962,37887
60114,32080,38091
60234,32204,38312
60369,32335,38549
60518,32475,38800
60668,32616,39058
60809,32749,39311
60946,32878,39553
61078,33005,39785
61192,33122,40005
61285,33221,40207
61371,33306,40389
61453,33387,40551
61522,33459,40687
61575,33519,40797
61622,33571,40885
61662,33619,40957
61689,33651,41008
61705,33670,41035
61721,33684,41046
61732,33693,41049
61728,33689,41041
61718,33679,41022
61711,33670,41001
61704,33660,40978
61687,33644,40949
61666,33623,40913
61651,33604,40876
61645,33588,40844
61636,33572,40813
61623,33554,40781
61615,33541,40750
61602,33530,40722
61574,33511,40690
61539,33482,40651
61510,33452,40607
61482,33426,40563
61444,33397,40511
61401,33361,40447
61362,33322,40376
61320,33278,40303
61271,33230,40229
61224,33182,40153
61189,33140,40083
61158,33100,40018
61120,33059,39955
61089,33022,39897
61071,32998,39848
61059,32982,39806
61042,32966,39772
61031,32952,39748
61028,32946,39735
61027,32947,39729
61026,32953,39729
61033,32966,39733
61047,32981,39742
61056,32994,39752
61063,33005,39760
61077,33020,39777
61095,33035,39804
61108,33047,39835
61117,33058,39863
61132,33073,39887
61147,33091,39909
61152,33100,39927
61151,33100,39936
61156,33099,39944
61164,33102,39951
61167,33104,39951
61161,33101,39941
61152,33091,39923
61141,33077,39898
61125,33059,39866
61110,33040,39828
61102,33021,39784
61090,33002,39734
61063,32976,39681
61030,32945,39629
60998,32917,39581
60964,32891,39534
60927,32860,39481
60890,32823,39423
60856,32785,39363
60821,32745,39305
60779,32701,39248
60744,32656,39190
60720,32620,39135
60696,32590,39077
60664,32558,39012
60634,32529,38943
60611,32505,38875
60586,32480,38810
60557,32448,38749
60530,32417,38692
60507,32389,38637
60479,32361,38583
60446,32332,38529
60415,32306,38478
60388,32284,38428
60358,32258,38381
60324,32224,38334
60291,32187,38287
60258,32154,38241
60223,32126,38195
60190,32096,38149
60169,32069,38106
60161,32049,38068
60149,32035,38034
60123,32024,37998
60096,32012,37961
60075,31999,37925
60056,31981,37889
60038,31961,37853
60029,31939,37822
60025,31921,37799
60015,31908,37782
60002,31897,37766
59991,31885,37750
59979,31871,37735
59960,31849,37715
59940,31824,37686
59927,31803,37654
59916,31786,37621
59900,31770,37587
59885,31756,37549
59873,31746,37511
59859,31734,37474
59839,31716,37435
59822,31697,37403
59813,31684,37381
59800,31672,37360
59781,31656,37331
59768,31640,37296
59760,31629,37267
59751,31621,37244
59737,31611,37222
59724,31601,37199
59718,31592,37179
59714,31583,37164
59712,31578,37161
59724,31587,37175
59747,31608,37208
59771,31634,37259
59802,31670,37330
59856,31724,37428
59930,31797,37558
60016,31884,37714
60112,31979,37891
60223,32088,38084
60343,32209,38293
60462,32337,38513
60580,32465,38737
60701,32594,38965
60822,32723,39196
60934,32845,39416
61040,32960,39621
61149,33072,39815
61249,33174,39992
61330,33258,40148
61399,33329,40284
61464,33394,40401
61518,33451,40498
61556,33496,40575
61582,33525,40629
61602,33541,40660
61609,33547,40673
61605,33542,40670
61598,33529,40655
61594,33512,40631
61584,33490,40599
61565,33463,40561
61549,33437,40523
61538,33414,40485
61517,33389,40441
61485,33355,40388
61453,33319,40334
61426,33287,40283
61398,33257,40232
61364,33227,40177
61331,33197,40117
61298,33170,40053
61257,33141,39988
61210,33105,39915
61167,33064,39838
61127,33025,39760
61082,32985,39679
61032,32937,39591
60987,32886,39502
60947,32836,39418
60903,32786,39336
60855,32737,39258
60816,32697,39190
60789,32666,39134
60768,32641,39088
60753,32621,39050
60750,32612,39025
60755,32613,39013
60759,32619,39014
60767,32626,39021
60784,32635,39036
60805,32648,39058
60820,32662,39086
60836,32680,39117
60862,32703,39153
60887,32727,39193
60906,32747,39234
60928,32768,39275
60956,32795,39318
60981,32821,39360
60996,32837,39395
61011,32849,39419
61030,32861,39436
61042,32872,39447
61043,32876,39447
61041,32876,39438
61039,32875,39425
61026,32870,39408
61000,32857,39382
60971,32837,39348
60944,32814,39310
60913,32788,39266
60880,32759,39218
60859,32733,39168
60845,32706,39117
60822,32667,39058
60791,32624,38995
60764,32588,38937
60742,32557,38886
60712,32524,38833
60678,32489,38776
60651,32456,38720
60629,32427,38669
60601,32397,38617
60568,32368,38562
60538,32343,38507
60508,32318,38453
60472,32287,38401
60436,32255,38348
60413,32229,38296
60397,32206,38249
60376,32183,38201
60355,32164,38150
60335,32149,38100
60310,32132,38052
60278,32108,38001
60248,32083,37949
60225,32062,37901
60200,32041,37857
60171,32016,37812
60146,31986,37765
60127,31952,37717
60108,31915,37667
60081,31880,37615
60054,31850,37560
60031,31828,37507
60001,31807,37457
59966,31783,37406
59941,31760,37357
59925,31742,37317
59906,31721,37284
59881,31695,37251
59862,31668,37218
59848,31648,37189
59830,31630,37160
59808,31609,37128
59794,31588,37101
59784,31571,37079
59769,31554,37058
59752,31538,37037
59745,31532,37024
59746,31534,37023
59745,31537,37030
59750,31543,37048
59772,31561,37084
59810,31597,37145
59856,31644,37227
59915,31701,37335
59995,31774,37474
60087,31862,37642
60176,31960,37830
60268,32064,38030
60371,32176,38235
60480,32295,38446
60590,32417,38660
60707,32543,38871
60832,32669,39076
60954,32788,39272
61063,32890,39452
61161,32979,39616
61250,33060,39767
61326,33132,39903
61385,33190,40019
61434,33239,40112
61476,33282,40190
61508,33314,40253
61529,33332,40299
61549,33337,40331
61567,33341,40345
61570,33344,40338
61555,33335,40318
61536,33317,40296
61518,33301,40276
61495,33289,40252
61466,33270,40214
61438,33245,40165
61412,33218,40112
61381,33186,40052
61346,33148,39983
61315,33110,39907
61285,33074,39829
61248,33038,39749
61203,32996,39665
61163,32949,39578
61125,32901,39489
61080,32852,39398
61031,32806,39303
60988,32766,39205
60946,32723,39107
60895,32670,39009
60842,32616,38917
60796,32572,38838
60756,32534,38772
60716,32496,38711
60681,32460,38655
60656,32434,38607
60634,32415,38570
60610,32394,38541
60595,32378,38522
60595,32370,38511
60602,32368,38511
60606,32367,38515
60616,32369,38527
60635,32381,38553
60652,32397,38588
60662,32407,38623
60679,32418,38655
60703,32435,38690
60724,32457,38729
60740,32476,38766
60760,32494,38798
60786,32516,38829
60802,32536,38855
60807,32546,38869
60811,32548,38873
60814,32548,38872
60809,32545,38864
60797,32538,38846
60786,32533,38827
60776,32529,38812
60757,32520,38794
60732,32506,38767
60714,32494,38735
60698,32479,38696
60674,32453,38649
60647,32423,38593
60627,32394,38536
60607,32367,38482
60582,32340,38430
60553,32311,38376
60527,32282,38319
60498,32254,38261
60463,32222,38203
60431,32190,38151
60410,32160,38104
60391,32132,38057
60366,32099,38008
60338,32062,37957
60312,32029,37910
60283,32001,37863
60246,31970,37812
60211,31938,37760
60186,31909,37709
60161,31881,37658
60129,31853,37603
60097,31826,37545
60073,31802,37496
60047,31777,37452
60016,31750,37407
59989,31725,37361
59970,31703,37318
59952,31680,37275
59930,31653,37232
59909,31629,37194
59895,31614,37165
59879,31601,37139
59857,31587,37113
59837,31572,37082
59821,31558,37050
59800,31538,37012
59778,31514,36964
59764,31491,36917
59755,31471,36877
59740,31451,36837
59719,31431,36796
59705,31417,36757
59695,31406,36722
59679,31391,36686
59656,31371,36651
59637,31354,36625
59622,31341,36606
59607,31333,36589
59595,31328,36572
59591,31328,36559
59592,31332,36554
59593,31335,36556
59605,31344,36573
59635,31368,36619
59677,31409,36693
59728,31459,36793
59797,31525,36921
59891,31613,37085
60000,31723,37283
60116,31843,37503
60244,31972,37739
60385,32112,37993
60526,32255,38256
60662,32394,38515
60803,32535,38767
60951,32684,39016
61094,32832,39257
61222,32966,39479
61335,33083,39680
61438,33186,39866
61528,33274,40032
61603,33351,40177
61676,33421,40307
61745,33483,40421
61799,33534,40508
61838,33570,40569
61869,33598,40609
61891,33619,40635
61898,33627,40650
61892,33625,40650
61887,33619,40638
61882,33610,40620
61870,33594,40597
61855,33575,40567
61843,33556,40532
61829,33537,40497
61807,33514,40459
61779,33487,40417
61757,33466,40377
61741,33450,40341
61725,33434,40306
61709,33420,40272
61696,33407,40239
61678,33389,40205
61654,33364,40165
61629,33332,40119
61606,33301,40069
61580,33269,40014
61543,33229,39949
61504,33184,39873
61466,33141,39792
61424,33100,39713
61377,33056,39636
61337,33014,39563
61310,32980,39498
61280,32949,39440
61244,32917,39387
61213,32891,39341
61195,32876,39306
61185,32868,39285
61179,32862,39273
61181,32862,39269
61193,32871,39273
61203,32884,39288
61208,32895,39307
61217,32905,39330
61233,32919,39357
61245,32933,39386
61255,32944,39413
61272,32960,39443
61294,32982,39477
61311,33001,39507
61322,33013,39535
61339,33024,39562
61356,33035,39587
61364,33039,39604
61366,33040,39612
61370,33043,39615
61371,33041,39614
61362,33030,39605
61351,33015,39588
61347,33006,39569
61344,33002,39547
61329,32991,39513
61310,32971,39468
61294,32947,39419
61279,32923,39374
61259,32897,39330
61240,32870,39284
61224,32845,39234
61201,32817,39182
61164,32784,39123
61120,32747,39055
61077,32711,38984
61033,32678,38916
60994,32643,38857
60970,32601,38810
60955,32554,38766
60938,32501,38720
60912,32452,38665
60882,32420,38600
60854,32396,38536
60826,32369,38482
60799,32344,38434
60777,32325,38386
60756,32308,38338
60726,32284,38287
60693,32255,38233
60667,32229,38182
60645,32206,38138
60617,32183,38096
60588,32159,38050
60568,32138,38001
60550,32121,37952
60525,32104,37909
60499,32087,37866
60479,32070,37822
60460,32054,37778
60434,32036,37736
60407,32015,37698
60387,31993,37664
60372,31971,37633
60355,31949,37602
60341,31929,37569
60329,31910,37535
60312,31890,37500
60287,31865,37459
60264,31839,37417
60248,31822,37384
60229,31809,37354
60201,31794,37317
60174,31778,37276
60158,31763,37244
60145,31750,37223
60132,31738,37210
60131,31732,37200
60145,31736,37198
60159,31740,37201
60170,31744,37210
60190,31755,37229
60229,31782,37273
60281,31827,37349
60343,31885,37453
60420,31961,37582
60515,32057,37738
60621,32165,37919
60734,32282,38124
60861,32410,38351
60999,32547,38595
61133,32683,38844
61259,32815,39092
61388,32948,39338
61521,33084,39586
61646,33217,39828
61763,33342,40054
61879,33462,40263
61988,33572,40453
62079,33664,40617
62157,33741,40755
62229,33806,40876
62292,33862,40982
62340,33910,41068
62378,33948,41132
62413,33980,41179
62441,34000,41208
62450,34004,41217
62448,33999,41213
62445,33992,41205
62441,33982,41189
62431,33968,41165
62420,33951,41136
62411,33938,41105
62399,33924,41073
62382,33907,41042
62371,33893,41013
62366,33882,40988
62357,33871,40962
62342,33857,40930
62328,33844,40895
62315,33830,40861
62295,33811,40825
62267,33787,40782
62241,33760,40730
62219,33732,40677
62191,33701,40622
62153,33665,40558
62113,33626,40491
62078,33586,40423
62041,33544,40357
61999,33500,40287
61962,33459,40218
61935,33424,40157
61906,33392,40106
61878,33366,40060
61860,33351,40025
61851,33344,40004
61840,33339,39989
61833,33335,39975
61835,33335,39967
61841,33338,39967
61845,33338,39974
61852,33336,39986
61870,33338,40004
61891,33343,40028
61902,33346,40053
61913,33351,40076
61935,33368,40105
61959,33393,40137
61973,33413,40166
61981,33426,40187
61989,33438,40202
61995,33449,40215
61997,33458,40225
62000,33466,40230
62002,33470,40228
61998,33466,40217
61986,33454,40197
61974,33441,40174
61963,33430,40150
61947,33418,40123
61925,33399,40089
61906,33374,40048
61893,33351,40007
61879,33327,39967
61861,33300,39922
61845,33272,39874
61830,33246,39828
61806,33218,39779
61773,33187,39725
61739,33158,39669
61709,33135,39617
61678,33111,39566
61646,33084,39511
61619,33058,39454
61592,33031,39400
61556,32999,39347
61516,32964,39295
61482,32933,39246
61454,32907,39197
61422,32880,39142
61386,32848,39082
61354,32818,39023
61327,32792,38969
61298,32765,38915
61272,32740,38861
61255,32720,38811
61240,32701,38766
61216,32679,38721
61189,32654,38670
61169,32632,38618
61150,32609,38571
61127,32583,38527
61101,32558,38482
61081,32535,38441
61061,32514,38404
61041,32494,38370
61027,32473,38337
61016,32449,38307
61001,32424,38278
60983,32398,38248
60967,32374,38215
60953,32352,38180
60937,32330,38145
60916,32309,38110
60899,32296,38078
60886,32289,38049
60869,32276,38021
60846,32254,37992
60823,32229,37963
60802,32207,37936
60782,32188,37912
60764,32170,37886
60757,32161,37865
60756,32161,37854
60756,32165,37851
60760,32170,37854
60777,32184,37870
60807,32211,37910
60843,32249,37975
60890,32300,38061
60958,32370,38175
61040,32460,38318
61126,32562,38484
61223,32674,38674
61341,32799,38887
61471,32931,39118
61603,33063,39357
61740,33195,39600
61887,33331,39849
62031,33467,40099
62165,33596,40339
62293,33718,40564
62418,33835,40778
62530,33940,40975
62629,34027,41150
62725,34099,41302
62810,34168,41440
62872,34234,41563
62915,34291,41663
62953,34341,41740
62989,34388,41800
63012,34425,41840
63021,34446,41855
63027,34452,41850
63034,34454,41836
63035,34452,41818
63024,34440,41792
63009,34424,41760
62996,34408,41727
62974,34387,41689
62943,34361,41644
62918,34339,41599
62906,34325,41563
62893,34314,41531
62875,34300,41498
62861,34286,41462
62849,34267,41423
62827,34238,41378
62799,34204,41328
62771,34169,41275
62744,34133,41220
62709,34093,41159
62671,34049,41094
62636,34007,41025
62597,33964,40953
62548,33916,40880
62498,33870,40808
62462,33835,40742
62434,33810,40685
62404,33787,40633
62376,33764,40583
62354,33743,40539
62333,33724,40503
62314,33705,40474
62304,33693,40452
62309,33693,40443
62320,33702,40449
62331,33713,40465
62348,33728,40488
62370,33748,40517
62391,33768,40551
62408,33784,40587
62425,33802,40622
62444,33821,40653
62458,33835,40679
62470,33844,40702
62490,33853,40728
62511,33863,40751
62520,33867,40768
62520,33868,40778
62521,33871,40780
62519,33871,40775
62509,33864,40762
62496,33852,40741
62489,33842,40723
62482,33836,40704
62466,33824,40676
62442,33802,40637
62419,33777,40589
62396,33752,40539
62367,33722,40483
62339,33690,40423
62318,33661,40367
62295,33634,40315
62261,33603,40262
62224,33569,40205
62192,33536,40146
62166,33504,40090
62136,33471,40036
62108,33435,39979
62082,33399,39920
62048,33363,39860
62006,33325,39801
61966,33288,39744
61934,33256,39690
61904,33228,39641
61875,33203,39589
61848,33179,39533
61825,33154,39481
61800,33123,39432
61769,33089,39382
61744,33059,39329
61725,33034,39277
61703,33013,39229
61674,32987,39183
61649,32960,39135
61628,32932,39091
61601,32902,39049
61569,32871,39006
61540,32843,38966
61518,32818,38928
61498,32796,38888
61478,32775,38846
61463,32759,38807
61453,32747,38777
61440,32735,38754
61420,32718,38725
61400,32700,38692
61380,32681,38661
61354,32658,38629
61327,32634,38595
61308,32615,38563
61296,32602,38536
61284,32592,38514
61273,32582,38493
61267,32571,38471
61262,32554,38447
61247,32532,38418
61230,32512,38386
61217,32500,38359
61205,32495,38338
61189,32491,38313
61176,32487,38284
61170,32483,38259
61165,32476,38239
61152,32464,38222
61142,32453,38209
61146,32454,38207
61154,32466,38220
61164,32481,38246
61184,32504,38289
61220,32542,38356
61269,32596,38452
61331,32662,38571
61413,32743,38714
61516,32842,38886
61629,32954,39083
61749,33074,39298
61880,33201,39527
62022,33334,39770
62162,33468,40015
62296,33596,40257
62431,33725,40496
62565,33854,40728
62685,33974,40947
62790,34087,41149
62892,34198,41337
62987,34301,41509
63066,34389,41657
63129,34458,41777
63183,34514,41875
63227,34563,41953
63256,34598,42010
63276,34616,42046
63298,34626,42068
63310,34630,42079
63308,34626,42075
63297,34612,42057
63286,34595,42031
63271,34578,42005
63249,34559,41974
63230,34543,41941
63217,34535,41913
63206,34530,41889
63189,34518,41865
63173,34501,41839
63160,34482,41811
63144,34459,41780
63123,34438,41748
63104,34423,41714
63088,34409,41676
63065,34383,41631
63032,34347,41578
62998,34311,41518
62966,34278,41456
62927,34243,41395
62879,34203,41330
62829,34161,41264
62781,34119,41197
62726,34072,41129
62672,34023,41060
62629,33981,40992
62598,33948,40929
62578,33921,40875
62566,33899,40832
62568,33885,40803
62577,33882,40789
62584,33880,40789
62592,33879,40794
62607,33884,40808
62625,33898,40831
62639,33916,40857
62652,33935,40880
62670,33959,40905
62692,33985,40933
62710,34012,40961
62729,34034,40987
62753,34054,41011
62775,34070,41034
62789,34080,41051
62798,34083,41060
62805,34087,41065
62805,34089,41065
62793,34089,41059
62781,34088,41046
62777,34087,41030
62773,34079,41012
62755,34058,40987
62729,34029,40956
62708,34002,40928
62690,33974,40902
62662,33942,40871
62628,33913,40832
62598,33889,40787
62569,33863,40733
62533,33831,40669
62499,33800,40602
62471,33772,40538
62443,33743,40478
62415,33711,40419
62391,33681,40362
62368,33654,40307
62338,33625,40252
62302,33589,40192
62268,33552,40129
62235,33518,40072
62199,33484,40020
62159,33446,39965
62125,33409,39907
62096,33374,39851
62062,33338,39796
62023,33302,39739
61986,33270,39680
61954,33241,39625
61922,33213,39572
61891,33186,39518
61866,33161,39467
61845,33141,39416
61822,33116,39365
61798,33085,39315
61779,33057,39270
61758,33031,39227
61733,33005,39181
61709,32980,39136
61687,32956,39093
61661,32932,39048
61633,32905,39003
61611,32882,38958
61598,32867,38920
61581,32852,38886
61558,32832,38846
61536,32812,38805
61516,32798,38772
61489,32784,38748
61458,32765,38722
61437,32746,38696
61429,32732,38677
61420,32719,38660
61401,32699,38635
61380,32676,38601
61359,32655,38567
61331,32636,38534
61301,32616,38498
61281,32600,38460
61272,32589,38427
61262,32577,38393
61249,32559,38354
61238,32540,38316
61233,32524,38286
61226,32512,38266
61216,32502,38249
61212,32497,38237
61210,32497,38233
61204,32500,38236
61206,32508,38249
61225,32530,38280
61261,32566,38334
61305,32614,38415
61364,32677,38527
61445,32759,38675
61541,32852,38856
61645,32954,39060
61758,33067,39277
61881,33195,39507
62008,33333,39746
62135,33468,39987
62266,33600,40223
62404,33733,40454
62535,33859,40677
62648,33972,40883
62753,34075,41072
62855,34172,41249
62950,34260,41412
63028,34336,41553
63095,34400,41673
63152,34457,41774
63194,34499,41853
63218,34527,41909
63238,34548,41946
63259,34571,41972
63275,34590,41988
63281,34599,41990
63283,34607,41981
63278,34613,41968
63257,34610,41949
63229,34598,41924
63209,34585,41895
63195,34574,41866
63179,34558,41833
63159,34535,41794
63140,34510,41754
63119,34484,41714
63089,34457,41669
63059,34429,41620
63040,34403,41568
63024,34378,41516
63000,34347,41459
62970,34311,41392
62939,34273,41317
62899,34230,41239
62846,34177,41159
62793,34121,41078
62751,34074,41000
62711,34033,40931
62667,33993,40865
62624,33954,40797
62592,33918,40736
62566,33885,40684
62541,33852,40639
62524,33824,40601
62519,33810,40577
62518,33807,40566
62511,33809,40564
62509,33818,40568
62517,33834,40580
62534,33853,40597
62548,33869,40619
62563,33886,40646
62586,33906,40680
62610,33929,40715
62629,33947,40744
62646,33962,40774
62666,33977,40806
62680,33990,40832
62686,33998,40846
62695,34004,40857
62706,34009,40871
62710,34009,40880
62706,34004,40884
62704,34001,40883
62701,33997,40876
62688,33987,40860
62670,33970,40835
62657,33954,40803
62640,33937,40766
62611,33911,40721
62577,33876,40667
62547,33842,40615
62518,33810,40567
62484,33774,40515
62450,33737,40458
62417,33702,40405
62382,33670,40357
62340,33635,40305
62302,33600,40247
62277,33573,40188
62256,33551,40133
62228,33528,40076
62199,33503,40017
62171,33481,39959
62141,33459,39906
62108,33435,39855
62081,33411,39806
62063,33389,39759
62044,33364,39710
62019,33335,39658
61997,33309,39607
61978,33287,39559
61953,33266,39509
61919,33240,39456
61886,33212,39404
61859,33186,39357
61831,33157,39312
61802,33123,39264
61780,33090,39217
61762,33059,39174
61735,33024,39131
61705,32988,39086
61679,32960,39048
61656,32939,39014
61629,32920,38978
61601,32896,38936
61578,32874,38895
61552,32852,38855
61517,32826,38814
61483,32800,38771
61463,32783,38734
61449,32772,38701
61432,32758,38670
61416,32743,38641
61407,32732,38616
61397,32724,38595
61381,32712,38577
61364,32697,38559
61356,32684,38539
61353,32671,38518
61343,32659,38492
61327,32652,38461
61319,32648,38435
61315,32645,38420
61306,32638,38414
61301,32632,38427
61307,32638,38459
61320,32659,38507
61343,32695,38568
61390,32747,38648
61458,32817,38753
61536,32896,38881
61621,32983,39031
61720,33084,39204
61838,33202,39402
61964,33332,39616
62090,33465,39835
62218,33595,40054
62346,33723,40275
62465,33841,40495
62572,33950,40705
62675,34054,40902
62778,34153,41088
62871,34243,41259
62948,34320,41410
63015,34388,41540
63070,34446,41650
63108,34487,41737
63132,34516,41801
63153,34539,41847
63169,34558,41876
63177,34568,41887
63179,34570,41880
63177,34566,41860
63165,34553,41833
63139,34532,41801
63111,34509,41765
63091,34487,41729
63071,34466,41692
63045,34445,41648
63020,34423,41595
63001,34402,41541
62979,34376,41487
62945,34341,41429
62906,34303,41367
62871,34268,41308
62832,34230,41247
62783,34182,41178
62734,34130,41100
62689,34081,41018
62643,34033,40932
62591,33983,40840
62543,33932,40747
62505,33885,40662
62466,33841,40588
62426,33798,40520
62394,33759,40454
62371,33728,40400
62350,33704,40357
62331,33685,40324
62324,33678,40302
62325,33683,40293
62326,33692,40295
62324,33695,40301
62328,33699,40310
62338,33710,40326
62349,33724,40347
62366,33740,40374
62393,33762,40411
62420,33786,40456
62438,33806,40498
62451,33819,40533
62465,33832,40561
62476,33847,40589
62482,33857,40616
62491,33864,40637
62505,33873,40655
62520,33883,40672
62526,33890,40682
62526,33891,40682
62529,33891,40676
62530,33886,40666
62522,33875,40650
62511,33860,40627
62499,33845,40600
62480,33829,40571
62455,33809,40535
62435,33788,40488
62419,33769,40436
62397,33742,40382
62367,33706,40323
62336,33667,40262
62309,33630,40201
62272,33593,40140
62228,33557,40081
62190,33527,40028
62156,33500,39980
62118,33467,39930
62077,33428,39876
62045,33391,39821
62018,33360,39767
61988,33327,39712
61958,33295,39655
61935,33267,39599
61910,33237,39548
61872,33200,39494
61829,33163,39438
61795,33134,39385
61768,33116,39337
61739,33099,39291
61708,33078,39241
61686,33056,39191
61668,33032,39144
61645,33006,39096
61621,32980,39046
61603,32957,38999
61584,32933,38955
61560,32906,38911
61538,32878,38869
61518,32854,38829
61493,32828,38789
61459,32800,38750
61430,32773,38710
61410,32748,38671
61388,32721,38632
61360,32691,38592
61336,32665,38556
61324,32649,38529
61314,32640,38507
61301,32629,38485
61291,32618,38464
61290,32614,38448
61291,32611,38438
61289,32612,38433
61298,32625,38443
61320,32650,38474
61344,32678,38525
61376,32715,38597
61427,32772,38695
61495,32847,38821
61569,32929,38968
61653,33017,39130
61757,33117,39308
61876,33231,39508
61994,33346,39723
62116,33459,39944
62250,33579,40171
62383,33705,40398
62503,33827,40617
62614,33945,40821
62722,34060,41014
62820,34170,41196
62904,34268,41362
62979,34353,41506
63049,34427,41632
63105,34487,41734
63142,34529,41811
63169,34557,41866
63194,34577,41905
63210,34586,41926
63212,34581,41930
63206,34569,41921
63201,34561,41908
63191,34555,41891
63172,34541,41866
63149,34521,41836
63128,34503,41801
63105,34483,41758
63077,34458,41707
63047,34430,41647
63019,34402,41586
62984,34372,41524
62944,34336,41459
62909,34300,41391
62874,34261,41320
62829,34214,41243
62779,34162,41158
62732,34110,41067
62683,34059,40971
62622,34002,40873
62556,33941,40775
62500,33887,40682
62455,33839,40599
62410,33790,40525
62365,33740,40453
62325,33695,40385
62294,33662,40328
62269,33637,40285
62249,33614,40249
62239,33594,40216
62240,33581,40193
62243,33575,40180
62247,33573,40175
62260,33581,40182
62281,33600,40198
62299,33619,40219
62313,33632,40244
62324,33649,40274
62331,33674,40308
62340,33693,40345
62356,33704,40382
62378,33716,40417
62397,33732,40448
62409,33750,40475
62420,33767,40501
62432,33782,40524
62435,33793,40542
62426,33794,40552
62415,33790,40557
62409,33786,40558
62403,33778,40550
62388,33765,40528
62373,33751,40497
62360,33739,40464
62341,33725,40428
62315,33705,40385
62292,33680,40338
62271,33654,40291
62241,33626,40240
62200,33590,40184
62159,33552,40125
62127,33517,40069
62093,33484,40015
62057,33447,39956
62024,33407,39896
61993,33369,39840
61959,33332,39785
61926,33301,39728
61901,33277,39673
61875,33256,39622
61841,33228,39568
61806,33197,39511
61781,33167,39458
61760,33136,39410
61733,33102,39360
61702,33069,39305
61674,33039,39251
61647,33014,39201
61617,32987,39150
61591,32959,39096
61570,32932,39041
61545,32903,38986
61509,32873,38928
61471,32847,38871
61438,32828,38823
61406,32809,38781
61372,32785,38735
61343,32757,38686
61318,32727,38637
61290,32694,38589
61257,32657,38537
61230,32624,38482
61211,32600,38434
61191,32577,38393
61165,32552,38354
61145,32531,38318
61132,32513,38290
61116,32494,38267
61097,32474,38245
61086,32458,38230
61082,32450,38227
61082,32446,38233
61090,32451,38252
61114,32473,38293
61149,32513,38356
61189,32563,38438
61244,32623,38541
61324,32702,38673
61424,32804,38841
61536,32921,39041
61659,33049,39263
61798,33187,39500
61944,33333,39751
62088,33482,40009
62233,33630,40268
62380,33779,40525
62520,33924,40775
62649,34057,41012
62771,34182,41234
62887,34303,41442
62990,34412,41630
63078,34506,41791
63159,34588,41924
63234,34662,42038
63291,34723,42133
63325,34762,42206
63350,34789,42258
63371,34813,42299
63382,34830,42328
63378,34833,42341
63369,34825,42337
63359,34813,42324
63339,34794,42303
63308,34769,42274
63282,34745,42240
63262,34724,42207
63242,34707,42176
63221,34690,42146
63206,34672,42117
63193,34655,42090
63171,34635,42062
63148,34612,42027
63134,34592,41986
63122,34572,41947
63100,34548,41904
63071,34519,41856
63047,34489,41804
63022,34454,41748
62984,34412,41680
62941,34366,41601
62901,34324,41521
62865,34288,41445
62826,34251,41372
62787,34213,41303
62754,34177,41241
62720,34145,41184
62685,34115,41129
62656,34089,41077
62637,34072,41037
62622,34057,41007
62610,34043,40982
62604,34036,40965
62613,34039,40964
62629,34047,40975
62641,34053,40994
62655,34057,41019
62675,34068,41048
62689,34085,41075
62695,34101,41098
62705,34119,41124
62725,34143,41154
62744,34167,41185
62753,34184,41210
62761,34198,41233
62772,34211,41254
62780,34221,41271
62786,34225,41281
62797,34227,41285
62806,34228,41286
62801,34224,41279
62789,34212,41263
62780,34200,41240
62771,34189,41217
62753,34171,41189
62727,34146,41150
62701,34117,41105
62676,34086,41058
62645,34052,41007
62613,34017,40953
62590,33985,40900
62567,33955,40850
62537,33924,40800
62503,33890,40745
62473,33857,40687
62446,33823,40630
62417,33788,40572
62390,33752,40513
62365,33718,40454
62331,33684,40397
62288,33646,40340
62246,33607,40284
62217,33577,40234
62189,33551,40183
62157,33519,40124
62128,33486,40062
62108,33459,40006
62085,33431,39957
62052,33401,39911
62021,33376,39870
61997,33360,39835
61970,33342,39798
61935,33314,39754
61904,33283,39701
61880,33257,39651
61857,33233,39605
61833,33208,39559
61813,33185,39514
61795,33165,39472
61771,33142,39428
61742,33119,39379
61720,33100,39334
61703,33083,39296
61678,33062,39259
61650,33038,39221
61629,33017,39185
61614,33004,39154
61595,32992,39126
61576,32981,39101
61567,32976,39087
61559,32973,39080
61545,32964,39073
61535,32955,39067
61535,32955,39068
61544,32974,39084
61562,33012,39119
61596,33062,39178
61654,33119,39263
61728,33185,39372
61810,33264,39508
61908,33361,39671
62027,33480,39863
62155,33612,40080
62282,33746,40315
62414,33884,40566
62556,34030,40830
62700,34178,41098
62833,34315,41357
62962,34443,41602
63094,34566,41836
63217,34681,42054
63323,34780,42246
63417,34867,42416
63504,34945,42565
63575,35015,42693
63626,35073,42797
63668,35121,42882
63707,35160,42951
63736,35185,43002
63754,35198,43034
63773,35210,43055
63789,35223,43070
63794,35228,43074
63790,35227,43068
63788,35226,43059
63789,35223,43046
63784,35217,43026
63774,35207,42996
63765,35197,42964
63755,35191,42938
63736,35182,42915
63715,35169,42893
63703,35159,42874
63694,35150,42857
63677,35134,42838
63656,35112,42809
63636,35088,42770
63609,35061,42725
63570,35028,42674
63530,34993,42619
63495,34960,42560
63459,34925,42496
63420,34885,42423
63383,34843,42347
63353,34802,42274
63322,34760,42206
63286,34716,42141
63252,34676,42081
63227,34644,42031
63202,34617,41989
63179,34593,41950
63170,34577,41917
63171,34570,41898
63170,34564,41890
63167,34555,41885
63169,34550,41886
63181,34555,41898
63193,34568,41918
63202,34584,41938
63211,34603,41958
63224,34626,41983
63234,34643,42009
63243,34653,42034
63260,34665,42061
63279,34678,42090
63291,34690,42114
63300,34702,42130
63312,34713,42140
63321,34722,42144
63321,34726,42141
63314,34727,42134
63310,34727,42125
63304,34720,42112
63291,34702,42089
63275,34680,42054
63261,34663,42016
63243,34650,41981
63218,34634,41943
63189,34613,41900
63163,34589,41852
63134,34562,41802
63099,34531,41750
63066,34502,41694
63037,34475,41639
63006,34445,41583
62973,34410,41525
62943,34371,41463
62917,34332,41401
62886,34289,41342
62852,34248,41287
62826,34215,41235
62804,34184,41186
62775,34152,41137
62739,34117,41085
62705,34083,41032
62672,34049,40982
62636,34013,40934
62599,33976,40886
62573,33946,40839
62556,33925,40794
62536,33906,40748
62512,33884,40698
62492,33860,40647
62478,33839,40599
62465,33818,40552
62446,33795,40500
62423,33773,40446
62399,33752,40397
62370,33730,40355
62339,33705,40315
62317,33681,40277
62303,33659,40244
62286,33638,40211
62268,33618,40175
62252,33599,40135
62235,33581,40097
62212,33563,40064
62192,33545,40034
62182,33533,40008
62170,33520,39983
62148,33501,39953
62128,33482,39920
62120,33471,39896
62115,33467,39883
62106,33460,39873
62100,33451,39866
62102,33450,39867
62102,33455,39874
62103,33461,39889
62118,33475,39917
62154,33505,39970
62203,33551,40048
62257,33608,40148
62325,33676,40271
62409,33761,40422
62505,33860,40599
62611,33969,40795
62733,34091,41010
62869,34225,41243
63008,34363,41485
63141,34499,41725
63273,34640,41965
63406,34783,42206
63532,34917,42439
63648,35035,42655
63760,35145,42855
63860,35248,43035
63940,35336,43189
64005,35408,43316
64066,35476,43426
64120,35539,43524
64154,35587,43603
64173,35619,43659
64189,35641,43699
64202,35660,43727
64209,35674,43745
64214,35682,43757
64223,35688,43764
64228,35688,43762
64221,35676,43749
64214,35663,43733
64214,35654,43719
64213,35646,43705
64205,35633,43686
64197,35620,43661
64196,35609,43635
64194,35596,43612
64185,35580,43588
64177,35565,43561
64169,35553,43531
64150,35533,43492
64119,35503,43444
64088,35468,43391
64060,35432,43337
64028,35393,43279
63986,35352,43213
63944,35313,43142
63903,35273,43071
63858,35230,43002
63814,35186,42933
63784,35151,42869
63765,35124,42813
63743,35100,42767
63720,35078,42725
63705,35064,42691
63698,35060,42668
63693,35062,42657
63688,35069,42650
63685,35080,42645
63686,35092,42646
63683,35097,42652
63682,35099,42660
63697,35108,42677
63727,35120,42706
63759,35127,42745
63785,35135,42786
63802,35149,42820
63807,35169,42849
63806,35188,42872
63810,35205,42886
63826,35219,42894
63839,35229,42898
63840,35228,42894
63838,35224,42884
63843,35222,42875
63844,35218,42867
63835,35207,42852
63826,35191,42830
63818,35173,42802
63804,35150,42765
63781,35119,42719
63758,35086,42669
63738,35055,42620
63707,35023,42571
63666,34986,42521
63629,34951,42470
63597,34923,42422
63564,34895,42374
63528,34862,42319
63499,34830,42258
63474,34799,42193
63438,34762,42124
63397,34719,42054
63365,34679,41991
63338,34643,41934
63302,34608,41879
63257,34571,41822
63217,34535,41767
63184,34506,41721
63151,34479,41680
63119,34455,41634
63098,34434,41586
63080,34416,41536
63054,34391,41479
63027,34361,41415
63003,34330,41350
62981,34299,41289
62953,34267,41234
62928,34239,41183
62908,34217,41141
62884,34198,41106
62857,34177,41072
62837,34156,41038
62826,34140,41006
62811,34122,40973
62787,34097,40935
62765,34068,40893
62755,34044,40858
62748,34027,40829
62734,34003,40800
62714,33974,40770
62694,33949,40742
62671,33927,40711
62643,33904,40677
62619,33885,40644
62601,33874,40613
62580,33864,40581
62554,33848,40546
62531,33830,40514
62514,33815,40481
62493,33797,40446
62470,33777,40408
62454,33760,40370
62438,33747,40341
62414,33735,40317
62389,33719,40294
62376,33705,40272
62374,33697,40254
62371,33691,40242
62369,33692,40239
62376,33706,40252
62393,33732,40290
62419,33767,40348
62457,33813,40425
62512,33869,40524
62581,33935,40651
62661,34012,40803
62756,34107,40977
62869,34223,41178
62989,34351,41403
63103,34483,41638
63220,34618,41878
63349,34757,42123
63481,34900,42369
63606,35039,42607
63728,35169,42835
63850,35290,43050
63962,35400,43251
64058,35496,43429
64146,35581,43584
64227,35656,43718
64293,35715,43826
64343,35757,43908
64388,35790,43967
64428,35816,44010
64453,35833,44039
64464,35842,44055
64471,35847,44061
64469,35846,44058
64451,35836,44045
64427,35821,44025
64408,35807,44006
64394,35798,43990
64381,35791,43975
64372,35784,43957
64371,35779,43936
64374,35773,43911
64372,35758,43880
64364,35737,43844
64356,35716,43810
64345,35697,43782
64328,35676,43755
64306,35652,43719
64279,35628,43675
64245,35601,43625
64199,35570,43572
64147,35536,43513
64101,35500,43448
64056,35459,43379
64001,35413,43303
63946,35365,43226
63902,35325,43158
63862,35291,43100
63824,35260,43046
63798,35237,42993
63788,35222,42949
63784,35210,42916
63775,35197,42892
63771,35188,42879
63779,35188,42876
63788,35195,42879
63791,35202,42887
63792,35212,42902
63803,35223,42921
63817,35229,42938
63825,35234,42955
63836,35243,42977
63854,35257,43001
63867,35269,43019
63877,35276,43031
63895,35284,43045
63913,35292,43058
63917,35291,43064
63910,35284,43061
63903,35278,43053
63896,35275,43044
63882,35268,43032
63862,35254,43012
63844,35238,42984
63829,35219,42951
63808,35192,42913
63782,35163,42870
63754,35138,42822
63722,35113,42769
63681,35080,42706
63639,35038,42635
63605,34998,42568
63575,34958,42509
63543,34914,42451
63514,34869,42390
63494,34833,42333
63473,34806,42281
63444,34782,42228
63410,34762,42173
63378,34745,42117
63344,34722,42060
63306,34691,42000
63268,34659,41937
63232,34629,41873
63192,34598,41810
63146,34565,41743
63103,34530,41675
63066,34493,41611
63027,34449,41548
62985,34400,41481
62949,34352,41413
62921,34312,41352
62891,34272,41293
62853,34229,41234
62819,34189,41178
62795,34158,41127
62772,34128,41075
62744,34096,41021
62719,34068,40970
62697,34045,40926
62669,34021,40885
62638,33996,40843
62614,33976,40801
62593,33956,40764
62566,33930,40727
62539,33906,40689
62520,33893,40656
62502,33884,40629
62480,33872,40601
62462,33859,40570
62452,33851,40539
62440,33848,40512
62424,33842,40486
62412,33831,40460
62406,33819,40433
62397,33802,40402
62377,33778,40367
62351,33752,40332
62332,33729,40300
62310,33705,40264
62278,33673,40219
62245,33639,40171
62222,33610,40131
62201,33582,40098
62173,33553,40065
62148,33527,40033
62130,33509,40003
62110,33491,39972
62085,33473,39936
62067,33457,39899
62055,33442,39862
62037,33419,39823
62013,33390,39782
61992,33365,39742
61974,33350,39711
61957,33341,39692
61945,33335,39687
61947,33339,39698
61964,33359,39733
61993,33395,39794
62036,33444,39877
62101,33509,39987
62186,33591,40131
62282,33685,40302
62388,33792,40493
62508,33915,40705
62637,34050,40936
62763,34187,41176
62887,34324,41419
63014,34462,41661
63139,34596,41900
63251,34718,42126
63356,34829,42336
63456,34933,42529
63547,35031,42706
63626,35120,42865
63701,35198,43004
63777,35264,43121
63842,35315,43214
63887,35349,43285
63920,35372,43338
63945,35389,43376
63953,35397,43395
63945,35395,43396
63935,35389,43387
63929,35386,43375
63919,35380,43360
63904,35367,43338
63890,35352,43312
63881,35340,43286
63866,35328,43259
63846,35313,43229
63832,35300,43202
63825,35288,43177
63814,35270,43148
63798,35247,43113
63785,35226,43074
63771,35206,43035
63746,35183,42994
63711,35153,42945
63676,35122,42891
63637,35089,42834
63591,35048,42773
63544,35002,42704
63505,34960,42632
63468,34924,42560
63425,34890,42488
63384,34852,42415
63355,34816,42342
63333,34783,42277
63311,34751,42220
63292,34724,42172
63278,34703,42137
63264,34688,42114
63246,34677,42099
63235,34671,42090
63236,34676,42091
63237,34686,42100
63235,34695,42110
63237,34702,42119
63248,34711,42128
63257,34716,42134
63258,34717,42138
63263,34721,42145
63275,34730,42160
63283,34735,42176
63282,34730,42184
63282,34722,42185
63288,34720,42189
63290,34722,42199
63284,34722,42207
63279,34724,42208
63279,34727,42202
63273,34723,42185
63260,34712,42159
63250,34702,42132
63240,34694,42102
63218,34676,42064
63186,34648,42019
63156,34617,41971
63130,34586,41923
63099,34550,41872
63068,34510,41815
63044,34473,41758
63019,34439,41701
62980,34402,41638
62936,34365,41566
62898,34329,41492
62864,34293,41423
62828,34258,41360
62791,34220,41298
62756,34181,41235
62719,34139,41173
62677,34094,41108
62634,34050,41042
62597,34010,40978
62561,33975,40919
62527,33946,40861
62501,33924,40806
62479,33903,40755
62452,33878,40706
62422,33851,40658
62399,33828,40613
62381,33806,40568
62359,33782,40518
62331,33751,40461
62305,33716,40402
62279,33680,40350
62249,33642,40304
62216,33606,40260
62192,33579,40221
62177,33561,40187
62158,33543,40153
62133,33525,40113
62112,33509,40069
62097,33499,40028
62076,33486,39990
62048,33465,39949
62025,33438,39909
62010,33410,39875
61994,33383,39844
61982,33359,39813
61980,33342,39783
61977,33326,39755
61963,33304,39720
61943,33280,39680
61926,33260,39641
61910,33242,39609
61888,33225,39579
61864,33215,39548
61848,33213,39525
61833,33211,39505
61809,33200,39481
61784,33185,39455
61766,33172,39435
61751,33161,39423
61735,33155,39416
61727,33157,39415
61735,33171,39425
61754,33194,39453
61778,33226,39502
61818,33269,39573
61880,33328,39675
61953,33398,39806
62032,33474,39958
62123,33557,40127
62224,33649,40308
62326,33747,40496
62428,33848,40685
62539,33952,40875
62649,34056,41064
62748,34152,41246
62835,34240,41417
62919,34326,41581
62998,34410,41736
63065,34488,41880
63121,34555,42005
63176,34616,42108
63227,34673,42194
63267,34721,42266
63299,34753,42321
63327,34777,42363
63347,34792,42394
63352,34797,42409
63347,34794,42408
63341,34787,42396
63331,34771,42376
63313,34750,42349
63293,34729,42315
63280,34714,42276
63271,34701,42234
63254,34685,42191
63230,34667,42147
63206,34647,42106
63182,34623,42062
63149,34589,42007
63110,34548,41942
63073,34509,41875
63034,34471,41805
62989,34425,41725
62946,34378,41641
62911,34331,41559
62869,34280,41479
62817,34225,41395
62769,34175,41309
62732,34130,41228
62694,34085,41149
62651,34038,41072
62613,33994,41003
62584,33959,40946
62560,33932,40898
62536,33908,40854
62518,33890,40820
62509,33884,40802
62501,33881,40795
62495,33876,40792
62502,33876,40798
62517,33882,40815
62525,33888,40839
62529,33894,40862
62541,33907,40887
62557,33923,40913
62570,33937,40937
62584,33948,40957
62604,33958,40973
62624,33969,40990
62637,33979,41004
62647,33991,41014
62662,34006,41022
62673,34018,41029
62672,34021,41026
62665,34014,41011
62661,34002,40989
62653,33987,40964
62637,33968,40934
62617,33947,40900
62598,33928,40866
62573,33908,40833
62539,33882,40793
62506,33853,40746
62478,33826,40697
62446,33794,40642
62406,33756,40580
62364,33720,40517
62329,33691,40463
62297,33664,40415
62262,33631,40362
62231,33594,40303
62204,33556,40245
62172,33513,40185
62134,33470,40122
62100,33435,40064
62069,33408,40012
62029,33380,39958
61983,33349,39902
61946,33320,39847
61919,33293,39797
61888,33263,39746
61855,33231,39689
61831,33203,39630
61809,33176,39571
61780,33142,39512
61749,33105,39452
61725,33070,39397
61703,33040,39349
61676,33008,39305
61646,32975,39259
61622,32940,39210
61601,32903,39160
61576,32866,39111
61556,32835,39066
61542,32812,39024
61526,32795,38985
61500,32775,38943
61473,32753,38897
61451,32735,38852
61427,32718,38810
61395,32697,38765
61361,32671,38718
61331,32644,38678
61302,32619,38645
61273,32597,38611
61254,32580,38577
61246,32571,38550
61233,32561,38528
61213,32545,38502
61199,32526,38474
61191,32512,38450
61182,32501,38431
61175,32492,38417
61177,32493,38414
61189,32506,38426
61203,32525,38453
61224,32552,38497
61263,32593,38563
61319,32650,38655
61382,32715,38769
61454,32787,38902
61543,32874,39055
61642,32974,39233
61740,33080,39430
61844,33195,39639
61962,33322,39859
62084,33448,40084
62199,33564,40302
62307,33669,40506
62415,33771,40700
62514,33870,40885
62598,33961,41055
62673,34044,41203
62746,34122,41335
62811,34193,41452
62858,34250,41548
62894,34291,41620
62927,34322,41671
62956,34344,41709
62975,34356,41735
62986,34358,41746
62991,34355,41747
62985,34348,41742
62967,34331,41727
62950,34309,41703
62936,34288,41674
62919,34269,41642
62899,34249,41609
62881,34227,41574
62865,34206,41537
62841,34180,41495
62812,34152,41447
62788,34129,41395
62768,34110,41345
62740,34087,41297
62704,34058,41244
62669,34024,41189
62638,33988,41130
62601,33946,41063
62559,33902,40990
62523,33861,40918
62486,33822,40846
62441,33783,40772
62391,33743,40697
62350,33710,40628
62316,33680,40568
62280,33646,40509
62247,33612,40451
62224,33589,40401
62210,33574,40359
62198,33561,40328
62191,33547,40306
62192,33540,40293
62194,33544,40288
62195,33552,40288
62202,33563,40292
62219,33576,40305
62235,33584,40325
62247,33587,40349
62257,33589,40370
62269,33596,40391
62277,33603,40414
62281,33608,40435
62290,33615,40453
62306,33629,40472
62320,33644,40492
62328,33657,40507
62332,33666,40515
62332,33669,40515
62325,33666,40511
62315,33660,40501
62309,33656,40490
62299,33652,40479
62277,33636,40461
62249,33609,40429
62229,33577,40391
62213,33545,40353
62189,33513,40309
62163,33483,40255
62141,33456,40197
62122,33430,40140
62094,33396,40079
62060,33356,40014
62029,33316,39951
61997,33284,39894
61961,33256,39840
61926,33229,39781
61898,33201,39723
61871,33169,39669
61833,33130,39612
61790,33087,39547
61757,33045,39481
61731,33007,39419
61700,32970,39357
61667,32936,39297
61640,32908,39240
61613,32881,39185
61581,32848,39130
61552,32816,39073
61527,32791,39020
61500,32764,38970
61466,32732,38921
61436,32700,38873
61412,32675,38829
61382,32651,38787
61348,32626,38746
61324,32600,38706
61309,32580,38669
61290,32561,38633
61264,32539,38590
61241,32516,38545
61224,32495,38505
61204,32476,38471
61180,32456,38435
61159,32438,38397
61143,32427,38362
61118,32413,38326
61086,32390,38285
61057,32365,38243
61036,32345,38208
61013,32324,38177
60989,32301,38146
60972,32282,38114
60958,32265,38081
60941,32241,38049
60927,32220,38019
60921,32207,37995
60918,32200,37978
60911,32195,37966
60906,32194,37959
60911,32202,37960
60921,32218,37975
60932,32239,38006
60952,32271,38056
60992,32319,38133
61045,32380,38238
61105,32449,38365
61180,32526,38514
61273,32617,38687
61377,32720,38882
61488,32828,39086
61605,32939,39293
61729,33052,39504
61853,33167,39718
61971,33280,39931
62090,33391,40144
62211,33506,40354
62319,33617,40552
62414,33722,40734
62506,33822,40901
62589,33915,41053
62654,33990,41182
62703,34047,41287
62749,34097,41375
62790,34140,41447
62818,34166,41495
62835,34176,41517
62850,34180,41522
62862,34180,41517
62857,34173,41501
62842,34158,41477
62830,34141,41453
62816,34124,41430
62792,34101,41403
62763,34073,41369
62738,34048,41332
62713,34029,41297
62683,34009,41261
62656,33988,41225
62637,33971,41196
62619,33956,41170
62595,33936,41138
62569,33911,41095
62544,33883,41039
62516,33850,40979
62482,33814,40916
62444,33775,40847
62404,33738,40770
62356,33697,40688
62301,33651,40605
62252,33605,40525
62219,33567,40451
62192,33532,40385
62165,33498,40324
62145,33466,40267
62128,33439,40218
62106,33417,40174
62079,33396,40135
62059,33378,40104
62049,33366,40086
62041,33357,40080
62032,33354,40078
62032,33359,40083
62045,33373,40099
62060,33388,40122
62073,33397,40144
62092,33408,40165
62115,33422,40190
62131,33434,40216
62143,33443,40239
62158,33454,40261
62174,33471,40282
62186,33487,40300
62191,33496,40310
62197,33504,40313
62199,33506,40309
62192,33496,40297
62183,33482,40283
62181,33474,40274
62179,33470,40268
62168,33465,40257
62153,33458,40236
62140,33452,40210
62124,33441,40178
62099,33417,40136
62073,33384,40088
62053,33354,40042
62031,33327,39998
62001,33296,39949
61969,33263,39891
61941,33233,39833
61909,33201,39777
61869,33162,39716
61829,33123,39651
61795,33091,39589
61764,33061,39530
61728,33028,39468
61695,32997,39403
61666,32970,39343
61633,32942,39284
61594,32908,39221
61563,32875,39158
61540,32845,39102
61515,32810,39047
61483,32767,38990
61454,32723,38933
61432,32687,38880
61408,32657,38829
61381,32630,38775
61360,32604,38722
61341,32580,38673
61317,32555,38626
61287,32526,38579
61257,32496,38534
61230,32469,38493
61199,32441,38455
61173,32416,38417
61160,32398,38382
61146,32381,38351
61120,32359,38318
61090,32335,38279
61068,32316,38240
61050,32297,38203
61026,32271,38166
61003,32246,38126
60988,32227,38091
60974,32211,38060
60952,32191,38026
60928,32169,37987
60909,32152,37951
60888,32139,37915
60863,32123,37877
60844,32108,37839
60834,32098,37808
60822,32088,37782
60801,32072,37750
60784,32054,37719
60773,32038,37698
60764,32023,37686
60754,32011,37679
60754,32009,37682
60770,32025,37703
60793,32049,37743
60819,32079,37799
60863,32119,37874
60924,32179,37975
60996,32258,38107
61079,32348,38264
61174,32450,38443
61280,32560,38637
61389,32670,38838
61497,32783,39048
61612,32901,39264
61736,33019,39483
61861,33131,39703
61983,33236,39918
62104,33344,40130
62215,33455,40334
62307,33556,40521
62385,33646,40685
62459,33730,40831
62526,33808,40961
62580,33872,41069
62623,33923,41155
62661,33967,41224
62686,34001,41277
62695,34021,41313
62700,34034,41331
62709,34044,41339
62715,34047,41338
62712,34039,41325
62709,34026,41302
62708,34011,41273
62700,33994,41244
62688,33976,41217
62678,33960,41191
62669,33945,41162
62655,33925,41132
62636,33896,41098
62618,33867,41065
62604,33841,41031
62587,33814,40991
62564,33787,40942
62540,33761,40889
62513,33734,40833
62475,33699,40771
62427,33657,40698
62381,33616,40616
62341,33578,40534
62296,33539,40454
62248,33498,40376
62206,33463,40307
62166,33432,40247
62123,33399,40191
62083,33364,40135
62055,33334,40087
62034,33308,40050
62012,33280,40018
61996,33257,39989
61993,33243,39969
61993,33233,39961
61986,33222,39961
61975,33211,39966
61969,33208,39976
61967,33216,39991
61968,33229,40008
61979,33246,40026
61996,33265,40048
62011,33282,40075
62020,33299,40101
62033,33316,40127
62047,33331,40151
62053,33340,40166
62050,33341,40171
62053,33341,40171
62059,33343,40170
62060,33342,40164
62053,33335,40150
62048,33326,40129
62040,33315,40107
62023,33301,40082
62002,33280,40047
61986,33257,40004
61972,33232,39958
61949,33202,39910
61920,33170,39862
61894,33139,39815
61871,33111,39766
61847,33083,39715
61819,33051,39658
61791,33021,39600
61762,32993,39543
61725,32959,39484
61690,32923,39419
61665,32894,39357
61643,32868,39301
61615,32838,39246
61585,32806,39189
61563,32777,39133
61541,32748,39079
61511,32712,39027
61476,32673,38972
61442,32636,38916
61406,32600,38860
61364,32563,38803
61330,32527,38744
61305,32494,38686
61277,32463,38629
61241,32432,38575
61208,32407,38525
61184,32386,38482
61162,32361,38440
61135,32332,38392
61109,32305,38345
61086,32283,38304
61059,32261,38261
61025,32239,38214
60998,32221,38167
60980,32209,38127
60962,32194,38089
60937,32170,38045
60913,32144,37999
60894,32125,37958
60874,32108,37922
60852,32087,37886
60836,32067,37849
60824,32050,37814
60804,32031,37779
60781,32011,37742
60765,31992,37706
60748,31975,37674
60725,31951,37639
60702,31923,37603
60689,31902,37569
60682,31889,37543
60672,31878,37523
60661,31866,37500
60654,31860,37475
60646,31858,37450
60633,31852,37423
60625,31845,37396
60627,31843,37378
60632,31846,37378
60640,31853,37395
60656,31865,37431
60686,31889,37493
60728,31926,37580
60778,31980,37694
60847,32055,37836
60938,32150,38004
61038,32256,38191
61142,32367,38392
61252,32482,38604
61368,32604,38826
61481,32730,39055
61592,32853,39282
61706,32976,39508
61824,33098,39729
61934,33215,39939
62033,33321,40130
62126,33415,40304
62213,33500,40462
62290,33572,40601
62353,33628,40716
62409,33675,40809
62455,33716,40884
62488,33748,40939
62509,33770,40974
62528,33790,40995
62542,33806,41006
62545,33811,41005
62539,33806,40993
62533,33796,40972
62524,33779,40940
62504,33754,40898
62483,33727,40852
62470,33708,40807
62457,33692,40760
62434,33670,40712
62407,33641,40663
62385,33612,40615
62361,33584,40570
62327,33553,40522
62289,33517,40466
62254,33482,40405
62215,33445,40341
62167,33403,40271
62117,33362,40195
62072,33320,40118
62026,33272,40041
61976,33222,39966
61929,33176,39894
61889,33135,39824
61845,33093,39755
61801,33051,39686
61767,33015,39623
61742,32985,39569
61718,32954,39523
61696,32928,39482
61682,32914,39452
61676,32911,39436
61671,32914,39431
61666,32918,39432
61670,32928,39437
61687,32944,39454
61706,32961,39480
61723,32975,39508
61745,32992,39535
61771,33015,39565
61790,33039,39591
61800,33066,39609
61810,33094,39621
61823,33121,39632
61831,33141,39643
61830,33149,39652
61831,33149,39658
61833,33145,39663
61827,33133,39663
61818,33117,39660
61814,33102,39657
61809,33087,39654
61795,33064,39642
61779,33035,39618
61767,33009,39590
61748,32984,39562
61721,32959,39529
61697,32936,39490
61681,32916,39447
61661,32891,39399
61629,32861,39347
61597,32829,39291
61567,32798,39235
61532,32764,39176
61490,32725,39113
61452,32688,39050
61421,32657,38990
61388,32626,38931
61351,32594,38870
61317,32563,38811
61290,32534,38754
61261,32502,38693
61231,32467,38629
61209,32438,38569
61189,32413,38517
61160,32383,38468
61127,32348,38418
61100,32318,38370
61075,32291,38322
61044,32259,38270
61012,32224,38212
60986,32189,38152
60962,32157,38097
60932,32125,38046
60901,32096,37995
60876,32076,37950
60852,32058,37913
60824,32035,37875
60801,32006,37831
60784,31981,37787
60764,31963,37747
60740,31945,37708
60719,31929,37670
60705,31913,37636
60689,31892,37601
60667,31865,37565
60647,31841,37530
60631,31821,37496
60613,31802,37459
60590,31780,37417
60571,31759,37375
60558,31745,37344
60545,31738,37322
60528,31730,37298
60515,31721,37274
60506,31713,37252
60494,31701,37230
60478,31684,37205
60466,31668,37185
60456,31653,37173
60440,31639,37167
60426,31632,37166
60430,31641,37178
60450,31668,37210
60475,31704,37260
60508,31748,37330
60563,31807,37424
60635,31881,37549
60715,31965,37698
60808,32058,37867
60917,32163,38057
61038,32280,38268
61161,32401,38491
61288,32518,38716
61419,32636,38935
61548,32755,39152
61668,32873,39364
61784,32990,39568
61896,33102,39760
61992,33203,39933
62069,33292,40085
62138,33370,40221
62201,33439,40344
62251,33494,40448
62287,33532,40529
62318,33561,40586
62345,33583,40627
62360,33597,40652
62363,33601,40660
62363,33602,40654
62364,33607,40643
62353,33607,40627
62327,33593,40598
62298,33568,40557
62271,33543,40516
62242,33516,40476
62215,33488,40433
62197,33462,40385
62184,33436,40333
62163,33403,40279
62134,33367,40224
62107,33332,40170
62082,33300,40110
62046,33263,40041
62007,33221,39967
61974,33179,39893
61942,33136,39822
61901,33091,39749
61854,33046,39671
61809,33007,39590
61764,32971,39509
61715,32930,39425
61668,32885,39343
61632,32845,39273
61605,32812,39223
61581,32786,39188
61563,32769,39161
61555,32762,39139
61551,32757,39124
61545,32751,39120
61543,32747,39126
61549,32750,39142
61561,32759,39166
61573,32770,39194
61587,32786,39224
61605,32808,39256
61621,32835,39287
61636,32859,39317
61660,32882,39347
61687,32903,39377
61703,32920,39404
61711,32930,39427
61720,32937,39445
61729,32941,39461
61732,32941,39468
61730,32934,39469
61730,32928,39471
61734,32920,39472
61733,32905,39472
61722,32884,39463
61710,32865,39444
61700,32849,39422
61685,32829,39393
61663,32803,39353
61641,32779,39306
61622,32762,39259
61600,32744,39209
61576,32728,39159
61556,32715,39115
61534,32700,39072
61504,32678,39022
61472,32650,38966
61440,32620,38910
61408,32590,38858
61374,32556,38804
61342,32525,38748
61315,32499,38693
61287,32478,38639
61253,32450,38581
61221,32414,38519
61195,32380,38462
61171,32352,38414
61146,32329,38369
61126,32311,38323
61109,32294,38277
61086,32272,38232
61056,32244,38188
61026,32216,38146
61001,32189,38105
60973,32162,38064
60940,32131,38019
60911,32101,37972
60888,32071,37924
60862,32039,37875
60837,32005,37825
60825,31981,37779
60820,31964,37736
60806,31944,37692
60785,31918,37645
60769,31895,37602
60755,31878,37565
60735,31860,37530
60711,31839,37495
60691,31819,37460
60671,31800,37428
60645,31780,37397
60619,31762,37366
60606,31750,37342
60604,31742,37329
60602,31733,37321
60599,31724,37314
60606,31722,37315
60625,31727,37329
60647,31738,37351
60676,31765,37386
60720,31810,37448
60771,31871,37543
60831,31946,37665
60908,32036,37812
61002,32138,37983
61101,32248,38174
61198,32363,38380
61304,32485,38598
61420,32611,38821
61534,32732,39042
61640,32842,39256
61744,32944,39465
61848,33044,39669
61945,33138,39860
62028,33220,40031
62107,33293,40176
62184,33359,40301
62250,33415,40407
62299,33457,40494
62341,33493,40568
62378,33526,40626
62400,33552,40662
62407,33567,40678
62411,33578,40684
62412,33589,40683
62404,33590,40670
62386,33581,40645
62371,33567,40611
62356,33551,40575
62332,33529,40536
62305,33503,40493
62287,33477,40453
62269,33449,40417
62243,33417,40377
62213,33382,40327
62189,33351,40271
62163,33323,40213
62128,33291,40152
62091,33253,40083
62056,33213,40008
62021,33170,39930
61980,33121,39846
61937,33067,39757
61893,33013,39663
61845,32959,39569
61794,32905,39479
61747,32855,39398
61710,32812,39326
61674,32772,39266
61638,32732,39210
61615,32699,39159
61605,32679,39121
61592,32667,39095
61575,32659,39075
61564,32656,39064
61564,32667,39067
61563,32687,39080
61561,32706,39094
61567,32726,39112
61578,32749,39141
61586,32766,39172
61592,32773,39197
61611,32779,39224
61640,32787,39259
61666,32797,39297
61687,32805,39331
61709,32817,39362
61728,32833,39391
61735,32847,39413
61735,32860,39423
61736,32873,39428
61736,32877,39428
61725,32867,39421
61711,32852,39404
61699,32840,39381
61685,32826,39355
61659,32807,39324
61629,32787,39287
61607,32770,39246
61586,32754,39205
61560,32731,39163
61534,32701,39118
61515,32669,39071
61496,32636,39024
61470,32599,38971
61442,32557,38908
61416,32518,38845
61390,32486,38789
61360,32455,38737
61335,32424,38689
61314,32396,38642
61289,32367,38590
61257,32335,38532
61228,32303,38469
61201,32275,38407
61171,32246,38349
61135,32216,38293
61101,32188,38239
61070,32161,38186
61033,32128,38129
60993,32093,38069
60961,32062,38009
60936,32037,37958
60908,32013,37914
60880,31989,37875
60864,31971,37837
60853,31954,37799
60838,31932,37756
60816,31904,37705
60794,31878,37653
60773,31856,37605
60751,31838,37564
60730,31822,37530
60715,31810,37500
60700,31798,37472
60678,31781,37442
60655,31760,37411
60638,31739,37382
60623,31716,37353
60603,31689,37319
60584,31664,37284
60572,31644,37253
60562,31628,37230
60544,31615,37209
60529,31606,37192
60525,31604,37181
60526,31606,37178
60526,31614,37186
60537,31635,37213
60568,31674,37267
60614,31722,37344
60668,31777,37439
60737,31845,37557
60826,31931,37705
60924,32032,37881
61029,32142,38078
61151,32263,38297
61290,32398,38535
61431,32540,38782
61573,32679,39033
61722,32818,39286
61872,32957,39539
62005,33090,39784
62125,33217,40017
62240,33340,40234
62345,33454,40432
62430,33551,40607
62500,33633,40757
62565,33704,40885
62623,33765,40993
62666,33814,41081
62698,33851,41145
62724,33879,41190
62742,33897,41220
62748,33903,41234
62749,33899,41235
62751,33889,41226
62746,33875,41211
62726,33854,41191
62702,33834,41165
62687,33820,41139
62674,33809,41113
62656,33797,41084
62641,33786,41055
62631,33776,41028
62617,33763,41003
62596,33745,40975
62580,33728,40944
62568,33713,40912
62548,33694,40875
62517,33661,40826
62482,33618,40765
62448,33572,40697
62410,33526,40628
62365,33476,40552
62325,33429,40476
62292,33389,40406
62256,33351,40340
62213,33311,40271
62173,33273,40203
62141,33242,40145
62108,33212,40096
62075,33182,40052
62055,33158,40015
62045,33142,39986
62039,33128,39960
62035,33115,39939
62035,33108,39926
62039,33111,39929
62045,33121,39944
62062,33134,39961
62092,33153,39981
62123,33179,40005
62142,33203,40034
62158,33224,40069
62185,33243,40110
62210,33265,40149
62216,33284,40181
62214,33299,40210
62211,33313,40237
62205,33324,40256
62195,33326,40264
62187,33324,40262
62182,33320,40257
62172,33313,40248
62151,33298,40230
62128,33277,40201
62113,33259,40171
62097,33246,40146
62079,33231,40120
62065,33212,40091
62055,33192,40056
62038,33171,40017
62012,33146,39970
61988,33120,39919
61969,33095,39866
61945,33068,39807
61920,33039,39744
61905,33014,39678
61890,32993,39616
61863,32969,39559
61830,32939,39505
61803,32911,39454
61780,32885,39406
61750,32853,39360
61715,32815,39310
61686,32780,39260
61657,32746,39211
61615,32710,39160
61566,32677,39106
61527,32652,39053
61500,32637,39008
61474,32623,38967
61448,32604,38922
61423,32586,38874
61397,32566,38827
61371,32537,38778
61349,32504,38727
61333,32470,38679
61318,32437,38635
61299,32405,38591
61280,32374,38544
61264,32345,38500
61243,32319,38462
61218,32298,38429
61194,32280,38396
61173,32262,38362
61149,32242,38326
61121,32218,38289
61099,32196,38253
61082,32177,38222
61060,32158,38191
61036,32143,38160
61021,32134,38135
61012,32124,38114
60998,32104,38087
60980,32079,38056
60967,32060,38028
60963,32051,38012
60957,32045,38003
60950,32040,37996
60953,32044,37998
60970,32062,38022
60996,32089,38071
61035,32123,38140
61093,32170,38232
61166,32235,38350
61247,32316,38491
61335,32412,38653
61435,32524,38838
61545,32646,39046
61661,32774,39272
61786,32904,39512
61922,33041,39766
62062,33184,40025
62194,33325,40278
62321,33464,40524
62445,33596,40759
62556,33712,40976
62653,33811,41171
62744,33902,41344
62832,33987,41499
62905,34061,41631
62959,34120,41738
63004,34167,41822
63045,34207,41891
63074,34240,41949
63092,34263,41991
63110,34277,42015
63127,34289,42029
63135,34297,42036
63135,34297,42032
63135,34294,42018
63133,34289,42000
63120,34278,41981
63102,34262,41959
63090,34249,41938
63085,34243,41922
63077,34237,41909
63064,34225,41888
63056,34214,41861
63053,34209,41836
63045,34203,41811
63026,34187,41780
63005,34163,41746
62983,34134,41705
62953,34099,41654
62917,34058,41595
62881,34016,41533
62844,33977,41472
62802,33937,41410
62759,33897,41342
62726,33862,41274
62695,33830,41209
62657,33793,41143
62621,33755,41077
62597,33723,41021
62578,33696,40978
62560,33673,40944
62546,33654,40914
62540,33640,40894
62533,33629,40885
62523,33619,40879
62522,33615,40876
62537,33624,40885
62553,33639,40902
62563,33651,40923
62575,33661,40946
62593,33672,40976
62609,33684,41013
62619,33691,41047
62632,33704,41076
62650,33728,41106
62662,33751,41135
62664,33767,41155
62663,33775,41163
62662,33782,41165
62657,33782,41162
62648,33772,41146
62646,33759,41120
62647,33750,41092
62640,33739,41061
62626,33726,41026
62614,33717,40990
62602,33705,40955
62580,33682,40919
62548,33649,40875
62515,33614,40824
62482,33579,40773
62441,33540,40723
62400,33498,40670
62371,33464,40616
62347,33435,40563
62316,33401,40509
62278,33364,40448
62242,33325,40382
62206,33287,40319
62172,33251,40260
62142,33218,40202
62116,33191,40141
62085,33168,40077
62046,33142,40014
62010,33116,39954
61981,33090,39895
61952,33058,39840
61915,33022,39789
61878,32991,39745
61849,32966,39704
61821,32939,39663
61788,32909,39620
61759,32879,39572
61738,32853,39522
61715,32825,39472
61685,32792,39418
61661,32758,39362
61647,32735,39313
61635,32721,39271
61618,32708,39229
61602,32694,39189
61588,32680,39156
61569,32660,39126
61549,32638,39096
61542,32624,39070
61536,32613,39045
61515,32597,39019
61488,32577,38989
61469,32559,38960
61455,32543,38932
61434,32525,38906
61406,32504,38880
61385,32482,38857
61373,32465,38837
61353,32451,38820
61335,32435,38802
61334,32414,38783
61339,32385,38764
61337,32355,38743
61337,32339,38723
61348,32344,38714
61359,32364,38718
61370,32391,38733
61391,32428,38766
61426,32477,38823
61467,32531,38904
61515,32590,39009
61580,32664,39145
61668,32760,39312
61765,32866,39503
61863,32977,39710
61973,33094,39930
62101,33222,40163
62239,33360,40407
62377,33502,40656
62517,33645,40911
62655,33788,41164
62784,33921,41406
62901,34043,41628
63013,34159,41832
63117,34267,42015
63203,34358,42173
63273,34430,42306
63337,34491,42420
63394,34546,42519
63435,34590,42599
63464,34621,42654
63489,34645,42690
63506,34659,42712
63507,34656,42718
63501,34648,42711
63502,34644,42704
63504,34643,42697
63496,34639,42688
63485,34634,42675
63476,34629,42657
63465,34620,42638
63452,34609,42619
63442,34597,42599
63442,34587,42580
63437,34571,42560
63417,34547,42537
63396,34528,42517
63382,34518,42501
63363,34506,42480
63330,34485,42443
63291,34460,42390
63259,34437,42329
63229,34413,42258
63194,34376,42180
63163,34329,42102
63137,34281,42024
63108,34236,41946
63074,34197,41871
63043,34167,41807
63019,34144,41755
62993,34125,41714
62969,34111,41682
62957,34104,41656
62949,34099,41635
62935,34088,41618
62924,34076,41609
62929,34075,41614
62938,34078,41626
62936,34077,41639
62933,34074,41652
62940,34079,41670
62954,34089,41693
62964,34097,41716
62973,34100,41737
62989,34105,41753
63007,34114,41764
63023,34122,41773
63035,34132,41783
63049,34142,41790
63058,34150,41795
63061,34151,41796
63062,34151,41794
63063,34155,41792
63060,34159,41788
63048,34156,41779
63037,34150,41766
63032,34144,41750
63021,34132,41727
63000,34107,41689
62977,34075,41640
62956,34048,41591
62929,34028,41544
62895,34005,41494
62863,33980,41443
62838,33953,41394
62810,33923,41341
62771,33885,41280
62734,33845,41214
62705,33809,41151
62675,33775,41092
62641,33733,41030
62608,33687,40965
62576,33644,40900
62535,33600,40835
62487,33553,40771
62445,33516,40713
62411,33488,40659
62378,33461,40605
62347,33428,40547
62322,33398,40492
62297,33373,40442
62264,33348,40393
62233,33324,40344
62212,33305,40297
62192,33288,40253
62163,33265,40205
62132,33237,40154
62107,33212,40104
62085,33188,40063
62059,33161,40025
62033,33131,39985
62016,33103,39946
62001,33082,39914
61981,33065,39886
61962,33049,39857
61949,33036,39829
61937,33023,39805
61922,33007,39777
61906,32990,39743
61892,32974,39708
61876,32957,39675
61855,32939,39642
61835,32924,39612
61821,32914,39586
61806,32903,39559
61786,32888,39527
61771,32873,39490
61758,32859,39452
61737,32839,39410
61712,32816,39370
61698,32800,39341
61692,32792,39325
61681,32782,39312
61666,32768,39297
61658,32756,39281
61652,32748,39270
61644,32741,39265
61639,32736,39265
61647,32742,39276
61666,32762,39305
61688,32792,39356
61718,32831,39429
61765,32885,39530
61832,32956,39658
61913,33038,39806
62006,33130,39972
62115,33235,40161
62236,33353,40375
62358,33478,40604
62488,33608,40842
62632,33748,41089
62775,33892,41340
62904,34023,41582
63026,34145,41810
63146,34266,42029
63255,34380,42235
63348,34479,42417
63434,34565,42574
63514,34646,42713
63578,34714,42833
63623,34765,42929
63661,34807,43001
63696,34848,43064
63719,34885,43124
63730,34910,43172
63739,34929,43201
63746,34947,43210
63740,34957,43199
63727,34953,43178
63720,34941,43154
63720,34931,43133
63716,34922,43116
63708,34911,43097
63702,34896,43074
63697,34878,43046
63686,34855,43017
63671,34831,42991
63655,34810,42966
63636,34790,42936
63613,34766,42897
63590,34737,42855
63567,34704,42810
63536,34663,42759
63493,34611,42693
63442,34558,42614
63396,34519,42528
63357,34489,42442
63314,34454,42363
63268,34411,42293
63227,34374,42233
63190,34346,42181
63153,34318,42134
63128,34295,42095
63119,34282,42068
63114,34273,42049
63108,34261,42030
63106,34250,42011
63116,34244,42003
63127,34243,42008
63133,34244,42017
63145,34252,42031
63164,34273,42056
63177,34297,42087
63185,34317,42115
63198,34338,42138
63220,34361,42165
63239,34380,42193
63255,34395,42217
63277,34409,42240
63301,34423,42263
63311,34430,42282
63308,34429,42293
63307,34428,42298
63306,34428,42298
63297,34421,42288
63280,34404,42266
63262,34382,42236
63243,34358,42202
63217,34332,42163
63190,34307,42118
63172,34288,42074
63153,34268,42035
63123,34247,41993
63090,34222,41942
63061,34194,41885
63031,34164,41826
62996,34127,41765
62959,34089,41704
62930,34059,41648
62900,34032,41597
62865,34001,41544
62828,33967,41488
62794,33933,41431
62759,33900,41373
62720,33867,41313
62685,33838,41253
62655,33811,41195
62621,33784,41137
62587,33756,41080
62560,33731,41024
62535,33707,40967
62501,33679,40912
62466,33646,40860
62440,33614,40808
62420,33585,40756
62395,33552,40706
62365,33517,40654
62338,33484,40601
62313,33453,40553
62286,33419,40511
62260,33385,40470
62240,33356,40427
62223,33329,40384
62196,33298,40343
62163,33269,40301
62140,33245,40260
62124,33230,40225
62102,33218,40192
62075,33202,40158
62053,33186,40123
62038,33167,40089
62017,33140,40054
61989,33111,40015
61962,33089,39979
61935,33073,39948
61905,33056,39917
61877,33034,39883
61854,33012,39845
61829,32985,39804
61799,32956,39762
61773,32928,39720
61756,32908,39683
61740,32893,39652
61718,32879,39625
61698,32867,39604
61686,32860,39590
61676,32856,39583
61670,32854,39585
61677,32862,39602
61695,32882,39633
61716,32910,39680
61744,32945,39746
61789,32995,39834
61854,33061,39946
61928,33138,40080
62010,33225,40233
62107,33324,40407
62218,33432,40603
62332,33544,40817
62447,33663,41042
62570,33790,41268
62697,33922,41493
62815,34052,41715
62925,34179,41932
63034,34302,42142
63142,34419,42344
63241,34523,42530
63332,34614,42695
63420,34694,42840
63491,34761,42966
63541,34810,43067
63578,34845,43139
63614,34874,43191
63644,34897,43231
63665,34914,43258
63678,34924,43270
63685,34928,43271
63682,34924,43267
63671,34914,43257
63662,34904,43242
63660,34896,43223
63657,34888,43201
63646,34877,43177
63635,34861,43151
63626,34842,43122
63609,34822,43091
63584,34802,43059
63562,34785,43028
63545,34770,42997
63523,34754,42961
63493,34732,42914
63465,34704,42856
63436,34670,42791
63397,34626,42719
63349,34576,42641
63306,34530,42562
63265,34487,42484
63218,34440,42406
63166,34390,42328
63123,34344,42253
63088,34308,42185
63055,34275,42122
63028,34248,42069
63014,34231,42032
63007,34223,42010
62997,34219,41998
62989,34216,41990
62990,34219,41986
62996,34224,41988
62999,34227,41996
63007,34233,42009
63028,34250,42034
63051,34272,42067
63069,34290,42098
63084,34305,42125
63102,34323,42149
63117,34344,42173
63127,34360,42199
63139,34371,42222
63154,34380,42241
63164,34384,42254
63164,34380,42260
63163,34376,42262
63167,34374,42262
63165,34369,42257
63151,34357,42244
63137,34345,42226
63124,34335,42205
63107,34320,42178
63084,34300,42142
63065,34279,42098
63051,34259,42053
63031,34236,42008
63002,34207,41958
62975,34175,41900
62950,34145,41846
62918,34113,41797
62882,34075,41743
62852,34036,41685
62826,33998,41629
62793,33957,41571
62753,33914,41505
62716,33875,41437
62683,33842,41375
62648,33809,41314
62611,33771,41249
62580,33735,41181
62549,33704,41114
62508,33675,41049
62463,33644,40987
62427,33612,40927
62401,33576,40869
62376,33541,40817
62356,33508,40767
62339,33485,40719
62311,33466,40674
62270,33439,40629
62233,33405,40582
62200,33370,40540
62159,33335,40501
62109,33298,40456
62057,33262,40406
62009,33229,40357
61961,33194,40307
61911,33153,40252
61869,33114,40199
61837,33079,40150
61806,33046,40104
61770,33012,40054
61742,32983,40001
61721,32964,39954
61697,32950,39912
61665,32936,39869
61635,32924,39827
61612,32913,39790
61588,32896,39753
61560,32872,39710
61541,32847,39664
61531,32824,39623
61517,32801,39590
61496,32782,39561
61479,32768,39534
61466,32758,39511
61448,32748,39494
61427,32735,39476
61411,32723,39454
61402,32716,39433
61393,32712,39419
61390,32714,39419
61403,32726,39439
61430,32751,39480
61465,32786,39544
61510,32833,39630
61574,32896,39738
61653,32975,39871
61738,33067,40027
61834,33173,40204
61946,33290,40405
62064,33412,40624
62181,33534,40855
62305,33662,41092
62439,33794,41330
62569,33921,41564
62689,34038,41789
62801,34152,42004
62910,34262,42208
63008,34363,42393
63090,34450,42553
63165,34528,42690
63235,34597,42804
63289,34651,42895
63324,34691,42964
63355,34723,43015
63384,34754,43054
63399,34777,43080
63400,34789,43091
63397,34794,43091
63395,34793,43087
63386,34784,43077
63371,34770,43058
63359,34755,43033
63353,34739,43011
63342,34722,42989
63325,34702,42961
63303,34683,42927
63279,34666,42891
63248,34648,42853
63217,34627,42812
63192,34605,42769
63169,34581,42722
63137,34549,42665
63101,34510,42600
63068,34469,42533
63032,34428,42464
62985,34385,42389
62937,34344,42307
62895,34307,42228
62849,34266,42149
62798,34215,42069
62753,34161,41993
62720,34116,41928
62689,34080,41874
62654,34047,41824
62626,34018,41777
62612,33996,41739
62605,33981,41709
62597,33969,41684
62597,33960,41667
62611,33965,41668
62628,33980,41685
62642,33995,41705
62655,34011,41727
62671,34031,41755
62683,34050,41785
62689,34062,41810
62697,34072,41834
62712,34086,41861
62730,34101,41890
62745,34112,41916
62760,34123,41940
62773,34131,41963
62775,34132,41980
62772,34128,41988
62769,34125,41988
62764,34122,41984
62752,34115,41972
62737,34102,41952
62726,34088,41925
62711,34074,41894
62685,34052,41857
62656,34027,41816
62640,34004,41772
62628,33981,41722
62607,33952,41664
62580,33915,41601
62557,33880,41544
62533,33846,41495
62500,33806,41439
62470,33762,41376
62447,33728,41319
62418,33697,41265
62379,33658,41210
62341,33617,41149
62308,33579,41088
62271,33543,41028
62227,33502,40966
62188,33466,40906
62160,33439,40852
62131,33417,40802
62095,33395,40748
62060,33373,40690
62032,33357,40632
62003,33342,40579
61974,33324,40526
61958,33308,40479
61947,33293,40443
61928,33272,40408
61902,33245,40368
61877,33219,40324
61851,33193,40277
61820,33162,40227
61791,33131,40172
61772,33105,40117
61755,33080,40065
61732,33049,40011
61708,33016,39958
61689,32989,39915
61669,32967,39880
61642,32944,39847
61615,32920,39814
61596,32900,39782
61582,32884,39752
61562,32866,39722
61539,32850,39690
61525,32839,39660
61516,32831,39636
61503,32819,39615
61491,32802,39593
61480,32783,39571
61464,32765,39551
61445,32750,39537
61433,32742,39530
61432,32743,39532
61439,32752,39542
61453,32766,39565
61483,32794,39608
61531,32838,39675
61588,32892,39768
61656,32957,39884
61746,33039,40024
61854,33133,40188
61964,33234,40371
62076,33341,40568
62196,33460,40779
62321,33593,41002
62444,33730,41232
62564,33865,41460
62689,33999,41681
62813,34127,41897
62924,34243,42103
63022,34346,42292
63114,34438,42462
63199,34518,42609
63268,34584,42734
63323,34635,42839
63369,34679,42929
63404,34717,43002
63421,34744,43054
63433,34763,43087
63448,34779,43107
63461,34790,43117
63465,34791,43113
63463,34783,43097
63457,34770,43073
63445,34754,43047
63421,34735,43018
63396,34719,42982
63379,34708,42941
63358,34704,42890
63332,34703,42829
63309,34705,42762
63292,34703,42698
63269,34686,42636
63238,34654,42573
63212,34615,42509
63187,34572,42447
63148,34517,42379
63099,34449,42303
63055,34380,42226
63019,34321,42153
62982,34271,42086
62940,34223,42016
62905,34179,41948
62876,34141,41887
62846,34103,41830
62817,34066,41777
62802,34040,41736
62797,34030,41708
62791,34025,41687
62784,34021,41671
62781,34020,41663
62780,34023,41664
62779,34026,41673
62783,34031,41690
62800,34043,41717
62825,34062,41752
62847,34079,41790
62866,34092,41825
62882,34105,41857
62895,34119,41890
62902,34130,41919
62911,34140,41940
62926,34150,41955
62939,34157,41970
62944,34157,41980
62948,34152,41980
62958,34150,41976
62968,34150,41972
62972,34145,41963
62972,34133,41946
62971,34121,41927
62964,34111,41909
62948,34102,41887
62929,34093,41859
62911,34083,41826
62888,34065,41787
62860,34040,41742
62830,34012,41691
62800,33984,41635
62765,33952,41577
62732,33917,41519
62707,33888,41464
62684,33863,41408
62653,33832,41347
62617,33795,41284
62588,33764,41222
62562,33737,41165
62530,33707,41115
62494,33674,41066
62464,33642,41019
62439,33615,40975
62407,33586,40932
62373,33553,40883
62345,33522,40830
62321,33497,40775
62296,33472,40717
62269,33446,40658
62247,33422,40604
62224,33399,40557
62194,33372,40513
62166,33343,40469
62144,33315,40425
62121,33284,40380
62090,33244,40331
62062,33204,40283
62038,33173,40239
62010,33149,40194
61976,33127,40144
61949,33105,40090
61929,33084,40040
61907,33060,39994
61881,33032,39946
61858,33005,39898
61839,32981,39855
61819,32958,39818
61801,32938,39781
61794,32922,39747
61793,32911,39720
61784,32898,39699
61769,32880,39679
61757,32862,39659
61751,32847,39645
61743,32835,39638
61736,32830,39639
61743,32837,39651
61765,32860,39684
61789,32895,39740
61819,32937,39816
61864,32990,39914
61928,33059,40035
62004,33141,40180
62095,33237,40344
62203,33346,40530
62320,33467,40736
62440,33591,40955
62563,33717,41181
62694,33850,41413
62825,33984,41651
62951,34112,41887
63075,34234,42114
63199,34353,42327
63312,34465,42522
63406,34568,42698
63487,34662,42855
63565,34751,42998
63631,34829,43127
63683,34889,43235
63726,34937,43320
63768,34977,43388
63798,35002,43440
63813,35015,43474
63823,35021,43491
63834,35021,43499
63836,35010,43497
63829,34990,43478
63823,34969,43448
63818,34952,43415
63803,34935,43383
63782,34916,43349
63766,34901,43312
63756,34894,43276
63741,34888,43241
63718,34874,43200
63694,34854,43150
63669,34828,43098
63636,34792,43044
63595,34748,42983
63552,34704,42914
63509,34660,42839
63460,34613,42760
63409,34559,42677
63362,34503,42596
63317,34450,42517
63269,34402,42438
63221,34355,42358
63182,34312,42285
63149,34276,42223
63115,34242,42167
63089,34215,42117
63074,34200,42078
63063,34192,42050
63050,34187,42032
63049,34190,42025
63063,34203,42031
63081,34217,42047
63095,34229,42066
63113,34243,42091
63144,34263,42123
63175,34290,42157
63200,34316,42189
63225,34341,42220
63253,34369,42259
63273,34394,42300
63280,34410,42333
63285,34421,42357
63296,34436,42381
63304,34450,42405
63306,34458,42420
63312,34460,42426
63320,34462,42427
63318,34457,42418
63305,34442,42398
63292,34421,42372
63281,34401,42345
63265,34379,42318
63243,34349,42280
63224,34318,42235
63204,34289,42191
63179,34261,42145
63150,34234,42095
63125,34210,42046
63101,34189,41999
63072,34165,41948
63043,34140,41890
63019,34115,41834
62994,34086,41779
62961,34048,41718
62932,34009,41655
62914,33975,41599
62900,33945,41550
62885,33914,41501
62871,33883,41446
62863,33854,41388
62854,33819,41328
62835,33776,41266
62818,33740,41208
62803,33715,41157
62782,33691,41109
62754,33666,41061
62731,33644,41016
62714,33624,40977
62691,33602,40940
62658,33575,40898
62629,33548,40857
62607,33527,40823
62579,33507,40792
62547,33481,40757
62521,33454,40714
62501,33431,40670
62477,33405,40628
62448,33376,40585
62421,33350,40542
62397,33328,40500
62372,33307,40460
62347,33284,40422
62332,33264,40389
62326,33253,40364
62318,33244,40341
62307,33237,40314
62298,33230,40286
62291,33223,40259
62283,33214,40231
62277,33200,40201
62277,33184,40171
62276,33171,40143
62268,33155,40117
62254,33136,40091
62239,33117,40067
62222,33098,40045
62202,33081,40023
62187,33067,40000
62181,33059,39980
62181,33056,39966
62178,33054,39957
62178,33054,39950
62187,33059,39953
62205,33074,39973
62228,33100,40013
62263,33139,40076
62316,33192,40168
62379,33258,40293
62451,33335,40446
62544,33433,40627
62656,33550,40839
62773,33677,41074
62894,33810,41324
63027,33949,41583
63168,34093,41846
63305,34237,42107
63440,34380,42361
63579,34522,42611
63717,34664,42856
63842,34800,43090
63954,34925,43304
64061,35043,43496
64155,35148,43666
64230,35233,43811
64293,35298,43928
64357,35352,44019
64416,35396,44089
64454,35428,44138
64474,35450,44171
64488,35467,44198
64495,35480,44220
64492,35483,44230
64485,35481,44230
64482,35481,44225
64479,35479,44222
64467,35472,44218
64454,35464,44212
64451,35456,44205
64455,35446,44196
64453,35433,44181
64447,35421,44161
64445,35410,44139
64438,35400,44120
64422,35389,44098
64402,35378,44072
64385,35367,44043
64365,35350,44008
64338,35323,43964
64310,35288,43910
64281,35252,43849
64243,35215,43781
64199,35173,43705
64159,35131,43629
64125,35092,43554
64088,35055,43482
64048,35019,43414
64016,34987,43355
63996,34963,43305
63977,34940,43263
63956,34918,43228
63945,34902,43206
63942,34897,43200
63939,34898,43204
63937,34902,43213
63947,34912,43231
63963,34924,43256
63973,34933,43280
63979,34943,43301
63990,34958,43325
64006,34975,43354
64020,34990,43384
64035,35003,43410
64056,35019,43434
64076,35033,43454
64088,35040,43466
64097,35045,43470
64109,35050,43470
64112,35052,43466
64104,35046,43456
64096,35034,43439
64092,35028,43424
64086,35024,43409
64070,35013,43386
64057,34998,43353
64048,34986,43316
64030,34971,43275
64000,34947,43227
63969,34917,43175
63945,34887,43124
63916,34855,43074
63878,34820,43019
63842,34788,42959
63810,34760,42897
63771,34729,42833
63723,34688,42766
63680,34640,42696
63642,34591,42628
63601,34543,42564
63559,34496,42499
63520,34456,42432
63485,34421,42371
63447,34382,42314
63410,34339,42256
63381,34300,42196
63357,34271,42138
63328,34243,42083
63295,34212,42025
63268,34181,41965
63243,34151,41907
63208,34117,41855
63170,34084,41808
63143,34059,41768
63124,34040,41731
63108,34024,41696
63094,34008,41659
63081,33993,41618
63064,33975,41574
63038,33954,41528
63013,33930,41482
62992,33907,41439
62970,33885,41406
62947,33861,41377
62924,33839,41344
62903,33816,41306
62876,33791,41265
62847,33763,41223
62826,33738,41181
62813,33716,41141
62804,33695,41103
62796,33677,41067
62793,33663,41036
62787,33650,41007
62771,33631,40979
62749,33611,40953
62730,33594,40929
62717,33581,40908
62700,33565,40885
62681,33548,40855
62668,33535,40819
62655,33524,40785
62632,33507,40755
62601,33480,40721
62573,33455,40688
62553,33440,40665
62537,33434,40652
62527,33433,40649
62528,33440,40663
62543,33458,40698
62567,33486,40754
62607,33526,40827
62671,33583,40925
62749,33655,41051
62833,33737,41199
62929,33831,41367
63043,33942,41558
63164,34067,41770
63282,34198,41991
63400,34340,42218
63521,34487,42455
63641,34632,42700
63759,34768,42940
63885,34895,43170
64016,35022,43393
64137,35143,43603
64237,35249,43788
64325,35339,43948
64407,35418,44091
64475,35484,44216
64524,35533,44317
64562,35571,44395
64601,35605,44455
64632,35632,44497
64650,35647,44523
64664,35657,44539
64678,35664,44553
64687,35668,44563
64688,35667,44564
64688,35667,44561
64685,35668,44557
64672,35660,44547
64653,35641,44530
64642,35620,44512
64634,35602,44492
64616,35582,44465
64591,35563,44431
64574,35546,44396
64562,35531,44363
64541,35511,44325
64511,35486,44277
64482,35461,44224
64450,35434,44169
64404,35397,44108
64356,35353,44042
64317,35312,43975
64284,35274,43908
64249,35235,43842
64214,35192,43772
64182,35152,43701
64152,35114,43636
64117,35076,43575
64085,35039,43517
64062,35010,43467
64045,34989,43430
64028,34977,43402
64015,34974,43380
64008,34977,43366
64005,34982,43361
64004,34990,43366
64011,35005,43381
64025,35023,43404
64036,35036,43431
64046,35047,43460
64059,35061,43490
64074,35077,43519
64081,35088,43545
64081,35095,43563
64089,35104,43577
64100,35117,43590
64100,35124,43598
64094,35123,43597
64092,35121,43589
64090,35120,43580
64080,35117,43571
64068,35111,43555
64060,35108,43534
64054,35105,43510
64040,35094,43478
64018,35071,43437
63994,35041,43391
63966,35007,43345
63936,34967,43297
63908,34923,43244
63886,34880,43188
63865,34841,43125
63837,34803,43057
63805,34767,42990
63775,34737,42929
63742,34707,42874
63701,34674,42821
63661,34641,42769
63630,34610,42716
63598,34574,42659
63558,34533,42597
63519,34491,42532
63485,34453,42464
63450,34414,42394
63412,34372,42323
63380,34332,42251
63351,34297,42185
63314,34266,42125
63269,34232,42064
63231,34202,42006
63204,34179,41956
63175,34156,41907
63142,34130,41852
63114,34103,41795
63093,34081,41743
63070,34057,41692
63043,34028,41639
63021,33999,41588
63001,33976,41541
62975,33951,41496
62944,33922,41449
62920,33895,41409
62900,33869,41376
62874,33838,41340
62846,33807,41301
62827,33783,41264
62812,33767,41234
62792,33752,41209
62772,33734,41183
62757,33715,41154
62743,33700,41126
62723,33683,41098
62705,33668,41068
62696,33656,41036
62687,33643,41002
62674,33625,40968
62662,33603,40931
62655,33582,40894
62645,33561,40858
62628,33535,40819
62610,33512,40781
62596,33492,40750
62573,33467,40722
62543,33439,40692
62517,33415,40662
62496,33398,40638
62471,33384,40617
62443,33368,40592
62424,33356,40568
62416,33350,40551
62410,33350,40546
62406,33353,40553
62419,33369,40579
62454,33404,40634
62503,33453,40718
62561,33512,40823
62634,33583,40950
62722,33671,41104
62818,33774,41286
62923,33891,41488
63044,34022,41704
63172,34160,41931
63298,34297,42165
63422,34433,42399
63549,34565,42628
63678,34689,42851
63798,34804,43062
63911,34913,43259
64020,35017,43444
64115,35113,43615
64184,35191,43760
64240,35254,43878
64298,35312,43981
64349,35362,44071
64380,35401,44142
64399,35429,44189
64411,35449,44218
64413,35463,44239
64407,35470,44252
64402,35473,44256
64402,35475,44254
64399,35473,44249
64386,35465,44239
64372,35460,44230
64361,35460,44221
64346,35457,44208
64324,35445,44189
64306,35428,44166
64298,35411,44144
64288,35391,44119
64270,35367,44089
64255,35343,44055
64240,35321,44023
64217,35294,43987
64185,35259,43938
64154,35219,43879
64124,35180,43817
64089,35144,43754
64049,35104,43684
64012,35066,43607
63975,35028,43530
63931,34988,43452
63889,34948,43378
63863,34915,43317
63845,34888,43267
63823,34861,43221
63802,34834,43179
63793,34816,43148
63792,34811,43132
63788,34811,43124
63783,34812,43117
63786,34817,43112
63792,34826,43111
63792,34832,43119
63791,34841,43134
63796,34857,43150
63804,34876,43163
63813,34894,43177
63828,34910,43196
63847,34921,43221
63859,34924,43244
63867,34919,43265
63879,34914,43287
63892,34910,43307
63890,34903,43318
63877,34892,43316
63867,34883,43304
63865,34879,43286
63860,34872,43263
63846,34858,43234
63832,34840,43199
63820,34824,43162
63805,34807,43126
63784,34784,43082
63769,34761,43035
63757,34740,42989
63734,34712,42943
63698,34675,42892
63660,34634,42838
63623,34594,42784
63586,34552,42726
63546,34508,42661
63508,34468,42590
63466,34431,42518
63413,34391,42447
63359,34350,42376
63317,34315,42311
63281,34281,42250
63238,34241,42187
63194,34200,42121
63161,34163,42057
63134,34132,41999
63107,34104,41942
63080,34080,41884
63057,34060,41826
63031,34042,41768
63000,34019,41707
62973,33993,41642
62952,33967,41578
62925,33936,41517
62885,33895,41457
62848,33851,41403
62823,33812,41358
62801,33779,41318
62773,33746,41274
62745,33716,41226
62719,33693,41181
62689,33673,41141
62653,33651,41100
62624,33633,41062
62603,33618,41026
62585,33600,40988
62564,33575,40944
62546,33547,40898
62533,33523,40853
62516,33496,40809
62496,33465,40767
62477,33436,40730
62457,33409,40697
62426,33379,40662
62386,33351,40621
62351,33330,40582
62325,33311,40547
62296,33288,40511
62269,33265,40468
62251,33248,40426
62234,33232,40389
62206,33212,40353
62178,33192,40316
62159,33176,40281
62140,33161,40249
62113,33137,40214
62089,33112,40175
62075,33091,40139
62061,33072,40112
62044,33052,40090
62034,33038,40078
62040,33038,40083
62056,33052,40109
62077,33077,40151
62109,33118,40214
62157,33178,40303
62211,33250,40416
62272,33327,40548
62351,33413,40698
62452,33515,40872
62560,33627,41066
62668,33745,41272
62785,33871,41493
62912,34002,41724
63036,34129,41952
63153,34245,42167
63264,34355,42371
63370,34460,42569
63463,34559,42757
63548,34654,42927
63636,34748,43079
63719,34834,43213
63781,34902,43325
63824,34953,43418
63862,34995,43494
63893,35024,43553
63910,35039,43592
63918,35048,43613
63921,35057,43623
63914,35060,43624
63897,35051,43613
63880,35036,43594
63870,35021,43574
63858,35006,43553
63837,34985,43523
63814,34961,43484
63797,34937,43441
63777,34911,43397
63746,34878,43350
63713,34846,43300
63687,34818,43251
63659,34787,43200
63624,34748,43144
63586,34709,43080
63552,34671,43015
63513,34628,42948
63460,34579,42876
63406,34531,42800
63359,34489,42723
63314,34450,42647
63269,34411,42569
63232,34374,42489
63205,34339,42412
63179,34302,42341
63151,34265,42275
63129,34236,42220
63112,34217,42176
63094,34202,42139
63075,34185,42108
63064,34173,42086
63060,34165,42076
63056,34158,42071
63053,34154,42072
63060,34157,42081
63073,34165,42097
63083,34175,42112
63091,34186,42125
63105,34202,42141
63116,34217,42163
63117,34229,42185
63116,34239,42203
63124,34253,42218
63130,34263,42231
63124,34264,42244
63113,34262,42253
63109,34259,42258
63109,34252,42258
63104,34240,42254
63095,34226,42244
63090,34209,42228
63084,34190,42205
63074,34169,42177
63062,34149,42144
63050,34131,42107
63033,34111,42062
63006,34088,42009
62978,34064,41949
62950,34038,41886
62914,34006,41820
62874,33970,41756
62841,33938,41698
62814,33909,41643
62778,33874,41584
62737,33832,41520
62701,33789,41454
62669,33745,41392
62631,33697,41329
62590,33648,41264
62555,33607,41201
62524,33573,41141
62488,33540,41080
62449,33506,41017
62417,33476,40958
62390,33450,40903
62361,33427,40846
62330,33401,40785
62304,33372,40723
62279,33343,40667
62247,33313,40615
62215,33282,40567
62192,33253,40522
62170,33228,40479
62144,33202,40436
62118,33176,40392
62097,33152,40347
62076,33129,40299
62046,33101,40249
62016,33069,40208
61991,33043,40169
61963,33024,40125
61926,33004,40078
61885,32984,40033
61854,32966,39996
61830,32945,39964
61805,32922,39929
61786,32902,39890
61780,32888,39858
61774,32872,39830
61760,32848,39797
61744,32823,39758
61733,32803,39723
61720,32789,39694
61700,32772,39664
61680,32757,39634
61665,32747,39606
61645,32735,39578
61615,32716,39548
61591,32696,39518
61580,32678,39493
61573,32660,39474
61567,32644,39462
61569,32640,39462
61578,32649,39477
61590,32664,39508
61613,32688,39564
61655,32731,39648
61714,32792,39761
61783,32871,39897
61864,32965,40054
61959,33072,40231
62062,33185,40425
62164,33298,40624
62274,33414,40829
62398,33536,41045
62522,33661,41270
62637,33778,41491
62747,33888,41700
62857,33993,41893
62956,34090,42068
63035,34176,42224
63104,34254,42361
63170,34325,42484
63222,34386,42591
63259,34433,42676
63289,34471,42741
63317,34501,42792
63335,34520,42824
63340,34526,42837
63341,34524,42835
63340,34518,42822
63325,34503,42798
63300,34480,42765
63277,34457,42727
63254,34434,42684
63222,34407,42636
63187,34376,42584
63162,34345,42533
63143,34318,42485
63117,34289,42435
63088,34259,42379
63061,34229,42321
63032,34197,42263
62991,34158,42197
62942,34113,42123
62894,34063,42042
62841,34009,41958
62779,33947,41869
62720,33884,41777
62675,33831,41689
62634,33788,41608
62589,33748,41528
62547,33709,41443
62514,33671,41361
62485,33638,41287
62453,33607,41222
62423,33579,41169
62407,33561,41133
62400,33551,41111
62390,33543,41096
62384,33539,41086
62387,33545,41085
62392,33556,41098
62395,33567,41124
62403,33577,41159
62420,33592,41197
62437,33607,41233
62452,33619,41266
62472,33634,41297
62490,33651,41326
62501,33665,41348
62504,33675,41365
62510,33684,41381
62519,33691,41392
62522,33692,41394
62519,33685,41388
62521,33680,41381
62524,33681,41375
62516,33676,41364
62498,33664,41342
62483,33653,41318
62469,33640,41294
62446,33621,41260
62417,33595,41218
62390,33570,41172
62365,33546,41128
62334,33517,41080
62303,33485,41027
62285,33459,40977
62270,33430,40931
62244,33388,40877
62214,33338,40811
62189,33295,40744
62160,33263,40683
62123,33235,40626
62087,33208,40567
62060,33186,40510
62032,33164,40458
61998,33134,40405
61966,33099,40347
61938,33064,40290
61908,33030,40239
61875,32997,40191
61848,32968,40143
61826,32945,40097
61800,32920,40051
61762,32885,39997
61723,32847,39938
61687,32816,39880
61650,32786,39823
61608,32752,39765
61574,32722,39709
61550,32699,39659
61525,32676,39612
61498,32648,39565
61477,32619,39518
61459,32592,39472
61434,32561,39421
61403,32525,39363
61378,32492,39307
61359,32464,39258
61334,32437,39213
61308,32408,39167
61287,32380,39124
61269,32354,39085
61246,32329,39046
61226,32307,39010
61221,32296,38984
61219,32293,38967
61207,32289,38952
61196,32283,38938
61194,32281,38933
61195,32283,38945
61197,32289,38970
61213,32302,39014
61256,32331,39083
61314,32379,39178
61375,32439,39295
61443,32514,39431
61527,32604,39588
61621,32707,39765
61722,32821,39954
61832,32942,40151
61952,33067,40354
62068,33189,40560
62179,33304,40765
62292,33413,40968
62405,33520,41167
62504,33624,41356
62593,33722,41530
62680,33814,41686
62760,33898,41820
62822,33965,41930
62869,34013,42018
62909,34054,42091
62940,34089,42147
62954,34109,42186
62951,34115,42211
62941,34111,42223
62932,34102,42226
62923,34088,42218
62907,34074,42195
62894,34059,42162
62881,34042,42122
62859,34020,42076
62834,33996,42028
62815,33974,41978
62796,33950,41925
62767,33920,41863
62734,33888,41798
62705,33856,41739
62680,33818,41682
62647,33775,41614
62609,33731,41529
62572,33686,41441
62524,33636,41359
62461,33578,41277
62398,33518,41189
62347,33461,41096
62301,33407,41002
62253,33354,40909
62210,33306,40820
62174,33263,40736
62140,33224,40660
62110,33191,40596
62087,33167,40541
62069,33148,40496
62047,33131,40458
62025,33115,40430
62016,33106,40414
62020,33105,40412
62025,33107,40420
62032,33113,40436
62049,33124,40459
62072,33140,40490
62089,33152,40525
62101,33162,40559
62123,33178,40593
62154,33202,40628
62179,33224,40660
62193,33240,40682
62203,33249,40694
62210,33258,40705
62213,33267,40715
62215,33271,40719
62219,33273,40716
62217,33273,40706
62200,33268,40690
62182,33259,40668
62171,33250,40647
62163,33238,40623
62148,33216,40592
62129,33188,40554
62108,33159,40516
62080,33128,40478
62041,33092,40434
62001,33059,40387
61972,33035,40343
61946,33011,40299
61916,32981,40249
61886,32949,40190
61860,32921,40128
61829,32893,40064
61793,32862,39995
61762,32833,39927
61739,32806,39862
61708,32778,39800
61669,32743,39738
61636,32706,39678
61613,32670,39625
61587,32631,39575
61559,32589,39518
61535,32554,39461
61511,32526,39407
61474,32497,39352
61431,32466,39297
61397,32437,39246
61371,32410,39195
61342,32379,39139
61310,32345,39078
61285,32316,39020
61262,32291,38969
61231,32264,38917
61198,32231,38863
61176,32200,38815
61157,32169,38769
61130,32134,38720
61104,32099,38669
61086,32070,38621
61069,32045,38579
61046,32022,38540
61019,32002,38496
60994,31984,38452
60969,31963,38414
60939,31936,38380
60911,31909,38350
60894,31886,38321
60882,31868,38294
60870,31855,38269
60864,31850,38249
60869,31854,38247
60879,31866,38264
60897,31889,38296
60938,31926,38348
60999,31977,38431
61063,32039,38546
61131,32111,38683
61217,32201,38843
61324,32313,39034
61436,32436,39250
61551,32564,39481
61674,32698,39719
61808,32840,39968
61941,32984,40223
62071,33121,40473
62201,33256,40717
62330,33387,40950
62446,33504,41164
62550,33606,41355
62649,33698,41529
62742,33784,41691
62823,33857,41838
62890,33919,41960
62949,33974,42056
62996,34020,42132
63024,34049,42186
63040,34066,42221
63053,34079,42243
63060,34087,42252
63053,34087,42246
63039,34078,42226
63022,34065,42197
63000,34051,42165
62972,34031,42129
62950,34008,42091
62942,33988,42057
62936,33973,42026
62921,33955,41994
62900,33935,41957
62879,33913,41915
62856,33889,41869
62830,33864,41819
62807,33839,41763
62784,33814,41703
62745,33783,41637
62694,33744,41564
62644,33701,41486
62600,33657,41409
62555,33608,41333
62507,33557,41256
62464,33511,41178
62424,33467,41100
62377,33422,41022
62332,33377,40947
62300,33337,40881
62280,33307,40832
62263,33284,40795
62248,33267,40764
62240,33255,40741
62238,33244,40729
62230,33229,40726
62224,33217,40729
62228,33217,40738
62238,33230,40757
62248,33253,40784
62260,33279,40813
62276,33305,40842
62293,33329,40873
62302,33348,40901
62311,33360,40926
62325,33372,40951
62338,33386,40978
62345,33396,40998
62350,33403,41007
62358,33411,41010
62361,33417,41008
62358,33414,41001
62355,33407,40989
62355,33402,40975
62348,33392,40960
62335,33377,40939
62323,33361,40912
62314,33343,40883
62298,33317,40849
62272,33283,40805
62250,33248,40755
62231,33215,40702
62205,33179,40645
62169,33140,40583
62133,33101,40518
62099,33067,40455
62061,33035,40395
62017,32998,40331
61975,32961,40264
61937,32928,40200
61897,32894,40138
61858,32859,40075
61827,32828,40014
61801,32803,39956
61767,32775,39897
61727,32742,39838
61690,32704,39780
61655,32665,39725
61618,32627,39671
61582,32591,39613
61549,32557,39554
61518,32524,39499
61483,32489,39447
61452,32454,39394
61431,32426,39343
61410,32400,39296
61381,32373,39250
61353,32349,39204
61331,32331,39162
61308,32313,39121
61278,32290,39074
61246,32265,39025
61221,32245,38979
61193,32229,38935
61163,32206,38887
61144,32169,38835
61140,32133,38788
61137,32106,38750
61123,32081,38711
61104,32060,38670
61090,32046,38630
61079,32035,38590
61061,32023,38553
61042,32008,38525
61025,31995,38507
61003,31981,38496
60982,31969,38490
60971,31967,38494
60973,31979,38518
60982,32002,38564
61002,32032,38628
61043,32076,38717
61107,32139,38837
61186,32215,38984
61280,32302,39154
61390,32405,39353
61509,32516,39576
61628,32630,39812
61757,32752,40053
61900,32886,40298
62042,33026,40547
62177,33165,40791
62309,33300,41028
62444,33434,41257
62571,33562,41475
62678,33674,41674
62774,33775,41852
62864,33871,42012
62941,33957,42151
63001,34027,42262
63052,34083,42346
63096,34130,42410
63125,34165,42460
63142,34188,42495
63156,34202,42511
63165,34206,42517
63157,34196,42515
63136,34177,42504
63119,34156,42484
63106,34137,42461
63084,34114,42435
63057,34089,42404
63037,34069,42370
63027,34057,42342
63016,34050,42318
63003,34042,42292
62995,34031,42265
62988,34019,42238
62972,34002,42205
62946,33977,42160
62922,33952,42107
62901,33927,42049
62873,33897,41983
62839,33862,41910
62808,33826,41838
62776,33790,41771
62737,33749,41706
62695,33704,41639
62661,33664,41571
62629,33629,41506
62588,33592,41443
62551,33554,41384
62530,33522,41334
62518,33499,41294
62508,33480,41260
62499,33463,41230
62495,33454,41212
62491,33453,41206
62487,33457,41209
62491,33469,41218
62506,33489,41232
62523,33511,41249
62532,33528,41269
62542,33546,41291
62563,33571,41319
62582,33594,41351
62590,33606,41377
62597,33609,41399
62612,33615,41423
62623,33622,41447
62625,33624,41464
62626,33627,41472
62629,33630,41474
62625,33624,41472
62617,33612,41464
62613,33603,41450
62610,33594,41431
62598,33576,41402
62581,33548,41362
62569,33522,41317
62558,33500,41276
62537,33476,41237
62505,33447,41194
62474,33419,41145
62445,33396,41095
62408,33367,41043
62369,33334,40990
62339,33303,40944
62313,33273,40902
62278,33237,40856
62239,33195,40800
62205,33157,40740
62171,33118,40677
62131,33076,40608
62092,33035,40534
62060,33002,40464
62031,32973,40399
61997,32941,40331
61962,32910,40260
61931,32883,40193
61896,32852,40133
61854,32814,40074
61813,32773,40015
61778,32737,39958
61746,32705,39904
61714,32675,39850
61695,32654,39800
61686,32641,39758
61672,32629,39718
61650,32610,39677
61628,32588,39635
61607,32566,39594
61578,32541,39552
61546,32512,39507
61520,32481,39460
61497,32450,39413
61470,32415,39363
61441,32385,39313
61421,32367,39269
61405,32357,39232
61380,32343,39194
61350,32320,39151
61327,32294,39110
61308,32270,39075
61285,32243,39040
61259,32215,39002
61237,32191,38964
61219,32174,38932
61197,32157,38904
61172,32137,38879
61154,32120,38855
61139,32106,38833
61123,32091,38809
61112,32079,38787
61115,32075,38777
61124,32080,38783
61132,32093,38805
61148,32117,38845
61181,32155,38909
61223,32202,38994
61271,32254,39097
61340,32320,39222
61434,32409,39380
61540,32517,39569
61649,32635,39778
61772,32764,40001
61908,32907,40240
62044,33051,40489
62171,33187,40736
62298,33318,40979
62430,33451,41219
62559,33582,41455
62675,33705,41676
62781,33822,41877
62882,33932,42061
62970,34029,42223
63039,34108,42358
63101,34174,42474
63159,34230,42576
63204,34270,42662
63235,34291,42724
63256,34303,42764
63268,34311,42785
63264,34312,42786
63254,34305,42771
63248,34298,42752
63240,34291,42733
63223,34280,42712
63206,34269,42687
63196,34261,42661
63184,34254,42636
63161,34239,42607
63136,34218,42573
63121,34201,42542
63108,34185,42515
63088,34167,42486
63066,34148,42447
63050,34126,42402
63034,34096,42356
63009,34056,42310
62983,34012,42268
62958,33971,42227
62924,33933,42180
62874,33893,42123
62818,33850,42060
62776,33806,41995
62747,33758,41930
62715,33712,41862
62687,33678,41795
62667,33662,41737
62647,33652,41687
62625,33642,41639
62612,33634,41597
62610,33634,41568
62607,33638,41550
62601,33639,41534
62603,33642,41524
62614,33649,41527
62625,33658,41540
62632,33664,41555
62649,33674,41570
62674,33690,41591
62694,33708,41615
62706,33726,41639
62721,33744,41668
62738,33756,41701
62748,33765,41730
62754,33770,41749
62761,33774,41760
62765,33774,41763
62757,33766,41755
62746,33756,41741
62740,33750,41726
62729,33742,41710
62708,33729,41690
62684,33714,41669
62666,33703,41647
62647,33689,41622
62622,33668,41587
62600,33642,41544
62584,33619,41498
62564,33594,41453
62534,33561,41404
62506,33525,41349
62482,33486,41294
62454,33445,41238
62416,33402,41176
62378,33362,41112
62348,33331,41054
62315,33302,40998
62276,33266,40938
62240,33231,40876
62209,33201,40814
62176,33169,40754
62143,33132,40691
62115,33096,40624
62089,33062,40559
62057,33029,40499
62026,32997,40444
62007,32973,40393
61993,32957,40346
61971,32938,40303
61946,32912,40261
61928,32887,40218
61913,32863,40177
61891,32835,40133
61864,32807,40083
61843,32787,40035
61823,32771,39992
61793,32753,39947
61759,32733,39898
61731,32712,39848
61709,32692,39801
61684,32671,39755
61659,32648,39712
61642,32628,39677
61627,32607,39650
61606,32583,39623
61587,32559,39592
61575,32543,39562
61561,32531,39533
61538,32515,39503
61513,32497,39474
61496,32480,39447
61481,32460,39419
61463,32434,39387
61449,32408,39353
61440,32389,39325
61428,32373,39301
61409,32357,39276
61397,32342,39256
61395,32332,39245
61391,32325,39242
61388,32324,39246
61397,32335,39267
61423,32364,39311
61456,32405,39375
61495,32453,39457
61550,32511,39561
61624,32584,39695
61710,32670,39857
61806,32767,40039
61919,32876,40242
62041,32996,40459
62161,33117,40681
62281,33237,40903
62408,33359,41127
62534,33480,41347
62647,33595,41557
62753,33707,41756
62859,33819,41948
62954,33925,42129
63036,34016,42290
63110,34095,42431
63178,34167,42555
63234,34229,42660
63274,34279,42742
63306,34317,42800
63333,34346,42843
63347,34364,42870
63346,34366,42877
63342,34359,42866
63343,34353,42853
63342,34348,42841
63334,34337,42824
63326,34323,42800
63322,34312,42777
63310,34300,42752
63286,34282,42724
63260,34261,42694
63242,34244,42669
63226,34229,42644
63208,34212,42613
63191,34196,42571
63173,34178,42522
63144,34147,42460
63102,34104,42385
63061,34060,42307
63024,34019,42231
62982,33975,42155
62936,33927,42075
62899,33883,41994
62861,33843,41920
62814,33801,41849
62772,33758,41781
62749,33720,41722
62733,33686,41672
62712,33657,41630
62694,33635,41597
62689,33623,41576
62691,33623,41570
62693,33631,41575
62703,33646,41586
62724,33670,41602
62747,33695,41625
62764,33715,41652
62778,33730,41679
62797,33748,41709
62818,33767,41744
62833,33783,41779
62847,33797,41809
62865,33810,41838
62879,33821,41864
62885,33828,41882
62893,33833,41895
62902,33838,41905
62901,33836,41905
62892,33829,41896
62887,33821,41882
62882,33813,41865
62867,33801,41843
62848,33787,41818
62837,33778,41794
62828,33768,41768
62811,33751,41736
62794,33726,41693
62786,33701,41643
62778,33678,41596
62758,33653,41546
62732,33627,41492
62713,33607,41439
62694,33589,41386
62669,33567,41330
62643,33542,41269
62626,33518,41210
62614,33493,41156
62595,33462,41103
62571,33428,41050
62551,33401,41005
62533,33378,40966
62509,33350,40930
62478,33315,40891
62451,33282,40844
62425,33255,40798
62398,33228,40751
62377,33204,40701
62369,33180,40651
62361,33149,40601
62339,33116,40552
62308,33088,40507
62276,33059,40463
62241,33027,40410
62205,32995,40354
62173,32965,40302
62147,32940,40256
62119,32913,40211
62085,32883,40162
62054,32856,40114
62032,32835,40073
62009,32813,40034
61977,32782,39990
61949,32751,39944
61930,32726,39904
61909,32704,39869
61884,32678,39831
61865,32655,39793
61852,32639,39761
61839,32626,39733
61823,32611,39709
61814,32600,39692
61814,32595,39680
61814,32590,39671
61816,32585,39670
61823,32589,39683
61832,32602,39710
61841,32619,39748
61859,32643,39799
61900,32687,39871
61956,32748,39969
62018,32819,40091
62091,32899,40234
62181,32994,40403
62285,33103,40594
62394,33218,40796
62509,33333,41003
62634,33454,41216
62758,33580,41437
62876,33706,41659
62993,33831,41876
63110,33950,42084
63219,34059,42279
63315,34159,42454
63402,34252,42608
63481,34332,42741
63543,34394,42852
63590,34443,42944
63633,34486,43021
63673,34525,43084
63699,34555,43129
63712,34572,43154
63725,34580,43164
63736,34582,43165
63737,34579,43163
63731,34574,43155
63730,34573,43141
63729,34573,43127
63715,34566,43111
63693,34550,43087
63673,34528,43059
63654,34503,43031
63632,34478,43000
63608,34448,42957
63586,34415,42904
63563,34382,42847
63532,34348,42783
63498,34310,42710
63466,34274,42635
63429,34236,42556
63378,34188,42467
63324,34132,42369
63278,34079,42276
63232,34031,42195
63183,33982,42120
63139,33934,42045
63105,33893,41975
63072,33857,41913
63033,33822,41855
63000,33790,41803
62983,33768,41764
62973,33753,41740
62964,33740,41722
62963,33732,41710
62972,33733,41709
62983,33742,41719
62994,33753,41739
63010,33768,41765
63030,33784,41794
63039,33795,41823
63043,33802,41849
63054,33813,41876
63070,33830,41906
63082,33848,41936
63093,33862,41960
63109,33875,41976
63122,33882,41988
63124,33881,41993
63118,33875,41990
63119,33871,41984
63122,33870,41976
63117,33864,41964
63104,33851,41946
63092,33837,41923
63076,33821,41895
63050,33795,41859
63019,33763,41817
62993,33737,41772
62972,33716,41726
62947,33695,41677
62922,33670,41621
62901,33642,41565
62878,33612,41511
62849,33578,41457
62818,33544,41401
62791,33513,41346
62761,33481,41289
62723,33445,41227
62686,33406,41163
62650,33370,41099
62613,33335,41037
62572,33299,40975
62536,33269,40917
62505,33242,40864
62472,33213,40812
62435,33179,40759
62401,33144,40707
62371,33109,40657
62338,33075,40605
62302,33038,40546
62273,33005,40485
62248,32978,40428
62216,32949,40372
62181,32915,40314
62153,32881,40256
62135,32850,40203
62113,32818,40155
62090,32787,40109
62074,32764,40065
62059,32744,40024
62035,32719,39981
62005,32691,39934
61978,32665,39886
61953,32643,39843
61925,32620,39804
61895,32598,39764
61871,32582,39725
61850,32565,39688
61824,32545,39649
61802,32527,39610
61786,32512,39572
61769,32498,39540
61746,32481,39510
61727,32463,39480
61716,32448,39451
61705,32433,39425
61686,32416,39397
61669,32401,39370
61662,32392,39351
61655,32383,39340
61647,32375,39335
61651,32376,39343
61677,32397,39381
61716,32440,39454
61765,32498,39554
61830,32570,39678
61914,32658,39830
62008,32755,40006
62109,32859,40202
62229,32975,40420
62364,33104,40658
62497,33238,40905
62626,33373,41153
62759,33515,41403
62896,33661,41657
63029,33800,41904
63158,33930,42138
63290,34057,42361
63414,34177,42572
63518,34281,42765
63608,34371,42934
63693,34451,43078
63767,34520,43201
63823,34575,43304
63862,34618,43383
63893,34653,43439
63915,34678,43479
63927,34694,43509
63935,34703,43528
63944,34707,43533
63945,34705,43527
63934,34696,43513
63919,34683,43494
63911,34674,43477
63905,34668,43463
63894,34656,43445
63883,34646,43425
63877,34642,43410
63869,34639,43400
63856,34633,43385
63844,34629,43363
63839,34627,43341
63829,34619,43315
63807,34596,43275
63778,34562,43223
63749,34525,43168
63712,34487,43110
63672,34443,43043
63642,34394,42966
63618,34347,42883
63587,34298,42798
63550,34249,42714
63521,34212,42640
63497,34188,42580
63468,34167,42529
63436,34142,42483
63414,34117,42444
63402,34098,42414
63383,34081,42392
63365,34068,42375
63360,34067,42366
63360,34073,42364
63355,34079,42366
63353,34084,42371
63361,34095,42382
63375,34111,42404
63385,34128,42435
63395,34143,42465
63413,34157,42491
63433,34168,42511
63445,34172,42528
63456,34174,42543
63471,34182,42561
63484,34191,42579
63488,34199,42591
63489,34203,42591
63493,34206,42582
63494,34205,42568
63485,34199,42550
63472,34192,42526
63462,34185,42502
63448,34169,42476
63426,34144,42441
63403,34115,42394
63378,34085,42344
63340,34051,42293
63292,34010,42237
63248,33968,42180
63209,33929,42124
63167,33888,42066
63121,33841,42002
63081,33797,41936
63049,33757,41874
63021,33718,41813
62992,33678,41745
62964,33643,41670
62937,33616,41597
62904,33590,41528
62864,33562,41460
62824,33533,41394
62786,33503,41331
62747,33468,41268
62705,33426,41199
62662,33382,41125
62616,33339,41054
62565,33296,40988
62515,33255,40923
62479,33225,40865
62450,33198,40814
62421,33166,40762
62393,33134,40706
62371,33107,40655
62351,33083,40613
62328,33056,40574
62307,33031,40536
62291,33013,40501
62275,32999,40468
62250,32982,40435
62224,32963,40401
62206,32946,40370
62190,32929,40340
62168,32910,40302
62146,32889,40256
62128,32867,40208
62104,32843,40165
62074,32812,40123
62051,32783,40085
62037,32759,40051
62018,32732,40017
61996,32705,39982
61982,32683,39946
61972,32666,39914
61956,32651,39886
61936,32636,39855
61921,32623,39821
61909,32611,39790
61890,32593,39761
61867,32570,39728
61853,32551,39698
61845,32538,39678
61838,32527,39668
61829,32520,39666
61826,32520,39677
61834,32533,39707
61851,32560,39757
61883,32601,39832
61938,32659,39935
62011,32730,40064
62093,32808,40210
62189,32899,40375
62306,33009,40567
62434,33133,40786
62563,33264,41019
62696,33401,41258
62836,33546,41503
62974,33691,41751
63099,33828,41995
63217,33958,42230
63337,34081,42457
63448,34196,42671
63544,34300,42864
63631,34396,43032
63712,34484,43179
63776,34561,43306
63822,34622,43410
63860,34665,43490
63894,34697,43550
63915,34715,43592
63925,34721,43618
63935,34723,43633
63944,34726,43640
63945,34723,43637
63941,34719,43626
63941,34718,43616
63942,34721,43608
63937,34721,43604
63928,34716,43598
63925,34710,43587
63926,34707,43575
63921,34702,43561
63912,34695,43544
63906,34687,43527
63898,34674,43508
63878,34650,43480
63855,34619,43439
63831,34588,43390
63800,34556,43338
63760,34519,43279
63718,34483,43210
63681,34449,43136
63640,34413,43062
63588,34372,42985
63538,34331,42903
63501,34293,42827
63469,34256,42760
63434,34215,42699
63401,34176,42642
63379,34146,42595
63362,34126,42562
63349,34113,42540
63347,34105,42525
63352,34101,42518
63352,34096,42515
63352,34089,42515
63362,34089,42523
63379,34100,42539
63389,34112,42557
63390,34119,42571
63393,34126,42579
63397,34134,42588
63392,34143,42601
63388,34151,42614
63394,34162,42627
63407,34175,42639
63412,34185,42653
63409,34188,42664
63407,34188,42669
63406,34187,42670
63398,34182,42664
63384,34170,42647
63373,34155,42622
63361,34138,42594
63343,34116,42559
63324,34091,42516
63308,34069,42470
63290,34043,42422
63263,34013,42367
63235,33981,42308
63210,33950,42249
63179,33914,42190
63135,33872,42128
63093,33831,42064
63060,33797,42001
63025,33765,41939
62983,33728,41872
62943,33689,41801
62911,33655,41732
62879,33620,41665
62839,33579,41597
62802,33539,41529
62773,33509,41469
62740,33483,41412
62698,33450,41350
62662,33414,41283
62632,33376,41220
62594,33336,41158
62546,33291,41093
62503,33248,41029
62473,33215,40971
62441,33183,40917
62403,33149,40858
62370,33115,40798
62348,33087,40746
62328,33060,40700
62304,33029,40656
62284,32997,40613
62264,32970,40568
62235,32945,40514
62201,32919,40455
62168,32892,40402
62135,32867,40359
62100,32842,40324
62063,32816,40287
62034,32795,40249
62014,32777,40210
61994,32756,40170
61977,32735,40128
61967,32718,40089
61962,32701,40056
61952,32682,40023
61941,32663,39990
61935,32647,39960
61926,32631,39936
61910,32612,39913
61894,32591,39885
61883,32572,39857
61869,32554,39830
61846,32534,39801
61821,32515,39768
61797,32500,39736
61772,32486,39706
61747,32472,39675
61726,32459,39645
61710,32443,39613
61687,32417,39578
61658,32382,39536
61634,32346,39491
61615,32314,39445
61592,32285,39400
61565,32255,39353
61543,32226,39307
61525,32202,39271
61500,32181,39242
61475,32161,39211
61462,32146,39181
61460,32143,39165
61463,32148,39165
61472,32159,39178
61490,32185,39213
61525,32231,39280
61570,32291,39378
61631,32361,39500
61712,32442,39647
61810,32536,39822
61917,32644,40023
62038,32765,40245
62180,32903,40487
62332,33049,40744
62477,33192,41008
62615,33330,41269
62753,33472,41528
62886,33616,41784
63008,33751,42028
63124,33876,42250
63240,33995,42451
63347,34106,42633
63435,34201,42791
63511,34282,42927
63585,34354,43042
63646,34411,43139
63687,34453,43210
63715,34487,43262
63738,34517,43302
63750,34539,43329
63751,34550,43343
63751,34556,43347
63751,34561,43344
63743,34559,43332
63729,34547,43311
63722,34533,43287
63720,34524,43266
63708,34511,43246
63695,34495,43227
63695,34485,43210
63699,34478,43193
63687,34465,43174
63665,34447,43151
63647,34430,43126
63633,34412,43099
63613,34388,43065
63585,34359,43019
63560,34329,42965
63532,34296,42904
63489,34253,42834
63437,34201,42754
63389,34150,42674
63345,34103,42599
63299,34055,42524
63257,34011,42450
63223,33978,42382
63189,33951,42324
63154,33924,42272
63125,33898,42223
63108,33879,42184
63093,33868,42152
63074,33858,42125
63061,33853,42107
63062,33858,42100
63069,33866,42104
63074,33871,42113
63082,33879,42125
63093,33891,42140
63098,33903,42156
63097,33906,42171
63101,33906,42191
63114,33906,42216
63123,33905,42238
63125,33898,42251
63127,33890,42259
63132,33888,42265
63130,33885,42267
63123,33877,42258
63122,33869,42246
63125,33865,42238
63118,33858,42224
63099,33846,42197
63080,33833,42161
63063,33818,42120
63037,33795,42075
63008,33770,42024
62982,33746,41972
62952,33720,41919
62909,33685,41859
62863,33644,41793
62826,33606,41729
62791,33570,41670
62750,33532,41610
62710,33491,41548
62674,33451,41484
62638,33415,41423
62597,33380,41361
62561,33347,41297
62535,33319,41234
62507,33294,41175
62470,33265,41115
62435,33232,41054
62404,33198,40994
62372,33164,40936
62339,33130,40882
62314,33102,40834
62294,33079,40789
62272,33053,40745
62247,33024,40700
62228,32998,40654
62214,32974,40612
62193,32949,40570
62167,32926,40526
62142,32907,40481
62119,32889,40437
62089,32865,40396
62057,32837,40354
62029,32812,40312
62005,32789,40276
61978,32769,40244
61953,32750,40212
61941,32735,40184
61935,32718,40161
61924,32695,40138
61911,32672,40117
61908,32654,40098
61910,32642,40081
61906,32634,40067
61899,32629,40050
61896,32628,40031
61892,32628,40011
61875,32619,39986
61857,32606,39956
61846,32595,39929
61837,32585,39906
61827,32569,39885
61819,32549,39861
61812,32530,39833
61798,32512,39803
61773,32489,39765
61748,32462,39722
61727,32439,39679
61708,32417,39638
61690,32396,39599
61678,32373,39560
61664,32350,39518
61636,32321,39469
61596,32284,39415
61562,32251,39364
61540,32224,39320
61522,32199,39280
61502,32175,39239
61489,32157,39198
61476,32140,39159
61450,32116,39121
61423,32092,39084
61412,32083,39047
61406,32087,39016
61398,32086,38998
61397,32083,39004
61413,32095,39034
61446,32122,39083
61487,32155,39152
61539,32197,39249
61613,32259,39375
61703,32343,39530
61800,32439,39708
61910,32544,39906
62039,32663,40123
62175,32795,40357
62306,32931,40598
62433,33067,40840
62562,33204,41083
62692,33339,41322
62813,33464,41548
62931,33584,41759
63048,33699,41961
63156,33806,42150
63248,33900,42316
63330,33981,42454
63404,34052,42572
63462,34109,42672
63500,34151,42750
63533,34184,42809
63568,34216,42860
63592,34245,42902
63601,34265,42930
63602,34279,42946
63598,34289,42953
63586,34290,42950
63567,34279,42934
63551,34264,42910
63543,34251,42883
63531,34237,42854
63514,34219,42822
63503,34202,42788
63497,34190,42759
63483,34177,42731
63464,34159,42700
63450,34138,42668
63438,34117,42634
63418,34092,42593
63389,34059,42539
63358,34024,42477
63324,33990,42412
63283,33951,42339
63239,33909,42260
63202,33869,42181
63169,33832,42109
63131,33792,42039
63095,33750,41971
63065,33713,41909
63037,33681,41855
63004,33649,41803
62975,33622,41757
62958,33605,41719
62948,33595,41692
62939,33588,41674
62940,33589,41669
62954,33594,41675
62971,33596,41689
62978,33595,41710
62983,33600,41739
62991,33614,41776
62997,33631,41815
63001,33649,41849
63014,33668,41877
63033,33689,41901
63044,33705,41921
63048,33714,41936
63053,33719,41947
63060,33723,41960
63058,33718,41969
63050,33707,41970
63048,33697,41967
63048,33689,41960
63035,33674,41943
63011,33656,41912
62988,33641,41876
62967,33628,41837
62938,33608,41793
62909,33584,41745
62888,33562,41697
62868,33540,41648
62842,33512,41595
62814,33482,41533
62789,33454,41468
62761,33424,41405
62721,33388,41344
62678,33349,41280
62646,33315,41218
62616,33284,41159
62579,33249,41097
62539,33209,41028
62503,33167,40953
62466,33125,40880
62424,33084,40813
62385,33046,40749
62355,33015,40690
62330,32987,40637
62300,32956,40585
62269,32922,40533
62244,32890,40481
62218,32860,40429
62186,32829,40375
62154,32799,40321
62127,32770,40268
62099,32739,40217
62065,32703,40167
62031,32667,40115
62000,32640,40064
61968,32617,40010
61936,32594,39958
61914,32576,39912
61895,32559,39877
61869,32536,39841
61841,32511,39803
61821,32491,39770
61807,32473,39746
61789,32452,39722
61765,32430,39694
61745,32412,39663
61727,32392,39632
61703,32367,39597
61677,32344,39560
61663,32326,39522
61654,32312,39487
61638,32297,39457
61618,32277,39427
61606,32259,39398
61596,32241,39366
61578,32218,39325
61555,32194,39280
61541,32175,39238
61528,32160,39202
61511,32141,39168
61496,32119,39131
61486,32100,39095
61470,32081,39063
61448,32064,39034
61430,32054,39009
61421,32050,38986
61414,32043,38963
61404,32034,38942
61400,32028,38928
61406,32031,38928
61416,32038,38944
61430,32053,38979
61461,32084,39041
61513,32133,39134
61575,32197,39250
61643,32270,39385
61724,32357,39542
61824,32460,39727
61935,32574,39935
62050,32692,40155
62172,32818,40383
62299,32949,40619
62423,33076,40859
62545,33199,41094
62671,33323,41316
62798,33443,41525
62909,33551,41715
63004,33646,41884
63087,33731,42030
63157,33807,42156
63210,33867,42257
63259,33914,42334
63310,33954,42397
63351,33989,42450
63374,34013,42491
63386,34026,42517
63395,34037,42531
63398,34042,42535
63392,34039,42527
63377,34028,42508
63362,34016,42484
63345,34003,42462
63321,33989,42437
63297,33977,42411
63278,33967,42386
63257,33954,42360
63234,33938,42330
63216,33926,42297
63200,33918,42265
63179,33907,42231
63148,33886,42190
63117,33857,42139
63093,33825,42083
63065,33785,42021
63030,33733,41954
62998,33673,41888
62973,33615,41826
62941,33557,41763
62894,33501,41693
62840,33452,41622
62794,33411,41551
62747,33375,41476
62699,33341,41398
62664,33313,41328
62645,33294,41274
62629,33276,41232
62617,33260,41198
62615,33256,41178
62620,33261,41170
62622,33267,41168
62625,33272,41168
62639,33279,41175
62656,33282,41190
62664,33282,41209
62673,33286,41230
62691,33299,41255
62710,33318,41284
62719,33333,41312
62723,33342,41333
62733,33350,41353
62743,33354,41373
62744,33352,41385
62743,33346,41384
62746,33341,41376
62744,33337,41363
62733,33330,41342
62719,33320,41315
62707,33311,41287
62691,33299,41258
62667,33283,41224
62643,33262,41182
62615,33238,41133
62578,33207,41079
62537,33172,41022
62504,33143,40961
62474,33119,40901
62436,33095,40845
62394,33066,40787
62360,33033,40727
62327,33000,40668
62287,32961,40606
62245,32914,40540
62211,32868,40477
62180,32825,40418
62142,32780,40357
62101,32732,40292
62065,32689,40224
62036,32657,40165
62012,32632,40113
61990,32607,40064
61974,32584,40015
61958,32560,39965
61930,32531,39912
61896,32498,39855
61867,32466,39800
61839,32436,39748
61808,32405,39696
61779,32375,39642
61757,32354,39591
61734,32337,39544
61704,32317,39497
61675,32294,39450
61653,32272,39406
61631,32250,39365
61602,32228,39324
61575,32206,39279
61550,32183,39238
61519,32154,39202
61486,32125,39162
61462,32102,39121
61447,32087,39083
61430,32068,39045
61408,32044,39002
61392,32020,38954
61379,32000,38906
61356,31973,38865
61328,31941,38825
61307,31912,38785
61293,31893,38748
61274,31877,38711
61250,31858,38671
61229,31836,38629
61214,31816,38593
61197,31796,38566
61177,31775,38538
61162,31759,38511
61150,31746,38487
61134,31730,38466
61118,31714,38446
61110,31704,38430
61105,31705,38428
61098,31714,38439
61102,31730,38465
61124,31757,38510
61157,31792,38576
61197,31834,38664
61251,31889,38775
61327,31963,38913
61418,32055,39073
61518,32160,39253
61634,32275,39446
61765,32399,39654
61897,32526,39872
62018,32649,40091
62138,32772,40309
62261,32899,40528
62380,33023,40746
62488,33138,40949
62590,33248,41131
62689,33354,41293
62771,33444,41436
62835,33509,41561
62894,33553,41669
62945,33586,41763
62979,33612,41839
63002,33628,41892
63024,33640,41924
63040,33652,41942
63042,33659,41949
63030,33655,41939
63014,33646,41916
62999,33636,41887
62974,33621,41855
62941,33599,41817
62914,33577,41775
62893,33557,41732
62869,33536,41690
62843,33510,41648
62822,33484,41607
62808,33460,41567
62792,33437,41522
62771,33414,41470
62748,33388,41413
62720,33358,41353
62680,33321,41288
62636,33283,41217
62593,33247,41143
62546,33208,41068
62493,33162,40988
62443,33110,40899
62401,33060,40807
62359,33012,40720
62309,32963,40639
62262,32917,40567
62228,32880,40507
62200,32847,40456
62170,32815,40407
62149,32790,40365
62141,32781,40336
62134,32781,40319
62122,32781,40314
62117,32784,40318
62126,32795,40333
62137,32809,40355
62147,32820,40377
62157,32829,40398
62170,32842,40423
62180,32856,40451
62186,32866,40477
62200,32877,40502
62221,32894,40527
62232,32905,40546
62233,32907,40557
62236,32907,40567
62241,32908,40577
62239,32908,40581
62231,32904,40578
62226,32901,40570
62218,32894,40557
62196,32880,40537
62171,32860,40507
62152,32841,40471
62134,32821,40432
