green_channel,red_channel,ir_channel
44407,11734,51847
44420,11741,51861
44430,11743,51874
44435,11742,51886
44440,11742,51900
44444,11741,51911
44449,11739,51917
44449,11738,51914
44442,11734,51902
44435,11732,51889
44433,11733,51880
44430,11731,51867
44424,11728,51844
44413,11723,51817
44398,11711,51790
44384,11694,51763
44372,11676,51739
44365,11664,51726
44362,11657,51725
44355,11647,51718
44345,11632,51698
44332,11616,51668
44311,11598,51630
44291,11582,51588
44279,11572,51546
44273,11568,51510
44269,11563,51479
44257,11542,51443
44232,11510,51403
44204,11482,51371
44178,11461,51346
44153,11442,51316
44130,11419,51280
44110,11394,51243
44089,11369,51208
44074,11347,51175
44066,11334,51147
44061,11330,51124
44050,11326,51100
44028,11313,51068
44003,11297,51035
43980,11287,51012
43960,11276,50993
43944,11264,50973
43930,11253,50952
43914,11239,50931
43897,11221,50906
43879,11195,50872
43861,11169,50831
43849,11152,50790
43835,11134,50746
43817,11109,50691
43798,11084,50638
43776,11057,50590
43752,11033,50548
43734,11021,50514
43714,11012,50483
43689,10993,50449
43656,10962,50410
43617,10929,50366
43587,10905,50326
43567,10890,50292
43543,10873,50250
43517,10851,50197
43489,10826,50146
43458,10796,50100
43428,10767,50056
43400,10743,50012
43373,10723,49966
43347,10697,49914
43312,10668,49855
43271,10642,49799
43239,10622,49753
43212,10601,49711
43183,10571,49664
43155,10537,49615
43127,10500,49566
43096,10465,49519
43061,10435,49475
43028,10413,49433
43003,10397,49393
42979,10377,49350
42947,10346,49293
42915,10311,49232
42886,10282,49178
42861,10256,49133
42840,10235,49093
42824,10213,49053
42805,10184,49007
42784,10155,48957
42761,10136,48908
42739,10128,48863
42722,10122,48824
42697,10104,48778
42658,10073,48721
42623,10044,48672
42594,10021,48632
42568,10001,48591
42545,9987,48550
42519,9973,48512
42487,9948,48468
42449,9916,48421
42414,9885,48377
42388,9860,48339
42369,9839,48303
42348,9814,48260
42321,9785,48213
42287,9756,48166
42249,9725,48117
42212,9694,48068
42179,9670,48023
42142,9648,47975
42101,9626,47921
42063,9601,47869
42031,9572,47825
42011,9546,47787
41996,9521,47748
41972,9487,47698
41940,9446,47636
41905,9407,47567
41869,9369,47500
41829,9334,47440
41788,9304,47382
41750,9276,47324
41712,9249,47273
41676,9226,47234
41653,9211,47211
41654,9213,47206
41669,9224,47215
41696,9243,47241
41740,9279,47292
41801,9331,47371
41877,9400,47483
41965,9484,47629
42059,9577,47801
42164,9674,47989
42277,9774,48194
42394,9881,48413
42524,10001,48644
42670,10134,48883
42821,10268,49121
42970,10398,49352
43114,10521,49583
43250,10636,49811
43377,10746,50028
43498,10853,50231
43612,10957,50420
43717,11049,50590
43805,11122,50739
43878,11179,50869
43940,11232,50991
43995,11285,51108
44045,11338,51213
44093,11392,51303
44141,11439,51380
44188,11476,51444
44234,11511,51502
44278,11552,51560
44328,11602,51627
44380,11653,51703
44428,11697,51784
44481,11740,51874
44542,11793,51975
44606,11853,52082
44669,11912,52194
44736,11971,52307
44803,12030,52416
44868,12089,52527
44926,12147,52639
44986,12205,52754
45055,12265,52871
45119,12316,52975
45166,12351,53058
45197,12372,53125
45213,12380,53176
45218,12382,53209
45223,12390,53230
45231,12402,53242
45237,12410,53241
45232,12404,53227
45216,12390,53206
45199,12379,53190
45184,12373,53178
45171,12362,53159
45159,12351,53137
45149,12345,53120
45140,12343,53111
45135,12345,53108
45138,12352,53107
45144,12358,53104
45145,12355,53098
45140,12344,53092
45135,12338,53091
45136,12341,53098
45141,12348,53105
45145,12352,53105
45147,12358,53106
45148,12365,53115
45153,12372,53126
45163,12379,53133
45174,12383,53140
45180,12382,53149
45177,12371,53155
45161,12346,53156
45147,12317,53164
45140,12299,53180
45131,12286,53188
45114,12274,53179
45093,12262,53160
45069,12245,53133
45045,12230,53101
45025,12226,53063
45010,12229,53020
44999,12234,52977
44979,12230,52926
44945,12211,52863
44912,12188,52801
44885,12170,52748
44862,12151,52703
44844,12130,52660
44821,12109,52618
44785,12080,52574
44746,12048,52529
44715,12022,52491
44694,12004,52459
44671,11984,52421
44638,11958,52370
44605,11934,52312
44583,11913,52261
44571,11888,52217
44563,11861,52171
44556,11835,52130
44548,11812,52098
44536,11790,52067
44520,11771,52036
44502,11757,52007
44483,11746,51979
44459,11733,51951
44425,11712,51918
44388,11692,51882
44363,11684,51857
44343,11676,51838
44316,11658,51810
44287,11638,51775
44259,11623,51734
44235,11611,51693
44219,11602,51656
44208,11591,51618
44195,11574,51574
44174,11549,51526
44142,11515,51474
44110,11484,51425
44084,11459,51384
44062,11435,51342
44036,11408,51293
44006,11380,51242
43968,11345,51187
43927,11311,51132
43891,11285,51083
43859,11265,51035
43828,11246,50983
43795,11221,50928
43761,11197,50877
43732,11177,50837
43708,11154,50800
43684,11125,50752
43662,11097,50699
43639,11067,50649
43609,11032,50596
43578,10998,50541
43553,10967,50487
43529,10935,50433
43501,10901,50379
43465,10868,50320
43425,10841,50264
43393,10824,50224
43371,10811,50191
43346,10792,50150
43315,10770,50103
43282,10749,50056
43248,10725,50008
43214,10700,49956
43180,10674,49905
43145,10644,49848
43113,10613,49793
43085,10584,49748
43063,10560,49710
43047,10543,49671
43022,10521,49624
42987,10489,49568
42958,10461,49517
42936,10442,49472
42911,10419,49421
42883,10391,49359
42854,10364,49305
42826,10337,49257
42797,10305,49206
42768,10271,49154
42736,10238,49106
42695,10205,49060
42646,10167,49008
42598,10131,48952
42565,10103,48900
42542,10078,48855
42516,10051,48808
42489,10026,48760
42465,10003,48720
42442,9980,48680
42418,9958,48639
42396,9941,48602
42372,9924,48564
42339,9902,48519
42302,9877,48475
42269,9855,48434
42244,9834,48391
42216,9813,48340
42175,9784,48281
42131,9752,48223
42096,9725,48171
42068,9699,48118
42043,9669,48062
42018,9635,48007
41989,9597,47947
41957,9558,47888
41924,9520,47834
41890,9486,47783
41858,9454,47731
41826,9421,47672
41794,9388,47617
41774,9368,47580
41770,9363,47561
41773,9360,47556
41781,9357,47563
41801,9367,47589
41836,9393,47638
41893,9442,47717
41971,9515,47832
42066,9608,47973
42174,9716,48139
42290,9832,48331
42413,9952,48548
42549,10082,48789
42696,10220,49043
42844,10355,49297
42987,10483,49549
43126,10610,49802
43262,10733,50052
43403,10856,50297
43550,10980,50537
43693,11099,50762
43827,11203,50967
43952,11296,51154
44064,11384,51324
44165,11472,51480
44247,11550,51617
44307,11611,51727
44356,11664,51825
44402,11715,51919
44447,11765,52009
44496,11813,52095
44547,11861,52177
44596,11907,52254
44642,11950,52334
44688,11993,52420
44744,12045,52521
44807,12104,52637
44871,12161,52756
44937,12218,52873
45011,12279,52993
45088,12342,53117
45170,12412,53248
45259,12493,53384
45351,12585,53522
45444,12674,53653
45524,12751,53773
45590,12816,53881
45654,12875,53985
45713,12925,54084
45756,12960,54166
45780,12980,54232
45795,12998,54288
45804,13016,54332
45812,13028,54358
45818,13034,54366
45817,13032,54357
45808,13022,54332
45794,13006,54298
45782,12989,54266
45776,12976,54241
45770,12959,54216
45760,12939,54185
45749,12922,54157
45736,12909,54137
45718,12897,54122
45703,12888,54109
45697,12882,54095
45698,12878,54082
45698,12874,54070
45689,12868,54057
45681,12865,54048
45680,12870,54048
45681,12879,54049
45679,12888,54049
45676,12894,54051
45668,12895,54054
45655,12892,54054
45640,12885,54049
45636,12884,54048
45646,12890,54054
45656,12891,54055
45656,12883,54043
45650,12868,54022
45641,12847,53996
45632,12825,53965
45627,12810,53935
45621,12799,53908
45607,12783,53877
45581,12761,53844
45551,12740,53809
45520,12724,53775
45488,12709,53740
45448,12687,53693
45406,12658,53637
45372,12631,53584
45345,12611,53535
45322,12594,53484
45299,12578,53437
45277,12558,53398
45256,12534,53363
45236,12510,53325
45218,12490,53285
45202,12477,53250
45182,12463,53212
45153,12440,53162
45124,12414,53109
45098,12389,53062
45074,12365,53018
45050,12343,52973
45025,12315,52930
44999,12277,52885
44969,12243,52839
44937,12220,52798
44911,12210,52765
44892,12207,52739
44867,12196,52704
44828,12168,52654
44790,12138,52604
44756,12114,52562
44723,12089,52518
44691,12065,52470
44661,12038,52418
44628,12005,52363
44593,11968,52308
44562,11933,52256
44538,11904,52209
44515,11876,52162
44484,11845,52106
44446,11808,52044
44411,11776,51988
44377,11752,51936
44340,11729,51878
44300,11703,51814
44260,11675,51753
44219,11648,51698
44182,11623,51645
44150,11598,51591
44125,11572,51536
44096,11545,51479
44055,11511,51415
44011,11473,51352
43979,11444,51301
43953,11420,51258
43927,11395,51210
43900,11370,51162
43871,11344,51113
43842,11319,51062
43814,11300,51014
43781,11280,50963
43744,11252,50906
43701,11213,50844
43655,11170,50779
43615,11131,50718
43582,11099,50663
43551,11069,50605
43519,11040,50548
43484,11015,50497
43447,10991,50448
43414,10969,50398
43385,10951,50347
43361,10936,50297
43340,10921,50244
43311,10895,50180
43271,10856,50109
43231,10815,50043
43192,10774,49983
43155,10734,49923
43122,10697,49868
43094,10663,49817
43066,10630,49764
43037,10600,49708
43011,10576,49654
42990,10560,49608
42967,10546,49562
42930,10522,49505
42882,10488,49440
42835,10453,49380
42791,10420,49326
42749,10388,49270
42711,10359,49216
42674,10327,49163
42635,10295,49111
42594,10265,49060
42555,10234,49009
42520,10204,48955
42483,10173,48898
42440,10136,48838
42399,10099,48783
42368,10066,48732
42336,10034,48675
42303,10002,48611
42269,9968,48548
42230,9934,48487
42194,9905,48430
42165,9881,48380
42141,9863,48333
42114,9846,48281
42076,9824,48221
42026,9792,48159
41978,9759,48103
41940,9730,48048
41908,9699,47990
41881,9672,47932
41850,9641,47872
41810,9604,47804
41765,9562,47734
41726,9522,47665
41702,9489,47597
41683,9460,47531
41650,9424,47463
41605,9384,47397
41560,9352,47344
41519,9331,47306
41490,9317,47284
41478,9312,47279
41480,9315,47284
41491,9328,47304
41517,9356,47350
41562,9400,47429
41627,9460,47537
41707,9533,47665
41799,9616,47811
41905,9714,47982
42023,9825,48178
42153,9949,48396
42297,10082,48635
42448,10220,48885
42603,10363,49138
42753,10501,49382
42892,10624,49615
43024,10740,49847
43149,10850,50075
43270,10955,50290
43391,11062,50494
43506,11163,50683
43608,11253,50850
43686,11325,50986
43741,11378,51092
43786,11425,51189
43828,11472,51279
43868,11516,51356
43912,11555,51421
43959,11590,51479
44003,11617,51529
44043,11639,51577
44088,11669,51637
44142,11712,51716
44201,11761,51802
44256,11801,51885
44305,11835,51967
44355,11874,52057
44407,11922,52152
44459,11978,52245
44515,12041,52340
44577,12107,52441
44641,12172,52543
44696,12235,52641
44747,12292,52739
44802,12346,52840
44855,12394,52934
44904,12436,53017
44949,12470,53086
44982,12490,53135
45002,12497,53168
45005,12492,53186
44997,12486,53192
44987,12485,53194
44972,12476,53186
44950,12460,53164
44924,12443,53137
44897,12425,53111
44873,12406,53083
44853,12389,53057
44845,12382,53041
44852,12384,53036
44855,12380,53027
44849,12369,53008
44839,12363,52994
44832,12364,52990
44833,12369,52990
44842,12380,52994
44857,12397,53002
44874,12414,53011
44883,12421,53010
44882,12420,53006
44880,12426,53010
44877,12434,53019
44871,12440,53027
44867,12446,53033
44863,12448,53034
44854,12440,53027
44838,12418,53010
44819,12392,52990
44806,12373,52976
44801,12361,52968
44794,12348,52953
44781,12333,52928
44761,12315,52898
44736,12295,52864
44710,12277,52829
44690,12264,52793
44676,12256,52754
44661,12246,52706
44637,12226,52647
44609,12202,52593
44578,12176,52546
44551,12155,52506
44535,12144,52472
44524,12137,52441
44518,12125,52411
44507,12109,52380
44486,12087,52343
44469,12066,52309
44459,12050,52283
44448,12035,52254
44435,12016,52216
44419,11993,52173
44394,11966,52129
44365,11938,52085
44339,11916,52043
44320,11902,52004
44302,11893,51965
44274,11876,51920
44238,11851,51870
44205,11828,51828
44181,11810,51795
44162,11794,51759
44146,11775,51720
44125,11751,51678
44096,11721,51635
44065,11694,51593
44039,11677,51555
44020,11668,51521
44003,11658,51488
43979,11637,51445
43950,11615,51403
43922,11597,51367
43894,11575,51329
43869,11550,51285
43844,11527,51238
43813,11500,51185
43780,11472,51129
43751,11447,51075
43726,11424,51018
43704,11406,50959
43673,11387,50900
43631,11362,50845
43599,11337,50807
43581,11310,50781
43562,11281,50753
43538,11251,50717
43510,11216,50673
43478,11176,50616
43444,11137,50551
43415,11108,50493
43394,11088,50446
43380,11071,50405
43361,11045,50361
43333,11010,50310
43305,10980,50263
43280,10954,50222
43253,10925,50176
43229,10901,50123
43201,10883,50067
43167,10862,50010
43129,10836,49959
43096,10810,49919
43071,10786,49885
43046,10764,49848
43012,10739,49799
42977,10714,49746
42950,10696,49699
42928,10679,49657
42907,10661,49615
42887,10644,49572
42867,10628,49528
42844,10608,49483
42816,10583,49440
42785,10554,49396
42759,10528,49351
42735,10500,49304
42706,10463,49251
42681,10431,49202
42664,10408,49161
42646,10385,49118
42626,10359,49072
42602,10325,49025
42565,10283,48974
42525,10241,48923
42488,10210,48876
42453,10185,48833
42422,10162,48790
42386,10135,48737
42343,10103,48671
42308,10077,48612
42283,10059,48564
42263,10042,48518
42245,10028,48472
42229,10017,48437
42219,10008,48415
42222,10008,48407
42239,10023,48419
42274,10055,48458
42324,10102,48521
42379,10156,48605
42445,10219,48714
42528,10298,48860
42624,10388,49034
42734,10487,49229
42859,10598,49442
42999,10721,49670
43145,10844,49905
43288,10957,50139
43429,11065,50380
43573,11183,50637
43721,11312,50895
43865,11442,51140
43999,11569,51370
44120,11684,51583
44232,11788,51779
44336,11883,51959
44432,11972,52119
44521,12055,52262
44595,12120,52380
44651,12166,52471
44697,12208,52552
44743,12252,52635
44793,12300,52719
44852,12353,52804
44914,12407,52886
44971,12454,52960
45018,12496,53029
45060,12537,53100
45108,12582,53181
45164,12631,53272
45219,12682,53365
45269,12734,53459
45318,12786,53557
45366,12838,53654
45412,12887,53748
45462,12930,53842
45522,12970,53940
45581,13008,54033
45629,13037,54109
45671,13059,54167
45712,13082,54219
45747,13104,54264
45776,13126,54298
45805,13149,54323
45833,13170,54339
45849,13184,54346
45848,13186,54344
45834,13180,54335
45819,13174,54329
45807,13163,54318
45793,13146,54296
45778,13130,54272
45762,13119,54251
45748,13112,54234
45738,13109,54223
45733,13109,54219
45736,13111,54219
45738,13108,54214
45732,13099,54203
45731,13099,54200
45738,13112,54211
45746,13126,54223
45754,13138,54235
45758,13144,54246
45756,13141,54251
45753,13130,54255
45750,13119,54259
45753,13117,54267
45762,13121,54274
45765,13118,54265
45757,13103,54246
45745,13088,54232
45734,13076,54223
45725,13067,54208
45719,13059,54183
45713,13051,54150
45697,13035,54111
45672,13012,54067
45644,12990,54028
45622,12976,54002
45606,12965,53983
45589,12949,53960
45572,12929,53927
45553,12909,53885
45528,12889,53840
45500,12873,53799
45473,12855,53760
45447,12834,53720
45421,12811,53682
45390,12787,53644
45359,12764,53608
45336,12748,53577
45315,12734,53545
45295,12724,53510
45276,12714,53481
45252,12698,53451
45225,12674,53419
45201,12652,53389
45185,12640,53363
45175,12635,53340
45158,12624,53307
45127,12597,53256
45094,12566,53202
45062,12536,53155
45031,12507,53111
45009,12480,53069
44992,12456,53028
44977,12435,52986
44958,12412,52942
44938,12389,52901
44922,12373,52866
44906,12362,52835
44883,12346,52796
44852,12321,52749
44818,12294,52706
44785,12269,52663
44753,12246,52621
44723,12225,52579
44699,12208,52539
44673,12188,52496
44636,12159,52447
44593,12123,52393
44556,12089,52342
44523,12058,52294
44495,12034,52244
44472,12017,52193
44446,11999,52140
44417,11977,52085
44386,11947,52029
44355,11915,51974
44332,11887,51924
44307,11857,51875
44273,11821,51823
44240,11785,51775
44217,11753,51732
44196,11724,51685
44174,11698,51632
44146,11672,51573
44107,11637,51511
44061,11593,51452
44015,11552,51397
43975,11523,51347
43947,11507,51302
43918,11489,51256
43883,11466,51205
43849,11447,51157
43818,11433,51116
43790,11420,51078
43767,11408,51042
43749,11396,51005
43734,11382,50965
43715,11361,50920
43696,11340,50874
43682,11326,50834
43668,11311,50791
43648,11290,50739
43622,11268,50684
43589,11244,50630
43552,11214,50573
43508,11178,50513
43459,11142,50454
43419,11113,50408
43390,11091,50370
43364,11070,50330
43341,11047,50286
43319,11022,50239
43294,10992,50188
43264,10958,50135
43234,10926,50082
43209,10900,50038
43186,10872,49989
43159,10840,49929
43129,10809,49869
43093,10776,49810
43056,10745,49751
43025,10717,49696
43000,10689,49644
42980,10665,49598
42953,10638,49552
42915,10603,49496
42875,10566,49438
42836,10533,49387
42799,10503,49340
42766,10476,49296
42742,10458,49260
42727,10448,49232
42713,10438,49205
42699,10429,49184
42698,10434,49188
42714,10456,49223
42746,10493,49283
42796,10547,49369
42864,10612,49480
42948,10683,49611
43042,10761,49759
43146,10856,49936
43271,10976,50153
43416,11115,50403
43578,11266,50672
43754,11426,50956
43934,11589,51245
44112,11751,51533
44281,11909,51818
44442,12064,52099
44597,12215,52376
44745,12353,52638
44883,12473,52874
45017,12581,53094
45142,12679,53299
45255,12770,53486
45361,12856,53656
45458,12935,53807
45548,13008,53942
45624,13071,54056
45686,13121,54153
45747,13168,54253
45813,13219,54359
45881,13273,54467
45956,13338,54581
46032,13410,54699
46102,13484,54815
46169,13556,54932
46232,13628,55052
46301,13706,55186
46385,13790,55334
46471,13867,55479
46552,13935,55616
46635,14002,55758
46722,14074,55912
46811,14145,56068
46901,14216,56220
46988,14284,56363
47065,14347,56488
47125,14399,56591
47174,14447,56677
47220,14496,56753
47256,14536,56814
47278,14562,56851
47288,14579,56868
47286,14587,56871
47271,14581,56862
47244,14562,56840
47214,14539,56811
47190,14525,56785
47175,14516,56755
47162,14500,56716
47148,14477,56669
47132,14453,56625
47120,14435,56590
47117,14427,56568
47120,14425,56556
47127,14428,56553
47131,14428,56549
47127,14428,56538
47124,14436,56533
47123,14446,56539
47125,14454,56550
47132,14463,56562
47142,14470,56577
47149,14474,56590
47146,14470,56594
47132,14459,56587
47117,14445,56578
47103,14431,56572
47094,14421,56567
47092,14421,56562
47097,14427,56558
47102,14433,56553
47097,14430,56539
47081,14418,56518
47066,14406,56500
47052,14392,56486
47040,14375,56463
47030,14357,56433
47015,14333,56394
46995,14298,56346
46970,14255,56291
46940,14216,56234
46912,14189,56182
46886,14170,56131
46861,14151,56076
46836,14131,56027
46804,14112,55989
46771,14093,55955
46743,14074,55920
46719,14055,55882
46698,14039,55847
46676,14018,55808
46651,13994,55760
46627,13973,55712
46602,13948,55668
46578,13923,55626
46558,13903,55587
46543,13888,55549
46527,13872,55508
46501,13849,55459
46461,13817,55401
46426,13790,55349
46400,13770,55309
46380,13755,55274
46361,13742,55242
46342,13727,55207
46318,13704,55165
46287,13675,55120
46250,13646,55072
46220,13625,55028
46196,13606,54986
46170,13578,54936
46136,13543,54880
46100,13510,54825
46064,13479,54773
46030,13449,54721
45999,13423,54673
45969,13402,54627
45937,13376,54576
45895,13335,54512
45851,13290,54443
45818,13252,54385
45788,13223,54332
45756,13200,54277
45723,13178,54221
45690,13154,54165
45655,13124,54107
45613,13087,54044
45569,13050,53984
45531,13021,53934
45498,12994,53885
45469,12964,53831
45438,12933,53775
45403,12899,53715
45372,12866,53654
45349,12839,53599
45331,12821,53546
45313,12806,53493
45282,12778,53429
45237,12736,53354
45193,12696,53282
45154,12664,53220
45120,12636,53164
45091,12612,53109
45064,12586,53056
45030,12552,52999
44987,12512,52937
44945,12478,52876
44915,12453,52825
44897,12434,52780
44877,12407,52727
44846,12380,52662
44804,12359,52592
44758,12338,52523
44717,12312,52458
44675,12281,52398
44636,12247,52342
44599,12208,52282
44555,12159,52211
44507,12111,52145
44467,12073,52098
44434,12044,52061
44403,12017,52022
44376,11988,51973
44346,11956,51913
44309,11922,51851
44271,11891,51795
44235,11865,51741
44201,11845,51686
44165,11819,51619
44124,11785,51538
44080,11752,51454
44036,11718,51374
43996,11685,51297
43962,11657,51226
43931,11635,51160
43900,11612,51095
43862,11579,51023
43816,11536,50946
43771,11498,50883
43734,11468,50838
43703,11441,50793
43678,11417,50742
43654,11393,50684
43623,11364,50621
43578,11326,50548
43529,11278,50469
43488,11237,50398
43457,11201,50333
43426,11163,50266
43394,11124,50199
43362,11086,50136
43329,11052,50080
43298,11026,50037
43278,11017,50012
43277,11027,50010
43291,11053,50029
43310,11084,50065
43335,11119,50121
43375,11167,50212
43438,11231,50336
43529,11314,50488
43643,11419,50665
43775,11540,50866
43925,11672,51094
44087,11811,51347
44255,11960,51622
44432,12121,51914
44612,12283,52211
44790,12444,52504
44962,12603,52797
45119,12748,53083
45266,12879,53349
45408,13004,53595
45540,13124,53827
45665,13235,54040
45778,13332,54223
45875,13416,54378
45969,13498,54524
46063,13582,54666
46152,13660,54802
46236,13735,54931
46312,13808,55054
46376,13873,55167
46432,13928,55274
46485,13976,55381
46548,14027,55502
46627,14086,55635
46713,14146,55766
46792,14214,55887
46865,14288,56006
46933,14356,56123
47000,14418,56241
47070,14487,56368
47150,14567,56512
47235,14648,56665
47316,14724,56809
47397,14798,56947
47477,14871,57082
47554,14941,57211
47622,15007,57329
47683,15070,57437
47741,15129,57535
47790,15175,57612
47827,15202,57659
47852,15221,57687
47863,15232,57702
47861,15234,57701
47853,15231,57688
47844,15227,57664
47836,15215,57629
47813,15187,57580
47771,15143,57520
47730,15102,57465
47697,15076,57423
47673,15062,57387
47660,15056,57352
47651,15050,57319
47637,15040,57290
47619,15026,57266
47598,15007,57250
47586,14995,57248
47588,14996,57258
47595,15000,57266
47602,14998,57270
47605,14992,57271
47601,14983,57269
47590,14974,57264
47580,14970,57260
47575,14974,57256
47568,14977,57251
47555,14972,57240
47538,14967,57224
47522,14966,57209
47509,14963,57197
47503,14955,57191
47500,14949,57189
47499,14949,57181
47493,14947,57163
47475,14932,57128
47448,14905,57080
47417,14875,57025
47383,14845,56969
47349,14818,56913
47314,14791,56857
47273,14760,56799
47230,14723,56740
47187,14683,56680
47149,14648,56626
47116,14618,56582
47086,14590,56541
47061,14565,56503
47041,14539,56464
47023,14511,56419
47001,14482,56370
46969,14454,56319
46938,14434,56272
46915,14419,56233
46897,14405,56195
46885,14393,56156
46869,14378,56118
46843,14352,56074
46811,14322,56030
46782,14297,55991
46760,14278,55957
46745,14262,55921
46723,14237,55874
46689,14205,55818
46649,14173,55767
46609,14142,55721
46572,14112,55674
46538,14090,55627
46505,14070,55576
46471,14046,55518
46434,14021,55459
46400,13996,55405
46377,13976,55358
46356,13948,55316
46323,13905,55269
46280,13865,55217
46235,13837,55167
46190,13812,55115
46150,13787,55058
46114,13760,54999
46087,13735,54940
46060,13703,54880
46026,13660,54811
45991,13619,54743
45963,13586,54687
45937,13555,54633
45914,13528,54578
45888,13503,54520
45857,13477,54459
45820,13449,54396
45776,13417,54337
45739,13391,54286
45716,13372,54244
45693,13351,54197
45665,13329,54143
45633,13306,54087
45598,13278,54030
45559,13246,53971
45518,13217,53914
45481,13195,53864
45449,13174,53816
45414,13147,53759
45376,13115,53695
45339,13083,53633
45305,13052,53572
45273,13018,53512
45242,12984,53454
45214,12953,53404
45187,12923,53356
45152,12890,53301
45111,12855,53242
45076,12827,53186
45048,12802,53131
45022,12773,53069
44995,12743,53006
44963,12712,52939
44927,12672,52867
44887,12627,52792
44843,12584,52721
44796,12547,52659
44748,12507,52595
44696,12462,52519
44647,12417,52441
44599,12373,52364
44554,12335,52294
44517,12305,52233
44485,12278,52178
44460,12251,52123
44428,12219,52061
44385,12178,51993
44344,12139,51931
44308,12106,51881
44278,12082,51838
44261,12071,51804
44257,12069,51783
44261,12067,51775
44269,12069,51785
44281,12083,51822
44313,12120,51899
44374,12180,52012
44462,12260,52150
44574,12360,52310
44700,12475,52495
44832,12597,52700
44972,12724,52925
45123,12861,53173
45286,13010,53440
45453,13163,53712
45609,13306,53971
45757,13432,54211
45902,13549,54446
46043,13664,54676
46178,13776,54897
46307,13886,55113
46424,13989,55321
46526,14079,55505
46607,14153,55660
46678,14219,55797
46751,14283,55924
46820,14337,56029
46878,14383,56110
46931,14427,56182
46983,14471,56251
47032,14512,56317
47079,14551,56387
47124,14588,56458
47168,14629,56534
47209,14666,56611
47244,14698,56688
47284,14732,56775
47336,14775,56872
47399,14826,56974
47472,14883,57076
47549,14942,57179
47621,14998,57280
47685,15047,57371
47741,15088,57452
47793,15130,57529
47844,15170,57599
47884,15200,57648
47911,15217,57677
47925,15222,57692
47924,15213,57695
47914,15197,57689
47907,15184,57679
47905,15172,57664
47900,15155,57642
47884,15129,57610
47859,15099,57573
47836,15079,57543
47817,15066,57520
47804,15057,57503
47795,15052,57492
47788,15049,57482
47780,15046,57473
47767,15038,57468
47753,15031,57470
47750,15028,57481
47748,15026,57490
47747,15024,57494
47746,15026,57499
47742,15026,57503
47734,15025,57508
47724,15024,57513
47713,15025,57516
47707,15031,57523
47700,15031,57519
47688,15018,57493
47678,15001,57462
47671,14983,57437
47661,14966,57414
47652,14955,57393
47645,14948,57374
47635,14939,57348
47611,14923,57309
47576,14902,57261
47547,14884,57221
47529,14868,57188
47507,14847,57148
47480,14820,57096
47452,14794,57041
47419,14767,56985
47378,14735,56924
47336,14699,56862
47305,14667,56809
47281,14636,56759
47251,14598,56699
47216,14557,56636
47181,14518,56577
47143,14484,56521
47106,14458,56467
47080,14440,56414
47066,14427,56365
47052,14410,56316
47033,14385,56264
47008,14355,56210
46981,14330,56162
46953,14311,56118
46925,14295,56071
46896,14278,56021
46863,14259,55971
46825,14237,55922
46780,14212,55874
46740,14192,55830
46711,14178,55796
46685,14162,55761
46660,14139,55719
46634,14112,55672
46604,14076,55623
46572,14035,55574
46541,13995,55527
46514,13963,55484
46488,13937,55440
46454,13910,55386
46414,13883,55323
46370,13854,55256
46323,13818,55188
46277,13778,55119
46234,13742,55054
46196,13710,54996
46163,13682,54938
46127,13651,54870
46085,13615,54796
46038,13581,54729
45988,13546,54672
45944,13514,54624
45914,13490,54584
45893,13471,54547
45871,13447,54503
45835,13407,54441
45794,13360,54373
45763,13323,54316
45737,13294,54264
45715,13269,54209
45694,13245,54150
45668,13219,54086
45634,13187,54019
45592,13150,53951
45549,13117,53891
45512,13090,53840
45477,13061,53790
45442,13028,53736
45413,12996,53682
45385,12961,53631
45353,12925,53583
45320,12892,53540
45294,12865,53499
45277,12839,53460
45256,12804,53413
45228,12761,53357
45195,12723,53303
45156,12689,53252
45113,12658,53201
45079,12634,53156
45049,12614,53116
45018,12590,53076
44981,12557,53029
44940,12522,52980
44904,12497,52940
44878,12477,52905
44856,12454,52863
44833,12426,52812
44807,12395,52760
44777,12360,52706
44745,12325,52651
44711,12293,52596
44674,12264,52540
44631,12232,52480
44580,12192,52412
44530,12149,52341
44490,12116,52279
44455,12088,52224
44420,12061,52166
44386,12031,52106
44347,11995,52042
44302,11955,51981
44257,11920,51933
44215,11889,51889
44180,11862,51844
44147,11836,51794
44113,11810,51741
44088,11793,51706
44080,11794,51704
44090,11808,51728
44116,11834,51775
44158,11875,51847
44214,11930,51945
44285,12001,52075
44381,12093,52240
44506,12205,52440
44654,12336,52668
44812,12479,52914
44971,12627,53173
45138,12786,53452
45314,12952,53747
45494,13121,54047
45674,13287,54342
45848,13444,54627
46009,13585,54900
46155,13709,55159
46292,13824,55405
46428,13940,55640
46560,14054,55859
46675,14155,56049
46775,14247,56213
46866,14333,56363
46945,14410,56501
47015,14480,56628
47085,14550,56746
47155,14618,56858
47217,14679,56959
47268,14730,57044
47312,14775,57122
47362,14826,57210
47419,14885,57308
47488,14950,57412
47566,15019,57524
47645,15089,57644
47724,15160,57778
47803,15235,57923
47887,15316,58077
47977,15400,58237
48068,15481,58390
48156,15559,58524
48238,15634,58652
48307,15700,58781
48367,15756,58904
48424,15811,59015
48479,15864,59109
48525,15907,59181
48554,15935,59224
48562,15950,59240
48559,15958,59239
48548,15956,59226
48531,15942,59198
48509,15923,59161
48483,15900,59123
48447,15869,59077
48405,15833,59022
48366,15798,58967
48336,15771,58920
48309,15746,58876
48277,15717,58825
48243,15688,58768
48216,15667,58720
48195,15652,58689
48179,15645,58669
48172,15645,58652
48166,15645,58635
48158,15643,58623
48147,15642,58615
48140,15645,58608
48143,15653,58606
48146,15658,58605
48143,15657,58596
48137,15656,58589
48129,15656,58587
48120,15652,58583
48115,15646,58572
48111,15642,58562
48105,15634,58549
48098,15622,58530
48093,15610,58510
48090,15598,58486
48087,15584,58456
48074,15561,58413
48045,15523,58356
48006,15482,58297
47964,15440,58246
47922,15402,58200
47889,15373,58160
47859,15352,58119
47829,15332,58074
47796,15305,58024
47761,15273,57973
47730,15243,57925
47700,15215,57878
47669,15186,57824
47635,15155,57760
47599,15124,57698
47559,15092,57641
47522,15060,57590
47493,15034,57543
47469,15012,57502
47448,14994,57462
47419,14967,57412
47384,14933,57356
47352,14903,57306
47321,14873,57256
47284,14837,57201
47251,14794,57146
47222,14748,57090
47195,14709,57038
47168,14682,56992
47144,14663,56943
47124,14651,56891
47098,14637,56838
47064,14613,56779
47030,14586,56722
46998,14559,56676
46962,14528,56630
46925,14497,56578
46883,14468,56525
46831,14441,56469
46777,14412,56411
46726,14383,56358
46687,14361,56314
46659,14346,56276
46631,14326,56231
46594,14299,56172
46553,14272,56107
46505,14241,56039
46456,14206,55969
46416,14172,55901
46381,14137,55838
46342,14097,55771
46293,14050,55699
46241,13998,55626
46193,13951,55560
46152,13912,55498
46116,13876,55432
46085,13839,55368
46048,13800,55304
46004,13757,55238
45959,13709,55170
45918,13665,55107
45888,13634,55055
45862,13608,55003
45822,13571,54937
45770,13526,54858
45715,13486,54786
45661,13452,54723
45614,13425,54664
45576,13406,54605
45540,13389,54545
45501,13365,54486
45461,13332,54425
45429,13299,54370
45406,13269,54324
45386,13237,54279
45370,13203,54225
45348,13170,54168
45318,13137,54107
45283,13101,54045
45251,13067,53986
45228,13041,53936
45210,13021,53894
45184,12998,53843
45150,12969,53782
45113,12936,53719
45069,12899,53655
45023,12862,53593
44984,12833,53535
44956,12811,53486
44930,12789,53440
44892,12759,53382
44842,12721,53316
44793,12686,53254
44749,12650,53198
44709,12610,53140
44674,12573,53081
44640,12539,53022
44601,12501,52959
44554,12458,52891
44507,12416,52824
44468,12379,52764
44431,12345,52707
44392,12310,52648
44352,12276,52587
44308,12241,52523
44261,12209,52456
44215,12182,52389
44171,12159,52324
44139,12140,52270
44118,12126,52228
44107,12119,52201
44108,12122,52197
44121,12134,52216
44145,12158,52260
44179,12196,52333
44232,12251,52438
44310,12330,52575
44409,12427,52738
44527,12537,52927
44663,12657,53142
44806,12778,53373
44953,12900,53616
45104,13027,53875
45263,13167,54151
45433,13323,54438
45606,13485,54725
45773,13641,55006
45929,13786,55278
46069,13920,55537
46199,14046,55777
46325,14170,56000
46447,14294,56209
46560,14407,56399
46654,14497,56562
46731,14572,56701
46798,14640,56829
46858,14699,56952
46916,14754,57071
46973,14806,57189
47033,14857,57304
47096,14906,57417
47158,14948,57524
47219,14990,57632
47285,15039,57746
47357,15096,57867
47434,15168,57994
47518,15256,58129
47605,15350,58266
47690,15445,58407
47771,15535,58552
47855,15624,58705
47948,15717,58865
48042,15811,59019
48134,15897,59161
48217,15970,59286
48280,16023,59388
48328,16062,59472
48364,16092,59542
48394,16116,59601
48422,16138,59651
48440,16152,59683
48443,16153,59689
48436,16144,59676
48420,16125,59647
48396,16100,59601
48370,16075,59548
48349,16056,59497
48332,16040,59448
48309,16016,59389
48284,15988,59323
48256,15955,59262
48224,15917,59209
48194,15879,59164
48173,15852,59128
48162,15836,59102
48155,15828,59082
48144,15822,59064
48130,15815,59047
48122,15811,59042
48119,15812,59048
48122,15813,59055
48133,15817,59060
48149,15822,59064
48160,15822,59066
48159,15815,59062
48152,15807,59055
48150,15805,59053
48147,15803,59044
48138,15796,59025
48126,15784,59003
48111,15767,58981
48093,15751,58959
48072,15740,58936
48054,15730,58912
48043,15721,58886
48029,15704,58846
48010,15680,58795
47987,15652,58741
47956,15616,58684
47912,15574,58622
47861,15533,58562
47816,15505,58513
47785,15488,58474
47759,15469,58432
47733,15445,58382
47706,15413,58327
47675,15372,58271
47642,15331,58216
47613,15300,58169
47589,15280,58130
47565,15257,58090
47538,15230,58045
47509,15203,57999
47483,15181,57959
47459,15167,57923
47433,15154,57887
47407,15137,57850
47381,15117,57807
47354,15096,57763
47322,15072,57714
47285,15042,57663
47248,15008,57621
47213,14973,57580
47180,14936,57533
47152,14902,57483
47122,14866,57428
47084,14829,57370
47040,14793,57314
47001,14765,57262
46971,14746,57214
46942,14723,57165
46906,14693,57108
46867,14664,57050
46825,14636,56992
46785,14609,56932
46753,14590,56876
46731,14576,56822
46710,14561,56771
46681,14539,56716
46641,14506,56656
46600,14472,56600
46562,14441,56553
46527,14412,56506
46497,14388,56458
46470,14367,56407
46441,14341,56350
46404,14303,56285
46359,14260,56214
46311,14220,56146
46265,14183,56082
46225,14146,56018
46192,14111,55958
46165,14076,55905
46137,14041,55852
46104,14005,55799
46068,13969,55748
46038,13940,55705
46011,13915,55662
45974,13888,55605
45932,13858,55538
45889,13827,55473
45843,13791,55408
45800,13753,55337
45763,13715,55265
45736,13684,55202
45715,13659,55144
45695,13631,55083
45671,13601,55021
45639,13568,54958
45598,13533,54897
45551,13498,54839
45505,13467,54787
45465,13444,54741
45425,13421,54691
45385,13398,54633
45346,13371,54569
45305,13334,54501
45257,13286,54426
45200,13229,54344
45147,13176,54266
45103,13135,54200
45065,13105,54138
45034,13081,54077
45008,13057,54020
44982,13032,53959
44950,13001,53891
44909,12962,53817
44868,12926,53751
44831,12897,53693
44797,12872,53638
44770,12849,53587
44750,12832,53543
44735,12819,53511
44726,12814,53498
44732,12829,53515
44764,12869,53575
44820,12926,53674
44894,12994,53799
44982,13073,53948
45088,13166,54124
45211,13272,54319
45352,13387,54530
45503,13510,54757
45661,13642,55006
45824,13781,55266
45987,13923,55528
46146,14061,55791
46295,14188,56046
46433,14308,56290
46563,14427,56525
46690,14548,56753
46818,14668,56970
46935,14775,57161
47033,14863,57314
47118,14937,57441
47190,14995,57551
47250,15044,57653
47305,15093,57750
47362,15147,57844
47423,15203,57936
47475,15252,58016
47517,15291,58085
47557,15333,58156
47600,15378,58233
47646,15421,58312
47700,15463,58394
47764,15508,58482
47829,15554,58574
47887,15596,58660
47940,15636,58744
47996,15683,58836
48054,15732,58933
48109,15781,59025
48163,15833,59110
48212,15883,59188
48251,15922,59254
48281,15948,59306
48303,15965,59346
48322,15978,59382
48336,15987,59405
48336,15981,59403
48320,15962,59378
48293,15934,59337
48255,15903,59286
48215,15872,59231
48175,15842,59177
48140,15810,59125
48105,15778,59068
48068,15746,59003
48034,15718,58945
48006,15695,58899
47980,15676,58860
47956,15661,58827
47935,15649,58795
47913,15637,58763
47891,15625,58732
47871,15613,58704
47859,15609,58685
47853,15612,58672
47839,15608,58654
47818,15597,58630
47800,15587,58604
47786,15577,58576
47773,15568,58548
47761,15563,58527
47752,15559,58511
47742,15549,58491
47719,15525,58463
47683,15491,58426
47644,15462,58388
47606,15439,58349
47571,15417,58304
47543,15397,58251
47520,15371,58192
47491,15335,58126
47451,15294,58054
47407,15257,57984
47372,15230,57924
47340,15204,57869
47304,15177,57808
47264,15154,57746
47224,15133,57688
47185,15108,57628
47149,15079,57565
47115,15047,57500
47089,15016,57437
47065,14982,57378
47037,14942,57314
47008,14902,57252
46976,14866,57196
46942,14831,57140
46913,14800,57085
46889,14774,57033
46867,14751,56983
46840,14723,56930
46804,14684,56867
46766,14642,56806
46727,14606,56756
46691,14578,56712
46664,14559,56669
46648,14544,56627
46640,14531,56584
46622,14512,56532
46588,14485,56468
46550,14458,56406
46516,14433,56351
46484,14407,56298
46457,14382,56245
46434,14359,56192
46407,14332,56137
46369,14291,56074
46327,14246,56012
46295,14210,55964
46264,14175,55923
46228,14135,55874
46188,14098,55819
46147,14065,55762
46100,14030,55703
46052,13988,55646
46004,13946,55596
45964,13913,55555
45931,13887,55513
45898,13860,55460
45868,13831,55400
45840,13801,55337
45814,13770,55272
45788,13744,55208
45763,13725,55148
45742,13708,55094
45712,13681,55033
45670,13639,54962
45628,13593,54894
45588,13545,54830
45552,13499,54771
45524,13463,54720
45499,13436,54681
45476,13415,54647
45446,13387,54605
45410,13352,54550
45370,13317,54488
45322,13280,54423
45270,13242,54357
45222,13211,54292
45185,13191,54236
45156,13177,54186
45125,13158,54133
45094,13134,54076
45064,13107,54016
45033,13075,53951
44996,13033,53882
44953,12985,53815
44918,12946,53760
44896,12917,53711
44879,12889,53652
44857,12858,53584
44828,12823,53516
44796,12786,53450
44769,12753,53390
44755,12730,53339
44756,12718,53301
44761,12707,53267
44766,12692,53236
44774,12682,53218
44787,12679,53219
44810,12685,53238
44839,12701,53277
44879,12732,53342
44941,12790,53444
45027,12869,53578
45130,12965,53736
45248,13076,53922
45378,13196,54134
45516,13321,54368
45660,13456,54623
45818,13607,54901
45992,13770,55201
46166,13928,55503
46337,14078,55794
46506,14221,56076
46663,14359,56347
46805,14491,56604
46939,14614,56850
47073,14728,57080
47206,14833,57291
47334,14930,57479
47452,15021,57643
47554,15103,57789
47635,15173,57919
47699,15231,58036
47752,15281,58143
47806,15337,58249
47862,15392,58354
47915,15438,58449
47967,15483,58540
48025,15534,58634
48087,15589,58732
48155,15646,58834
48233,15711,58943
48320,15784,59062
48409,15860,59186
48490,15926,59302
48561,15986,59413
48631,16049,59529
48694,16111,59647
48750,16171,59759
48804,16226,59860
48852,16271,59949
48893,16307,60027
48927,16337,60090
48951,16362,60139
48970,16380,60180
48983,16389,60204
48987,16390,60205
48980,16381,60188
48957,16365,60157
48924,16342,60117
48888,16314,60075
48857,16281,60034
48830,16249,59991
48797,16217,59940
48758,16183,59884
48722,16148,59831
48691,16113,59785
48670,16090,59752
48663,16086,59732
48667,16089,59721
48677,16090,59712
48683,16086,59698
48680,16077,59679
48672,16070,59668
48661,16068,59665
48653,16070,59669
48654,16081,59680
48664,16094,59693
48675,16098,59700
48674,16093,59692
48662,16085,59673
48645,16078,59654
48627,16069,59633
48609,16055,59609
48590,16036,59582
48573,16012,59551
48554,15980,59514
48526,15937,59470
48493,15890,59425
48463,15849,59382
48434,15813,59334
48408,15784,59282
48387,15759,59230
48365,15733,59177
48342,15705,59125
48315,15675,59073
48283,15646,59023
48248,15622,58977
48209,15596,58921
48164,15559,58851
48116,15517,58778
48066,15475,58706
48017,15439,58637
47976,15415,58577
47948,15398,58528
47930,15384,58483
47908,15364,58435
47876,15341,58387
47841,15321,58342
47808,15302,58300
47773,15280,58255
47736,15256,58205
47706,15230,58156
47677,15202,58106
47644,15165,58049
47612,15126,57991
47582,15092,57938
47550,15055,57884
47513,15016,57829
47476,14981,57776
47445,14952,57730
47417,14921,57685
47386,14883,57634
47351,14843,57578
47314,14804,57522
47272,14768,57465
47229,14734,57408
47192,14701,57353
47160,14670,57298
47124,14636,57235
47082,14598,57161
47036,14563,57088
46990,14531,57021
46948,14504,56961
46911,14485,56906
46874,14469,56850
46840,14447,56792
46803,14415,56727
46758,14374,56657
46717,14337,56595
46684,14307,56542
46656,14275,56488
46627,14244,56433
46594,14213,56378
46554,14179,56320
46506,14138,56253
46448,14087,56179
46393,14039,56111
46345,14000,56051
46301,13962,55990
46263,13927,55926
46229,13894,55861
46196,13858,55794
46159,13819,55729
46121,13783,55669
46089,13752,55617
46060,13724,55566
46026,13690,55503
45991,13654,55430
45962,13621,55362
45938,13584,55299
45916,13541,55236
45896,13501,55175
45876,13467,55118
45850,13433,55058
45812,13398,54988
45766,13363,54917
45723,13335,54855
45683,13311,54798
45645,13291,54745
45608,13273,54696
45575,13256,54648
45542,13237,54597
45502,13208,54538
45461,13170,54479
45425,13130,54427
45390,13093,54379
45357,13060,54331
45320,13025,54273
45276,12985,54200
45223,12939,54120
45166,12891,54040
45114,12852,53971
45070,12821,53912
45030,12788,53847
44990,12752,53774
44951,12720,53703
44910,12691,53635
44868,12661,53574
44837,12636,53521
44815,12614,53473
44794,12590,53429
44769,12563,53388
44751,12545,53360
44744,12540,53355
44753,12548,53375
44782,12571,53422
44833,12611,53502
44901,12669,53618
44986,12745,53764
45089,12842,53938
45214,12960,54140
45360,13098,54376
45522,13247,54634
45689,13396,54900
45858,13544,55174
46033,13697,55465
46212,13852,55763
46388,14005,56056
46559,14153,56343
46720,14293,56617
46869,14426,56871
47010,14553,57105
47138,14666,57316
47254,14765,57502
47354,14851,57663
47435,14928,57803
47507,15003,57932
47579,15079,58054
47641,15145,58158
47691,15198,58245
47736,15245,58331
47777,15289,58418
47821,15333,58505
47873,15383,58595
47931,15437,58689
47993,15489,58788
48050,15535,58884
48105,15580,58980
48167,15635,59087
48237,15700,59203
48313,15774,59324
48396,15855,59447
48479,15933,59571
48554,16003,59692
48621,16072,59811
48682,16139,59929
48743,16203,60045
48800,16260,60150
48843,16300,60231
48868,16319,60287
48882,16325,60324
48882,16323,60342
48867,16315,60345
48845,16305,60335
48820,16294,60313
48787,16278,60275
48746,16254,60221
48707,16228,60164
48677,16205,60113
48649,16180,60060
48621,16155,60002
48595,16131,59942
48569,16109,59883
48539,16082,59824
48505,16048,59764
48476,16017,59716
48455,15998,59680
48436,15986,59648
48422,15978,59618
48415,15973,59597
48407,15966,59580
48388,15950,59561
48361,15925,59540
48343,15906,59528
48335,15899,59522
48328,15895,59515
48318,15889,59504
48308,15883,59486
48298,15872,59459
48282,15857,59423
48263,15839,59384
48248,15824,59350
48235,15809,59317
48219,15789,59274
48200,15763,59221
48174,15732,59164
48139,15697,59106
48098,15661,59047
48059,15629,58991
48028,15606,58939
47994,15582,58882
47951,15547,58813
47904,15506,58740
47857,15465,58664
47807,15423,58590
47759,15383,58521
47716,15343,58461
47677,15306,58411
47639,15269,58359
47593,15227,58295
47544,15185,58228
47493,15148,58170
47446,15113,58112
47404,15082,58050
47361,15050,57983
47314,15012,57908
47269,14970,57830
47229,14932,57757
47200,14906,57695
47178,14889,57639
47149,14866,57575
47109,14832,57499
47065,14797,57430
47022,14762,57374
46985,14725,57321
46956,14690,57267
46927,14656,57211
46891,14619,57151
46847,14580,57086
46798,14544,57020
46754,14517,56959
46714,14492,56896
46671,14459,56826
46627,14425,56753
46587,14394,56686
46549,14359,56622
46511,14318,56556
46475,14278,56487
46437,14240,56417
46397,14201,56342
46349,14157,56262
46300,14113,56184
46261,14078,56116
46230,14047,56054
46198,14011,55988
46169,13972,55923
46142,13932,55860
46111,13897,55800
46079,13865,55744
46048,13833,55690
46016,13801,55633
45978,13763,55568
45929,13717,55500
45882,13671,55438
45843,13629,55380
45805,13589,55318
45766,13554,55249
45721,13520,55178
45671,13483,55105
45626,13448,55035
45585,13418,54969
45548,13393,54906
45517,13370,54847
45483,13342,54785
45441,13303,54717
45394,13261,54652
45347,13225,54595
45305,13192,54539
45275,13163,54486
45251,13137,54430
45225,13107,54367
45196,13071,54300
45165,13034,54234
45135,13004,54178
45106,12978,54129
45071,12945,54070
45032,12907,54005
44993,12868,53941
44952,12825,53880
44911,12779,53821
44880,12743,53766
44855,12717,53716
44825,12692,53661
44782,12661,53599
44739,12627,53535
44701,12597,53477
44663,12565,53418
44620,12529,53356
44575,12489,53291
44530,12446,53223
44484,12405,53154
44435,12369,53087
44387,12334,53021
44348,12299,52958
44311,12261,52891
44274,12220,52817
44237,12182,52743
44195,12145,52669
44148,12110,52598
44102,12081,52530
44062,12055,52468
44025,12030,52409
43981,11999,52345
43932,11962,52274
43889,11924,52207
43854,11888,52146
43825,11856,52091
43812,11835,52049
43813,11827,52028
43825,11828,52023
43840,11835,52031
43860,11852,52062
43892,11890,52129
43945,11951,52233
44024,12031,52370
44127,12128,52538
44250,12245,52734
44387,12376,52956
44530,12508,53197
44678,12641,53451
44838,12785,53722
45003,12933,54000
45169,13082,54274
45334,13231,54540
45488,13374,54796
45622,13499,55036
45738,13608,55255
45844,13703,55455
45947,13790,55644
46041,13864,55813
46124,13927,55955
46197,13985,56076
46259,14038,56186
46318,14086,56289
46376,14136,56390
46433,14188,56483
46488,14241,56567
46532,14284,56635
46564,14316,56686
46597,14346,56740
46635,14380,56807
46678,14418,56878
46725,14463,56950
46779,14512,57027
46833,14558,57111
46886,14601,57198
46941,14646,57291
47005,14699,57394
47076,14760,57503
47142,14818,57603
47200,14873,57693
47250,14928,57776
47289,14974,57851
47319,15012,57913
47344,15045,57965
47362,15072,58007
47369,15086,58034
47359,15078,58042
47337,15057,58032
47315,15036,58019
47297,15019,58005
47277,14999,57980
47257,14978,57946
47236,14956,57907
47209,14931,57862
47178,14903,57810
47147,14875,57756
47120,14850,57705
47092,14822,57651
47057,14791,57596
47027,14767,57551
47004,14756,57520
46988,14751,57494
46979,14750,57472
46971,14745,57451
46961,14732,57426
46947,14717,57401
46935,14705,57379
46932,14706,57367
46936,14717,57360
46938,14722,57347
46933,14714,57323
46918,14695,57291
46887,14668,57260
46852,14642,57235
46820,14623,57219
46798,14609,57204
46783,14597,57183
46761,14577,57148
46725,14544,57099
46685,14508,57044
46648,14474,56988
46613,14442,56929
46585,14412,56870
46558,14380,56812
46523,14343,56751
46480,14306,56691
46438,14272,56638
46404,14246,56589
46372,14225,56536
46334,14198,56471
46293,14167,56407
46252,14136,56353
46209,14104,56300
46172,14072,56245
46143,14041,56190
46116,14011,56131
46085,13982,56074
46044,13949,56016
45997,13915,55961
45957,13889,55918
45924,13867,55875
45898,13846,55822
45874,13828,55765
45847,13805,55708
45814,13776,55647
45784,13749,55589
45766,13728,55538
45755,13709,55492
45732,13681,55439
45688,13639,55377
45636,13597,55319
45586,13561,55270
45542,13529,55227
45507,13500,55188
45474,13472,55147
45435,13442,55096
45391,13407,55031
45346,13372,54962
45307,13341,54897
45275,13314,54836
45249,13289,54772
45227,13265,54706
45203,13238,54643
45172,13204,54583
45132,13166,54521
45089,13126,54457
45050,13088,54399
45011,13052,54342
44965,13012,54272
44916,12969,54191
44867,12924,54112
44816,12877,54037
44765,12833,53967
44719,12797,53904
44683,12769,53852
44651,12743,53801
44615,12711,53741
44577,12674,53676
44540,12638,53609
44504,12605,53542
44468,12576,53479
44431,12549,53421
44390,12519,53362
44345,12482,53302
44291,12438,53242
44242,12402,53191
44200,12378,53152
44160,12357,53113
44125,12334,53063
44095,12307,53009
44066,12276,52951
44038,12243,52889
44012,12216,52830
43986,12199,52779
43962,12186,52728
43933,12165,52664
43899,12132,52589
43862,12094,52517
43819,12051,52450
43774,12007,52383
43735,11966,52312
43703,11927,52238
43664,11884,52165
43609,11830,52090
43546,11773,52012
43494,11728,51944
43456,11697,51886
43423,11669,51829
43394,11640,51769
43366,11611,51707
43328,11577,51640
43275,11537,51569
43220,11493,51498
43175,11453,51432
43138,11414,51364
43104,11376,51290
43073,11344,51223
43040,11317,51167
43008,11296,51126
42983,11281,51099
42975,11279,51092
42994,11296,51114
43034,11326,51158
43089,11364,51222
43159,11419,51316
43242,11490,51444
43340,11579,51603
43459,11691,51794
43594,11822,52011
43737,11963,52238
43875,12096,52466
44004,12217,52694
44136,12338,52931
44271,12461,53174
44403,12582,53409
44536,12701,53627
44668,12813,53826
44784,12913,54006
44875,12996,54169
44947,13072,54312
45007,13146,54438
45059,13209,54545
45098,13250,54626
45128,13273,54688
45155,13292,54745
45184,13311,54801
45214,13333,54852
45244,13355,54894
45271,13372,54929
45295,13382,54957
45313,13384,54981
45325,13381,55004
45341,13385,55033
45363,13400,55070
45393,13429,55117
45431,13468,55170
45470,13502,55219
45502,13528,55263
45528,13549,55304
45557,13570,55347
45591,13597,55396
45624,13619,55437
45649,13630,55461
45662,13633,55475
45659,13628,55479
45648,13616,55473
45633,13603,55458
45625,13595,55440
45622,13588,55422
45611,13575,55400
45595,13558,55373
45577,13543,55342
45555,13527,55311
45531,13511,55279
45509,13500,55249
45500,13496,55229
45502,13493,55215
45506,13483,55197
45508,13473,55178
45506,13466,55164
45497,13458,55150
45485,13452,55138
45480,13451,55133
45483,13457,55134
45484,13462,55133
45475,13460,55121
45460,13451,55104
45451,13446,55097
45447,13450,55099
45444,13453,55098
45442,13453,55095
45442,13447,55090
45434,13427,55071
45414,13396,55033
45389,13366,54991
45365,13346,54956
45345,13331,54925
45326,13316,54891
45308,13301,54856
45289,13288,54821
45263,13268,54778
45224,13235,54720
45183,13202,54663
45147,13178,54615
45114,13154,54568
45087,13130,54522
45060,13108,54476
45034,13087,54427
45001,13054,54366
44959,13009,54292
44915,12964,54218
44871,12922,54152
44829,12882,54095
44795,12850,54045
44769,12823,54001
44749,12798,53958
44727,12774,53911
44700,12749,53859
44674,12727,53813
44652,12712,53777
44630,12699,53742
44611,12688,53707
44594,12676,53673
44578,12659,53636
44557,12631,53587
44534,12601,53529
44514,12575,53479
44491,12552,53435
44464,12529,53390
44438,12507,53345
44417,12490,53303
44396,12472,53265
44367,12446,53225
44333,12413,53176
44299,12377,53121
44257,12342,53063
44208,12309,53009
44165,12280,52959
44128,12257,52911
44093,12228,52855
44057,12189,52791
44021,12149,52729
43984,12111,52669
43947,12075,52611
43913,12045,52559
43884,12021,52513
43859,12001,52472
43827,11974,52421
43785,11935,52354
43738,11895,52285
43690,11860,52220
43648,11830,52162
43617,11806,52109
43597,11790,52058
43582,11774,52003
43553,11744,51938
43509,11698,51865
43463,11656,51800
43420,11622,51744
43378,11589,51689
43344,11557,51634
43317,11527,51582
43287,11494,51525
43249,11452,51458
43209,11409,51386
43178,11373,51325
43150,11348,51277
43117,11320,51230
43080,11290,51178
43041,11261,51123
43000,11229,51066
42960,11195,51005
42923,11163,50948
42893,11136,50897
42864,11108,50843
42832,11074,50781
42799,11039,50717
42763,11003,50655
42722,10968,50594
42675,10930,50528
42627,10891,50461
42584,10858,50402
42546,10829,50345
42510,10801,50282
42477,10771,50216
42443,10737,50149
42403,10695,50080
42357,10649,50013
42319,10614,49956
42294,10591,49914
42268,10563,49872
42237,10532,49821
42209,10507,49773
42186,10487,49733
42171,10474,49707
42174,10474,49704
42200,10496,49735
42250,10539,49802
42314,10597,49897
42390,10665,50016
42486,10747,50166
42602,10848,50347
42729,10965,50552
42864,11095,50779
43012,11241,51027
43166,11393,51282
43313,11535,51529
43459,11667,51768
43602,11796,52009
43736,11919,52244
43861,12035,52468
43979,12148,52680
44099,12259,52885
44216,12358,53074
44314,12433,53230
44393,12490,53357
44461,12536,53467
44518,12576,53563
44564,12612,53645
44603,12643,53716
44639,12671,53778
44666,12694,53826
44687,12710,53859
44709,12726,53889
44732,12743,53920
44756,12764,53953
44785,12791,53989
44821,12825,54033
44859,12861,54086
44890,12889,54139
44913,12908,54187
44933,12928,54239
44951,12953,54298
44970,12983,54362
44991,13017,54428
45022,13061,54498
45063,13109,54570
45105,13146,54631
45143,13171,54677
45173,13187,54709
45188,13191,54725
45189,13188,54726
45185,13186,54719
45183,13189,54714
45180,13190,54707
45168,13179,54685
45150,13157,54648
45133,13134,54611
45117,13113,54581
45104,13096,54557
45101,13085,54537
45106,13080,54523
45108,13078,54510
45097,13069,54495
45081,13060,54480
45069,13056,54474
45059,13053,54472
45055,13049,54473
45059,13050,54478
45067,13051,54485
45068,13046,54488
45056,13034,54485
45043,13026,54478
45038,13029,54473
45037,13033,54466
45036,13029,54450
45035,13020,54426
45026,13006,54397
45012,12992,54366
44997,12981,54342
44990,12975,54330
44987,12972,54324
44975,12963,54308
44952,12943,54271
44927,12925,54230
44902,12912,54189
44878,12898,54146
44855,12880,54101
44829,12856,54056
44795,12825,54004
44752,12785,53946
44709,12745,53893
44672,12709,53852
44641,12676,53811
44612,12641,53757
44584,12610,53698
44555,12586,53645
44527,12564,53598
44501,12547,53556
44481,12534,53514
44467,12523,53471
44451,12506,53426
44424,12479,53369
44386,12444,53305
44345,12410,53243
44303,12382,53189
44267,12360,53144
44239,12341,53107
44215,12321,53072
44189,12292,53032
44159,12254,52984
44132,12219,52942
44110,12190,52910
44088,12167,52878
44068,12150,52845
44041,12136,52807
44010,12120,52764
43978,12097,52720
43944,12071,52676
43918,12051,52638
43902,12038,52605
43887,12021,52563
43867,11998,52511
43841,11972,52454
43809,11944,52396
43774,11916,52340
43739,11891,52287
43712,11870,52238
43689,11848,52189
43658,11814,52130
43616,11770,52062
43575,11730,52002
43541,11697,51949
43508,11669,51894
43479,11644,51840
43449,11615,51782
43411,11575,51718
43364,11526,51650
43317,11483,51586
43278,11449,51531
43245,11418,51480
43214,11384,51425
43183,11351,51368
43151,11323,51313
43118,11295,51255
43086,11271,51194
43058,11249,51136
43032,11223,51081
43004,11194,51024
42968,11163,50960
42927,11133,50897
42887,11108,50844
42847,11081,50794
42808,11051,50737
42771,11024,50681
42731,10996,50627
42689,10966,50572
42650,10937,50518
42620,10910,50467
42600,10886,50422
42572,10854,50370
42527,10809,50304
42479,10759,50235
42438,10714,50174
42403,10676,50116
42371,10645,50060
42342,10619,50005
42313,10593,49947
42274,10564,49881
42227,10532,49809
42183,10503,49741
42147,10475,49677
42110,10440,49608
42070,10398,49535
42029,10354,49466
41994,10312,49403
41960,10271,49344
41922,10234,49286
41885,10202,49229
41852,10173,49171
41815,10139,49108
41778,10104,49045
41751,10082,48995
41732,10069,48951
41718,10060,48911
41713,10057,48880
41713,10059,48861
41716,10062,48855
41728,10075,48878
41762,10108,48939
41823,10163,49038
41903,10233,49165
41993,10309,49309
42095,10401,49479
42210,10513,49682
42339,10638,49910
42487,10771,50158
42644,10910,50420
42803,11046,50687
42958,11176,50958
43108,11303,51227
43258,11435,51491
43412,11573,51751
43558,11702,51996
43692,11820,52214
43816,11926,52411
43928,12021,52591
44026,12109,52753
44107,12187,52896
44176,12256,53022
44232,12316,53135
44274,12359,53229
44307,12390,53306
44339,12414,53371
44371,12436,53429
44405,12460,53484
44445,12486,53535
44489,12514,53585
44537,12542,53639
44578,12564,53692
44614,12582,53747
44656,12615,53815
44704,12662,53897
44758,12713,53987
44815,12766,54078
44867,12817,54166
44911,12863,54251
44950,12906,54334
44989,12950,54413
45035,12997,54488
45080,13038,54555
45117,13068,54611
45152,13096,54668
45184,13123,54726
45212,13148,54778
45237,13169,54819
45256,13182,54847
45267,13186,54859
45267,13183,54855
45259,13174,54838
45256,13169,54818
45256,13168,54800
45250,13163,54781
45242,13158,54755
45233,13152,54724
45215,13139,54692
45194,13120,54662
45178,13104,54638
45172,13096,54624
45173,13095,54616
45168,13089,54602
45158,13078,54585
45149,13070,54577
45144,13065,54581
45140,13059,54585
45139,13051,54589
45138,13044,54592
45136,13036,54589
45132,13027,54579
45127,13023,54571
45126,13025,54568
45126,13028,54564
45118,13022,54549
45104,13012,54525
45090,12998,54497
45073,12981,54471
45054,12960,54447
45036,12940,54424
45021,12927,54403
45004,12914,54380
44975,12890,54344
44943,12860,54300
44915,12832,54260
44890,12806,54219
44867,12782,54173
44844,12758,54128
44816,12732,54080
44787,12704,54028
44763,12679,53979
44744,12663,53938
44729,12654,53900
44710,12636,53855
44678,12604,53799
44642,12569,53744
44604,12536,53697
44568,12505,53652
44541,12482,53602
44521,12461,53550
44499,12437,53496
44473,12411,53443
44448,12392,53396
44434,12383,53358
44424,12376,53323
44403,12357,53280
44374,12331,53233
44346,12304,53193
44321,12273,53156
44298,12241,53112
44274,12213,53066
44245,12188,53019
44214,12164,52972
44182,12136,52924
44153,12107,52878
44132,12085,52841
44110,12065,52802
44083,12041,52750
44057,12017,52694
44030,11993,52640
43998,11966,52586
43963,11937,52532
43930,11908,52477
43898,11879,52424
43862,11847,52372
43819,11810,52318
43783,11780,52269
43759,11765,52231
43738,11751,52191
43710,11732,52141
43676,11706,52083
43634,11668,52022
43593,11625,51959
43556,11583,51900
43527,11548,51845
43504,11517,51790
43477,11478,51728
43440,11431,51661
43402,11390,51600
43369,11358,51545
43341,11333,51493
43318,11312,51442
43294,11293,51388
43267,11276,51333
43231,11254,51273
43188,11224,51208
43147,11190,51147
43108,11156,51092
43068,11118,51032
43029,11076,50964
42993,11033,50895
42956,10988,50826
42916,10943,50755
42874,10905,50689
42838,10877,50634
42805,10855,50582
42773,10829,50526
42741,10800,50467
42708,10769,50409
42674,10738,50354
42644,10710,50304
42621,10683,50260
42603,10658,50219
42579,10629,50174
42547,10596,50119
42516,10567,50067
42482,10542,50018
42445,10511,49966
42411,10476,49915
42380,10445,49860
42350,10419,49801
42314,10390,49734
42268,10353,49659
42220,10314,49585
42170,10276,49518
42123,10241,49456
42084,10214,49398
42049,10186,49339
42012,10149,49274
41969,10105,49204
41919,10059,49135
41869,10020,49072
41822,9988,49011
41773,9948,48942
41721,9897,48867
41677,9849,48800
41646,9813,48749
41629,9792,48714
41626,9785,48696
41638,9793,48697
41664,9814,48721
41699,9845,48771
41748,9893,48853
41822,9969,48972
41913,10066,49123
42021,10179,49303
42149,10306,49509
42291,10442,49734
42440,10578,49968
42591,10709,50202
42742,10838,50443
42898,10973,50697
43055,11109,50954
43210,11236,51202
43360,11356,51445
43500,11470,51679
43630,11580,51905
43752,11688,52124
43867,11790,52328
43973,11882,52511
44060,11955,52664
44123,12009,52784
44174,12056,52887
44218,12100,52986
44263,12144,53075
44314,12190,53154
44361,12231,53223
44393,12261,53282
44418,12286,53335
44443,12314,53390
44469,12346,53451
44501,12378,53511
44534,12405,53561
44567,12430,53602
44603,12457,53647
44641,12483,53698
44682,12515,53753
44726,12556,53817
44775,12602,53893
44825,12647,53972
44868,12686,54046
44907,12721,54122
44951,12760,54208
44994,12802,54291
45027,12842,54355
45053,12875,54400
45069,12894,54430
45072,12895,54445
45072,12887,54449
45073,12883,54449
45080,12883,54447
45083,12877,54439
45076,12856,54417
45065,12837,54391
45053,12826,54369
45041,12818,54344
45030,12812,54321
45021,12806,54300
45007,12797,54277
44991,12787,54250
44977,12779,54228
44969,12778,54218
44966,12780,54216
44960,12772,54209
44950,12758,54194
44943,12748,54184
44941,12739,54182
44940,12731,54187
44945,12729,54198
44955,12733,54211
44968,12739,54219
44976,12746,54221
44973,12750,54217
44970,12754,54214
44971,12759,54210
44965,12754,54193
44951,12738,54166
44935,12719,54141
44917,12701,54114
44899,12684,54082
44887,12668,54046
44873,12650,54008
44855,12627,53963
44831,12603,53916
44807,12580,53874
44787,12560,53839
44764,12541,53804
44733,12515,53761
44701,12488,53713
44678,12466,53668
44658,12449,53626
44641,12434,53588
44628,12420,53548
44618,12403,53506
44602,12379,53463
44577,12348,53416
44551,12319,53371
44528,12299,53336
44503,12278,53299
44476,12253,53250
44449,12225,53197
44421,12192,53147
44395,12160,53102
44376,12139,53069
44360,12125,53040
44337,12107,53007
44303,12082,52968
44265,12055,52924
44235,12037,52883
44215,12027,52845
44193,12012,52803
44164,11987,52757
44134,11962,52714
44104,11940,52675
44075,11916,52630
44047,11885,52579
44022,11853,52525
43993,11820,52474
43961,11790,52426
43933,11763,52384
43910,11740,52344
43888,11715,52300
43858,11680,52249
43827,11643,52197
43801,11615,52151
43777,11591,52104
43746,11563,52051
43715,11537,52001
43686,11511,51956
43659,11482,51909
43633,11455,51859
43610,11433,51807
43592,11415,51752
43573,11394,51697
43548,11361,51640
43521,11326,51584
43500,11298,51536
43477,11271,51487
43445,11237,51429
43410,11202,51372
43370,11170,51319
43334,11141,51273
43309,11119,51233
43286,11099,51188
43259,11074,51134
43226,11041,51076
43188,11003,51015
43153,10973,50960
43125,10952,50914
43096,10928,50862
43060,10895,50797
43021,10863,50732
42987,10837,50676
42960,10811,50623
42944,10787,50569
42934,10765,50517
42921,10740,50465
42901,10710,50411
42880,10678,50356
42859,10648,50309
42830,10618,50263
42789,10581,50206
42744,10542,50142
42702,10506,50084
42662,10469,50028
42625,10434,49973
42593,10402,49917
42562,10370,49859
42526,10338,49796
42483,10309,49731
42445,10288,49671
42426,10279,49629
42424,10275,49601
42431,10275,49585
42451,10286,49594
42486,10308,49632
42538,10345,49702
42608,10401,49806
42693,10473,49939
42793,10560,50095
42901,10659,50268
43014,10767,50456
43141,10890,50667
43279,11026,50902
43419,11165,51146
43562,11305,51391
43706,11443,51633
43842,11572,51867
43968,11687,52089
44088,11796,52308
44205,11902,52521
44320,11998,52719
44422,12074,52884
44504,12129,53016
44570,12173,53128
44621,12210,53221
44659,12241,53296
44694,12269,53357
44732,12295,53408
44766,12313,53446
44792,12324,53474
44810,12335,53501
44830,12350,53532
44856,12368,53563
44879,12377,53584
44898,12383,53600
44914,12393,53626
44929,12408,53659
44950,12426,53693
44977,12450,53725
45004,12478,53756
45026,12500,53784
45040,12512,53805
45047,12519,53826
45055,12527,53851
45068,12533,53874
45084,12540,53889
45097,12547,53893
45106,12548,53885
45110,12543,53872
45107,12535,53859
45109,12530,53852
45116,12529,53852
45115,12525,53850
45108,12520,53844
45096,12515,53834
45076,12505,53818
45056,12495,53801
45048,12488,53794
45056,12487,53796
45067,12495,53796
45073,12500,53791
45077,12499,53784
45084,12501,53784
45089,12508,53791
45093,12514,53799
45100,12522,53809
45110,12529,53817
45115,12530,53823
45110,12521,53826
45100,12507,53830
45094,12497,53838
45091,12485,53842
45087,12468,53832
45085,12452,53815
45078,12438,53794
45065,12425,53768
45046,12411,53740
45028,12399,53716
45018,12395,53701
45009,12391,53685
44993,12375,53656
44975,12353,53618
44958,12326,53578
44935,12295,53535
44908,12262,53489
44881,12233,53443
44858,12212,53399
44833,12186,53344
44801,12153,53274
44768,12124,53209
44733,12099,53156
44698,12075,53112
44669,12054,53073
44648,12041,53035
44632,12032,52999
44614,12016,52959
44593,11992,52909
44572,11968,52860
44551,11945,52821
44529,11925,52787
44506,11911,52757
44490,11907,52734
44480,11904,52708
44466,11891,52671
44448,11872,52630
44427,11851,52593
44399,11826,52559
44370,11802,52530
44346,11783,52505
44323,11766,52478
44295,11746,52444
44262,11722,52402
44232,11697,52358
44214,11679,52323
44204,11666,52293
44192,11649,52258
44179,11630,52219
44160,11610,52180
44136,11586,52134
44108,11559,52079
44078,11532,52022
44049,11507,51969
44021,11479,51917
43990,11445,51861
43958,11413,51808
43924,11383,51759
43890,11351,51710
43855,11319,51660
43820,11287,51604
43790,11257,51547
43758,11225,51487
43720,11188,51420
43684,11154,51357
43654,11125,51304
43629,11101,51257
43609,11085,51212
43590,11072,51166
43568,11055,51118
43535,11028,51064
43493,10989,51005
43455,10951,50952
43428,10920,50908
43407,10894,50866
43387,10870,50822
43363,10844,50775
43328,10814,50724
43287,10780,50668
43244,10750,50614
43211,10730,50566
43188,10713,50522
43163,10694,50472
43135,10674,50415
43112,10653,50358
43090,10629,50305
43065,10598,50255
43037,10564,50207
43011,10537,50167
42987,10513,50126
42961,10486,50072
42934,10456,50014
42902,10422,49958
42861,10379,49899
42815,10332,49839
42772,10288,49785
42736,10254,49744
42704,10223,49700
42674,10193,49644
42643,10165,49586
42607,10136,49529
42571,10109,49474
42536,10087,49421
42503,10069,49372
42479,10053,49328
42455,10031,49276
42429,10003,49216
42402,9975,49159
42376,9950,49115
42358,9932,49087
42357,9927,49085
42373,9940,49112
42408,9970,49164
42459,10011,49241
42523,10066,49345
42605,10139,49483
42709,10233,49653
42836,10345,49849
42981,10473,50069
43137,10615,50312
43297,10764,50572
43458,10915,50841
43623,11067,51118
43796,11225,51403
43972,11386,51688
44139,11536,51960
44292,11670,52214
44431,11789,52450
44555,11896,52670
44668,11994,52874
44772,12085,53062
44870,12169,53232
44957,12243,53382
45030,12307,53511
45094,12362,53624
45151,12406,53724
45199,12440,53813
45241,12470,53892
45282,12501,53965
45330,12538,54039
45377,12575,54102
45417,12602,54150
45455,12628,54196
45492,12655,54249
45531,12687,54309
45575,12729,54380
45623,12778,54460
45673,12828,54542
45719,12875,54623
45757,12916,54701
45802,12965,54793
45857,13023,54899
45914,13082,54999
45968,13135,55082
46014,13180,55153
46045,13215,55212
46065,13240,55258
46082,13260,55298
46104,13280,55336
46125,13293,55366
46138,13292,55378
46141,13277,55372
46137,13259,55359
46134,13243,55343
46132,13232,55326
46130,13229,55311
46129,13229,55299
46124,13226,55288
46109,13222,55275
46094,13221,55261
46089,13229,55256
46092,13240,55257
46095,13246,55252
46096,13246,55246
46095,13243,55242
46091,13237,55242
46088,13233,55249
46093,13234,55264
46107,13242,55286
46123,13250,55304
46129,13253,55310
46130,13257,55313
46130,13262,55321
46128,13262,55324
46123,13257,55314
46115,13246,55293
46099,13224,55261
46078,13194,55226
46058,13163,55197
46046,13136,55177
46042,13120,55161
46033,13105,55137
46014,13085,55099
45997,13071,55057
45983,13069,55019
45970,13066,54981
45957,13058,54939
45939,13044,54895
45910,13021,54849
45871,12991,54800
45830,12957,54751
45797,12932,54710
45770,12910,54671
45737,12880,54622
45704,12851,54567
45680,12832,54523
45663,12818,54487
45649,12806,54448
45636,12794,54410
45616,12776,54373
45588,12751,54333
45561,12726,54293
45536,12704,54257
45515,12686,54222
45495,12666,54184
45470,12642,54142
45440,12618,54103
45409,12598,54070
45380,12577,54032
45355,12556,53987
45333,12535,53943
45310,12512,53901
45290,12489,53862
45275,12468,53823
45263,12454,53786
45252,12444,53750
45236,12427,53704
45208,12397,53647
45178,12366,53595
45148,12341,53551
45118,12321,53509
45090,12304,53469
45063,12283,53431
45037,12256,53389
45006,12219,53339
44962,12176,53285
44919,12138,53238
44885,12107,53195
44855,12079,53148
44828,12053,53094
44801,12027,53038
44769,11997,52979
44736,11966,52923
44710,11941,52876
44690,11919,52832
44668,11891,52785
44635,11857,52730
44595,11824,52674
44561,11801,52626
44531,11782,52581
44504,11760,52532
44480,11735,52483
44456,11711,52433
44433,11689,52385
44414,11669,52340
44396,11650,52297
44377,11635,52257
44357,11616,52218
44331,11590,52171
44304,11564,52122
44276,11545,52077
44246,11525,52030
44217,11500,51981
44187,11474,51931
44149,11444,51878
44114,11411,51826
44084,11376,51775
44059,11345,51728
44042,11324,51686
44013,11299,51640
43966,11260,51583
43917,11223,51527
43872,11193,51473
43827,11166,51418
43785,11140,51358
43746,11110,51298
43710,11072,51236
43680,11033,51175
43655,11002,51118
43635,10976,51068
43615,10951,51020
43587,10921,50970
43556,10891,50915
43533,10867,50864
43511,10846,50817
43488,10826,50770
43466,10805,50728
43450,10791,50709
43444,10786,50713
43453,10793,50738
43483,10815,50789
43535,10854,50867
43607,10914,50975
43693,10996,51116
43799,11097,51292
43929,11220,51506
44084,11358,51746
44254,11507,52002
44431,11664,52275
44608,11826,52566
44776,11990,52860
44941,12154,53149
45104,12315,53435
45263,12466,53715
45415,12607,53987
45560,12741,54245
45702,12873,54492
45844,13003,54727
45972,13116,54936
46078,13207,55108
46174,13284,55260
46263,13357,55404
46340,13423,55535
46410,13485,55653
46472,13538,55756
46522,13580,55842
46561,13612,55912
46598,13642,55976
46644,13677,56047
46694,13716,56123
46742,13751,56195
46791,13789,56266
46845,13834,56344
46899,13880,56429
46954,13924,56518
47014,13972,56612
47076,14022,56711
47137,14073,56813
47201,14126,56916
47269,14183,57020
47344,14246,57130
47416,14308,57236
47473,14359,57322
47515,14401,57388
47544,14434,57442
47561,14455,57479
47572,14463,57499
47576,14462,57506
47576,14453,57503
47562,14434,57486
47531,14406,57453
47496,14380,57415
47467,14361,57382
47444,14343,57345
47427,14323,57300
47414,14302,57256
47400,14281,57215
47386,14264,57180
47379,14257,57155
47382,14264,57147
47393,14279,57150
47397,14291,57148
47388,14295,57137
47382,14302,57130
47382,14314,57131
47390,14330,57138
47402,14349,57150
47412,14365,57160
47413,14372,57160
47401,14366,57150
47383,14349,57135
47371,14336,57127
47369,14330,57124
47366,14321,57110
47359,14309,57086
47348,14292,57054
47325,14264,57012
47289,14230,56965
47248,14199,56918
47215,14172,56875
47189,14149,56832
47164,14126,56785
47140,14102,56733
47114,14078,56678
47082,14053,56621
47044,14026,56568
47006,14002,56521
46975,13977,56478
46949,13951,56433
46926,13926,56381
46904,13901,56324
46877,13873,56264
46845,13844,56203
46812,13815,56146
46780,13790,56097
46753,13772,56058
46734,13753,56022
46724,13732,55986
46712,13708,55944
46685,13673,55891
46650,13635,55836
46615,13602,55786
46587,13577,55744
46566,13560,55704
46542,13543,55658
46512,13524,55607
46476,13502,55557
46432,13472,55504
46380,13438,55445
46328,13407,55391
46291,13387,55348
46266,13372,55310
46245,13354,55265
46225,13331,55211
46200,13304,55154
46170,13277,55097
46136,13250,55041
46096,13220,54985
46058,13194,54933
46024,13170,54884
45992,13145,54833
45963,13118,54781
45933,13085,54726
45899,13047,54663
45860,13003,54592
45817,12961,54525
45777,12925,54472
45737,12891,54420
45698,12855,54359
45664,12820,54298
45630,12787,54236
45592,12755,54178
45552,12724,54120
45516,12697,54062
45488,12676,54009
45462,12652,53954
45436,12621,53891
45411,12589,53826
45383,12557,53767
45354,12526,53713
45324,12500,53665
45294,12482,53624
45263,12469,53585
45225,12447,53536
45182,12412,53477
45141,12370,53413
45096,12324,53348
45055,12283,53288
45023,12250,53237
44999,12223,53192
44974,12196,53145
44938,12162,53085
44894,12124,53016
44848,12091,52950
44801,12060,52888
44757,12028,52826
44718,11999,52761
44679,11972,52690
44635,11941,52609
44582,11902,52520
44528,11862,52436
44481,11832,52369
44441,11803,52310
44407,11769,52249
44374,11734,52183
44339,11699,52116
44301,11663,52053
44261,11628,51998
44235,11597,51955
44236,11580,51930
44253,11574,51924
44283,11581,51934
44329,11606,51972
44389,11643,52039
44458,11699,52138
44535,11785,52277
44626,11894,52447
44736,12015,52645
44855,12138,52861
44976,12261,53089
45110,12397,53336
45256,12548,53604
45410,12706,53882
45571,12869,54168
45737,13033,54457
45899,13190,54738
46044,13330,54993
46173,13449,55215
46302,13554,55417
46428,13648,55611
46543,13733,55791
46646,13812,55953
46736,13884,56096
46806,13944,56217
46852,13990,56317
46884,14026,56398
46919,14061,56467
46951,14091,56525
46979,14113,56570
47004,14130,56607
47029,14143,56642
47055,14156,56676
47081,14171,56715
47112,14193,56768
47155,14232,56844
47206,14284,56932
47258,14340,57016
47311,14394,57094
47353,14445,57164
47386,14488,57226
47417,14523,57280
47450,14560,57335
47486,14603,57394
47520,14640,57443
47549,14660,57472
47573,14669,57487
47592,14667,57491
47606,14660,57483
47615,14651,57470
47616,14644,57451
47610,14637,57428
47591,14623,57395
47559,14597,57350
47529,14574,57314
47506,14558,57293
47490,14546,57280
47481,14538,57269
47472,14528,57256
47455,14511,57236
47434,14492,57216
47420,14478,57203
47417,14473,57201
47422,14475,57200
47426,14475,57191
47426,14472,57177
47427,14471,57172
47433,14474,57176
47441,14479,57180
47447,14484,57181
47447,14486,57180
47441,14479,57173
47430,14470,57164
47423,14467,57153
47423,14472,57147
47425,14474,57139
47418,14463,57119
47408,14444,57093
47397,14424,57066
47381,14396,57036
47362,14363,56999
47344,14334,56960
47326,14309,56916
47303,14281,56867
47267,14246,56809
47225,14213,56753
47186,14187,56703
47149,14165,56652
47114,14141,56594
47084,14114,56536
47056,14083,56478
47028,14054,56426
47005,14031,56383
46991,14013,56347
46985,14001,56314
46974,13984,56274
46951,13957,56227
46923,13928,56185
46896,13904,56149
46869,13885,56116
46845,13869,56085
46820,13854,56052
46788,13835,56012
46755,13815,55967
46729,13796,55921
46713,13780,55881
46703,13766,55844
46691,13745,55800
46673,13719,55751
46651,13692,55705
46624,13661,55661
46597,13627,55619
46571,13596,55579
46545,13571,55540
46519,13548,55499
46482,13519,55451
46440,13487,55399
46402,13458,55350
46369,13430,55303
46343,13403,55258
46325,13379,55216
46306,13352,55169
46279,13317,55113
46241,13275,55048
46200,13229,54984
46160,13187,54928
46120,13142,54866
46076,13093,54792
46031,13055,54720
45988,13028,54658
45956,13008,54603
45934,12993,54554
45918,12980,54508
45902,12969,54460
45876,12952,54407
45839,12924,54351
45812,12899,54304
45795,12879,54266
45778,12856,54222
45755,12827,54165
45725,12795,54102
45686,12758,54039
45636,12717,53974
45581,12675,53909
45536,12642,53855
45503,12616,53812
45472,12587,53765
45439,12554,53711
45407,12521,53654
45376,12491,53599
45346,12464,53550
45324,12444,53507
45310,12426,53464
45296,12400,53410
45269,12358,53339
45232,12309,53260
45198,12269,53189
45169,12238,53127
45140,12210,53069
45112,12183,53015
45081,12154,52964
45044,12125,52914
45006,12095,52868
44977,12070,52830
44962,12053,52805
44952,12043,52786
44947,12038,52773
44958,12048,52782
44983,12073,52820
45024,12114,52888
45082,12173,52989
45164,12253,53124
45272,12354,53291
45396,12466,53487
45529,12586,53702
45679,12722,53948
45846,12876,54223
46021,13037,54511
46201,13204,54805
46380,13368,55101
46551,13522,55387
46709,13667,55658
46856,13806,55915
46999,13943,56166
47143,14077,56408
47279,14198,56628
47403,14301,56821
47509,14387,56993
47593,14457,57145
47662,14516,57274
47725,14570,57387
47784,14626,57492
47838,14681,57585
47881,14724,57657
47920,14758,57716
47966,14794,57778
48014,14830,57842
48063,14867,57905
48113,14907,57969
48162,14947,58036
48208,14982,58102
48243,15008,58165
48270,15034,58233
48305,15070,58312
48350,15113,58396
48399,15158,58475
48447,15202,58550
48488,15237,58618
48520,15263,58676
48544,15282,58721
48564,15297,58754
48584,15309,58780
48592,15310,58786
48587,15299,58768
48573,15282,58738
48552,15259,58700
48526,15234,58654
48501,15216,58607
48481,15208,58567
48461,15202,58530
48429,15188,58489
48390,15166,58445
48355,15146,58406
48323,15131,58376
48296,15123,58356
48281,15122,58343
48278,15127,58336
48279,15133,58333
48273,15135,58330
48263,15133,58325
48257,15135,58327
48259,15139,58331
48268,15138,58329
48278,15131,58321
48278,15118,58307
48265,15096,58281
48239,15067,58248
48211,15043,58218
48189,15026,58193
48170,15010,58167
48152,14994,58133
48133,14976,58093
48106,14954,58049
48075,14930,58001
48045,14905,57951
48017,14882,57900
47991,14860,57851
47961,14827,57796
47921,14780,57730
47879,14734,57664
47833,14690,57604
47790,14651,57550
47751,14621,57500
47716,14592,57448
47687,14563,57394
47652,14528,57329
47606,14486,57250
47559,14448,57172
47517,14416,57103
47481,14391,57043
47458,14376,56993
47442,14364,56946
47424,14353,56896
47397,14336,56840
47360,14307,56778
47322,14275,56720
47287,14243,56672
47256,14211,56627
47232,14180,56582
47214,14150,56533
47195,14116,56481
47167,14074,56422
47133,14030,56360
47098,13995,56305
47065,13968,56256
47037,13943,56206
47011,13921,56156
46983,13899,56107
46953,13875,56058
46919,13848,56007
46886,13821,55960
46861,13799,55923
46839,13777,55884
46811,13748,55836
46778,13717,55783
46744,13686,55726
46707,13655,55663
46670,13626,55599
46637,13599,55540
46611,13576,55488
46582,13546,55431
46543,13505,55359
46499,13461,55285
46455,13422,55218
46411,13384,55155
46366,13352,55097
46323,13326,55039
46283,13298,54976
46238,13259,54909
46188,13211,54842
46145,13167,54787
46111,13133,54743
46083,13101,54698
46059,13072,54644
46036,13049,54584
46007,13024,54518
45964,12993,54450
45914,12960,54387
45873,12933,54338
45841,12912,54293
45807,12885,54235
45770,12852,54169
45734,12822,54107
45699,12793,54052
45664,12762,54001
45636,12734,53953
45609,12705,53900
45575,12671,53840
45536,12631,53779
45496,12590,53723
45465,12554,53676
45437,12519,53631
45403,12478,53576
45366,12442,53517
45330,12417,53460
45293,12395,53400
45257,12373,53336
45223,12349,53273
45187,12324,53210
45148,12295,53145
45103,12259,53076
45061,12226,53011
45031,12201,52958
45003,12173,52906
44971,12138,52843
44935,12101,52776
44894,12059,52706
44850,12013,52632
44809,11970,52563
44777,11937,52504
44752,11910,52452
44721,11881,52400
44681,11845,52344
44647,11817,52298
44625,11801,52269
44616,11799,52257
44630,11814,52269
44665,11846,52311
44716,11889,52380
44777,11942,52478
44854,12014,52614
44959,12113,52796
45089,12235,53015
45234,12364,53256
45390,12500,53515
45557,12650,53799
45732,12809,54104
45916,12977,54420
46108,13154,54745
46306,13339,55071
46503,13522,55391
46685,13694,55696
46850,13857,55991
47002,14013,56279
47149,14158,56553
47295,14292,56805
47434,14416,57035
47560,14525,57240
47672,14619,57416
47764,14694,57559
47841,14757,57684
47912,14817,57807
47979,14871,57918
48042,14922,58015
48098,14975,58108
48145,15026,58197
48193,15076,58288
48250,15131,58386
48317,15196,58492
48391,15267,58604
48459,15330,58715
48517,15384,58819
48577,15442,58932
48645,15507,59062
48723,15579,59196
48812,15658,59324
48904,15738,59446
48990,15808,59559
49062,15870,59664
49119,15929,59769
49175,15987,59871
49226,16037,59961
49263,16071,60029
49289,16091,60077
49302,16102,60110
49298,16098,60121
49286,16083,60108
49271,16062,60080
49254,16038,60042
49229,16012,59996
49188,15976,59938
49140,15934,59872
49100,15904,59813
49071,15884,59760
49044,15867,59707
49021,15852,59659
49002,15838,59622
48981,15822,59592
48959,15805,59566
48945,15794,59545
48941,15789,59534
48936,15781,59525
48925,15765,59515
48918,15754,59510
48914,15752,59511
48912,15748,59508
48911,15742,59498
48906,15733,59482
48897,15719,59460
48882,15699,59434
48859,15678,59406
48841,15663,59382
48831,15657,59365
48822,15654,59345
48809,15646,59312
48789,15630,59270
48763,15606,59225
48737,15581,59182
48710,15557,59142
48685,15538,59108
48661,15523,59073
48631,15497,59026
48593,15462,58968
48554,15428,58912
48516,15396,58860
48480,15363,58807
48446,15333,58753
48414,15304,58699
48381,15270,58639
48344,15235,58576
48306,15205,58517
48275,15182,58461
48245,15155,58400
48210,15118,58328
48173,15080,58260
48137,15049,58203
48101,15020,58152
48068,14993,58102
48042,14970,58052
48021,14949,58004
47996,14926,57957
47962,14892,57905
47926,14857,57851
47894,14824,57801
47856,14790,57748
47814,14759,57693
47771,14732,57641
47726,14700,57590
47681,14665,57538
47636,14630,57485
47601,14603,57437
47578,14584,57395
47555,14559,57344
47526,14525,57281
47493,14489,57216
47452,14451,57151
47410,14413,57083
47376,14382,57017
47346,14352,56956
47317,14317,56892
47281,14277,56823
47239,14236,56753
47199,14202,56688
47158,14173,56626
47116,14142,56559
47072,14107,56489
47026,14065,56421
46981,14016,56355
46934,13967,56287
46886,13924,56222
46843,13895,56167
46804,13871,56115
46765,13842,56059
46728,13811,56003
46690,13780,55947
46646,13747,55886
46602,13715,55823
46567,13691,55764
46541,13670,55709
46517,13639,55647
46485,13595,55573
46450,13547,55498
46413,13499,55430
46375,13451,55368
46343,13412,55313
46316,13383,55258
46290,13357,55201
46259,13330,55138
46218,13301,55074
46179,13276,55016
46146,13257,54968
46114,13239,54921
46084,13223,54869
46056,13205,54816
46023,13179,54759
45985,13140,54697
45941,13094,54633
45898,13055,54579
45861,13026,54534
45827,12999,54484
45793,12972,54428
45756,12942,54369
45714,12904,54307
45669,12864,54242
45630,12828,54179
45600,12801,54125
45574,12774,54072
45547,12742,54008
45515,12704,53936
45478,12659,53866
45435,12610,53794
45387,12562,53722
45340,12522,53651
45300,12491,53587
45266,12461,53526
45226,12426,53462
45185,12393,53398
45146,12365,53336
45109,12339,53278
45079,12318,53230
45059,12303,53195
45047,12296,53172
45040,12293,53157
45038,12293,53154
45056,12310,53180
45096,12348,53244
45155,12403,53341
45239,12479,53472
45344,12578,53637
45465,12693,53833
45599,12816,54055
45739,12941,54297
45892,13079,54567
46066,13233,54867
46254,13401,55188
46450,13579,55520
46645,13765,55853
46837,13949,56176
47023,14124,56479
47199,14285,56762
47366,14438,57034
47526,14586,57292
47670,14718,57527
47795,14833,57738
47904,14930,57930
48001,15014,58102
48085,15087,58257
48162,15153,58401
48241,15220,58540
48312,15286,58668
48363,15340,58776
48408,15386,58871
48453,15431,58965
48499,15476,59058
48551,15531,59153
48617,15598,59258
48694,15672,59369
48773,15743,59481
48846,15805,59589
48915,15863,59697
48992,15927,59809
49071,15994,59929
49148,16061,60052
49216,16125,60174
49274,16183,60290
49326,16236,60399
49371,16286,60500
49412,16336,60591
49447,16383,60668
49469,16414,60722
49475,16429,60751
49473,16435,60759
49464,16434,60748
49450,16425,60722
49432,16412,60688
49413,16397,60649
49392,16373,60599
49358,16335,60533
49309,16289,60457
49258,16246,60387
49214,16208,60328
49175,16178,60276
49146,16158,60233
49123,16141,60192
49100,16122,60153
49075,16100,60120
49053,16081,60097
49043,16071,60088
49041,16069,60084
49035,16065,60070
49024,16056,60047
49007,16049,60023
48982,16041,59999
48955,16028,59975
48934,16013,59956
48923,16002,59946
48915,15992,59933
48904,15976,59905
48888,15960,59872
48865,15944,59840
48834,15925,59806
48800,15902,59766
48768,15879,59723
48741,15857,59679
48711,15829,59627
48672,15794,59562
48631,15763,59498
48587,15732,59436
48540,15697,59374
48497,15660,59313
48459,15627,59255
48429,15601,59205
48397,15572,59150
48352,15532,59083
48300,15485,59014
48246,15432,58946
48195,15381,58879
48152,15338,58815
48121,15305,58759
48098,15282,58713
48073,15261,58666
48044,15238,58609
48016,15209,58547
47986,15175,58486
47955,15138,58427
47927,15104,58373
47906,15077,58328
47888,15052,58283
47868,15023,58234
47849,14995,58184
47826,14964,58133
47797,14932,58076
47767,14898,58017
47740,14864,57961
47721,14836,57914
47702,14812,57870
47679,14790,57824
47658,14773,57774
47638,14759,57720
47613,14739,57657
47576,14708,57587
47534,14674,57519
47492,14646,57459
47449,14618,57400
47407,14589,57339
47367,14559,57278
47328,14527,57215
47285,14492,57149
47240,14454,57082
47201,14419,57020
47170,14392,56965
47140,14366,56905
47110,14342,56841
47082,14317,56781
47053,14286,56724
47020,14250,56668
46983,14215,56612
46951,14188,56559
46929,14168,56512
46906,14144,56459
46878,14111,56393
46842,14071,56321
46797,14028,56247
46747,13982,56172
46698,13939,56102
46653,13904,56042
46612,13874,55984
46569,13841,55918
46520,13800,55848
46471,13758,55779
46428,13720,55714
46392,13685,55650
46359,13653,55591
46332,13623,55535
46304,13593,55480
46266,13556,55416
46220,13514,55347
46170,13475,55283
46118,13440,55219
46068,13408,55155
46026,13382,55091
45991,13357,55028
45956,13328,54966
45910,13290,54895
45856,13245,54817
45800,13199,54741
45742,13153,54660
45690,13110,54578
45648,13073,54502
45608,13033,54427
45567,12989,54354
45527,12945,54288
45495,12910,54232
45474,12889,54187
45456,12872,54144
45437,12854,54101
45419,12843,54074
45410,12844,54073
45421,12859,54099
45459,12895,54154
45520,12953,54245
45602,13031,54371
45697,13121,54523
45801,13221,54702
45921,13336,54918
46060,13468,55167
46215,13614,55440
46387,13774,55733
46578,13949,56041
46777,14131,56358
46974,14307,56675
47167,14468,56987
47350,14621,57296
47517,14768,57586
47671,14906,57843
47822,15035,58073
47966,15150,58283
48091,15245,58468
48194,15325,58629
48282,15399,58772
48359,15466,58899
48421,15523,59005
48468,15568,59086
48507,15607,59153
48540,15639,59216
48573,15672,59277
48611,15709,59340
48647,15747,59403
48682,15785,59469
48715,15818,59529
48746,15840,59582
48784,15865,59645
48828,15901,59725
48874,15940,59808
48920,15979,59889
48960,16021,59962
48992,16061,60025
49012,16088,60076
49021,16102,60115
49030,16113,60154
49041,16126,60194
49052,16137,60222
49064,16147,60233
49073,16153,60227
49071,16148,60201
49054,16133,60157
49032,16113,60107
49012,16096,60060
48994,16077,60016
48967,16049,59965
48932,16013,59906
48900,15978,59852
48870,15950,59810
48845,15931,59781
48830,15925,59767
48825,15928,59762
48823,15930,59759
48813,15921,59749
48800,15906,59735
48790,15892,59726
48783,15881,59719
48779,15873,59710
48775,15872,59701
48768,15873,59693
48760,15870,59683
48747,15861,59664
48731,15851,59642
48720,15848,59629
48709,15842,59614
48693,15826,59587
48672,15807,59554
48647,15786,59519
48621,15765,59480
48601,15747,59443
48582,15729,59405
48561,15705,59361
48528,15670,59302
48486,15625,59231
48448,15584,59162
48414,15550,59101
48377,15520,59042
48340,15495,58982
48304,15473,58918
48261,15446,58849
48209,15408,58775
48159,15363,58702
48119,15322,58635
48088,15289,58570
48053,15255,58502
48017,15219,58434
47979,15185,58372
47940,15151,58314
47904,15118,58258
47873,15089,58204
47850,15066,58153
47829,15046,58104
47804,15018,58051
47774,14987,57998
47749,14962,57956
47728,14944,57921
47710,14927,57887
47695,14908,57851
47673,14881,57809
47641,14847,57759
47603,14809,57704
47566,14772,57648
47535,14738,57601
47506,14706,57553
47477,14671,57494
47444,14635,57429
47405,14596,57361
47362,14555,57297
47320,14514,57241
47283,14480,57195
47249,14453,57159
47211,14422,57113
47170,14387,57052
47128,14353,56989
47080,14321,56925
47031,14290,56860
46986,14260,56794
46951,14238,56732
46926,14224,56675
46902,14207,56614
46875,14184,56550
46846,14154,56488
46813,14117,56424
46776,14076,56362
46740,14038,56304
46706,14008,56254
46674,13980,56208
46639,13947,56157
46600,13904,56095
46554,13858,56030
46501,13811,55967
46448,13765,55906
46402,13725,55847
46364,13692,55791
46330,13662,55735
46291,13628,55673
46248,13593,55608
46207,13561,55548
46171,13531,55492
46144,13502,55437
46127,13474,55384
46111,13447,55327
46085,13414,55262
46042,13370,55188
45993,13328,55112
45950,13295,55047
45909,13262,54982
45863,13221,54911
45815,13179,54842
45762,13137,54776
45711,13097,54711
45664,13066,54649
45629,13043,54588
45606,13019,54528
45576,12982,54461
45530,12931,54385
45485,12883,54315
45447,12844,54257
45413,12813,54209
45387,12794,54177
45374,12792,54162
45375,12804,54164
45393,12830,54187
45432,12873,54243
45497,12941,54343
45587,13029,54485
45695,13132,54656
45821,13248,54851
45960,13373,55077
46110,13510,55330
46270,13659,55606
46440,13817,55904
46622,13985,56219
46813,14159,56544
46999,14328,56863
47174,14491,57174
47339,14647,57479
47495,14795,57771
47645,14937,58049
47794,15077,58313
47938,15212,58558
48069,15334,58778
48181,15436,58961
48277,15522,59113
48363,15597,59245
48440,15662,59364
48510,15718,59473
48570,15768,59569
48619,15812,59651
48660,15847,59722
48692,15874,59785
48726,15907,59852
48767,15949,59927
48808,15989,60001
48846,16026,60071
48882,16068,60148
48913,16111,60232
48947,16157,60318
48992,16211,60407
49048,16273,60500
49110,16334,60590
49162,16380,60668
49196,16413,60734
49216,16442,60800
49226,16465,60864
49231,16478,60918
49234,16489,60959
49237,16500,60985
49232,16504,60990
49214,16497,60968
49187,16477,60927
49163,16456,60882
49144,16434,60838
49120,16408,60786
49087,16377,60728
49047,16343,60668
49005,16305,60608
48961,16268,60551
48919,16234,60500
48888,16209,60461
48865,16193,60427
48842,16181,60391
48822,16169,60357
48803,16155,60331
48780,16142,60317
48750,16128,60307
48721,16118,60299
48703,16110,60296
48689,16096,60292
48673,16076,60279
48656,16057,60261
48638,16042,60239
48619,16030,60212
48601,16021,60189
48588,16015,60172
48579,16010,60153
48559,15996,60117
48524,15968,60067
48486,15934,60016
48447,15896,59964
48408,15857,59912
48372,15820,59860
48335,15787,59809
48296,15753,59754
48251,15714,59692
48202,15673,59627
48157,15636,59566
48117,15601,59508
48076,15564,59449
48036,15526,59390
48002,15489,59332
47966,15455,59272
47921,15417,59204
47869,15376,59130
47817,15339,59060
47767,15305,58993
47720,15270,58923
47677,15239,58854
47636,15204,58786
47589,15162,58715
47543,15121,58651
47506,15086,58597
47477,15058,58547
47444,15027,58495
47402,14988,58438
47357,14952,58384
47316,14922,58339
47278,14897,58295
47243,14871,58244
47208,14839,58189
47170,14803,58131
47132,14767,58073
47097,14734,58019
47067,14705,57972
47043,14684,57932
47010,14656,57882
46965,14619,57816
46919,14584,57751
46878,14552,57690
46841,14518,57625
46807,14485,57558
46774,14457,57495
46741,14428,57434
46700,14389,57365
46647,14338,57289
46595,14292,57220
46548,14252,57157
46504,14211,57093
46461,14168,57029
46416,14124,56968
46372,14079,56904
46332,14038,56836
46300,14006,56770
46275,13981,56709
46251,13959,56645
46214,13930,56571
46166,13893,56492
46118,13859,56418
46072,13827,56354
46030,13796,56294
45990,13763,56233
45949,13729,56172
45907,13691,56111
45860,13647,56047
45814,13603,55984
45776,13564,55926
45742,13528,55867
45710,13494,55803
45680,13461,55742
45653,13430,55684
45626,13402,55631
45595,13375,55580
45562,13347,55530
45530,13319,55477
45491,13284,55415
45446,13240,55343
45406,13202,55280
45374,13175,55228
45348,13152,55178
45330,13131,55129
45308,13109,55080
45276,13079,55024
45238,13043,54966
45201,13009,54910
45167,12981,54854
45134,12955,54793
45090,12921,54722
45035,12877,54643
44983,12834,54573
44939,12799,54513
44901,12764,54453
44867,12730,54395
44832,12696,54343
44793,12661,54289
44750,12623,54230
44705,12583,54166
44665,12546,54099
44625,12512,54029
44579,12476,53952
44532,12439,53876
44497,12405,53819
44472,12373,53774
44461,12349,53741
44464,12341,53723
44476,12347,53725
44496,12367,53752
44533,12408,53816
44594,12472,53919
44681,12559,54062
44786,12663,54241
44906,12781,54456
45051,12920,54714
45225,13079,55011
45416,13251,55330
45612,13433,55662
45812,13620,56006
46012,13807,56356
46211,13990,56706
46412,14174,57055
46616,14360,57403
46817,14548,57745
47001,14723,58062
47162,14875,58349
47312,15015,58615
47456,15147,58864
47591,15268,59088
47715,15379,59287
47823,15477,59465
47913,15561,59617
47992,15632,59749
48062,15696,59871
48132,15761,59993
48202,15826,60115
48260,15880,60228
48308,15930,60334
48358,15988,60449
48412,16052,60566
48471,16120,60681
48539,16193,60800
48609,16267,60923
48676,16335,61046
48744,16403,61174
48819,16474,61309
48903,16545,61448
48984,16614,61583
49052,16676,61705
49115,16734,61817
49176,16789,61926
49227,16840,62026
49269,16887,62112
49300,16926,62178
49319,16949,62219
49324,16957,62238
49318,16953,62239
49305,16941,62227
49289,16927,62207
49261,16900,62170
49224,16864,62111
49185,16827,62046
49141,16791,61984
49094,16757,61923
49048,16731,61864
49009,16716,61808
48980,16708,61751
48952,16691,61688
48922,16660,61625
48892,16627,61578
48868,16593,61542
48848,16562,61508
48833,16541,61478
48822,16529,61456
48808,16522,61442
48789,16517,61433
48770,16511,61426
48757,16510,61424
48752,16511,61424
48744,16508,61414
48730,16498,61395
48714,16482,61370
48696,16463,61341
48678,16449,61313
48668,16442,61287
48664,16437,61260
48656,16423,61227
48636,16393,61183
48609,16358,61136
48575,16324,61091
48533,16288,61042
48486,16252,60985
48440,16217,60923
48396,16181,60860
48353,16146,60797
48306,16106,60728
48257,16068,60654
48212,16035,60587
48167,16000,60517
48121,15963,60436
48067,15919,60349
48003,15868,60261
47939,15817,60177
47887,15774,60105
47853,15743,60050
47828,15721,60003
47799,15695,59949
47761,15660,59886
47720,15625,59824
47680,15593,59767
47643,15560,59707
47609,15526,59645
47577,15494,59583
47543,15459,59518
47501,15418,59447
47455,15376,59372
47415,15341,59306
47380,15307,59246
47347,15268,59185
47315,15229,59125
47282,15190,59066
47242,15150,59009
47200,15112,58954
47162,15081,58901
47135,15063,58852
47110,15049,58800
47076,15028,58735
47036,15001,58662
46990,14970,58590
46940,14933,58521
46894,14891,58454
46855,14850,58389
46824,14815,58328
46790,14776,58260
46745,14729,58181
46699,14680,58108
46656,14631,58045
46614,14585,57986
46569,14546,57926
46527,14510,57864
46490,14476,57796
46445,14437,57717
46390,14389,57628
46341,14346,57545
46304,14312,57472
46269,14280,57400
46233,14249,57327
46193,14222,57256
46144,14194,57182
46090,14162,57108
46036,14126,57038
45994,14096,56980
45959,14072,56928
45918,14040,56866
45868,13999,56794
45820,13956,56724
45779,13916,56662
45740,13877,56599
45703,13840,56536
45666,13800,56471
45624,13754,56402
45578,13704,56333
45533,13662,56267
45495,13632,56207
45463,13606,56146
45428,13573,56078
45391,13534,56010
45352,13493,55947
45313,13452,55891
45274,13411,55835
45236,13370,55778
45198,13333,55717
45162,13300,55653
45125,13267,55588
45089,13233,55522
45059,13205,55460
45024,13174,55395
44982,13136,55325
44932,13099,55260
44877,13066,55200
44825,13033,55138
44781,13001,55074
44745,12973,55011
44713,12948,54948
44674,12910,54871
44621,12855,54780
44561,12801,54690
44500,12752,54607
44443,12705,54528
44399,12666,54458
44360,12633,54393
44319,12599,54327
44275,12560,54252
44224,12514,54175
44174,12476,54110
44136,12451,54060
44107,12432,54018
44091,12415,53983
44086,12405,53964
44091,12403,53961
44109,12414,53983
44154,12448,54047
44234,12516,54164
44342,12612,54325
44464,12725,54521
44602,12854,54749
44759,13002,55010
44934,13165,55302
45128,13341,55620
45332,13530,55960
45545,13728,56313
45759,13925,56668
45966,14116,57016
46164,14303,57355
46358,14486,57689
46545,14654,58008
46718,14806,58302
46877,14949,58574
47019,15082,58825
47146,15207,59054
47262,15325,59265
47366,15433,59457
47460,15525,59625
47538,15599,59768
47600,15660,59891
47660,15719,60008
47724,15778,60124
47786,15830,60227
47844,15875,60316
47896,15925,60403
47940,15978,60493
47984,16034,60582
48037,16093,60675
48101,16157,60778
48169,16223,60889
48232,16284,60993
48289,16340,61095
48347,16401,61205
48409,16464,61320
48472,16523,61426
48533,16575,61519
48588,16620,61602
48630,16657,61679
48663,16689,61752
48691,16720,61812
48714,16751,61853
48729,16775,61870
48726,16786,61857
48703,16778,61820
48667,16754,61776
48626,16719,61731
48582,16682,61683
48539,16646,61633
48493,16608,61581
48450,16572,61528
48411,16536,61475
48379,16503,61420
48356,16477,61368
48330,16453,61314
48293,16423,61257
48259,16395,61214
48239,16371,61189
48224,16350,61170
48209,16336,61150
48192,16324,61128
48173,16306,61100
48151,16284,61067
48127,16265,61036
48110,16258,61019
48105,16262,61013
48100,16262,61003
48092,16254,60984
48077,16241,60959
48053,16224,60932
48034,16207,60905
48024,16194,60883
48020,16180,60863
48014,16160,60839
47999,16131,60806
47974,16102,60766
47945,16080,60727
47919,16065,60687
47890,16045,60636
47859,16019,60572
47825,15987,60501
47787,15949,60425
47746,15907,60346
47705,15869,60269
47664,15839,60199
47621,15809,60130
47569,15773,60055
47515,15732,59982
47469,15693,59920
47431,15655,59859
47397,15621,59794
47367,15588,59729
47338,15554,59663
47310,15520,59603
47279,15490,59552
47249,15465,59506
47225,15445,59460
47197,15420,59409
47160,15388,59346
47121,15353,59283
47081,15316,59227
47041,15281,59172
47006,15249,59120
46973,15216,59069
46939,15178,59014
46903,15134,58953
46863,15089,58892
46826,15050,58834
46795,15022,58783
46764,14996,58728
46729,14970,58666
46691,14941,58601
46651,14907,58536
46611,14874,58472
46580,14848,58414
46558,14828,58361
46539,14809,58309
46508,14782,58252
46467,14753,58193
46424,14729,58138
46381,14702,58080
46334,14665,58011
46284,14623,57936
46234,14577,57860
46183,14528,57788
46136,14480,57722
46096,14438,57663
46065,14404,57608
46038,14373,57552
46002,14335,57488
45960,14294,57423
45921,14259,57366
45879,14223,57303
45833,14182,57231
45788,14142,57159
45745,14105,57090
45710,14075,57026
45686,14052,56969
45671,14032,56916
45658,14009,56863
45638,13977,56803
45607,13937,56735
45576,13900,56673
45545,13868,56620
45508,13834,56561
45466,13798,56492
45422,13759,56421
45374,13713,56349
45325,13666,56280
45279,13628,56217
45239,13601,56158
45203,13577,56099
45164,13546,56034
45122,13509,55966
45084,13473,55902
45048,13436,55837
45013,13397,55766
44981,13358,55692
44950,13315,55620
44914,13266,55550
44870,13217,55480
44824,13173,55417
44788,13138,55365
44761,13109,55314
44734,13077,55251
44704,13043,55181
44676,13011,55117
44649,12984,55061
44628,12965,55018
44621,12957,55000
44628,12961,55012
44654,12984,55059
44704,13027,55143
44779,13090,55263
44881,13178,55420
45001,13283,55610
45131,13404,55827
45279,13548,56078
45444,13711,56364
45615,13880,56669
45791,14047,56981
45975,14213,57301
46160,14378,57627
46342,14544,57952
46522,14715,58273
46698,14884,58583
46869,15045,58875
47021,15188,59140
47151,15308,59372
47270,15417,59585
47382,15522,59785
47479,15618,59964
47562,15700,60116
47630,15767,60245
47688,15818,60354
47740,15861,60443
47787,15900,60524
47832,15939,60601
47872,15974,60673
47899,15998,60732
47919,16013,60787
47940,16029,60847
47968,16048,60915
48001,16071,60981
48033,16100,61047
48061,16131,61112
48089,16163,61175
48122,16197,61236
48155,16231,61295
48190,16271,61355
48224,16307,61408
48251,16333,61446
48271,16355,61477
48281,16372,61502
48279,16381,61515
48279,16388,61518
48284,16394,61509
48283,16392,61484
48275,16379,61449
48261,16362,61415
48243,16346,61382
48225,16333,61349
48199,16311,61305
48162,16277,61252
48125,16244,61203
48095,16219,61166
48068,16198,61132
48044,16180,61099
48019,16163,61068
47993,16144,61040
47964,16124,61015
47936,16109,60997
47918,16101,60990
47911,16098,60989
47902,16091,60978
47888,16078,60960
47878,16063,60944
47871,16048,60930
47866,16037,60911
47864,16029,60887
47857,16015,60859
47844,15993,60825
47825,15968,60787
47802,15945,60749
47781,15925,60715
47757,15905,60681
47723,15881,60641
47685,15857,60598
47649,15837,60559
47609,15812,60512
47562,15776,60447
47514,15729,60368
47460,15673,60283
47403,15615,60199
47350,15567,60119
47300,15523,60041
47255,15479,59961
47214,15434,59882
47174,15392,59808
47142,15362,59745
47119,15343,59695
47092,15320,59642
47053,15288,59580
47013,15255,59520
46977,15224,59464
46944,15193,59405
46916,15164,59349
46891,15130,59294
46858,15086,59227
46811,15036,59152
46755,14986,59082
46699,14946,59026
46650,14917,58978
46607,14888,58924
46565,14855,58861
46520,14819,58795
46475,14785,58733
46433,14759,58674
46395,14741,58615
46363,14726,58559
46332,14710,58503
46291,14683,58438
46242,14645,58366
46195,14607,58299
46153,14575,58240
46116,14545,58180
46084,14514,58117
46049,14480,58051
46009,14441,57978
45968,14399,57900
45930,14358,57828
45895,14321,57764
45856,14280,57696
45809,14232,57615
45763,14187,57535
45723,14152,57463
45684,14118,57392
45644,14083,57317
45605,14043,57237
45566,13996,57155
45523,13949,57074
45472,13905,56997
45422,13871,56931
45376,13844,56873
45326,13814,56808
45272,13781,56729
45219,13746,56643
45164,13704,56557
45105,13658,56473
45051,13612,56395
45012,13572,56327
44985,13539,56265
44957,13504,56198
44918,13464,56122
44872,13423,56045
44825,13383,55969
44781,13348,55895
44741,13318,55824
44705,13291,55755
44670,13262,55683
44629,13226,55608
44584,13185,55535
44545,13143,55476
44508,13102,55421
44469,13059,55359
44428,13015,55291
44389,12975,55223
44353,12937,55155
44321,12904,55088
44291,12877,55025
44264,12859,54967
44234,12839,54909
44194,12808,54845
44150,12774,54780
44109,12744,54719
44071,12712,54657
44040,12680,54595
44015,12646,54533
43990,12606,54468
43956,12556,54401
43914,12502,54335
43875,12461,54280
43843,12433,54241
43810,12407,54198
43771,12375,54140
43724,12335,54074
43672,12290,54002
43618,12244,53926
43569,12198,53852
43527,12162,53779
43489,12132,53709
43448,12097,53634
43402,12053,53551
43359,12012,53477
43320,11978,53415
43283,11945,53355
43252,11913,53297
43226,11885,53242
43200,11858,53187
43170,11825,53131
43142,11798,53088
43130,11792,53072
43138,11800,53083
43166,11824,53117
43218,11870,53187
43298,11942,53299
43402,12033,53451
43530,12144,53645
43683,12283,53888
43862,12447,54177
44059,12625,54498
44262,12808,54836
44467,12998,55189
44680,13199,55559
44900,13404,55937
45119,13609,56315
45339,13814,56689
45554,14010,57055
45764,14196,57409
45967,14373,57750
46159,14541,58070
46334,14694,58365
46483,14827,58626
46605,14941,58852
46718,15048,59055
46826,15151,59243
46920,15240,59407
46999,15316,59547
47064,15384,59673
47115,15443,59791
47155,15498,59901
47197,15558,60005
47252,15626,60109
47318,15694,60215
47382,15753,60315
47441,15804,60412
47500,15859,60518
47562,15917,60631
47628,15975,60742
47703,16039,60857
47785,16106,60975
47864,16173,61096
47941,16241,61220
48016,16312,61344
48090,16384,61470
48157,16452,61589
48208,16509,61688
48246,16554,61764
48273,16589,61825
48286,16611,61871
48289,16621,61901
48286,16623,61915
48277,16613,61912
48257,16591,61891
48222,16559,61849
48183,16525,61798
48147,16497,61746
48104,16466,61687
48059,16430,61622
48017,16395,61558
47978,16362,61497
47945,16334,61440
47914,16309,61390
47887,16287,61351
47866,16270,61323
47846,16251,61296
47824,16229,61266
47811,16214,61245
47807,16208,61236
47805,16208,61232
47807,16213,61231
47816,16220,61230
47829,16226,61224
47836,16224,61209
47832,16214,61190
47824,16204,61176
47816,16198,61168
47806,16190,61156
47791,16180,61135
47767,16168,61110
47733,16147,61075
47694,16118,61031
47654,16090,60984
47623,16066,60940
47602,16044,60894
47581,16018,60837
47551,15986,60775
47511,15951,60713
47466,15913,60649
47414,15872,60579
47365,15828,60508
47326,15791,60442
47288,15754,60375
47240,15705,60298
47189,15655,60220
47143,15613,60149
47100,15574,60080
47062,15538,60015
47029,15506,59955
47001,15473,59893
46967,15437,59826
46923,15393,59754
46879,15354,59692
46844,15327,59648
46814,15306,59609
46790,15289,59565
46767,15271,59518
46740,15245,59463
46711,15213,59407
46682,15180,59352
46656,15150,59299
46632,15122,59246
46603,15090,59185
46568,15050,59114
46528,15008,59047
46484,14963,58985
46439,14917,58925
46396,14873,58865
46362,14837,58813
46332,14806,58765
46297,14771,58709
46258,14733,58645
46218,14700,58584
46178,14666,58527
46137,14631,58468
46100,14601,58408
46067,14573,58346
46032,14541,58280
45989,14502,58208
45939,14461,58135
45895,14430,58072
45856,14405,58016
45819,14376,57958
45787,14345,57898
45759,14314,57837
45729,14286,57781
45697,14261,57728
45665,14239,57675
45635,14218,57625
45597,14189,57565
45544,14149,57492
45490,14108,57421
45440,14069,57356
45397,14029,57291
45362,13987,57224
45326,13940,57155
45286,13890,57083
45239,13839,57007
45184,13787,56927
45136,13744,56854
45100,13709,56793
45068,13678,56734
45040,13652,56676
45015,13630,56622
44988,13603,56567
44951,13567,56500
44903,13527,56425
44858,13491,56356
44821,13464,56295
44785,13435,56231
44750,13404,56164
44716,13371,56096
44680,13332,56031
44643,13292,55969
44610,13262,55913
44583,13244,55864
44555,13227,55812
44519,13200,55751
44481,13171,55688
44445,13145,55633
44408,13117,55577
44369,13081,55515
44331,13046,55452
44298,13014,55390
44265,12977,55329
44223,12932,55260
44178,12885,55191
44136,12844,55128
44097,12803,55067
44059,12761,55006
44021,12720,54944
43981,12678,54876
43939,12638,54804
43893,12602,54731
43850,12573,54664
43815,12552,54607
43782,12528,54551
43750,12499,54489
43715,12463,54424
43673,12416,54352
43627,12367,54276
43584,12324,54201
43545,12287,54127
43510,12250,54053
43472,12206,53977
43424,12158,53903
43372,12115,53839
43322,12081,53784
43279,12053,53732
43249,12031,53681
43231,12013,53637
43221,12002,53610
43217,12000,53606
43225,12011,53629
43257,12044,53689
43318,12101,53787
43402,12177,53916
43513,12277,54081
43645,12399,54289
43795,12541,54537
43964,12705,54824
44154,12893,55146
44367,13099,55498
44592,13307,55867
44817,13510,56237
45040,13715,56610
45261,13926,56989
45476,14133,57363
45681,14329,57719
45872,14509,58054
46048,14673,58366
46207,14821,58656
46347,14953,58921
46478,15077,59163
46605,15194,59387
46722,15299,59586
46829,15392,59758
46924,15478,59913
47004,15551,60051
47069,15614,60173
47129,15680,60284
47192,15752,60393
47259,15825,60501
47321,15891,60598
47379,15949,60685
47435,16001,60776
47489,16054,60878
47544,16108,60991
47608,16167,61112
47682,16233,61241
47762,16302,61373
47840,16371,61502
47915,16437,61630
47991,16507,61766
48064,16580,61905
48130,16647,62029
48188,16705,62132
48237,16752,62218
48272,16786,62286
48297,16809,62338
48318,16827,62377
48339,16846,62405
48345,16852,62410
48329,16839,62387
48301,16815,62346
48268,16782,62295
48230,16746,62238
48192,16711,62181
48152,16678,62122
48115,16648,62061
48076,16617,61997
48029,16578,61926
47983,16538,61861
47944,16504,61811
47908,16473,61767
47878,16448,61723
47854,16427,61685
47829,16409,61655
47806,16395,61635
47789,16391,61629
47781,16396,61631
47782,16405,61633
47784,16406,61628
47779,16398,61609
47774,16392,61587
47764,16387,61569
47751,16379,61550
47737,16368,61527
47721,16355,61502
47701,16339,61470
47672,16313,61430
47638,16280,61389
47610,16249,61355
47582,16218,61324
47547,16183,61282
47511,16149,61231
47475,16117,61174
47436,16084,61113
47396,16051,61051
47359,16022,60990
47327,15999,60929
47297,15975,60866
47257,15938,60791
47209,15889,60708
47159,15840,60630
47108,15794,60558
47059,15756,60487
47018,15726,60418
46983,15698,60349
46948,15665,60278
46908,15622,60205
46874,15579,60141
46847,15546,60093
46821,15515,60041
46790,15483,59978
46757,15451,59909
46723,15416,59841
46687,15381,59776
46651,15350,59719
46621,15328,59670
46594,15315,59628
46560,15292,59582
46519,15256,59523
46471,15213,59455
46415,15164,59381
46357,15111,59306
46306,15061,59240
46267,15026,59186
46240,15004,59139
46212,14978,59088
46180,14943,59031
46145,14907,58976
46108,14873,58922
46071,14847,58867
46041,14829,58811
46014,14811,58749
45979,14783,58676
45935,14745,58597
45893,14706,58524
45859,14675,58462
45829,14647,58403
45796,14616,58336
45762,14583,58265
45723,14550,58196
45677,14513,58125
45627,14472,58052
45580,14429,57980
45539,14391,57916
45495,14354,57850
45446,14313,57776
45400,14273,57704
45359,14235,57640
45321,14198,57578
45287,14166,57519
45256,14142,57463
45221,14117,57408
45180,14082,57349
45130,14038,57281
45086,13998,57211
45050,13968,57146
45015,13938,57079
44980,13906,57007
44943,13870,56933
44897,13825,56854
44848,13775,56774
44804,13730,56700
44768,13694,56640
44740,13666,56592
44709,13635,56539
44668,13596,56476
44625,13557,56413
44582,13519,56355
44540,13481,56297
44505,13445,56236
44477,13411,56176
44449,13379,56116
44412,13344,56053
44370,13308,55988
44329,13277,55928
44287,13246,55868
44244,13210,55800
44206,13175,55731
44170,13143,55662
44129,13106,55586
44080,13059,55499
44026,13011,55414
43975,12972,55344
43927,12935,55281
43878,12898,55217
43832,12860,55150
43787,12824,55076
43741,12787,54998
43695,12749,54920
43653,12711,54848
43619,12679,54781
43583,12640,54706
43539,12590,54620
43496,12546,54543
43462,12512,54480
43437,12484,54422
43424,12467,54375
43417,12458,54345
43415,12454,54337
43425,12464,54355
43455,12495,54405
43515,12555,54497
43605,12641,54633
43714,12744,54809
43839,12862,55016
43981,12997,55256
44141,13150,55526
44317,13322,55829
44510,13511,56156
44716,13707,56495
44929,13903,56837
45138,14093,57179
45339,14276,57516
45536,14455,57848
45730,14628,58168
45917,14791,58473
46093,14948,58762
46254,15091,59028
46393,15214,59265
46505,15317,59468
46595,15403,59645
46675,15479,59803
46749,15543,59939
46817,15598,60046
46873,15646,60133
46913,15684,60209
46943,15719,60278
46967,15753,60341
46995,15788,60403
47035,15827,60471
47077,15864,60535
47115,15897,60595
47158,15935,60664
47203,15978,60740
47252,16023,60818
47304,16072,60899
47356,16124,60982
47409,16175,61065
47455,16214,61137
47486,16237,61192
47514,16254,61243
47544,16272,61294
47572,16289,61339
47598,16306,61377
47615,16319,61402
47618,16324,61404
47604,16317,61384
47578,16299,61352
47548,16278,61317
47518,16256,61279
47483,16228,61230
47446,16197,61172
47409,16166,61113
47370,16133,61055
47328,16102,61001
47291,16077,60958
47264,16062,60929
47248,16050,60904
47238,16037,60876
47231,16027,60851
47227,16023,60837
47222,16023,60832
47215,16024,60831
47211,16027,60834
47218,16034,60845
47232,16042,60858
47246,16045,60864
47258,16046,60864
47265,16044,60855
47266,16039,60842
47262,16031,60828
47256,16027,60819
47256,16028,60814
47250,16023,60796
47231,16008,60758
47204,15983,60708
47174,15949,60649
47136,15908,60584
47093,15864,60519
47055,15824,60461
47024,15790,60410
46989,15755,60353
46948,15718,60287
46902,15678,60212
46854,15629,60131
46804,15574,60049
46755,15521,59972
46720,15481,59911
46696,15456,59858
46671,15432,59798
46644,15401,59735
46615,15366,59680
46581,15334,59628
46548,15305,59579
46520,15282,59534
46498,15262,59491
46478,15238,59444
46453,15204,59388
46423,15164,59330
46395,15131,59282
46368,15104,59236
46344,15077,59188
46321,15052,59142
46291,15023,59097
46254,14988,59048
46214,14950,58995
46178,14913,58942
46150,14881,58898
46124,14851,58854
46097,14820,58803
46068,14788,58751
46037,14756,58700
46009,14728,58654
45984,14705,58613
45963,14685,58573
45946,14665,58532
45922,14639,58480
45884,14607,58416
45842,14575,58352
45794,14541,58289
45749,14505,58229
45718,14476,58177
45697,14455,58130
45679,14433,58079
45646,14405,58020
45597,14367,57954
45545,14327,57887
45495,14291,57823
45448,14258,57756
45406,14222,57688
45369,14181,57619
45330,14132,57544
45285,14076,57463
45240,14023,57386
45204,13983,57322
45173,13950,57263
45142,13919,57205
45106,13889,57144
45065,13858,57082
45022,13822,57018
44979,13782,56950
44942,13746,56886
44919,13720,56834
44901,13701,56786
44879,13679,56732
44852,13657,56674
44816,13628,56613
44771,13591,56553
44724,13551,56496
44683,13518,56443
44648,13491,56393
44614,13458,56335
44572,13413,56266
44529,13370,56196
44490,13333,56133
44456,13302,56077
44427,13276,56026
44399,13254,55979
44373,13235,55934
44338,13210,55881
44295,13175,55814
44259,13140,55747
44228,13111,55687
44196,13079,55625
44165,13047,55558
44135,13015,55490
44103,12979,55417
44059,12933,55338
44009,12878,55257
43963,12826,55186
43921,12777,55125
43882,12731,55064
43846,12694,55002
43811,12662,54938
43775,12630,54873
43738,12599,54812
43709,12578,54767
43702,12576,54750
43718,12593,54762
43751,12622,54796
43801,12663,54857
43871,12724,54952
43962,12804,55085
44075,12901,55256
44212,13022,55473
44375,13172,55739
44557,13341,56039
44753,13523,56363
44959,13717,56709
45172,13920,57073
45390,14124,57447
45605,14324,57823
45814,14517,58190
46018,14705,58547
46211,14882,58879
46389,15043,59178
46550,15188,59450
46690,15315,59696
46813,15427,59916
46924,15529,60117
47028,15625,60301
47127,15716,60469
47209,15794,60614
47269,15853,60730
47323,15904,60832
47376,15955,60931
47428,16004,61025
47484,16052,61114
47540,16097,61199
47592,16138,61281
47644,16181,61362
47697,16233,61451
47754,16291,61550
47815,16351,61655
47869,16410,61756
47920,16468,61851
47971,16528,61948
48020,16585,62046
48073,16643,62141
48129,16699,62231
48182,16745,62309
48225,16777,62372
48252,16794,62420
48269,16804,62457
48284,16813,62490
48292,16815,62510
48284,16799,62505
48262,16772,62477
48230,16741,62433
48192,16705,62377
48155,16665,62315
48121,16625,62250
48091,16588,62183
48059,16552,62118
48025,16519,62060
47999,16495,62018
47983,16482,61989
47964,16466,61956
47941,16446,61915
47921,16429,61877
47900,16412,61842
47880,16398,61809
47866,16389,61782
47860,16385,61765
47856,16381,61750
47842,16370,61731
47814,16349,61712
47786,16328,61698
47766,16313,61687
47751,16300,61668
47742,16291,61644
47731,16280,61618
47713,16268,61591
47693,16254,61562
47674,16241,61530
47658,16230,61494
47635,16212,61452
47598,16175,61398
47557,16128,61337
47526,16087,61282
47501,16056,61231
47474,16024,61171
47443,15993,61103
47405,15962,61034
47358,15926,60967
47307,15885,60902
47259,15843,60839
47216,15802,60775
47170,15755,60709
47115,15701,60637
47061,15652,60566
47019,15614,60501
46978,15578,60433
46933,15539,60356
46888,15502,60281
46847,15467,60211
46816,15436,60147
46794,15412,60091
46775,15393,60042
46758,15376,59996
46737,15357,59947
46710,15330,59896
46685,15306,59853
46666,15291,59816
46644,15277,59772
46612,15257,59719
46570,15231,59663
46522,15195,59604
46477,15154,59544
46439,15115,59489
46406,15077,59435
46374,15034,59376
46336,14984,59311
46291,14936,59245
46252,14901,59190
46221,14874,59139
46188,14842,59076
46146,14799,58999
46100,14754,58924
46053,14709,58852
46010,14668,58783
45977,14630,58718
45950,14593,58657
45923,14552,58594
45885,14504,58525
45842,14460,58454
45804,14434,58395
45772,14412,58337
45740,14384,58270
45704,14355,58200
45660,14318,58131
45613,14275,58061
45572,14231,57993
45533,14187,57928
45495,14145,57864
45451,14102,57799
45399,14051,57727
45352,14003,57658
45313,13965,57596
45279,13931,57531
45245,13898,57462
45208,13863,57393
45166,13823,57322
45125,13781,57252
45089,13746,57188
45059,13720,57133
45033,13696,57075
44999,13662,57006
44959,13617,56930
44925,13577,56865
44896,13550,56812
44866,13525,56756
44834,13499,56696
44803,13475,56641
44767,13450,56590
44725,13419,56534
44681,13386,56480
44641,13353,56433
44601,13314,56381
44560,13268,56315
44521,13223,56247
44485,13183,56189
44449,13145,56137
44416,13111,56086
44390,13085,56037
44364,13063,55986
44337,13039,55927
44305,13004,55858
44269,12960,55786
44235,12916,55718
44201,12873,55653
44169,12832,55586
44139,12795,55516
44105,12759,55443
44064,12720,55369
44013,12676,55295
43959,12637,55231
43912,12609,55181
43869,12583,55131
43831,12553,55072
43794,12519,55006
43753,12479,54934
43710,12436,54858
43668,12396,54787
43635,12365,54727
43614,12340,54676
43598,12315,54628
43589,12291,54588
43592,12277,54568
43605,12277,54573
43627,12290,54607
43668,12326,54681
43740,12395,54808
43848,12497,54984
43986,12626,55199
44148,12777,55449
44332,12947,55736
44531,13129,56057
44739,13323,56409
44956,13532,56787
45184,13755,57189
45422,13985,57604
45653,14207,58007
45873,14417,58396
46086,14619,58775
46291,14811,59139
46490,14991,59486
46679,15159,59808
46850,15315,60096
46998,15452,60354
47125,15569,60588
47236,15672,60799
47338,15767,60988
47431,15848,61145
47520,15916,61274
47600,15978,61389
47665,16040,61498
47717,16098,61598
47762,16150,61691
47809,16200,61785
47862,16252,61887
47922,16305,61989
47990,16360,62091
48059,16415,62196
48122,16469,62304
48182,16524,62416
48242,16584,62533
48313,16654,62661
48395,16737,62803
48481,16824,62948
48564,16908,63090
48646,16979,63226
48718,17032,63343
48778,17072,63434
48823,17106,63509
48857,17136,63571
48878,17158,63612
48881,17162,63625
48872,17156,63614
48856,17146,63588
48831,17129,63548
48801,17105,63497
48769,17077,63444
48738,17051,63394
48706,17023,63342
48669,16987,63279
48628,16946,63203
48591,16899,63116
48552,16854,63028
48508,16820,62953
48469,16795,62894
48440,16777,62851
48415,16761,62817
48389,16742,62784
48364,16726,62761
48344,16717,62753
48326,16709,62745
48315,16702,62734
48308,16693,62722
48302,16679,62704
48298,16666,62684
48294,16656,62666
48292,16653,62651
48294,16654,62638
48287,16644,62616
48267,16619,62582
48243,16591,62546
48213,16561,62510
48181,16530,62472
48154,16500,62433
48131,16471,62392
48106,16444,62345
48071,16408,62284
48022,16365,62208
47973,16324,62135
47928,16282,62065
47883,16234,61986
47836,16187,61901
47787,16145,61818
47735,16104,61738
47683,16063,61662
47636,16026,61588
47596,15994,61516
47560,15959,61443
47517,15915,61366
47469,15867,61290
47424,15825,61222
47383,15785,61153
47345,15739,61078
47308,15692,61003
47267,15647,60931
47222,15605,60864
47176,15568,60798
47129,15535,60733
47087,15506,60674
47047,15474,60615
47003,15433,60546
46960,15392,60480
46923,15354,60419
46889,15315,60354
46856,15279,60287
46826,15249,60225
46795,15219,60165
46766,15186,60101
46738,15153,60037
46709,15125,59978
46675,15102,59920
46632,15071,59857
46579,15029,59792
46529,14990,59733
46491,14959,59679
46459,14927,59620
46430,14888,59553
46398,14846,59482
46358,14801,59411
46314,14757,59337
46273,14717,59265
46235,14680,59198
46193,14640,59125
46139,14593,59040
46079,14545,58952
46028,14507,58874
45984,14475,58804
45937,14434,58727
45888,14384,58648
45843,14338,58580
45801,14296,58518
45761,14256,58456
45723,14218,58396
45686,14181,58334
45652,14144,58265
45619,14109,58190
45583,14077,58114
45544,14047,58043
45502,14014,57970
45460,13974,57893
45419,13933,57819
45377,13892,57749
45335,13849,57675
45293,13804,57604
45251,13759,57539
45213,13713,57473
45163,13665,57400
45092,13616,57318
45022,13576,57243
44973,13553,57189
44940,13534,57137
44917,13513,57072
44901,13487,57003
44883,13455,56936
44861,13418,56875
44842,13382,56822
44826,13349,56770
44807,13316,56715
44777,13277,56652
44735,13236,56584
44695,13202,56521
44661,13172,56458
44628,13141,56387
44592,13107,56316
44550,13073,56251
44504,13040,56192
44458,13009,56137
44412,12977,56083
44369,12946,56027
44325,12915,55964
44272,12876,55888
44213,12832,55806
44156,12789,55730
44099,12745,55658
44045,12705,55585
44005,12671,55517
43975,12637,55448
43944,12594,55373
43905,12541,55290
43865,12483,55204
43830,12431,55122
43794,12379,55041
43754,12326,54959
43711,12279,54886
43670,12239,54828
43635,12206,54782
43610,12185,54747
43597,12175,54725
43599,12182,54724
43612,12199,54741
43639,12228,54779
43696,12286,54859
43788,12379,54991
43905,12496,55165
44045,12630,55370
44202,12778,55611
44373,12939,55889
44557,13115,56201
44758,13305,56541
44977,13507,56904
45202,13715,57281
45421,13916,57656
45636,14112,58022
45846,14306,58382
46047,14495,58734
46240,14678,59072
46430,14855,59391
46609,15019,59689
46767,15162,59956
46895,15280,60184
47000,15377,60379
47094,15466,60554
47181,15551,60711
47256,15632,60850
47324,15713,60975
47388,15790,61089
47446,15860,61192
47499,15922,61284
47550,15979,61370
47604,16035,61456
47655,16085,61536
47702,16126,61609
47750,16165,61685
47798,16205,61769
47849,16251,61860
47912,16306,61959
47983,16368,62066
48053,16431,62179
48114,16482,62285
48162,16521,62382
48210,16559,62485
48258,16601,62594
48302,16640,62696
48346,16679,62787
48387,16712,62861
48416,16730,62907
48427,16733,62924
48420,16724,62920
48407,16709,62904
48394,16689,62878
48375,16658,62832
48346,16616,62767
48310,16571,62695
48271,16528,62626
48232,16491,62565
48194,16460,62512
48157,16435,62466
48121,16409,62419
48085,16377,62367
48054,16348,62318
48034,16331,62285
48020,16320,62258
48010,16311,62230
48005,16307,62205
48002,16304,62182
47994,16294,62161
47978,16274,62139
47957,16252,62116
47945,16243,62102
47942,16240,62092
47943,16237,62078
47943,16234,62062
47938,16229,62046
47931,16221,62027
47924,16213,62006
47917,16206,61982
47908,16195,61955
47886,16168,61913
47845,16122,61852
47796,16074,61785
47744,16031,61722
47696,15995,61660
47658,15967,61598
47626,15941,61535
47590,15910,61468
47550,15873,61394
47505,15831,61315
47463,15793,61242
47427,15764,61174
47393,15732,61100
47361,15696,61021
47328,15659,60943
47290,15620,60867
47249,15578,60794
47206,15533,60722
47164,15493,60658
47126,15461,60595
47080,15430,60525
47029,15401,60450
46977,15378,60377
46929,15354,60312
46892,15324,60261
46867,15296,60222
46849,15271,60185
46831,15244,60143
46808,15208,60090
46782,15163,60034
46761,15123,59986
46743,15087,59941
46727,15052,59893
46708,15019,59841
46680,14985,59787
46644,14951,59732
46608,14920,59678
46576,14893,59626
46549,14870,59580
46518,14838,59527
46483,14793,59465
46451,14751,59410
46420,14717,59361
46388,14684,59307
46355,14654,59249
46321,14626,59194
46284,14593,59134
46245,14550,59065
46200,14501,58987
46157,14459,58915
46120,14428,58855
46082,14398,58793
46040,14365,58728
46000,14336,58667
45961,14309,58608
45922,14280,58548
45886,14251,58488
45855,14224,58432
45828,14193,58376
45793,14153,58311
45751,14107,58239
45712,14068,58175
45676,14035,58118
45639,14005,58060
45606,13975,58003
45574,13947,57945
45536,13912,57879
45490,13864,57808
45444,13818,57741
45409,13785,57686
45380,13759,57632
45349,13733,57575
45317,13709,57518
45282,13683,57460
45242,13649,57400
45198,13609,57337
45158,13569,57274
45122,13537,57213
45082,13500,57144
45036,13455,57063
44989,13411,56981
44939,13369,56901
44890,13326,56823
44849,13288,56750
44814,13252,56681
44781,13217,56613
44739,13173,56537
44688,13121,56451
44636,13074,56367
44590,13031,56290
44549,12992,56219
44517,12962,56155
44490,12936,56092
44459,12903,56023
44418,12862,55947
44368,12821,55876
44322,12793,55821
44288,12776,55778
44268,12766,55743
44261,12767,55729
44268,12781,55745
44291,12805,55788
44338,12845,55862
44412,12908,55975
44514,13002,56132
44639,13118,56328
44781,13244,56548
44938,13379,56787
45112,13532,57051
45295,13698,57339
45486,13875,57649
45680,14061,57976
45873,14253,58309
46065,14437,58637
46248,14605,58949
46423,14764,59252
46592,14918,59549
46747,15063,59831
46889,15198,60088
47019,15323,60315
47137,15433,60513
47234,15525,60682
47310,15600,60825
47383,15672,60956
47461,15742,61079
47532,15800,61179
47592,15850,61255
47637,15892,61316
47666,15922,61369
47687,15943,61417
47709,15962,61465
47741,15988,61522
47784,16024,61584
47824,16060,61639
47857,16093,61685
47890,16129,61737
47926,16168,61799
47961,16206,61868
47997,16243,61940
48036,16277,62013
48073,16301,62074
48101,16314,62120
48119,16322,62159
48131,16331,62200
48136,16335,62229
48130,16329,62236
48116,16317,62227
48094,16297,62205
48065,16271,62170
48033,16245,62123
48004,16222,62072
47980,16203,62028
47956,16184,61986
47928,16159,61936
47897,16127,61883
47863,16092,61828
47829,16062,61777
47801,16041,61736
47781,16028,61708
47773,16024,61688
47764,16022,61669
47746,16012,61646
47733,16003,61629
47731,15999,61623
47733,15997,61616
47743,15998,61608
