green_channel,red_channel,ir_channel
43021,21636,16744
42953,21585,16653
42882,21537,16558
42807,21490,16458
42727,21443,16355
42647,21396,16247
42560,21344,16131
42468,21285,16011
42374,21223,15889
42281,21159,15767
42185,21095,15647
42091,21030,15529
42006,20970,15415
41927,20916,15306
41853,20865,15202
41786,20818,15108
41731,20781,15030
41690,20751,14972
41662,20730,14936
41645,20717,14919
41638,20714,14919
41642,20718,14934
41653,20729,14962
41672,20750,14998
41703,20779,15041
41746,20812,15091
41793,20845,15146
41842,20877,15204
41894,20913,15269
41947,20949,15340
41997,20982,15412
42042,21009,15478
42082,21035,15537
42118,21062,15587
42145,21086,15628
42163,21108,15660
42180,21128,15683
42196,21147,15695
42205,21162,15695
42205,21168,15682
42198,21161,15656
42184,21143,15620
42164,21119,15576
42138,21088,15524
42102,21053,15467
42057,21015,15408
42007,20975,15344
41952,20931,15273
41890,20887,15195
41820,20843,15111
41742,20796,15014
41660,20744,14906
41575,20688,14795
41489,20627,14681
41402,20560,14565
41316,20493,14452
41231,20430,14344
41140,20368,14237
41045,20307,14126
40950,20247,14014
40857,20187,13904
40767,20126,13791
40682,20063,13673
40600,20001,13552
40518,19942,13432
40436,19889,13318
40358,19838,13207
40284,19787,13099
40214,19737,12998
40144,19691,12904
40076,19647,12815
40011,19606,12732
39946,19565,12652
39880,19522,12577
39815,19481,12508
39753,19442,12443
39689,19402,12377
39622,19362,12303
39562,19324,12226
39509,19291,12150
39460,19260,12080
39414,19230,12011
39374,19200,11941
39338,19172,11874
39299,19144,11816
39253,19116,11762
39205,19087,11708
39157,19059,11655
39111,19032,11604
39071,19008,11559
39039,18989,11517
39012,18971,11476
38985,18953,11436
38958,18935,11398
38931,18921,11361
38906,18907,11323
38878,18889,11284
38848,18867,11241
38816,18847,11199
38780,18827,11157
38736,18803,11112
38687,18772,11058
38638,18735,10997
38588,18697,10932
38535,18661,10869
38486,18631,10807
38446,18607,10749
38410,18585,10698
38372,18561,10648
38330,18534,10593
38287,18507,10537
38241,18481,10478
38193,18452,10414
38139,18418,10350
38081,18381,10285
38019,18340,10217
37958,18297,10144
37899,18255,10065
37840,18211,9980
37777,18170,9891
37714,18131,9803
37652,18093,9718
37591,18054,9639
37522,18012,9561
37444,17969,9476
37360,17923,9386
37276,17878,9296
37192,17834,9205
37107,17788,9113
37024,17740,9018
36940,17689,8920
36851,17634,8813
36759,17574,8698
36669,17511,8579
36581,17447,8457
36490,17379,8331
36395,17311,8201
36297,17242,8072
36199,17174,7942
36098,17107,7810
36000,17043,7680
35910,16986,7559
35831,16935,7449
35761,16891,7351
35702,16854,7270
35662,16828,7218
35649,16822,7207
35673,16842,7251
35749,16900,7370
35896,17007,7582
36118,17165,7895
36409,17370,8306
36767,17618,8805
37185,17903,9375
37644,18214,9988
38121,18537,10620
38603,18863,11256
39079,19181,11880
39537,19485,12477
39967,19767,13036
40366,20025,13550
40732,20260,14016
41059,20471,14437
41347,20658,14808
41602,20824,15132
41827,20969,15414
42024,21094,15661
42196,21199,15872
42343,21287,16049
42465,21360,16194
42558,21417,16309
42620,21457,16395
42659,21481,16455
42678,21488,16489
42677,21479,16493
42657,21458,16464
42623,21427,16411
42580,21391,16344
42528,21349,16267
42463,21304,16181
42388,21256,16086
42307,21205,15983
42223,21152,15877
42140,21097,15769
42062,21041,15658
41984,20980,15542
41903,20916,15427
41819,20853,15312
41732,20793,15195
41640,20730,15075
41540,20659,14948
41433,20582,14810
41321,20502,14661
41203,20421,14505
41081,20338,14344
40959,20257,14182
40840,20176,14021
40721,20096,13864
40602,20019,13709
40492,19947,13560
40393,19883,13424
40301,19826,13307
40218,19776,13209
40150,19737,13135
40102,19712,13085
40073,19700,13058
40061,19698,13053
40070,19710,13066
40099,19736,13097
40141,19768,13144
40193,19805,13207
40256,19847,13287
40331,19896,13383
40410,19951,13490
40491,20009,13603
40571,20067,13717
40650,20124,13828
40725,20182,13934
40796,20236,14036
40863,20287,14131
40922,20332,14214
40969,20368,14283
41004,20395,14336
41029,20412,14374
41044,20420,14398
41050,20418,14405
41050,20411,14400
41050,20401,14387
41047,20388,14365
41035,20370,14328
41012,20347,14276
40977,20318,14213
40926,20284,14136
40859,20243,14047
40781,20197,13948
40698,20147,13840
40611,20093,13730
40521,20033,13618
40426,19969,13503
40331,19905,13386
40235,19839,13266
40132,19767,13142
40025,19694,13014
39923,19621,12885
39827,19552,12754
39732,19483,12620
39637,19415,12483
39542,19350,12350
39446,19289,12224
39349,19229,12101
39258,19169,11975
39170,19108,11850
39084,19044,11731
39001,18982,11622
38924,18923,11519
38849,18869,11422
38776,18819,11330
38704,18770,11241
38633,18723,11152
38563,18678,11065
38490,18635,10980
38421,18594,10898
38357,18560,10818
38299,18529,10743
38246,18502,10675
38196,18476,10610
38152,18451,10543
38110,18423,10477
38070,18395,10415
38035,18369,10359
38008,18345,10310
37982,18318,10264
37949,18286,10217
37910,18252,10169
37874,18222,10121
37842,18197,10074
37812,18176,10032
37784,18160,9994
37754,18146,9960
37723,18130,9927
37691,18112,9896
37657,18092,9864
37625,18073,9830
37598,18056,9797
37575,18038,9766
37552,18021,9734
37526,18003,9697
37491,17982,9654
37452,17961,9608
37413,17941,9566
37379,17924,9526
37347,17909,9488
37315,17896,9451
37284,17883,9416
37252,17867,9376
37214,17846,9328
37170,17819,9275
37127,17790,9223
37087,17763,9171
37047,17738,9115
37006,17714,9054
36963,17689,8993
36916,17662,8928
36866,17628,8861
36814,17593,8793
36766,17556,8729
36719,17520,8666
36671,17483,8594
36621,17447,8514
36570,17411,8430
36510,17370,8343
36437,17322,8250
36353,17270,8147
36266,17217,8040
36178,17164,7935
36086,17110,7827
35996,17053,7713
35907,16994,7593
35815,16933,7469
35718,16870,7345
35621,16808,7222
35530,16749,7105
35442,16695,6993
35359,16645,6886
35285,16601,6786
35224,16564,6699
35176,16536,6631
35144,16518,6590
35141,16517,6591
35179,16541,6655
35271,16605,6794
35428,16717,7022
35663,16881,7350
35975,17096,7779
36353,17352,8296
36787,17643,8884
37261,17958,9516
37756,18286,10166
38257,18616,10815
38748,18941,11448
39220,19251,12052
39663,19540,12614
40064,19805,13127
40424,20045,13589
40748,20260,14005
41038,20453,14375
41292,20622,14697
41514,20769,14979
41709,20894,15227
41878,21000,15444
42019,21085,15630
42132,21149,15784
42223,21199,15908
42293,21237,16001
42341,21261,16060
42367,21271,16090
42376,21272,16094
42369,21263,16079
42346,21243,16048
42312,21216,16004
42271,21184,15945
42216,21147,15870
42146,21100,15778
42070,21050,15672
41995,21000,15561
41920,20948,15448
41848,20897,15337
41782,20845,15229
41718,20793,15124
41651,20741,15021
41583,20688,14922
41512,20634,14820
41436,20576,14712
41352,20513,14596
41259,20442,14469
41159,20367,14330
41054,20291,14185
40942,20213,14040
40828,20135,13893
40720,20062,13749
40620,19994,13612
40523,19928,13488
40431,19866,13376
40349,19813,13274
40284,19769,13188
40233,19735,13121
40199,19713,13072
40184,19705,13042
40190,19708,13035
40211,19724,13054
40245,19752,13096
40295,19787,13152
40356,19827,13219
40419,19868,13295
40482,19909,13375
40544,19950,13460
40607,19993,13554
40671,20038,13654
40739,20087,13755
40811,20139,13855
40883,20189,13951
40947,20234,14041
41007,20275,14123
41064,20313,14196
41113,20347,14256
41150,20374,14300
41177,20395,14330
41197,20410,14346
41206,20419,14349
41202,20419,14340
41186,20409,14317
41160,20391,14280
41123,20362,14232
41076,20326,14174
41022,20286,14105
40961,20244,14029
40896,20202,13952
40829,20156,13870
40763,20108,13782
40695,20056,13689
40625,20002,13592
40553,19948,13491
40482,19896,13385
40408,19846,13280
40333,19796,13176
40256,19746,13070
40182,19694,12964
40109,19640,12859
40033,19581,12752
39955,19521,12644
39879,19464,12540
39802,19409,12438
39720,19356,12337
39637,19305,12237
39561,19258,12140
39490,19216,12046
39419,19175,11957
39351,19134,11870
39291,19092,11785
39233,19048,11701
39171,19003,11616
39111,18961,11532
39060,18929,11453
39014,18900,11378
38967,18870,11304
38920,18839,11234
38873,18809,11171
38824,18780,11115
38773,18749,11062
38722,18719,11010
38673,18690,10962
38628,18660,10915
38587,18630,10868
38548,18602,10816
38509,18579,10763
38472,18560,10713
38439,18545,10664
38412,18529,10617
38388,18511,10576
38365,18492,10540
38343,18474,10509
38322,18458,10480
38298,18442,10451
38272,18425,10421
38248,18408,10392
38228,18393,10366
38209,18377,10341
38188,18358,10314
38166,18339,10285
38145,18324,10256
38126,18312,10225
38104,18300,10194
38078,18289,10160
38050,18279,10123
38020,18265,10087
37988,18248,10049
37955,18227,10007
37921,18205,9963
37888,18184,9919
37857,18164,9877
37826,18142,9838
37797,18119,9799
37765,18095,9758
37726,18070,9714
37688,18048,9670
37650,18026,9627
37607,18000,9577
37558,17968,9517
37510,17934,9453
37466,17902,9389
37422,17871,9321
37372,17838,9250
37316,17803,9177
37259,17769,9102
37202,17736,9029
37144,17700,8951
37084,17659,8864
37022,17616,8772
36955,17571,8676
36882,17524,8578
36810,17476,8479
36739,17427,8381
36663,17378,8279
36583,17328,8176
36504,17278,8074
36430,17229,7973
36357,17183,7875
36286,17142,7784
36220,17102,7703
36161,17065,7634
36112,17036,7581
36082,17021,7557
36087,17030,7580
36138,17070,7664
36245,17146,7821
36418,17265,8065
36667,17433,8404
36988,17649,8832
37370,17906,9337
37797,18195,9903
38257,18503,10510
38733,18821,11136
39211,19141,11759
39682,19454,12368
40142,19754,12953
40584,20037,13509
41001,20301,14029
41388,20552,14513
41743,20787,14959
42064,20999,15362
42353,21189,15725
42615,21359,16050
42853,21511,16343
43064,21640,16601
43243,21748,16823
43397,21841,17016
43529,21920,17183
43633,21984,17323
43709,22031,17431
43764,22062,17508
43800,22082,17560
43819,22093,17591
43824,22095,17600
43822,22090,17585
43814,22079,17553
43796,22062,17510
43770,22039,17458
43740,22012,17399
43705,21982,17336
43663,21949,17271
43615,21913,17203
43568,21876,17134
43523,21838,17069
43477,21802,17008
43433,21769,16947
43395,21742,16888
43362,21721,16833
43329,21700,16780
43294,21678,16726
43259,21653,16670
43218,21621,16610
43170,21580,16541
43119,21536,16464
43066,21492,16384
43007,21445,16302
42944,21393,16215
42880,21338,16120
42817,21285,16021
42754,21236,15927
42693,21193,15839
42634,21154,15759
42581,21123,15689
42533,21099,15631
42493,21081,15586
42462,21068,15550
42439,21061,15527
42425,21057,15517
42420,21060,15521
42428,21071,15537
42447,21088,15564
42476,21110,15601
42511,21133,15644
42553,21159,15695
42605,21190,15753
42663,21223,15814
42721,21257,15873
42780,21291,15927
42837,21323,15980
42886,21349,16028
42926,21369,16071
42959,21387,16111
42985,21402,16147
43001,21413,16177
43008,21422,16197
43008,21426,16207
43002,21424,16207
42985,21412,16197
42962,21397,16177
42938,21381,16148
42908,21362,16111
42873,21339,16069
42836,21312,16020
42797,21281,15963
42753,21246,15897
42702,21206,15824
42647,21161,15743
42588,21113,15656
42522,21062,15564
42446,21007,15463
42366,20951,15355
42284,20894,15245
42197,20835,15134
42107,20776,15020
42019,20720,14902
41936,20667,14785
41855,20616,14672
41776,20568,14561
41698,20521,14454
41620,20475,14350
41544,20428,14250
41471,20381,14153
41404,20336,14063
41341,20295,13977
41279,20254,13893
41217,20212,13804
41158,20169,13713
41103,20125,13624
41048,20080,13540
40993,20038,13461
40937,20000,13385
40883,19966,13314
40828,19932,13249
40773,19896,13184
40713,19859,13116
40648,19819,13045
40581,19780,12975
40519,19744,12910
40468,19712,12850
40423,19682,12797
40381,19652,12750
40343,19623,12708
40311,19597,12668
40283,19571,12627
40255,19545,12585
40224,19520,12544
40193,19499,12507
40163,19481,12474
40132,19462,12438
40101,19442,12397
40068,19421,12352
40029,19397,12306
39985,19371,12259
39941,19346,12210
39900,19319,12158
39861,19291,12106
39823,19262,12057
39787,19237,12010
39751,19218,11966
39710,19202,11918
39667,19184,11868
39629,19165,11817
39594,19146,11766
39553,19120,11710
39508,19089,11651
39464,19061,11594
39423,19034,11541
39382,19008,11488
39337,18982,11437
39289,18955,11386
39239,18928,11337
39187,18899,11284
39136,18868,11226
39088,18838,11162
39040,18804,11091
38989,18766,11014
38936,18728,10936
38887,18692,10861
38840,18656,10787
38787,18615,10710
38727,18573,10628
38664,18532,10542
38596,18488,10453
38522,18441,10362
38448,18393,10270
38376,18344,10177
38302,18292,10081
38227,18240,9983
38147,18188,9881
38063,18137,9778
37975,18083,9675
37886,18027,9567
37799,17970,9453
37713,17913,9337
37625,17856,9225
37539,17803,9119
37460,17752,9019
37384,17703,8923
37309,17655,8833
37239,17611,8748
37185,17575,8679
37150,17552,8635
37139,17543,8622
37163,17557,8652
37234,17605,8746
37362,17695,8920
37551,17827,9184
37802,18003,9541
38113,18223,9980
38477,18479,10485
38877,18757,11035
39300,19048,11607
39737,19345,12185
40178,19643,12760
40611,19934,13317
41026,20210,13846
41420,20466,14345
41790,20704,14814
42132,20926,15251
42447,21133,15653
42740,21324,16019
43010,21499,16350
43252,21654,16644
43467,21789,16903
43655,21906,17127
43810,22005,17316
43931,22083,17469
44025,22142,17590
44098,22182,17680
44150,22206,17741
44182,22218,17774
44198,22221,17785
44201,22216,17780
44193,22204,17759
44173,22183,17721
44144,22155,17672
44106,22125,17616
44059,22091,17556
44004,22055,17491
43949,22017,17421
43899,21983,17351
43852,21952,17287
43807,21924,17225
43764,21895,17161
43721,21868,17096
43678,21842,17032
43633,21811,16968
43589,21776,16902
43543,21739,16837
43492,21702,16774
43438,21664,16709
43380,21620,16638
43315,21572,16562
43241,21522,16477
43163,21471,16382
43089,21425,16280
43016,21381,16178
42939,21336,16075
42864,21292,15976
42797,21249,15885
42733,21207,15801
42673,21165,15724
42627,21129,15659
42595,21101,15610
42571,21079,15574
42553,21065,15547
42545,21059,15533
42548,21064,15537
42562,21078,15560
42581,21098,15595
42605,21120,15635
42636,21144,15679
42674,21172,15727
42717,21202,15779
42768,21236,15833
42824,21272,15892
42876,21308,15950
42923,21340,16005
42964,21369,16054
42998,21393,16095
43022,21414,16127
43040,21431,16149
43056,21442,16163
43069,21447,16167
43078,21447,16166
43078,21443,16161
43069,21435,16150
43051,21422,16128
43024,21403,16094
42987,21378,16047
42947,21347,15992
42902,21310,15932
42854,21269,15866
42801,21223,15791
42742,21177,15709
42675,21128,15623
42597,21075,15530
42513,21020,15428
42429,20967,15321
42346,20917,15215
42263,20867,15111
42181,20816,15006
42098,20766,14902
42014,20716,14802
41931,20665,14705
41852,20614,14605
41774,20563,14506
41699,20513,14409
41625,20461,14310
41553,20407,14209
41480,20352,14109
41404,20296,14014
41325,20241,13920
41249,20191,13827
41179,20147,13739
41113,20104,13657
41049,20063,13577
40988,20025,13496
40932,19991,13420
40882,19960,13354
40835,19930,13294
40790,19899,13238
40744,19868,13180
40697,19834,13119
40651,19798,13055
40608,19763,12992
40566,19732,12931
40524,19700,12871
40481,19670,12815
40440,19642,12764
40398,19617,12713
40352,19589,12661
40306,19561,12610
40266,19534,12559
40231,19510,12508
40195,19489,12458
40161,19469,12413
40133,19450,12375
40109,19435,12340
40084,19422,12304
40056,19409,12268
40026,19393,12231
39996,19374,12195
39965,19354,12157
39932,19333,12123
39900,19311,12089
39869,19288,12055
39836,19265,12016
39801,19242,11971
39766,19218,11924
39730,19194,11876
39695,19168,11827
39662,19142,11779
39625,19117,11734
39584,19093,11688
39540,19069,11638
39494,19044,11582
39452,19021,11524
39409,18995,11466
39360,18963,11403
39309,18928,11336
39253,18895,11269
39194,18862,11199
39135,18827,11128
39081,18793,11059
39032,18757,10993
38983,18721,10924
38932,18684,10851
38878,18647,10777
38821,18610,10704
38761,18575,10631
38700,18540,10559
38639,18504,10485
38574,18467,10407
38503,18427,10323
38432,18386,10233
38363,18346,10143
38296,18303,10052
38225,18256,9958
38152,18207,9866
38077,18159,9777
37998,18110,9687
37916,18058,9596
37831,18006,9505
37750,17955,9415
37672,17903,9323
37594,17851,9228
37517,17796,9129
37445,17741,9031
37378,17690,8938
37318,17648,8855
37269,17617,8786
37232,17597,8739
37213,17590,8718
37224,17604,8734
37274,17644,8805
37369,17717,8944
37516,17826,9156
37722,17973,9448
37990,18161,9820
38317,18384,10263
38686,18638,10761
39083,18909,11293
39497,19187,11841
39917,19467,12389
40329,19743,12926
40732,20011,13448
41122,20267,13950
41496,20509,14426
41844,20735,14866
42160,20943,15269
42449,21135,15634
42712,21308,15961
42949,21462,16254
43159,21596,16516
43343,21710,16746
43497,21807,16945
43620,21885,17111
43718,21948,17245
43795,21998,17350
43853,22035,17427
43894,22058,17476
43920,22071,17500
43937,22077,17506
43943,22074,17498
43935,22059,17476
43912,22034,17436
43877,22003,17383
43834,21967,17320
43784,21927,17253
43734,21886,17181
43685,21847,17103
43634,21808,17024
43580,21768,16946
43527,21732,16872
43475,21699,16804
43425,21666,16743
43376,21634,16685
43331,21602,16625
43283,21568,16564
43226,21529,16501
43162,21485,16431
43099,21443,16352
43036,21403,16268
42971,21364,16182
42903,21323,16093
42836,21280,16001
42773,21236,15907
42712,21189,15810
42651,21139,15712
42595,21092,15623
42546,21050,15547
42504,21013,15488
42469,20984,15442
42444,20965,15407
42430,20955,15384
42425,20954,15375
42423,20960,15377
42428,20974,15390
42442,20992,15415
42462,21011,15453
42493,21035,15501
42537,21065,15560
42590,21098,15629
42646,21130,15701
42702,21163,15770
42760,21197,15834
42818,21232,15897
42867,21263,15957
42912,21293,16016
42956,21323,16071
42995,21350,16118
43024,21368,16151
43045,21382,16173
43063,21394,16188
43074,21403,16199
43078,21407,16202
43074,21403,16195
43061,21394,16179
43041,21381,16154
43009,21364,16119
42970,21342,16072
42926,21316,16014
42878,21287,15952
42828,21254,15888
42781,21217,15819
42733,21178,15746
42681,21137,15671
42624,21096,15594
42565,21058,15516
42505,21021,15437
42443,20982,15357
42382,20944,15271
42323,20907,15182
42262,20865,15090
42195,20818,14993
42121,20766,14893
42049,20715,14797
41980,20668,14707
41912,20623,14619
41845,20577,14530
41782,20532,14441
41722,20487,14354
41663,20441,14269
41605,20394,14185
41549,20350,14105
41494,20308,14031
41438,20267,13961
41382,20227,13891
41328,20189,13828
41273,20155,13769
41214,20121,13709
41155,20091,13650
41098,20064,13595
41043,20039,13545
40990,20012,13496
40946,19988,13445
40911,19968,13392
40877,19947,13339
40843,19922,13285
40809,19893,13231
40775,19865,13181
40740,19837,13135
40702,19810,13090
40665,19786,13047
40632,19764,13008
40605,19742,12976
40581,19720,12948
40559,19701,12920
40540,19685,12890
40524,19673,12862
40508,19661,12832
40489,19643,12797
40468,19624,12760
40447,19605,12727
40424,19588,12696
40400,19572,12666
40372,19558,12635
40340,19544,12600
40304,19528,12561
40268,19511,12522
40233,19490,12483
40197,19467,12441
40159,19445,12398
40122,19426,12351
40086,19409,12302
40050,19389,12251
40010,19364,12197
39966,19337,12143
39920,19309,12089
39873,19280,12035
39824,19248,11979
39773,19215,11922
39721,19182,11861
39664,19147,11794
39604,19113,11724
39547,19079,11655
39493,19046,11588
39440,19012,11519
39388,18976,11447
39333,18939,11372
39273,18899,11297
39212,18859,11223
39154,18820,11148
39097,18781,11071
39035,18742,10990
38968,18701,10909
38901,18660,10824
38834,18615,10735
38762,18564,10642
38684,18512,10542
38605,18460,10435
38523,18409,10328
38435,18356,10224
38344,18301,10117
38256,18247,10007
38171,18194,9899
38090,18144,9796
38014,18096,9697
37946,18048,9602
37881,18002,9514
37818,17961,9438
37762,17928,9380
37720,17908,9338
37695,17899,9316
37693,17905,9326
37729,17933,9385
37815,17993,9510
37956,18090,9708
38151,18226,9980
38398,18400,10323
38697,18610,10731
39040,18846,11188
39411,19100,11675
39799,19363,12176
40194,19627,12682
40583,19886,13185
40958,20135,13675
41315,20372,14144
41655,20595,14588
41973,20803,15001
42264,20995,15377
42526,21171,15716
42760,21328,16021
42968,21465,16294
43152,21586,16533
43314,21689,16739
43454,21774,16916
43572,21842,17066
43665,21895,17187
43735,21934,17276
43783,21959,17336
43810,21972,17372
43820,21976,17387
43818,21970,17380
43803,21955,17351
43775,21930,17305
43739,21897,17244
43695,21858,17171
43643,21813,17092
43581,21762,17008
43513,21711,16919
43445,21663,16828
43376,21617,16742
43307,21571,16656
43240,21527,16571
43174,21485,16486
43109,21444,16405
43045,21403,16328
42983,21360,16253
42922,21316,16175
42858,21267,16094
42790,21214,16007
42714,21159,15913
42632,21103,15813
42544,21045,15707
42451,20983,15597
42358,20920,15484
42267,20862,15369
42179,20809,15255
42096,20758,15143
42024,20712,15040
41968,20675,14953
41924,20644,14886
41889,20619,14836
41862,20602,14803
41848,20596,14790
41848,20601,14798
41859,20613,14818
41878,20629,14850
41904,20650,14892
41936,20676,14941
41975,20703,14997
42024,20734,15062
42083,20769,15134
42142,20804,15209
42199,20835,15282
42255,20866,15350
42307,20898,15413
42352,20929,15469
42391,20958,15516
42427,20987,15555
42459,21011,15589
42484,21028,15618
42504,21039,15635
42521,21047,15637
42530,21049,15629
42524,21043,15612
42504,21032,15587
42475,21016,15550
42437,20993,15501
42390,20964,15443
42337,20931,15379
42284,20895,15309
42228,20853,15233
42164,20804,15150
42092,20751,15060
42012,20698,14967
41926,20644,14872
41839,20588,14771
41756,20530,14663
41675,20476,14553
41596,20425,14443
41518,20372,14336
41440,20315,14232
41362,20260,14134
41283,20205,14040
41206,20151,13946
41131,20096,13848
41056,20042,13749
40976,19989,13651
40893,19936,13554
40813,19888,13454
40737,19843,13355
40661,19796,13255
40585,19747,13154
40515,19699,13056
40451,19652,12959
40387,19608,12864
40323,19567,12774
40263,19530,12690
40205,19494,12615
40148,19459,12546
40091,19425,12479
40037,19392,12414
39986,19360,12355
39936,19329,12298
39889,19298,12242
39844,19267,12186
39797,19236,12132
39749,19205,12077
39700,19173,12021
39653,19142,11965
39609,19112,11911
39568,19083,11862
39532,19057,11813
39498,19033,11765
39466,19011,11720
39433,18990,11680
39405,18973,11645
39384,18959,11616
39363,18946,11585
39338,18932,11554
39312,18918,11521
39285,18903,11486
39256,18885,11451
39225,18864,11417
39196,18841,11381
39169,18822,11346
39142,18808,11316
39115,18792,11284
39089,18774,11245
39061,18756,11205
39024,18738,11164
38977,18718,11116
38926,18698,11062
38877,18676,11008
38832,18651,10953
38788,18620,10896
38745,18587,10833
38703,18554,10768
38664,18521,10702
38626,18486,10632
38585,18452,10558
38538,18416,10483
38483,18378,10409
38421,18337,10334
38355,18296,10257
38285,18255,10177
38211,18213,10092
38138,18170,10004
38067,18126,9917
37995,18080,9831
37920,18031,9741
37840,17980,9648
37757,17930,9554
37669,17878,9458
37576,17823,9357
37483,17767,9249
37394,17712,9139
37304,17654,9026
37214,17596,8910
37125,17538,8794
37038,17480,8678
36950,17421,8562
36860,17363,8447
36771,17305,8335
36683,17248,8225
36598,17193,8117
36516,17140,8015
36441,17091,7920
36377,17047,7835
36322,17009,7763
36280,16981,7711
36267,16974,7695
36291,16993,7728
36355,17042,7823
36473,17128,7994
36657,17258,8251
36912,17432,8594
37229,17645,9017
37599,17891,9509
38007,18162,10049
38434,18445,10618
38863,18732,11195
39289,19015,11762
39704,19288,12305
40096,19543,12813
40460,19779,13283
40798,19998,13713
41107,20199,14103
41383,20381,14458
41625,20542,14778
41839,20683,15062
42029,20808,15310
42194,20916,15523
42333,21007,15697
42449,21083,15833
42541,21145,15939
42606,21192,16019
42649,21223,16076
42676,21243,16110
42689,21251,16122
42687,21246,16114
42670,21226,16083
42640,21194,16031
42599,21156,15966
42546,21112,15893
42483,21060,15813
42416,21005,15730
42350,20951,15645
42283,20898,15559
42211,20845,15469
42139,20795,15377
42065,20745,15281
41985,20691,15179
41899,20634,15070
41812,20577,14959
41728,20519,14845
41645,20460,14729
41555,20398,14606
41461,20333,14471
41363,20263,14330
41259,20189,14186
41150,20111,14039
41039,20035,13894
40929,19964,13755
40822,19898,13625
40728,19840,13506
40650,19792,13403
40589,19758,13321
40542,19736,13256
40509,19722,13209
40493,19716,13183
40494,19719,13183
40512,19729,13203
40545,19748,13240
40591,19776,13295
40645,19810,13366
40702,19849,13447
40767,19892,13536
40843,19940,13635
40923,19991,13738
41002,20046,13845
41084,20105,13954
41168,20165,14061
41246,20221,14160
41313,20270,14247
41373,20309,14320
41429,20341,14384
41474,20365,14441
41508,20385,14487
41535,20403,14519
41556,20419,14539
41567,20427,14548
41567,20427,14544
41558,20418,14527
41538,20400,14497
41506,20375,14453
41467,20344,14395
41421,20309,14328
41366,20272,14251
41303,20232,14163
41234,20188,14071
41164,20141,13978
41091,20092,13886
41014,20039,13794
40933,19984,13701
40855,19931,13606
40779,19878,13510
40701,19826,13410
40619,19773,13307
40537,19718,13200
40456,19659,13087
40376,19602,12970
40299,19547,12856
40224,19495,12747
40150,19445,12642
40075,19397,12538
39998,19349,12433
39921,19302,12330
39842,19255,12231
39763,19207,12135
39686,19158,12043
39616,19110,11956
39553,19063,11874
39497,19017,11793
39443,18972,11715
39389,18928,11642
39334,18886,11573
39275,18847,11508
39218,18812,11446
39164,18779,11387
39111,18748,11330
39058,18718,11275
39009,18691,11221
38969,18670,11174
38934,18655,11133
38905,18644,11093
38878,18635,11054
38852,18624,11016
38821,18612,10981
38793,18599,10948
38772,18584,10915
38755,18567,10883
38738,18549,10854
38720,18530,10826
38703,18514,10798
38685,18499,10776
38665,18485,10757
38644,18475,10735
38630,18471,10712
38622,18469,10694
38617,18467,10680
38609,18466,10669
38600,18466,10659
38592,18467,10647
38582,18463,10626
38569,18455,10601
38557,18445,10576
38544,18431,10550
38523,18413,10520
38493,18392,10486
38461,18368,10452
38426,18343,10420
38389,18316,10386
38350,18287,10346
38313,18259,10302
38277,18234,10254
38242,18211,10203
38207,18189,10146
38168,18166,10091
38127,18143,10040
38087,18118,9987
38048,18091,9926
38005,18059,9862
37954,18023,9796
37901,17986,9732
37851,17950,9670
37801,17913,9603
37746,17875,9525
37685,17834,9442
37620,17793,9357
37552,17751,9269
37480,17708,9178
37409,17664,9086
37341,17623,8998
37275,17584,8917
37209,17546,8840
37146,17511,8764
37092,17481,8692
37052,17456,8632
37025,17438,8592
37014,17433,8580
37029,17446,8605
37085,17485,8679
37193,17555,8816
37355,17663,9028
37569,17810,9318
37831,17991,9674
38135,18200,10084
38476,18434,10537
38844,18686,11020
39227,18946,11518
39612,19208,12019
39992,19463,12512
40366,19709,12993
40725,19944,13456
41063,20165,13892
41382,20372,14297
41682,20563,14672
41957,20734,15015
42200,20882,15321
42410,21009,15592
42594,21120,15832
42756,21216,16042
42894,21299,16220
43007,21368,16361
43095,21422,16473
43161,21461,16559
43210,21489,16615
43243,21510,16644
43261,21521,16651
43261,21520,16640
43246,21506,16611
43220,21481,16567
43183,21449,16511
43133,21412,16444
43076,21374,16368
43020,21334,16286
42962,21291,16201
42900,21243,16111
42835,21191,16018
42771,21137,15926
42702,21081,15833
42628,21023,15737
42553,20968,15635
42478,20915,15530
42398,20862,15425
42314,20809,15314
42227,20753,15197
42136,20694,15073
42041,20633,14944
41945,20570,14816
41853,20506,14693
41765,20443,14575
41679,20382,14461
41597,20326,14353
41522,20277,14256
41459,20238,14176
41407,20207,14111
41367,20185,14064
41348,20178,14038
41352,20185,14035
41370,20203,14051
41396,20225,14083
41435,20255,14132
41487,20292,14197
41543,20332,14271
41601,20373,14348
41664,20416,14429
41735,20460,14515
41809,20505,14607
41886,20547,14701
41966,20588,14797
42047,20631,14893
42121,20674,14984
42187,20715,15064
42245,20755,15134
42293,20792,15195
42332,20823,15247
42362,20845,15284
42386,20860,15304
42400,20869,15312
42404,20868,15309
42398,20859,15294
42387,20846,15267
42367,20826,15227
42336,20799,15178
42299,20769,15122
42258,20738,15062
42210,20703,14997
42151,20664,14926
42082,20622,14846
42009,20579,14759
41937,20538,14671
41864,20496,14580
41792,20450,14482
41722,20402,14379
41651,20350,14276
41574,20294,14173
41495,20237,14070
41413,20183,13968
41333,20134,13873
41257,20087,13785
41186,20043,13699
41119,20002,13615
41052,19964,13533
40982,19922,13451
40914,19877,13369
40855,19834,13290
40804,19791,13214
40752,19746,13141
40702,19701,13071
40655,19660,13006
40610,19623,12945
40567,19589,12887
40525,19558,12829
40480,19532,12774
40434,19511,12723
40391,19492,12672
40355,19471,12622
40325,19450,12576
40299,19431,12533
40271,19411,12490
40242,19389,12449
40211,19367,12408
40180,19344,12369
40150,19321,12326
40125,19297,12281
40100,19274,12238
40074,19254,12201
40053,19239,12170
40036,19227,12141
40018,19216,12113
40000,19208,12086
39984,19204,12063
39968,19201,12041
39955,19195,12021
39940,19186,12004
39925,19176,11990
39911,19169,11977
39902,19166,11964
39892,19164,11947
39877,19157,11920
39858,19145,11885
39837,19129,11848
39809,19109,11810
39776,19087,11772
39743,19066,11737
39711,19046,11704
39683,19029,11671
39655,19017,11637
39628,19008,11597
39599,18998,11551
39566,18983,11501
39534,18963,11447
39500,18938,11395
39463,18911,11344
39422,18883,11294
39380,18854,11244
39336,18821,11194
39287,18783,11141
39235,18742,11082
39180,18702,11016
39122,18663,10942
39055,18620,10860
38986,18573,10772
38919,18524,10683
38853,18475,10591
38785,18423,10496
38714,18370,10401
38642,18322,10311
38573,18279,10227
38510,18241,10145
38454,18204,10059
38404,18170,9978
38354,18140,9908
38304,18115,9846
38262,18094,9794
38233,18078,9757
38215,18073,9741
38216,18081,9757
38248,18110,9817
38323,18168,9932
38448,18258,10111
38630,18384,10361
38868,18546,10682
39156,18742,11070
39485,18967,11510
39845,19212,11988
40231,19473,12489
40631,19741,13000
41029,20011,13512
41419,20276,14016
41799,20532,14504
42164,20776,14973
42512,21004,15420
42840,21215,15842
43146,21411,16235
43429,21593,16599
43686,21759,16931
43920,21908,17227
44133,22039,17488
44321,22154,17717
44482,22252,17917
44620,22336,18086
44732,22402,18223
44821,22453,18332
44891,22492,18418
44946,22521,18485
44988,22544,18532
45012,22557,18556
45019,22560,18557
45015,22555,18543
45008,22546,18518
44994,22534,18485
44973,22516,18445
44949,22497,18400
44924,22478,18351
44895,22455,18297
44859,22425,18238
44826,22395,18183
44797,22368,18139
44765,22341,18105
44733,22316,18074
44705,22293,18042
44678,22271,18008
44649,22248,17971
44614,22224,17923
44575,22200,17861
44532,22176,17792
44483,22149,17719
44430,22117,17640
44374,22083,17556
44312,22043,17469
44244,22000,17383
44172,21956,17296
44102,21914,17212
44037,21873,17133
43975,21833,17060
43922,21799,16991
43883,21772,16931
43856,21750,16885
43839,21733,16855
43831,21726,16842
43834,21727,16843
43846,21733,16854
43863,21740,16873
43884,21752,16900
43910,21771,16937
43941,21792,16984
43976,21815,17034
44015,21842,17086
44058,21871,17140
44100,21898,17195
44141,21919,17248
44182,21938,17300
44221,21958,17351
44254,21975,17401
44280,21989,17444
44303,22001,17476
44326,22012,17501
44344,22022,17519
44354,22028,17526
44358,22027,17519
44354,22022,17500
44341,22013,17474
44323,22002,17440
44300,21988,17396
44270,21971,17342
44231,21949,17284
44184,21923,17221
44134,21893,17151
44078,21856,17075
44017,21811,16995
43957,21762,16914
43901,21713,16831
43844,21660,16749
43779,21603,16666
43708,21543,16579
43638,21485,16493
43570,21435,16409
43500,21389,16326
43429,21346,16243
43361,21307,16161
43293,21271,16079
43222,21233,15993
43152,21192,15905
43084,21150,15814
43017,21108,15721
42951,21062,15630
42887,21018,15542
42830,20975,15458
42773,20931,15378
42715,20887,15298
42659,20848,15219
42605,20814,15141
42550,20780,15064
42492,20744,14991
42437,20706,14922
42389,20671,14857
42343,20639,14796
42298,20607,14739
42257,20575,14682
42219,20547,14629
42182,20518,14579
42141,20486,14530
42099,20453,14480
42060,20425,14433
42026,20403,14392
41993,20386,14357
41964,20371,14324
41937,20356,14293
41907,20342,14263
41875,20329,14232
41844,20318,14199
41818,20310,14162
41792,20300,14121
41765,20286,14078
41740,20269,14035
41716,20251,13994
41691,20228,13954
41664,20202,13913
41640,20180,13874
41613,20159,13835
41580,20134,13792
41542,20108,13746
41508,20087,13704
41472,20068,13666
41432,20046,13625
41390,20025,13578
41352,20009,13534
41316,19993,13491
41277,19971,13443
41238,19945,13390
41205,19921,13339
41174,19897,13291
41135,19871,13242
41090,19841,13192
41043,19810,13140
40991,19778,13086
40934,19744,13030
40877,19710,12970
40823,19676,12906
40769,19642,12839
40712,19608,12765
40652,19574,12687
40592,19540,12608
40534,19505,12530
40481,19468,12450
40431,19431,12367
40380,19392,12286
40323,19347,12205
40259,19298,12124
40192,19248,12038
40119,19198,11946
40045,19149,11852
39971,19101,11754
39900,19054,11653
39829,19007,11553
39756,18957,11455
39682,18903,11358
39608,18850,11264
39534,18799,11173
39461,18752,11084
39398,18713,11004
39350,18687,10940
39319,18672,10900
39310,18671,10892
39329,18691,10925
39384,18735,11010
39483,18810,11157
39629,18922,11371
39826,19068,11650
40073,19246,11991
40365,19449,12387
40690,19672,12825
41039,19911,13293
41410,20165,13779
41792,20425,14276
42172,20682,14769
42544,20930,15249
42905,21169,15709
43249,21393,16143
43571,21600,16548
43868,21789,16923
44142,21961,17272
44390,22119,17595
44613,22265,17889
44816,22394,18152
44995,22508,18382
45146,22605,18580
45269,22687,18742
45367,22757,18866
45447,22815,18960
45510,22859,19033
45555,22888,19085
45584,22906,19117
45597,22912,19127
45594,22908,19119
45584,22898,19102
45572,22885,19078
45559,22866,19049
45539,22844,19012
45513,22820,18970
45485,22799,18927
45453,22778,18882
45416,22755,18831
45375,22730,18774
45336,22704,18715
45299,22678,18656
45259,22649,18595
45218,22617,18535
45182,22587,18479
45146,22557,18428
45105,22524,18378
45061,22490,18328
45016,22459,18276
44965,22424,18218
44907,22384,18149
44843,22340,18069
44778,22291,17983
44712,22237,17891
44645,22180,17797
44580,22124,17701
44522,22076,17610
44474,22035,17533
44434,21999,17473
44402,21969,17425
44376,21948,17388
44353,21936,17364
44336,21933,17350
44327,21938,17345
44326,21952,17350
44333,21973,17364
44345,21997,17386
44368,22024,17416
44399,22050,17453
44431,22073,17494
44466,22097,17535
44507,22124,17576
44547,22151,17615
44582,22173,17654
44612,22188,17691
44641,22202,17727
44663,22212,17761
44676,22214,17786
44682,22213,17800
44686,22213,17806
44687,22214,17806
44680,22209,17796
44670,22200,17778
44661,22189,17755
44644,22172,17726
44616,22149,17692
44578,22122,17651
44533,22091,17605
44479,22054,17550
44414,22013,17484
44341,21970,17406
44264,21924,17317
44182,21874,17218
44097,21822,17111
44015,21771,16999
43937,21722,16891
43862,21674,16786
43791,21622,16683
43720,21567,16577
43645,21508,16469
43567,21447,16360
43485,21385,16252
43402,21325,16147
43323,21266,16044
43245,21210,15943
43164,21155,15843
43080,21098,15740
42993,21042,15633
42907,20990,15527
42825,20940,15424
42746,20892,15324
42670,20845,15230
42595,20800,15142
42525,20754,15060
42464,20711,14983
42409,20671,14908
42351,20634,14835
42293,20601,14761
42240,20571,14688
42193,20543,14616
42147,20517,14551
42103,20494,14492
42065,20471,14440
42029,20445,14393
41991,20416,14348
41951,20389,14301
41915,20367,14254
41881,20349,14209
41846,20330,14161
41813,20306,14115
41788,20283,14072
41766,20261,14032
41740,20238,13994
41711,20218,13959
41678,20200,13926
41640,20183,13891
41597,20164,13848
41556,20145,13804
41517,20125,13760
41480,20101,13720
41444,20073,13681
41408,20044,13638
41372,20016,13594
41334,19990,13546
41293,19965,13492
41252,19941,13434
41211,19918,13377
41169,19891,13318
41125,19863,13257
41081,19836,13197
41036,19809,13139
40989,19780,13080
40937,19749,13017
40879,19718,12947
40816,19684,12873
40749,19647,12795
40685,19609,12716
40627,19573,12640
40574,19537,12569
40524,19502,12504
40474,19467,12440
40423,19432,12379
40372,19399,12319
40314,19362,12252
40250,19321,12178
40188,19277,12102
40130,19236,12028
40070,19193,11956
40004,19147,11879
39932,19099,11797
39857,19049,11710
39779,18999,11617
39702,18952,11520
39627,18906,11423
39553,18859,11326
39482,18811,11226
39409,18758,11119
39329,18703,11009
39238,18645,10896
39142,18583,10780
39049,18523,10665
38962,18467,10554
38875,18414,10447
38788,18359,10338
38702,18305,10230
38620,18255,10125
38546,18206,10025
38477,18157,9927
38412,18111,9839
38352,18073,9767
38301,18045,9714
38268,18030,9691
38269,18036,9710
38310,18068,9782
38398,18132,9920
38544,18235,10129
38752,18381,10417
39019,18565,10780
39338,18781,11208
39698,19027,11681
40087,19295,12185
40491,19575,12711
40896,19855,13241
41294,20127,13759
41678,20385,14258
42042,20627,14731
42379,20848,15174
42691,21053,15583
42981,21245,15959
43247,21424,16305
43483,21585,16618
43696,21728,16896
43888,21856,17140
44052,21967,17351
44191,22061,17529
44310,22139,17678
44409,22203,17798
44482,22250,17889
44535,22283,17956
44573,22303,17998
44595,22307,18019
44599,22300,18022
44587,22283,18007
44562,22260,17974
44530,22232,17930
44490,22201,17877
44443,22166,17809
44390,22128,17730
44335,22088,17647
44276,22047,17567
44213,22002,17485
44149,21953,17404
44087,21905,17327
44025,21860,17254
43962,21815,17180
43901,21771,17105
43842,21730,17032
43780,21688,16958
43716,21647,16879
43651,21606,16795
43583,21561,16703
43507,21507,16605
43428,21448,16500
43347,21388,16391
43259,21330,16282
43166,21272,16171
43076,21215,16059
42995,21160,15954
42920,21107,15860
42852,21057,15773
42790,21013,15693
42738,20978,15624
42697,20950,15571
42666,20929,15535
42651,20917,15515
42655,20919,15513
42670,20931,15528
42691,20952,15554
42719,20976,15590
42755,21005,15633
42796,21036,15685
42842,21067,15743
42890,21099,15802
42941,21131,15865
42990,21164,15929
43035,21197,15991
43078,21229,16046
43116,21256,16094
43149,21278,16137
43175,21294,16172
43195,21308,16201
43210,21320,16225
43217,21325,16240
43218,21323,16243
43213,21318,16235
43200,21307,16214
43179,21288,16184
43151,21263,16145
43120,21236,16097
43083,21208,16040
43036,21177,15970
42979,21142,15891
42917,21105,15809
42852,21066,15724
42778,21021,15637
42698,20971,15546
42618,20917,15449
42539,20861,15349
42456,20805,15250
42372,20750,15151
42292,20696,15051
42215,20639,14950
42136,20579,14849
42055,20518,14746
41973,20462,14643
41889,20409,14542
41801,20355,14440
41716,20302,14333
41638,20252,14230
41563,20201,14132
41487,20148,14035
41417,20098,13943
41355,20054,13859
41293,20012,13777
41228,19971,13696
41165,19930,13616
41104,19890,13538
41042,19850,13465
40983,19811,13394
40930,19774,13323
40880,19741,13255
40834,19711,13189
40790,19685,13127
40748,19662,13071
40710,19641,13019
40671,19620,12968
40633,19598,12922
40598,19578,12881
40565,19559,12847
40529,19541,12817
40493,19523,12788
40463,19508,12754
40437,19491,12720
40412,19471,12688
40388,19450,12656
40366,19431,12623
40341,19413,12588
40311,19392,12547
40277,19372,12505
40247,19354,12466
40219,19335,12425
40190,19313,12383
40160,19293,12342
40132,19275,12304
40102,19258,12269
40068,19238,12230
40033,19217,12186
40002,19199,12143
39971,19180,12099
39935,19157,12049
39897,19131,11995
39861,19105,11942
39826,19078,11895
39790,19052,11851
39752,19026,11806
39714,19003,11760
39677,18978,11710
39634,18951,11652
39589,18923,11591
39546,18896,11535
39505,18871,11486
39463,18846,11438
39422,18820,11386
39378,18790,11330
39333,18754,11270
39286,18718,11206
39239,18686,11141
39188,18656,11072
39134,18624,11000
39083,18591,10927
39036,18558,10857
38989,18524,10789
38935,18487,10717
38874,18447,10639
38812,18408,10559
38745,18366,10474
38672,18319,10383
38601,18270,10286
38536,18219,10188
38472,18168,10092
38404,18116,9995
38332,18066,9901
38263,18021,9814
38197,17979,9731
38130,17936,9653
38066,17897,9582
38007,17866,9520
37951,17837,9461
37895,17806,9402
37846,17780,9352
37813,17765,9326
37805,17766,9332
37831,17789,9380
37903,17843,9482
38026,17934,9649
38202,18059,9884
38429,18219,10186
38701,18409,10551
39012,18624,10968
39355,18859,11428
39719,19109,11915
40097,19367,12414
40478,19624,12913
40853,19873,13402
41220,20110,13873
41577,20339,14325
41919,20559,14753
42236,20767,15155
42525,20958,15527
42788,21132,15868
43025,21287,16174
43231,21420,16441
43406,21530,16668
43557,21624,16862
43684,21706,17027
43786,21775,17162
43863,21831,17264
43920,21874,17332
43959,21903,17370
43981,21916,17386
43990,21917,17386
43987,21908,17369
43970,21890,17339
43941,21865,17300
43905,21837,17251
43866,21807,17195
43821,21772,17133
43773,21732,17068
43723,21692,17001
43672,21651,16931
43614,21610,16856
43547,21566,16777
43477,21518,16694
43408,21467,16606
43341,21415,16517
43275,21363,16425
43207,21310,16329
43135,21256,16226
43056,21197,16119
42970,21135,16009
42879,21070,15896
42783,21006,15778
42684,20941,15654
42587,20878,15526
42498,20816,15395
42419,20756,15271
42347,20701,15161
42281,20655,15064
42227,20620,14985
42187,20597,14932
42160,20582,14899
42144,20576,14882
42143,20581,14880
42156,20593,14895
42180,20609,14929
42215,20630,14978
42261,20657,15039
42317,20690,15111
42380,20731,15193
42448,20776,15281
42519,20826,15377
42588,20878,15478
42653,20930,15579
42717,20979,15674
42782,21023,15760
42841,21060,15835
42886,21089,15897
42924,21113,15946
42955,21136,15984
42979,21156,16013
42993,21171,16026
42996,21177,16023
42988,21173,16006
42968,21159,15977
42936,21133,15935
42895,21098,15879
42848,21058,15813
42793,21015,15742
42728,20971,15662
42654,20922,15571
42570,20868,15472
42483,20809,15367
42398,20749,15258
42315,20690,15145
42232,20633,15029
42145,20575,14911
42055,20516,14793
41965,20456,14677
41872,20395,14563
41776,20334,14451
41680,20275,14338
41588,20219,14226
41496,20162,14118
41403,20105,14009
41311,20048,13901
41228,19995,13798
41155,19945,13701
41084,19895,13608
41012,19844,13515
40941,19795,13424
40873,19745,13334
40806,19692,13244
40741,19639,13156
40678,19589,13071
40617,19542,12988
40555,19500,12909
40497,19463,12834
40442,19429,12762
40383,19393,12693
40318,19357,12624
40255,19322,12555
40198,19290,12487
40150,19262,12420
40105,19235,12355
40062,19207,12291
40021,19181,12234
39984,19155,12186
39950,19130,12142
39919,19107,12098
39889,19087,12057
39856,19067,12018
39823,19048,11981
39792,19032,11949
39767,19020,11922
39744,19007,11901
39722,18996,11884
39703,18987,11868
39688,18981,11851
39670,18972,11831
39652,18961,11810
39640,18955,11791
39632,18951,11774
39623,18948,11755
39612,18941,11731
39602,18930,11703
39587,18913,11670
39565,18894,11632
39544,18876,11593
39528,18861,11556
39513,18846,11519
39491,18827,11478
39465,18807,11435
39440,18789,11392
39414,18771,11352
39386,18750,11313
39358,18729,11272
39328,18708,11229
39294,18685,11185
39254,18660,11138
39209,18634,11088
39165,18608,11039
39121,18580,10989
39073,18548,10937
39026,18516,10881
38983,18484,10822
38943,18455,10761
38901,18428,10696
38854,18399,10626
38804,18370,10555
38754,18341,10485
38703,18311,10414
38652,18279,10341
38602,18245,10269
38549,18207,10199
38492,18166,10126
38430,18126,10051
38367,18089,9977
38301,18051,9900
38230,18009,9818
38159,17963,9735
38090,17917,9654
38023,17872,9576
37961,17829,9503
37908,17792,9437
37864,17760,9378
37830,17736,9333
37813,17726,9314
37824,17737,9331
37868,17771,9393
37957,17831,9508
38101,17927,9690
38303,18066,9953
38562,18246,10296
38872,18457,10707
39226,18694,11167
39612,18952,11662
40021,19223,12181
40437,19501,12714
40851,19781,13246
41259,20057,13771
41654,20323,14282
42028,20573,14767
42379,20802,15223
42712,21014,15652
43023,21214,16054
43309,21399,16426
43571,21568,16761
43810,21720,17059
44024,21858,17325
44216,21982,17559
44385,22090,17756
44530,22181,17921
44650,22258,18060
44749,22321,18175
44833,22372,18267
44900,22409,18337
44942,22430,18381
44962,22437,18403
44965,22433,18403
44956,22418,18386
44934,22394,18356
44900,22367,18317
44862,22341,18275
44827,22313,18232
44792,22282,18187
44760,22255,18142
44735,22231,18101
44710,22211,18061
44679,22189,18020
44645,22165,17975
44615,22142,17927
44589,22119,17878
44558,22095,17825
44525,22067,17766
44493,22036,17701
44456,22001,17634
44412,21962,17562
44360,21922,17485
44304,21884,17404
44242,21845,17317
44176,21804,17227
44116,21767,17138
44067,21737,17058
44023,21709,16988
43981,21680,16925
43946,21654,16870
43917,21633,16827
43890,21617,16798
43867,21605,16780
43852,21600,16771
43849,21602,16772
43858,21607,16781
43873,21613,16798
43899,21625,16826
43936,21647,16865
43982,21673,16914
44032,21702,16973
44090,21737,17041
44152,21780,17116
44216,21827,17198
44281,21878,17283
44345,21929,17366
44406,21979,17443
44460,22024,17509
44506,22061,17563
44546,22090,17607
44579,22109,17641
44601,22117,17664
44612,22118,17673
44616,22113,17670
44613,22104,17662
44606,22094,17651
44595,22084,17634
44577,22071,17611
44552,22056,17580
44520,22034,17540
44481,22005,17487
44438,21971,17424
44396,21935,17356
44350,21893,17281
44298,21848,17201
44240,21803,17116
44179,21759,17030
44116,21714,16948
44052,21671,16865
43984,21631,16780
43915,21589,16696
43846,21548,16614
43780,21507,16531
43718,21465,16449
43656,21420,16368
43590,21371,16282
43526,21323,16193
43466,21277,16104
43404,21230,16019
43340,21182,15938
43276,21133,15854
43214,21088,15768
43149,21045,15683
43085,21006,15601
43027,20970,15525
42971,20936,15451
42913,20901,15377
42849,20865,15302
42785,20830,15229
42725,20796,15158
42668,20763,15086
42612,20730,15011
42562,20698,14941
42518,20667,14879
42475,20636,14822
42434,20606,14769
42397,20579,14720
42362,20555,14674
42327,20534,14629
42290,20513,14583
42253,20492,14536
42216,20474,14493
42181,20456,14454
42146,20436,14410
42113,20413,14359
42078,20386,14305
42038,20357,14250
41997,20326,14195
41955,20297,14141
41915,20269,14091
41876,20242,14047
41840,20216,14007
41812,20194,13969
41789,20175,13934
41767,20158,13898
41743,20141,13861
41713,20123,13823
41673,20102,13778
41627,20076,13726
41578,20044,13668
41527,20009,13605
41474,19972,13538
41421,19935,13470
41371,19903,13400
41323,19873,13332
41274,19839,13266
41224,19803,13201
41173,19768,13134
41123,19736,13068
41072,19700,13003
41022,19661,12939
40973,19623,12877
40923,19586,12816
40866,19549,12753
40802,19510,12686
40739,19473,12615
40679,19439,12543
40618,19406,12468
40558,19372,12390
40499,19338,12312
40443,19302,12234
40388,19263,12153
40333,19219,12071
40274,19170,11987
40208,19119,11901
40133,19066,11809
40054,19012,11708
39971,18957,11604
39884,18901,11498
39795,18846,11390
39706,18793,11278
39614,18740,11163
39521,18685,11048
39428,18626,10935
39341,18567,10825
39262,18511,10723
39189,18463,10631
39121,18420,10544
39059,18384,10463
39007,18356,10396
38972,18343,10357
38967,18348,10359
39005,18379,10411
39093,18443,10525
39234,18539,10712
39430,18671,10972
39684,18841,11308
39992,19048,11718
40341,19285,12186
40721,19542,12690
41120,19812,13215
41524,20087,13746
41921,20360,14272
42306,20627,14778
42678,20885,15262
43032,21128,15719
43361,21349,16142
43667,21550,16536
43953,21735,16903
44216,21905,17242
44451,22058,17549
44659,22195,17820
44843,22317,18054
45000,22422,18252
45129,22507,18413
45232,22573,18540
45312,22622,18637
45370,22656,18708
45409,22675,18752
45431,22680,18771
45439,22672,18767
45432,22656,18742
45410,22634,18700
45375,22607,18647
45331,22574,18585
45275,22536,18519
45210,22499,18451
45145,22465,18379
45084,22431,18306
45029,22394,18231
44975,22354,18151
44922,22316,18069
44875,22279,17987
44829,22240,17905
44783,22194,17823
44736,22147,17744
44686,22101,17667
44625,22054,17585
44555,22006,17496
44481,21954,17402
44405,21899,17305
44323,21839,17203
44233,21775,17094
44140,21713,16980
44046,21653,16865
43956,21595,16753
43876,21539,16641
43803,21486,16533
43736,21437,16438
43673,21392,16358
43618,21352,16293
43574,21325,16244
43543,21309,16212
43525,21300,16192
43514,21295,16180
43512,21298,16178
43521,21308,16185
43540,21321,16202
43564,21338,16230
43594,21359,16270
43628,21383,16317
43664,21408,16366
43699,21433,16414
43732,21458,16462
43763,21480,16509
43795,21501,16554
43829,21522,16596
43865,21541,16634
43896,21555,16668
43918,21562,16695
43931,21564,16713
43937,21564,16722
43930,21561,16723
43912,21553,16711
43890,21543,16689
43867,21532,16659
43838,21517,16622
43801,21494,16570
43755,21462,16504
43701,21422,16429
43639,21375,16348
43569,21322,16260
43495,21269,16166
43416,21217,16068
43332,21164,15967
43245,21109,15859
43158,21053,15747
43071,20995,15635
42977,20933,15517
42877,20866,15390
42776,20799,15256
42677,20731,15120
42576,20661,14984
42473,20590,14848
42369,20519,14712
42270,20449,14582
42174,20381,14456
42082,20315,14334
41993,20252,14216
41908,20193,14102
41827,20138,13995
41748,20086,13892
41670,20037,13791
41592,19987,13693
41517,19940,13601
41447,19900,13512
41385,19864,13428
41323,19826,13348
41258,19783,13268
41191,19739,13187
41124,19695,13109
41058,19649,13032
40990,19604,12956
40925,19560,12880
40861,19518,12807
40793,19475,12738
40725,19435,12669
40666,19400,12598
40613,19373,12530
40565,19350,12466
40521,19327,12405
40481,19304,12346
40443,19280,12288
40404,19253,12227
40362,19223,12167
40323,19194,12111
40287,19167,12061
40252,19140,12013
40219,19114,11966
40188,19092,11921
40156,19071,11877
40118,19050,11832
40076,19025,11786
40034,19001,11740
39992,18978,11696
39946,18955,11652
39903,18931,11605
39867,18911,11558
39833,18894,11512
39798,18876,11467
39763,18856,11422
39732,18835,11375
39699,18811,11328
39658,18783,11280
39612,18750,11225
39564,18716,11162
39511,18680,11095
39453,18643,11024
39396,18608,10948
39341,18574,10874
39285,18540,10801
39226,18502,10722
39164,18460,10640
39098,18416,10556
39027,18372,10468
38953,18324,10377
38878,18273,10280
38800,18217,10178
38716,18157,10072
38625,18097,9961
38532,18037,9846
38443,17977,9731
38354,17917,9613
38260,17856,9495
38165,17799,9383
38073,17746,9276
37979,17693,9165
37884,17638,9050
37790,17581,8933
37695,17523,8817
37598,17461,8700
37500,17396,8583
37409,17333,8473
37333,17279,8374
37274,17238,8294
37238,17212,8242
37235,17207,8229
37272,17231,8272
37359,17294,8387
37509,17400,8587
37727,17554,8880
38013,17754,9266
38359,17995,9735
38756,18269,10271
39196,18569,10854
39658,18884,11462
40123,19200,12074
40582,19512,12677
41030,19815,13259
41456,20101,13810
41853,20366,14322
42224,20609,14795
42570,20830,15228
42886,21026,15624
43165,21202,15982
43412,21358,16299
43629,21494,16573
43815,21612,16810
43973,21712,17011
44107,21797,17181
44220,21868,17321
44307,21924,17430
44365,21964,17506
44401,21988,17551
44420,22000,17572
44425,22002,17573
44416,21992,17552
44397,21973,17512
44367,21946,17457
44326,21911,17389
44272,21866,17313
44213,21816,17230
44150,21762,17141
44079,21706,17045
44005,21649,16946
43931,21595,16853
43859,21545,16767
43790,21500,16680
43722,21457,16589
43657,21414,16496
43591,21371,16401
43521,21324,16302
43446,21271,16200
43365,21209,16089
43276,21140,15966
43179,21068,15833
43073,20993,15692
42960,20917,15549
42845,20844,15410
42732,20774,15278
42624,20710,15153
42523,20653,15035
42433,20602,14926
42356,20554,14829
42292,20515,14744
42242,20485,14678
42204,20462,14633
42177,20446,14605
42166,20439,14594
42173,20442,14603
42194,20453,14631
42227,20471,14675
42276,20500,14736
42337,20540,14813
42402,20588,14899
42470,20637,14986
42540,20685,15069
42611,20732,15149
42677,20775,15227
42738,20816,15301
42794,20856,15369
42843,20892,15430
42882,20921,15481
42911,20945,15525
42931,20967,15562
42943,20984,15588
42947,20992,15599
42939,20990,15592
42924,20982,15576
42905,20968,15557
42881,20947,15527
42850,20919,15479
42811,20887,15414
42761,20849,15339
42703,20804,15255
42640,20757,15165
42574,20707,15069
42501,20653,14966
42421,20593,14854
42336,20529,14736
42251,20465,14618
42163,20401,14503
42071,20337,14386
41981,20275,14268
41894,20216,14154
41808,20159,14044
41717,20101,13932
41623,20043,13815
41528,19984,13702
41433,19927,13592
41338,19870,13481
41247,19811,13368
41160,19750,13257
41073,19690,13151
40989,19634,13048
40910,19584,12944
40834,19535,12841
40755,19488,12740
40676,19443,12641
40600,19398,12544
40526,19354,12447
40451,19307,12351
40377,19259,12257
40308,19214,12166
40247,19174,12079
40189,19135,11995
40133,19094,11913
40079,19053,11835
40026,19014,11764
39972,18975,11696
39916,18937,11629
39867,18904,11568
39823,18874,11516
39781,18848,11470
39741,18827,11425
39704,18808,11379
39667,18787,11334
39630,18763,11290
39597,18738,11248
39568,18716,11211
39539,18697,11180
39508,18678,11152
39479,18661,11124
39452,18645,11096
39424,18627,11068
39390,18604,11033
39350,18580,10996
39310,18554,10958
39269,18528,10917
39229,18504,10870
39191,18481,10818
39153,18457,10767
39112,18433,10717
39069,18407,10663
39024,18381,10606
38981,18357,10549
38941,18332,10495
38906,18306,10441
38873,18278,10386
38837,18248,10330
38790,18214,10270
38736,18179,10206
38681,18145,10135
38624,18113,10058
38558,18076,9973
38486,18035,9884
38414,17991,9795
38339,17946,9706
38257,17897,9610
38173,17843,9506
38086,17787,9400
37997,17729,9291
37907,17671,9177
37820,17615,9060
37734,17560,8946
37647,17505,8835
37556,17446,8723
37464,17387,8609
37373,17326,8495
37286,17267,8386
37206,17212,8286
37136,17165,8196
37081,17127,8123
37047,17102,8077
37042,17096,8072
37079,17121,8122
37172,17184,8243
37326,17291,8446
37547,17442,8737
37835,17639,9118
38181,17877,9582
38572,18146,10109
38993,18433,10677
39435,18734,11267
39887,19037,11862
40333,19334,12445
40763,19619,13003
41175,19892,13527
41561,20147,14014
41915,20381,14461
42237,20594,14871
42527,20787,15242
42788,20959,15575
43019,21113,15872
43220,21246,16128
43392,21358,16344
43535,21448,16520
43647,21517,16661
43734,21569,16770
43802,21608,16854
43854,21636,16917
43887,21650,16957
43903,21649,16971
43900,21633,16960
43881,21605,16929
43845,21568,16877
43798,21525,16812
43744,21481,16739
43675,21434,16655
43591,21384,16557
43503,21333,16449
43415,21282,16333
43329,21229,16213
43243,21173,16092
43158,21119,15972
43080,21066,15856
43004,21011,15745
42922,20950,15634
42835,20884,15522
42744,20816,15407
42647,20744,15284
42540,20671,15148
42427,20595,14999
42312,20516,14843
42196,20436,14686
42080,20358,14537
41968,20285,14397
41867,20218,14269
41774,20157,14155
41691,20104,14055
41622,20061,13967
41570,20027,13896
41536,20004,13848
41520,19993,13829
41524,19998,13836
41540,20014,13864
41564,20036,13905
41600,20065,13957
41649,20107,14023
41708,20157,14106
41772,20209,14198
41841,20264,14296
41918,20320,14395
42002,20379,14497
42087,20437,14600
42169,20489,14701
42249,20534,14790
42322,20573,14871
42382,20608,14945
42431,20641,15010
42472,20670,15064
42505,20694,15106
42525,20709,15133
42536,20717,15145
42539,20718,15142
42528,20710,15130
42504,20693,15107
42469,20667,15069
42426,20635,15016
42371,20594,14948
42304,20548,14867
42232,20498,14774
42163,20445,14672
42096,20388,14561
42022,20328,14446
41941,20267,14329
41855,20207,14211
41764,20148,14091
41668,20088,13966
41569,20028,13835
41471,19966,13706
41370,19902,13582
41268,19838,13461
41172,19774,13341
41078,19711,13225
40987,19647,13110
40899,19586,12998
40817,19530,12891
40738,19479,12787
40658,19430,12687
40582,19382,12589
40515,19336,12495
40450,19293,12405
40383,19252,12315
40316,19208,12222
40252,19162,12130
40193,19117,12043
40133,19073,11962
40072,19032,11881
40014,18991,11800
39957,18953,11723
39903,18919,11652
39856,18891,11590
39817,18866,11534
39777,18842,11482
39736,18818,11429
39696,18797,11376
39662,18777,11326
39632,18759,11285
39607,18745,11253
39584,18733,11225
39560,18721,11201
39533,18710,11178
39507,18698,11152
39484,18685,11125
39465,18670,11104
39446,18654,11089
39425,18639,11073
39406,18626,11054
39391,18614,11036
39377,18603,11017
39363,18594,10995
39351,18585,10969
39342,18573,10941
39330,18559,10910
39312,18546,10882
39292,18538,10859
39274,18530,10838
39255,18521,10818
39234,18510,10800
39209,18497,10782
39180,18480,10758
39144,18459,10721
39105,18433,10671
39066,18406,10619
39027,18379,10570
38982,18348,10515
38930,18312,10449
38875,18274,10378
38818,18235,10307
38752,18192,10231
38682,18145,10143
38609,18095,10046
38537,18048,9947
38464,18001,9848
38393,17953,9752
38326,17905,9659
38260,17859,9568
38192,17816,9480
38127,17777,9402
38071,17746,9338
38028,17725,9289
38003,17714,9259
38005,17718,9262
38046,17745,9315
38135,17803,9430
38278,17896,9617
38478,18029,9885
38735,18201,10230
39044,18409,10641
39395,18646,11106
39779,18907,11608
40187,19184,12135
40605,19469,12675
41022,19755,13215
41429,20034,13743
41822,20300,14251
42197,20550,14734
42550,20784,15188
42883,21005,15612
43190,21207,16006
43467,21387,16362
43715,21545,16678
43934,21686,16956
44127,21813,17200
44294,21921,17407
44436,22011,17580
44555,22082,17726
44648,22136,17843
44718,22175,17932
44768,22203,17994
44799,22220,18030
44812,22227,18041
44806,22223,18029
44786,22208,17998
44758,22184,17953
44722,22152,17894
44677,22112,17824
44626,22070,17747
44570,22027,17666
44513,21987,17584
44456,21949,17508
44400,21910,17437
44349,21873,17367
44299,21838,17295
44245,21803,17221
44189,21766,17145
44130,21727,17066
44067,21681,16982
43996,21630,16889
43917,21576,16788
43833,21517,16681
43746,21452,16566
43658,21382,16444
43566,21309,16317
43474,21239,16191
43385,21174,16070
43301,21116,15956
43224,21065,15851
43154,21021,15763
43093,20981,15693
43042,20948,15638
43009,20925,15594
42994,20914,15568
42992,20913,15560
43003,20920,15568
43030,20938,15593
43065,20965,15631
43103,20997,15680
43149,21033,15741
43204,21074,15811
43266,21118,15892
43331,21165,15979
43396,21211,16068
43461,21253,16155
43526,21293,16239
43587,21332,16315
43646,21369,16378
43703,21404,16434
43751,21435,16485
43787,21463,16531
43817,21485,16568
43841,21501,16592
43856,21507,16603
43859,21505,16601
43854,21493,16587
43839,21475,16563
43815,21452,16532
43785,21427,16492
43748,21399,16440
43702,21367,16377
43649,21329,16306
43585,21288,16227
43514,21244,16139
43440,21198,16046
43365,21149,15951
43288,21095,15852
43213,21039,15751
43139,20983,15648
43063,20928,15542
42986,20875,15437
42912,20823,15336
42834,20773,15238
42751,20723,15139
42667,20672,15040
42586,20623,14941
42509,20575,14841
42434,20525,14738
42363,20473,14635
42295,20424,14537
42227,20378,14445
42163,20336,14359
42107,20294,14276
42056,20251,14198
42006,20210,14128
41956,20171,14061
41904,20134,13996
41852,20103,13934
41801,20078,13875
41746,20054,13812
41691,20028,13746
41637,20000,13677
41585,19971,13612
41534,19941,13554
41487,19909,13500
41443,19876,13448
41400,19841,13397
41358,19806,13345
41321,19776,13289
41289,19750,13235
41256,19726,13183
41219,19700,13129
41183,19673,13076
41149,19645,13029
41115,19619,12987
41081,19594,12946
41050,19570,12904
41019,19547,12862
40989,19525,12820
40960,19506,12778
40931,19490,12734
40899,19473,12688
40867,19454,12644
40836,19435,12601
40810,19415,12559
40784,19394,12520
40755,19375,12481
40724,19357,12441
40693,19340,12404
40658,19322,12367
40615,19300,12329
40569,19273,12292
40527,19245,12256
40485,19217,12217
40440,19188,12170
40394,19160,12116
40348,19134,12059
40300,19108,12002
40253,19079,11945
40206,19049,11888
40162,19018,11830
40116,18987,11769
40065,18953,11700
40012,18918,11622
39959,18883,11539
39901,18843,11451
39832,18796,11358
39754,18745,11260
39674,18692,11158
39590,18638,11053
39503,18584,10945
39418,18531,10839
39337,18479,10736
39257,18428,10637
39181,18377,10542
39112,18330,10452
39051,18290,10369
39000,18257,10300
38964,18236,10252
38957,18236,10241
38989,18260,10281
39068,18315,10384
39202,18408,10564
39397,18543,10828
39652,18720,11174
39959,18934,11590
40310,19180,12062
40698,19448,12577
41111,19730,13123
41536,20022,13684
41964,20319,14246
42391,20611,14798
42806,20891,15331
43203,21157,15843
43580,21406,16329
43939,21639,16786
44276,21856,17210
44587,22054,17600
44872,22235,17951
45133,22402,18265
45364,22551,18544
45564,22681,18788
45739,22794,19000
45894,22892,19184
46027,22977,19341
46136,23045,19473
46224,23098,19577
46291,23135,19654
46334,23158,19703
46353,23168,19725
46353,23171,19725
46344,23167,19713
46327,23156,19693
46303,23139,19665
46276,23116,19628
46248,23089,19585
46219,23059,19539
46187,23027,19490
46155,22995,19439
46125,22966,19393
46095,22941,19349
46068,22919,19308
46046,22899,19272
46027,22881,19243
46005,22862,19218
45976,22841,19189
45944,22819,19156
45913,22798,19115
45880,22776,19062
45840,22752,18999
45795,22722,18927
45741,22684,18847
45678,22640,18761
45609,22596,18669
45539,22550,18574
45469,22504,18478
45402,22454,18384
45338,22403,18292
45275,22353,18202
45214,22305,18118
45159,22262,18043
45112,22228,17981
45076,22205,17935
45047,22188,17905
45026,22175,17884
45015,22171,17875
45021,22176,17881
45037,22190,17902
45059,22208,17933
45087,22229,17970
45126,22250,18015
45166,22271,18068
45204,22293,18121
45238,22318,18170
45268,22344,18218
45294,22370,18266
45319,22392,18309
45344,22412,18341
45370,22431,18365
45395,22446,18385
45412,22457,18399
45422,22463,18404
45421,22464,18401
45409,22456,18387
45392,22442,18361
45370,22422,18321
45341,22398,18272
45305,22365,18212
45260,22327,18143
45212,22288,18068
45160,22250,17995
45104,22208,17923
45044,22163,17846
44984,22118,17764
44920,22072,17676
44850,22024,17584
44775,21975,17489
44698,21927,17393
44618,21878,17296
44536,21827,17198
44454,21777,17098
44373,21728,16997
44291,21678,16895
44206,21624,16788
44120,21566,16677
44038,21506,16567
43964,21447,16460
43894,21389,16356
43825,21331,16254
43756,21277,16159
43687,21231,16070
43620,21188,15982
43555,21145,15894
43491,21101,15807
43427,21057,15723
43361,21014,15643
43296,20968,15560
43232,20922,15480
43168,20876,15402
43100,20830,15323
43034,20786,15244
42976,20748,15172
42924,20714,15106
42875,20681,15044
42830,20649,14987
42789,20618,14931
42746,20589,14874
42696,20560,14816
42644,20533,14755
42594,20507,14694
42543,20482,14635
42494,20457,14579
42451,20432,14526
42412,20407,14478
42372,20383,14430
42335,20358,14384
42301,20334,14340
42264,20309,14296
42223,20283,14247
42181,20256,14194
42139,20228,14141
42096,20201,14094
42053,20175,14049
42014,20146,14002
41976,20117,13954
41936,20088,13904
41897,20060,13853
41857,20033,13800
41812,20006,13747
41763,19980,13694
41717,19956,13641
41673,19935,13588
41630,19914,13536
41587,19891,13484
41541,19865,13428
41492,19837,13367
41444,19807,13305
41391,19773,13239
41336,19735,13168
41282,19696,13095
41227,19658,13021
41170,19619,12947
41112,19580,12872
41055,19541,12797
40999,19501,12719
40943,19456,12640
40885,19411,12558
40823,19368,12472
40754,19325,12381
40681,19281,12286
40604,19235,12184
40526,19189,12077
40443,19140,11970
40355,19088,11865
40265,19037,11760
40179,18988,11658
40096,18937,11558
40010,18883,11456
39921,18824,11350
39831,18763,11243
39742,18702,11137
39655,18644,11035
39578,18593,10941
39516,18553,10862
39473,18525,10806
39455,18514,10780
39470,18525,10792
39527,18563,10860
39635,18636,10997
39796,18747,11210
40016,18900,11500
40292,19094,11867
40617,19322,12303
40980,19575,12791
41374,19845,13316
41789,20126,13862
42212,20412,14415
42631,20694,14961
43042,20970,15495
43444,21236,16012
43830,21488,16505
44193,21725,16969
44536,21948,17403
44855,22157,17807
45146,22349,18178
45407,22521,18512
45643,22673,18807
45853,22808,19067
46036,22926,19289
46191,23028,19474
46323,23115,19627
46431,23186,19751
46513,23237,19846
46567,23271,19913
46599,23289,19956
46611,23295,19975
46606,23289,19970
46590,23271,19943
46564,23243,19897
46530,23209,19841
46489,23175,19781
46442,23141,19717
46395,23109,19653
46347,23078,19592
46301,23049,19534
46259,23021,19478
46218,22991,19420
46175,22958,19360
46132,22924,19302
46092,22892,19243
46054,22861,19180
46014,22832,19115
45965,22800,19051
45912,22765,18983
45859,22727,18912
45802,22683,18833
45740,22634,18746
45676,22582,18654
45614,22530,18558
45551,22477,18457
45480,22424,18352
45404,22370,18245
45329,22317,18144
45253,22266,18049
45179,22218,17960
45116,22176,17879
45066,22139,17811
45026,22108,17758
44996,22084,17718
44977,22068,17693
44965,22061,17683
44959,22063,17686
44961,22070,17700
44974,22084,17724
44994,22105,17755
45020,22128,17790
45050,22153,17824
45086,22179,17861
45126,22204,17903
45162,22227,17952
45195,22247,18001
45224,22264,18044
45248,22278,18080
45264,22290,18110
45274,22298,18133
45281,22303,18145
45279,22303,18148
45267,22295,18141
45251,22284,18125
45235,22271,18102
45211,22255,18069
45180,22236,18025
45145,22215,17971
45104,22191,17909
45057,22163,17841
45000,22128,17767
44936,22088,17685
44871,22042,17600
44802,21992,17512
44728,21938,17420
44652,21880,17326
44575,21822,17227
44495,21762,17124
44412,21705,17017
44328,21652,16911
44246,21601,16809
44163,21549,16706
44078,21495,16597
43992,21439,16481
43907,21378,16363
43821,21316,16244
43736,21253,16128
43652,21193,16014
43566,21136,15905
43479,21081,15802
43396,21028,15701
43318,20975,15602
43241,20923,15510
43161,20873,15423
43083,20823,15338
43010,20777,15255
42946,20735,15173
42883,20693,15089
42820,20656,15004
42764,20627,14920
42715,20598,14837
42663,20565,14754
42612,20530,14674
42565,20495,14603
42519,20458,14542
42468,20421,14486
42413,20385,14432
42361,20352,14381
42310,20321,14331
42260,20290,14275
42213,20259,14215
42172,20232,14156
42133,20208,14105
42094,20185,14058
42058,20163,14011
42028,20143,13966
42003,20122,13924
41978,20102,13885
41951,20082,13844
41919,20061,13800
41881,20038,13755
41840,20012,13709
41798,19986,13663
41753,19957,13616
41703,19929,13570
41656,19902,13521
41613,19876,13467
41572,19848,13412
41528,19820,13357
41485,19792,13300
41447,19764,13241
41409,19737,13182
41369,19706,13124
41325,19673,13068
41279,19642,13018
41230,19615,12972
41176,19584,12921
41123,19549,12863
41074,19515,12799
41023,19478,12735
40965,19440,12668
40904,19401,12595
40843,19364,12518
40780,19327,12439
40716,19291,12358
40651,19254,12271
40584,19212,12181
40516,19166,12089
40447,19114,11991
40374,19059,11886
40298,19001,11779
40217,18943,11674
40135,18886,11570
40052,18832,11462
39965,18777,11350
39875,18720,11236
39786,18660,11123
39696,18597,11011
39605,18535,10902
39513,18474,10798
39423,18417,10698
39338,18365,10599
39259,18318,10505
39183,18275,10418
39112,18237,10342
39056,18209,10280
39021,18193,10244
39013,18196,10245
39044,18225,10296
39129,18289,10411
39273,18392,10606
39477,18534,10883
39738,18713,11235
40058,18931,11657
40424,19180,12137
40821,19449,12655
41240,19731,13196
41670,20020,13747
42099,20309,14297
42516,20589,14833
42920,20859,15347
43307,21117,15837
43670,21360,16300
44008,21585,16732
44323,21793,17131
44614,21982,17496
44872,22146,17824
45095,22288,18112
45287,22412,18361
45448,22522,18572
45584,22614,18750
45694,22686,18891
45783,22743,18997
45853,22786,19073
45903,22813,19123
45930,22824,19148
45937,22821,19150
45931,22809,19133
45911,22790,19102
45878,22763,19058
45837,22730,19003
45790,22694,18942
45739,22655,18878
45689,22615,18811
45642,22576,18738
45597,22540,18664
45550,22504,18592
45503,22470,18523
45457,22439,18459
45415,22409,18398
45370,22378,18338
45315,22343,18274
45251,22303,18203
45182,22259,18126
45108,22213,18044
45029,22165,17951
44949,22114,17846
44865,22058,17733
44775,21998,17614
44686,21939,17497
44604,21886,17387
44527,21837,17281
44455,21789,17178
44386,21743,17078
44324,21698,16987
44265,21656,16908
44212,21618,16840
44171,21586,16780
44140,21558,16732
44120,21535,16698
44109,21520,16677
44108,21513,16672
44117,21515,16682
44137,21527,16707
44168,21546,16744
44201,21569,16789
44235,21594,16840
44272,21623,16897
44314,21655,16958
44359,21688,17017
44406,21718,17072
44448,21744,17124
44484,21766,17172
44518,21790,17216
44550,21816,17259
44575,21838,17296
44593,21854,17325
44604,21864,17345
44607,21873,17357
44599,21877,17358
44579,21875,17344
44555,21866,17312
44528,21851,17266
44496,21825,17210
44456,21789,17146
44411,21745,17072
44361,21696,16992
44299,21643,16907
44231,21590,16817
44160,21538,16725
44086,21485,16627
44007,21433,16522
43923,21381,16412
43835,21326,16299
43740,21267,16186
43642,21204,16071
43549,21141,15955
43461,21079,15840
43373,21017,15726
43285,20955,15612
43197,20894,15494
43109,20835,15377
43021,20774,15262
42935,20710,15150
42854,20649,15042
42778,20590,14938
42704,20533,14836
42630,20477,14736
42558,20425,14636
42484,20375,14537
42408,20324,14437
42331,20275,14339
42258,20229,14245
42188,20187,14153
42120,20147,14063
42051,20107,13975
41983,20067,13891
41918,20027,13813
41853,19989,13743
41791,19952,13682
41735,19920,13627
41686,19893,13579
41641,19870,13532
41596,19850,13484
41553,19832,13437
41512,19813,13390
41473,19789,13341
41441,19763,13293
41417,19738,13245
41399,19713,13201
41376,19687,13159
41346,19660,13113
41313,19634,13063
41277,19613,13017
41238,19594,12976
41198,19575,12936
41160,19555,12894
41120,19533,12851
41076,19509,12808
41033,19482,12764
40997,19454,12722
40965,19428,12682
40937,19405,12644
40914,19387,12605
40891,19370,12562
40855,19347,12511
40805,19319,12453
40750,19291,12390
40697,19263,12325
40642,19232,12255
40579,19193,12175
40509,19145,12087
40432,19093,11995
40347,19039,11900
40262,18984,11801
40182,18928,11697
40108,18874,11593
40033,18821,11492
39957,18767,11391
39881,18713,11290
39804,18660,11192
39723,18606,11094
39641,18553,10997
39568,18502,10904
39505,18458,10822
39456,18426,10762
39431,18412,10736
39441,18426,10756
39493,18474,10833
39593,18556,10975
39746,18672,11188
39957,18821,11475
40218,19003,11828
40519,19211,12236
40854,19441,12684
41213,19686,13158
41583,19937,13647
41950,20191,14134
42312,20443,14609
42667,20691,15066
43007,20927,15501
43324,21148,15909
43615,21348,16287
43880,21528,16635
44116,21686,16952
44326,21824,17235
44517,21943,17482
44686,22046,17689
44830,22132,17860
44950,22205,18001
45052,22263,18114
45136,22306,18201
45195,22332,18262
45227,22341,18295
45235,22335,18303
45223,22318,18289
45194,22290,18257
45150,22253,18205
45098,22209,18133
45040,22161,18044
44970,22108,17946
44891,22055,17842
44810,22002,17736
44728,21947,17630
44641,21890,17525
44553,21832,17416
44466,21774,17302
44377,21712,17182
44284,21647,17058
44187,21579,16929
44087,21511,16796
43980,21441,16658
43867,21367,16515
43751,21291,16365
43632,21212,16206
43509,21133,16047
43380,21050,15889
43250,20966,15733
43125,20885,15583
43005,20810,15441
42888,20737,15303
42780,20670,15171
42685,20612,15051
42602,20564,14948
42534,20524,14865
42486,20493,14803
42460,20472,14763
42445,20457,14738
42436,20449,14728
42442,20449,14735
42466,20458,14761
42502,20475,14800
42540,20498,14845
42581,20524,14897
42627,20556,14958
42674,20593,15025
42720,20632,15093
42766,20672,15156
42811,20712,15216
42854,20750,15274
42891,20783,15330
42927,20813,15381
42958,20835,15425
42981,20848,15456
42994,20852,15470
42997,20847,15469
42988,20832,15455
42966,20809,15430
42935,20784,15390
42899,20760,15336
42857,20732,15273
42804,20697,15198
42737,20655,15112
42661,20608,15019
42578,20553,14920
42490,20489,14813
42398,20417,14695
42304,20343,14568
42203,20268,14438
42096,20192,14305
41987,20120,14172
41881,20050,14039
41775,19983,13907
41667,19919,13772
41562,19857,13634
41458,19792,13495
41354,19725,13360
41248,19656,13228
41142,19586,13096
41035,19513,12959
40928,19438,12824
40822,19364,12691
40722,19292,12557
40624,19224,12426
40528,19161,12303
40430,19097,12184
40335,19033,12067
40243,18973,11951
40150,18915,11836
40057,18857,11722
39967,18803,11615
39881,18752,11514
39795,18698,11413
39713,18643,11315
39640,18591,11223
39574,18543,11138
39509,18498,11057
39445,18456,10974
39384,18416,10889
39323,18378,10806
39260,18342,10727
39201,18310,10655
39146,18281,10588
39092,18254,10521
39039,18227,10452
38990,18199,10384
38947,18170,10322
38907,18142,10265
38864,18114,10213
38820,18086,10162
38777,18058,10111
38736,18033,10063
38697,18012,10014
38658,17992,9962
38617,17969,9910
38572,17942,9861
38521,17911,9812
38468,17880,9763
38418,17849,9711
38370,17816,9654
38319,17780,9590
38266,17743,9521
38210,17705,9446
38147,17666,9364
38076,17623,9278
38002,17579,9190
37927,17535,9101
37848,17491,9010
37763,17445,8915
37677,17396,8820
37592,17346,8726
37510,17296,8626
37428,17244,8520
37348,17192,8413
37268,17143,8309
37188,17098,8213
37115,17057,8130
37056,17024,8069
37020,17003,8032
37014,17001,8027
37049,17025,8075
37135,17081,8193
37282,17179,8393
37495,17323,8678
37775,17510,9050
38117,17735,9503
38507,17993,10020
38928,18269,10578
39363,18554,11152
39802,18839,11725
40234,19123,12284
40649,19398,12821
41042,19657,13323
41406,19899,13784
41735,20120,14204
42024,20316,14578
42278,20487,14908
42502,20637,15198
42698,20766,15451
42865,20874,15668
43010,20963,15850
43134,21035,15998
43233,21089,16114
43303,21124,16197
43346,21144,16247
43370,21153,16270
43374,21152,16270
43357,21138,16244
43325,21113,16195
43278,21077,16128
43221,21032,16045
43153,20980,15947
43072,20921,15836
42981,20856,15711
42882,20788,15580
42783,20718,15444
42687,20647,15306
42587,20576,15169
42478,20503,15031
42364,20427,14889
42248,20350,14741
42125,20269,14582
41992,20180,14413
41850,20084,14233
41706,19982,14047
41558,19879,13857
41406,19774,13661
41254,19670,13457
41105,19570,13255
40959,19475,13060
40817,19385,12873
40681,19302,12700
40557,19228,12545
40450,19161,12413
40359,19104,12306
40287,19059,12225
40240,19030,12173
40219,19019,12154
40220,19022,12164
40244,19036,12202
40291,19063,12264
40353,19104,12345
40424,19155,12442
40506,19216,12553
40599,19288,12678
40695,19364,12810
40791,19438,12943
40888,19510,13074
40983,19578,13199
41070,19639,13315
41149,19691,13415
41224,19734,13499
41288,19769,13569
41338,19794,13627
41376,19812,13669
41401,19825,13694
41408,19828,13702
41399,19821,13696
41378,19810,13673
41348,19795,13633
41311,19774,13582
41265,19747,13523
41213,19714,13457
41153,19674,13381
41085,19626,13297
41011,19572,13204
40936,19517,13101
40863,19463,12989
40789,19409,12872
40707,19350,12749
40614,19285,12622
40516,19217,12494
40415,19144,12363
40307,19067,12228
40200,18991,12091
40095,18918,11959
39991,18848,11830
39887,18779,11702
39783,18711,11572
39680,18646,11442
39580,18584,11313
39479,18521,11185
39378,18459,11053
39280,18398,10919
39187,18337,10787
39095,18278,10660
39005,18221,10535
38918,18165,10418
38832,18113,10310
38746,18061,10206
38664,18007,10102
38590,17953,10000
38521,17901,9905
38453,17854,9818
38389,17810,9739
38325,17769,9665
38258,17729,9590
38192,17691,9514
38128,17655,9440
38068,17622,9371
38010,17589,9307
37953,17560,9241
37902,17534,9177
37855,17509,9116
37809,17482,9057
37765,17455,9002
37724,17428,8949
37686,17396,8896
37646,17362,8843
37605,17331,8792
37567,17304,8744
37533,17281,8702
37498,17262,8661
37464,17243,8621
37433,17222,8582
37408,17202,8545
37384,17183,8509
37362,17167,8475
37341,17154,8444
37316,17143,8413
37289,17128,8377
37255,17108,8331
37212,17083,8275
37159,17055,8215
37096,17021,8149
37030,16985,8075
36967,16947,7995
36903,16908,7910
36839,16864,7819
36778,16818,7726
36720,16775,7635
36659,16733,7544
36592,16688,7451
36519,16641,7360
36444,16595,7273
36366,16548,7189
36291,16501,7108
36227,16461,7035
36178,16432,6975
36149,16417,6937
36143,16418,6929
36171,16443,6963
36241,16494,7056
36361,16577,7223
36544,16702,7478
36800,16872,7826
37127,17087,8264
37514,17342,8782
37948,17630,9361
38417,17944,9978
38900,18269,10608
39376,18590,11227
39836,18900,11819
40275,19195,12376
40683,19470,12895
41052,19716,13371
41387,19938,13803
41690,20139,14190
41956,20313,14531
42188,20459,14826
42392,20579,15079
42571,20679,15296
42721,20763,15478
42839,20829,15627
42927,20878,15740
42987,20909,15821
43024,20927,15875
43044,20932,15902
43047,20924,15901
43036,20904,15874
43012,20874,15828
42971,20836,15764
42913,20792,15681
42843,20741,15582
42761,20686,15476
42672,20626,15364
42579,20567,15245
42487,20510,15121
42387,20450,14992
42281,20383,14852
42177,20311,14703
42076,20240,14550
41971,20165,14396
41862,20084,14237
41749,19999,14072
41623,19907,13898
41482,19806,13715
41331,19698,13523
41176,19587,13323
41021,19478,13122
40866,19374,12924
40716,19276,12732
40575,19186,12552
40446,19107,12390
40331,19039,12246
40233,18982,12121
40156,18940,12019
40100,18915,11952
40063,18904,11920
40048,18905,11914
40054,18918,11931
40080,18943,11974
40124,18982,12039
40188,19032,12124
40270,19090,12226
40360,19153,12343
40451,19218,12469
40550,19285,12602
40656,19351,12739
40765,19416,12874
40871,19478,13003
40971,19538,13124
41065,19597,13236
41152,19652,13337
41229,19696,13422
41292,19729,13492
41339,19754,13549
41368,19771,13593
41380,19776,13617
41379,19771,13620
41367,19760,13606
41343,19743,13580
41307,19722,13543
41265,19696,13494
41217,19666,13434
41159,19631,13361
41091,19588,13276
41019,19539,13181
40945,19487,13080
40866,19431,12973
40781,19370,12859
40694,19309,12744
40605,19249,12630
40512,19186,12508
40418,19120,12378
40324,19056,12245
40231,18995,12116
40135,18934,11991
40038,18872,11863
39942,18812,11733
39846,18753,11606
39748,18693,11477
39650,18631,11346
39557,18572,11219
39468,18513,11099
39377,18454,10982
39287,18395,10866
39204,18342,10754
39126,18292,10648
39048,18241,10549
38974,18192,10457
38907,18146,10369
38844,18101,10282
38780,18058,10195
38717,18020,10112
38655,17985,10032
38595,17949,9954
38537,17911,9879
38482,17873,9811
38428,17834,9746
38373,17795,9682
38319,17759,9622
38272,17728,9565
38235,17699,9513
38198,17670,9463
38160,17644,9411
38123,17621,9365
38087,17602,9322
38051,17584,9274
38016,17564,9224
37987,17547,9182
37961,17534,9148
37934,17523,9118
37908,17514,9091
37889,17510,9071
37876,17506,9056
37860,17499,9040
37843,17491,9022
37827,17481,9006
37815,17472,8992
37806,17464,8979
37796,17459,8970
37786,17456,8962
37774,17456,8952
37759,17452,8939
37741,17444,8922
37724,17431,8903
37703,17415,8882
37675,17397,8855
37643,17377,8819
37612,17356,8776
37579,17331,8721
37545,17303,8661
37511,17274,8598
37475,17245,8533
37432,17214,8461
37380,17179,8382
37327,17145,8303
37273,17110,8223
37214,17069,8141
37151,17026,8055
37088,16985,7974
37029,16949,7899
36980,16918,7835
36944,16897,7791
36934,16891,7781
36958,16908,7817
37026,16955,7912
37150,17040,8081
37341,17170,8338
37602,17349,8687
37927,17574,9122
38309,17836,9630
38738,18126,10194
39197,18434,10795
39668,18749,11411
40138,19061,12023
40600,19367,12616
41043,19655,13183
41458,19925,13717
41843,20177,14211
42201,20413,14667
42536,20632,15088
42846,20834,15474
43128,21017,15823
43382,21182,16131
43605,21325,16401
43794,21443,16633
43954,21537,16826
44085,21613,16983
44188,21672,17108
44264,21712,17203
44318,21734,17273
44351,21743,17319
44363,21741,17341
44355,21731,17338
44334,21715,17314
44306,21693,17278
44269,21665,17230
44222,21633,17168
44168,21596,17093
44114,21559,17014
44061,21522,16936
44008,21483,16857
43958,21446,16781
43909,21412,16711
43855,21377,16647
43796,21338,16578
43736,21294,16502
43675,21250,16422
43612,21206,16343
43545,21160,16260
43479,21112,16176
43415,21064,16089
43344,21011,15989
43264,20952,15875
43178,20889,15751
43087,20823,15623
42991,20756,15495
42895,20692,15367
42807,20632,15249
42728,20580,15147
42656,20534,15058
42595,20495,14979
42549,20465,14915
42517,20445,14873
42496,20437,14851
42483,20437,14845
42481,20445,14852
42493,20462,14875
42517,20487,14914
42554,20517,14963
42605,20551,15018
42663,20590,15080
42721,20634,15147
42781,20677,15217
42842,20716,15293
42902,20752,15377
42957,20787,15459
43009,20823,15537
43061,20857,15610
43107,20889,15672
43144,20914,15720
43175,20934,15754
43199,20948,15780
43217,20955,15797
43228,20957,15806
43234,20954,15800
43229,20943,15780
43211,20922,15748
43179,20893,15707
43140,20863,15655
43095,20831,15594
43040,20795,15524
42975,20754,15448
42904,20710,15367
42829,20663,15278
42749,20612,15181
42666,20560,15077
42582,20509,14968
42500,20456,14856
42417,20401,14743
42333,20343,14626
42248,20285,14508
42162,20224,14392
42073,20160,14278
41982,20093,14162
41889,20028,14048
41794,19965,13937
41699,19902,13825
41607,19842,13714
41521,19787,13607
41442,19735,13508
41368,19684,13413
41297,19634,13318
41228,19582,13222
41158,19531,13127
41085,19479,13032
41012,19429,12937
40944,19381,12846
40878,19337,12761
40811,19296,12679
40743,19259,12600
40676,19225,12524
40611,19192,12448
40553,19163,12374
40505,19135,12307
40467,19112,12248
40430,19087,12192
40390,19059,12135
40352,19028,12080
40316,18999,12028
40278,18973,11977
40239,18948,11927
40201,18925,11877
40166,18901,11828
40132,18877,11784
40101,18851,11743
40073,18825,11701
40044,18797,11658
40017,18770,11618
39996,18748,11584
39981,18733,11558
39966,18722,11533
39946,18707,11508
39922,18691,11481
39898,18677,11454
39872,18663,11426
39843,18647,11396
39812,18631,11363
39782,18617,11327
39753,18603,11292
39718,18589,11254
39679,18573,11213
39639,18555,11171
39599,18536,11129
39560,18516,11088
39522,18498,11046
39490,18481,11002
39460,18461,10954
39424,18441,10902
39381,18419,10843
39333,18393,10779
39277,18356,10705
39214,18308,10623
39149,18258,10538
39084,18206,10450
39012,18150,10355
38932,18093,10252
38847,18036,10147
38763,17983,10041
38684,17932,9938
38610,17882,9839
38537,17834,9744
38461,17787,9650
38385,17740,9561
38316,17698,9482
38260,17666,9420
38220,17645,9379
38204,17639,9372
38222,17657,9411
38286,17705,9511
38407,17793,9681
38590,17921,9931
38838,18091,10265
39153,18305,10685
39522,18558,11175
39924,18837,11712
40346,19131,12274
40782,19433,12848
41222,19734,13421
41657,20027,13978
42083,20312,14515
42495,20584,15027
42883,20839,15510
43245,21077,15964
43581,21296,16386
43894,21497,16772
44180,21677,17127
44437,21837,17449
44667,21981,17734
44870,22111,17980
45040,22220,18185
45178,22308,18351
45287,22375,18483
45372,22426,18584
45432,22462,18657
45472,22483,18705
45496,22495,18731
45505,22499,18738
45498,22492,18726
45477,22473,18698
45448,22449,18656
45414,22419,18601
45373,22384,18535
45323,22344,18462
45267,22302,18391
45210,22262,18322
45154,22222,18257
45100,22185,18194
45050,22149,18132
44999,22114,18072
44949,22080,18014
44901,22048,17958
44858,22018,17902
44818,21988,17847
44771,21953,17787
44717,21911,17715
44655,21864,17635
44584,21814,17549
44501,21760,17456
44412,21704,17352
44324,21650,17240
44237,21596,17126
44153,21540,17013
44072,21483,16903
43998,21433,16803
43933,21391,16718
43876,21354,16645
43831,21321,16582
43797,21295,16535
43774,21278,16502
43761,21269,16486
43761,21268,16484
43771,21274,16495
43788,21285,16513
43810,21299,16536
43839,21319,16567
43873,21342,16607
43913,21370,16658
43955,21400,16716
43995,21432,16776
44032,21464,16835
44066,21495,16893
44099,21525,16945
44132,21552,16989
44161,21576,17026
44187,21595,17059
44210,21607,17080
44231,21612,17089
44246,21613,17090
44250,21611,17084
44244,21605,17072
44231,21597,17053
44208,21583,17024
44172,21562,16984
44128,21532,16932
44082,21497,16870
44031,21455,16803
43972,21407,16727
43907,21358,16641
43839,21312,16548
43770,21267,16450
43695,21220,16346
43613,21169,16237
43528,21114,16125
43441,21057,16012
43348,20999,15901
43257,20941,15789
43170,20883,15678
43085,20824,15569
43001,20764,15460
42918,20707,15348
42837,20652,15233
42755,20598,15120
42670,20543,15010
42584,20488,14903
42500,20433,14799
42420,20375,14699
42341,20317,14603
42263,20260,14507
42183,20206,14414
42103,20151,14322
42024,20097,14231
41949,20044,14141
41882,19993,14053
41818,19946,13966
41753,19898,13878
41688,19852,13791
41624,19810,13711
41561,19769,13635
41499,19728,13560
41442,19689,13490
41391,19655,13425
41345,19624,13364
41300,19597,13304
41256,19574,13246
41214,19554,13192
41172,19536,13140
41128,19517,13087
41090,19498,13038
41058,19480,12995
41025,19459,12955
40993,19433,12916
40963,19405,12874
40933,19374,12829
40898,19341,12782
40861,19309,12736
40824,19281,12693
40787,19256,12650
40753,19232,12604
40722,19212,12555
40696,19194,12506
40668,19177,12459
40637,19160,12412
40604,19141,12365
40568,19120,12321
40527,19094,12279
40478,19062,12234
40428,19028,12188
40382,18994,12144
40335,18959,12101
40285,18924,12053
40233,18892,11996
40180,18863,11933
40123,18835,11868
40066,18808,11799
40009,18779,11721
39949,18744,11635
39884,18704,11545
39815,18662,11454
39746,18618,11361
39675,18570,11264
39597,18517,11161
39513,18460,11051
39427,18403,10939
39340,18348,10827
39247,18290,10713
39151,18228,10596
39055,18166,10477
38960,18106,10362
38868,18050,10255
38780,18000,10153
38699,17954,10055
38624,17911,9967
38558,17872,9893
38513,17846,9846
38500,17844,9837
38525,17869,9876
38595,17925,9976
38722,18019,10157
38918,18156,10424
39177,18332,10771
39491,18542,11184
39847,18782,11651
40235,19047,12156
40641,19324,12687
41055,19607,13226
41469,19889,13761
41874,20161,14282
42260,20420,14784
42621,20663,15258
42958,20886,15698
43273,21089,16103
43566,21275,16475
43833,21446,16815
44072,21603,17122
44284,21740,17393
44464,21856,17627
44612,21952,17826
44736,22034,17994
44839,22101,18129
44918,22155,18227
44973,22193,18289
45008,22219,18322
45027,22231,18335
45029,22230,18333
45013,22215,18316
44986,22188,18282
44953,22152,18235
44909,22112,18178
44857,22068,18110
44800,22023,18035
44742,21982,17957
44680,21942,17878
44614,21900,17796
44548,21854,17710
44481,21808,17624
44411,21765,17536
44341,21724,17446
44277,21687,17358
44213,21651,17271
44143,21611,17182
44068,21564,17085
43989,21507,16979
43902,21440,16861
43810,21366,16735
43719,21292,16605
43631,21220,16477
43544,21151,16353
43458,21085,16234
43374,21023,16121
43293,20967,16015
43214,20915,15916
43140,20865,15827
43077,20823,15754
43028,20791,15698
42993,20769,15659
42970,20756,15636
42959,20750,15628
42956,20752,15630
42959,20760,15644
42970,20773,15667
42993,20793,15699
43028,20821,15738
43069,20855,15784
43113,20892,15833
43156,20930,15883
43196,20964,15932
43230,20991,15980
43264,21013,16031
43300,21035,16083
43337,21057,16130
43367,21074,16170
43391,21086,16198
43408,21094,16214
43416,21098,16219
43411,21095,16211
43394,21085,16189
43365,21068,16155
43325,21044,16111
43278,21013,16058
43228,20980,15999
43175,20948,15933
43120,20912,15862
43058,20868,15782
42988,20819,15696
42917,20765,15606
42842,20707,15511
42758,20646,15408
42669,20585,15296
42580,20524,15179
42491,20462,15062
42400,20396,14942
42306,20328,14814
42209,20260,14680
42110,20190,14543
42004,20117,14403
41898,20045,14262
41796,19975,14122
41694,19905,13984
41592,19834,13851
41490,19763,13727
41393,19692,13611
41301,19622,13506
41210,19557,13407
41117,19500,13307
41026,19448,13207
40938,19396,13105
40852,19341,12997
40772,19287,12886
40693,19235,12774
40607,19187,12660
40517,19137,12545
40433,19088,12430
40355,19041,12322
40279,18997,12220
40207,18954,12124
40141,18911,12036
40077,18869,11953
40014,18829,11876
39953,18791,11804
39894,18755,11736
39834,18720,11670
39768,18682,11602
39699,18643,11529
39631,18602,11451
39561,18557,11368
39488,18511,11282
39416,18468,11194
39351,18431,11108
39292,18398,11028
39238,18368,10957
39188,18340,10892
39142,18310,10834
39098,18280,10780
39057,18249,10728
39021,18218,10675
38987,18186,10622
38949,18154,10569
38907,18123,10517
38866,18094,10464
38830,18067,10410
38792,18039,10356
38750,18011,10300
38706,17984,10241
38660,17960,10180
38610,17933,10115
38558,17900,10046
38504,17867,9973
38446,17834,9900
38387,17798,9829
38329,17762,9759
38270,17727,9685
38209,17691,9609
38148,17654,9530
38083,17617,9448
38014,17579,9366
37938,17537,9283
37857,17489,9192
37770,17436,9092
37681,17377,8985
37588,17314,8870
37492,17248,8750
37393,17181,8627
37295,17117,8503
37195,17052,8376
37091,16984,8244
36986,16914,8108
36881,16842,7970
36770,16770,7830
36656,16697,7691
36546,16628,7560
36443,16568,7440
36348,16515,7331
36265,16471,7237
36205,16441,7167
36182,16433,7138
36204,16451,7168
36277,16502,7268
36413,16591,7450
36622,16728,7727
36903,16914,8103
37250,17150,8575
37653,17428,9126
38098,17735,9732
38567,18060,10371
39046,18389,11016
39523,18712,11642
39982,19018,12234
40411,19302,12785
40804,19559,13292
41165,19791,13753
41493,20001,14168
41784,20188,14541
42041,20355,14872
42270,20498,15162
42467,20618,15411
42632,20718,15620
42771,20800,15796
42884,20867,15938
42968,20916,16045
43021,20949,16120
43049,20968,16164
43061,20974,16184
43055,20966,16181
43031,20948,16159
42995,20922,16119
42953,20893,16062
42908,20859,15993
42856,20822,15913
42797,20779,15825
42733,20734,15733
42667,20687,15638
42599,20639,15538
42526,20587,15433
42449,20533,15324
42369,20478,15214
42289,20422,15107
42210,20364,14998
42130,20306,14888
42048,20250,14778
41961,20193,14661
41867,20130,14534
41769,20062,14405
41663,19989,14275
41551,19912,14140
41435,19834,13996
41319,19755,13849
41203,19677,13704
41090,19601,13564
40980,19528,13431
40877,19461,13308
40785,19404,13198
40709,19359,13106
40652,19326,13030
40610,19302,12969
40578,19285,12926
40555,19275,12901
40548,19276,12897
40554,19283,12913
40570,19294,12946
40602,19310,12992
40652,19334,13050
40712,19365,13121
40774,19402,13200
40838,19445,13282
40901,19492,13362
40962,19539,13440
41018,19583,13514
41072,19622,13579
41123,19656,13637
41166,19684,13686
41201,19706,13727
41228,19722,13761
41248,19733,13787
41259,19736,13803
41262,19735,13810
41255,19732,13803
41240,19724,13782
41216,19712,13750
41182,19693,13707
41140,19667,13648
41093,19634,13577
41037,19595,13496
40967,19549,13404
40890,19500,13305
40812,19447,13198
40729,19391,13086
40637,19331,12969
40539,19267,12848
40442,19198,12726
40344,19127,12602
40244,19056,12473
40145,18988,12339
40047,18922,12206
39949,18856,12078
39854,18793,11955
39763,18734,11836
39674,18677,11721
39584,18619,11609
39491,18557,11496
39397,18495,11384
39299,18432,11269
39195,18368,11150
39093,18306,11025
38999,18248,10902
38910,18192,10782
38821,18137,10663
38733,18082,10547
38650,18030,10435
38570,17978,10330
38489,17922,10227
38406,17864,10126
38327,17806,10025
38250,17752,9928
38176,17702,9836
38106,17656,9752
38040,17613,9672
37979,17575,9597
37922,17544,9531
37872,17517,9470
37829,17492,9415
37792,17467,9364
37756,17441,9311
37725,17421,9259
37696,17406,9208
37659,17389,9153
37615,17368,9096
37571,17346,9044
37533,17323,8998
37498,17302,8953
37463,17281,8907
37428,17258,8863
37392,17232,8817
37358,17205,8773
37326,17179,8730
37297,17154,8693
37267,17133,8660
37234,17115,8625
37201,17097,8587
37169,17077,8547
37139,17056,8503
37106,17034,8460
37071,17011,8415
37035,16986,8367
36994,16959,8314
36948,16934,8258
36901,16912,8197
36856,16888,8133
36808,16861,8067
36754,16831,7997
36696,16796,7926
36634,16758,7850
36563,16715,7765
36483,16665,7672
36399,16611,7575
36317,16558,7477
36237,16508,7378
36154,16456,7272
36066,16402,7160
35979,16346,7047
35892,16289,6934
35801,16232,6815
35710,16176,6692
35621,16120,6569
35532,16063,6447
35439,16003,6324
35344,15945,6207
35254,15892,6098
35172,15845,5998
35102,15808,5913
35052,15784,5853
35026,15776,5830
35033,15787,5852
35083,15825,5933
35192,15900,6091
35370,16021,6337
35622,16191,6678
35948,16410,7113
36343,16674,7630
36792,16970,8217
37266,17283,8849
37747,17604,9495
38226,17921,10135
38689,18224,10749
39124,18504,11321
39526,18759,11841
39891,18990,12307
40218,19198,12722
40505,19382,13091
40758,19545,13416
40980,19687,13701
41174,19808,13947
41338,19910,14155
41474,19994,14325
41584,20061,14458
41670,20113,14560
41734,20148,14633
41774,20167,14675
41794,20168,14689
41797,20159,14686
41784,20143,14668
41759,20117,14631
41723,20084,14577
41678,20048,14511
41621,20009,14435
41555,19964,14348
41484,19915,14257
41406,19863,14161
41317,19806,14054
41226,19748,13938
41137,19692,13815
41043,19634,13684
40944,19574,13545
40844,19512,13402
40739,19444,13257
40626,19369,13106
40501,19287,12947
40371,19202,12781
40239,19115,12609
40106,19026,12438
39975,18938,12269
39850,18851,12101
39731,18769,11937
39620,18693,11780
39516,18622,11635
39421,18558,11501
39336,18502,11381
39263,18453,11278
39205,18412,11201
39169,18382,11154
39157,18368,11139
39162,18368,11153
39182,18383,11190
39215,18410,11248
39261,18447,11322
39322,18494,11409
39400,18550,11510
39492,18612,11624
39590,18677,11747
39687,18743,11871
39784,18805,11994
39880,18864,12110
39967,18920,12218
40043,18970,12316
40112,19015,12403
40175,19056,12479
40227,19089,12544
40263,19114,12595
40290,19135,12635
40312,19150,12664
40322,19156,12681
40319,19153,12685
40308,19143,12671
40289,19127,12640
40257,19102,12594
40214,19068,12531
40164,19030,12453
40106,18988,12370
40041,18943,12283
39969,18896,12189
39891,18845,12086
39809,18791,11974
39720,18734,11855
39627,18674,11730
39531,18613,11602
39436,18549,11472
39340,18483,11343
39242,18416,11215
39148,18349,11093
39059,18282,10974
38971,18213,10857
38878,18147,10741
38782,18087,10623
38687,18030,10507
38593,17975,10393
38500,17920,10280
38408,17866,10167
38320,17815,10058
38235,17766,9952
38156,17718,9846
38085,17672,9747
38020,17624,9655
37957,17576,9567
37899,17532,9485
37843,17490,9407
37783,17450,9327
37720,17410,9246
37659,17372,9166
37603,17338,9090
37547,17305,9015
37489,17270,8939
37433,17235,8867
37381,17202,8797
37331,17172,8730
37284,17146,8671
37246,17126,8624
37216,17111,8584
37189,17096,8548
37164,17082,8517
37142,17067,8489
37120,17051,8461
37097,17034,8432
37074,17019,8405
37054,17008,8380
37037,16997,8360
37019,16985,8344
37000,16975,8329
36983,16967,8308
36969,16960,8286
36953,16954,8262
36935,16948,8234
36920,16941,8203
36906,16931,8173
36888,16916,8140
36869,16900,8109
36852,16884,8079
36835,16870,8047
36815,16856,8014
36791,16843,7984
36762,16828,7953
36723,16807,7912
36673,16778,7857
36611,16740,7790
36542,16695,7713
36471,16643,7634
36403,16593,7553
36334,16546,7467
36267,16502,7375
36202,16461,7280
36135,16423,7184
36066,16382,7089
35995,16340,6994
35924,16298,6903
35858,16258,6822
35800,16220,6752
35755,16189,6694
35726,16169,6658
35721,16166,6655
35751,16188,6697
35823,16239,6795
35946,16326,6962
36132,16449,7212
36383,16615,7551
36697,16825,7973
37064,17069,8460
37468,17338,8993
37897,17623,9554
38338,17916,10128
38777,18206,10700
39203,18485,11251
39609,18749,11773
39991,18996,12260
40343,19224,12707
40664,19430,13113
40956,19616,13481
41224,19783,13816
41466,19934,14116
41682,20069,14378
41871,20185,14605
42032,20281,14799
42163,20357,14958
42271,20416,15086
42363,20462,15186
42436,20497,15264
42489,20523,15320
42524,20536,15352
42542,20535,15360
42541,20522,15347
42525,20501,15316
42498,20476,15271
42463,20449,15217
42420,20417,15158
42366,20380,15090
42305,20341,15009
42239,20302,14920
42171,20264,14826
42101,20226,14732
42034,20189,14641
41971,20152,14552
41905,20109,14461
41833,20061,14364
41756,20008,14257
41675,19951,14140
41587,19890,14017
41493,19823,13886
41393,19751,13747
41289,19674,13604
41182,19597,13459
41075,19522,13320
40971,19455,13190
40879,19396,13070
40796,19343,12958
40725,19294,12857
40672,19255,12777
40636,19226,12717
40610,19205,12675
40597,19194,12651
40600,19194,12648
40620,19205,12666
40649,19225,12704
40686,19252,12756
40734,19287,12821
40794,19328,12895
40861,19371,12978
40932,19419,13070
41007,19472,13166
41088,19531,13268
41167,19589,13370
41241,19643,13466
41308,19689,13553
41367,19728,13634
41414,19760,13708
41453,19785,13769
41487,19804,13813
41515,19818,13840
41535,19828,13855
41550,19835,13860
41553,19836,13856
41546,19832,13846
41531,19821,13827
41513,19805,13798
41493,19782,13761
41467,19754,13717
41434,19722,13662
41394,19686,13596
41349,19647,13520
41297,19602,13440
41238,19552,13356
41172,19499,13264
41100,19445,13166
41022,19394,13069
40940,19345,12973
40859,19298,12874
40781,19252,12772
40703,19205,12668
40627,19155,12561
40557,19106,12454
40492,19058,12355
40430,19014,12262
40368,18971,12170
40305,18928,12077
40238,18884,11987
40170,18841,11903
40108,18802,11824
40055,18765,11749
40006,18728,11678
39956,18690,11613
39903,18653,11550
39850,18619,11486
39795,18586,11420
39739,18553,11352
39686,18522,11283
39636,18494,11215
39588,18467,11149
39541,18439,11084
39497,18412,11021
39457,18385,10963
39413,18356,10906
39361,18324,10849
39309,18292,10791
39264,18265,10738
39228,18242,10688
39197,18219,10640
39170,18198,10592
39145,18180,10549
39122,18164,10513
39104,18151,10483
39094,18138,10457
39090,18128,10435
39083,18117,10413
39070,18106,10390
39051,18094,10365
39029,18083,10341
39004,18071,10319
38979,18060,10294
38957,18049,10267
38937,18037,10236
38915,18021,10203
38893,18004,10166
38873,17987,10127
38849,17971,10090
38819,17957,10055
38787,17943,10024
38758,17929,9995
38734,17915,9969
38709,17898,9943
38683,17880,9915
38659,17862,9887
38630,17843,9852
38594,17819,9807
38551,17789,9756
38505,17759,9700
38457,17730,9643
38405,17697,9583
38350,17661,9519
38293,17623,9450
38231,17584,9374
38161,17542,9289
38088,17499,9198
38013,17456,9107
37938,17413,9019
37866,17369,8928
37798,17324,8838
37737,17278,8752
37683,17236,8673
37636,17199,8603
37598,17171,8548
37578,17156,8516
37587,17160,8521
37641,17190,8580
37749,17256,8709
37912,17363,8919
38133,17512,9210
38412,17701,9579
38745,17926,10015
39115,18176,10498
39505,18443,11010
39910,18717,11538
40326,18992,12072
40740,19265,12603
41138,19529,13114
41516,19779,13597
41875,20016,14056
42213,20239,14489
42530,20446,14893
42821,20634,15264
43092,20803,15603
43340,20957,15911
43559,21094,16187
43750,21215,16430
43918,21319,16643
44066,21410,16830
44192,21487,16990
44297,21549,17117
44379,21596,17214
44444,21631,17282
44495,21657,17327
44531,21672,17350
44553,21678,17357
44560,21676,17353
44554,21667,17338
44540,21654,17310
44522,21640,17273
44500,21623,17230
44470,21602,17182
44437,21579,17129
44403,21555,17077
44366,21530,17024
44329,21504,16972
44294,21479,16923
44264,21453,16875
44235,21427,16827
44204,21398,16775
44172,21366,16720
44136,21333,16662
44094,21296,16599
44043,21251,16526
43985,21203,16446
43923,21155,16362
43856,21105,16275
43787,21056,16183
43721,21010,16089
43658,20964,16000
43592,20917,15914
43525,20869,15831
43463,20826,15752
43411,20793,15686
43369,20769,15634
43336,20751,15593
43313,20741,15562
43298,20738,15540
43288,20737,15524
43287,20741,15519
43302,20755,15530
43327,20777,15555
43358,20803,15589
43393,20829,15626
43435,20858,15672
43483,20891,15728
43532,20923,15785
43581,20953,15840
43630,20981,15894
43672,21006,15946
43707,21028,15996
43742,21050,16042
43774,21070,16083
43797,21085,16116
43808,21091,16136
43813,21092,16146
43814,21092,16147
43812,21091,16141
43807,21088,16126
43800,21081,16101
43789,21072,16072
43768,21058,16035
43738,21037,15987
43701,21012,15930
43658,20981,15864
43611,20941,15790
43556,20894,15705
43494,20840,15610
43425,20783,15513
43349,20726,15420
43271,20669,15330
43193,20615,15239
43113,20561,15145
43033,20510,15048
42956,20461,14947
42882,20411,14846
42807,20362,14746
42731,20314,14645
42655,20268,14542
42581,20222,14438
42508,20175,14335
42433,20129,14235
42359,20084,14134
42289,20040,14035
42224,19996,13941
42158,19949,13852
42094,19901,13764
42028,19854,13676
41955,19808,13589
41879,19762,13505
41806,19721,13426
41741,19682,13349
41681,19643,13274
41623,19604,13200
41569,19566,13128
41520,19532,13063
41474,19497,13003
41428,19462,12946
41382,19428,12891
41340,19394,12836
41301,19358,12779
41265,19325,12718
41233,19295,12657
41202,19270,12600
41167,19246,12549
41128,19223,12503
41088,19202,12460
41051,19186,12420
41014,19172,12379
40977,19157,12339
40942,19140,12299
40913,19121,12260
40886,19101,12224
40863,19083,12192
40845,19069,12163
40824,19051,12134
40795,19029,12100
40764,19008,12064
40737,18993,12030
40712,18981,11997
40681,18968,11964
40647,18953,11927
40614,18937,11892
40582,18919,11859
40545,18896,11823
40505,18872,11779
40465,18848,11728
40424,18821,11675
40381,18791,11622
40340,18763,11568
40302,18739,11508
40264,18714,11447
40222,18688,11384
40180,18659,11321
40139,18627,11256
40094,18590,11187
40039,18549,11111
39977,18507,11031
39913,18466,10951
39846,18423,10869
39774,18377,10786
39697,18327,10697
39618,18276,10605
39539,18222,10515
39460,18166,10420
39381,18109,10319
39302,18054,10213
39220,18003,10106
39137,17954,9998
39058,17908,9891
38981,17866,9790
38902,17821,9691
38821,17771,9595
38750,17723,9507
38689,17678,9432
38639,17641,9371
38607,17621,9336
38605,17624,9343
38648,17659,9407
38743,17728,9535
38896,17837,9739
39110,17985,10022
39384,18170,10379
39708,18387,10801
40075,18630,11272
40467,18892,11777
40869,19164,12300
41270,19438,12824
41671,19707,13335
42062,19966,13831
42435,20213,14310
42786,20446,14766
43116,20664,15192
43426,20866,15587
43713,21051,15951
43972,21220,16280
44207,21371,16576
44417,21505,16837
44600,21620,17064
44754,21717,17256
44882,21797,17413
44988,21861,17541
45072,21911,17642
45134,21946,17719
45178,21969,17775
45206,21984,17812
45219,21991,17830
45219,21992,17827
45209,21986,17804
45190,21971,17768
45157,21946,17720
45118,21915,17665
45081,21885,17607
45042,21857,17551
44997,21827,17497
44947,21793,17441
44898,21757,17385
44854,21721,17330
44812,21685,17274
44773,21653,17216
44736,21625,17158
44696,21597,17100
44653,21567,17039
44604,21534,16969
44551,21499,16891
44494,21461,16810
44431,21419,16725
44362,21370,16634
44291,21318,16539
44215,21262,16442
44134,21205,16346
44055,21149,16250
43982,21097,16156
43913,21047,16067
43845,21002,15985
43789,20965,15915
43750,20938,15861
43725,20920,15821
43709,20909,15791
43702,20906,15773
43706,20910,15769
43717,20919,15779
43734,20935,15798
43759,20957,15825
43791,20981,15861
43827,21005,15904
43868,21029,15952
43915,21054,16006
43965,21082,16065
44009,21107,16124
44046,21131,16177
44080,21154,16223
44109,21177,16265
44127,21198,16301
44137,21215,16329
44145,21230,16348
44155,21241,16363
44165,21246,16373
44168,21246,16374
44166,21242,16365
44159,21230,16347
44141,21210,16318
44113,21184,16278
44081,21157,16230
44046,21125,16175
44005,21091,16115
43963,21055,16050
43917,21016,15980
43862,20973,15905
43798,20927,15826
43728,20879,15739
43656,20831,15645
43584,20783,15547
43504,20735,15444
43420,20689,15340
43339,20646,15238
43259,20603,15137
43178,20556,15034
43102,20508,14931
43030,20459,14830
42955,20406,14729
42875,20351,14628
42794,20294,14530
42717,20238,14436
42643,20183,14346
42572,20134,14260
42505,20089,14176
42442,20047,14095
42382,20008,14018
42326,19971,13942
42274,19934,13865
42226,19895,13790
42177,19855,13718
42125,19816,13645
42071,19778,13570
42018,19743,13494
41969,19712,13425
41923,19686,13359
41881,19663,13293
41841,19643,13234
41801,19625,13186
41766,19606,13144
41738,19588,13105
41710,19568,13066
41675,19543,13021
41638,19517,12974
41605,19494,12932
41574,19471,12897
41542,19446,12860
41508,19421,12819
41478,19402,12780
41450,19387,12743
41421,19373,12705
41392,19359,12666
41362,19345,12627
41330,19327,12589
41295,19304,12549
41256,19278,12502
41216,19252,12450
41175,19224,12398
41132,19197,12346
41092,19172,12296
41057,19150,12248
41024,19128,12204
40990,19105,12161
40956,19082,12119
40925,19061,12079
40900,19043,12040
40875,19025,11999
40849,19004,11953
40815,18979,11904
40774,18952,11852
40730,18922,11801
40686,18892,11749
40642,18861,11695
40597,18830,11639
40549,18800,11580
40498,18769,11519
40442,18734,11450
40376,18692,11370
40304,18646,11284
40232,18601,11196
40160,18558,11107
40082,18514,11014
40003,18472,10918
39929,18435,10821
39854,18396,10723
39776,18351,10623
39695,18300,10519
39614,18247,10412
39532,18193,10303
39449,18135,10193
39366,18075,10087
39287,18016,9985
39213,17961,9891
39145,17913,9812
39087,17873,9755
39049,17847,9726
39037,17842,9734
39062,17863,9790
39135,17918,9904
39263,18009,10081
39451,18136,10329
39694,18300,10649
39986,18498,11034
40320,18725,11470
40683,18972,11943
41063,19227,12435
41452,19488,12933
41844,19751,13430
42225,20008,13920
42589,20254,14394
42936,20485,14844
43263,20698,15265
43565,20892,15653
43841,21069,16006
44094,21234,16325
44323,21385,16613
44525,21521,16870
44700,21640,17096
44851,21741,17288
44978,21825,17449
45080,21892,17583
45161,21942,17688
45227,21978,17765
45274,22001,17816
45302,22011,17845
45314,22011,17854
45314,22002,17843
45303,21985,17819
45280,21963,17789
45246,21936,17747
45207,21905,17695
45165,21872,17634
45116,21838,17567
45064,21805,17497
45017,21774,17424
44972,21746,17350
44925,21717,17280
44879,21689,17213
44834,21658,17146
44784,21623,17075
44724,21580,17001
44663,21534,16922
44601,21486,16840
44536,21435,16754
44468,21381,16661
44400,21328,16564
44330,21272,16465
44250,21211,16364
44162,21149,16262
44074,21090,16164
43988,21036,16066
43904,20985,15969
43826,20940,15875
43761,20902,15787
43708,20872,15713
43670,20850,15658
43648,20837,15620
43639,20828,15597
43638,20822,15588
43643,20820,15592
43657,20827,15609
43684,20843,15639
43723,20866,15681
43768,20894,15733
43817,20927,15792
43873,20966,15859
43932,21011,15933
43988,21056,16007
44038,21097,16074
44085,21136,16136
44126,21171,16195
44162,21201,16247
44194,21226,16288
44224,21246,16320
44248,21258,16347
44261,21261,16367
44264,21258,16375
44260,21255,16372
44248,21249,16358
44227,21236,16334
44202,21217,16301
44172,21195,16260
44137,21166,16212
44097,21133,16159
44050,21097,16100
43993,21058,16033
43925,21017,15959
43853,20971,15875
43783,20922,15786
43714,20870,15692
43645,20817,15598
43576,20766,15503
43509,20719,15405
43440,20674,15303
43362,20626,15197
43276,20573,15090
43188,20519,14984
43104,20463,14876
43017,20405,14761
42922,20346,14641
42826,20290,14523
42737,20237,14415
42652,20184,14311
42570,20128,14209
42492,20073,14112
42422,20024,14021
42355,19978,13933
42288,19928,13842
42219,19877,13750
42150,19827,13660
42079,19778,13568
42011,19729,13478
41945,19684,13393
41879,19644,13312
41810,19606,13232
41740,19567,13152
41677,19528,13075
41618,19491,13002
41556,19453,12932
41495,19415,12865
41442,19381,12803
41398,19351,12746
41354,19321,12692
41313,19294,12641
41277,19269,12594
41242,19245,12550
41206,19220,12505
41173,19199,12460
41143,19182,12418
41112,19166,12377
41079,19148,12335
41047,19128,12293
41015,19106,12252
40983,19087,12213
40950,19070,12176
40915,19053,12139
40882,19035,12100
40849,19015,12060
40816,18993,12019
40782,18969,11977
40746,18945,11936
40704,18920,11891
40660,18893,11840
40618,18865,11783
40578,18836,11728
40533,18808,11675
40483,18777,11619
40434,18746,11560
40386,18714,11499
40333,18679,11436
40275,18642,11370
40218,18605,11299
40162,18568,11225
40102,18531,11145
40039,18491,11061
39973,18448,10972
39900,18400,10877
39818,18348,10772
39731,18294,10661
39645,18239,10549
39558,18183,10436
39465,18122,10324
39366,18058,10208
39266,17993,10089
39164,17927,9964
39062,17861,9833
38961,17795,9701
38862,17730,9572
38763,17664,9444
38663,17598,9318
38561,17532,9194
38461,17472,9079
38367,17416,8971
38279,17364,8871
38202,17318,8785
38142,17286,8721
38106,17273,8689
38108,17283,8703
38162,17327,8783
38277,17410,8941
38455,17533,9184
38702,17702,9515
39017,17916,9930
39384,18165,10413
39782,18435,10943
40198,18717,11496
40623,19004,12055
41046,19291,12605
41456,19569,13136
41846,19832,13640
42214,20080,14116
42557,20310,14560
42870,20522,14966
43154,20713,15333
43412,20882,15662
43641,21026,15952
43839,21146,16205
44007,21245,16424
44146,21325,16609
44263,21390,16759
44358,21440,16878
44431,21479,16970
44490,21511,17038
44534,21535,17083
44559,21549,17106
44563,21549,17106
44552,21537,17088
44521,21517,17050
44472,21488,16994
44416,21451,16925
44359,21409,16849
44297,21363,16767
44229,21317,16681
44158,21274,16590
44089,21233,16498
44021,21187,16408
43952,21137,16321
43881,21085,16230
43806,21031,16132
43726,20974,16026
43640,20912,15913
43551,20847,15793
43461,20781,15669
43364,20715,15544
43260,20645,15416
43157,20572,15285
43054,20500,15152
42947,20426,15014
42837,20350,14873
42730,20279,14737
42630,20217,14610
42536,20162,14490
42452,20115,14384
42384,20077,14299
42332,20049,14234
42292,20027,14186
42263,20011,14155
42253,20003,14146
42263,20005,14157
42287,20016,14181
42322,20036,14216
42366,20064,14268
42416,20095,14336
42468,20127,14412
42522,20161,14490
42579,20201,14571
42637,20245,14655
42691,20290,14737
42743,20334,14814
42795,20375,14886
42843,20412,14952
42884,20445,15007
42920,20472,15049
42951,20494,15078
42974,20507,15097
42984,20513,15103
42981,20512,15094
42970,20505,15076
42950,20490,15051
42918,20468,15017
42878,20440,14973
42835,20408,14920
42786,20371,14858
42730,20333,14786
42666,20291,14705
42598,20244,14616
42526,20194,14523
42453,20140,14424
42379,20087,14321
42302,20032,14218
42220,19975,14114
42135,19915,14004
42048,19854,13890
41957,19790,13773
41860,19725,13658
41763,19661,13546
41668,19598,13436
41576,19537,13328
41490,19479,13222
41406,19423,13113
41323,19369,13003
41238,19314,12894
41148,19259,12786
41054,19202,12679
40962,19148,12567
40872,19095,12454
40781,19043,12342
40693,18992,12234
40609,18945,12130
40529,18900,12032
40454,18854,11941
40388,18810,11855
40329,18771,11774
40272,18734,11697
40215,18697,11619
40157,18660,11540
40097,18621,11462
40037,18582,11387
39977,18540,11312
39921,18500,11241
39871,18462,11178
39828,18428,11122
39789,18397,11071
39752,18371,11020
39716,18348,10969
39677,18326,10921
39638,18306,10875
39604,18289,10827
39575,18275,10780
39546,18262,10738
39514,18246,10700
39485,18229,10667
39461,18215,10639
39436,18201,10614
39411,18187,10590
39392,18173,10565
39375,18159,10535
39353,18142,10502
39328,18123,10471
39301,18105,10440
39272,18086,10404
39239,18065,10363
39202,18042,10319
39162,18017,10273
39118,17992,10227
39072,17967,10180
39025,17939,10130
38983,17909,10080
38943,17879,10029
38900,17848,9977
38854,17815,9920
38805,17783,9859
38752,17749,9795
38695,17712,9725
38634,17673,9649
38570,17633,9564
38498,17589,9471
38418,17539,9372
38336,17485,9269
38250,17428,9165
38158,17368,9054
38061,17304,8934
37964,17241,8815
37872,17183,8702
37784,17130,8589
37697,17075,8475
37610,17017,8363
37526,16961,8255
37443,16908,8148
37360,16858,8045
37285,16815,7952
37222,16778,7874
37172,16749,7814
37145,16734,7784
37151,16742,7796
37201,16782,7867
37305,16859,8011
37471,16978,8238
37703,17142,8555
38002,17349,8955
38354,17590,9424
38746,17853,9948
39164,18130,10507
39595,18413,11082
40025,18697,11652
40447,18976,12201
40854,19245,12722
41237,19497,13207
41592,19730,13651
41914,19943,14054
42203,20133,14416
42458,20300,14738
42676,20446,15020
42868,20571,15264
43040,20679,15475
43187,20767,15654
43304,20835,15800
43396,20887,15917
43471,20927,16010
43526,20956,16079
43557,20972,16120
43569,20974,16134
43565,20964,16125
43547,20944,16097
43516,20917,16053
43475,20882,15992
43425,20844,15918
43367,20804,15837
43303,20762,15750
43236,20717,15658
43168,20671,15565
43096,20622,15469
43019,20570,15370
42937,20513,15264
42849,20451,15151
42754,20386,15031
42656,20319,14905
42554,20249,14771
42444,20176,14628
42327,20098,14478
42204,20017,14323
42083,19935,14163
41963,19853,14004
41846,19771,13847
41732,19691,13693
41623,19616,13548
41523,19546,13417
41430,19480,13302
41350,19421,13204
41285,19374,13128
41241,19343,13077
41214,19329,13049
41205,19328,13043
41216,19339,13058
41243,19365,13094
41283,19403,13149
41341,19449,13222
41415,19505,13312
41501,19569,13415
41593,19634,13520
41687,19697,13628
41780,19755,13741
41870,19810,13858
41952,19860,13972
42028,19910,14081
42099,19957,14182
42163,20002,14271
42216,20041,14346
42262,20075,14406
42304,20104,14455
42338,20124,14492
42355,20131,14513
42357,20126,14516
42348,20116,14505
42326,20101,14479
42293,20082,14438
42253,20060,14387
42209,20034,14328
42158,20003,14265
42106,19970,14195
42054,19934,14118
41999,19891,14034
41939,19841,13944
41871,19789,13850
41798,19736,13757
41719,19682,13661
41637,19627,13560
41553,19571,13451
41468,19516,13333
41378,19463,13213
41282,19409,13097
41187,19354,12985
41101,19295,12875
41021,19236,12766
40939,19175,12656
40856,19115,12545
40779,19061,12439
40708,19012,12338
40639,18965,12241
40572,18919,12149
40511,18878,12063
40453,18839,11981
40398,18803,11905
40348,18769,11834
40302,18738,11767
40255,18707,11701
40202,18674,11635
40147,18642,11570
40093,18614,11508
40040,18587,11452
39989,18560,11397
39944,18535,11346
39903,18512,11300
39863,18490,11260
39827,18474,11225
39798,18462,11194
39775,18455,11164
39751,18449,11138
39727,18441,11111
39706,18430,11085
39691,18421,11064
39677,18412,11046
39663,18399,11026
39651,18385,11006
39639,18370,10989
39627,18356,10974
39619,18345,10959
39615,18336,10945
39613,18327,10933
39606,18319,10919
39595,18311,10902
39580,18305,10882
39564,18299,10862
39547,18290,10841
39530,18282,10819
39514,18275,10799
39499,18268,10783
39484,18261,10767
39469,18256,10749
39456,18254,10728
39441,18251,10701
39417,18240,10668
39391,18224,10632
39365,18203,10592
39334,18176,10548
39298,18144,10498
39257,18109,10443
39213,18073,10386
39168,18036,10327
39120,17996,10265
39069,17955,10197
39014,17914,10126
38952,17874,10054
38888,17834,9979
38823,17796,9898
38761,17760,9817
38698,17725,9738
38634,17691,9660
38577,17658,9587
38529,17630,9525
38493,17609,9479
38474,17601,9454
38477,17608,9458
38505,17631,9501
38566,17676,9593
38673,17751,9747
38838,17864,9974
39063,18015,10276
39337,18200,10640
39653,18414,11051
40003,18650,11496
40374,18897,11967
40752,19150,12450
41128,19403,12934
41499,19652,13410
41862,19893,13875
42209,20123,14322
42537,20338,14745
42844,20539,15139
43125,20723,15502
43382,20892,15836
43616,21045,16140
43829,21184,16411
44020,21306,16647
44186,21405,16846
44326,21484,17009
44442,21547,17145
44534,21599,17257
44602,21639,17343
44653,21667,17402
44689,21681,17438
44712,21687,17457
44722,21685,17457
44716,21676,17440
44696,21662,17409
44664,21643,17367
44626,21619,17313
44584,21588,17249
44540,21552,17177
44493,21514,17104
44441,21472,17031
44387,21430,16956
44336,21392,16880
44281,21352,16804
44222,21310,16725
44165,21269,16646
44109,21230,16567
44048,21189,16486
43982,21146,16401
43916,21101,16312
43846,21052,16215
43770,20998,16111
43689,20942,16000
43609,20886,15888
43530,20832,15781
43454,20782,15683
43383,20734,15591
43320,20690,15508
43270,20654,15439
43235,20629,15385
43212,20614,15348
43202,20608,15327
43206,20607,15324
43219,20611,15339
43247,20623,15368
43287,20644,15413
43333,20671,15471
43385,20703,15540
43442,20744,15616
43505,20793,15699
43573,20847,15787
43641,20901,15875
43710,20953,15959
43777,20998,16038
43836,21036,16111
43888,21070,16175
43937,21102,16235
43982,21133,16291
44017,21155,16336
44041,21167,16366
44059,21173,16388
44074,21175,16404
44081,21172,16413
44079,21163,16415
44070,21152,16405
44055,21140,16386
44032,21124,16356
44001,21103,16311
43968,21078,16256
43932,21048,16192
43884,21010,16117
43828,20968,16035
43769,20927,15950
43707,20888,15862
43642,20850,15774
43576,20812,15683
43509,20773,15590
43442,20730,15495
43368,20682,15397
43291,20630,15297
43213,20576,15197
43137,20522,15100
43062,20467,15004
42988,20413,14910
42914,20361,14815
42841,20312,14723
42769,20266,14635
42697,20222,14548
42629,20179,14465
42561,20136,14384
42494,20095,14304
42435,20057,14228
42387,20022,14156
42344,19988,14088
42301,19956,14023
42258,19926,13962
42219,19896,13905
42180,19866,13851
42139,19834,13795
42096,19804,13736
42050,19774,13676
42002,19745,13620
41952,19718,13566
41902,19694,13515
41856,19672,13469
41815,19650,13427
41779,19627,13387
41745,19602,13350
41711,19577,13317
41682,19554,13287
41661,19538,13260
41648,19531,13236
41634,19526,13211
41615,19520,13183
41591,19509,13148
41564,19496,13109
41535,19481,13069
41506,19464,13029
41481,19447,12989
41461,19431,12952
41442,19415,12922
41424,19399,12898
41406,19384,12877
41391,19370,12855
41375,19356,12831
41355,19338,12804
41331,19319,12774
41305,19301,12739
41275,19280,12702
41243,19257,12660
41211,19235,12618
41179,19217,12579
41147,19199,12540
41111,19179,12495
41069,19160,12443
41023,19137,12385
40974,19110,12325
40922,19079,12260
40868,19046,12188
40813,19013,12113
40758,18979,12037
40699,18941,11956
40636,18900,11871
40571,18858,11784
40501,18814,11697
40423,18767,11609
40345,18720,11519
40267,18671,11428
40192,18621,11335
40121,18570,11245
40057,18522,11160
39999,18479,11080
39945,18440,11003
39894,18406,10934
39854,18381,10883
39833,18370,10856
39837,18376,10864
39877,18406,10920
39959,18466,11034
40092,18558,11218
40277,18687,11474
40513,18851,11794
40800,19046,12171
41125,19267,12596
41474,19505,13058
41842,19754,13542
42224,20007,14037
42607,20261,14534
42983,20509,15021
43347,20750,15490
43696,20980,15939
44024,21197,16362
44324,21397,16752
44599,21582,17108
44854,21756,17433
45090,21916,17727
45303,22057,17987
45492,22181,18214
45656,22289,18412
45797,22382,18585
45919,22459,18730
46022,22519,18849
46104,22564,18945
46165,22596,19020
46205,22616,19071
46229,22625,19100
46238,22624,19109
46235,22614,19100
46223,22599,19080
46206,22580,19052
46184,22559,19016
46156,22533,18976
46124,22505,18934
46092,22476,18888
46056,22448,18840
46016,22418,18792
45975,22390,18746
45938,22365,18703
45905,22342,18665
45872,22321,18625
45836,22300,18577
45802,22278,18524
45769,22256,18472
45731,22231,18418
45687,22199,18354
45636,22160,18281
45580,22119,18205
45520,22075,18126
45456,22030,18042
45392,21986,17957
45329,21943,17871
45266,21898,17787
45208,21855,17706
45157,21818,17632
45113,21787,17569
45075,21759,17515
45043,21735,17471
45019,21717,17440
45003,21704,17422
44995,21695,17417
44995,21693,17424
45004,21698,17444
45024,21711,17475
45053,21730,17514
45088,21754,17560
45128,21782,17611
45171,21813,17662
45214,21844,17712
45258,21876,17763
45300,21906,17816
45336,21933,17866
45370,21957,17909
45403,21980,17945
45429,21999,17976
45443,22010,18000
45448,22017,18015
45451,22023,18020
45449,22025,18018
45442,22023,18009
45430,22017,17995
45412,22005,17975
45389,21988,17949
45360,21967,17914
45326,21943,17866
45291,21916,17810
45251,21887,17749
45204,21852,17682
45150,21810,17605
45093,21763,17522
45031,21715,17435
44963,21664,17341
44889,21609,17242
44812,21554,17143
44735,21501,17047
44659,21448,16955
44585,21396,16865
44512,21346,16774
44438,21297,16685
44363,21247,16596
44290,21198,16507
44221,21151,16420
44154,21107,16337
44086,21065,16253
44020,21025,16168
43957,20986,16086
43897,20948,16008
43836,20910,15931
43777,20871,15854
43719,20831,15777
43661,20789,15703
43602,20747,15630
43547,20708,15556
43497,20672,15480
43447,20638,15407
43397,20607,15338
43349,20580,15273
43304,20557,15213
43260,20534,15154
43216,20508,15097
43174,20482,15045
43134,20455,14996
43094,20428,14948
43058,20403,14900
43030,20381,14856
43008,20361,14819
42984,20341,14783
42954,20321,14747
42925,20300,14710
42896,20279,14673
42865,20256,14635
42835,20234,14596
42811,20214,14558
42788,20196,14527
42761,20182,14500
42733,20171,14471
42705,20161,14439
42680,20152,14405
42655,20141,14370
42628,20129,14334
42602,20116,14295
42571,20101,14253
42533,20082,14207
42493,20059,14159
42453,20033,14109
42415,20005,14059
42378,19977,14011
42340,19951,13963
42301,19925,13914
42258,19894,13863
42209,19862,13809
42160,19830,13753
42111,19800,13696
42060,19771,13634
42004,19743,13570
41947,19714,13504
41890,19684,13435
41833,19647,13359
41773,19605,13274
41712,19558,13185
41650,19511,13097
41587,19464,13012
41519,19415,12925
41448,19366,12835
41374,19315,12743
41299,19263,12647
41224,19212,12549
41152,19161,12449
41082,19111,12353
41010,19062,12262
40937,19016,12174
40869,18974,12093
40812,18940,12025
40770,18914,11978
40751,18902,11961
40760,18911,11983
40805,18947,12057
40891,19013,12185
41025,19111,12370
41214,19242,12617
41448,19405,12923
41722,19596,13280
42029,19813,13680
42360,20046,14113
42698,20284,14563
43035,20519,15017
43373,20753,15469
43711,20986,15917
44039,21210,16352
44348,21420,16764
44638,21615,17149
44909,21795,17504
45155,21957,17826
45374,22100,18111
45570,22226,18359
45743,22337,18575
45894,22434,18761
46023,22518,18921
46132,22590,19054
46222,22650,19161
46292,22692,19242
46342,22718,19299
46375,22733,19333
46394,22738,19352
46400,22734,19356
46398,22723,19347
46388,22706,19328
46369,22683,19303
46341,22656,19271
46306,22625,19232
46275,22593,19189
46246,22561,19149
46215,22528,19111
46183,22499,19076
46155,22475,19040
46126,22456,19001
46093,22439,18957
46057,22422,18910
46021,22408,18863
45984,22392,18819
45942,22370,18771
45895,22342,18716
45846,22309,18656
45795,22274,18592
45738,22234,18518
45674,22190,18430
45607,22142,18335
45538,22094,18241
45472,22047,18149
45410,22001,18062
45351,21959,17982
45294,21921,17907
45240,21886,17838
45193,21854,17777
45157,21827,17729
45131,21806,17694
45110,21790,17671
45097,21782,17659
45096,21782,17659
45107,21789,17670
45126,21800,17688
45150,21814,17711
45179,21834,17742
45209,21858,17783
45239,21884,17828
45274,21913,17878
45314,21942,17932
45350,21969,17985
45383,21994,18033
45414,22018,18074
45444,22040,18113
45469,22055,18148
45485,22066,18171
45496,22071,18183
45500,22073,18191
45494,22073,18192
45479,22068,18180
45457,22054,18157
45430,22033,18129
45399,22007,18096
45363,21979,18051
45324,21949,17994
45282,21919,17930
45232,21886,17858
45177,21849,17778
45117,21810,17695
45051,21769,17613
44981,21723,17530
44913,21676,17446
44852,21632,17363
44794,21589,17279
44732,21544,17194
44666,21498,17106
44599,21453,17017
44530,21408,16927
44458,21362,16835
44389,21317,16740
44320,21273,16647
44247,21227,16559
44170,21181,16470
44094,21133,16379
44022,21088,16291
43953,21043,16208
43886,20998,16128
