green_channel,red_channel,ir_channel
4003,55534,44809
4028,55557,44842
4035,55575,44864
4028,55587,44879
4015,55596,44889
4000,55605,44896
3986,55612,44899
3973,55615,44900
3961,55616,44898
3949,55614,44894
3937,55609,44885
3929,55601,44871
3923,55594,44855
3919,55589,44837
3913,55583,44819
3900,55575,44795
3882,55566,44764
3858,55554,44730
3828,55538,44692
3797,55518,44648
3766,55494,44600
3731,55465,44549
3693,55432,44495
3654,55397,44436
3616,55361,44374
3578,55325,44314
3544,55290,44258
3515,55259,44207
3492,55233,44164
3475,55212,44130
3458,55199,44107
3444,55188,44091
3434,55180,44078
3426,55174,44069
3422,55171,44064
3425,55172,44064
3433,55173,44066
3443,55174,44068
3454,55176,44072
3465,55180,44077
3476,55184,44080
3481,55187,44078
3481,55188,44075
3476,55186,44068
3468,55179,44055
3455,55168,44033
3439,55156,44004
3421,55143,43973
3402,55128,43942
3379,55110,43912
3352,55089,43879
3321,55064,43841
3286,55033,43798
3248,55001,43752
3212,54969,43703
3176,54938,43652
3139,54906,43599
3099,54872,43542
3057,54837,43479
3013,54798,43410
2967,54756,43337
2918,54710,43263
2866,54663,43190
2814,54618,43117
2763,54575,43044
2712,54534,42970
2661,54496,42896
2613,54458,42825
2566,54420,42759
2519,54383,42695
2475,54347,42633
2432,54311,42573
2390,54273,42515
2349,54236,42459
2309,54198,42404
2271,54162,42348
2235,54129,42291
2203,54099,42237
2177,54070,42185
2151,54040,42135
2122,54009,42087
2091,53980,42040
2059,53953,41992
2026,53929,41944
1993,53904,41898
1964,53881,41854
1941,53862,41813
1920,53845,41774
1899,53826,41737
1878,53806,41700
1856,53783,41663
1831,53757,41626
1802,53730,41587
1773,53701,41548
1742,53673,41510
1708,53644,41468
1669,53613,41421
1631,53583,41370
1594,53554,41316
1555,53523,41265
1518,53493,41215
1485,53463,41165
1453,53432,41112
1421,53403,41060
1387,53373,41011
1352,53340,40961
1314,53305,40909
1274,53271,40858
1231,53240,40803
1189,53209,40742
1147,53177,40677
1103,53141,40609
1055,53100,40540
1005,53056,40468
952,53011,40394
896,52963,40319
836,52915,40243
777,52868,40167
724,52824,40096
674,52784,40032
630,52751,39977
595,52727,39932
571,52711,39901
559,52705,39888
568,52717,39899
602,52752,39942
663,52810,40026
757,52892,40155
883,53000,40328
1041,53134,40542
1228,53295,40797
1446,53479,41092
1690,53681,41421
1951,53896,41772
2217,54118,42138
2485,54344,42508
2752,54568,42875
3012,54788,43232
3257,54996,43570
3488,55189,43889
3704,55367,44184
3901,55528,44451
4077,55672,44689
4233,55798,44902
4370,55908,45088
4489,56003,45251
4588,56082,45391
4668,56144,45506
4734,56191,45600
4786,56226,45674
4826,56253,45734
4857,56273,45782
4882,56290,45821
4902,56301,45853
4916,56310,45875
4924,56318,45892
4931,56329,45906
4941,56341,45920
4952,56353,45931
4964,56364,45940
4977,56375,45948
4989,56385,45955
5000,56397,45964
5012,56410,45977
5024,56424,45992
5036,56436,46008
5046,56444,46022
5054,56448,46032
5056,56448,46034
5051,56442,46025
5039,56432,46005
5023,56418,45973
5004,56399,45935
4981,56375,45893
4953,56348,45846
4923,56320,45796
4894,56295,45747
4862,56269,45697
4830,56239,45642
4799,56208,45586
4770,56175,45536
4741,56144,45493
4713,56118,45457
4687,56099,45429
4665,56087,45408
4648,56078,45391
4632,56072,45374
4619,56069,45360
4610,56066,45348
4604,56062,45338
4605,56058,45331
4611,56053,45326
4618,56048,45321
4623,56044,45315
4626,56041,45311
4627,56037,45307
4626,56032,45303
4623,56024,45294
4619,56015,45279
4611,56007,45258
4599,55997,45234
4581,55982,45208
4556,55964,45176
4529,55945,45139
4506,55924,45101
4483,55900,45061
4457,55874,45018
4427,55848,44972
4395,55821,44922
4358,55792,44867
4319,55762,44808
4279,55730,44748
4235,55695,44688
4187,55655,44626
4138,55614,44560
4091,55573,44494
4043,55531,44426
3996,55489,44358
3952,55449,44290
3911,55412,44226
3869,55377,44165
3826,55343,44109
3785,55310,44057
3745,55279,44005
3706,55248,43954
3670,55218,43903
3637,55187,43852
3603,55152,43801
3566,55117,43752
3528,55083,43704
3495,55053,43657
3464,55025,43612
3433,54998,43566
3401,54973,43518
3372,54949,43470
3343,54926,43424
3311,54905,43381
3277,54880,43336
3244,54853,43290
3211,54825,43243
3178,54795,43197
3144,54767,43153
3111,54740,43111
3080,54714,43068
3051,54688,43024
3024,54666,42981
2997,54643,42939
2970,54618,42899
2941,54592,42856
2910,54566,42809
2877,54541,42762
2845,54518,42717
2814,54494,42670
2784,54465,42620
2753,54431,42566
2719,54397,42509
2680,54363,42451
2640,54330,42391
2601,54297,42331
2562,54260,42270
2522,54220,42210
2481,54181,42150
2436,54142,42088
2386,54100,42025
2335,54061,41964
2288,54025,41903
2244,53991,41839
2197,53956,41772
2149,53918,41702
2105,53879,41632
2067,53842,41563
2032,53807,41496
1999,53773,41434
1968,53742,41380
1944,53719,41340
1929,53704,41317
1929,53702,41317
1948,53718,41344
1989,53754,41404
2053,53812,41503
2146,53898,41644
2269,54009,41824
2422,54142,42039
2602,54294,42287
2803,54462,42564
3021,54643,42867
3249,54833,43187
3482,55027,43516
3715,55225,43844
3945,55422,44166
4169,55612,44477
4380,55792,44774
4578,55960,45055
4763,56119,45317
4933,56266,45557
5086,56401,45777
5222,56521,45974
5340,56622,46145
5441,56705,46287
5524,56772,46404
5591,56826,46498
5646,56872,46575
5694,56911,46639
5735,56941,46690
5768,56964,46727
5793,56983,46755
5812,56997,46778
5825,57005,46798
5836,57013,46816
5844,57022,46835
5850,57034,46852
5857,57048,46868
5867,57061,46880
5881,57071,46890
5894,57078,46899
5906,57083,46907
5915,57086,46915
5923,57088,46921
5926,57088,46923
5924,57085,46917
5915,57079,46904
5899,57070,46884
5875,57053,46857
5845,57030,46818
5812,57002,46772
5778,56968,46721
5741,56931,46666
5702,56892,46608
5663,56853,46550
5623,56813,46491
5584,56775,46431
5543,56741,46372
5504,56709,46318
5470,56680,46271
5440,56653,46232
5415,56629,46195
5397,56608,46163
5385,56594,46137
5376,56587,46119
5370,56585,46104
5364,56584,46092
5359,56582,46082
5352,56579,46072
5347,56575,46061
5344,56573,46049
5339,56570,46036
5331,56564,46024
5322,56555,46012
5313,56545,45997
5302,56532,45978
5285,56519,45957
5264,56507,45936
5240,56493,45913
5213,56475,45887
5183,56450,45855
5151,56420,45819
5117,56387,45777
5080,56353,45730
5040,56318,45679
4997,56283,45625
4952,56246,45568
4907,56206,45506
4861,56165,45442
4816,56128,45375
4770,56093,45305
4723,56057,45236
4676,56023,45168
4629,55990,45103
4582,55955,45039
4534,55917,44973
4483,55878,44904
4430,55835,44833
4376,55787,44758
4324,55737,44682
4276,55689,44609
4229,55645,44539
4182,55602,44473
4134,55563,44409
4089,55526,44345
4047,55490,44281
4002,55450,44219
3955,55408,44160
3906,55367,44102
3860,55330,44047
3815,55298,43993
3771,55268,43939
3728,55238,43886
3687,55209,43834
3648,55183,43783
3612,55160,43732
3578,55137,43680
3544,55111,43627
3506,55082,43572
3466,55052,43518
3423,55019,43464
3380,54981,43410
3336,54941,43354
3294,54900,43300
3255,54862,43248
3218,54827,43197
3183,54793,43146
3149,54761,43095
3115,54732,43043
3082,54705,42992
3047,54678,42941
3010,54651,42890
2971,54624,42841
2928,54597,42793
2885,54571,42741
2845,54545,42686
2804,54519,42629
2760,54492,42569
2711,54461,42507
2659,54424,42445
2605,54382,42382
2548,54335,42314
2489,54284,42243
2429,54231,42169
2369,54179,42094
2310,54128,42018
2250,54076,41937
2188,54025,41855
2125,53974,41776
2063,53924,41700
2003,53874,41622
1946,53827,41541
1889,53782,41459
1834,53735,41383
1787,53692,41314
1746,53655,41253
1717,53628,41203
1702,53613,41174
1705,53616,41173
1730,53639,41208
1785,53686,41283
1870,53759,41401
1985,53862,41562
2132,53995,41767
2315,54155,42019
2528,54339,42314
2765,54542,42644
3020,54761,42996
3285,54987,43365
3553,55212,43739
3816,55431,44110
4069,55643,44466
4309,55843,44803
4534,56029,45117
4742,56201,45404
4929,56357,45664
5096,56498,45895
5242,56623,46097
5366,56733,46270
5468,56824,46415
5550,56895,46534
5614,56946,46631
5664,56984,46708
5703,57014,46769
5731,57034,46815
5749,57046,46848
5758,57053,46869
5760,57058,46880
5757,57057,46885
5752,57053,46884
5748,57048,46879
5745,57042,46871
5742,57036,46863
5739,57029,46856
5740,57025,46853
5742,57026,46855
5745,57028,46861
5748,57032,46868
5752,57038,46870
5751,57039,46865
5742,57032,46853
5727,57019,46832
5707,57002,46804
5681,56983,46768
5647,56962,46724
5608,56937,46674
5569,56908,46616
5530,56878,46554
5491,56846,46492
5452,56815,46433
5417,56785,46375
5383,56753,46319
5352,56721,46267
5322,56689,46219
5296,56661,46177
5274,56634,46140
5254,56612,46110
5237,56594,46086
5220,56581,46070
5205,56573,46061
5194,56570,46057
5190,56571,46059
5195,56577,46065
5206,56587,46072
5217,56600,46077
5228,56612,46081
5240,56621,46085
5251,56626,46087
5261,56627,46088
5270,56630,46088
5276,56631,46085
5276,56630,46077
5270,56626,46063
5259,56617,46043
5245,56604,46017
5228,56588,45986
5205,56563,45949
5177,56535,45908
5142,56505,45862
5103,56475,45814
5062,56445,45764
5021,56414,45712
4979,56381,45655
4935,56346,45593
4890,56309,45525
4845,56269,45454
4802,56226,45383
4758,56180,45312
4714,56137,45242
4670,56097,45174
4623,56059,45110
4575,56021,45046
4529,55981,44978
4484,55940,44905
4438,55902,44834
4388,55867,44765
4339,55835,44700
4296,55805,44637
4257,55773,44575
4219,55737,44514
4182,55697,44454
4148,55659,44400
4117,55623,44352
4087,55590,44306
4055,55560,44262
4022,55533,44218
3987,55507,44173
3952,55480,44128
3919,55453,44085
3887,55425,44041
3853,55394,43997
3820,55366,43955
3791,55344,43915
3765,55323,43872
3737,55300,43829
3705,55273,43785
3672,55244,43742
3641,55216,43701
3610,55188,43662
3582,55160,43621
3553,55132,43573
3521,55105,43522
3485,55076,43471
3448,55048,43420
3410,55018,43368
3369,54985,43314
3326,54948,43257
3279,54911,43197
3229,54874,43132
3177,54833,43065
3121,54787,42996
3065,54737,42927
3009,54686,42859
2952,54637,42791
2896,54588,42721
2841,54540,42646
2784,54496,42570
2725,54452,42493
2665,54408,42416
2609,54364,42339
2556,54322,42265
2505,54281,42195
2454,54241,42129
2408,54204,42070
2372,54173,42022
2350,54153,41991
2345,54145,41980
2362,54155,41994
2404,54188,42041
2474,54246,42129
2574,54332,42261
2703,54447,42440
2862,54589,42663
3048,54755,42928
3257,54939,43226
3484,55138,43549
3721,55345,43886
3962,55553,44226
4206,55760,44563
4447,55964,44892
4681,56160,45207
4902,56345,45504
5107,56515,45781
5294,56670,46033
5461,56809,46258
5606,56930,46457
5732,57036,46631
5841,57128,46781
5935,57205,46909
6011,57263,47012
6071,57307,47094
6118,57342,47160
6152,57371,47214
6175,57393,47257
6192,57407,47286
6207,57414,47304
6215,57415,47315
6217,57414,47318
6216,57412,47318
6214,57408,47314
6210,57403,47306
6203,57396,47295
6198,57389,47284
6194,57383,47276
6189,57376,47267
6183,57368,47254
6176,57360,47237
6164,57350,47212
6146,57336,47178
6120,57314,47137
6087,57285,47090
6051,57250,47040
6011,57212,46986
5968,57171,46926
5925,57129,46860
5880,57086,46792
5832,57041,46727
5784,56996,46663
5740,56955,46601
5699,56920,46540
5663,56890,46482
5634,56864,46430
5610,56842,46386
5593,56824,46351
5582,56808,46324
5575,56796,46302
5571,56790,46286
5569,56788,46278
5569,56788,46274
5570,56792,46275
5571,56799,46281
5573,56805,46291
5576,56812,46300
5576,56818,46304
5570,56822,46302
5558,56823,46295
5546,56819,46284
5533,56811,46271
5519,56799,46254
5503,56783,46230
5488,56764,46199
5471,56743,46163
5451,56719,46123
5425,56693,46078
5393,56664,46030
5357,56631,45981
5318,56593,45931
5275,56551,45876
5231,56507,45818
5187,56466,45759
5140,56424,45697
5089,56380,45630
5038,56336,45558
4991,56293,45484
4944,56253,45411
4895,56215,45342
4845,56178,45273
4792,56140,45203
4739,56101,45131
4686,56059,45062
4632,56017,44993
4578,55976,44924
4524,55936,44854
4470,55896,44781
4420,55858,44708
4373,55819,44636
4327,55778,44566
4281,55735,44499
4237,55694,44436
4195,55655,44376
4151,55621,44319
4107,55589,44264
4068,55558,44212
4035,55530,44163
4003,55501,44115
3971,55469,44065
3940,55437,44016
3909,55408,43968
3874,55378,43919
3837,55344,43867
3800,55309,43813
3763,55277,43762
3723,55248,43712
3684,55219,43663
3647,55189,43614
3609,55156,43564
3571,55122,43513
3534,55089,43462
3497,55059,43411
3458,55029,43359
3417,55000,43306
3378,54973,43254
3340,54947,43203
3302,54921,43150
3262,54892,43098
3219,54860,43044
3175,54826,42984
3130,54790,42921
3084,54751,42856
3033,54711,42789
2982,54672,42724
2928,54632,42660
2871,54591,42596
2814,54550,42530
2758,54508,42460
2704,54463,42386
2649,54415,42310
2595,54366,42233
2540,54318,42155
2483,54270,42075
2425,54223,41995
2368,54174,41914
2311,54124,41830
2252,54074,41749
2190,54025,41672
2130,53977,41599
2077,53933,41531
2030,53895,41475
1995,53867,41439
1978,53859,41429
1986,53872,41450
2022,53910,41505
2091,53976,41603
2197,54071,41748
2339,54194,41944
2520,54348,42193
2737,54531,42494
2990,54743,42844
3269,54978,43229
3564,55229,43636
3863,55488,44053
4163,55748,44471
4456,56001,44878
4736,56239,45264
4996,56456,45623
5234,56654,45949
5448,56835,46245
5641,56997,46511
5812,57138,46746
5963,57260,46954
6096,57366,47137
6208,57456,47296
6302,57534,47431
6382,57602,47546
6449,57656,47642
6499,57699,47718
6536,57731,47777
6567,57759,47821
6591,57781,47854
6610,57797,47879
6624,57809,47898
6637,57820,47915
6647,57831,47932
6657,57843,47949
6670,57857,47967
6688,57871,47984
6710,57885,48001
6731,57897,48020
6753,57912,48042
6776,57929,48065
6799,57945,48088
6820,57957,48104
6838,57966,48111
6850,57970,48110
6852,57966,48101
6844,57955,48082
6828,57937,48051
6803,57912,48011
6772,57881,47967
6738,57845,47919
6700,57805,47867
6657,57761,47812
6608,57718,47753
6558,57678,47692
6510,57642,47631
6468,57607,47570
6431,57575,47511
6397,57544,47455
6368,57515,47402
6341,57489,47354
6317,57468,47316
6297,57453,47287
6285,57443,47265
6279,57436,47249
6277,57432,47240
6277,57429,47235
6277,57427,47234
6278,57428,47234
6281,57431,47232
6286,57436,47228
6291,57438,47220
6293,57437,47209
6288,57434,47196
6282,57428,47179
6273,57419,47161
6257,57406,47138
6233,57388,47108
6205,57366,47073
6173,57341,47034
6140,57313,46993
6107,57283,46947
6071,57251,46897
6033,57219,46844
5995,57185,46788
5956,57149,46730
5918,57111,46670
5877,57075,46610
5833,57038,46549
5789,56999,46486
5745,56960,46422
5700,56921,46356
5653,56881,46289
5605,56841,46222
5558,56804,46155
5512,56766,46089
5466,56727,46025
5422,56690,45963
5380,56654,45904
5339,56617,45846
5298,56578,45788
5256,56540,45730
5214,56505,45673
5174,56470,45616
5136,56438,45561
5101,56408,45506
5066,56379,45451
5029,56349,45394
4986,56315,45337
4943,56280,45279
4904,56246,45221
4865,56214,45165
4825,56180,45111
4787,56147,45061
4749,56120,45013
4710,56094,44966
4671,56066,44916
4631,56039,44862
4592,56010,44808
4550,55977,44755
4506,55942,44699
4461,55905,44643
4418,55868,44589
4380,55832,44538
4344,55796,44486
4310,55765,44433
4277,55735,44378
4245,55703,44321
4213,55671,44264
4178,55638,44210
4137,55605,44160
4093,55572,44109
4049,55539,44054
4004,55509,43999
3963,55482,43945
3923,55454,43892
3882,55425,43838
3840,55395,43781
3795,55360,43724
3749,55321,43665
3705,55280,43601
3666,55239,43535
3625,55195,43469
3580,55150,43400
3532,55102,43327
3479,55053,43252
3420,55002,43176
3359,54951,43095
3298,54902,43010
3238,54856,42921
3175,54808,42831
3110,54759,42741
3044,54710,42654
2981,54662,42571
2922,54614,42490
2865,54568,42413
2811,54526,42339
2765,54488,42273
2729,54452,42218
2705,54425,42178
2695,54416,42161
2703,54423,42173
2735,54450,42221
2796,54499,42311
2890,54580,42450
3019,54697,42642
3186,54847,42887
3387,55027,43176
3619,55231,43503
3877,55453,43861
4151,55686,44241
4434,55925,44633
4718,56165,45025
4999,56399,45413
5276,56627,45790
5543,56847,46152
5794,57056,46490
6026,57249,46800
6232,57421,47080
6415,57572,47332
6576,57707,47553
6715,57825,47745
6835,57926,47912
6936,58010,48055
7021,58080,48176
7090,58140,48279
7146,58192,48364
7190,58233,48431
7224,58264,48481
7247,58283,48519
7261,58296,48549
7275,58309,48573
7290,58323,48596
7302,58334,48615
7311,58342,48630
7321,58350,48641
7333,58358,48654
7346,58368,48667
7361,58381,48680
7378,58396,48694
7395,58410,48708
7409,58419,48721
7421,58422,48731
7430,58422,48737
7431,58417,48735
7423,58406,48726
7408,58392,48708
7386,58373,48679
7359,58350,48641
7325,58321,48593
7285,58285,48534
7240,58242,48465
7191,58193,48392
7138,58143,48318
7084,58094,48245
7031,58050,48176
6981,58009,48109
6935,57969,48047
6893,57933,47990
6857,57902,47940
6826,57877,47898
6799,57856,47862
6777,57840,47830
6759,57828,47803
6744,57818,47784
6735,57808,47770
6732,57802,47759
6729,57797,47748
6724,57792,47740
6720,57788,47731
6718,57785,47724
6714,57785,47714
6708,57785,47702
6698,57781,47687
6686,57775,47667
6670,57767,47641
6651,57753,47613
6627,57733,47581
6601,57709,47545
6572,57684,47504
6541,57654,47459
6509,57620,47410
6473,57586,47360
6431,57550,47307
6384,57512,47249
6334,57471,47184
6286,57428,47114
6239,57383,47042
6188,57334,46967
6132,57283,46890
6075,57236,46815
6018,57192,46741
5961,57148,46666
5903,57102,46589
5845,57054,46512
5789,57006,46437
5735,56959,46363
5679,56912,46287
5622,56867,46210
5565,56824,46136
5511,56779,46066
5462,56734,45997
5415,56692,45928
5368,56653,45858
5318,56613,45786
5266,56571,45714
5211,56527,45643
5153,56483,45574
5095,56438,45507
5040,56396,45442
4990,56356,45377
4941,56315,45311
4893,56271,45245
4846,56226,45179
4799,56184,45112
4752,56140,45043
4703,56096,44975
4652,56053,44910
4600,56010,44847
4550,55969,44785
4503,55932,44725
4457,55898,44665
4407,55861,44599
4355,55819,44526
4302,55776,44448
4249,55736,44367
4196,55698,44292
4141,55660,44220
4086,55621,44150
4033,55582,44081
3981,55546,44012
3929,55511,43944
3875,55471,43876
3823,55429,43808
3772,55388,43741
3721,55346,43673
3669,55303,43604
3616,55260,43535
3563,55217,43469
3513,55176,43407
3466,55135,43346
3419,55096,43283
3369,55055,43221
3317,55011,43158
3267,54965,43092
3220,54920,43023
3173,54876,42954
3122,54830,42885
3068,54784,42815
3009,54738,42741
2944,54692,42661
2877,54646,42577
2809,54598,42491
2742,54549,42402
2675,54496,42307
2604,54439,42205
2530,54380,42101
2456,54320,41998
2381,54258,41896
2308,54197,41794
2238,54136,41695
2172,54078,41598
2108,54024,41507
2048,53976,41426
1997,53938,41357
1958,53911,41306
1938,53899,41283
1944,53910,41297
1984,53947,41354
2059,54012,41460
2172,54109,41619
2328,54243,41837
2528,54416,42113
2770,54625,42446
3047,54863,42830
3352,55125,43254
3679,55403,43704
4016,55687,44169
4354,55968,44636
4683,56241,45091
4998,56500,45524
5290,56738,45926
5554,56955,46291
5791,57151,46616
6000,57324,46902
6178,57475,47151
6329,57602,47366
6456,57708,47548
6563,57796,47700
6649,57868,47822
6716,57924,47916
6769,57967,47988
6808,58001,48040
6834,58025,48074
6851,58041,48097
6862,58050,48113
6868,58053,48124
6868,58051,48128
6864,58045,48125
6857,58037,48119
6850,58030,48111
6841,58023,48105
6832,58016,48099
6826,58010,48093
6822,58005,48087
6820,58001,48086
6819,57996,48085
6817,57991,48081
6811,57984,48071
6800,57973,48051
6786,57957,48023
6768,57938,47989
6748,57916,47950
6723,57891,47907
6694,57864,47859
6662,57834,47806
6625,57800,47748
6582,57761,47684
6533,57721,47615
6483,57684,47543
6433,57649,47475
6384,57617,47412
6338,57587,47354
6300,57561,47300
6268,57537,47252
6244,57515,47210
6224,57497,47176
6208,57482,47146
6194,57469,47122
6185,57460,47103
6181,57454,47089
6178,57450,47084
6177,57447,47083
6178,57446,47083
6182,57444,47080
6187,57441,47073
6191,57436,47063
6188,57430,47051
6182,57422,47035
6173,57414,47016
6162,57402,46994
6147,57389,46972
6131,57377,46949
6114,57364,46923
6093,57346,46891
6069,57325,46853
6042,57303,46811
6009,57279,46766
5969,57251,46717
5923,57220,46662
5878,57187,46603
5833,57151,46541
5787,57110,46472
5739,57063,46398
5688,57013,46322
5634,56959,46245
5576,56902,46166
5516,56844,46083
5454,56784,45998
5392,56726,45909
5327,56667,45818
5261,56612,45729
5196,56563,45643
5133,56516,45563
5073,56469,45488
5018,56422,45415
4966,56375,45342
4916,56329,45269
4865,56283,45195
4814,56240,45125
4764,56201,45059
4714,56167,44998
4668,56135,44940
4626,56102,44880
4583,56066,44823
4540,56031,44769
4499,55997,44714
4460,55965,44655
4423,55933,44596
4387,55900,44536
4353,55867,44477
4322,55838,44420
4289,55810,44367
4252,55779,44314
4211,55745,44258
4168,55707,44199
4123,55667,44138
4076,55626,44078
4031,55587,44023
3985,55552,43969
3941,55518,43914
3900,55484,43860
3861,55453,43809
3822,55425,43761
3783,55397,43712
3742,55364,43660
3702,55327,43604
3663,55293,43545
3621,55257,43483
3575,55220,43417
3526,55180,43347
3476,55138,43276
3428,55095,43204
3380,55051,43133
3329,55008,43065
3274,54965,42995
3216,54918,42921
3155,54866,42843
3094,54812,42759
3032,54757,42669
2966,54700,42576
2897,54641,42480
2828,54581,42384
2760,54521,42286
2693,54457,42187
2625,54393,42090
2556,54331,41994
2486,54271,41897
2416,54219,41806
2349,54176,41723
2291,54144,41653
2250,54123,41605
2230,54115,41585
2231,54125,41594
2261,54159,41639
2325,54220,41726
2424,54309,41863
2561,54425,42053
2738,54573,42298
2955,54753,42593
3205,54962,42931
3483,55194,43308
3783,55444,43713
4094,55703,44134
4407,55963,44558
4714,56216,44974
5007,56456,45371
5277,56679,45742
5524,56884,46080
5745,57068,46385
5941,57231,46656
6110,57372,46893
6254,57493,47095
6376,57598,47265
6479,57686,47404
6559,57756,47515
6618,57805,47599
6657,57839,47658
6680,57859,47698
6688,57867,47721
6687,57863,47731
6683,57855,47730
6677,57848,47721
6667,57839,47704
6655,57828,47682
6643,57814,47658
6629,57799,47633
6612,57779,47606
6594,57757,47577
6578,57736,47547
6561,57716,47518
6538,57695,47489
6510,57673,47457
6479,57648,47419
6449,57620,47372
6416,57589,47321
6380,57556,47267
6340,57523,47206
6294,57486,47137
6241,57444,47062
6184,57400,46984
6126,57351,46903
6066,57300,46820
6006,57250,46738
5948,57202,46661
5895,57158,46590
5849,57120,46527
5810,57092,46473
5779,57068,46424
5752,57047,46382
5729,57030,46348
5709,57015,46321
5695,57003,46301
5686,56995,46287
5681,56989,46277
5677,56985,46268
5675,56985,46259
5675,56987,46251
5675,56987,46245
5675,56984,46242
5678,56979,46241
5680,56973,46241
5678,56966,46236
5671,56956,46225
5662,56946,46208
5650,56936,46185
5634,56924,46158
5613,56910,46127
5587,56891,46087
5557,56865,46037
5524,56836,45983
5491,56804,45926
5455,56770,45867
5412,56731,45803
5362,56687,45735
5307,56638,45662
5248,56585,45584
5184,56530,45502
5117,56472,45417
5047,56414,45328
4978,56356,45236
4912,56297,45143
4847,56239,45048
4781,56179,44950
4716,56119,44854
4654,56061,44763
4594,56010,44678
4536,55964,44594
4478,55918,44511
4418,55870,44430
4358,55821,44350
4300,55772,44271
4244,55723,44190
4190,55675,44109
4135,55626,44028
4080,55576,43947
4025,55526,43868
3971,55479,43792
3918,55434,43719
3868,55393,43648
3818,55353,43578
3764,55309,43508
3710,55262,43439
3659,55216,43372
3613,55172,43303
3569,55130,43234
3523,55091,43166
3475,55056,43100
3426,55020,43034
3376,54982,42968
3328,54943,42906
3282,54907,42849
3240,54877,42792
3201,54846,42733
3161,54816,42673
3125,54785,42613
3089,54755,42555
3050,54724,42498
3009,54693,42444
2969,54662,42390
2927,54628,42334
2881,54591,42276
2835,54553,42217
2791,54516,42158
2746,54476,42097
2697,54435,42035
2650,54396,41973
2605,54358,41911
2561,54319,41848
2516,54280,41783
2468,54238,41715
2417,54195,41643
2363,54151,41570
2307,54107,41495
2252,54061,41418
2198,54012,41339
2141,53959,41258
2082,53904,41177
2022,53849,41092
1960,53794,41002
1897,53739,40909
1834,53684,40814
1771,53630,40717
1705,53579,40619
1636,53529,40520
1565,53479,40421
1491,53428,40323
1417,53376,40228
1347,53324,40139
1285,53272,40058
1237,53227,39988
1203,53194,39941
1187,53178,39924
1195,53186,39946
1238,53224,40015
1318,53298,40138
1444,53408,40320
1619,53559,40564
1846,53752,40870
2119,53982,41236
2432,54244,41654
2780,54533,42116
3152,54841,42610
3535,55157,43123
3915,55469,43642
4279,55769,44149
4624,56053,44630
4944,56318,45079
5237,56563,45490
5498,56784,45860
5726,56980,46185
5921,57148,46465
6084,57290,46705
6222,57409,46907
6338,57506,47072
6431,57583,47205
6504,57642,47309
6560,57686,47387
6603,57718,47443
6632,57738,47481
6650,57748,47503
6663,57754,47517
6673,57759,47525
6682,57763,47530
6689,57765,47532
6693,57763,47533
6694,57760,47536
6693,57755,47539
6691,57749,47537
6687,57746,47534
6680,57747,47533
6673,57749,47534
6667,57748,47532
6661,57747,47526
6657,57744,47516
6650,57738,47499
6638,57726,47475
6619,57708,47444
6593,57683,47407
6561,57654,47363
6527,57622,47312
6489,57587,47253
6445,57546,47188
6397,57501,47119
6346,57453,47046
6293,57404,46968
6240,57355,46888
6189,57306,46812
6143,57262,46742
6102,57226,46679
6063,57195,46622
6028,57167,46571
5997,57142,46526
5970,57124,46488
5949,57111,46457
5933,57101,46430
5921,57093,46407
5911,57087,46389
5900,57080,46375
5891,57071,46365
5884,57063,46358
5880,57051,46350
5877,57040,46340
5875,57035,46329
5872,57036,46318
5870,57036,46305
5863,57032,46290
5852,57024,46270
5836,57010,46243
5813,56990,46212
5782,56965,46177
5747,56939,46139
5711,56911,46097
5671,56882,46047
5630,56850,45991
5588,56816,45928
5545,56780,45861
5500,56739,45788
5449,56691,45710
5392,56638,45628
5332,56585,45544
5270,56533,45461
5209,56480,45378
5149,56430,45294
5091,56381,45207
5033,56332,45122
4974,56280,45039
4913,56227,44955
4850,56174,44870
4785,56120,44784
4719,56063,44696
4657,56008,44609
4600,55956,44527
4543,55906,44451
4486,55858,44378
4430,55815,44306
4377,55775,44236
4325,55735,44166
4272,55694,44094
4221,55653,44020
4171,55611,43945
4121,55569,43870
4073,55527,43795
4027,55485,43723
3984,55446,43656
3939,55407,43591
3892,55368,43525
3846,55330,43457
3802,55293,43390
3757,55255,43325
3710,55217,43262
3661,55181,43199
3613,55146,43135
3564,55110,43070
3512,55071,43001
3458,55030,42930
3406,54987,42859
3353,54940,42788
3302,54894,42719
3255,54850,42648
3209,54806,42579
3163,54760,42512
3117,54715,42446
3072,54671,42381
3025,54629,42316
2977,54588,42249
2929,54548,42183
2882,54508,42119
2830,54465,42052
2773,54419,41982
2716,54372,41909
2661,54325,41833
2609,54275,41758
2555,54226,41683
2498,54178,41609
2440,54132,41532
2380,54084,41451
2317,54035,41366
2256,53986,41279
2197,53938,41193
2134,53887,41105
2066,53832,41015
1997,53775,40922
1929,53719,40827
1860,53662,40732
1787,53603,40635
1715,53544,40538
1646,53487,40441
1578,53430,40345
1512,53374,40251
1448,53322,40161
1386,53274,40081
1328,53231,40013
1281,53198,39963
1256,53180,39935
1257,53182,39937
1288,53208,39979
1355,53266,40070
1462,53360,40219
1614,53492,40427
1810,53662,40698
2054,53871,41033
2342,54116,41428
2669,54389,41875
3025,54684,42360
3398,54992,42868
3776,55306,43380
4147,55613,43882
4499,55907,44364
4828,56182,44815
5131,56435,45229
5406,56665,45605
5651,56868,45944
5867,57045,46242
6053,57198,46498
6209,57330,46716
6338,57441,46899
6442,57532,47049
6524,57606,47171
6588,57662,47269
6636,57702,47343
6672,57731,47397
6694,57748,47432
6705,57756,47452
6710,57757,47462
6713,57754,47463
6715,57751,47459
6713,57748,47453
6709,57740,47445
6707,57729,47434
6706,57714,47424
6701,57699,47417
6693,57686,47408
6687,57678,47398
6681,57674,47388
6674,57670,47381
6664,57663,47371
6650,57654,47355
6631,57644,47331
6607,57627,47299
6575,57606,47258
6538,57580,47211
6498,57549,47158
6456,57513,47098
6413,57474,47030
6368,57431,46957
6318,57387,46880
6264,57342,46801
6208,57297,46725
6154,57254,46652
6102,57213,46584
6051,57174,46520
6001,57135,46461
5952,57099,46406
5907,57066,46357
5866,57036,46311
5829,57008,46267
5798,56983,46224
5773,56961,46186
5754,56943,46156
5740,56931,46130
5729,56922,46108
5720,56913,46089
5711,56905,46070
5700,56896,46051
5688,56884,46034
5674,56869,46016
5653,56852,45994
5627,56832,45966
5598,56811,45937
5569,56786,45908
5539,56757,45874
5509,56727,45832
5476,56695,45784
5438,56660,45730
5398,56622,45671
5357,56583,45607
5312,56541,45535
5259,56495,45459
5203,56445,45379
5144,56395,45294
5082,56342,45205
5013,56283,45110
4939,56224,45012
4866,56167,44914
4793,56111,44818
4720,56055,44721
4647,55998,44622
4575,55940,44522
4504,55881,44424
4432,55822,44329
4359,55761,44234
4288,55700,44138
4214,55640,44040
4136,55581,43941
4059,55522,43841
3984,55464,43743
3909,55406,43645
3837,55349,43548
3769,55295,43453
3704,55242,43360
3640,55189,43269
3576,55138,43182
3514,55089,43102
3457,55043,43024
3401,54994,42947
3345,54943,42869
3287,54893,42789
3229,54844,42712
3172,54794,42637
3115,54747,42562
3058,54704,42485
3004,54664,42408
2951,54621,42332
2900,54576,42258
2852,54535,42187
2804,54496,42117
2756,54457,42048
2704,54419,41980
2652,54381,41912
2602,54342,41845
2551,54300,41776
2496,54257,41705
2439,54217,41633
2383,54180,41563
2329,54143,41494
2279,54105,41423
2229,54063,41353
2178,54019,41286
2124,53979,41221
2067,53939,41155
2007,53897,41087
1945,53849,41016
1882,53798,40940
1820,53748,40862
1760,53699,40782
1699,53651,40700
1637,53602,40616
1574,53551,40529
1506,53496,40439
1433,53439,40347
1357,53381,40253
1281,53324,40157
1206,53265,40058
1128,53201,39958
1049,53137,39856
968,53070,39749
884,53001,39638
796,52932,39527
706,52863,39413
619,52797,39298
533,52734,39184
450,52673,39079
377,52618,38991
323,52572,38926
289,52545,38890
278,52540,38887
299,52563,38928
361,52620,39024
469,52713,39180
624,52846,39398
830,53020,39683
1086,53234,40036
1388,53487,40454
1730,53774,40928
2104,54090,41443
2502,54424,41985
2909,54764,42539
3312,55101,43091
3697,55425,43623
4061,55729,44121
4396,56005,44577
4695,56251,44984
4954,56463,45339
5174,56645,45642
5356,56799,45895
5504,56929,46103
5623,57036,46271
5716,57121,46404
5785,57183,46505
5835,57225,46574
5870,57250,46616
5891,57263,46640
5899,57265,46652
5898,57256,46652
5887,57239,46637
5868,57217,46611
5842,57191,46578
5812,57165,46544
5780,57141,46511
5750,57121,46475
5719,57101,46438
5690,57081,46400
5663,57060,46360
5638,57039,46322
5612,57016,46285
5582,56990,46243
5550,56962,46198
5514,56932,46150
5476,56900,46095
5435,56867,46033
5388,56831,45965
5333,56787,45893
5274,56737,45816
5214,56685,45734
5153,56633,45650
5090,56582,45567
5026,56529,45485
4962,56478,45408
4901,56433,45337
4845,56392,45272
4794,56355,45212
4751,56324,45155
4716,56295,45103
4689,56270,45056
4673,56252,45018
4665,56239,44994
4662,56232,44982
4662,56230,44979
4663,56230,44980
4668,56234,44987
4679,56240,45000
4690,56247,45015
4700,56255,45030
4709,56265,45044
4717,56275,45055
4721,56285,45061
4717,56291,45061
4707,56291,45054
4692,56287,45041
4671,56276,45020
4645,56260,44991
4613,56238,44954
4576,56211,44904
4533,56177,44845
4483,56140,44779
4429,56100,44708
4371,56057,44630
4307,56008,44549
4240,55953,44462
4171,55893,44370
4098,55827,44272
4023,55757,44170
3946,55687,44065
3871,55621,43959
3794,55556,43855
3715,55492,43752
3638,55432,43651
3565,55377,43551
3494,55324,43453
3423,55272,43355
3354,55217,43258
3288,55161,43161
3220,55105,43065
3151,55048,42971
3082,54991,42878
3015,54934,42786
2952,54878,42696
2894,54829,42612
2841,54784,42533
2791,54741,42460
2741,54697,42392
2687,54653,42327
2632,54609,42261
2582,54569,42197
2537,54530,42135
2494,54491,42076
2452,54455,42018
2411,54420,41959
2370,54384,41900
2328,54346,41840
2285,54308,41780
2243,54274,41721
2203,54241,41665
2165,54209,41610
2131,54178,41557
2098,54148,41503
2062,54118,41451
2023,54089,41400
1985,54061,41347
1947,54032,41292
1908,53999,41235
1870,53962,41175
1831,53923,41113
1791,53885,41051
1749,53851,40992
1707,53820,40933
1664,53787,40871
1616,53747,40805
1565,53704,40737
1513,53660,40667
1459,53618,40592
1401,53577,40514
1337,53531,40433
1272,53479,40347
1206,53423,40257
1141,53365,40167
1076,53305,40075
1012,53245,39980
947,53185,39885
882,53125,39791
816,53067,39699
751,53011,39609
687,52959,39526
628,52915,39454
578,52881,39398
545,52862,39363
532,52861,39356
549,52881,39384
599,52928,39456
688,53010,39577
818,53129,39756
993,53284,39999
1214,53476,40306
1479,53703,40672
1783,53958,41089
2117,54237,41548
2475,54532,42036
2849,54836,42538
3226,55138,43038
3590,55431,43526
3933,55710,43990
4251,55970,44420
4541,56206,44809
4797,56415,45154
5019,56598,45454
5206,56753,45708
5358,56880,45918
5475,56979,46086
5563,57055,46217
5625,57113,46318
5665,57151,46395
5689,57173,46444
5703,57182,46470
5710,57180,46478
5705,57169,46471
5691,57155,46452
5673,57137,46422
5650,57114,46381
5621,57081,46331
5587,57044,46278
5550,57007,46222
5510,56969,46167
5470,56929,46113
5430,56890,46058
5393,56854,46002
5358,56820,45945
5322,56788,45888
5281,56756,45829
5233,56719,45765
5181,56677,45695
5124,56629,45620
5064,56579,45538
5002,56528,45452
4941,56477,45366
4880,56428,45279
4820,56380,45191
4765,56336,45107
4711,56295,45028
4662,56256,44957
4618,56219,44894
4578,56186,44840
4540,56157,44794
4509,56133,44760
4487,56116,44736
4477,56106,44723
4476,56101,44717
4479,56100,44714
4485,56104,44714
4494,56113,44714
4505,56124,44718
4518,56137,44725
4534,56150,44732
4550,56162,44739
4560,56171,44745
4563,56175,44748
4561,56175,44748
4557,56171,44743
4547,56163,44735
4535,56151,44723
4521,56135,44705
4505,56116,44679
4483,56094,44648
4452,56065,44609
4415,56030,44563
4375,55994,44511
4330,55958,44452
4282,55919,44386
4231,55878,44315
4177,55836,44241
4117,55790,44162
4054,55740,44078
3989,55688,43989
3925,55634,43898
3859,55574,43802
3790,55511,43704
3722,55449,43606
3655,55387,43509
3587,55327,43415
3521,55269,43321
3458,55215,43230
3396,55162,43141
3332,55111,43054
3269,55062,42969
3207,55016,42886
3146,54971,42803
3083,54925,42720
3020,54878,42639
2959,54832,42560
2903,54784,42483
2853,54736,42409
2807,54689,42339
2764,54646,42272
2718,54603,42206
2670,54561,42143
2621,54521,42082
2574,54483,42020
2529,54446,41959
2485,54411,41900
2445,54379,41845
2410,54351,41795
2378,54323,41748
2343,54297,41701
2309,54273,41653
2275,54249,41603
2240,54222,41553
2206,54194,41502
2172,54164,41449
2138,54133,41397
2104,54100,41345
2072,54069,41292
2042,54038,41238
2010,54008,41186
1974,53979,41135
1936,53949,41085
1898,53915,41032
1860,53880,40976
1820,53844,40919
1780,53807,40864
1737,53768,40808
1691,53730,40749
1642,53692,40687
1591,53653,40622
1539,53613,40553
1488,53570,40479
1437,53526,40402
1386,53479,40325
1334,53431,40245
1278,53382,40159
1219,53329,40069
1159,53277,39978
1101,53229,39892
1045,53185,39813
993,53146,39745
952,53117,39697
928,53104,39672
927,53110,39678
955,53140,39722
1017,53199,39812
1121,53288,39955
1265,53409,40156
1450,53565,40414
1679,53757,40731
1954,53984,41107
2270,54241,41537
2617,54527,42011
2986,54832,42512
3368,55146,43022
3751,55458,43529
4121,55759,44020
4469,56043,44485
4792,56308,44920
5085,56549,45320
5342,56762,45677
5569,56952,45991
5768,57118,46263
5940,57258,46495
6083,57378,46691
6198,57483,46855
6289,57568,46991
6360,57634,47102
6416,57682,47187
6464,57717,47252
6503,57742,47302
6533,57759,47337
6555,57769,47363
6570,57777,47385
6578,57782,47401
6583,57781,47409
6585,57777,47411
6586,57774,47410
6586,57771,47411
6582,57770,47411
6576,57771,47413
6571,57775,47416
6569,57780,47420
6568,57785,47420
6568,57788,47415
6566,57789,47408
6559,57786,47399
6548,57779,47385
6532,57766,47362
6511,57746,47329
6484,57720,47287
6452,57687,47237
6416,57650,47177
6377,57609,47112
6335,57566,47043
6289,57523,46971
6244,57483,46903
6201,57443,46839
6160,57407,46780
6122,57376,46726
6090,57352,46678
6064,57332,46637
6044,57314,46603
6027,57299,46573
6014,57288,46548
6004,57280,46527
5998,57272,46510
5996,57267,46498
6002,57263,46489
6013,57261,46483
6022,57260,46481
6025,57260,46483
6024,57260,46484
6022,57258,46482
6021,57257,46474
6021,57254,46462
6021,57252,46448
6019,57245,46435
6012,57234,46419
6002,57219,46398
5989,57202,46371
5970,57183,46340
5944,57163,46306
5911,57142,46267
5875,57115,46226
5834,57082,46184
5789,57043,46136
5742,57002,46080
5691,56956,46014
5639,56908,45942
5588,56860,45866
5536,56816,45789
5484,56775,45715
5433,56735,45642
5385,56694,45569
5338,56654,45495
5289,56612,45419
5239,56568,45345
5190,56523,45272
5141,56480,45198
5092,56436,45124
5041,56391,45051
4991,56348,44979
4940,56306,44908
4891,56268,44842
4845,56231,44780
4800,56195,44719
4757,56161,44661
4715,56126,44605
4673,56088,44549
4632,56047,44492
4590,56007,44436
4546,55968,44381
4501,55931,44326
4459,55895,44270
4420,55863,44214
4381,55834,44158
4343,55807,44106
4310,55780,44056
4279,55751,44005
4249,55722,43955
4220,55691,43903
4191,55659,43848
4160,55627,43792
4126,55593,43736
4088,55559,43685
4050,55529,43638
4013,55502,43595
3977,55475,43553
3944,55447,43510
3914,55421,43462
3882,55395,43411
3845,55365,43356
3804,55333,43297
3763,55298,43235
3718,55262,43171
3670,55224,43105
3617,55186,43037
3565,55144,42968
3512,55100,42899
3458,55055,42831
3402,55009,42763
3344,54962,42692
3286,54915,42615
3229,54867,42535
3172,54817,42455
3115,54764,42374
3056,54706,42291
2994,54649,42210
2933,54595,42130
2872,54548,42052
2812,54505,41977
2754,54466,41906
2703,54430,41840
2666,54402,41787
2646,54385,41757
2648,54387,41757
2678,54411,41794
2740,54465,41876
2834,54551,42013
2967,54669,42206
3145,54824,42454
3365,55014,42753
3618,55231,43099
3901,55471,43486
4206,55729,43903
4519,55996,44336
4829,56263,44770
5132,56521,45194
5427,56767,45600
5710,56999,45986
5976,57214,46349
6220,57412,46683
6445,57594,46988
6648,57760,47264
6830,57907,47510
6990,58036,47725
7131,58148,47912
7251,58242,48074
7351,58320,48212
7432,58386,48329
7499,58440,48424
7555,58485,48502
7601,58525,48565
7638,58559,48615
7668,58588,48654
7691,58613,48684
7708,58632,48709
7723,58645,48725
7735,58652,48733
7745,58657,48741
7753,58660,48751
7762,58663,48761
7774,58668,48770
7788,58674,48780
7800,58679,48791
7810,58682,48801
7820,58684,48809
7826,58683,48815
7829,58678,48815
7830,58672,48809
7828,58666,48800
7818,58656,48782
7800,58637,48753
7772,58612,48714
7737,58584,48665
7694,58549,48606
7646,58510,48540
7596,58471,48472
7548,58434,48406
7498,58401,48340
7451,58369,48275
7409,58338,48212
7368,58305,48156
7331,58274,48108
7302,58245,48069
7279,58222,48037
7261,58203,48011
7246,58186,47989
7232,58174,47968
7220,58165,47947
7210,58161,47928
7204,58160,47915
7200,58158,47905
7195,58154,47895
7190,58150,47884
7182,58148,47872
7176,58149,47860
7173,58149,47844
7169,58143,47823
7163,58132,47801
7156,58117,47779
7146,58100,47758
7131,58081,47732
7109,58060,47703
7083,58036,47670
7052,58009,47632
7017,57975,47586
6978,57937,47534
6935,57899,47474
6889,57858,47410
6840,57817,47347
6791,57779,47285
6744,57741,47220
6699,57701,47152
6651,57656,47082
6601,57610,47010
6551,57566,46938
6501,57525,46869
6450,57484,46802
6399,57443,46735
6349,57404,46667
6301,57365,46600
6254,57325,46536
6209,57287,46473
6170,57252,46414
6135,57219,46358
6098,57187,46303
6061,57154,46250
6022,57118,46196
5979,57079,46139
5935,57042,46082
5893,57012,46026
5856,56985,45971
5820,56957,45919
5782,56926,45867
5743,56892,45814
5705,56857,45759
5666,56820,45704
5624,56782,45648
5583,56745,45590
5544,56707,45531
5505,56669,45472
5464,56633,45414
5421,56598,45358
5380,56567,45302
5339,56536,45247
5297,56504,45193
5256,56471,45137
5212,56434,45079
5166,56393,45020
5117,56352,44960
5067,56313,44902
5016,56274,44843
4967,56237,44781
4921,56203,44720
4879,56172,44662
4836,56140,44604
4791,56106,44546
4745,56071,44484
4701,56037,44422
4659,55999,44361
4617,55959,44301
4573,55918,44242
4527,55877,44179
4481,55834,44112
4433,55788,44042
4383,55741,43968
4328,55695,43889
4271,55650,43809
4212,55603,43727
4152,55555,43645
4091,55508,43564
4031,55458,43484
3970,55403,43401
3911,55347,43320
3853,55297,43244
3796,55252,43172
3739,55210,43105
3690,55172,43044
3653,55142,42996
3630,55122,42964
3623,55117,42953
3637,55133,42974
3680,55177,43034
3759,55250,43142
3875,55353,43304
4029,55492,43520
4222,55663,43789
4450,55859,44103
4704,56076,44453
4976,56306,44827
5259,56547,45216
5546,56793,45613
5829,57038,46009
6108,57277,46395
6376,57504,46766
6628,57715,47118
6862,57911,47447
7076,58091,47750
7270,58256,48027
7443,58404,48273
7596,58534,48484
7731,58643,48662
7845,58731,48812
7935,58802,48939
8007,58860,49042
8065,58907,49125
8111,58945,49191
8149,58974,49242
8181,58997,49281
8208,59015,49310
8227,59026,49331
8237,59033,49344
8240,59039,49350
8242,59042,49351
8244,59044,49351
8244,59045,49351
8241,59047,49352
8241,59051,49358
8243,59058,49367
8247,59065,49376
8250,59070,49383
8250,59074,49387
8244,59074,49387
8234,59070,49380
8220,59060,49366
8205,59044,49344
8185,59021,49312
8159,58992,49273
8128,58960,49227
8093,58923,49174
8052,58883,49111
8004,58838,49040
7951,58793,48965
7898,58747,48889
7845,58702,48813
7793,58658,48740
7743,58616,48671
7699,58580,48611
7662,58548,48560
7630,58521,48517
7601,58498,48479
7574,58477,48446
7551,58458,48419
7532,58445,48400
7522,58436,48387
7518,58430,48378
7518,58426,48369
7517,58426,48359
7517,58427,48349
7516,58426,48339
7511,58423,48326
7502,58420,48313
7493,58417,48300
7481,58411,48288
7466,58399,48272
7445,58385,48251
7420,58369,48224
7393,58348,48194
7368,58322,48161
7342,58293,48122
7315,58263,48076
7282,58233,48022
7244,58199,47964
7200,58162,47904
7153,58122,47841
7103,58077,47773
7047,58028,47703
6988,57979,47631
6929,57932,47557
6870,57883,47479
6809,57833,47397
6749,57785,47315
6689,57739,47233
6630,57692,47152
6573,57646,47071
6517,57600,46990
6461,57557,46911
6404,57515,46836
6348,57473,46765
6293,57430,46697
6239,57387,46629
6185,57342,46565
6134,57301,46506
6088,57262,46448
6046,57225,46391
6005,57188,46333
5964,57151,46274
5926,57116,46216
5888,57084,46160
5847,57054,46106
5806,57025,46053
5767,56997,46000
5728,56970,45946
5685,56941,45890
5642,56909,45832
5601,56876,45775
5560,56843,45718
5519,56807,45661
5478,56769,45605
5438,56730,45551
5399,56690,45497
5358,56652,45444
5319,56619,45390
5282,56588,45335
5245,56555,45282
5209,56520,45229
5171,56486,45176
5130,56453,45120
5086,56419,45062
5041,56384,45003
4996,56347,44943
4950,56310,44883
4903,56271,44823
4855,56232,44760
4806,56191,44691
4755,56148,44618
4700,56104,44545
4641,56060,44473
4578,56017,44399
4515,55969,44322
4451,55916,44243
4390,55863,44164
4329,55810,44083
4265,55754,43999
4195,55695,43911
4121,55636,43820
4047,55578,43727
3973,55523,43633
3899,55469,43540
3830,55417,43450
3768,55370,43364
3716,55327,43285
3671,55290,43215
3635,55264,43158
3610,55249,43120
3598,55246,43108
3607,55262,43128
3646,55302,43187
3722,55370,43293
3837,55470,43452
3992,55604,43666
4187,55767,43936
4420,55960,44256
4684,56181,44619
4970,56422,45016
5268,56676,45432
5572,56936,45850
5871,57191,46263
6159,57437,46665
6433,57671,47046
6690,57889,47403
6925,58089,47731
7136,58268,48027
7323,58426,48285
7488,58564,48506
7629,58683,48692
7746,58783,48852
7844,58867,48985
7922,58935,49092
7979,58984,49172
8021,59018,49228
8050,59041,49266
8069,59056,49291
8078,59062,49304
8079,59058,49307
8074,59048,49303
8063,59034,49292
8046,59016,49275
8025,58997,49255
8006,58978,49234
7991,58961,49214
7978,58946,49195
7965,58932,49178
7955,58922,49162
7944,58914,49145
7932,58909,49126
7915,58903,49104
7891,58893,49078
7861,58876,49045
7826,58851,49005
7788,58819,48955
7747,58783,48891
7700,58740,48817
7646,58691,48736
7590,58641,48650
7534,58590,48562
7478,58537,48477
7421,58483,48395
7366,58432,48317
7316,58387,48248
7273,58351,48190
7238,58321,48142
7212,58300,48102
7196,58285,48072
7187,58275,48051
7181,58269,48035
7182,58268,48026
7187,58272,48024
7195,58282,48030
7206,58296,48043
7220,58313,48061
7234,58331,48082
7247,58346,48104
7256,58357,48119
7261,58361,48123
7263,58361,48123
7262,58360,48123
7262,58360,48119
7260,58355,48106
7255,58346,48089
7244,58334,48069
7229,58319,48044
7210,58303,48016
7187,58280,47983
7159,58252,47942
7125,58222,47895
7086,58189,47842
7043,58153,47782
6999,58113,47720
6954,58070,47656
6905,58025,47588
6852,57978,47518
6797,57929,47444
6741,57878,47369
6682,57828,47293
6623,57779,47216
6563,57732,47140
6508,57688,47063
6457,57646,46985
6406,57606,46908
6357,57567,46832
6307,57529,46757
6256,57487,46681
6203,57443,46607
6152,57401,46535
6105,57361,46467
6062,57323,46402
6019,57283,46341
5978,57242,46282
5941,57201,46225
5905,57164,46170
5869,57131,46120
5835,57100,46070
5805,57071,46022
5774,57045,45977
5741,57019,45933
5708,56994,45887
5675,56967,45837
5641,56939,45790
5604,56909,45746
5567,56879,45702
5531,56850,45658
5497,56823,45615
5465,56801,45573
5436,56784,45531
5407,56766,45489
5378,56744,45443
5347,56718,45392
5315,56688,45338
5283,56656,45285
5250,56623,45235
5214,56591,45185
5178,56559,45132
5142,56522,45073
5102,56481,45010
5057,56437,44944
5007,56391,44875
4953,56348,44803
4895,56305,44729
4837,56260,44652
4778,56213,44571
4717,56166,44488
4656,56118,44402
4594,56071,44316
4535,56023,44230
4478,55975,44146
4423,55926,44064
4370,55878,43984
4318,55836,43908
4269,55801,43842
4225,55770,43786
4191,55744,43741
4170,55729,43714
4169,55728,43714
4191,55745,43750
4241,55790,43829
4329,55868,43956
4456,55978,44132
4621,56119,44357
4820,56286,44628
5053,56480,44941
5316,56696,45290
5599,56926,45662
5891,57166,46044
6184,57410,46430
6471,57653,46813
6749,57888,47185
7014,58111,47541
7264,58318,47876
7493,58506,48188
7699,58673,48470
7882,58821,48717
8044,58948,48928
8182,59057,49105
8298,59148,49249
8394,59222,49367
8469,59280,49464
8523,59319,49540
8561,59345,49599
8587,59363,49641
8607,59376,49668
8620,59383,49684
8626,59384,49690
8626,59381,49686
8621,59375,49675
8613,59366,49661
8604,59353,49645
8596,59341,49631
8585,59333,49617
8576,59326,49604
8568,59319,49590
8562,59313,49576
8557,59306,49562
8548,59296,49546
8532,59280,49524
8511,59260,49494
8487,59233,49456
8458,59201,49410
8422,59166,49355
8380,59131,49291
8331,59094,49223
8276,59055,49151
8219,59015,49074
8164,58972,48997
8111,58926,48924
8057,58882,48854
8008,58839,48786
7965,58800,48720
7928,58767,48663
7897,58741,48617
7872,58721,48584
7855,58709,48559
7845,58702,48540
7841,58699,48529
7843,58696,48524
7849,58693,48524
7859,58690,48527
7870,58690,48530
7881,58691,48530
7892,58695,48527
7898,58700,48524
7900,58705,48522
7902,58709,48519
7903,58713,48511
7901,58710,48498
7891,58701,48481
7876,58687,48459
7857,58669,48433
7834,58648,48400
7803,58624,48360
7767,58599,48311
7728,58571,48254
7684,58537,48193
7637,58496,48131
7588,58452,48070
7539,58407,48008
7489,58362,47943
7440,58317,47874
7392,58270,47805
7342,58221,47736
7288,58171,47664
7234,58120,47589
7181,58072,47513
7127,58024,47436
7070,57976,47359
7015,57931,47279
6962,57888,47199
6911,57847,47123
6861,57805,47052
6810,57762,46983
6760,57720,46915
6711,57678,46850
6662,57637,46788
6617,57599,46727
6576,57562,46666
6537,57526,46605
6501,57495,46544
6463,57465,46482
6424,57434,46420
6383,57405,46365
6342,57375,46312
6303,57342,46259
6266,57309,46206
6230,57275,46154
6196,57239,46105
6163,57202,46057
6130,57167,46009
6096,57134,45963
6061,57102,45917
6022,57070,45868
5983,57039,45820
5947,57011,45772
5914,56985,45725
5879,56960,45675
5843,56935,45622
5805,56908,45567
5767,56880,45511
5734,56850,45455
5701,56817,45400
5664,56781,45343
5626,56742,45285
5586,56703,45227
5545,56664,45166
5506,56625,45106
5468,56588,45048
5425,56553,44992
5378,56518,44935
5330,56480,44874
5283,56439,44807
5235,56397,44738
5186,56354,44665
5133,56312,44587
5080,56271,44506
5025,56227,44425
4969,56179,44347
4913,56129,44271
4858,56077,44190
4803,56026,44107
4747,55976,44025
4693,55930,43950
4649,55892,43890
4619,55868,43851
4607,55859,43838
4617,55869,43853
4653,55902,43903
4721,55961,43994
4823,56048,44133
4962,56169,44323
5141,56325,44568
5358,56513,44863
5604,56726,45205
5871,56957,45581
6157,57202,45981
6458,57458,46396
6761,57715,46813
7058,57967,47220
7345,58208,47613
7619,58436,47986
7876,58648,48333
8114,58844,48652
8332,59023,48945
8527,59186,49212
8701,59330,49451
8856,59456,49658
8991,59563,49838
9107,59655,49993
9208,59732,50124
9296,59797,50230
9369,59852,50316
9427,59895,50387
9472,59929,50445
9508,59954,50491
9537,59971,50527
9564,59985,50555
9587,60000,50577
9604,60016,50594
9616,60032,50612
9625,60047,50627
9632,60058,50639
9636,60068,50648
9642,60078,50656
9648,60087,50667
9654,60095,50680
9664,60104,50694
9675,60114,50707
9684,60122,50716
9687,60125,50717
9688,60124,50711
9685,60117,50697
9671,60104,50674
9646,60083,50643
9613,60055,50600
9573,60019,50547
9527,59976,50483
9480,59929,50412
9436,59882,50336
9390,59836,50259
9342,59788,50184
9293,59742,50113
9243,59697,50045
9193,59655,49983
9148,59615,49925
9112,59581,49874
9084,59552,49827
9058,59526,49786
9032,59505,49750
9012,59490,49720
9001,59480,49697
8996,59475,49684
8992,59474,49674
8989,59474,49666
8984,59473,49660
8977,59470,49653
8968,59463,49644
8960,59453,49633
8951,59442,49619
8940,59427,49601
8925,59411,49580
8906,59396,49554
8884,59379,49525
8858,59360,49491
8831,59339,49455
8802,59313,49413
8771,59283,49368
8737,59250,49320
8698,59218,49267
8659,59187,49209
8619,59156,49148
8577,59122,49083
8530,59085,49014
8481,59046,48944
8431,59003,48874
8378,58958,48805
8324,58909,48733
8270,58860,48660
8214,58812,48585
8157,58765,48506
8100,58717,48427
8045,58669,48347
7990,58623,48268
7935,58579,48190
7884,58538,48117
7836,58497,48047
7789,58455,47980
7743,58414,47917
7698,58374,47856
7654,58337,47793
7609,58299,47727
7564,58260,47662
7520,58219,47600
7478,58180,47539
7439,58143,47481
7402,58109,47422
7366,58078,47364
7331,58046,47309
7293,58013,47255
7254,57980,47202
7215,57948,47147
7178,57917,47093
7139,57886,47037
7098,57853,46981
7055,57822,46926
7013,57791,46870
6969,57758,46813
6925,57724,46754
6882,57689,46693
6840,57655,46634
6800,57623,46576
6760,57589,46519
6722,57554,46463
6683,57517,46405
6643,57477,46346
6603,57437,46285
6563,57399,46224
6522,57361,46165
6478,57322,46106
6433,57284,46048
6389,57249,45989
6343,57212,45929
6293,57173,45870
6239,57132,45808
6184,57088,45739
6125,57039,45665
6065,56983,45586
6005,56925,45503
5947,56869,45417
5888,56815,45328
5825,56762,45241
5762,56709,45156
5699,56657,45073
5637,56604,44991
5575,56552,44912
5517,56506,44836
5467,56465,44763
5423,56430,44699
5385,56400,44649
5357,56380,44616
5347,56373,44605
5361,56387,44627
5405,56427,44689
5481,56497,44796
5595,56599,44954
5747,56735,45164
5936,56902,45420
6157,57097,45715
6402,57314,46044
6665,57545,46399
6937,57785,46771
7215,58026,47149
7493,58264,47525
7765,58494,47892
8028,58712,48243
8277,58917,48575
8509,59107,48881
8719,59277,49160
8908,59427,49411
9077,59558,49636
9224,59673,49836
9350,59774,50011
9456,59857,50158
9544,59924,50281
9617,59977,50382
9676,60018,50465
9723,60051,50531
9759,60079,50581
9785,60099,50615
9804,60114,50639
9816,60125,50656
9825,60134,50668
9831,60138,50673
9832,60139,50672
9833,60140,50667
9836,60145,50664
9839,60150,50663
9841,60153,50663
9844,60157,50664
9848,60162,50666
9850,60165,50673
9849,60167,50682
9846,60168,50688
9842,60165,50686
9836,60156,50675
9825,60141,50655
9808,60122,50625
9785,60099,50587
9756,60073,50541
9722,60041,50488
9683,60000,50426
9638,59955,50357
9588,59909,50283
9538,59862,50205
9488,59815,50127
9439,59772,50054
9392,59732,49985
9346,59694,49919
9305,59660,49858
9266,59631,49805
9232,59605,49762
9204,59582,49725
9181,59562,49694
9163,59547,49668
9146,59531,49645
9130,59515,49623
9112,59501,49601
9094,59489,49580
9077,59479,49563
9064,59467,49547
9053,59454,49530
9045,59439,49513
9037,59427,49495
9028,59420,49474
9016,59413,49450
8997,59399,49425
8973,59379,49396
8945,59356,49361
8915,59331,49319
8883,59303,49272
8848,59274,49224
8813,59248,49175
8777,59221,49119
8735,59190,49058
8687,59155,48993
8636,59116,48923
8582,59071,48850
8526,59024,48777
8467,58975,48704
8404,58923,48632
8338,58870,48558
8268,58817,48482
8197,58763,48401
8128,58709,48318
8065,58657,48233
8005,58604,48147
7948,58553,48060
7893,58503,47973
7836,58455,47890
7776,58403,47811
7715,58352,47733
7653,58301,47652
7590,58249,47569
7527,58198,47487
7467,58150,47407
7412,58103,47330
7359,58056,47257
7304,58008,47190
7251,57962,47127
7200,57920,47065
7152,57880,47000
7104,57843,46932
7055,57806,46864
7005,57771,46796
6956,57736,46729
6908,57700,46664
6864,57665,46599
6824,57632,46537
6782,57600,46479
6738,57565,46423
6696,57528,46367
6653,57488,46309
6603,57445,46249
6550,57403,46191
6498,57362,46134
6448,57322,46079
6399,57282,46020
6348,57238,45953
6298,57192,45883
6250,57145,45814
6199,57099,45747
6148,57055,45680
6099,57016,45616
6052,56978,45551
6004,56938,45484
5952,56896,45412
5901,56855,45338
5851,56815,45265
5800,56772,45192
5748,56729,45118
5696,56685,45040
5642,56637,44960
5583,56586,44881
5520,56534,44801
5455,56481,44717
5389,56427,44628
5321,56370,44534
5252,56312,44439
5182,56251,44345
5111,56190,44254
5040,56131,44166
4971,56076,44080
4907,56025,43996
4846,55980,43916
4791,55939,43842
4744,55906,43780
4712,55885,43739
4697,55877,43727
4707,55888,43749
4750,55927,43813
4833,56001,43926
4955,56110,44094
5117,56253,44320
5319,56427,44603
5557,56633,44937
5826,56863,45307
6117,57109,45704
6419,57366,46111
6721,57623,46517
7015,57873,46914
7297,58113,47294
7564,58338,47653
7812,58548,47986
8036,58737,48287
8234,58902,48556
8405,59045,48792
8550,59168,48997
8671,59270,49170
8770,59354,49313
8851,59423,49427
8915,59480,49515
8962,59522,49579
8994,59549,49625
9013,59562,49652
9020,59566,49665
9018,59564,49667
9011,59561,49664
9002,59558,49658
8989,59554,49648
8975,59549,49634
8959,59543,49615
8944,59534,49594
8929,59523,49574
8914,59510,49558
8902,59500,49542
8893,59491,49524
8884,59479,49506
8877,59465,49490
8871,59452,49473
8861,59438,49451
8842,59421,49424
8816,59400,49390
8785,59376,49349
8751,59348,49301
8712,59314,49245
8668,59274,49183
8621,59230,49115
8572,59185,49044
8520,59138,48969
8469,59093,48892
8419,59049,48816
8369,59004,48744
8319,58957,48677
8271,58912,48615
8229,58873,48559
8189,58837,48509
8154,58806,48462
8126,58781,48420
8102,58764,48384
8082,58753,48358
8065,58747,48340
8054,58746,48329
8049,58751,48322
8048,58755,48317
8050,58755,48314
8053,58755,48314
8056,58756,48318
8057,58759,48324
8056,58761,48329
8052,58761,48330
8044,58756,48325
8031,58747,48312
8010,58735,48292
7987,58722,48264
7961,58705,48226
7933,58685,48181
7902,58660,48131
7866,58630,48077
7824,58594,48018
7774,58552,47956
7720,58506,47887
7664,58457,47813
7605,58407,47737
7545,58358,47661
7482,58307,47581
7418,58253,47499
7354,58197,47415
7289,58137,47332
7225,58078,47249
7163,58022,47166
7101,57966,47082
7041,57914,46998
6981,57867,46914
6922,57821,46834
6867,57776,46759
6814,57730,46687
6758,57682,46614
6701,57635,46542
6642,57591,46468
6582,57548,46393
6521,57508,46317
6462,57466,46241
6406,57424,46166
6354,57380,46093
6304,57336,46022
6258,57294,45954
6211,57251,45889
6164,57208,45826
6118,57164,45763
6073,57121,45702
6027,57079,45645
5983,57040,45591
5941,57006,45540
5905,56974,45490
5871,56941,45440
5839,56908,45389
5805,56879,45339
5769,56853,45290
5729,56826,45241
5689,56798,45192
5651,56770,45142
5615,56741,45088
5580,56713,45033
5543,56685,44977
5504,56656,44921
5464,56625,44864
5423,56590,44803
5378,56553,44739
5331,56515,44675
5282,56476,44612
5233,56435,44547
5183,56393,44480
5132,56349,44407
5079,56305,44330
5020,56259,44250
4957,56210,44167
4893,56159,44081
4828,56104,43993
4763,56049,43905
4698,55994,43818
4636,55938,43732
4574,55886,43650
4516,55839,43577
4463,55795,43511
4420,55759,43455
4388,55734,43415
4371,55725,43397
4378,55739,43408
4418,55778,43458
4495,55843,43556
4610,55937,43705
4764,56065,43908
4957,56226,44165
5186,56420,44472
5446,56641,44821
5726,56878,45198
6019,57125,45590
6314,57374,45985
6605,57618,46371
6887,57852,46739
7155,58071,47083
7400,58271,47396
7620,58452,47680
7816,58613,47933
7988,58753,48155
8134,58872,48345
8256,58971,48504
8356,59048,48635
8434,59107,48740
8491,59151,48820
8531,59181,48875
8555,59198,48909
8567,59208,48926
8569,59208,48929
8557,59200,48916
8539,59185,48894
8517,59166,48869
8492,59145,48840
8466,59125,48808
8442,59103,48776
8417,59081,48744
8389,59060,48715
8361,59041,48689
8337,59024,48662
8314,59005,48633
8289,58981,48603
8262,58954,48570
8233,58925,48533
8201,58894,48488
8166,58859,48434
8127,58821,48371
8086,58783,48303
8045,58743,48234
8002,58700,48166
7956,58659,48098
7907,58619,48030
7856,58578,47959
7806,58537,47884
7758,58497,47812
7713,58459,47746
7671,58424,47686
7630,58392,47633
7594,58364,47590
7567,58343,47558
7549,58330,47535
7539,58323,47517
7535,58319,47503
7533,58316,47493
7530,58314,47488
7530,58313,47489
7534,58314,47491
7540,58316,47495
7547,58318,47499
7555,58322,47503
7562,58326,47505
7564,58323,47503
7561,58315,47499
7556,58305,47491
7548,58295,47477
7535,58284,47456
7518,58270,47428
7497,58254,47394
7473,58236,47356
7444,58212,47313
7411,58184,47264
7375,58154,47213
7339,58121,47157
7297,58085,47097
7251,58046,47036
7206,58006,46975
7164,57966,46912
7122,57922,46846
7077,57877,46778
7028,57832,46709
6978,57787,46637
6927,57745,46563
6874,57700,46487
6820,57652,46411
6765,57603,46332
6709,57554,46253
6650,57508,46173
6593,57466,46093
6539,57424,46016
6484,57382,45942
6430,57338,45871
6381,57297,45804
6335,57256,45739
6293,57214,45675
6252,57169,45611
6211,57125,45550
6169,57084,45491
6127,57048,45435
6085,57014,45379
6044,56980,45323
6003,56945,45267
5961,56911,45210
5920,56879,45153
5881,56848,45095
5843,56819,45039
5806,56792,44985
5770,56764,44934
5736,56734,44886
5703,56701,44840
5670,56669,44794
5636,56641,44747
5604,56617,44700
5574,56595,44655
5544,56573,44611
5512,56549,44564
5479,56523,44515
5444,56495,44466
5410,56465,44417
5377,56435,44365
5343,56405,44311
5305,56373,44253
5261,56341,44192
5213,56307,44128
5162,56270,44059
5111,56227,43987
5060,56179,43911
5011,56125,43834
4961,56071,43755
4906,56018,43678
4848,55967,43601
4791,55918,43524
4736,55871,43447
4679,55820,43371
4622,55769,43297
4572,55725,43223
4527,55688,43153
4485,55655,43092
4449,55625,43041
4422,55603,43000
4409,55591,42975
4415,55596,42976
4447,55626,43015
4514,55685,43102
4621,55775,43243
4772,55897,43437
4962,56052,43684
5189,56238,43981
5444,56450,44316
5717,56679,44680
6003,56918,45062
6296,57163,45452
6590,57405,45842
6878,57644,46222
7153,57873,46582
7410,58088,46918
7644,58284,47230
7856,58459,47516
8046,58614,47774
8212,58748,48000
8354,58865,48195
8474,58965,48358
8576,59049,48495
8663,59118,48610
8735,59173,48707
8791,59217,48782
8834,59251,48836
8865,59276,48872
8882,59291,48895
8887,59296,48905
8888,59297,48908
8886,59293,48903
8878,59284,48894
8864,59270,48882
8851,59255,48870
8840,59241,48857
8829,59227,48843
8816,59216,48829
8807,59210,48817
8804,59208,48808
8801,59209,48800
8798,59207,48789
8796,59202,48774
8792,59192,48757
8781,59176,48735
8763,59154,48706
8738,59128,48671
8708,59100,48629
8673,59068,48585
8636,59034,48537
8597,58999,48486
8557,58963,48431
8517,58927,48376
8478,58891,48319
8441,58856,48261
8405,58822,48203
8369,58790,48147
8337,58764,48095
8308,58745,48050
8282,58730,48014
8263,58719,47989
8251,58714,47972
8246,58713,47959
8245,58713,47950
8246,58714,47943
8246,58714,47936
8247,58716,47929
8247,58717,47922
8243,58716,47915
8240,58714,47907
8235,58708,47897
8227,58696,47885
8219,58680,47873
8213,58663,47858
8202,58647,47841
8185,58630,47821
8165,58611,47800
8145,58594,47775
8121,58576,47744
8094,58553,47709
8068,58530,47674
8047,58507,47638
8023,58482,47599
7996,58455,47554
7965,58426,47504
7930,58396,47450
7890,58361,47387
7844,58321,47319
7797,58279,47248
7752,58239,47179
7707,58198,47113
7660,58158,47050
7614,58117,46991
7573,58078,46933
7533,58040,46874
7492,58003,46814
7452,57972,46756
7415,57943,46700
7378,57913,46644
7341,57881,46588
7305,57848,46533
7271,57815,46480
7236,57782,46427
7198,57746,46373
7159,57708,46315
7119,57669,46256
7079,57631,46199
7037,57594,46144
6996,57561,46090
6958,57530,46038
6920,57499,45986
6884,57469,45932
6853,57440,45879
6824,57413,45830
6794,57386,45782
6760,57359,45731
6726,57332,45681
6692,57306,45634
6660,57284,45590
6628,57265,45549
6600,57245,45507
6571,57221,45464
6540,57195,45419
6507,57169,45371
6476,57145,45325
6447,57124,45280
6418,57103,45236
6390,57081,45190
6360,57054,45139
6326,57022,45086
6290,56985,45035
6255,56946,44986
6219,56908,44936
6181,56873,44883
6141,56837,44827
6101,56802,44770
6059,56766,44712
6013,56727,44652
5961,56683,44593
5907,56639,44532
5854,56594,44467
5800,56546,44399
5746,56498,44327
5692,56453,44252
5640,56411,44177
5590,56369,44103
5543,56327,44032
5500,56288,43963
5462,56253,43901
5430,56226,43853
5410,56213,43826
5409,56217,43825
5431,56241,43858
5479,56288,43931
5558,56359,44045
5675,56459,44204
5830,56589,44412
6019,56750,44665
6237,56938,44958
6476,57148,45285
6732,57370,45633
6999,57598,45995
7269,57826,46359
7539,58049,46717
7803,58265,47065
8057,58472,47399
8297,58667,47710
8519,58847,47995
8720,59008,48255
8898,59148,48490
9054,59269,48698
9190,59376,48874
9302,59467,49019
9394,59538,49138
9468,59595,49235
9528,59640,49313
9573,59676,49379
9605,59703,49432
9628,59723,49470
9642,59736,49500
9650,59745,49521
9654,59750,49534
9654,59751,49541
9655,59752,49546
9655,59754,49548
9655,59757,49547
9655,59758,49547
9656,59758,49548
9656,59754,49547
9658,59750,49543
9662,59747,49539
9666,59742,49537
9669,59736,49534
9671,59728,49528
9669,59720,49517
9664,59710,49502
9654,59699,49480
9642,59686,49450
9626,59670,49415
9605,59645,49374
9575,59610,49326
9538,59575,49273
9498,59541,49219
9457,59508,49165
9415,59475,49114
9373,59444,49064
9332,59414,49013
9288,59385,48961
9247,59353,48909
9211,59323,48863
9184,59297,48825
9163,59276,48793
9145,59257,48768
9133,59243,48749
9126,59237,48737
9123,59234,48731
9122,59233,48729
9121,59234,48728
9121,59235,48725
9122,59236,48721
9124,59238,48716
9127,59239,48709
9130,59236,48701
9130,59226,48692
9126,59212,48680
9122,59199,48662
9116,59186,48643
9106,59173,48621
9092,59159,48593
9075,59144,48558
9054,59129,48520
9030,59111,48480
9005,59092,48437
8979,59071,48393
8950,59046,48347
8913,59018,48300
8870,58987,48249
8829,58956,48193
8791,58924,48136
8753,58890,48078
8715,58854,48019
8676,58819,47963
8635,58785,47906
8591,58749,47849
8549,58711,47792
8510,58673,47737
8473,58634,47683
8434,58595,47631
8397,58561,47578
8361,58530,47527
8325,58498,47475
8290,58467,47423
8253,58437,47370
8216,58409,47317
8180,58381,47265
8145,58353,47214
8110,58326,47164
8074,58295,47115
8036,58261,47066
7998,58228,47019
7966,58199,46973
7939,58171,46930
7912,58141,46886
7883,58111,46841
7851,58080,46795
7819,58049,46748
7784,58018,46700
7744,57989,46654
7702,57963,46611
7661,57937,46568
7623,57909,46522
7587,57882,46478
7552,57857,46435
7517,57831,46390
7482,57804,46344
7448,57777,46299
7413,57748,46256
7379,57717,46215
7344,57685,46174
7308,57654,46131
7271,57622,46082
7232,57588,46028
7190,57554,45971
7149,57518,45912
7107,57480,45852
7063,57442,45795
7019,57405,45738
6976,57369,45678
6935,57334,45614
6890,57295,45544
6837,57250,45468
6780,57201,45389
6720,57150,45308
6657,57099,45229
6592,57047,45153
6531,56997,45078
6472,56949,45003
6416,56902,44930
6364,56858,44859
6314,56819,44794
6271,56785,44737
6236,56758,44694
6216,56742,44669
6215,56744,44670
6236,56768,44700
6280,56813,44764
6353,56882,44865
6460,56976,45010
6599,57098,45199
6767,57245,45430
6962,57415,45699
7179,57606,45997
7412,57811,46318
7657,58023,46650
7906,58237,46986
8152,58448,47319
8389,58653,47645
8616,58849,47957
8828,59031,48254
9025,59198,48532
9206,59347,48784
9366,59477,49007
9507,59592,49206
9630,59693,49378
9735,59780,49524
9824,59853,49643
9900,59913,49738
9961,59962,49814
10008,60000,49876
10041,60027,49921
10062,60044,49951
10074,60053,49971
10077,60056,49983
10073,60054,49987
10068,60051,49985
10063,60046,49981
10056,60040,49977
10047,60031,49972
10040,60023,49966
10037,60016,49962
10032,60009,49959
10026,60002,49955
10020,59996,49949
10012,59990,49939
10000,59980,49924
9984,59967,49905
9964,59952,49880
9942,59935,49850
9913,59916,49816
9881,59895,49777
9847,59871,49732
9812,59843,49681
9774,59809,49627
9735,59772,49573
9696,59732,49517
9655,59691,49459
9609,59647,49399
9562,59603,49338
9518,59564,49280
9477,59529,49228
9439,59498,49180
9408,59471,49136
9385,59448,49098
9367,59428,49067
9351,59412,49042
9338,59399,49022
9328,59393,49006
9320,59387,48996
9313,59382,48991
9306,59377,48987
9299,59372,48981
9294,59368,48977
9291,59365,48973
9289,59364,48966
9286,59363,48957
9279,59359,48944
9269,59351,48927
9256,59343,48908
9242,59333,48887
9224,59321,48865
9201,59305,48841
9176,59285,48813
9148,59260,48781
9117,59230,48745
9083,59196,48700
9044,59162,48646
9001,59125,48586
8954,59086,48522
8906,59044,48456
8857,59003,48392
8804,58963,48329
8750,58926,48267
8696,58890,48205
8645,58855,48139
8596,58818,48072
8546,58779,48007
8495,58740,47940
8446,58698,47871
8399,58655,47803
8352,58611,47736
8301,58566,47668
8249,58525,47601
8198,58487,47535
8148,58449,47474
8100,58411,47416
8052,58374,47357
8007,58337,47299
7964,58303,47242
7924,58272,47185
7884,58246,47129
7844,58222,47077
7804,58196,47026
7763,58167,46971
7721,58136,46914
7681,58104,46859
7642,58072,46806
7604,58038,46754
7564,58001,46702
7524,57963,46649
7481,57923,46595
7436,57883,46543
7393,57845,46495
7351,57811,46448
7310,57779,46403
7272,57752,46359
7236,57726,46318
7202,57699,46274
7166,57671,46227
7130,57642,46177
7090,57612,46123
7047,57578,46066
7003,57542,46008
6958,57506,45950
6912,57470,45891
6862,57434,45831
6810,57396,45767
6757,57357,45700
6702,57312,45629
6645,57263,45555
6584,57214,45480
6524,57166,45405
6464,57117,45327
6404,57069,45248
6343,57018,45168
6283,56967,45088
6224,56917,45011
6169,56869,44940
6122,56829,44877
6085,56799,44826
6060,56777,44789
6050,56768,44773
6062,56777,44788
6101,56810,44842
6169,56869,44943
6270,56956,45090
6406,57074,45280
6578,57224,45512
6780,57404,45787
7007,57606,46096
7251,57825,46428
7505,58053,46776
7767,58285,47133
8028,58514,47488
8282,58734,47833
8527,58941,48159
8756,59132,48462
8965,59307,48741
9152,59465,48993
9318,59603,49218
9461,59721,49414
9583,59819,49580
9684,59900,49717
9763,59963,49825
9822,60011,49910
9865,60048,49974
9897,60073,50019
9916,60085,50048
9925,60088,50063
9927,60083,50066
9925,60074,50058
9918,60059,50044
9904,60039,50024
9884,60021,50001
9863,60005,49982
9843,59990,49965
9820,59975,49947
9794,59960,49927
9771,59946,49906
9750,59932,49886
9729,59918,49866
9706,59904,49841
9681,59885,49812
9654,59861,49778
9626,59833,49738
9595,59804,49690
9560,59772,49639
9522,59736,49584
9480,59698,49525
9435,59659,49459
9389,59621,49389
9339,59582,49318
9286,59543,49246
9236,59507,49176
9191,59475,49112
9150,59444,49057
9115,59414,49011
9085,59385,48973
9061,59365,48942
9043,59352,48920
9030,59346,48907
9024,59347,48904
9024,59352,48904
9029,59357,48906
9036,59362,48909
9048,59369,48916
9061,59377,48926
9073,59387,48937
9082,59399,48949
9091,59409,48961
9098,59413,48967
9101,59411,48969
9101,59407,48966
9099,59402,48960
9091,59395,48952
9076,59383,48940
9056,59365,48923
9038,59347,48900
9020,59330,48871
8997,59307,48835
8968,59279,48791
8934,59246,48739
8895,59213,48683
8851,59176,48624
8806,59138,48565
8759,59100,48502
8710,59063,48438
8659,59027,48372
8607,58989,48303
8554,58947,48228
8500,58899,48149
8447,58849,48070
8398,58799,47994
8350,58752,47921
8303,58704,47850
8256,58658,47782
8211,58615,47717
8166,58575,47656
8118,58536,47596
8072,58497,47537
8031,58462,47479
7993,58427,47424
7956,58391,47372
7920,58355,47320
7885,58320,47269
7849,58287,47218
7813,58256,47168
7778,58226,47117
7744,58196,47066
7711,58169,47018
7675,58143,46971
7637,58120,46923
7602,58101,46877
7568,58082,46835
7534,58062,46797
7503,58041,46760
7472,58022,46721
7441,58000,46679
7412,57977,46637
7384,57950,46593
7358,57922,46548
7329,57892,46505
7298,57859,46463
7268,57826,46421
7235,57792,46376
7197,57756,46328
7157,57719,46275
7112,57681,46219
7063,57645,46156
7011,57610,46088
6958,57572,46017
6905,57530,45944
6849,57486,45871
6793,57440,45796
6737,57394,45721
6682,57350,45645
6627,57308,45570
6571,57264,45496
6521,57221,45425
6480,57183,45361
6446,57151,45310
6423,57130,45277
6416,57122,45265
6431,57133,45283
6475,57167,45337
6546,57226,45431
6646,57312,45566
6778,57426,45743
6940,57567,45964
7130,57733,46226
7343,57919,46521
7571,58119,46836
7809,58327,47163
8052,58537,47493
8295,58743,47820
8536,58942,48139
8768,59131,48449
8990,59310,48747
9201,59477,49027
9396,59630,49284
9572,59768,49516
9729,59891,49724
9866,59998,49906
9983,60089,50060
10079,60164,50187
10153,60225,50291
10207,60272,50375
10245,60307,50438
10272,60330,50483
10290,60344,50512
10301,60352,50527
10305,60355,50530
10301,60353,50525
10291,60345,50511
10278,60334,50494
10267,60321,50476
10255,60310,50460
10243,60302,50444
10233,60298,50431
10223,60293,50418
10213,60287,50402
10200,60277,50380
10186,60264,50355
10170,60247,50328
10153,60228,50298
10133,60209,50266
10109,60187,50231
10082,60161,50192
10049,60130,50145
10010,60096,50092
9967,60061,50034
9919,60023,49971
9868,59979,49904
9816,59933,49833
9763,59887,49761
9713,59846,49692
9668,59811,49630
9631,59781,49577
9603,59755,49533
9580,59733,49499
9562,59717,49474
9549,59706,49455
9540,59701,49440
9535,59701,49430
9533,59702,49424
9534,59706,49420
9535,59711,49418
9536,59715,49418
9535,59717,49422
9533,59718,49426
9529,59718,49429
9521,59713,49426
9512,59703,49418
9503,59690,49405
9495,59673,49388
9485,59652,49368
9473,59630,49344
9460,59609,49317
9445,59590,49288
9424,59571,49254
9401,59552,49215
9375,59533,49170
9346,59515,49120
9313,59494,49065
9278,59468,49007
9237,59437,48949
9192,59402,48890
9144,59363,48826
9096,59319,48760
9049,59273,48693
9000,59226,48623
8949,59179,48552
8897,59132,48480
8846,59085,48410
8797,59039,48343
8751,58994,48278
8704,58953,48214
8659,58916,48150
8612,58879,48088
8564,58838,48027
8515,58796,47967
8469,58758,47909
8424,58722,47855
8379,58688,47803
8337,58654,47749
8298,58623,47695
8260,58591,47640
8223,58558,47583
8187,58525,47526
8152,58492,47469
8117,58459,47416
8082,58426,47366
8050,58392,47321
8020,58358,47280
7989,58326,47241
7958,58296,47201
7927,58266,47158
7893,58236,47113
7860,58208,47067
7827,58183,47021
7798,58163,46978
7772,58144,46934
7745,58126,46889
7718,58107,46843
7692,58088,46798
7664,58064,46748
7630,58033,46694
7594,57998,46637
7556,57963,46577
7516,57927,46516
7473,57890,46455
7426,57852,46395
7378,57812,46334
7329,57771,46274
7278,57729,46213
7228,57687,46150
7179,57646,46084
7132,57605,46018
7084,57566,45952
7035,57527,45888
6985,57486,45824
6934,57445,45758
6886,57407,45696
6848,57375,45643
6825,57354,45607
6818,57347,45596
6829,57360,45616
6867,57399,45670
6939,57466,45767
7048,57559,45912
7196,57680,46103
7377,57830,46339
7587,58004,46615
7819,58197,46922
8068,58406,47256
8327,58625,47608
8588,58849,47972
8849,59075,48338
9107,59296,48699
9358,59511,49048
9598,59718,49378
9822,59913,49687
10032,60091,49972
10225,60253,50230
10399,60396,50459
10550,60518,50657
10680,60618,50825
10792,60700,50967
10884,60767,51086
10958,60822,51184
11016,60863,51262
11062,60895,51326
11096,60919,51375
11119,60935,51410
11135,60947,51436
11149,60956,51454
11163,60962,51467
11172,60964,51476
11178,60964,51482
11182,60964,51486
11185,60963,51490
11188,60962,51496
11192,60964,51506
11200,60970,51516
11206,60974,51524
11208,60974,51529
11209,60974,51531
11209,60973,51529
11207,60971,51523
11199,60964,51510
11188,60955,51488
11173,60943,51456
11153,60922,51415
11126,60893,51367
11091,60859,51314
11050,60825,51258
11003,60787,51199
10952,60746,51135
10903,60705,51069
10858,60667,51006
10816,60631,50949
10778,60597,50897
10745,60565,50849
10716,60538,50804
10690,60517,50769
10666,60500,50741
10645,60486,50719
10628,60473,50700
10613,60460,50685
10602,60451,50673
10594,60445,50665
10589,60441,50659
10585,60437,50653
10581,60433,50645
10577,60430,50638
10576,60425,50634
10575,60420,50628
10573,60416,50616
10570,60411,50598
10563,60404,50576
10554,60394,50553
10542,60382,50530
10526,60370,50504
10505,60355,50474
10481,60336,50439
10455,60314,50398
10425,60288,50354
10391,60256,50307
10354,60219,50254
10315,60182,50194
10274,60146,50134
10231,60110,50074
10187,60074,50014
10142,60039,49953
10094,60000,49889
10041,59955,49824
9988,59909,49758
9935,59867,49692
9886,59827,49628
9839,59788,49566
9793,59747,49504
9752,59706,49441
9710,59667,49378
9666,59628,49314
9622,59588,49251
9580,59553,49189
9538,59522,49129
9494,59491,49073
9454,59460,49020
9416,59427,48966
9377,59391,48909
9335,59356,48851
9293,59326,48795
9254,59301,48744
9218,59275,48699
9180,59244,48656
9140,59210,48611
9101,59175,48566
9064,59143,48519
9026,59109,48471
8992,59077,48424
8963,59046,48378
8935,59018,48332
8904,58993,48288
8873,58971,48246
8844,58949,48203
8816,58925,48161
8789,58900,48117
8762,58875,48070
8734,58850,48019
8702,58824,47966
8665,58794,47910
8621,58760,47850
8571,58721,47787
8515,58677,47719
8455,58631,47651
8396,58585,47582
8341,58540,47514
8284,58495,47445
8227,58452,47376
8174,58409,47306
8125,58368,47237
8078,58327,47172
8034,58286,47111
7994,58250,47055
7959,58219,47006
7930,58194,46966
7911,58178,46940
7908,58175,46932
7920,58186,46947
7950,58214,46991
8005,58266,47072
8091,58343,47191
8210,58445,47352
8358,58573,47555
8533,58725,47797
8730,58899,48069
8947,59090,48367
9178,59294,48684
9419,59505,49012
9661,59716,49340
9899,59923,49666
10129,60124,49985
10351,60313,50293
10561,60489,50582
10757,60649,50848
10937,60794,51086
11101,60923,51297
11245,61033,51482
11365,61122,51641
11463,61193,51775
11544,61252,51884
11610,61300,51972
11661,61338,52043
11698,61367,52098
11726,61389,52140
11747,61406,52168
11760,61416,52187
11769,61418,52197
11772,61418,52202
11770,61417,52207
11767,61414,52212
11761,61408,52213
11754,61399,52211
11749,61391,52209
11746,61383,52204
11742,61379,52196
11736,61377,52185
11726,61376,52172
11715,61373,52160
11701,61367,52147
11683,61356,52133
11662,61340,52115
11636,61319,52088
11604,61296,52052
11565,61269,52008
11520,61237,51959
11471,61199,51903
11421,61158,51840
11368,61117,51768
11313,61072,51693
11258,61026,51615
11203,60982,51536
11152,60941,51459
11106,60904,51393
11066,60868,51336
11030,60835,51285
10998,60808,51241
10969,60784,51204
10944,60761,51173
10924,60741,51151
10909,60726,51138
10899,60715,51129
10889,60706,51123
10879,60697,51116
10871,60692,51105
10865,60688,51092
10858,60685,51076
10849,60681,51057
10839,60674,51037
10829,60662,51016
10816,60646,50996
10800,60626,50976
10780,60602,50953
10756,60574,50925
10725,60549,50894
10692,60526,50858
10659,60504,50817
10624,60481,50771
10589,60457,50721
10552,60431,50669
10513,60398,50613
10470,60357,50551
10424,60312,50485
10375,60264,50415
10321,60215,50343
10263,60165,50270
10206,60116,50197
10152,60071,50124
10097,60028,50053
10039,59987,49982
9983,59944,49912
9929,59902,49843
9880,59865,49776
9834,59832,49712
9787,59798,49650
9739,59763,49589
9691,59725,49528
9646,59685,49470
9604,59646,49414
9565,59609,49358
9527,59573,49306
9487,59536,49255
9447,59500,49205
9408,59466,49155
9372,59434,49107
9335,59403,49063
9297,59374,49019
9257,59347,48971
9216,59321,48922
9178,59296,48872
9140,59269,48822
9100,59241,48769
9058,59213,48715
9017,59184,48662
8978,59156,48611
8938,59128,48561
8898,59096,48514
8857,59062,48467
8817,59027,48416
8775,58992,48362
8732,58954,48306
8686,58915,48249
8637,58875,48189
8580,58832,48127
8519,58789,48062
8459,58744,47990
8402,58698,47916
8349,58652,47842
8294,58605,47771
8240,58559,47700
8188,58515,47629
8137,58472,47560
8083,58428,47489
8029,58383,47416
7977,58340,47342
7924,58296,47267
7869,58251,47194
7818,58209,47128
7775,58172,47073
7742,58145,47036
7724,58132,47021
7729,58141,47034
7761,58172,47078
7825,58225,47157
7919,58303,47277
8046,58409,47440
8202,58543,47647
8383,58701,47896
8584,58879,48177
8803,59071,48483
9035,59272,48805
9273,59476,49134
9514,59680,49462
9751,59881,49784
9977,60073,50094
10186,60253,50388
10377,60421,50661
10553,60577,50909
10714,60717,51134
10858,60838,51334
10983,60943,51508
11091,61033,51655
11180,61109,51777
11251,61171,51875
11307,61221,51951
11347,61258,52006
11374,61281,52043
11390,61291,52065
11394,61291,52073
11391,61285,52070
11382,61274,52058
11367,61260,52042
11348,61245,52025
11328,61228,52007
11308,61209,51986
11288,61191,51965
11269,61173,51944
11249,61156,51925
11231,61141,51905
11215,61127,51883
11203,61116,51860
11189,61106,51834
11170,61092,51804
11145,61071,51769
11115,61045,51727
11077,61014,51678
11033,60976,51626
10987,60933,51571
10938,60891,51513
10885,60848,51450
10829,60801,51381
10772,60753,51307
10717,60708,51235
10663,60667,51168
10609,60627,51105
10560,60591,51043
10516,60559,50986
10475,60531,50938
10440,60508,50898
10412,60492,50863
10393,60480,50835
10380,60473,50816
10372,60470,50808
10369,60473,50808
10369,60477,50812
10371,60481,50818
10371,60482,50823
10371,60484,50824
10372,60489,50822
10372,60492,50816
10371,60489,50806
10366,60483,50794
10360,60475,50783
10350,60464,50769
10337,60450,50749
10319,60434,50724
10297,60417,50694
10271,60396,50657
10238,60368,50614
10202,60334,50567
10161,60299,50518
10117,60262,50467
10071,60223,50411
10026,60183,50350
9980,60143,50289
9932,60103,50224
9881,60058,50156
9828,60008,50083
9776,59956,50009
9722,59903,49939
9669,59852,49872
9618,59804,49800
9568,59758,49727
9518,59714,49652
9469,59675,49578
9423,59644,49506
9377,59614,49440
9330,59584,49380
9284,59555,49324
9245,59528,49271
9210,59502,49224
9175,59479,49181
9138,59456,49140
9105,59433,49098
9073,59407,49058
9039,59380,49017
9004,59353,48972
8967,59325,48925
8928,59295,48879
8891,59264,48834
8855,59233,48790
8821,59204,48748
8786,59176,48704
8747,59145,48658
8706,59113,48612
8669,59082,48568
8630,59051,48522
8589,59019,48475
8547,58987,48425
8505,58953,48372
8463,58918,48319
8421,58883,48265
8381,58850,48206
8343,58820,48145
8306,58792,48086
8266,58765,48029
8224,58735,47970
8178,58702,47909
8124,58663,47846
8066,58619,47782
8010,58573,47714
7957,58527,47642
7903,58481,47570
7850,58435,47499
7802,58392,47431
7755,58353,47369
7714,58318,47315
7683,58291,47273
7662,58275,47244
7653,58268,47232
7658,58272,47239
7679,58294,47269
7724,58339,47329
7796,58407,47425
7897,58497,47561
8031,58610,47739
8194,58748,47956
8383,58906,48207
8592,59079,48481
8814,59264,48772
9045,59458,49076
9280,59655,49387
9515,59851,49699
9746,60039,50004
9969,60217,50296
10178,60382,50572
10366,60532,50824
10537,60667,51054
10689,60789,51261
10820,60896,51443
10930,60987,51598
11023,61064,51728
11099,61128,51836
11160,61177,51920
11205,61213,51982
11237,61238,52025
11257,61254,52050
11265,61258,52060
11260,61253,52056
11246,61241,52039
11227,61228,52014
11207,61216,51986
11187,61207,51957
11170,61197,51929
11157,61186,51903
11145,61174,51877
11132,61160,51848
11117,61142,51819
11099,61124,51792
11080,61104,51766
11059,61082,51739
11035,61057,51707
11004,61027,51667
10968,60993,51619
10926,60957,51563
10880,60917,51498
10833,60876,51428
10783,60832,51353
10733,60786,51276
10685,60739,51203
10641,60694,51135
10599,60653,51070
10559,60619,51008
10526,60589,50952
10500,60561,50904
10483,60537,50865
10473,60517,50836
10470,60503,50814
10469,60494,50797
10470,60490,50787
10472,60491,50785
10473,60496,50787
10474,60503,50793
10475,60512,50800
10479,60523,50808
10483,60533,50817
10486,60542,50823
10486,60546,50825
10485,60549,50824
10485,60548,50821
10482,60543,50815
10476,60532,50805
10466,60518,50788
10452,60503,50766
10435,60484,50739
10417,60463,50708
10394,60441,50672
10365,60416,50629
10332,60386,50581
10295,60353,50529
10255,60318,50475
10213,60281,50419
10166,60241,50359
10115,60199,50295
10060,60153,50226
10002,60101,50153
9944,60049,50079
9890,60003,50007
9838,59959,49935
9785,59915,49863
9733,59867,49792
9681,59819,49722
9630,59773,49652
9579,59731,49582
9529,59690,49514
9482,59652,49448
9440,59614,49384
9402,59577,49319
9365,59542,49255
9330,59510,49196
9298,59480,49143
9267,59449,49096
9237,59419,49051
9209,59392,49009
9182,59368,48971
9154,59343,48934
9125,59317,48897
9096,59291,48861
9066,59267,48824
9036,59246,48787
9009,59227,48749
8984,59208,48709
8960,59189,48667
8935,59169,48623
8910,59147,48576
8880,59121,48525
8846,59091,48471
8809,59057,48415
8769,59021,48360
8724,58983,48306
8676,58945,48249
8627,58905,48191
8580,58865,48133
8538,58824,48076
8498,58786,48019
8456,58748,47961
8413,58712,47901
8372,58680,47841
8332,58648,47783
8291,58612,47726
8252,58576,47669
8215,58540,47612
8179,58504,47554
8143,58469,47497
8110,58437,47441
8080,58408,47390
8056,58384,47349
8042,58370,47326
8044,58373,47327
8068,58397,47356
8116,58442,47419
8191,58511,47520
8296,58603,47662
8432,58718,47845
8595,58856,48067
8780,59013,48321
8983,59188,48601
9203,59378,48906
9437,59577,49228
9679,59780,49558
9925,59983,49888
10170,60184,50212
10406,60380,50527
10631,60567,50830
10842,60747,51116
11040,60916,51384
11220,61073,51631
11381,61214,51854
11525,61337,52052
11650,61440,52222
11757,61525,52367
11849,61595,52487
11927,61652,52586
11990,61697,52664
12037,61731,52723
12072,61756,52767
12096,61774,52798
12111,61784,52818
12120,61789,52830
12124,61792,52836
12124,61792,52837
12121,61790,52834
12118,61786,52827
12117,61784,52822
12120,61788,52821
12124,61793,52822
12127,61796,52822
12127,61795,52818
12124,61791,52810
12120,61783,52801
12113,61772,52789
12105,61757,52774
12094,61741,52755
12077,61720,52732
12052,61695,52701
12021,61667,52659
11984,61636,52611
11940,61602,52559
11891,61565,52499
11839,61524,52433
11787,61483,52363
11733,61439,52292
11679,61395,52223
11630,61354,52157
11589,61319,52098
11555,61290,52048
11529,61268,52007
11510,61253,51973
11498,61244,51946
11492,61241,51928
11492,61242,51917
11494,61244,51911
11497,61247,51909
11500,61250,51913
11503,61251,51915
11507,61249,51914
11510,61248,51912
11513,61245,51908
11513,61240,51900
11512,61232,51888
11507,61223,51874
11496,61214,51857
11483,61202,51837
11467,61186,51813
11447,61167,51786
11423,61144,51755
11396,61118,51715
11366,61089,51669
11331,61057,51620
11295,61027,51571
11260,60995,51522
11223,60962,51470
11183,60925,51416
11141,60887,51356
11099,60849,51293
11053,60809,51226
11004,60766,51157
10957,60725,51088
10913,60689,51020
10872,60656,50957
10831,60622,50900
10786,60588,50843
10739,60553,50784
10686,60515,50722
10628,60472,50660
10568,60425,50596
10508,60376,50530
10450,60325,50463
10396,60276,50395
10347,60229,50328
10301,60186,50265
10259,60150,50205
10220,60119,50146
10185,60092,50089
10155,60067,50035
10126,60041,49984
10096,60015,49937
10068,59990,49891
10041,59965,49843
10012,59940,49797
9980,59914,49750
9949,59888,49704
9916,59861,49657
9882,59834,49613
9848,59806,49570
9813,59775,49525
9777,59743,49480
9739,59711,49433
9701,59679,49386
9665,59646,49337
9630,59614,49289
9597,59579,49239
9563,59541,49184
9529,59502,49125
9492,59463,49065
9451,59421,49005
9405,59379,48947
9357,59337,48886
9306,59295,48825
9254,59253,48763
9201,59209,48700
9146,59165,48632
9089,59120,48560
9031,59073,48484
8972,59024,48408
8914,58976,48333
8860,58932,48260
8810,58894,48195
8769,58863,48138
8741,58840,48095
8727,58829,48071
8729,58830,48071
8752,58848,48100
8806,58890,48169
8890,58961,48280
9002,59062,48435
9143,59192,48629
9314,59345,48861
9510,59517,49129
9725,59703,49427
9959,59904,49747
10205,60116,50083
10458,60331,50423
10713,60549,50763
10965,60764,51097
11209,60974,51421
11436,61169,51728
11646,61349,52013
11840,61512,52276
12016,61657,52514
12172,61784,52727
12310,61895,52915
12433,61992,53079
12540,62076,53219
12629,62147,53336
12703,62206,53430
12764,62255,53505
12812,62294,53564
12848,62322,53611
12874,62338,53648
12892,62347,53673
12904,62351,53690
12913,62350,53700
12921,62348,53703
12930,62350,53701
12938,62353,53697
12943,62356,53695
12948,62361,53698
12956,62369,53705
12966,62377,53714
12978,62383,53722
12989,62387,53727
12998,62389,53721
12998,62386,53707
12988,62375,53687
12971,62358,53660
12951,62339,53625
12928,62316,53585
12901,62287,53539
12867,62252,53487
12828,62214,53429
12785,62174,53369
12740,62133,53308
12693,62091,53245
12646,62050,53179
12601,62010,53111
12556,61972,53044
12514,61938,52981
12479,61909,52927
12447,61884,52882
12419,61861,52844
12397,61839,52813
12383,61822,52786
12374,61807,52763
12369,61795,52740
12369,61786,52721
12371,61781,52706
12374,61778,52697
12377,61777,52696
12380,61776,52697
12383,61777,52699
12384,61778,52698
12383,61780,52693
12380,61781,52684
12375,61780,52672
12369,61775,52656
12362,61767,52639
12355,61758,52620
12344,61746,52599
12328,61732,52572
12307,61712,52541
12282,61690,52506
12255,61665,52469
12227,61636,52428
12196,61604,52381
12162,61567,52330
12125,61529,52276
12085,61490,52218
12043,61452,52157
11999,61415,52097
11951,61379,52039
11903,61342,51982
11858,61306,51924
11812,61269,51865
11766,61231,51804
11720,61193,51744
11678,61156,51681
11637,61120,51617
11595,61080,51554
11550,61036,51492
11507,60994,51431
11467,60954,51370
11426,60914,51314
11384,60877,51262
11340,60842,51209
11293,60809,51157
11244,60778,51106
11197,60749,51056
11157,60723,51005
11120,60696,50954
11086,60668,50904
11052,60638,50856
11017,60608,50810
10984,60577,50765
10948,60545,50721
10910,60514,50678
10872,60482,50635
10833,60448,50592
10795,60411,50546
10758,60377,50497
10722,60346,50446
10687,60315,50392
10653,60281,50335
10620,60246,50277
10586,60213,50218
10549,60182,50157
10509,60151,50095
10466,60119,50031
10421,60084,49965
10374,60047,49899
10326,60005,49833
10278,59962,49767
10227,59915,49698
10174,59865,49629
10120,59814,49561
10066,59763,49492
10011,59714,49419
9957,59666,49344
9903,59621,49269
9853,59580,49196
9805,59543,49126
9758,59507,49064
9715,59475,49012
9683,59453,48973
9665,59443,48950
9663,59449,48952
9683,59470,48984
9728,59511,49048
9799,59571,49148
9897,59652,49286
10021,59758,49459
10171,59889,49667
10345,60043,49907
10541,60216,50174
10758,60402,50465
10992,60601,50774
11235,60807,51094
11477,61015,51415
11713,61219,51735
11945,61416,52048
12167,61603,52346
12377,61775,52624
12570,61934,52882
12743,62078,53120
12895,62208,53337
13029,62324,53527
13147,62424,53689
13246,62505,53826
13327,62564,53941
13392,62607,54031
13444,62638,54097
13487,62662,54143
13516,62679,54175
13530,62690,54198
13536,62697,54211
13536,62700,54214
13535,62699,54211
13531,62693,54206
13524,62687,54199
13515,62679,54190
13505,62668,54179
13493,62654,54164
13479,62639,54146
13464,62625,54132
13448,62614,54122
13432,62606,54110
13415,62597,54092
13395,62585,54067
13372,62571,54035
13344,62554,53996
13314,62532,53947
13279,62505,53890
13239,62474,53827
13193,62439,53760
13145,62398,53688
13094,62350,53613
13042,62298,53533
12989,62245,53451
12937,62193,53367
12884,62144,53287
12830,62094,53214
12776,62046,53149
12728,62001,53089
12686,61961,53034
12649,61928,52985
12619,61900,52946
12594,61878,52917
12574,61860,52894
12557,61848,52876
12542,61839,52863
12529,61834,52851
12517,61830,52841
12506,61825,52831
12499,61820,52821
12493,61813,52809
12484,61805,52794
12471,61796,52775
12456,61786,52754
12438,61773,52730
12415,61756,52701
12389,61734,52666
12362,61707,52626
12331,61675,52581
12296,61641,52533
12257,61609,52486
12215,61577,52439
12170,61542,52387
12125,61504,52330
12078,61464,52266
12029,61419,52197
11977,61373,52127
11921,61328,52061
11865,61284,51997
11811,61239,51931
11757,61193,51861
11702,61144,51787
11645,61093,51710
11586,61041,51632
11527,60993,51555
11468,60946,51478
11409,60900,51399
11353,60859,51322
11300,60823,51252
11245,60787,51186
11190,60750,51122
11133,60712,51056
11076,60670,50989
11021,60626,50924
10965,60585,50861
10910,60544,50799
10857,60504,50737
10807,60466,50676
10761,60428,50616
10716,60391,50558
10671,60357,50503
10628,60324,50451
10587,60291,50399
10548,60258,50342
10509,60223,50280
10469,60187,50217
10428,60152,50158
10385,60118,50104
10339,60085,50050
10294,60051,49995
10250,60017,49937
10205,59981,49879
10157,59943,49820
10108,59900,49756
10058,59853,49691
10008,59805,49628
9958,59758,49567
9907,59711,49506
9854,59666,49442
9800,59624,49376
9743,59580,49305
9687,59537,49234
9635,59497,49165
9586,59457,49095
9534,59411,49022
9479,59364,48946
9418,59315,48864
9355,59264,48779
9290,59212,48694
9221,59162,48611
9152,59112,48526
9083,59060,48442
9016,59009,48359
8950,58957,48276
8884,58904,48193
8817,58850,48111
8751,58797,48033
8691,58750,47963
8645,58714,47909
8620,58695,47881
8622,58700,47889
8656,58734,47942
8724,58800,48042
8825,58894,48191
8957,59015,48388
9122,59163,48630
9316,59335,48913
9534,59527,49226
9766,59735,49560
10009,59954,49908
10257,60176,50263
10506,60398,50620
10753,60615,50969
10992,60825,51304
11219,61021,51620
11426,61200,51914
11614,61361,52179
11781,61507,52418
11927,61635,52629
12049,61742,52812
12149,61830,52966
12232,61903,53091
12298,61964,53190
12346,62007,53263
12377,62034,53310
12395,62046,53334
12400,62044,53342
12393,62029,53337
12380,62009,53321
12364,61987,53293
12345,61966,53260
12323,61946,53225
12300,61927,53187
12278,61908,53146
12253,61887,53104
12228,61863,53062
12204,61838,53021
12179,61816,52981
12153,61794,52941
12125,61772,52900
12094,61748,52856
12059,61722,52806
12017,61689,52749
11968,61648,52681
11917,61604,52609
11865,61558,52535
11811,61509,52457
11756,61457,52374
11702,61404,52292
11648,61351,52217
11595,61302,52149
11545,61259,52087
11502,61223,52031
11467,61194,51985
11438,61172,51947
11415,61156,51915
11395,61143,51890
11377,61132,51870
11364,61122,51855
11354,61116,51844
11348,61114,51838
11347,61116,51835
11348,61117,51834
11349,61116,51834
11352,61116,51833
11359,61119,51835
11367,61124,51838
11374,61128,51841
11379,61133,51840
11378,61135,51834
11369,61129,51822
11356,61119,51804
11338,61105,51783
11314,61085,51755
11280,61058,51720
11242,61028,51677
11204,60996,51628
11166,60964,51575
11126,60928,51518
11080,60888,51456
11030,60844,51390
10976,60796,51320
10917,60745,51246
10857,60696,51167
10794,60648,51084
10728,60600,51003
10665,60553,50925
10603,60509,50847
10539,60467,50768
10472,60418,50686
10406,60364,50605
10343,60309,50522
10282,60253,50441
10221,60198,50361
10162,60146,50282
10104,60096,50205
10049,60050,50133
9999,60009,50063
9951,59970,49996
9905,59932,49929
9861,59894,49863
9813,59854,49797
9760,59811,49729
9706,59766,49662
9654,59722,49597
9604,59680,49534
9556,59641,49472
9511,59603,49414
9469,59566,49357
9429,59530,49301
9387,59494,49246
9342,59459,49191
9297,59424,49134
9253,59389,49077
9209,59353,49018
9167,59318,48961
9125,59283,48904
9085,59248,48846
9043,59213,48786
8998,59180,48725
8953,59147,48665
8910,59111,48606
8869,59076,48545
8828,59042,48482
8786,59009,48417
8743,58974,48353
8699,58937,48288
8651,58898,48221
8596,58856,48152
8537,58808,48082
8477,58760,48007
8418,58713,47932
8358,58665,47855
8299,58618,47776
8242,58571,47697
8185,58523,47618
8127,58470,47541
8068,58415,47468
8012,58363,47399
7963,58317,47339
7924,58282,47295
7903,58263,47271
7905,58266,47268
7931,58293,47294
7985,58343,47357
8071,58420,47470
8196,58526,47635
8356,58659,47848
8544,58816,48103
8758,58994,48397
8994,59194,48724
9245,59409,49071
9504,59632,49432
9768,59859,49798
10035,60085,50163
10297,60305,50519
10550,60516,50857
10787,60716,51172
11004,60905,51461
11200,61074,51726
11372,61223,51964
11523,61352,52172
11654,61463,52349
11764,61556,52495
11855,61628,52611
11926,61681,52699
11977,61717,52761
12013,61739,52798
12036,61749,52816
12046,61749,52820
12045,61742,52813
12034,61728,52793
12014,61706,52764
11987,61681,52729
11958,61652,52689
11926,61620,52645
11889,61589,52600
11851,61562,52555
11815,61534,52510
11782,61506,52467
11750,61477,52425
11720,61447,52382
11688,61415,52335
11648,61379,52282
11601,61339,52219
11550,61296,52147
11497,61250,52070
11442,61204,51991
11385,61155,51909
11327,61106,51824
11269,61055,51741
11215,61003,51660
11165,60952,51583
11115,60901,51508
11066,60849,51435
11020,60802,51366
10978,60764,51304
10943,60734,51252
10915,60713,51215
10894,60701,51192
10879,60695,51176
10870,60694,51167
10866,60693,51165
10866,60695,51166
10871,60700,51170
10877,60710,51176
10883,60721,51184
10888,60731,51191
10895,60738,51195
10903,60742,51191
10908,60742,51180
10912,60739,51166
10915,60734,51152
10914,60726,51134
10905,60714,51111
10890,60697,51084
10872,60677,51051
10850,60653,51011
10820,60626,50964
10783,60595,50912
10743,60561,50858
10703,60525,50805
10660,60486,50752
10615,60445,50698
10568,60400,50640
10518,60356,50578
10467,60313,50512
10414,60271,50441
10361,60228,50363
10304,60182,50282
10242,60132,50199
10180,60082,50113
10120,60033,50024
10061,59984,49937
10003,59935,49852
9951,59888,49769
9903,59845,49690
9856,59804,49613
9809,59763,49539
9761,59723,49468
9717,59683,49398
9675,59642,49331
9633,59602,49266
9592,59563,49205
9551,59526,49144
9510,59488,49084
9468,59449,49026
9425,59412,48969
9382,59375,48915
9338,59338,48860
9292,59301,48803
9246,59264,48745
9202,59228,48688
9158,59192,48633
9117,59158,48580
9078,59128,48529
9040,59098,48480
9001,59067,48433
8964,59035,48387
8929,59004,48336
8893,58973,48284
8855,58942,48230
8814,58907,48171
8771,58869,48111
8727,58833,48054
8684,58798,48000
8640,58765,47948
8597,58734,47891
8552,58701,47831
8503,58664,47767
8451,58626,47703
8397,58584,47639
8343,58538,47573
8289,58491,47504
8234,58440,47430
8179,58386,47353
8124,58332,47270
8066,58278,47183
8007,58227,47098
7949,58177,47018
7892,58126,46941
7837,58078,46871
7788,58037,46808
7747,58003,46756
7718,57981,46721
7706,57973,46707
7715,57986,46722
7750,58024,46776
7818,58090,46874
7925,58187,47020
8071,58316,47216
8253,58474,47460
8465,58658,47747
8701,58862,48070
8957,59084,48422
9229,59316,48798
9511,59556,49187
9795,59799,49582
10076,60042,49971
10350,60279,50347
10611,60501,50705
10857,60706,51041
11087,60895,51351
11297,61068,51636
11485,61223,51890
11650,61358,52113
11795,61473,52306
11918,61571,52472
12021,61650,52613
12106,61711,52729
12172,61758,52819
12223,61790,52884
12261,61810,52927
12288,61824,52953
12305,61834,52968
12314,61838,52977
12316,61836,52980
12313,61831,52977
12308,61827,52970
12301,61822,52958
12292,61816,52942
12279,61811,52923
12266,61804,52905
12255,61796,52889
12246,61787,52874
12238,61778,52856
12229,61769,52835
12217,61757,52812
12204,61742,52786
12188,61722,52754
12164,61695,52713
12132,61663,52664
12094,61629,52607
12052,61594,52545
12007,61559,52482
11959,61519,52419
11911,61475,52356
11871,61433,52291
11844,61397,52223
11823,61363,52157
11808,61334,52098
11796,61312,52049
11789,61297,52009
11784,61284,51977
11780,61274,51951
11776,61267,51929
11773,61263,51910
11773,61261,51898
11777,61264,51894
11786,61271,51897
11797,61282,51903
11808,61292,51912
11818,61301,51921
11826,61310,51928
11832,61317,51934
11832,61320,51938
11831,61320,51940
11829,61314,51935
11821,61304,51925
11806,61293,51911
11786,61280,51891
11764,61265,51865
11741,61244,51832
11715,61218,51792
11686,61191,51747
11655,61163,51700
11622,61133,51653
11591,61100,51604
11562,61068,51552
11530,61037,51499
11491,61005,51442
11449,60970,51379
11404,60933,51314
11355,60894,51246
11301,60852,51176
11247,60808,51106
11193,60762,51037
11139,60715,50970
11084,60664,50901
11029,60613,50829
10975,60564,50756
10923,60516,50684
10872,60470,50614
10822,60425,50549
10773,60385,50487
10725,60348,50429
10678,60315,50373
10631,60282,50317
10588,60250,50259
10548,60218,50200
10508,60182,50142
10467,60145,50083
10426,60105,50025
10386,60065,49968
10347,60028,49914
10311,59994,49861
10277,59965,49809
10246,59940,49759
10217,59914,49710
10187,59884,49660
10157,59853,49610
10126,59823,49557
10095,59792,49505
10063,59762,49454
10030,59734,49407
9992,59706,49359
9954,59677,49311
9917,59651,49262
9878,59623,49213
9837,59592,49164
9797,59558,49116
9758,59523,49068
9722,59487,49022
9684,59450,48975
9646,59414,48926
9608,59380,48873
9571,59348,48817
9533,59314,48760
9497,59281,48701
9461,59249,48643
9426,59217,48585
9391,59182,48526
9353,59144,48462
9313,59105,48397
9272,59066,48331
9228,59027,48265
9183,58987,48194
9136,58946,48122
9087,58903,48050
9037,58861,47978
8987,58819,47908
8941,58780,47843
8904,58747,47788
8879,58724,47751
8870,58718,47735
8878,58728,47742
8907,58759,47779
8961,58812,47853
9043,58890,47967
9153,58992,48121
9291,59117,48314
9456,59264,48546
9649,59433,48815
9869,59620,49118
10111,59821,49449
10369,60035,49799
10636,60258,50162
10905,60487,50530
11170,60714,50896
11427,60935,51256
11674,61147,51603
11908,61347,51931
12126,61531,52239
12330,61699,52524
12518,61851,52783
12688,61987,53014
12838,62107,53216
12970,62211,53386
13084,62299,53525
13180,62371,53636
13256,62426,53725
13315,62468,53795
13364,62501,53850
13405,62523,53891
13437,62536,53921
13460,62543,53941
13475,62547,53952
13483,62547,53953
13485,62542,53948
13484,62535,53939
13482,62529,53930
13476,62527,53919
13465,62526,53909
13453,62524,53900
13441,62520,53888
13425,62511,53870
13406,62495,53850
13384,62478,53831
13362,62459,53812
13335,62435,53787
13302,62405,53753
13263,62373,53711
13218,62337,53660
13168,62295,53600
13116,62250,53533
13063,62204,53459
13010,62159,53383
12954,62112,53307
12898,62064,53230
12844,62019,53156
12792,61979,53087
12747,61944,53024
12707,61914,52969
12671,61887,52923
12641,61864,52885
12614,61843,52855
12590,61824,52831
12570,61805,52808
12553,61788,52786
12538,61774,52768
12525,61763,52754
12518,61755,52745
12515,61747,52739
12511,61738,52734
12507,61731,52727
12503,61726,52721
12498,61724,52714
12491,61720,52706
12481,61716,52693
12469,61712,52675
12453,61704,52653
12432,61689,52625
12409,61670,52590
12385,61647,52548
12355,61621,52500
12318,61593,52448
12274,61559,52391
12226,61520,52327
12174,61475,52259
12120,61427,52189
12066,61380,52118
12010,61331,52047
11950,61279,51975
11888,61224,51901
11827,61172,51826
11767,61121,51750
11705,61070,51671
11640,61018,51592
11575,60967,51513
11512,60917,51436
11448,60868,51362
11384,60821,51292
11318,60775,51223
11250,60729,51153
11183,60684,51084
11119,60638,51018
11057,60592,50953
10996,60544,50885
10938,60496,50816
10885,60453,50750
10835,60411,50683
10787,60368,50616
10740,60324,50549
10692,60280,50483
10644,60239,50416
10595,60201,50350
10546,60162,50287
10496,60124,50227
10445,60083,50166
10392,60041,50104
10337,59996,50043
10284,59954,49983
10232,59915,49924
10180,59877,49866
10129,59838,49808
10079,59799,49752
10031,59761,49695
9982,59720,49638
9933,59676,49578
9882,59632,49518
9828,59589,49457
9772,59547,49398
9714,59502,49338
9656,59459,49277
9598,59416,49213
9538,59370,49147
9480,59322,49079
9422,59273,49009
9362,59224,48936
9299,59174,48858
9235,59123,48779
9169,59074,48700
9103,59026,48620
9036,58977,48534
8966,58924,48444
8894,58866,48351
8818,58808,48256
8739,58749,48163
8662,58688,48069
8592,58628,47976
8525,58570,47884
8457,58512,47793
8387,58455,47703
8317,58400,47617
8250,58348,47536
8189,58300,47462
8136,58260,47397
8096,58231,47347
8073,58218,47322
8069,58222,47331
8092,58250,47379
8149,58309,47470
8244,58400,47607
8374,58519,47795
8540,58669,48035
8738,58848,48320
8962,59052,48641
9206,59271,48989
9465,59500,49356
9735,59735,49733
10011,59973,50114
10284,60207,50495
10553,60434,50865
10811,60649,51217
11050,60849,51544
11267,61033,51844
11463,61198,52114
11637,61345,52355
11789,61473,52566
11921,61582,52747
12033,61671,52897
12124,61743,53018
12194,61799,53113
12244,61841,53186
12279,61872,53240
12301,61893,53277
12310,61902,53298
12307,61896,53301
12298,61882,53287
12286,61865,53262
12270,61845,53231
12249,61820,53195
12224,61796,53157
12193,61773,53117
12160,61750,53080
12127,61729,53049
12096,61708,53022
12066,61687,52995
12035,61666,52967
12002,61642,52936
11966,61614,52899
11927,61581,52855
11883,61543,52803
11834,61502,52744
11782,61457,52676
11727,61411,52602
11668,61363,52524
11609,61316,52444
11550,61268,52364
11493,61222,52287
11437,61179,52215
11384,61138,52146
11337,61101,52081
11294,61067,52022
11256,61034,51969
11224,61005,51922
11196,60984,51882
11172,60968,51852
11152,60954,51830
11139,60944,51815
11132,60936,51804
11126,60930,51796
11121,60927,51790
11116,60928,51785
11113,60933,51783
11111,60938,51784
11110,60939,51788
11109,60937,51791
11106,60934,51791
11099,60931,51787
11088,60926,51777
11075,60919,51761
11058,60906,51738
11036,60889,51710
11009,60868,51677
10977,60845,51638
10939,60814,51591
10895,60777,51537
10845,60735,51477
10789,60688,51413
10726,60637,51344
10658,60583,51271
10587,60526,51195
10516,60467,51116
10445,60409,51036
10373,60350,50953
10300,60289,50867
10229,60229,50778
10158,60171,50688
10086,60115,50598
10017,60061,50508
9949,60009,50419
9883,59959,50334
9816,59908,50251
9746,59853,50169
9677,59796,50088
9610,59740,50010
9546,59685,49932
9484,59633,49857
9420,59582,49783
9354,59529,49708
9286,59474,49634
9220,59421,49562
9158,59371,49493
9100,59323,49425
9044,59278,49359
8988,59236,49294
8931,59192,49229
8872,59146,49166
8816,59101,49103
8765,59058,49040
8714,59016,48977
8659,58975,48913
8603,58932,48849
8545,58890,48785
8483,58846,48723
8419,58800,48658
8360,58755,48592
8304,58713,48523
8246,58667,48453
8188,58618,48385
8130,58570,48321
8074,58527,48259
8017,58485,48197
7957,58442,48130
7894,58399,48059
7829,58357,47984
7761,58315,47908
7691,58272,47832
7622,58227,47754
7553,58178,47673
7477,58123,47590
7398,58062,47505
7316,57998,47416
7233,57932,47321
7152,57862,47219
7072,57791,47117
6994,57721,47017
6916,57655,46919
6837,57590,46820
6758,57526,46721
6680,57463,46623
6604,57405,46528
6529,57351,46439
6461,57305,46360
6407,57270,46295
6370,57248,46254
6353,57242,46243
6360,57255,46266
6398,57291,46332
6473,57358,46448
6585,57456,46613
6737,57589,46831
6929,57756,47099
7153,57951,47414
7401,58168,47762
7664,58397,48132
7934,58635,48512
8205,58874,48897
8473,59110,49277
8736,59338,49644
8988,59555,49994
9224,59759,50320
9441,59945,50619
9637,60112,50887
9811,60258,51125
9962,60385,51329
10091,60493,51502
10196,60581,51645
10277,60648,51758
10334,60692,51843
10371,60716,51898
10393,60725,51928
10397,60721,51937
10386,60706,51929
10365,60683,51907
10338,60655,51872
10304,60624,51827
10264,60588,51774
10222,60551,51718
10180,60513,51659
10135,60473,51600
10089,60432,51540
10043,60393,51480
9998,60354,51419
9952,60315,51356
9902,60272,51290
9849,60227,51222
9793,60180,51152
9735,60131,51078
9672,60081,51000
9607,60032,50919
9542,59985,50832
9476,59938,50740
9411,59890,50646
9350,59839,50555
9296,59787,50469
9244,59735,50390
9192,59684,50318
9141,59637,50249
9095,59596,50185
9055,59560,50128
9022,59529,50083
8995,59506,50047
8975,59489,50020
8964,59480,50005
8961,59476,49999
8964,59475,50000
8973,59480,50008
8986,59490,50024
9000,59498,50040
9012,59506,50052
9020,59513,50060
9022,59517,50064
9017,59517,50065
9007,59512,50060
8995,59503,50050
8982,59493,50037
8967,59482,50018
8948,59467,49994
8925,59447,49965
8895,59421,49933
8860,59393,49892
8821,59363,49843
8775,59330,49791
8725,59291,49735
8671,59249,49673
8618,59207,49606
8564,59165,49536
8506,59120,49464
8446,59074,49386
8386,59027,49302
8328,58980,49216
8268,58932,49129
8206,58881,49040
8144,58828,48950
8081,58772,48860
8017,58718,48773
7956,58664,48688
7899,58612,48607
7844,58560,48529
7786,58506,48451
7727,58452,48372
7669,58397,48295
7612,58344,48221
7559,58294,48147
7505,58248,48073
7448,58205,48003
7392,58164,47935
7338,58124,47871
7285,58084,47807
7233,58045,47743
7179,58005,47682
7126,57968,47624
7076,57933,47567
7030,57898,47508
6985,57861,47446
6941,57822,47382
6898,57783,47316
6855,57746,47249
6813,57707,47184
6774,57669,47124
6737,57632,47066
6701,57596,47011
6665,57562,46955
6628,57530,46901
6586,57500,46847
6541,57471,46794
6493,57442,46746
6444,57412,46697
6396,57382,46647
6348,57349,46597
6300,57312,46543
6249,57274,46484
6196,57234,46421
6144,57195,46357
6093,57155,46294
6040,57113,46229
5985,57071,46156
5928,57025,46080
5868,56975,46002
5806,56922,45921
5744,56864,45836
5680,56802,45755
5615,56739,45674
5553,56678,45591
5493,56623,45511
5437,56573,45436
5388,56527,45367
5344,56489,45304
5308,56460,45251
5284,56441,45214
5278,56438,45202
5296,56457,45224
5346,56500,45288
5433,56572,45402
5557,56675,45570
5719,56811,45793
5919,56979,46066
6151,57175,46382
6409,57395,46728
6687,57630,47099
6979,57875,47489
7275,58124,47885
7568,58371,48280
7855,58614,48665
8135,58847,49034
8401,59063,49381
8651,59260,49703
8883,59439,49998
9093,59601,50264
9275,59744,50500
9429,59867,50705
9557,59973,50879
9662,60061,51025
9745,60131,51142
9809,60184,51231
9857,60223,51295
9891,60249,51339
9911,60262,51366
9922,60265,51377
9924,60257,51374
9919,60243,51358
9909,60226,51333
9894,60208,51303
9875,60189,51272
9852,60168,51238
9826,60144,51202
9796,60121,51160
9762,60097,51116
9723,60070,51070
9683,60040,51021
9643,60008,50968
9603,59975,50909
9560,59940,50847
9516,59902,50783
9470,59863,50718
9419,59820,50651
9365,59773,50580
9309,59723,50506
9251,59674,50432
9190,59626,50357
9126,59579,50281
9062,59533,50208
9003,59492,50140
8950,59457,50081
8904,59426,50032
8864,59400,49992
8833,59381,49960
8810,59368,49933
8790,59358,49914
8776,59350,49903
8770,59346,49897
8773,59346,49895
8777,59349,49897
8779,59356,49900
8780,59365,49903
8778,59374,49907
8771,59380,49910
8761,59382,49913
8751,59381,49914
8743,59378,49911
8732,59370,49902
8715,59355,49889
8695,59338,49871
8673,59317,49846
8649,59293,49815
8621,59267,49780
8589,59239,49740
8552,59205,49694
8509,59167,49640
8460,59125,49578
8411,59085,49510
8359,59047,49438
8303,59008,49365
8244,58963,49287
8183,58913,49205
8116,58860,49123
8047,58804,49039
7979,58747,48953
7913,58692,48864
7847,58637,48775
7779,58582,48685
7711,58527,48597
7647,58472,48511
7584,58417,48430
7520,58365,48351
7458,58316,48270
7397,58270,48193
7339,58226,48119
7280,58181,48044
7221,58137,47966
7164,58092,47890
7109,58050,47816
7056,58009,47744
7005,57967,47674
6954,57923,47605
6904,57882,47540
6856,57843,47476
6811,57806,47413
6769,57769,47353
6729,57733,47297
6688,57697,47245
6647,57663,47194
6608,57630,47143
6570,57597,47092
6532,57564,47040
6494,57531,46989
6455,57497,46939
6417,57463,46890
6381,57432,46839
6346,57406,46787
6309,57377,46733
6269,57344,46677
6223,57311,46620
6174,57279,46562
6121,57246,46505
6069,57211,46449
6018,57176,46394
5969,57141,46339
5918,57103,46283
5865,57063,46226
5810,57019,46163
5754,56973,46095
5697,56924,46024
5641,56875,45952
5585,56825,45878
5528,56774,45800
5466,56720,45718
5403,56665,45633
5338,56612,45544
5272,56560,45454
5203,56507,45365
5131,56451,45275
5060,56395,45187
4993,56341,45104
4933,56292,45028
4881,56251,44963
4841,56224,44914
4819,56213,44890
4820,56223,44899
4852,56260,44949
4921,56325,45048
5027,56421,45200
5171,56548,45407
5357,56708,45668
5582,56901,45977
5838,57121,46327
6119,57362,46711
6419,57616,47119
6730,57880,47539
7045,58147,47962
7354,58412,48380
7649,58669,48785
7928,58914,49171
8190,59139,49533
8434,59341,49867
8660,59524,50168
8863,59686,50434
9040,59827,50665
9193,59949,50865
9321,60050,51032
9426,60128,51167
9508,60187,51274
9569,60232,51356
9613,60264,51418
9643,60283,51464
9663,60293,51494
9676,60297,51508
9682,60298,51510
9681,60294,51501
9673,60285,51486
9659,60275,51468
9644,60264,51450
9630,60254,51435
9618,60245,51423
9607,60239,51411
9598,60236,51397
9590,60233,51381
9580,60226,51364
9568,60216,51344
9555,60202,51321
9537,60184,51292
9510,60160,51258
9476,60129,51216
9438,60097,51166
9399,60063,51110
9360,60026,51049
9317,59986,50986
9270,59944,50921
9220,59902,50854
9169,59860,50783
9118,59816,50712
9071,59775,50646
9028,59739,50590
8985,59708,50542
8946,59680,50500
8914,59657,50461
8885,59637,50426
8859,59619,50393
8837,59604,50367
8817,59592,50345
8799,59582,50326
8787,59575,50313
8781,59573,50304
8776,59572,50296
8770,59568,50288
8765,59563,50278
8761,59560,50265
8758,59557,50251
8753,59550,50236
8745,59539,50219
8734,59524,50199
8719,59506,50178
8698,59486,50150
8673,59466,50116
8645,59446,50075
8612,59427,50028
8577,59407,49978
8541,59382,49925
8506,59354,49869
8467,59322,49809
8424,59288,49747
8376,59251,49683
8322,59210,49616
8262,59164,49543
8196,59114,49466
8127,59063,49387
8058,59015,49308
7992,58968,49228
7923,58919,49146
7854,58869,49058
7788,58820,48970
7723,58772,48882
7658,58721,48792
7593,58666,48702
7528,58609,48614
7460,58554,48528
7391,58501,48443
7321,58450,48359
7252,58400,48277
7182,58348,48197
7114,58295,48119
7050,58243,48041
6987,58191,47965
6924,58139,47891
6861,58087,47820
6801,58038,47748
6742,57991,47677
6682,57942,47609
6625,57896,47545
6569,57854,47482
6514,57815,47421
6458,57776,47362
6402,57738,47303
6348,57699,47245
6297,57659,47188
6246,57618,47134
6197,57576,47077
6152,57534,47018
6110,57492,46957
6068,57450,46896
6025,57409,46835
5980,57368,46771
5930,57326,46703
5875,57286,46632
5818,57247,46561
5758,57207,46492
5699,57164,46424
5640,57120,46356
5581,57077,46285
5519,57030,46208
5453,56982,46128
5384,56931,46045
5315,56881,45960
5248,56829,45873
5180,56773,45785
5111,56712,45697
5042,56649,45608
4975,56588,45518
4911,56533,45433
4852,56484,45357
4799,56445,45292
4758,56419,45243
4733,56408,45216
4727,56413,45218
4745,56439,45255
4796,56491,45335
4883,56573,45465
5008,56689,45647
5171,56840,45882
5369,57023,46167
5597,57230,46493
5853,57455,46852
6131,57693,47235
6421,57939,47635
6712,58185,48041
6999,58427,48442
7280,58665,48831
7551,58895,49200
7806,59111,49544
8043,59312,49862
8258,59494,50153
8450,59655,50415
8616,59795,50644
8756,59913,50839
8870,60011,51003
8962,60090,51138
9033,60149,51244
9085,60192,51323
9123,60221,51377
9145,60235,51412
9154,60237,51432
9150,60232,51438
9138,60224,51429
9117,60213,51411
9087,60196,51387
9053,60175,51359
9017,60154,51329
8984,60132,51299
8956,60110,51269
8930,60090,51239
8903,60072,51210
8877,60056,51182
8854,60045,51157
8831,60035,51131
8802,60025,51099
8769,60009,51062
8732,59985,51018
8689,59953,50968
8639,59915,50910
8581,59870,50845
8517,59819,50773
8450,59763,50694
8379,59701,50614
8308,59636,50532
8237,59574,50451
8169,59515,50370
8104,59461,50294
8042,59411,50225
7986,59369,50164
7936,59336,50110
7893,59308,50060
7858,59284,50016
7831,59265,49978
7810,59250,49949
7794,59242,49931
7781,59238,49920
7772,59236,49912
7763,59236,49908
7753,59236,49907
7744,59236,49906
7737,59236,49904
7730,59233,49899
7722,59227,49892
7712,59219,49881
7699,59208,49867
7686,59193,49847
7671,59177,49820
7652,59158,49786
7626,59135,49745
7593,59106,49700
7554,59071,49652
7510,59033,49599
7464,58992,49542
7414,58949,49482
7360,58902,49415
7303,58854,49343
7246,58807,49267
7189,58762,49191
7130,58714,49113
7068,58665,49034
7003,58617,48953
6939,58568,48870
6874,58516,48788
6810,58462,48706
6748,58408,48624
6684,58356,48542
6619,58310,48461
6556,58266,48381
6497,58221,48303
6441,58178,48227
6389,58136,48157
6339,58095,48090
6292,58055,48027
6244,58016,47966
6196,57975,47909
6152,57937,47853
6108,57899,47799
6063,57862,47745
6021,57827,47694
5986,57798,47646
5954,57771,47597
5922,57745,47547
5890,57716,47497
5856,57685,47448
5822,57652,47399
5787,57617,47351
5750,57581,47301
5712,57546,47251
5671,57513,47200
5629,57482,47151
5591,57452,47103
5554,57424,47054
5517,57397,47002
5475,57365,46946
5431,57329,46886
5385,57290,46821
5338,57249,46755
5288,57207,46690
5236,57163,46627
5180,57117,46564
5120,57070,46498
5058,57026,46430
4995,56984,46361
4932,56941,46290
4869,56896,46215
4805,56847,46138
4742,56799,46060
4680,56751,45982
4620,56702,45904
4560,56655,45829
4506,56612,45761
4463,56577,45705
4431,56558,45668
4417,56556,45659
4428,56577,45689
4469,56626,45765
4545,56701,45888
4660,56805,46060
4815,56940,46279
5008,57108,46547
5232,57304,46857
5481,57522,47200
5751,57756,47567
6033,57998,47949
6317,58240,48337
6595,58475,48717
6861,58701,49082
7113,58918,49429
7350,59121,49755
7569,59305,50055
7769,59471,50326
7944,59618,50568
8096,59747,50777
8227,59859,50955
8337,59954,51102
8425,60028,51223
8492,60081,51318
8539,60116,51386
8569,60138,51430
8584,60145,51455
8587,60141,51464
8579,60130,51457
8561,60112,51436
8533,60088,51405
8497,60060,51365
8457,60033,51321
8419,60006,51274
8384,59979,51225
8351,59952,51178
8319,59924,51132
8289,59894,51085
8260,59861,51038
8231,59828,50990
8203,59797,50942
8173,59765,50892
8136,59729,50839
8093,59688,50782
8044,59643,50719
7992,59596,50650
7937,59548,50576
7881,59502,50500
7825,59460,50424
7770,59421,50354
7715,59384,50290
7666,59348,50231
7624,59314,50179
7590,59286,50134
7561,59261,50098
7540,59240,50069
7528,59226,50048
7525,59219,50037
7525,59216,50033
7530,59216,50033
7537,59219,50038
7545,59223,50045
7554,59227,50053
7562,59231,50059
7571,59238,50065
7577,59246,50069
7581,59252,50072
7584,59255,50072
7586,59253,50068
7581,59247,50062
7572,59240,50053
7558,59232,50042
7540,59223,50027
7520,59212,50008
7498,59197,49984
7473,59177,49953
7443,59150,49914
7412,59119,49865
7378,59084,49807
7338,59046,49743
7291,59009,49677
7242,58971,49612
7191,58931,49548
7139,58889,49486
7084,58845,49420
7028,58799,49348
6968,58753,49270
6908,58707,49187
6852,58660,49104
6799,58613,49025
6745,58564,48948
6691,58519,48873
6639,58476,48805
6587,58435,48742
6536,58394,48681
6488,58353,48621
6444,58314,48563
6398,58275,48508
6352,58237,48452
6309,58202,48396
6271,58169,48342
6234,58137,48290
6198,58106,48241
6160,58077,48193
6121,58051,48143
6083,58026,48092
6049,58001,48041
6019,57976,47994
5990,57949,47947
5956,57919,47899
5918,57889,47849
5878,57857,47800
5837,57824,47749
5796,57794,47697
5755,57764,47644
5710,57733,47588
5662,57698,47530
5614,57661,47473
5568,57622,47415
5523,57584,47355
5478,57546,47293
5434,57507,47230
5390,57466,47168
5344,57423,47106
5295,57378,47046
5244,57334,46985
5191,57290,46924
5139,57246,46861
5090,57201,46795
5044,57156,46727
5003,57118,46664
4968,57088,46611
4937,57062,46572
4918,57046,46549
4917,57045,46547
4940,57065,46574
4989,57109,46638
5063,57177,46743
5166,57270,46893
5301,57393,47089
5469,57543,47328
5667,57718,47608
5890,57914,47923
6133,58126,48261
6388,58346,48613
6651,58571,48970
6917,58799,49326
7179,59024,49679
7431,59240,50022
7672,59443,50350
7899,59633,50657
8110,59808,50940
8300,59968,51197
8471,60113,51426
8623,60241,51629
8751,60347,51800
8857,60434,51938
8941,60503,52046
9007,60557,52129
9058,60598,52190
9095,60630,52234
9121,60651,52263
9136,60662,52276
9141,60663,52279
9138,60655,52276
9131,60642,52269
9123,60630,52256
9114,60620,52243
9108,60611,52229
9103,60600,52217
9097,60590,52205
9090,60580,52193
9080,60569,52182
9071,60557,52169
9059,60542,52153
9043,60527,52130
9023,60510,52100
8998,60491,52062
8963,60464,52013
8920,60430,51954
8872,60392,51891
8824,60351,51825
8775,60309,51759
8725,60266,51693
8676,60223,51626
8628,60182,51562
8586,60144,51501
8550,60109,51445
8515,60078,51394
8481,60051,51347
8451,60027,51307
8424,60006,51275
8402,59989,51249
8389,59979,51231
8384,59974,51219
8385,59974,51213
8392,59978,51213
8405,59987,51216
8418,59994,51220
8429,60000,51224
8437,60005,51226
8441,60009,51225
8440,60008,51223
8435,60002,51217
8425,59993,51205
8413,59979,51189
8397,59963,51171
8378,59946,51150
8359,59931,51126
8339,59916,51096
8315,59897,51062
8287,59873,51025
8255,59848,50983
8220,59823,50937
8184,59796,50887
8144,59763,50831
8102,59727,50772
8060,59688,50710
8014,59645,50644
7962,59595,50572
7908,59542,50494
7852,59490,50415
7794,59437,50336
7734,59384,50259
7675,59332,50186
7616,59284,50112
7557,59239,50035
7501,59196,49959
7451,59156,49888
7405,59118,49823
7360,59081,49763
7315,59043,49708
7272,59006,49654
7228,58966,49598
7181,58926,49537
7132,58888,49476
7082,58853,49417
7033,58816,49360
6986,58778,49306
6944,58742,49254
6908,58711,49204
6874,58683,49156
6838,58655,49109
6801,58627,49062
6763,58600,49015
6723,58574,48967
6682,58548,48920
6641,58524,48873
6602,58499,48828
6561,58473,48781
6520,58444,48732
6482,58414,48680
6447,58379,48622
6409,58338,48559
6369,58294,48493
6329,58250,48427
6287,58207,48364
6240,58165,48300
6190,58119,48234
6138,58073,48170
6089,58029,48107
6039,57989,48045
5989,57949,47983
5939,57910,47920
5889,57869,47856
5835,57824,47793
5782,57781,47731
5736,57743,47674
5697,57710,47623
5666,57683,47581
5646,57668,47555
5642,57672,47552
5658,57693,47577
5697,57733,47638
5765,57796,47737
5866,57887,47877
6001,58006,48059
6164,58150,48283
6357,58318,48547
6578,58508,48844
6823,58717,49168
7084,58938,49511
7352,59167,49867
7624,59396,50227
7896,59619,50584
8159,59837,50929
8409,60047,51262
8645,60245,51577
8866,60429,51871
9070,60594,52142
9255,60740,52389
9424,60869,52610
9575,60982,52805
9706,61080,52972
9820,61166,53113
9917,61241,53231
9996,61303,53330
10060,61353,53410
10114,61392,53472
10159,61424,53521
10194,61449,53560
10221,61469,53586
10243,61483,53601
10261,61493,53609
10274,61500,53618
10283,61506,53627
10293,61512,53637
10305,61515,53647
10316,61516,53655
10323,61515,53665
10329,61514,53672
10331,61509,53676
10330,61500,53675
10326,61492,53671
10321,61487,53662
10311,61482,53648
10298,61474,53629
10280,61462,53602
10258,61446,53566
10229,61423,53524
10196,61393,53474
10158,61359,53415
10116,61321,53349
10068,61280,53279
10016,61237,53208
9964,61194,53138
9913,61151,53071
9865,61111,53010
9822,61075,52955
9786,61044,52908
9759,61018,52867
9740,60998,52833
9726,60983,52805
9715,60972,52784
9705,60964,52767
9697,60958,52755
9690,60953,52747
9680,60946,52737
9668,60939,52728
9656,60928,52721
9642,60916,52712
9628,60903,52699
9613,60887,52682
9599,60870,52663
9585,60856,52640
9571,60844,52614
9555,60832,52587
9533,60820,52559
9507,60806,52529
9481,60790,52495
9455,60769,52455
9426,60741,52408
9394,60707,52355
9359,60670,52300
9322,60632,52241
9281,60595,52179
9235,60556,52111
9184,60517,52040
9129,60474,51968
9072,60428,51895
9016,60380,51824
8962,60331,51757
8909,60284,51690
8854,60239,51623
8797,60194,51553
8741,60149,51482
8685,60103,51413
8630,60057,51344
8575,60011,51274
8522,59966,51207
8471,59923,51143
8422,59882,51082
8374,59844,51022
8327,59808,50960
8280,59773,50898
8236,59740,50838
8194,59710,50780
8153,59678,50725
8111,59644,50674
8071,59608,50623
8031,59572,50572
7990,59536,50519
7949,59499,50467
7908,59462,50414
7869,59426,50361
7832,59390,50312
7796,59356,50267
7759,59325,50221
7723,59299,50175
7685,59276,50131
7645,59253,50086
7604,59230,50038
7563,59205,49987
7523,59176,49934
7480,59142,49880
7434,59107,49824
7384,59068,49764
7333,59025,49702
7279,58980,49637
7225,58933,49567
7171,58882,49492
7113,58831,49413
7054,58781,49333
6996,58736,49252
6939,58694,49173
6884,58656,49100
6831,58619,49030
6780,58581,48963
6729,58544,48896
6678,58507,48830
6630,58468,48769
6588,58433,48716
6556,58405,48674
6539,58387,48650
6538,58378,48650
6556,58383,48678
6597,58409,48736
6664,58460,48828
6762,58540,48959
6888,58651,49131
7040,58789,49344
7219,58953,49598
7425,59138,49887
7657,59341,50205
7907,59559,50549
8168,59788,50910
8433,60019,51276
8695,60245,51634
8951,60461,51977
9195,60669,52302
9427,60865,52609
9644,61046,52894
9846,61208,53156
10027,61352,53393
10186,61479,53602
10325,61588,53783
10444,61678,53936
10541,61753,54062
10621,61814,54166
10688,61860,54251
10742,61895,54316
10782,61922,54362
10809,61941,54394
10829,61955,54414
10847,61962,54426
10865,61965,54430
10877,61969,54432
10884,61972,54434
10886,61971,54435
10886,61971,54436
10888,61975,54438
10890,61981,54441
10893,61987,54444
10895,61990,54449
10896,61992,54452
10897,61994,54451
10898,61997,54449
10898,61998,54441
10892,61992,54424
10877,61977,54396
10854,61954,54355
10820,61923,54304
10778,61887,54244
10728,61845,54175
10671,61796,54100
10609,61743,54022
10547,61689,53942
10488,61637,53860
10431,61591,53784
10378,61548,53716
10331,61509,53657
10288,61475,53606
10249,61445,53563
10214,61419,53525
10184,61398,53493
10160,61380,53467
10143,61364,53445
10131,61349,53427
10121,61339,53411
10112,61332,53399
10105,61329,53391
10101,61327,53385
10098,61328,53376
10095,61326,53363
10087,61321,53349
10075,61313,53333
10061,61302,53314
10043,61285,53289
10020,61262,53257
9993,61236,53223
9963,61209,53186
9931,61183,53145
9901,61156,53101
9870,61129,53052
9834,61097,52998
9790,61059,52938
9740,61017,52872
9686,60973,52801
9632,60929,52728
9577,60885,52658
9522,60841,52590
9469,60797,52520
9416,60754,52450
9363,60709,52380
9310,60663,52308
9258,60616,52233
9206,60566,52156
9153,60512,52080
9096,60458,52006
9036,60405,51933
8976,60354,51857
8916,60306,51781
8858,60259,51705
8800,60210,51629
8741,60161,51554
8680,60114,51482
8619,60068,51410
8559,60025,51341
8501,59982,51272
8445,59940,51203
8390,59899,51137
8336,59860,51075
8282,59819,51014
8231,59778,50954
8183,59739,50896
8135,59702,50840
8083,59666,50783
8030,59629,50723
7979,59589,50662
7931,59551,50602
7887,59514,50543
7842,59477,50483
7795,59440,50423
7746,59405,50362
7696,59368,50300
7646,59329,50238
7598,59288,50176
7550,59247,50113
7498,59203,50049
7440,59155,49982
7377,59104,49912
7315,59051,49838
7252,58999,49763
7188,58947,49690
7124,58895,49613
7059,58843,49534
6994,58792,49453
6927,58742,49373
6858,58693,49291
6786,58642,49206
6714,58588,49117
6644,58532,49025
6576,58474,48931
6508,58415,48838
6439,58355,48743
6368,58295,48646
6292,58235,48549
6210,58173,48453
6128,58110,48356
6049,58045,48258
5975,57982,48161
5904,57920,48069
5834,57860,47987
5766,57805,47912
5708,57760,47845
5664,57726,47793
5638,57708,47768
5636,57713,47773
