green_channel,red_channel,ir_channel
21575,48860,15637
22045,49339,16453
22494,49805,17219
22883,50208,17880
23203,50539,18430
23484,50834,18909
23720,51091,19309
23891,51276,19596
24010,51406,19794
24105,51519,19952
24169,51603,20061
24181,51622,20090
24160,51598,20061
24139,51576,20018
24104,51541,19951
24036,51462,19833
23953,51364,19690
23881,51285,19560
23808,51205,19426
23714,51092,19255
23611,50969,19068
23522,50871,18903
23436,50779,18741
23333,50661,18554
23223,50535,18364
23124,50431,18196
23027,50329,18027
22925,50213,17842
22831,50107,17669
22748,50022,17522
22659,49932,17364
22560,49818,17179
22467,49709,16998
22381,49618,16833
22280,49513,16647
22162,49381,16429
22052,49257,16216
21953,49152,16024
21844,49036,15823
21722,48902,15610
21617,48790,15426
21536,48709,15280
21457,48626,15140
21378,48536,15006
21320,48471,14913
21284,48434,14853
21249,48396,14797
21222,48360,14756
21223,48361,14761
21241,48389,14798
21254,48402,14831
21270,48407,14868
21307,48440,14939
21353,48488,15022
21380,48511,15073
21398,48525,15111
21428,48563,15173
21464,48608,15242
21482,48624,15277
21488,48624,15290
21501,48644,15314
21515,48665,15332
21507,48654,15309
21482,48625,15264
21460,48602,15219
21429,48568,15151
21379,48505,15045
21325,48440,14931
21275,48388,14827
21209,48319,14704
21119,48220,14550
21032,48127,14399
20957,48056,14262
20867,47972,14101
20754,47858,13907
20648,47753,13721
20559,47669,13559
20457,47573,13382
20335,47451,13184
20223,47341,13002
20127,47252,12841
20021,47149,12664
19900,47023,12468
19792,46913,12290
19699,46825,12132
19591,46720,11953
19468,46598,11756
19360,46498,11585
19265,46414,11439
19154,46308,11278
19039,46189,11110
18954,46105,10977
18890,46047,10867
18815,45972,10736
18737,45890,10595
18685,45837,10486
18641,45796,10392
18576,45730,10280
18511,45662,10173
18469,45624,10102
18425,45585,10036
18353,45511,9941
18284,45438,9853
18240,45407,9801
18197,45382,9749
18137,45327,9665
18080,45275,9582
18043,45250,9528
18001,45216,9461
17937,45152,9357
17876,45094,9258
17831,45059,9188
17779,45013,9111
17716,44942,9010
17670,44886,8924
17645,44861,8868
17614,44830,8805
17572,44786,8736
17551,44770,8713
17563,44795,8751
17593,44838,8828
17657,44905,8962
17794,45051,9217
18016,45291,9607
18291,45576,10090
18617,45896,10660
19011,46288,11342
19449,46736,12109
19886,47185,12898
20326,47638,13707
20788,48128,14557
21250,48623,15406
21677,49075,16184
22076,49488,16893
22460,49890,17555
22803,50253,18139
23080,50539,18603
23305,50770,18974
23502,50980,19288
23657,51151,19528
23751,51254,19666
23798,51304,19737
23825,51337,19780
23829,51344,19776
23799,51299,19702
23745,51228,19596
23686,51164,19487
23612,51084,19349
23517,50974,19170
23421,50862,18990
23332,50768,18830
23234,50667,18657
23125,50544,18459
23030,50433,18274
22953,50348,18121
22873,50254,17963
22781,50138,17784
22698,50037,17619
22627,49960,17473
22546,49871,17310
22447,49758,17123
22351,49653,16943
22259,49559,16772
22150,49445,16576
22025,49310,16357
21908,49194,16149
21802,49093,15954
21685,48969,15737
21559,48826,15513
21456,48710,15322
21372,48621,15159
21278,48523,14994
21181,48422,14837
21112,48360,14725
21070,48326,14654
21028,48280,14583
20991,48234,14524
20983,48225,14514
20997,48245,14544
21007,48256,14575
21021,48267,14613
21059,48306,14680
21108,48356,14763
21146,48390,14835
21185,48422,14915
21235,48474,15019
21280,48523,15117
21308,48547,15183
21340,48576,15243
21383,48626,15313
21411,48665,15360
21415,48669,15367
21420,48670,15362
21432,48683,15359
21424,48674,15326
21389,48625,15255
21356,48574,15184
21336,48539,15121
21301,48483,15024
21242,48397,14891
21177,48318,14763
21111,48252,14639
21029,48167,14485
20934,48064,14309
20849,47980,14153
20770,47914,14010
20675,47829,13844
20572,47733,13666
20483,47658,13514
20396,47589,13368
20291,47488,13193
20189,47376,13014
20112,47298,12872
20043,47235,12741
19957,47145,12580
19868,47047,12415
19797,46973,12284
19726,46902,12158
19635,46802,12002
19546,46705,11850
19482,46649,11740
19422,46600,11640
19344,46522,11515
19273,46445,11397
19230,46401,11319
19190,46362,11247
19134,46302,11153
19086,46254,11076
19061,46242,11034
19026,46218,10979
18967,46158,10891
18913,46106,10813
18876,46084,10760
18831,46051,10691
18774,45991,10595
18731,45942,10512
18702,45917,10453
18661,45877,10376
18603,45812,10273
18556,45763,10188
18524,45743,10130
18481,45707,10056
18427,45650,9962
18392,45613,9896
18378,45601,9864
18359,45578,9833
18344,45556,9814
18374,45589,9871
18457,45682,10016
18565,45798,10221
18717,45951,10503
18951,46189,10913
19252,46498,11436
19583,46831,12026
19950,47200,12685
20373,47639,13441
20831,48123,14260
21289,48604,15082
21753,49089,15898
22232,49594,16713
22686,50075,17476
23081,50485,18140
23431,50847,18722
23754,51188,19244
24025,51472,19679
24225,51674,20005
24384,51829,20257
24522,51969,20464
24613,52061,20599
24645,52085,20648
24652,52083,20656
24655,52082,20651
24632,52056,20609
24579,51993,20523
24526,51934,20428
24484,51897,20340
24424,51840,20226
24341,51748,20080
24263,51659,19942
24199,51587,19822
24123,51498,19690
24029,51387,19538
23947,51291,19399
23881,51217,19278
23802,51129,19141
23714,51026,18988
23649,50951,18858
23603,50898,18743
23538,50812,18593
23451,50700,18416
23377,50610,18257
23308,50533,18109
23210,50425,17931
23097,50299,17733
23004,50200,17556
22922,50117,17395
22824,50008,17208
22722,49893,17011
22642,49809,16849
22572,49738,16710
22489,49649,16570
22412,49564,16450
22365,49514,16379
22336,49480,16332
22310,49442,16288
22304,49425,16274
22331,49451,16310
22366,49487,16361
22393,49509,16406
22433,49546,16471
22494,49615,16570
22551,49681,16668
22592,49723,16749
22644,49776,16843
22715,49853,16959
22774,49914,17055
22808,49943,17109
22839,49969,17152
22873,50004,17196
22885,50014,17208
22871,49990,17182
22857,49964,17153
22846,49948,17127
22815,49909,17068
22765,49846,16978
22727,49799,16895
22697,49766,16816
22645,49705,16701
22574,49618,16553
22510,49544,16416
22448,49477,16289
22359,49379,16134
22253,49260,15956
22164,49165,15796
22085,49085,15647
21985,48980,15471
21872,48857,15275
21774,48753,15098
21684,48655,14927
21580,48535,14734
21470,48412,14535
21376,48317,14365
21289,48232,14205
21188,48129,14029
21095,48034,13862
21026,47969,13725
20956,47902,13593
20871,47810,13447
20796,47727,13315
20740,47673,13213
20672,47609,13105
20582,47518,12973
20506,47439,12855
20455,47392,12767
20394,47338,12672
20313,47260,12554
20245,47194,12447
20200,47151,12366
20148,47100,12278
20085,47031,12175
20037,46978,12091
20005,46949,12033
19962,46906,11960
19909,46842,11870
19875,46800,11804
19861,46788,11762
19829,46759,11697
19778,46708,11610
19740,46675,11548
19712,46660,11506
19661,46620,11443
19599,46564,11365
19563,46534,11315
19539,46519,11281
19494,46478,11219
19447,46429,11145
19424,46410,11097
19402,46395,11051
19358,46346,10972
19313,46290,10885
19284,46258,10824
19246,46223,10758
19181,46154,10653
19118,46084,10546
19083,46050,10473
19052,46021,10399
19005,45966,10301
18968,45923,10222
18961,45924,10203
18968,45942,10220
18986,45963,10270
19059,46038,10414
19211,46202,10692
19421,46427,11078
19682,46697,11559
20022,47044,12167
20443,47475,12904
20903,47947,13713
21384,48437,14562
21898,48969,15460
22429,49530,16380
22931,50061,17252
23388,50542,18046
23819,51004,18785
24217,51437,19463
24549,51789,20027
24818,52063,20474
25056,52304,20855
25255,52507,21173
25387,52636,21390
25472,52711,21526
25550,52780,21635
25612,52840,21713
25630,52852,21725
25617,52835,21692
25609,52828,21660
25592,52813,21614
25545,52760,21526
25495,52698,21427
25468,52665,21354
25440,52635,21283
25384,52572,21182
25329,52509,21085
25302,52483,21027
25278,52458,20975
25236,52401,20895
25200,52344,20822
25185,52316,20782
25164,52280,20735
25118,52218,20656
25077,52166,20585
25056,52146,20545
25024,52117,20493
24968,52061,20410
24918,52010,20326
24881,51978,20252
24826,51923,20150
24746,51834,20013
24670,51748,19874
24597,51670,19740
24504,51566,19576
24393,51437,19385
24297,51330,19217
24219,51249,19081
24134,51153,18935
24049,51049,18785
23990,50981,18675
23949,50942,18596
23903,50888,18512
23863,50831,18440
23850,50815,18419
23850,50827,18429
23840,50826,18428
23836,50827,18435
23864,50862,18487
23904,50907,18551
23929,50924,18585
23952,50935,18611
23992,50974,18663
24034,51019,18719
24058,51034,18744
24070,51035,18758
24086,51052,18790
24096,51064,18815
24084,51041,18806
24061,51008,18783
24045,50990,18766
24024,50968,18725
23987,50922,18641
23947,50871,18545
23910,50828,18457
23858,50767,18346
23785,50675,18198
23710,50585,18049
23641,50512,17918
23558,50424,17766
23452,50310,17584
23350,50203,17410
23262,50116,17255
23168,50017,17088
23067,49901,16903
22982,49803,16733
22912,49728,16579
22831,49644,16414
22736,49547,16237
22653,49465,16083
22579,49397,15949
22486,49305,15793
22378,49192,15618
22290,49104,15469
22221,49037,15341
22138,48950,15194
22046,48850,15035
21978,48777,14905
21922,48717,14791
21849,48632,14653
21772,48540,14509
21714,48478,14393
21654,48423,14288
21571,48337,14162
21489,48250,14038
21435,48196,13948
21383,48151,13869
21314,48086,13774
21257,48032,13688
21227,48012,13633
21192,47986,13568
21138,47927,13470
21091,47875,13380
21064,47855,13322
21026,47830,13259
20968,47778,13172
20919,47730,13098
20889,47704,13050
20851,47663,12989
20798,47597,12900
20752,47543,12821
20718,47510,12762
20672,47457,12682
20609,47377,12572
20553,47311,12476
20512,47268,12397
20458,47210,12296
20391,47137,12177
20338,47089,12087
20298,47061,12018
20244,47012,11927
20185,46953,11829
20145,46922,11768
20122,46909,11733
20099,46883,11695
20095,46870,11685
20139,46920,11762
20228,47026,11931
20352,47160,12173
20529,47344,12511
20789,47615,12982
21121,47959,13568
21495,48339,14228
21909,48762,14963
22373,49250,15781
22860,49769,16633
23330,50266,17459
23780,50744,18244
24216,51214,18988
24613,51641,19658
24954,51996,20228
25252,52306,20721
25519,52589,21152
25732,52814,21493
25882,52963,21732
25998,53075,21912
26094,53175,22058
26149,53233,22140
26161,53238,22152
26162,53230,22140
26164,53232,22125
26144,53209,22079
26103,53155,22001
26067,53108,21927
26039,53078,21868
25996,53029,21791
25938,52958,21693
25891,52906,21610
25857,52872,21545
25802,52809,21455
25730,52721,21345
25679,52657,21264
25644,52618,21209
25593,52559,21130
25541,52489,21032
25519,52444,20954
25502,52406,20890
25457,52341,20803
25400,52268,20707
25355,52221,20632
25303,52177,20549
25225,52096,20417
25135,51998,20263
25055,51917,20124
24969,51830,19973
24857,51707,19782
24734,51575,19583
24625,51468,19411
24523,51365,19245
24416,51244,19065
24320,51134,18902
24249,51061,18777
24186,50998,18665
24125,50925,18550
24081,50870,18464
24060,50848,18421
24039,50830,18392
24017,50801,18364
24014,50793,18362
24034,50815,18390
24051,50831,18418
24057,50831,18433
24078,50853,18469
24119,50904,18533
24151,50940,18585
24167,50950,18616
24187,50971,18657
24211,51002,18704
24209,51001,18715
24183,50965,18689
24165,50940,18665
24152,50923,18641
24113,50871,18577
24052,50792,18481
24001,50736,18397
23953,50694,18315
23877,50621,18190
23790,50532,18038
23721,50468,17903
23650,50407,17770
23552,50310,17601
23447,50201,17420
23354,50114,17261
23255,50024,17097
23132,49901,16895
23012,49777,16694
22921,49686,16526
22833,49597,16358
22723,49477,16155
22612,49355,15953
22523,49261,15780
22432,49162,15600
22318,49032,15390
22207,48911,15191
22114,48821,15024
22014,48722,14852
21895,48595,14657
21787,48482,14482
21704,48403,14344
21616,48315,14199
21512,48202,14033
21418,48103,13884
21342,48029,13760
21261,47943,13622
21172,47841,13468
21103,47763,13341
21054,47715,13248
20989,47654,13140
20909,47577,13016
20846,47526,12918
20797,47493,12837
20734,47435,12729
20662,47364,12607
20604,47315,12510
20547,47275,12424
20474,47208,12312
20402,47132,12197
20354,47085,12118
20314,47050,12054
20253,46993,11965
20187,46928,11874
20144,46892,11814
20110,46863,11764
20059,46805,11686
19998,46733,11593
19947,46681,11517
19898,46636,11443
19834,46564,11345
19768,46486,11242
19715,46429,11156
19653,46371,11060
19571,46285,10934
19494,46206,10812
19435,46156,10718
19367,46101,10619
19281,46020,10493
19204,45949,10373
19149,45903,10277
19085,45848,10174
19005,45772,10056
18948,45719,9975
18930,45711,9954
18928,45718,9968
18949,45743,10027
19032,45834,10187
19190,46007,10470
19400,46229,10853
19662,46499,11335
19999,46852,11948
20401,47276,12672
20826,47719,13442
21266,48176,14242
21748,48686,15101
22253,49229,15988
22730,49737,16827
23178,50202,17603
23617,50654,18336
24022,51073,19003
24351,51412,19554
24618,51683,20003
24852,51925,20385
25037,52124,20689
25152,52248,20886
25228,52328,21011
25295,52401,21104
25332,52443,21144
25319,52424,21114
25289,52385,21051
25265,52357,20989
25222,52305,20898
25140,52206,20755
25050,52100,20606
24976,52021,20484
24894,51935,20351
24791,51818,20188
24697,51711,20035
24629,51634,19914
24559,51551,19787
24475,51444,19640
24400,51354,19506
24340,51290,19397
24264,51212,19275
24173,51113,19132
24094,51031,19004
24031,50973,18897
23954,50899,18768
23859,50800,18607
23772,50709,18447
23689,50629,18291
23581,50518,18097
23453,50375,17871
23341,50250,17662
23245,50145,17473
23132,50016,17264
23007,49874,17045
22906,49768,16864
22826,49688,16713
22738,49591,16554
22649,49493,16403
22590,49435,16300
22551,49403,16234
22507,49358,16169
22474,49322,16121
22475,49328,16123
22491,49352,16151
22494,49358,16173
22504,49367,16203
22539,49408,16265
22575,49450,16327
22592,49456,16366
22613,49462,16408
22648,49497,16474
22667,49522,16522
22659,49516,16529
22654,49509,16527
22659,49518,16534
22648,49509,16514
22609,49464,16453
22571,49421,16389
22545,49399,16337
22503,49358,16262
22442,49289,16153
22388,49228,16041
22342,49183,15933
22278,49115,15796
22189,49017,15629
22102,48928,15469
22022,48852,15324
21927,48755,15161
21819,48641,14981
21721,48545,14814
21633,48460,14652
21529,48347,14459
21413,48218,14250
21310,48113,14065
21215,48022,13893
21099,47904,13696
20969,47769,13488
20858,47662,13308
20765,47579,13146
20663,47480,12965
20555,47369,12777
20463,47279,12616
20379,47198,12471
20283,47094,12312
20187,46991,12155
20111,46921,12029
20038,46859,11910
19948,46776,11771
19865,46696,11641
19807,46645,11543
19749,46592,11446
19675,46515,11328
19610,46447,11222
19568,46408,11144
19517,46362,11055
19444,46289,10942
19381,46227,10851
19339,46196,10795
19287,46152,10730
19220,46082,10639
19168,46025,10561
19134,45994,10504
19084,45950,10434
19017,45884,10342
18961,45833,10261
18920,45804,10196
18864,45754,10110
18790,45677,9998
18731,45617,9900
18690,45573,9817
18632,45503,9707
18555,45414,9576
18495,45351,9471
18446,45306,9388
18375,45242,9288
18302,45172,9189
18265,45146,9139
18254,45150,9132
18247,45151,9137
18269,45177,9189
18353,45274,9343
18491,45432,9594
18665,45624,9920
18900,45874,10350
19216,46214,10911
19584,46603,11565
19968,46997,12263
20382,47413,13012
20841,47879,13823
21310,48353,14648
21765,48803,15445
22217,49252,16223
22661,49708,16981
23059,50122,17665
23392,50467,18245
23687,50776,18753
23951,51063,19205
24155,51289,19561
24300,51441,19809
24419,51560,19989
24516,51661,20121
24567,51711,20180
24572,51705,20162
24560,51682,20109
24534,51654,20038
24473,51587,19926
24382,51486,19775
24296,51400,19629
24222,51332,19496
24132,51242,19335
24030,51132,19151
23947,51045,18988
23875,50977,18848
23781,50885,18689
23678,50773,18515
23600,50686,18369
23537,50616,18239
23452,50521,18082
23353,50410,17909
23272,50321,17756
23192,50237,17608
23084,50119,17425
22966,49984,17219
22863,49870,17020
22758,49758,16814
22630,49617,16576
22502,49472,16332
22395,49353,16113
22288,49237,15900
22166,49102,15678
22059,48980,15482
21983,48896,15332
21911,48816,15198
21826,48724,15062
21762,48661,14964
21736,48652,14922
21717,48654,14898
21692,48640,14873
21692,48645,14883
21724,48684,14938
21749,48716,14993
21763,48729,15034
21799,48763,15099
21856,48824,15191
21904,48870,15266
21933,48888,15321
21973,48923,15395
22026,48979,15484
22060,49011,15540
22074,49013,15560
22096,49026,15582
22121,49046,15604
22113,49030,15585
22080,48987,15531
22057,48962,15486
22035,48945,15439
21983,48894,15350
21918,48825,15232
21869,48774,15128
21812,48719,15018
21726,48626,14866
21634,48523,14696
21561,48447,14546
21478,48368,14388
21363,48248,14189
21244,48120,13984
21148,48019,13808
21050,47918,13628
20933,47792,13418
20825,47673,13215
20743,47585,13046
20656,47493,12872
20545,47375,12673
20439,47269,12489
20352,47192,12339
20259,47105,12186
20150,46994,12013
20058,46900,11860
19992,46838,11743
19922,46768,11623
19842,46679,11485
19777,46608,11365
19724,46560,11271
19653,46494,11160
19563,46402,11025
19490,46332,10914
19438,46285,10827
19375,46224,10724
19306,46152,10611
19257,46105,10533
19219,46079,10483
19162,46030,10415
19097,45963,10334
19054,45921,10281
19021,45892,10242
18970,45838,10174
18916,45777,10094
18887,45749,10042
18861,45731,9995
18813,45683,9917
18762,45629,9829
18730,45605,9770
18694,45582,9709
18631,45523,9610
18565,45458,9507
18525,45422,9432
18485,45385,9354
18423,45320,9247
18369,45265,9149
18345,45247,9090
18319,45230,9036
18279,45192,8975
18260,45179,8955
18292,45222,9011
18357,45293,9123
18455,45383,9295
18618,45542,9584
18862,45797,10018
19165,46112,10557
19517,46466,11178
19929,46881,11904
20390,47350,12717
20858,47826,13551
21320,48294,14381
21795,48786,15230
22274,49292,16079
22721,49757,16859
23123,50169,17555
23496,50557,18194
23830,50914,18763
24105,51206,19221
24331,51440,19584
24529,51652,19898
24688,51827,20145
24789,51929,20293
24846,51982,20374
24890,52030,20433
24911,52058,20455
24892,52034,20410
24854,51979,20328
24817,51930,20247
24768,51871,20144
24689,51773,19991
24598,51662,19819
24520,51576,19669
24441,51495,19518
24345,51387,19338
24249,51275,19164
24173,51186,19025
24100,51099,18885
24022,50996,18723
23951,50908,18574
23894,50845,18456
23830,50771,18329
23749,50669,18170
23670,50572,18014
23599,50493,17875
23513,50400,17714
23410,50282,17519
23309,50174,17327
23210,50085,17148
23092,49978,16945
22960,49844,16712
22839,49722,16496
22734,49622,16306
22620,49506,16107
22506,49378,15907
22420,49283,15751
22360,49223,15636
22302,49159,15523
22250,49099,15426
22225,49076,15382
22220,49077,15372
22213,49066,15356
22209,49053,15350
22227,49073,15390
22258,49111,15456
22281,49133,15507
22309,49151,15558
22362,49199,15640
22420,49257,15727
22458,49287,15783
22481,49302,15823
22509,49335,15877
22534,49367,15924
22536,49363,15930
22526,49341,15917
22520,49332,15911
22510,49321,15891
22481,49288,15837
22443,49250,15769
22408,49223,15706
22363,49178,15621
22302,49102,15501
22242,49030,15378
22187,48978,15269
22121,48912,15140
22038,48819,14978
21959,48735,14820
21892,48675,14681
21815,48604,14526
21726,48508,14345
21645,48421,14172
21569,48344,14011
21476,48244,13827
21364,48118,13620
21258,48007,13432
21166,47913,13264
21071,47805,13087
20972,47692,12910
20887,47605,12762
20809,47531,12623
20720,47435,12457
20629,47331,12285
20558,47255,12150
20491,47192,12033
20409,47105,11898
20327,47016,11762
20266,46960,11657
20205,46914,11560
20128,46841,11433
20051,46764,11307
19994,46718,11220
19939,46681,11141
19864,46615,11030
19785,46548,10923
19727,46512,10854
19674,46476,10785
19607,46409,10684
19543,46340,10585
19497,46299,10520
19449,46256,10453
19387,46184,10361
19331,46118,10280
19295,46081,10230
19259,46039,10170
19215,45980,10088
19183,45938,10017
19164,45922,9967
19134,45894,9902
19089,45842,9816
19052,45802,9749
19027,45784,9707
18993,45754,9654
18944,45704,9583
18905,45669,9528
18877,45649,9487
18838,45609,9427
18786,45549,9353
18742,45502,9293
18705,45465,9236
18652,45406,9148
18586,45334,9042
18536,45287,8957
18495,45255,8885
18433,45199,8787
18357,45131,8680
18305,45096,8616
18285,45093,8592
18276,45093,8582
18293,45114,8614
18369,45201,8744
18505,45350,8977
18689,45539,9305
18946,45798,9762
19296,46158,10375
19714,46588,11110
20167,47047,11920
20661,47549,12805
21201,48107,13759
21748,48672,14718
22273,49209,15635
22793,49741,16523
23306,50273,17379
23766,50751,18145
24152,51144,18793
24491,51492,19354
24794,51810,19838
25032,52056,20214
25202,52219,20479
25336,52338,20680
25442,52429,20830
25496,52465,20899
25501,52451,20896
25496,52434,20876
25489,52421,20848
25449,52371,20770
25378,52286,20648
25316,52215,20536
25260,52158,20436
25182,52074,20306
25092,51975,20157
25023,51909,20035
24965,51860,19933
24893,51786,19809
24821,51706,19682
24773,51661,19597
24733,51627,19528
24679,51564,19429
24625,51492,19320
24590,51443,19237
24552,51395,19152
24486,51311,19028
24411,51218,18894
24348,51148,18780
24280,51075,18651
24182,50966,18472
24071,50841,18275
23972,50732,18097
23871,50621,17911
23757,50487,17695
23644,50356,17484
23542,50251,17297
23435,50141,17104
23319,50013,16894
23216,49903,16710
23132,49829,16572
23049,49758,16444
22967,49675,16311
22907,49615,16206
22872,49587,16141
22839,49554,16081
22802,49508,16019
22781,49485,15988
22780,49492,15992
22776,49493,15996
22770,49482,15996
22782,49490,16020
22814,49519,16067
22839,49534,16101
22853,49535,16123
22878,49556,16163
22909,49588,16207
22915,49591,16214
22899,49573,16193
22892,49571,16182
22886,49575,16169
22855,49543,16112
22807,49488,16029
22773,49448,15959
22741,49411,15888
22681,49341,15780
22606,49255,15653
22544,49190,15538
22475,49123,15410
22381,49025,15242
22284,48921,15066
22200,48838,14913
22105,48747,14748
21982,48621,14544
21862,48497,14340
21762,48404,14163
21654,48301,13975
21526,48165,13757
21407,48037,13550
21312,47942,13371
21213,47842,13181
21100,47720,12969
20992,47610,12776
20895,47522,12612
20787,47420,12440
20667,47295,12252
20561,47193,12089
20473,47122,11956
20381,47040,11812
20285,46938,11656
20207,46855,11527
20143,46791,11417
20069,46712,11287
19989,46622,11148
19924,46552,11036
19869,46495,10941
19802,46417,10826
19732,46332,10701
19683,46281,10605
19645,46250,10526
19587,46197,10423
19518,46132,10310
19471,46095,10229
19436,46069,10167
19383,46015,10086
19326,45953,9999
19293,45923,9942
19261,45899,9888
19207,45844,9807
19156,45789,9728
19126,45766,9682
19098,45746,9633
19050,45696,9552
19005,45643,9474
18977,45615,9424
18946,45583,9366
18898,45526,9279
18851,45473,9200
18814,45445,9146
18766,45410,9085
18706,45350,9000
18657,45299,8919
18623,45269,8856
18577,45228,8781
18514,45167,8680
18457,45116,8589
18412,45085,8522
18360,45041,8445
18300,44977,8352
18263,44940,8289
18253,44941,8276
18250,44948,8286
18264,44968,8333
18338,45052,8480
18482,45208,8745
18674,45404,9102
18927,45658,9568
19269,46013,10190
19685,46450,10940
20138,46915,11750
20627,47409,12614
21158,47955,13545
21708,48524,14502
22241,49064,15422
22750,49574,16289
23242,50075,17118
23700,50544,17879
24095,50941,18530
24434,51279,19080
24739,51588,19557
24991,51847,19942
25168,52032,20220
25301,52174,20429
25412,52296,20594
25481,52370,20688
25496,52378,20700
25494,52367,20680
25496,52362,20659
25472,52329,20606
25415,52256,20506
25355,52184,20392
25303,52136,20287
25235,52071,20159
25150,51977,20001
25074,51890,19857
25014,51821,19737
24946,51737,19605
24865,51635,19457
24792,51548,19326
24733,51486,19216
24666,51415,19097
24587,51326,18967
24512,51250,18855
24441,51187,18753
24351,51099,18624
24244,50989,18475
24149,50897,18339
24064,50819,18203
23959,50709,18024
23836,50571,17813
23728,50447,17613
23628,50334,17419
23508,50195,17194
23374,50045,16955
23257,49925,16744
23148,49817,16547
23025,49687,16334
22910,49563,16136
22829,49480,15991
22761,49410,15869
22682,49321,15736
22617,49246,15627
22587,49213,15571
22568,49195,15531
22545,49160,15479
22534,49138,15451
22545,49150,15468
22555,49165,15490
22553,49160,15495
22562,49169,15512
22591,49205,15554
22614,49233,15585
22623,49235,15594
22642,49246,15612
22671,49273,15647
22684,49281,15660
22674,49263,15641
22664,49255,15628
22659,49260,15625
22636,49243,15595
22591,49195,15528
22551,49152,15456
22519,49118,15384
22468,49057,15279
22397,48972,15146
22332,48901,15026
22269,48842,14913
22178,48755,14762
22070,48645,14582
21982,48557,14417
21902,48479,14257
21801,48370,14063
21697,48247,13856
21614,48149,13677
21528,48057,13506
21413,47933,13305
21291,47805,13099
21184,47710,12927
21080,47623,12758
20961,47509,12557
20840,47392,12353
20736,47300,12181
20638,47211,12021
20533,47099,11848
20435,46994,11685
20354,46917,11550
20273,46840,11413
20183,46743,11255
20103,46657,11109
20040,46596,10989
19971,46530,10865
19891,46448,10728
19823,46379,10608
19772,46331,10516
19714,46273,10415
19644,46193,10293
19584,46127,10189
19541,46086,10113
19486,46032,10026
19417,45958,9920
19358,45901,9828
19312,45866,9752
19257,45818,9665
19195,45755,9570
19147,45709,9502
19110,45682,9450
19063,45636,9377
19011,45575,9293
18982,45540,9235
18961,45523,9195
18915,45481,9131
18854,45419,9050
18811,45378,8990
18777,45352,8942
18723,45304,8873
18662,45244,8793
18623,45210,8736
18595,45191,8689
18550,45149,8618
18498,45096,8537
18460,45060,8474
18416,45020,8406
18352,44952,8309
18291,44884,8212
18246,44841,8136
18195,44793,8053
18127,44724,7948
18071,44670,7860
18040,44652,7810
18005,44631,7765
17962,44594,7712
17946,44583,7695
17973,44620,7740
18024,44678,7829
18105,44758,7971
18251,44907,8221
18481,45147,8612
18774,45449,9120
19126,45804,9739
19554,46242,10488
20048,46754,11350
20563,47285,12258
21083,47816,13185
21621,48373,14142
22164,48937,15099
22668,49449,15986
23124,49909,16788
23559,50357,17534
23959,50775,18210
24286,51111,18764
24550,51378,19207
24784,51621,19583
24973,51823,19881
25094,51948,20070
25170,52021,20183
25231,52084,20264
25260,52115,20297
25239,52084,20258
25196,52027,20180
25158,51987,20104
25107,51938,20002
25020,51849,19847
24921,51744,19680
24836,51654,19536
24752,51558,19384
24655,51441,19200
24563,51331,19020
24487,51245,18867
24404,51151,18708
24309,51035,18529
24223,50934,18368
24153,50863,18235
24073,50787,18094
23979,50689,17932
23895,50600,17784
23819,50527,17652
23730,50432,17496
23624,50309,17309
23525,50197,17131
23433,50101,16965
23324,49981,16772
23197,49838,16552
23080,49714,16351
22975,49609,16166
22859,49488,15964
22743,49358,15757
22645,49256,15584
22559,49172,15436
22467,49069,15281
22385,48971,15134
22331,48915,15035
22295,48886,14966
22251,48843,14889
22211,48797,14819
22195,48783,14792
22197,48788,14791
22192,48779,14779
22184,48769,14768
22190,48786,14790
22209,48814,14833
22224,48822,14860
22237,48824,14885
22258,48845,14930
22273,48865,14973
22270,48859,14986
22269,48854,14990
22278,48871,15001
22273,48875,14991
22250,48843,14945
22230,48809,14896
22213,48789,14860
22175,48751,14801
22109,48682,14704
22044,48614,14601
21992,48559,14502
21925,48487,14374
21836,48387,14209
21750,48291,14046
21670,48209,13892
21572,48111,13715
21455,47990,13517
21347,47881,13332
21251,47792,13164
21144,47687,12977
21024,47562,12776
20919,47458,12596
20827,47371,12430
20721,47260,12239
20606,47135,12034
20508,47040,11857
20423,46964,11701
20324,46868,11526
20218,46760,11343
20136,46678,11190
20066,46613,11058
19978,46527,10911
19885,46432,10757
19811,46365,10627
19746,46304,10503
19665,46217,10357
19582,46127,10210
19516,46064,10092
19450,46005,9982
19370,45923,9856
19300,45850,9743
19253,45805,9661
19199,45752,9577
19123,45672,9469
19055,45601,9374
19008,45562,9310
18952,45514,9238
18876,45437,9143
18816,45374,9061
18780,45343,9007
18738,45307,8944
18682,45251,8860
18639,45208,8789
18615,45189,8741
18580,45157,8682
18528,45101,8602
18485,45056,8536
18451,45030,8488
18398,44988,8424
18329,44923,8337
18278,44877,8269
18245,44852,8219
18199,44807,8142
18140,44742,8041
18098,44700,7960
18066,44674,7894
18014,44619,7803
17951,44546,7698
17906,44498,7622
17868,44466,7565
17810,44416,7490
17753,44366,7418
17728,44355,7387
17722,44359,7382
17720,44355,7382
17756,44381,7438
17855,44480,7595
17994,44629,7833
18161,44806,8142
18400,45053,8577
18742,45406,9177
19151,45825,9894
19593,46270,10676
20079,46760,11533
20606,47303,12457
21134,47846,13385
21637,48360,14276
22129,48869,15147
22610,49381,15991
23043,49845,16754
23415,50237,17408
23754,50590,17985
24060,50909,18490
24300,51155,18879
24475,51325,19154
24615,51464,19367
24723,51579,19528
24770,51629,19601
24762,51615,19592
24737,51586,19552
24700,51546,19484
24628,51465,19354
24533,51356,19184
24443,51264,19021
24349,51175,18861
24230,51054,18667
24106,50920,18458
24000,50808,18272
23899,50700,18086
23782,50566,17868
23667,50427,17650
23576,50321,17470
23490,50225,17302
23390,50109,17110
23291,49997,16923
23212,49920,16767
23132,49846,16607
23030,49736,16406
22916,49613,16192
22811,49504,15994
22699,49383,15781
22565,49228,15533
22427,49072,15288
22300,48941,15067
22172,48809,14841
22035,48668,14597
21910,48545,14376
21805,48453,14199
21701,48355,14029
21594,48239,13852
21510,48149,13709
21456,48097,13613
21404,48045,13527
21349,47981,13445
21317,47942,13402
21311,47940,13404
21307,47941,13409
21303,47936,13414
21321,47956,13453
21359,47998,13517
21390,48024,13562
21414,48038,13597
21446,48074,13657
21481,48121,13726
21499,48142,13768
21509,48148,13793
21528,48174,13834
21547,48206,13870
21540,48203,13861
21519,48172,13822
21505,48154,13788
21490,48136,13747
21446,48082,13663
21380,48007,13552
21317,47951,13450
21252,47898,13340
21169,47813,13192
21076,47713,13028
20992,47627,12877
20904,47535,12717
20796,47412,12525
20683,47284,12329
20580,47175,12151
20477,47067,11967
20366,46947,11765
20263,46841,11571
20172,46757,11397
20070,46660,11212
19949,46539,11007
19833,46427,10818
19730,46334,10657
19615,46229,10485
19482,46104,10292
19358,45996,10116
19255,45914,9967
19152,45824,9813
19048,45720,9651
18966,45635,9513
18906,45574,9399
18841,45498,9273
18765,45408,9134
18703,45345,9024
18656,45304,8937
18594,45241,8829
18518,45159,8707
18460,45099,8613
18414,45058,8542
18353,44997,8456
18282,44925,8360
18234,44880,8291
18201,44848,8235
18152,44790,8154
18099,44725,8063
18065,44694,8005
18033,44677,7956
17979,44634,7880
17926,44589,7803
17892,44574,7755
17855,44556,7707
17797,44505,7630
17749,44458,7562
17729,44441,7526
17707,44418,7482
17664,44363,7404
17625,44311,7331
17601,44287,7283
17563,44255,7222
17504,44198,7133
17453,44150,7055
17419,44127,7002
17381,44095,6939
17337,44040,6855
17312,44007,6798
17309,44010,6784
17304,44014,6780
17307,44019,6791
17360,44074,6879
17468,44192,7063
17609,44343,7320
17794,44539,7668
18057,44824,8158
18399,45189,8786
18798,45595,9504
19252,46041,10302
19761,46548,11182
20290,47084,12100
20802,47599,12996
21298,48095,13864
21790,48597,14717
22256,49081,15520
22661,49499,16222
23013,49859,16831
23333,50194,17377
23608,50489,17841
23816,50710,18195
23973,50871,18458
24105,51009,18667
24203,51113,18807
24251,51155,18855
24262,51158,18843
24252,51150,18802
24207,51106,18713
24122,51009,18566
24026,50900,18397
23936,50808,18233
23830,50702,18046
23702,50563,17822
23581,50427,17598
23478,50314,17392
23364,50186,17170
23229,50028,16921
23102,49881,16678
22992,49759,16453
22868,49624,16213
22725,49467,15950
22590,49322,15700
22465,49196,15469
22321,49050,15221
22161,48881,14952
22017,48731,14703
21893,48603,14475
21751,48452,14220
21593,48282,13944
21455,48139,13697
21332,48015,13473
21196,47870,13232
21061,47722,12997
20953,47610,12812
20860,47519,12662
20762,47415,12509
20679,47324,12378
20629,47284,12305
20591,47263,12264
20542,47223,12216
20511,47194,12190
20518,47209,12220
20543,47242,12276
20561,47261,12326
20587,47290,12394
20639,47357,12503
20699,47431,12615
20749,47479,12700
20805,47525,12789
20875,47590,12898
20936,47643,12988
20975,47665,13035
21009,47684,13074
21043,47713,13119
21056,47718,13131
21039,47688,13098
21024,47667,13061
21020,47667,13032
20997,47648,12971
20945,47595,12871
20890,47544,12771
20838,47501,12674
20763,47430,12544
20666,47331,12381
20576,47244,12229
20492,47171,12088
20392,47074,11918
20283,46957,11727
20191,46863,11559
20111,46785,11408
20017,46684,11233
19921,46575,11049
19842,46492,10893
19764,46415,10746
19665,46307,10570
19559,46192,10385
19472,46110,10233
19392,46041,10093
19296,45945,9928
19201,45845,9764
19127,45777,9639
19057,45720,9522
18971,45642,9381
18888,45561,9246
18826,45510,9150
18772,45466,9062
18707,45400,8956
18642,45336,8860
18594,45297,8793
18548,45255,8722
18490,45189,8626
18439,45132,8537
18401,45097,8473
18356,45055,8403
18303,44993,8309
18266,44944,8227
18248,44924,8175
18224,44894,8116
18189,44841,8032
18166,44792,7957
18151,44761,7904
18112,44721,7835
18050,44664,7740
17999,44621,7657
17961,44594,7593
17915,44553,7514
17863,44501,7430
17830,44478,7380
17811,44479,7357
17790,44469,7330
17782,44462,7320
17817,44501,7376
17891,44583,7497
17989,44684,7666
18130,44827,7921
18349,45061,8319
18644,45379,8850
18996,45740,9474
19402,46152,10202
19868,46636,11048
20368,47158,11953
20869,47669,12852
21372,48178,13746
21884,48705,14646
22378,49214,15507
22826,49667,16276
23234,50081,16968
23613,50473,17597
23941,50809,18131
24205,51071,18550
24420,51286,18888
24595,51468,19165
24719,51591,19355
24790,51647,19451
24834,51677,19493
24857,51700,19505
24840,51680,19456
24781,51607,19341
24710,51521,19204
24637,51436,19060
24541,51328,18879
24421,51191,18666
24302,51062,18462
24190,50948,18268
24067,50816,18050
23934,50666,17815
23812,50538,17598
23699,50424,17393
23571,50290,17163
23436,50142,16918
23314,50013,16697
23192,49892,16480
23053,49746,16232
22911,49589,15973
22786,49459,15743
22662,49337,15520
22517,49186,15264
22368,49024,14996
22237,48886,14750
22111,48755,14511
21971,48596,14251
21833,48436,13997
21718,48312,13787
21615,48205,13600
21508,48083,13412
21415,47972,13251
21352,47903,13146
21304,47856,13069
21257,47807,12997
21227,47780,12962
21227,47793,12980
21238,47818,13016
21254,47832,13051
21294,47871,13118
21359,47947,13225
21421,48019,13329
21475,48067,13408
21538,48122,13496
21607,48189,13599
21659,48237,13680
21691,48258,13730
21726,48290,13790
21763,48335,13865
21776,48353,13908
21764,48341,13914
21757,48335,13918
21753,48332,13912
21724,48298,13858
21675,48240,13767
21631,48191,13678
21580,48142,13579
21500,48060,13438
21411,47959,13271
21339,47878,13116
21271,47803,12966
21184,47700,12788
21087,47581,12596
21004,47482,12425
20922,47391,12258
20819,47273,12062
20700,47145,11857
20587,47040,11676
20476,46944,11504
20350,46828,11312
20223,46710,11121
20112,46615,10955
20005,46524,10791
19888,46416,10609
19778,46314,10435
19689,46233,10287
19599,46144,10135
19497,46033,9962
19407,45933,9802
19337,45861,9672
19262,45783,9536
19169,45686,9385
19088,45604,9256
19030,45553,9159
18968,45496,9059
18894,45422,8946
18832,45364,8849
18786,45329,8778
18737,45281,8702
18682,45215,8614
18642,45169,8550
18615,45150,8506
18575,45116,8440
18520,45060,8354
18479,45023,8290
18453,45005,8244
18413,44961,8170
18365,44893,8074
18336,44848,8001
18313,44821,7944
18266,44771,7862
18206,44708,7766
18167,44673,7699
18135,44651,7650
18085,44607,7583
18033,44558,7507
18005,44537,7455
17984,44524,7414
17949,44489,7360
17925,44460,7321
17937,44475,7339
17968,44513,7398
18008,44557,7490
18099,44653,7668
18275,44842,7981
18515,45097,8416
18808,45402,8961
19184,45793,9654
19653,46279,10497
20171,46810,11416
20708,47350,12363
21271,47925,13348
21851,48533,14358
22403,49116,15325
22909,49643,16210
23391,50141,17033
23844,50611,17789
24231,51009,18430
24550,51325,18947
24826,51599,19380
25059,51836,19733
25221,51997,19968
25313,52082,20098
25372,52144,20185
25408,52185,20237
25398,52169,20214
25353,52110,20130
25310,52057,20040
25259,52002,19940
25175,51905,19789
25075,51786,19609
24987,51686,19444
24894,51589,19278
24774,51460,19075
24650,51325,18866
24548,51221,18689
24449,51123,18518
24332,50997,18320
24224,50874,18124
24145,50787,17962
24067,50700,17802
23966,50577,17613
23862,50450,17423
23776,50349,17258
23685,50244,17084
23570,50109,16873
23453,49980,16665
23348,49879,16481
23235,49767,16285
23107,49626,16053
22985,49491,15827
22876,49380,15627
22758,49261,15421
22629,49123,15195
22515,49001,14995
22423,48912,14838
22331,48823,14685
22237,48727,14531
22164,48659,14416
22119,48622,14346
22080,48580,14281
22047,48532,14221
22038,48514,14204
22047,48522,14222
22051,48517,14230
22055,48506,14237
22079,48526,14282
22112,48566,14350
22131,48588,14397
22150,48606,14439
22190,48654,14512
22237,48712,14592
22264,48738,14635
22276,48744,14654
22294,48762,14683
22312,48782,14705
22306,48769,14684
22281,48734,14631
22257,48710,14582
22227,48684,14524
22170,48626,14427
22104,48554,14309
22046,48495,14197
21978,48425,14070
21888,48322,13912
21797,48217,13749
21713,48132,13599
21611,48034,13429
21484,47903,13226
21367,47781,13030
21271,47684,12861
21167,47576,12682
21045,47447,12480
20936,47336,12291
20848,47255,12127
20748,47161,11949
20629,47041,11747
20519,46937,11559
20424,46854,11394
20317,46757,11218
20192,46638,11027
20082,46538,10857
19992,46462,10710
19894,46372,10548
19790,46268,10374
19714,46193,10236
19659,46142,10129
19591,46067,10003
19511,45977,9867
19452,45918,9768
19405,45879,9691
19337,45819,9592
19266,45749,9486
19215,45702,9408
19167,45657,9335
19097,45578,9227
19028,45492,9115
18983,45441,9038
18939,45396,8962
18868,45322,8850
18796,45248,8731
18748,45206,8645
18700,45164,8560
18630,45091,8446
18562,45015,8334
18514,44965,8253
18462,44911,8169
18393,44834,8063
18336,44775,7975
18305,44756,7929
18283,44746,7894
18265,44731,7861
18279,44753,7880
18339,44832,7986
18432,44942,8158
18566,45082,8405
18774,45302,8784
19069,45619,9318
19425,45995,9970
19833,46413,10719
20305,46899,11580
20826,47440,12521
21359,47989,13475
21889,48533,14420
22425,49090,15360
22946,49637,16259
23417,50130,17063
23835,50565,17768
24219,50966,18401
24557,51319,18949
24820,51589,19375
25019,51783,19692
25185,51939,19945
25315,52058,20131
25384,52109,20221
25402,52111,20234
25398,52103,20214
25371,52079,20160
25307,52011,20051
25221,51915,19909
25135,51825,19766
25036,51724,19605
24906,51589,19405
24775,51451,19196
24663,51339,19003
24544,51223,18797
24404,51078,18562
24275,50938,18336
24173,50829,18142
24067,50714,17946
23944,50573,17725
23832,50441,17516
23740,50339,17337
23632,50228,17145
23501,50091,16917
23377,49962,16692
23267,49851,16482
23140,49720,16249
22994,49561,15988
22861,49414,15740
22739,49282,15512
22602,49129,15263
22449,48958,14998
22316,48818,14770
22207,48713,14581
22091,48594,14384
21970,48468,14184
21877,48379,14034
21806,48321,13923
21731,48250,13809
21665,48177,13712
21631,48141,13671
21612,48127,13660
21587,48100,13639
21578,48081,13631
21605,48105,13674
21647,48150,13737
21679,48179,13779
21708,48208,13826
21753,48264,13911
21798,48324,14003
21824,48353,14064
21843,48372,14115
21867,48408,14178
21888,48438,14223
21893,48434,14228
21889,48417,14224
21886,48412,14234
21869,48394,14217
21831,48345,14154
21787,48293,14076
21745,48251,13998
21689,48192,13887
21612,48102,13736
21537,48015,13582
21468,47942,13437
21379,47849,13267
21268,47726,13064
21164,47614,12871
21077,47524,12697
20982,47423,12509
20869,47306,12303
20758,47200,12110
20653,47104,11929
20534,46988,11728
20405,46856,11517
20288,46745,11329
20179,46650,11158
20057,46533,10966
19927,46398,10762
19817,46287,10585
19725,46200,10429
19624,46099,10255
19513,45988,10076
19420,45905,9930
19340,45840,9803
19250,45755,9657
19159,45663,9508
19090,45598,9392
19027,45543,9290
18949,45465,9174
18876,45392,9070
18831,45354,9003
18787,45318,8939
18725,45257,8848
18673,45204,8761
18649,45182,8702
18615,45147,8635
18556,45073,8537
18502,45006,8449
18468,44971,8391
18424,44929,8325
18357,44858,8229
18298,44798,8142
18254,44764,8080
18198,44715,8000
18125,44642,7892
18064,44583,7799
18022,44552,7736
17970,44509,7663
17912,44446,7576
17881,44413,7525
17885,44421,7523
17899,44434,7540
17935,44464,7597
18029,44566,7756
18186,44745,8032
18388,44965,8400
18648,45241,8881
19003,45619,9524
19436,46078,10303
19899,46559,11147
20395,47062,12040
20941,47617,13000
21506,48193,13984
22043,48737,14922
22554,49251,15803
23048,49759,16640
23496,50229,17397
23870,50619,18030
24192,50949,18561
24482,51252,19025
24717,51502,19397
24876,51667,19650
24994,51785,19824
25094,51886,19953
25147,51939,20007
25138,51922,19973
25105,51878,19902
25071,51838,19828
25011,51769,19715
24912,51654,19546
24806,51536,19363
24709,51434,19188
24593,51314,18986
24452,51164,18748
24321,51026,18519
24208,50909,18308
24079,50777,18081
23932,50621,17834
23798,50478,17605
23681,50355,17398
23553,50218,17176
23414,50064,16937
23292,49930,16715
23184,49815,16506
23059,49672,16263
22916,49504,15993
22786,49361,15747
22667,49235,15522
22529,49085,15274
22382,48921,15010
22262,48790,14778
22159,48680,14575
22049,48554,14365
21944,48432,14165
21870,48352,14015
21810,48293,13899
21738,48221,13786
21678,48161,13698
21660,48147,13665
21659,48150,13660
21651,48136,13655
21658,48136,13677
21694,48177,13745
21728,48224,13821
21746,48253,13880
21783,48297,13959
21853,48376,14078
21923,48448,14195
21973,48489,14286
22032,48538,14384
22108,48614,14504
22165,48674,14600
22190,48698,14652
22212,48720,14694
22237,48752,14736
22238,48756,14739
22211,48722,14696
22189,48693,14648
22174,48680,14607
22138,48646,14533
22079,48581,14421
22023,48522,14311
21972,48472,14203
21894,48387,14052
21796,48272,13868
21711,48177,13699
21636,48100,13543
21534,47998,13356
21416,47875,13146
21319,47776,12963
21235,47692,12798
21129,47581,12609
21012,47456,12406
20918,47357,12231
20835,47273,12075
20735,47168,11902
20627,47054,11722
20538,46966,11566
20453,46883,11420
20349,46774,11255
20242,46664,11092
20151,46585,10958
20066,46513,10830
19975,46422,10689
19899,46340,10561
19849,46287,10465
19794,46230,10364
19722,46151,10241
19661,46085,10132
19622,46051,10051
19571,46006,9959
19498,45930,9840
19432,45867,9738
19387,45835,9672
19338,45798,9602
19277,45741,9516
19230,45699,9444
19201,45677,9393
19162,45637,9325
19111,45572,9233
19075,45525,9159
19051,45501,9104
19004,45456,9023
18935,45387,8919
18885,45340,8845
18856,45317,8801
18819,45277,8745
18788,45237,8692
18799,45252,8702
18847,45311,8775
18914,45381,8884
19023,45491,9071
19211,45688,9396
19463,45960,9853
19758,46272,10404
20115,46641,11068
20551,47096,11863
21037,47607,12740
21541,48128,13643
22066,48672,14574
22616,49249,15533
23155,49810,16456
23645,50308,17285
24093,50762,18034
24510,51194,18717
24869,51566,19291
25153,51850,19733
25381,52077,20088
25567,52271,20383
25702,52405,20590
25787,52474,20700
25846,52512,20756
25880,52537,20781
25870,52518,20747
25813,52451,20651
25742,52375,20539
25670,52305,20424
25578,52210,20274
25466,52087,20090
25357,51969,19912
25260,51864,19743
25154,51741,19549
25038,51603,19338
24930,51484,19149
24827,51381,18974
24712,51260,18777
24590,51123,18566
24484,51010,18378
24389,50912,18203
24279,50790,18005
24157,50654,17789
24048,50539,17592
23948,50435,17400
23829,50300,17176
23696,50147,16929
23576,50014,16698
23463,49891,16479
23335,49745,16243
23202,49593,16007
23091,49469,15802
22994,49361,15615
22895,49243,15429
22806,49138,15267
22743,49069,15151
22693,49017,15052
22646,48960,14954
22618,48923,14890
22616,48925,14877
22621,48934,14885
22621,48933,14898
22637,48950,14943
22677,48995,15027
22719,49036,15112
22754,49059,15180
22796,49094,15261
22847,49153,15363
22888,49200,15447
22913,49223,15501
22941,49254,15558
22974,49298,15619
22993,49323,15650
22995,49326,15652
22995,49340,15660
22996,49357,15666
22979,49341,15626
22942,49296,15548
22905,49256,15474
22862,49215,15399
22794,49140,15292
22714,49048,15167
22646,48977,15056
22587,48917,14946
22510,48831,14799
22415,48727,14625
22327,48641,14460
22242,48561,14293
22136,48451,14093
22015,48325,13877
21905,48218,13683
21801,48117,13499
21681,47995,13295
21562,47872,13090
21460,47774,12910
21359,47679,12729
21245,47564,12529
21140,47454,12339
21056,47367,12178
20968,47276,12015
20862,47165,11839
20764,47066,11685
20686,46995,11562
20599,46923,11434
20500,46831,11288
20414,46754,11161
20351,46707,11067
20285,46654,10967
20210,46579,10849
20148,46510,10746
20104,46460,10664
20055,46403,10573
19999,46334,10470
19953,46282,10389
19915,46245,10325
19865,46193,10243
19804,46125,10145
19754,46077,10068
19713,46044,10005
19653,45987,9917
19583,45914,9815
19532,45867,9736
19491,45838,9672
19430,45783,9579
19360,45710,9470
19310,45664,9387
19275,45637,9321
19226,45591,9240
19178,45541,9158
19162,45528,9116
19169,45542,9113
19186,45559,9138
19242,45615,9232
19372,45753,9450
19567,45960,9793
19819,46215,10250
20150,46551,10851
20569,46988,11601
21037,47479,12443
21529,47984,13333
22059,48530,14282
22630,49122,15276
23192,49705,16241
23711,50240,17134
24200,50750,17968
24662,51239,18741
25064,51657,19404
25395,51987,19942
25675,52271,20397
25910,52520,20779
26075,52694,21052
26174,52792,21217
26242,52859,21325
26287,52909,21391
26289,52912,21389
26258,52873,21330
26225,52834,21261
26187,52798,21182
26119,52722,21054
26031,52616,20891
25954,52527,20744
25879,52445,20605
25777,52326,20434
25664,52189,20251
25570,52080,20094
25482,51983,19946
25378,51863,19770
25278,51745,19592
25206,51664,19452
25135,51590,19316
25040,51483,19144
24943,51368,18968
24865,51281,18822
24783,51192,18673
24674,51066,18479
24555,50927,18271
24447,50806,18080
24337,50684,17879
24213,50542,17650
24091,50405,17431
23981,50293,17244
23868,50178,17055
23752,50047,16847
23651,49935,16660
23569,49855,16511
23487,49776,16369
23403,49691,16223
23340,49632,16111
23301,49607,16043
23267,49580,15987
23234,49541,15937
23227,49528,15929
23250,49551,15961
23277,49573,15996
23297,49582,16027
23331,49611,16087
23376,49658,16172
23411,49693,16242
23436,49715,16302
23470,49755,16380
23509,49807,16464
23531,49834,16517
23540,49840,16542
23559,49860,16576
23584,49887,16607
23584,49879,16594
23568,49845,16546
23562,49830,16505
23550,49819,16459
23504,49772,16376
23445,49704,16269
23397,49652,16169
23334,49593,16054
23237,49494,15897
23137,49390,15732
23057,49314,15589
22966,49231,15429
22847,49109,15227
22730,48982,15022
22631,48880,14843
22528,48775,14659
22410,48647,14448
22298,48526,14247
22200,48429,14075
22099,48324,13894
21987,48196,13688
21888,48084,13497
21810,48002,13337
21726,47912,13173
21628,47803,12994
21540,47709,12835
21466,47637,12701
21381,47554,12554
21282,47455,12388
21193,47371,12238
21115,47308,12109
21028,47230,11967
20937,47138,11819
20860,47066,11701
20791,47009,11601
20713,46930,11481
20633,46840,11353
20575,46778,11256
20536,46736,11177
20487,46674,11078
20425,46598,10969
20377,46545,10889
20339,46509,10827
20284,46453,10746
20220,46388,10652
20174,46346,10579
20133,46312,10513
20071,46252,10423
20008,46189,10330
19969,46154,10264
19929,46120,10195
19868,46057,10096
19815,45999,10000
19788,45968,9934
19753,45932,9858
19691,45869,9751
19634,45819,9660
19605,45807,9617
19588,45808,9594
19583,45807,9584
19625,45851,9642
19727,45966,9810
19876,46130,10070
20082,46341,10428
20369,46634,10933
20735,47013,11587
21150,47439,12337
21601,47896,13160
22101,48410,14066
22637,48969,15026
23167,49519,15968
23671,50042,16865
24160,50559,17729
24624,51055,18534
25033,51486,19230
25384,51853,19823
25694,52185,20342
25953,52472,20777
26141,52677,21092
26270,52811,21303
26376,52919,21460
26453,52997,21566
26474,53009,21590
26457,52979,21557
26436,52955,21518
26398,52917,21456
26322,52833,21338
26235,52732,21197
26166,52653,21076
26091,52573,20950
25993,52460,20791
25900,52347,20632
25834,52261,20501
25762,52174,20364
25667,52063,20197
25585,51966,20037
25532,51903,19910
25476,51836,19780
25401,51744,19626
25331,51662,19485
25276,51605,19372
25202,51531,19240
25096,51422,19065
24991,51313,18884
24896,51215,18712
24785,51095,18514
24656,50945,18284
24533,50804,18058
24418,50681,17848
24289,50542,17621
24150,50386,17380
24032,50258,17172
23935,50162,17004
23831,50059,16831
23730,49950,16660
23662,49883,16543
23620,49847,16474
23572,49799,16404
23531,49751,16345
23524,49744,16338
23534,49760,16361
23535,49759,16370
23547,49759,16385
23593,49795,16445
23642,49840,16521
23665,49858,16571
23686,49874,16619
23729,49923,16697
23768,49976,16771
23778,49997,16809
23788,50011,16838
23819,50047,16885
23842,50076,16916
23832,50063,16900
23816,50041,16872
23811,50036,16859
23793,50016,16825
23750,49958,16742
23703,49902,16648
23663,49868,16565
23599,49812,16454
23504,49713,16296
23413,49613,16135
23335,49533,15988
23242,49437,15818
23128,49312,15617
23025,49202,15426
22935,49112,15251
22828,49004,15055
22703,48869,14833
22592,48748,14630
22496,48648,14449
22384,48529,14247
22255,48392,14027
22137,48280,13834
22031,48188,13666
21913,48075,13478
21798,47949,13280
21710,47854,13115
21633,47780,12967
21541,47684,12798
21447,47585,12629
21373,47520,12498
21303,47463,12381
21214,47373,12236
21125,47276,12090
21059,47211,11980
20997,47154,11877
20917,47070,11748
20838,46987,11625
20784,46936,11542
20734,46890,11460
20670,46817,11344
20608,46747,11232
20565,46706,11151
20518,46662,11065
20453,46592,10953
20392,46529,10855
20347,46494,10789
20296,46452,10719
20233,46387,10625
20181,46331,10541
20145,46297,10483
20099,46251,10410
20037,46182,10307
19982,46125,10214
19939,46088,10143
19881,46036,10055
19806,45962,9939
19741,45900,9836
19689,45859,9757
19633,45807,9670
19575,45743,9576
19540,45706,9509
19530,45700,9476
19526,45691,9452
19537,45690,9455
19597,45745,9542
19705,45864,9726
19845,46016,9995
20036,46222,10378
20314,46523,10920
20676,46910,11602
21090,47334,12364
21549,47799,13193
22062,48336,14106
22603,48914,15066
23132,49474,16004
23646,50013,16906
24151,50549,17772
24614,51047,18560
25004,51466,19227
25339,51825,19791
25634,52148,20275
25867,52403,20654
26026,52564,20916
26142,52676,21105
26238,52774,21254
26291,52825,21336
26292,52813,21333
26273,52778,21290
26250,52745,21229
26195,52682,21123
26104,52575,20967
26013,52467,20808
25934,52376,20663
25839,52267,20496
25721,52130,20301
25611,52004,20114
25512,51899,19941
25400,51773,19745
25275,51624,19523
25167,51494,19322
25071,51382,19140
24962,51254,18940
24843,51116,18730
24738,51005,18549
24636,50911,18382
24516,50793,18183
24390,50663,17964
24276,50554,17765
24158,50449,17567
24017,50312,17333
23872,50160,17082
23751,50035,16855
23643,49923,16644
23518,49789,16415
23390,49648,16184
23284,49541,15992
23196,49455,15829
23104,49358,15671
23021,49268,15538
22967,49215,15459
22923,49173,15397
22872,49115,15324
22836,49071,15277
22831,49069,15282
22831,49072,15302
22822,49055,15309
22830,49057,15339
22865,49097,15406
22897,49133,15471
22913,49145,15514
22939,49171,15568
22980,49220,15639
23006,49249,15684
23011,49241,15689
23016,49238,15694
23025,49251,15710
23012,49244,15698
22982,49211,15653
22964,49190,15611
22951,49178,15566
22910,49130,15480
22848,49051,15357
22792,48983,15240
22732,48921,15121
22647,48825,14962
22546,48709,14781
22451,48614,14622
22356,48530,14469
22244,48424,14286
22128,48305,14088
22031,48209,13912
21943,48122,13742
21840,48011,13541
21725,47886,13327
21621,47783,13138
21524,47691,12962
21411,47578,12762
21290,47458,12552
21183,47360,12364
21076,47265,12184
20952,47144,11990
20834,47026,11807
20740,46935,11653
20644,46842,11498
20527,46727,11322
20420,46623,11159
20343,46555,11035
20263,46483,10909
20165,46382,10755
20081,46293,10616
20023,46235,10509
19963,46171,10393
19893,46087,10258
19838,46022,10147
19799,45983,10067
19749,45932,9977
19686,45863,9868
19634,45813,9781
19596,45785,9724
19547,45740,9653
19488,45678,9569
19443,45635,9509
19411,45612,9464
19369,45571,9394
19317,45513,9306
19280,45474,9238
19250,45449,9183
19200,45400,9103
19137,45331,9007
19091,45283,8933
19056,45249,8877
19003,45194,8800
18942,45131,8711
18899,45098,8649
18859,45076,8595
18800,45028,8513
18748,44981,8433
18727,44974,8397
18722,44985,8387
18717,44987,8386
18744,45015,8444
18832,45115,8612
18975,45271,8877
19170,45467,9234
19437,45738,9727
19788,46104,10374
20201,46527,11128
20657,46981,11944
21157,47482,12828
21691,48035,13768
22222,48590,14705
22730,49115,15597
23226,49628,16454
23705,50130,17267
24130,50578,17983
24488,50953,18585
24800,51285,19105
25070,51578,19547
25273,51795,19876
25410,51932,20094
25509,52034,20250
25578,52107,20358
25592,52117,20383
25559,52075,20334
25517,52032,20267
25470,51989,20184
25390,51902,20046
25290,51783,19869
25200,51680,19697
25113,51583,19520
25007,51457,19306
24893,51322,19079
24795,51214,18876
24698,51108,18675
24581,50969,18442
24454,50816,18202
24337,50688,17992
24223,50569,17792
24092,50425,17562
23951,50269,17320
23822,50135,17098
23695,50007,16875
23556,49856,16623
23416,49703,16367
23291,49572,16127
23166,49437,15884
23033,49280,15626
22917,49139,15392
22825,49033,15197
22728,48927,15007
22613,48804,14806
22514,48703,14637
22446,48646,14518
22383,48591,14414
22318,48528,14318
22279,48492,14269
22267,48494,14272
22257,48495,14287
22249,48488,14300
22267,48510,14348
22309,48562,14433
22348,48600,14509
22384,48623,14570
22438,48671,14656
22501,48738,14755
22547,48780,14823
22581,48802,14871
22620,48840,14935
22654,48882,14998
22665,48894,15022
22660,48886,15022
22661,48888,15033
22661,48891,15038
22632,48858,15001
22583,48802,14931
22543,48762,14861
22507,48725,14781
22448,48657,14658
22373,48567,14512
22304,48490,14372
22229,48409,14219
22133,48299,14032
22035,48186,13842
21952,48095,13675
21860,47999,13501
21741,47875,13302
21629,47761,13118
21542,47684,12969
21452,47603,12812
21346,47496,12625
21250,47401,12450
21173,47333,12302
21089,47254,12146
20987,47155,11969
20895,47067,11809
20817,47000,11675
20733,46922,11529
20639,46824,11365
20557,46735,11216
20490,46666,11091
20414,46586,10956
20329,46490,10810
20258,46412,10691
20204,46359,10594
20145,46297,10481
20084,46226,10362
20039,46183,10275
20004,46158,10211
19952,46108,10133
19891,46040,10046
19850,45996,9986
19819,45971,9941
19767,45923,9870
19703,45859,9783
19658,45821,9719
19619,45791,9664
19559,45732,9578
19501,45667,9484
19467,45634,9418
19432,45604,9351
19372,45542,9250
19314,45479,9151
19280,45449,9085
19244,45420,9017
19186,45362,8917
19128,45305,8826
19089,45276,8772
19055,45247,8722
19017,45202,8659
19002,45183,8628
19024,45216,8665
19072,45277,8754
19149,45362,8899
19285,45513,9152
19496,45750,9541
19768,46047,10042
20098,46388,10644
20499,46799,11367
20961,47279,12197
21447,47782,13073
21942,48287,13962
22458,48815,14869
22978,49355,15775
23466,49862,16626
23916,50323,17401
24348,50763,18120
24749,51172,18771
25081,51507,19305
25346,51770,19726
25574,52004,20080
25759,52204,20365
25875,52326,20545
25937,52380,20640
25980,52417,20699
26004,52434,20717
25984,52399,20660
25940,52335,20560
25897,52281,20460
25836,52216,20342
25740,52108,20177
25638,51991,20003
25558,51903,19855
25473,51815,19700
25363,51696,19507
25251,51572,19310
25161,51472,19140
25076,51371,18964
24980,51251,18764
24887,51136,18571
24802,51043,18402
24707,50938,18224
24591,50806,18021
24474,50684,17827
24366,50583,17648
24247,50465,17446
24109,50315,17205
23978,50170,16965
23861,50046,16739
23736,49908,16498
23602,49750,16238
23487,49611,15999
23392,49505,15793
23297,49396,15593
23203,49283,15403
23135,49204,15266
23090,49160,15180
23042,49113,15102
22999,49065,15041
22993,49061,15036
23011,49093,15075
23017,49114,15105
23024,49130,15137
23064,49172,15210
23116,49223,15303
23150,49249,15374
23183,49274,15440
23237,49330,15535
23293,49391,15630
23328,49416,15685
23349,49422,15721
23376,49443,15771
23404,49470,15815
23413,49475,15823
23414,49474,15816
23423,49488,15819
23419,49486,15802
23386,49445,15742
23350,49396,15669
23327,49365,15602
23284,49317,15505
23205,49232,15362
23124,49146,15217
23057,49082,15086
22977,49002,14932
22875,48890,14741
22774,48783,14556
22681,48692,14389
22573,48580,14199
22446,48442,13978
22332,48319,13773
22236,48223,13591
22134,48114,13395
22019,47985,13186
21913,47872,13000
21818,47778,12835
21715,47668,12652
21604,47545,12458
21505,47443,12291
21417,47358,12144
21315,47252,11976
21204,47135,11795
21116,47049,11645
21041,46979,11516
20954,46885,11367
20871,46789,11216
20812,46730,11104
20756,46684,11001
20677,46610,10869
20597,46531,10738
20539,46482,10643
20480,46434,10554
20400,46358,10437
20321,46281,10322
20260,46234,10242
20203,46191,10165
20136,46127,10065
20074,46063,9969
20031,46022,9901
19991,45979,9828
19944,45912,9731
19900,45850,9641
19868,45807,9578
19828,45759,9511
19773,45694,9424
19725,45643,9345
19691,45616,9284
19644,45577,9207
19577,45512,9102
19515,45458,9006
19469,45429,8936
19411,45388,8854
19340,45323,8747
19282,45266,8651
19238,45225,8573
19184,45169,8484
19121,45099,8389
19080,45059,8330
19063,45053,8314
19049,45048,8315
19060,45061,8360
19141,45148,8510
19294,45312,8776
19489,45515,9131
19743,45778,9604
20089,46146,10245
20515,46596,11023
20980,47078,11875
21487,47598,12787
22042,48177,13766
22604,48769,14756
23131,49320,15691
23640,49846,16575
24147,50371,17424
24613,50853,18187
25002,51244,18819
25332,51570,19349
25621,51861,19803
25855,52093,20154
26019,52246,20392
26134,52350,20553
26210,52426,20659
26239,52455,20693
26222,52428,20655
26186,52382,20591
26148,52338,20519
26086,52266,20408
25993,52155,20251
25898,52050,20092
25813,51966,19946
25713,51866,19781
25597,51742,19589
25492,51633,19407
25400,51545,19246
25294,51440,19066
25177,51314,18866
25081,51204,18686
25004,51110,18525
24913,50995,18340
24807,50863,18139
24707,50753,17963
24605,50650,17792
24479,50517,17582
24345,50370,17350
24227,50246,17140
24110,50131,16932
23972,49990,16691
23830,49838,16437
23710,49710,16210
23600,49595,15999
23479,49458,15774
23354,49317,15554
23250,49208,15371
23161,49120,15213
23070,49022,15052
22986,48932,14910
22923,48876,14812
22867,48831,14736
22804,48772,14660
22760,48730,14611
22749,48726,14606
22742,48729,14616
22727,48716,14618
22736,48724,14642
22777,48768,14698
22813,48806,14746
22831,48818,14773
22857,48840,14818
22895,48885,14887
22914,48913,14933
22904,48906,14941
22896,48901,14947
22895,48909,14960
22877,48890,14939
22842,48844,14879
22815,48809,14822
22788,48784,14765
22736,48731,14669
22662,48652,14539
22592,48586,14419
22522,48519,14295
22430,48414,14130
22328,48288,13941
22238,48183,13767
22145,48087,13595
22026,47965,13391
21896,47834,13175
21780,47733,12985
21676,47646,12808
21562,47537,12610
21445,47416,12403
21346,47317,12224
21254,47228,12056
21145,47112,11865
21032,46989,11667
20937,46892,11491
20840,46796,11315
20722,46675,11116
20608,46556,10926
20513,46463,10766
20412,46364,10604
20294,46242,10418
20195,46138,10254
20130,46075,10135
20064,46011,10014
19980,45923,9871
19910,45848,9747
19860,45804,9657
19804,45752,9562
19736,45677,9450
19682,45617,9359
19642,45583,9296
19591,45537,9216
19526,45471,9119
19471,45419,9045
19426,45382,8991
19369,45327,8913
19301,45261,8817
19244,45219,8747
19199,45193,8697
19147,45146,8626
19093,45088,8540
19057,45053,8476
19027,45029,8420
18973,44978,8332
18903,44906,8224
18847,44852,8137
18804,44816,8067
18747,44763,7976
18686,44699,7876
18649,44663,7807
18627,44648,7759
18599,44617,7707
18584,44597,7676
18608,44626,7705
18656,44686,7786
18720,44757,7912
18837,44882,8130
19035,45097,8484
19296,45376,8954
19607,45697,9522
19988,46091,10220
20437,46567,11044
20914,47072,11924
21399,47572,12810
21905,48090,13717
22424,48630,14635
22917,49139,15500
23368,49595,16279
23787,50025,16997
24175,50433,17655
24504,50776,18208
24766,51040,18639
24983,51258,18985
25158,51440,19260
25270,51558,19437
25324,51610,19524
25352,51635,19564
25356,51639,19562
25317,51593,19491
25245,51509,19368
25170,51430,19238
25092,51354,19099
24983,51240,18915
24855,51096,18698
24741,50969,18493
24634,50853,18291
24505,50704,18054
24366,50539,17800
24249,50404,17575
24135,50280,17359
23999,50130,17116
23863,49978,16872
23746,49861,16666
23628,49750,16462
23488,49612,16223
23346,49471,15980
23222,49358,15766
23103,49241,15547
22969,49091,15295
22832,48936,15045
22707,48804,14813
22577,48667,14571
22435,48510,14310
22304,48367,14070
22192,48257,13867
22079,48149,13672
21964,48028,13475
21873,47930,13314
21811,47874,13204
21753,47825,13112
21697,47770,13028
21668,47742,12983
21670,47746,12988
21673,47742,12999
21674,47727,13007
21700,47748,13056
21749,47806,13143
21787,47849,13218
21815,47869,13279
21863,47913,13366
21916,47971,13467
21944,48002,13537
21961,48019,13588
21989,48055,13655
22015,48097,13716
22018,48106,13734
22010,48096,13726
22013,48103,13729
22009,48105,13714
21974,48063,13643
21920,47991,13533
21871,47932,13426
21819,47880,13315
21745,47801,13166
21660,47709,12998
21584,47635,12846
21504,47561,12695
21408,47462,12521
21311,47364,12349
21221,47286,12196
21120,47196,12031
20995,47077,11837
20874,46963,11648
20775,46878,11485
20671,46784,11315
20552,46663,11120
20443,46554,10937
20355,46468,10781
20256,46371,10612
20139,46249,10420
20038,46142,10247
19960,46062,10108
19877,45974,9960
19782,45868,9800
19703,45787,9669
19644,45738,9570
19577,45680,9457
19502,45607,9327
19448,45556,9224
19408,45523,9143
19350,45463,9036
19277,45386,8915
19223,45339,8827
19179,45304,8765
19117,45236,8683
19052,45159,8592
19013,45118,8532
18980,45088,8481
18931,45031,8403
18882,44970,8317
18851,44940,8256
18817,44915,8196
18756,44854,8102
18693,44785,8003
18652,44748,7937
18620,44721,7877
18574,44667,7793
18526,44612,7711
18499,44588,7661
18479,44576,7620
18456,44553,7569
18446,44541,7542
18460,44564,7572
18491,44605,7642
18546,44660,7752
18658,44772,7952
18838,44963,8277
19065,45205,8704
19337,45489,9226
19686,45853,9875
20108,46298,10642
20567,46772,11466
21044,47253,12314
21548,47766,13196
22062,48303,14094
22549,48810,14946
23000,49272,15729
23430,49719,16465
23828,50141,17137
24158,50488,17694
24425,50756,18138
24659,50989,18515
24851,51184,18820
24979,51305,19017
25058,51367,19128
25113,51413,19201
25134,51431,19225
25106,51394,19173
25051,51325,19072
24995,51263,18960
24927,51194,18825
24830,51084,18639
24710,50948,18424
24595,50828,18221
24484,50713,18017
24358,50574,17783
24227,50427,17537
24109,50301,17309
23994,50176,17083
23866,50033,16840
23742,49897,16606
23633,49781,16398
23514,49651,16179
23373,49493,15930
23236,49343,15685
23120,49225,15462
22995,49097,15227
22849,48937,14961
22710,48783,14701
22586,48659,14464
22450,48527,14219
22303,48372,13960
22171,48238,13728
22059,48137,13539
21946,48028,13357
21833,47908,13178
21750,47822,13049
21700,47778,12970
21655,47737,12899
21620,47695,12840
21616,47691,12834
21634,47715,12870
21649,47729,12904
21667,47743,12945
21709,47786,13026
21765,47848,13133
21814,47894,13225
21866,47935,13314
21935,48006,13426
22006,48087,13543
22050,48138,13624
22077,48166,13681
22113,48207,13748
22149,48253,13810
22166,48267,13831
22172,48261,13822
22179,48261,13811
22173,48249,13779
22140,48203,13704
22091,48148,13614
22039,48104,13529
21964,48039,13414
21859,47933,13253
21758,47825,13087
21679,47742,12944
21591,47651,12786
21482,47532,12593
21381,47422,12404
21296,47336,12236
21202,47238,12055
21096,47117,11854
21002,47011,11667
20923,46929,11501
20830,46830,11318
20718,46705,11112
20615,46592,10929
20523,46498,10770
20417,46386,10592
20301,46259,10398
20203,46157,10228
20119,46077,10080
20027,45983,9917
19933,45885,9752
19854,45812,9619
19781,45754,9505
19693,45678,9370
19605,45590,9228
19541,45528,9118
19495,45488,9032
19441,45435,8936
19383,45375,8839
19345,45344,8775
19317,45331,8733
19275,45300,8675
19228,45261,8608
19194,45242,8559
19157,45223,8509
19101,45172,8432
19051,45120,8355
19022,45092,8305
18987,45054,8246
18924,44980,8149
18866,44908,8053
18833,44870,7986
18795,44831,7912
18732,44767,7810
18678,44710,7718
18646,44678,7657
18608,44638,7590
18556,44574,7501
18515,44525,7431
18492,44504,7392
18461,44475,7344
18423,44429,7281
18409,44409,7254
18427,44430,7282
18459,44468,7341
18517,44531,7448
18642,44669,7663
18838,44890,8010
19087,45160,8466
19404,45490,9045
19813,45916,9784
20291,46413,10647
20797,46926,11558
21326,47456,12499
21883,48024,13477
22435,48596,14450
22946,49121,15350
23425,49609,16178
23887,50090,16953
24308,50532,17645
24659,50892,18211
24948,51184,18672
25194,51441,19067
25389,51653,19378
25515,51790,19577
25589,51868,19695
25637,51923,19770
25654,51947,19788
25632,51921,19736
25591,51868,19652
25546,51813,19563
25484,51736,19443
25399,51623,19277
25314,51507,19101
25236,51404,18933
25141,51286,18748
25020,51137,18536
24903,50998,18330
24799,50886,18144
24681,50768,17951
24548,50634,17744
24432,50522,17558
24341,50443,17404
24245,50358,17243
24137,50252,17068
24045,50161,16911
23967,50086,16768
23871,49981,16590
23754,49844,16375
23647,49721,16171
23544,49608,15975
23420,49468,15747
23284,49314,15502
23169,49189,15291
23068,49087,15105
22957,48966,14905
22850,48840,14705
22774,48752,14547
22708,48682,14415
22628,48591,14274
22555,48505,14149
22510,48463,14076
22476,48440,14029
22433,48399,13973
22405,48366,13934
22414,48377,13947
22433,48403,13980
22438,48406,13996
22448,48412,14021
22482,48448,14081
22519,48486,14141
22542,48500,14178
22564,48513,14219
22590,48541,14278
22605,48558,14319
22604,48549,14325
22608,48547,14327
22621,48563,14338
22619,48560,14320
22596,48526,14262
22568,48495,14204
22538,48474,14150
22485,48427,14061
22406,48345,13934
22326,48266,13806
22251,48198,13683
22162,48107,13534
22059,47995,13362
21962,47898,13199
21873,47811,13042
21772,47702,12859
21660,47578,12662
21561,47475,12487
21467,47385,12321
21353,47272,12128
21230,47146,11923
21123,47044,11741
21025,46957,11568
20909,46842,11368
20780,46711,11153
20672,46606,10966
20581,46519,10799
20479,46413,10619
20377,46300,10439
20292,46214,10286
20211,46140,10145
20122,46047,9988
20044,45960,9839
19990,45903,9725
19930,45845,9618
19848,45761,9492
19774,45690,9382
19729,45658,9309
19682,45627,9238
19616,45569,9146
19558,45514,9067
19524,45482,9014
19484,45442,8948
19427,45381,8858
19379,45334,8781
19346,45310,8728
19299,45268,8658
19235,45197,8563
19181,45139,8483
19141,45105,8426
19090,45056,8350
19027,44988,8254
18977,44938,8178
18940,44905,8118
18892,44852,8034
18838,44787,7934
18801,44746,7858
18770,44717,7792
18719,44662,7695
18662,44595,7587
18621,44555,7509
18588,44529,7448
18540,44483,7375
18495,44436,7309
18483,44428,7287
18496,44450,7306
18520,44475,7346
18570,44527,7437
18683,44657,7637
18864,44860,7955
19098,45107,8372
19393,45416,8910
19769,45814,9594
20209,46273,10393
20687,46758,11259
21200,47280,12185
21745,47843,13158
22287,48399,14116
22800,48918,15011
23292,49419,15854
23765,49909,16646
24179,50340,17341
24518,50687,17913
24813,50987,18397
25074,51260,18809
25273,51473,19123
25405,51612,19336
25503,51711,19485
25575,51783,19586
25601,51800,19614
25582,51761,19571
25552,51714,19503
25518,51672,19419
25452,51597,19288
25356,51489,19116
25260,51389,18945
25166,51293,18775
25044,51161,18567
24904,51002,18334
24780,50864,18129
24667,50743,17941
24538,50597,17729
24403,50444,17508
24293,50329,17322
24194,50234,17152
24081,50116,16953
23973,49996,16751
23891,49906,16584
23806,49818,16423
23693,49693,16223
23572,49560,16011
23468,49455,15821
23356,49345,15618
23218,49195,15370
23079,49039,15119
22960,48912,14901
22839,48784,14686
22702,48634,14450
22574,48499,14234
22475,48407,14066
22383,48322,13913
22294,48225,13755
22233,48153,13631
22204,48120,13556
22176,48092,13491
22140,48052,13423
22122,48035,13395
22126,48049,13413
22127,48058,13432
22125,48051,13445
22145,48067,13489
22184,48111,13564
22212,48145,13623
22232,48156,13659
22268,48181,13711
22314,48220,13771
22339,48238,13800
22347,48233,13802
22357,48241,13812
22360,48252,13818
22337,48232,13785
22297,48192,13728
22256,48165,13681
22213,48136,13632
22153,48072,13549
22085,47992,13445
22030,47934,13350
21976,47886,13251
21897,47809,13112
21803,47711,12945
21713,47628,12782
21618,47545,12612
21502,47435,12408
21384,47319,12196
21281,47222,12009
21177,47121,11825
21058,46994,11618
20946,46872,11418
20856,46777,11249
20763,46679,11075
20649,46556,10880
20540,46443,10700
20451,46356,10551
20358,46263,10397
20251,46148,10222
20157,46050,10064
20084,45984,9934
20003,45906,9795
19907,45804,9636
19825,45720,9493
19762,45660,9374
19688,45586,9241
19599,45494,9094
19524,45422,8970
19466,45371,8870
19396,45300,8755
19313,45211,8628
19253,45153,8537
19214,45121,8480
19161,45068,8402
19100,45000,8309
19062,44961,8245
19030,44936,8196
18975,44885,8118
18918,44825,8028
18887,44796,7966
18861,44774,7910
18815,44720,7824
18768,44659,7733
18740,44629,7680
18709,44605,7634
18653,44548,7555
18596,44485,7471
18559,44451,7418
18523,44420,7361
18465,44358,7270
18401,44292,7178
18349,44253,7115
18300,44217,7048
18248,44165,6961
18213,44132,6895
18204,44136,6872
18205,44146,6865
18219,44155,6872
18268,44202,6944
18363,44309,7109
18497,44456,7349
18677,44642,7675
18938,44913,8145
19286,45283,8774
19691,45708,9512
20135,46163,10326
20628,46671,11226
21156,47221,12179
21681,47762,13116
22191,48279,14014
22691,48792,14883
23166,49288,15695
23586,49720,16399
23948,50088,17002
24272,50419,17542
24550,50710,17999
24762,50924,18336
24916,51070,18572
25040,51192,18757
25129,51283,18881
25162,51309,18918
25149,51286,18893
25118,51254,18845
25068,51205,18762
24983,51114,18616
24877,50997,18430
24777,50892,18245
24675,50788,18051
24551,50654,17826
24420,50508,17594
24300,50378,17378
24181,50247,17154
24054,50099,16910
23935,49958,16679
23828,49844,16482
23715,49727,16284
23586,49591,16061
23461,49460,15846
23351,49349,15651
23236,49226,15444
23108,49080,15209
22984,48943,14976
22867,48824,14757
22738,48690,14522
22595,48536,14269
22465,48400,14036
22355,48289,13827
22242,48168,13609
22121,48034,13385
22015,47918,13195
21925,47827,13040
21834,47730,12889
21747,47630,12750
21683,47564,12656
21639,47528,12598
21595,47492,12539
21560,47462,12490
21556,47464,12486
21574,47486,12512
21584,47493,12531
21589,47494,12554
21614,47528,12614
21656,47583,12693
21688,47619,12753
21710,47638,12800
21741,47676,12864
21772,47721,12929
21783,47737,12962
21787,47738,12980
21801,47753,13004
21803,47755,13007
21776,47721,12964
21744,47680,12906
21719,47652,12855
21672,47602,12776
21590,47512,12647
21505,47423,12510
21436,47357,12392
21354,47279,12252
21250,47171,12077
21152,47070,11909
21070,46989,11762
20973,46891,11596
20858,46766,11399
20750,46654,11212
20650,46562,11041
20534,46452,10847
20402,46316,10627
20284,46195,10424
20177,46097,10242
20052,45980,10039
19916,45844,9821
19799,45729,9635
19698,45630,9473
19586,45514,9291
19477,45392,9101
19389,45303,8946
19305,45231,8812
19202,45138,8658
19104,45041,8504
19036,44974,8387
18979,44919,8284
18908,44843,8158
18833,44763,8033
18773,44713,7945
18716,44674,7868
18647,44616,7768
18577,44553,7663
18528,44515,7587
18487,44484,7520
18437,44431,7431
18389,44379,7345
18357,44350,7285
18322,44320,7223
18270,44267,7137
18225,44222,7061
18197,44204,7014
18161,44178,6964
18106,44123,6887
18063,44073,6819
18039,44046,6777
18002,44007,6726
17940,43943,6645
17879,43892,6569
17831,43859,6509
17772,43808,6432
17704,43737,6336
17654,43684,6262
17626,43657,6216
17590,43617,6154
17548,43562,6074
17528,43536,6026
17530,43543,6012
17526,43541,5992
17531,43542,5989
17588,43602,6066
17691,43716,6223
17818,43850,6435
17987,44030,6739
18232,44300,7188
18541,44643,7766
18888,45019,8429
19287,45437,9183
19748,45918,10037
20243,46429,10933
20733,46919,11804
21212,47393,12652
21688,47877,13494
22145,48347,14290
22553,48758,14990
22909,49116,15602
23221,49442,16142
23477,49712,16591
23672,49910,16930
23827,50068,17193
23950,50203,17400
24020,50285,17522
24036,50301,17550
24032,50293,17527
24019,50282,17475
23968,50231,17365
23871,50125,17191
23764,50009,16999
23663,49900,16805
23543,49770,16581
23404,49612,16324
23272,49468,16072
23151,49343,15830
23015,49198,15565
22866,49029,15279
22731,48881,15023
22610,48756,14794
22472,48606,14544
22323,48432,14274
22193,48285,14030
22074,48155,13802
21933,47999,13544
21782,47831,13269
21647,47686,13016
21513,47548,12767
21357,47384,12491
21194,47215,12211
21052,47079,11970
20923,46964,11755
20788,46834,11530
20659,46699,11311
20557,46596,11135
20476,46516,10992
20394,46428,10852
20319,46346,10733
20272,46296,10664
20243,46265,10624
20218,46231,10592
20212,46221,10595
20236,46256,10650
20266,46302,10717
20287,46335,10772
20326,46386,10855
20392,46471,10979
20450,46546,11094
20488,46594,11179
20534,46649,11269
20595,46719,11369
20634,46761,11437
20645,46765,11466
20658,46773,11493
20674,46795,11526
20664,46787,11519
20624,46743,11463
20589,46707,11405
20560,46682,11350
20507,46623,11261
20433,46537,11140
20374,46470,11034
20324,46414,10936
20253,46326,10804
20169,46220,10647
20096,46139,10504
20017,46066,10363
19910,45960,10190
19797,45843,10007
19706,45758,9852
19623,45686,9704
19522,45586,9525
19416,45474,9337
19327,45386,9177
19247,45309,9028
19154,45210,8854
19056,45102,8673
18971,45018,8520
18888,44942,8375
18795,44844,8212
18705,44748,8056
18633,44680,7933
18563,44616,7815
18480,44533,7679
18411,44461,7560
18370,44420,7476
18330,44374,7392
18274,44306,7292
18230,44256,7208
18209,44241,7156
18178,44215,7097
18125,44163,7015
18081,44125,6950
18056,44112,6910
18018,44083,6852
17965,44026,6769
17927,43982,6705
17904,43959,6668
17869,43919,6612
17819,43858,6533
17784,43817,6475
17758,43798,6437
17709,43753,6368
17649,43687,6276
17610,43646,6211
17581,43622,6165
17533,43571,6095
17483,43512,6020
17456,43485,5983
17438,43474,5961
17415,43447,5924
17405,43431,5907
17433,43466,5957
17494,43541,6063
17576,43633,6203
17699,43762,6418
17892,43972,6756
18149,44251,7212
18453,44568,7761
18813,44938,8417
19237,45375,9183
19701,45849,10009
20176,46326,10847
20661,46818,11696
21149,47326,12554
21609,47809,13370
22025,48241,14107
22415,48646,14784
22781,49033,15406
23090,49359,15933
23331,49605,16340
23531,49805,16661
23696,49972,16919
23804,50083,17088
23855,50139,17161
23879,50178,17183
23891,50206,17181
23871,50187,17128
23816,50116,17015
23747,50028,16872
23668,49934,16710
23561,49809,16505
23437,49657,16265
23320,49517,16033
23206,49389,15805
23070,49231,15546
22919,49053,15266
22784,48903,15010
22663,48776,14774
22523,48623,14513
22367,48453,14232
22223,48306,13971
22082,48166,13713
21917,47991,13423
21744,47804,13120
21592,47646,12840
21442,47496,12563
21277,47321,12260
21119,47152,11968
20986,47019,11719
20856,46887,11480
20710,46729,11226
20581,46584,10999
20484,46481,10825
20391,46384,10672
20290,46276,10515
20215,46198,10403
20178,46174,10359
20151,46161,10338
20128,46138,10318
20138,46145,10342
20187,46197,10420
20242,46254,10509
20292,46300,10592
20361,46370,10704
20449,46467,10847
20523,46549,10972
20573,46605,11069
20627,46666,11173
20685,46737,11282
20721,46779,11355
20739,46790,11394
20765,46808,11439
20789,46828,11479
20788,46813,11473
20764,46769,11433
20738,46735,11393
20706,46703,11340
20646,46636,11241
20568,46545,11111
20499,46469,10987
20428,46404,10862
20330,46314,10702
20214,46203,10525
20112,46111,10366
20019,46031,10214
19906,45927,10037
19789,45812,9849
19693,45719,9683
19599,45633,9521
19488,45524,9341
19383,45419,9167
19299,45339,9017
19209,45251,8859
19099,45130,8672
19000,45018,8497
18928,44939,8353
18849,44856,8204
18753,44748,8034
18672,44657,7882
18615,44595,7763
18553,44523,7642
18479,44431,7504
18416,44361,7390
18371,44325,7312
18317,44282,7230
18255,44224,7136
18208,44186,7063
18180,44176,7018
18142,44151,6956
18095,44105,6873
18063,44074,6808
18042,44057,6760
18000,44014,6688
17940,43949,6597
17901,43907,6531
17877,43883,6487
17833,43834,6420
17778,43773,6338
17747,43742,6282
17729,43728,6241
17694,43691,6177
17654,43642,6105
17633,43619,6060
17609,43600,6019
17559,43548,5944
17508,43491,5863
17480,43467,5817
17448,43444,5774
17389,43387,5698
17333,43329,5625
17303,43305,5587
17273,43281,5543
17221,43226,5463
17173,43176,5389
17153,43162,5352
17137,43152,5319
17117,43125,5280
17126,43126,5289
17183,43184,5378
17270,43274,5521
17383,43394,5722
17560,43584,6035
17816,43863,6489
18128,44202,7054
18489,44586,7719
18924,45043,8510
19423,45565,9405
19939,46095,10328
20457,46615,11251
20993,47157,12187
21528,47706,13108
22021,48212,13948
22463,48664,14696
22875,49090,15385
23240,49473,15994
23530,49773,16477
23763,50003,16851
23967,50203,17166
24131,50364,17408
24234,50455,17547
24293,50497,17612
24332,50524,17646
24341,50524,17632
24306,50465,17542
24239,50372,17404
24166,50287,17259
24080,50197,17095
23963,50069,16884
23830,49921,16653
23708,49788,16438
23590,49658,16219
23460,49510,15974
23330,49365,15734
23214,49244,15524
23098,49122,15316
22973,48984,15090
22857,48859,14877
22758,48764,14690
22654,48664,14496
22533,48538,14279
22415,48418,14069
22307,48318,13875
22185,48203,13662
22045,48061,13423
21915,47926,13193
21801,47812,12985
21681,47684,12766
21548,47530,12535
21429,47391,12329
21330,47279,12155
21230,47168,11983
21129,47057,11815
21052,46982,11688
21000,46941,11600
20950,46895,11512
20904,46841,11431
20886,46821,11399
20892,46836,11412
20889,46840,11425
20888,46839,11443
20922,46873,11505
20976,46927,11595
21015,46957,11668
21049,46978,11733
21098,47027,11827
21144,47078,11922
21158,47095,11981
21168,47103,12026
21198,47135,12085
21219,47161,12119
21204,47141,12096
21179,47109,12054
21164,47100,12024
21137,47077,11972
21081,47013,11871
21016,46944,11759
20957,46892,11666
20885,46829,11556
20797,46741,11414
20717,46661,11277
20648,46599,11155
20565,46517,11011
20463,46405,10836
20368,46304,10670
20287,46228,10526
20192,46140,10363
20077,46025,10169
19968,45920,9983
19871,45827,9814
19765,45717,9633
19651,45592,9441
19555,45492,9270
19474,45416,9122
19382,45324,8957
19281,45216,8779
19200,45135,8632
19133,45073,8507
19046,44986,8357
18942,44882,8191
18856,44803,8056
18780,44740,7943
18684,44656,7812
18587,44568,7679
18517,44516,7582
18462,44481,7505
18396,44419,7406
18330,44348,7303
18287,44303,7229
18243,44258,7153
18176,44179,7041
18107,44099,6927
18059,44049,6840
18006,44000,6748
17931,43922,6631
17859,43848,6529
17807,43799,6461
17751,43745,6387
17682,43668,6286
17623,43602,6201
17583,43567,6147
17537,43529,6083
17477,43467,5992
17426,43416,5914
17387,43388,5856
17341,43345,5780
17283,43276,5682
17238,43224,5605
17210,43197,5558
17177,43159,5500
17141,43109,5436
17127,43093,5414
17139,43114,5437
17164,43141,5476
17211,43185,5549
17307,43286,5706
17453,43452,5959
17641,43657,6294
17887,43917,6733
18218,44267,7318
18623,44695,8033
19063,45150,8817
19529,45623,9649
20036,46136,10538
20556,46663,11449
21050,47157,12318
21512,47618,13132
21957,48070,13904
22363,48490,14605
22705,48837,15195
22995,49131,15693
23254,49399,16125
23463,49617,16466
23606,49756,16695
23713,49853,16853
23810,49936,16969
23866,49977,17018
23869,49961,16985
23848,49927,16915
23821,49898,16834
23761,49841,16711
23658,49736,16531
23548,49622,16339
23442,49519,16159
23315,49389,15952
23162,49224,15707
23018,49068,15469
22893,48936,15252
22758,48788,15013
22612,48620,14751
22483,48474,14511
22370,48358,14291
22241,48224,14045
22097,48066,13777
21964,47925,13533
21836,47801,13307
21691,47656,13052
21534,47494,12782
21387,47349,12534
21244,47215,12297
21088,47060,12034
20930,46899,11767
20794,46765,11536
20672,46645,11326
20539,46509,11103
20407,46370,10886
20303,46266,10717
20217,46184,10580
20129,46091,10444
20046,46000,10325
19994,45949,10259
19966,45923,10226
19941,45894,10195
19931,45879,10185
19951,45901,10223
19980,45934,10279
20000,45953,10329
20036,45991,10396
20099,46061,10497
20152,46122,10587
20176,46149,10638
20199,46181,10692
20232,46232,10762
20248,46259,10803
20237,46241,10799
20227,46221,10791
20223,46213,10788
20199,46184,10752
20150,46126,10677
20099,46078,10605
20054,46046,10541
19991,45990,10441
19912,45906,10304
19841,45829,10174
19780,45768,10053
19704,45689,9906
19613,45593,9736
19528,45514,9579
19443,45446,9433
19330,45349,9258
19197,45229,9062
19084,45128,8886
18988,45044,8728
18877,44938,8549
18761,44823,8363
18669,44736,8207
18584,44656,8056
18484,44548,7875
18388,44437,7695
18315,44359,7556
18244,44290,7427
18154,44197,7274
18067,44107,7129
18010,44055,7026
17963,44017,6938
17907,43961,6835
17851,43901,6739
17805,43858,6667
17751,43809,6588
17688,43741,6488
17637,43686,6402
17605,43659,6348
17565,43622,6288
17508,43557,6205
17461,43502,6133
17434,43476,6088
17402,43446,6034
17356,43400,5967
17327,43373,5922
17315,43369,5899
17287,43346,5858
17241,43295,5792
17204,43255,5738
17178,43237,5699
17133,43200,5635
17072,43136,5545
17029,43089,5479
16999,43060,5430
16952,43006,5354
16896,42941,5262
16859,42909,5200
16830,42893,5151
16790,42855,5083
16756,42813,5018
16749,42804,4996
16759,42817,5001
16770,42825,5006
16801,42854,5048
16884,42950,5183
17015,43103,5410
17177,43282,5706
17385,43506,6097
17668,43815,6620
18020,44193,7263
18423,44609,7990
18879,45069,8797
19384,45574,9670
19895,46083,10549
20382,46563,11394
20864,47039,12221
21342,47522,13033
21777,47964,13776
22146,48335,14416
22477,48670,14977
22780,48984,15471
23022,49236,15864
23194,49409,16149
23328,49547,16371
23436,49664,16545
23497,49728,16636
23515,49735,16639
23516,49727,16607
23505,49715,16554
23462,49663,16447
23388,49575,16291
23313,49495,16134
23238,49420,15974
23141,49318,15780
23030,49193,15564
22930,49082,15365
22834,48977,15172
22721,48849,14957
22602,48711,14731
22500,48601,14531
22408,48510,14344
22300,48398,14134
22179,48269,13908
22075,48159,13699
21979,48058,13496
21858,47924,13261
21724,47770,13008
21603,47632,12774
21477,47494,12545
21329,47330,12295
21180,47168,12055
21054,47039,11852
20932,46915,11651
20798,46769,11433
20682,46642,11243
20603,46567,11112
20535,46503,11000
20461,46426,10885
20410,46376,10807
20394,46370,10784
20383,46367,10775
20365,46349,10766
20367,46352,10794
20396,46393,10865
20424,46432,10935
20449,46454,10991
20496,46500,11075
20563,46576,11192
20617,46635,11290
20652,46669,11361
20699,46715,11445
20754,46772,11535
20786,46796,11582
20793,46791,11592
20797,46792,11604
20796,46791,11608
20770,46754,11567
20727,46694,11493
20684,46649,11427
20638,46608,11356
20567,46535,11242
20480,46442,11099
20408,46371,10968
20345,46311,10843
20261,46224,10686
20160,46120,10510
20068,46034,10347
19974,45948,10183
19859,45831,9986
19743,45712,9784
19647,45623,9611
19548,45533,9435
19424,45409,9229
19303,45287,9029
19208,45197,8867
19111,45108,8705
18996,44996,8520
18891,44898,8354
18815,44835,8229
18740,44770,8106
18655,44685,7964
18585,44613,7844
18534,44565,7757
18473,44508,7662
18399,44430,7545
18343,44371,7451
18309,44338,7386
18266,44290,7304
18211,44225,7205
18170,44180,7131
18144,44158,7080
18108,44123,7013
18067,44075,6936
18043,44044,6880
18030,44030,6838
18003,43998,6774
17963,43953,6695
17935,43934,6639
17911,43927,6600
17860,43888,6535
17792,43823,6450
17741,43775,6387
17699,43740,6337
17637,43685,6266
17574,43623,6188
17538,43591,6136
17506,43564,6091
17455,43509,6019
17412,43459,5954
17405,43455,5934
17411,43466,5931
17409,43460,5918
17434,43480,5944
17519,43567,6060
17647,43701,6249
17806,43863,6505
18026,44090,6882
18325,44413,7415
18686,44801,8067
19097,45227,8801
19566,45700,9623
20075,46221,10516
20586,46740,11413
21082,47231,12277
21577,47719,13125
22063,48209,13944
22503,48651,14679
22879,49025,15309
23210,49359,15859
23499,49657,16335
23729,49887,16709
23903,50050,16984
24044,50187,17198
24159,50306,17357
24232,50368,17435
24262,50379,17445
24279,50386,17433
24280,50386,17401
24240,50336,17314
24168,50245,17182
24094,50163,17045
24014,50078,16897
23903,49951,16706
23778,49806,16494
23672,49687,16304
23567,49576,16116
23437,49435,15893
23301,49286,15657
23187,49168,15443
23069,49053,15227
22925,48901,14976
22780,48740,14721
22654,48604,14493
22520,48465,14256
22359,48297,13981
22204,48132,13710
22073,48000,13472
21935,47860,13228
21772,47688,12956
21620,47527,12694
21493,47400,12467
21366,47273,12241
21230,47131,12005
21117,47016,11806
21040,46947,11665
20971,46881,11541
20900,46801,11421
20857,46748,11343
20848,46737,11315
20839,46726,11293
20824,46706,11268
20836,46715,11282
20870,46756,11339
20893,46785,11392
20903,46798,11441
20932,46837,11527
20980,46900,11641
21016,46939,11729
21043,46958,11792
21090,47002,11871
21140,47054,11947
21160,47070,11974
21158,47064,11972
21164,47080,11988
21164,47093,11995
21135,47065,11951
21102,47021,11886
21087,47000,11840
21064,46972,11782
21003,46902,11673
20928,46820,11543
20864,46761,11426
20798,46696,11299
20708,46600,11139
20611,46499,10973
20522,46417,10825
20427,46331,10666
20317,46222,10480
20210,46115,10302
20112,46028,10150
20002,45928,9986
19880,45804,9792
19768,45688,9607
19672,45598,9443
19571,45500,9269
19461,45381,9074
19364,45279,8895
19284,45203,8748
19198,45116,8594
19100,45010,8425
19018,44926,8285
18953,44866,8173
18882,44791,8047
18802,44701,7910
18737,44635,7803
18682,44593,7721
18614,44535,7622
18541,44467,7519
18490,44431,7452
18454,44411,7401
18407,44366,7321
18361,44312,7230
18332,44282,7166
18306,44255,7110
18264,44199,7027
18222,44135,6942
18195,44100,6893
18169,44075,6854
18122,44022,6786
18069,43961,6713
18034,43931,6673
18007,43911,6638
17964,43869,6571
17916,43824,6499
17881,43802,6450
17847,43778,6393
17795,43729,6305
17745,43680,6224
17710,43654,6171
17671,43622,6111
17620,43567,6028
17579,43522,5953
17554,43500,5899
17520,43471,5836
17472,43421,5759
17440,43388,5703
17436,43391,5689
17441,43401,5691
17458,43415,5716
17521,43481,5818
17644,43616,6024
17810,43795,6313
18024,44017,6694
18318,44327,7216
18700,44731,7886
19135,45181,8653
19612,45663,9492
20141,46196,10414
20696,46761,11377
21228,47299,12304
21733,47806,13181
22230,48312,14035
22697,48794,14832
23097,49203,15517
23448,49553,16103
23773,49881,16628
24050,50163,17065
24257,50365,17380
24416,50516,17608
24549,50651,17795
24646,50752,17925
24691,50790,17969
24696,50787,17956
24686,50777,17922
24656,50746,17851
24592,50665,17725
24509,50560,17577
24425,50463,17433
24327,50354,17271
24213,50221,17079
24107,50096,16889
24018,49997,16718
23921,49890,16536
23811,49759,16332
23715,49642,16145
23639,49554,15991
23553,49459,15828
23445,49340,15639
23341,49235,15459
23250,49152,15299
23141,49048,15119
23013,48911,14909
22893,48784,14705
22782,48676,14510
22649,48551,14285
22502,48405,14034
22377,48278,13808
22269,48170,13604
22146,48039,13379
22019,47898,13151
21923,47795,12973
21844,47717,12834
21755,47624,12691
21676,47537,12565
21630,47495,12492
21600,47472,12449
21560,47428,12399
21526,47387,12363
21522,47387,12378
21530,47407,12416
21527,47408,12439
21527,47412,12466
21552,47450,12526
21586,47495,12590
21601,47508,12620
21606,47508,12639
21615,47519,12669
21613,47519,12682
21591,47487,12662
21565,47455,12634
21542,47436,12613
21499,47397,12568
21429,47321,12486
21359,47246,12394
21300,47193,12305
21222,47121,12187
21119,47014,12031
21020,46911,11874
20931,46825,11728
20823,46721,11558
20693,46592,11357
20569,46476,11163
20457,46381,10984
20328,46269,10782
20183,46134,10557
20054,46021,10355
19942,45932,10174
19818,45820,9963
19686,45686,9732
19578,45576,9532
19483,45484,9356
19372,45369,9160
19259,45246,8964
19168,45158,8807
19084,45084,8669
18984,44987,8510
18889,44891,8353
18824,44838,8236
18771,44799,8134
18704,44730,8008
18637,44656,7888
18592,44613,7810
18556,44582,7740
18505,44527,7639
18446,44463,7530
18398,44413,7444
18352,44363,7357
18298,44296,7250
18247,44231,7150
18209,44186,7075
18165,44135,6994
18110,44063,6890
18066,44008,6798
18038,43985,6735
18002,43955,6668
17947,43899,6584
17901,43854,6517
17876,43835,6479
17842,43805,6431
17786,43751,6361
17737,43709,6304
17706,43690,6266
17665,43660,6213
17611,43608,6141
17569,43570,6080
17539,43548,6031
17492,43506,5958
17432,43444,5864
17389,43402,5792
17359,43376,5740
17313,43326,5669
17259,43260,5593
17238,43236,5564
17245,43247,5579
17253,43256,5607
17283,43289,5676
17373,43396,5842
17516,43555,6094
17692,43736,6405
17926,43972,6817
18239,44299,7371
18603,44685,8030
18989,45083,8739
19410,45508,9505
19879,45983,10332
20352,46465,11158
20792,46906,11933
21214,47326,12679
21629,47746,13409
22003,48124,14072
22315,48431,14625
22589,48698,15100
22832,48947,15516
23016,49140,15837
23133,49261,16054
23217,49351,16212
23285,49433,16333
23313,49471,16385
23293,49452,16362
23255,49419,16311
23208,49382,16243
23126,49305,16118
23011,49184,15934
22897,49065,15740
22788,48956,15547
22661,48821,15320
22522,48665,15065
22399,48531,14829
22285,48418,14611
22154,48290,14371
22021,48157,14127
21909,48049,13914
21804,47946,13713
21679,47811,13481
21548,47660,13239
21429,47531,13025
21310,47409,12814
21165,47262,12567
21009,47104,12304
20866,46966,12064
20726,46831,11825
20567,46667,11554
20401,46494,11276
20254,46352,11030
20122,46226,10804
19987,46086,10570
19861,45953,10353
19764,45854,10180
19679,45772,10033
19594,45686,9894
19530,45623,9790
19498,45600,9737
19474,45584,9704
19447,45557,9674
19445,45553,9680
19473,45590,9738
19494,45626,9803
19499,45640,9855
19519,45668,9928
19565,45724,10031
19608,45771,10120
19640,45798,10182
19678,45841,10251
19727,45904,10332
19759,45947,10387
19771,45960,10409
19789,45981,10435
19812,46013,10460
19813,46013,10444
19789,45981,10393
19765,45954,10345
19738,45931,10294
19682,45871,10203
19601,45785,10078
19528,45718,9963
19457,45659,9852
19358,45562,9703
19243,45442,9526
19144,45347,9367
19051,45263,9215
18938,45151,9036
18827,45034,8852
18743,44951,8700
18660,44874,8553
18552,44766,8376
18444,44658,8199
18359,44584,8052
18274,44508,7898
18169,44393,7709
18070,44278,7529
17995,44199,7391
17919,44121,7257
17826,44017,7101
17749,43927,6965
17698,43874,6867
17640,43815,6765
17560,43729,6638
17486,43659,6529
17434,43624,6452
17374,43582,6367
17300,43518,6261
17241,43471,6176
17200,43447,6122
17148,43406,6054
17082,43339,5964
17033,43284,5891
16998,43248,5841
16946,43189,5768
16883,43110,5669
16841,43053,5591
16807,43011,5528
16751,42940,5434
16683,42856,5326
16631,42801,5250
16578,42758,5186
16503,42689,5091
16426,42613,4984
16371,42570,4909
16323,42539,4842
16259,42481,4744
16198,42416,4643
16163,42384,4583
16143,42372,4548
16121,42351,4510
16112,42347,4504
16146,42400,4580
16224,42500,4732
16336,42626,4942
16500,42804,5239
16734,43062,5653
17026,43379,6168
17365,43731,6766
17761,44140,7462
18213,44611,8247
18685,45095,9061
19153,45558,9861
19624,46021,10661
20091,46491,11452
20515,46924,12182
20884,47297,12827
21224,47643,13420
21540,47971,13960
21802,48238,14405
21998,48429,14739
22156,48581,14996
22279,48703,15186
22343,48763,15283
22358,48769,15298
22359,48765,15277
22341,48751,15224
22277,48685,15103
22175,48574,14930
22071,48472,14762
21970,48380,14596
21840,48257,14387
21695,48114,14150
21563,47991,13928
21428,47866,13698
21267,47702,13426
21104,47524,13145
20961,47371,12893
20819,47227,12642
20656,47057,12354
20488,46875,12053
20333,46713,11775
20182,46556,11500
20013,46372,11193
19843,46186,10884
19690,46036,10605
19539,45891,10329
19373,45718,10030
19210,45543,9746
19067,45395,9500
18934,45251,9269
18803,45100,9045
18696,44974,8862
18618,44891,8734
18544,44817,8622
18467,44737,8513
18413,44685,8441
18390,44676,8423
18372,44675,8422
18353,44671,8424
18356,44693,8460
18385,44744,8531
18415,44787,8601
18440,44815,8666
18484,44868,8760
18541,44944,8882
18576,44993,8982
18591,45018,9057
18623,45065,9151
18668,45124,9252
18691,45145,9309
18698,45140,9334
18718,45154,9366
18736,45171,9389
18723,45147,9357
18692,45101,9291
18668,45074,9233
18634,45042,9162
18569,44969,9042
18493,44882,8904
18434,44821,8788
18372,44763,8670
18284,44673,8517
18188,44571,8355
18109,44491,8220
18033,44416,8085
17945,44323,7924
17859,44235,7764
17791,44172,7628
17718,44103,7486
17629,44010,7323
17547,43929,7175
17483,43877,7060
17412,43819,6940
17328,43735,6799
17259,43661,6673
17214,43612,6576
17162,43556,6474
17095,43483,6358
17041,43427,6260
17006,43397,6188
16961,43355,6106
16905,43291,6006
16864,43243,5931
16838,43218,5884
16794,43174,5819
16732,43108,5735
16686,43067,5675
16654,43046,5638
16604,43001,5576
16542,42937,5493
16502,42901,5437
16471,42883,5397
16419,42836,5326
16360,42772,5239
16325,42738,5182
16293,42713,5131
16236,42660,5048
16180,42601,4958
16152,42574,4899
16127,42552,4844
16079,42498,4760
16035,42445,4680
16021,42435,4644
16010,42439,4621
15982,42420,4579
15970,42415,4562
16002,42459,4608
16054,42523,4691
16114,42585,4796
16214,42691,4973
16376,42872,5261
16585,43100,5634
16833,43353,6078
17143,43670,6634
17521,44067,7315
17936,44496,8059
18363,44926,8824
18811,45373,9622
19277,45837,10434
19725,46274,11203
20140,46672,11910
20536,47063,12589
20914,47448,13232
21248,47785,13788
21531,48064,14249
21782,48318,14651
21999,48545,14990
22158,48707,15227
22263,48804,15369
22340,48872,15458
22386,48907,15495
22378,48881,15453
22333,48814,15353
22282,48753,15242
22226,48694,15117
22138,48602,14944
22029,48483,14739
21929,48378,14545
21829,48278,14352
21703,48146,14122
21566,47999,13874
21446,47875,13646
21322,47749,13418
21172,47590,13159
21022,47427,12897
20894,47295,12662
20759,47161,12423
20597,46996,12149
20438,46834,11880
20296,46704,11643
20147,46568,11392
19979,46399,11106
19818,46237,10830
19679,46104,10591
19540,45968,10347
19393,45816,10088
19259,45683,9857
19149,45581,9669
19046,45478,9490
18945,45364,9312
18868,45277,9180
18818,45229,9102
18771,45184,9038
18723,45134,8986
18704,45118,8987
18720,45145,9036
18747,45176,9090
18780,45206,9148
18834,45261,9241
18903,45334,9359
18964,45391,9465
19022,45438,9564
19093,45510,9687
19162,45592,9815
19203,45642,9904
19226,45669,9962
19263,45716,10028
19305,45766,10091
19321,45777,10111
19318,45762,10100
19325,45763,10094
19322,45761,10074
19287,45716,10006
19242,45653,9917
19207,45610,9841
19159,45561,9750
19078,45475,9616
18993,45384,9474
18926,45318,9357
18851,45246,9227
18752,45142,9056
18657,45044,8886
18577,44971,8742
18487,44883,8586
18377,44765,8400
18273,44658,8226
18187,44579,8081
18093,44491,7924
17986,44377,7742
17891,44280,7578
17815,44216,7443
17731,44144,7300
17637,44052,7143
17558,43976,7013
17501,43922,6912
17440,43860,6801
17374,43785,6685
17322,43731,6598
17285,43699,6533
17242,43652,6449
17193,43588,6348
17157,43545,6273
17129,43521,6217
17076,43470,6135
17009,43403,6039
16963,43363,5978
16932,43342,5937
16888,43303,5873
16846,43260,5806
16828,43250,5773
16812,43247,5748
16775,43212,5691
16741,43171,5629
16731,43160,5596
16719,43150,5562
16682,43106,5491
16641,43053,5415
16615,43023,5369
16591,42995,5322
16553,42944,5246
16516,42897,5174
16493,42877,5132
16472,42860,5094
16453,42837,5052
16460,42847,5049
16504,42908,5115
16569,42993,5230
16660,43096,5392
16811,43258,5649
17031,43498,6029
17299,43788,6508
17615,44122,7080
18002,44528,7776
18458,45002,8582
18943,45493,9434
19436,45979,10295
19947,46483,11178
20465,47001,12064
20948,47482,12894
21389,47916,13651
21812,48340,14361
22206,48740,15005
22535,49064,15529
22802,49316,15944
23041,49545,16304
23242,49743,16602
23378,49874,16802
23467,49955,16928
23536,50025,17022
23574,50068,17071
23565,50055,17045
23536,50013,16981
23514,49986,16925
23476,49949,16848
23399,49864,16714
23307,49758,16555
23228,49670,16409
23144,49579,16252
23038,49456,16056
22928,49328,15858
22831,49227,15690
22740,49134,15528
22649,49027,15351
22570,48934,15189
22506,48868,15057
22433,48795,14916
22344,48701,14747
22261,48612,14586
22189,48539,14442
22101,48446,14276
21988,48323,14076
21875,48203,13878
21771,48098,13689
21654,47974,13477
21522,47824,13240
21402,47686,13018
21301,47574,12825
21194,47455,12630
21079,47329,12434
20986,47235,12274
20918,47175,12150
20849,47111,12029
20783,47048,11921
20746,47020,11863
20731,47021,11850
20711,47010,11840
20689,46991,11835
20697,47007,11872
20728,47046,11936
20747,47066,11987
20758,47075,12027
20784,47106,12085
20814,47142,12147
20827,47149,12177
20837,47149,12195
20870,47177,12230
20899,47207,12260
20899,47207,12258
20893,47204,12253
20906,47226,12270
20913,47238,12274
20894,47213,12240
20873,47186,12197
20862,47175,12162
20834,47138,12093
20773,47056,11971
20709,46973,11841
20656,46916,11727
20588,46842,11592
20492,46732,11419
20395,46626,11250
20302,46538,11094
20189,46430,10910
20059,46296,10691
19939,46177,10489
19832,46084,10314
19719,45976,10124
19599,45847,9914
19496,45742,9731
19409,45661,9576
19315,45565,9407
19218,45458,9230
19138,45376,9088
19068,45314,8966
18987,45237,8825
18906,45155,8680
18845,45101,8566
18794,45059,8466
18728,44989,8344
18650,44898,8212
18583,44828,8106
18526,44771,8017
18453,44693,7911
18376,44611,7800
18320,44564,7718
18278,44531,7652
18229,44479,7571
18188,44426,7494
18170,44407,7446
18152,44395,7402
18116,44360,7336
18086,44331,7281
18076,44331,7253
18053,44321,7211
18002,44272,7135
17950,44223,7061
17916,44196,7008
17871,44154,6943
17803,44079,6846
17742,44013,6757
17700,43977,6690
17653,43932,6611
17595,43868,6511
17554,43822,6438
17535,43811,6404
17515,43796,6376
17501,43778,6358
17533,43808,6408
17621,43898,6546
17746,44020,6749
17918,44186,7037
18168,44443,7466
18493,44785,8033
18872,45172,8693
19305,45604,9443
19800,46103,10298
20329,46639,11213
20853,47163,12121
21375,47679,13012
21904,48213,13903
22408,48735,14751
22859,49199,15499
23264,49613,16160
23639,50004,16765
23967,50348,17285
24231,50609,17686
24449,50814,18001
24641,51000,18274
24793,51145,18480
24885,51219,18594
24933,51252,18652
24957,51275,18689
24952,51270,18680
24915,51224,18612
24866,51165,18523
24815,51113,18439
24746,51041,18328
24658,50936,18177
24577,50841,18029
24509,50775,17906
24433,50703,17775
24349,50613,17626
24280,50536,17497
24229,50479,17398
24171,50408,17289
24104,50318,17168
24051,50247,17072
24010,50199,16996
23954,50133,16894
23878,50044,16759
23804,49965,16626
23725,49890,16492
23622,49785,16319
23507,49656,16120
23403,49540,15932
23299,49432,15743
23177,49295,15518
23048,49147,15279
22936,49027,15069
22829,48921,14873
22708,48796,14661
22593,48669,14458
22509,48578,14301
22438,48508,14171
22357,48422,14027
22279,48332,13889
22223,48276,13799
22181,48237,13735
22133,48181,13661
22089,48127,13599
22069,48109,13577
22063,48105,13570
22055,48091,13555
22057,48090,13560
22074,48118,13603
22092,48149,13648
22105,48161,13672
22131,48180,13702
22174,48219,13749
22205,48244,13777
22214,48237,13770
22221,48232,13762
22230,48244,13765
22220,48241,13743
22188,48209,13687
22156,48180,13634
22129,48163,13591
22081,48121,13518
22013,48047,13405
21953,47981,13295
21901,47927,13191
21828,47845,13052
21731,47736,12879
21643,47644,12719
21560,47565,12570
21453,47459,12394
21333,47332,12197
21234,47231,12024
21148,47151,11869
21043,47046,11690
20932,46929,11498
20843,46838,11333
20756,46752,11170
20644,46632,10972
20527,46503,10766
20426,46403,10588
20320,46306,10412
20189,46178,10209
20058,46048,10011
19955,45952,9856
19860,45864,9710
19753,45753,9543
19653,45645,9383
19576,45567,9255
19501,45491,9125
19415,45395,8974
19337,45309,8836
19271,45252,8734
19198,45194,8632
19117,45117,8514
19052,45060,8416
19006,45033,8350
18958,45001,8276
18905,44947,8181
18866,44903,8102
18839,44879,8044
18800,44838,7968
18743,44773,7871
18697,44722,7789
18665,44689,7727
18624,44639,7650
18573,44576,7563
18534,44535,7503
18505,44509,7460
18463,44466,7391
18412,44413,7306
18372,44382,7242
18336,44360,7184
18282,44308,7096
18223,44238,6997
18183,44189,6929
18153,44155,6877
18108,44098,6800
18055,44031,6710
18018,43993,6648
17996,43977,6606
17967,43949,6555
17945,43925,6516
17956,43943,6531
18001,43998,6599
18070,44071,6711
18189,44193,6907
18381,44400,7229
18631,44671,7670
18932,44987,8222
19309,45373,8903
19765,45843,9713
20257,46351,10593
20759,46862,11495
21284,47397,12425
21829,47961,13368
22349,48502,14263
22819,48986,15072
23261,49439,15818
23678,49869,16501
24036,50232,17078
24324,50518,17541
24572,50764,17929
24787,50976,18251
24944,51122,18476
25043,51204,18611
25114,51266,18704
25161,51314,18761
25161,51311,18749
25126,51261,18681
25093,51215,18611
25056,51177,18540
24993,51107,18429
24917,51015,18291
24858,50948,18174
24800,50891,18069
24725,50805,17940
24648,50707,17804
24590,50636,17696
24532,50570,17588
24450,50475,17447
24364,50373,17299
24298,50300,17182
24238,50239,17076
24163,50154,16943
24082,50062,16799
24009,49987,16675
23934,49910,16545
23845,49806,16381
23750,49700,16209
23661,49611,16046
23559,49510,15862
23435,49377,15641
23317,49250,15423
23220,49150,15231
23112,49038,15030
22978,48896,14806
22850,48770,14603
22746,48682,14436
22643,48587,14267
22533,48470,14088
22445,48374,13941
22385,48314,13835
22327,48252,13731
22270,48182,13626
22236,48141,13565
22221,48133,13545
22203,48121,13521
22185,48099,13497
22188,48102,13513
22206,48125,13558
22218,48135,13584
22228,48137,13599
22257,48164,13636
22289,48199,13680
22300,48202,13700
22304,48190,13708
22321,48198,13731
22337,48213,13751
22325,48194,13725
22290,48151,13668
22258,48125,13618
22223,48103,13563
22165,48049,13464
22090,47975,13340
22024,47916,13223
21951,47853,13097
21853,47755,12935
21749,47648,12761
21659,47562,12601
21563,47471,12430
21452,47349,12231
21349,47229,12040
21262,47137,11876
21162,47035,11698
21036,46901,11485
20921,46777,11274
20827,46685,11089
20722,46582,10899
20597,46451,10691
20487,46335,10500
20399,46245,10339
20304,46140,10169
20192,46013,9979
20094,45907,9806
20014,45830,9658
19924,45743,9500
19819,45638,9329
19724,45549,9181
19640,45476,9054
19538,45380,8908
19423,45264,8746
19334,45179,8613
19267,45121,8509
19185,45043,8392
19094,44948,8260
19025,44880,8151
18970,44831,8060
18902,44761,7947
18830,44681,7827
18782,44633,7740
18742,44598,7669
18683,44540,7573
18627,44483,7473
18599,44460,7407
18574,44444,7351
18526,44399,7276
18478,44354,7209
18452,44337,7176
18423,44317,7141
18372,44269,7075
18327,44224,7010
18308,44206,6971
18281,44177,6924
18227,44116,6847
18178,44061,6776
18148,44034,6729
18106,43997,6671
18042,43936,6586
17989,43888,6511
17960,43868,6459
17924,43834,6391
17871,43775,6297
17828,43731,6219
17799,43711,6164
17754,43675,6093
17691,43618,6004
17642,43580,5941
17612,43567,5911
17580,43544,5875
17556,43518,5849
17577,43542,5894
17647,43622,6019
17747,43725,6194
17894,43871,6446
18125,44110,6839
18434,44433,7372
18793,44803,8008
19214,45227,8752
19707,45727,9612
20239,46267,10539
20770,46798,11464
21298,47328,12382
21830,47883,13301
22338,48422,14180
22789,48889,14966
23190,49295,15655
23562,49675,16271
23886,50004,16796
24143,50255,17208
24352,50456,17535
24529,50632,17801
24655,50759,17985
24723,50817,18074
24766,50846,18110
24796,50871,18123
24786,50855,18085
24728,50782,17985
24659,50700,17864
24592,50633,17747
24503,50543,17599
24390,50418,17414
24287,50299,17237
24198,50200,17077
24095,50087,16899
23981,49958,16702
23886,49856,16530
23810,49779,16385
23720,49682,16225
23619,49564,16044
23529,49462,15884
23448,49377,15739
23350,49270,15566
23239,49144,15372
23134,49036,15195
23027,48935,15021
22899,48806,14811
22765,48664,14579
22642,48541,14360
22522,48425,14145
22388,48282,13903
22247,48126,13651
22121,47995,13427
22007,47882,13223
21883,47753,13011
21758,47623,12809
21658,47528,12651
21576,47455,12522
21491,47371,12391
21413,47292,12275
21359,47243,12196
21312,47200,12133
21261,47143,12067
21227,47105,12024
21219,47104,12019
21210,47101,12020
21185,47072,12006
21178,47056,12010
21201,47074,12046
21221,47087,12074
21225,47078,12079
21237,47083,12097
21262,47115,12136
21269,47133,12153
21252,47121,12129
21238,47114,12103
21231,47117,12085
21200,47091,12034
21143,47035,11943
21089,46987,11856
21044,46948,11778
20976,46878,11664
20887,46779,11515
20807,46697,11378
20732,46627,11245
20639,46527,11073
20533,46409,10879
20442,46315,10711
20353,46231,10551
20241,46115,10359
20123,45989,10155
20026,45892,9980
19930,45801,9810
19813,45684,9608
19695,45564,9405
19598,45476,9241
19501,45393,9084
19382,45280,8898
19264,45160,8715
19165,45068,8570
19071,44981,8427
18964,44869,8259
18866,44763,8101
18793,44691,7979
18724,44621,7858
18642,44528,7713
18567,44446,7578
18507,44393,7471
18440,44334,7353
18359,44251,7208
18288,44180,7079
18233,44132,6979
18170,44072,6873
18095,43991,6746
18033,43929,6636
17986,43897,6558
17929,43855,6477
17864,43793,6385
17813,43749,6317
17773,43723,6269
17723,43678,6199
17664,43612,6108
17619,43561,6038
17581,43524,5986
17536,43473,5922
17493,43418,5853
17466,43387,5810
17444,43371,5779
17405,43336,5721
17359,43288,5648
17334,43264,5602
17321,43254,5569
17291,43223,5511
17249,43176,5437
17217,43149,5388
17192,43129,5353
17154,43084,5297
17113,43028,5231
17087,42997,5186
17062,42975,5143
17017,42927,5074
16972,42875,4999
16943,42846,4943
16906,42812,4880
16846,42754,4791
16793,42705,4712
16768,42690,4670
16744,42676,4635
16711,42648,4593
16706,42651,4593
16752,42712,4667
16824,42800,4783
16921,42903,4941
17077,43064,5195
17305,43301,5569
17579,43586,6038
17893,43911,6596
18277,44315,7280
18730,44795,8084
19213,45295,8944
19702,45792,9821
20212,46312,10724
20734,46844,11632
21225,47334,12481
21672,47772,13248
22093,48192,13959
22476,48583,14605
22788,48901,15138
23040,49150,15559
23267,49378,15919
23464,49577,16218
23599,49702,16417
23683,49769,16533
23745,49825,16616
23780,49860,16654
23768,49841,16617
23729,49794,16533
23688,49758,16440
23627,49708,16321
23528,49613,16149
23423,49507,15964
23335,49429,15798
23238,49338,15616
23113,49201,15393
22993,49059,15169
22893,48948,14974
22790,48832,14771
22665,48688,14537
22546,48553,14311
22449,48450,14120
22341,48336,13921
22208,48190,13687
22080,48052,13453
21965,47933,13236
21831,47794,12998
21677,47624,12729
21532,47466,12470
21398,47336,12235
21252,47195,11991
21095,47039,11734
20961,46905,11512
20854,46801,11332
20740,46686,11147
20621,46560,10958
20534,46470,10812
20477,46416,10707
20417,46354,10604
20365,46290,10510
20352,46270,10474
20361,46283,10486
20359,46286,10497
20366,46292,10518
20411,46339,10585
20469,46399,10669
20506,46428,10730
20541,46452,10791
20596,46509,10886
20645,46569,10981
20664,46594,11033
20679,46609,11071
20711,46650,11129
20734,46681,11171
20724,46667,11159
20707,46638,11129
20703,46628,11111
20687,46605,11071
20640,46542,10982
20584,46477,10883
20528,46429,10799
20456,46365,10692
20367,46272,10545
20286,46186,10402
20219,46124,10280
20141,46049,10142
20050,45950,9974
19968,45860,9813
19897,45790,9668
19810,45705,9503
19702,45594,9312
19598,45495,9137
19502,45417,8983
19396,45324,8815
19283,45214,8634
19184,45122,8478
19097,45049,8342
18996,44955,8185
18886,44844,8014
18797,44754,7871
18726,44684,7749
18643,44591,7602
18552,44486,7437
18485,44413,7303
18434,44360,7191
18366,44284,7061
18292,44202,6929
18240,44152,6836
18193,44109,6764
18124,44036,6671
18059,43961,6579
18021,43924,6522
17987,43898,6470
17934,43847,6385
17885,43797,6298
17858,43780,6243
17825,43761,6187
17768,43708,6098
17713,43650,6011
17680,43618,5953
17646,43585,5894
17596,43528,5816
17555,43482,5755
17533,43466,5730
17509,43446,5699
17476,43406,5643
17456,43378,5595
17452,43374,5569
17440,43357,5527
17413,43313,5460
17389,43278,5405
17370,43264,5366
17333,43229,5306
17277,43170,5223
17231,43125,5155
17199,43099,5106
17162,43058,5044
17120,43004,4975
17094,42974,4935
17085,42968,4916
17077,42958,4893
17079,42958,4891
17122,43010,4966
17209,43119,5120
17325,43254,5331
17485,43428,5624
17721,43683,6046
18029,44013,6592
18386,44383,7226
18793,44796,7946
19261,45276,8764
19764,45791,9636
20261,46288,10501
20747,46773,11351
21234,47271,12199
21696,47750,13002
22103,48167,13714
22473,48538,14350
22820,48886,14925
23109,49175,15398
23325,49383,15750
23500,49549,16026
23653,49699,16255
23759,49800,16407
23806,49835,16465
23829,49847,16473
23840,49861,16459
23816,49837,16392
23753,49767,16266
23683,49693,16128
23617,49623,15992
23529,49523,15823
23420,49391,15619
23316,49271,15425
23220,49174,15247
23111,49060,15046
22989,48924,14819
22881,48802,14608
22779,48692,14410
22658,48556,14182
22523,48403,13934
22394,48270,13705
22264,48146,13483
22115,47992,13231
21960,47822,12964
21821,47675,12717
21689,47544,12477
21541,47390,12207
21386,47223,11926
21248,47084,11672
21119,46965,11439
20981,46829,11197
20846,46689,10963
20734,46580,10772
20637,46489,10611
20538,46390,10453
20454,46303,10321
20402,46253,10239
20367,46217,10183
20332,46174,10129
20316,46152,10103
20329,46169,10123
20341,46187,10153
20338,46183,10171
20351,46194,10209
20394,46237,10284
20436,46273,10356
20461,46286,10408
20498,46313,10474
20553,46369,10561
20591,46405,10625
20604,46403,10650
20623,46405,10674
20645,46420,10700
20638,46403,10685
20599,46353,10624
20561,46315,10560
20524,46292,10499
20464,46241,10400
20384,46167,10268
20312,46110,10150
20245,46063,10040
20160,45985,9894
20067,45889,9726
19991,45816,9583
19917,45750,9449
19822,45652,9284
19721,45540,9105
19635,45452,8954
19550,45369,8811
19444,45256,8637
19328,45129,8447
19227,45027,8279
19136,44941,8122
19035,44836,7948
18934,44727,7775
18852,44647,7631
18776,44570,7489
18684,44467,7325
18597,44366,7169
18533,44297,7044
18466,44229,6920
18378,44139,6778
18301,44059,6657
18249,44010,6575
18192,43955,6489
18120,43875,6380
18063,43812,6286
18032,43785,6220
17988,43753,6144
17926,43696,6045
17876,43652,5961
17844,43632,5901
17804,43600,5832
17755,43545,5746
17725,43507,5679
17712,43491,5631
17685,43458,5563
17644,43403,5479
17622,43372,5428
17615,43366,5406
17589,43338,5363
17548,43290,5298
17525,43268,5259
17510,43260,5238
17471,43223,5190
17425,43172,5127
17401,43149,5095
17381,43136,5072
17339,43091,5011
17292,43037,4937
17268,43013,4895
17246,42995,4858
17202,42946,4786
17158,42891,4711
17137,42866,4668
17115,42841,4620
17072,42786,4535
17023,42730,4449
16991,42705,4397
16962,42687,4354
16920,42650,4290
16887,42623,4243
16879,42634,4244
16885,42663,4274
16910,42700,4326
16982,42781,4448
17113,42929,4669
17286,43118,4967
17506,43337,5340
17800,43627,5839
18172,44004,6483
18597,44434,7231
19060,44898,8053
19571,45413,8956
20116,45970,9913
20655,46517,10856
21175,47037,11757
21682,47550,12627
22160,48042,13442
22580,48468,14149
22942,48827,14745
23261,49149,15265
23531,49429,15699
23738,49637,16019
23899,49789,16250
24035,49926,16437
24134,50030,16569
24180,50068,16615
24193,50061,16603
24200,50052,16578
24185,50028,16523
24130,49961,16407
24052,49872,16256
23980,49796,16112
23903,49717,15958
23804,49606,15764
23697,49482,15558
23598,49378,15370
23493,49273,15179
23367,49142,14959
23240,49009,14738
23126,48899,14546
23012,48787,14356
22890,48658,14148
22776,48537,13947
22674,48434,13763
22562,48316,13560
22435,48167,13325
22313,48026,13094
22203,47909,12881
22078,47778,12648
21934,47619,12387
21799,47472,12141
21678,47350,11922
21555,47223,11700
21431,47085,11474
21326,46968,11281
21242,46881,11124
21155,46793,10974
21067,46699,10830
20999,46635,10731
20951,46600,10672
20902,46557,10615
20856,46508,10566
20840,46494,10562
20847,46512,10593
20852,46518,10617
20855,46514,10637
20880,46534,10685
20914,46572,10753
20928,46586,10800
20930,46588,10830
20951,46617,10880
20976,46653,10934
20978,46659,10955
20970,46652,10959
20975,46662,10974
20974,46664,10974
20947,46629,10931
20917,46589,10870
20899,46573,10819
20862,46545,10745
20788,46476,10628
20710,46403,10507
20649,46351,10405
20575,46282,10283
20474,46176,10120
20377,46073,9955
20301,45997,9812
20215,45909,9656
20111,45794,9472
20019,45697,9300
19945,45630,9154
19856,45543,8996
19745,45426,8813
19644,45322,8645
19559,45240,8504
19458,45142,8348
19344,45026,8171
19250,44932,8018
19172,44864,7888
19083,44778,7735
18984,44675,7561
18904,44600,7417
18836,44541,7294
18750,44453,7147
18659,44355,6993
18590,44292,6875
18527,44243,6774
18448,44167,6653
18371,44086,6535
18317,44038,6452
18267,43998,6376
18199,43929,6270
18130,43852,6163
18084,43806,6090
18038,43765,6020
17969,43694,5920
17902,43620,5822
17860,43576,5758
17826,43540,5697
17780,43478,5608
17735,43419,5525
17706,43390,5474
17670,43360,5417
17616,43301,5332
17569,43246,5258
17538,43216,5217
17502,43182,5170
17454,43127,5095
17415,43086,5030
17393,43078,4993
17364,43057,4940
17318,43007,4859
17275,42964,4793
17239,42940,4748
17189,42896,4683
17132,42832,4595
17095,42792,4530
17071,42776,4489
17031,42742,4425
16978,42690,4345
16947,42662,4298
16934,42657,4282
16917,42638,4262
16911,42626,4258
16953,42667,4323
17033,42758,4455
17133,42867,4633
17281,43024,4894
17506,43273,5287
17793,43592,5795
18120,43941,6387
18509,44345,7086
18973,44831,7907
19479,45356,8794
19988,45866,9680
20504,46371,10565
21029,46892,11462
21529,47390,12312
21972,47819,13061
22372,48203,13729
22742,48569,14340
23056,48885,14851
23294,49120,15236
23480,49304,15538
23627,49464,15784
23724,49573,15943
23768,49614,16005
23786,49623,16011
23786,49621,15987
23747,49578,15903
23669,49482,15754
23583,49376,15584
23492,49277,15406
23375,49153,15188
23236,48997,14932
23101,48850,14682
22971,48719,14444
22824,48565,14180
22660,48384,13890
22509,48218,13624
22363,48071,13380
22199,47906,13112
22028,47732,12829
21874,47585,12571
21726,47445,12324
21560,47278,12051
21390,47100,11768
21236,46947,11514
21085,46806,11269
20914,46640,10994
20738,46463,10706
20582,46309,10443
20438,46166,10192
20287,46002,9925
20139,45838,9668
20016,45714,9461
19907,45612,9280
19794,45496,9094
19690,45388,8928
19616,45318,8812
19560,45267,8723
19503,45210,8634
19462,45165,8567
19445,45152,8541
19436,45144,8531
19426,45130,8521
19435,45138,8540
19464,45180,8598
19490,45217,8656
19509,45236,8701
19541,45272,8760
19586,45336,8843
19619,45384,8914
19632,45402,8961
19647,45421,9011
19668,45451,9064
19670,45455,9084
19650,45431,9069
19633,45418,9052
19622,45413,9033
19595,45380,8973
19551,45320,8880
19508,45271,8795
19462,45225,8712
19391,45146,8594
19304,45048,8452
19226,44973,8323
19152,44909,8198
19056,44817,8042
18949,44710,7872
18861,44631,7728
18785,44567,7596
18686,44476,7437
18573,44366,7261
18473,44278,7105
18383,44198,6957
18286,44097,6791
18189,43988,6624
18110,43905,6482
18038,43829,6348
17954,43733,6196
17873,43637,6050
17808,43566,5928
17741,43493,5810
17659,43402,5680
17587,43323,5563
17532,43270,5474
17468,43211,5380
17389,43132,5261
17323,43069,5151
17276,43034,5068
17224,42989,4978
17157,42922,4872
17100,42868,4784
17057,42836,4721
17006,42791,4646
16948,42725,4554
16905,42677,4485
16879,42650,4441
16843,42607,4381
16795,42545,4300
16752,42500,4233
16711,42468,4175
16658,42416,4089
16603,42354,3993
16569,42320,3928
16543,42300,3882
16502,42258,3815
16459,42207,3745
16435,42182,3706
16410,42167,3674
16363,42125,3613
16311,42074,3544
16277,42050,3504
16245,42035,3466
16197,41992,3396
16147,41941,3321
16118,41916,3277
16097,41899,3237
16061,41855,3167
16023,41809,3096
16004,41795,3060
16000,41793,3039
16001,41784,3022
16025,41800,3046
16085,41866,3140
16171,41963,3284
16285,42080,3473
16455,42254,3755
16691,42505,4156
16969,42802,4648
17284,43132,5219
17664,43528,5899
18108,43994,6687
18581,44483,7524
19062,44970,8377
19560,45474,9245
20064,45986,10108
20538,46461,10913
20966,46886,11645
21364,47289,12323
21725,47663,12932
22020,47963,13426
22251,48187,13810
22442,48374,14124
22590,48523,14367
22668,48599,14504
22691,48614,14549
22700,48620,14556
22691,48614,14521
22635,48547,14411
22549,48439,14247
22469,48341,14074
22379,48242,13884
22253,48104,13649
22116,47952,13393
21990,47821,13151
21852,47684,12900
21682,47510,12605
21511,47334,12308
21363,47193,12049
21213,47053,11790
21041,46880,11497
20870,46705,11206
20716,46553,10940
20556,46389,10661
20377,46195,10347
20205,46012,10043
20048,45859,9771
19883,45697,9492
19709,45508,9190
19549,45333,8907
19408,45191,8663
19265,45049,8418
19118,44894,8165
18992,44764,7944
18893,44670,7767
18797,44578,7597
18704,44483,7436
18638,44421,7321
18600,44392,7253
18566,44361,7197
18532,44330,7158
18519,44336,7172
18530,44378,7227
18544,44411,7277
18564,44435,7329
18610,44486,7417
18672,44555,7530
18721,44602,7625
18765,44639,7710
18828,44706,7820
18896,44788,7942
18941,44840,8033
18970,44868,8099
19009,44910,8176
19051,44956,8251
19072,44968,8285
19075,44955,8287
19083,44949,8287
19082,44936,8268
19056,44889,8207
19019,44834,8128
18986,44797,8059
18937,44751,7973
18861,44675,7847
18786,44600,7717
18725,44548,7606
18651,44483,7482
18555,44387,7332
18468,44298,7192
18402,44235,7076
18328,44160,6946
18234,44055,6781
18147,43960,6623
18076,43892,6490
17993,43810,6343
17895,43706,6175
17812,43617,6026
17745,43552,5903
17663,43470,5767
17568,43368,5612
17490,43286,5480
17426,43226,5371
17346,43144,5240
17253,43039,5092
17182,42963,4978
17130,42916,4893
17063,42849,4788
16988,42770,4669
16940,42727,4581
16906,42706,4515
16853,42660,4432
16796,42605,4343
16759,42577,4290
16724,42555,4250
16666,42499,4180
16611,42439,4104
16585,42413,4059
16560,42391,4016
16510,42338,3942
16463,42287,3869
16442,42269,3825
16415,42246,3775
16361,42187,3687
16307,42127,3601
16273,42096,3547
16231,42061,3485
16171,41998,3397
16123,41948,3323
16100,41932,3284
16075,41912,3240
16042,41875,3180
16032,41862,3148
16055,41891,3166
16089,41926,3200
16130,41959,3249
16214,42037,3372
16346,42176,3587
16503,42344,3860
16689,42541,4198
16939,42808,4653
17257,43151,5222
17617,43525,5861
18013,43926,6564
18459,44381,7356
18934,44869,8197
19396,45331,9013
19840,45771,9797
20286,46220,10572
20712,46656,11308
21089,47033,11953
21427,47363,12517
21742,47679,13028
22009,47951,13457
22200,48136,13764
22339,48261,13978
22452,48366,14144
22519,48430,14240
22519,48422,14235
22485,48379,14172
22444,48339,14097
22376,48270,13978
22264,48142,13784
22135,47991,13557
22015,47856,13335
21885,47710,13090
21729,47532,12799
21571,47357,12505
21422,47214,12238
21262,47067,11964
21083,46894,11661
20915,46725,11364
20766,46578,11091
20606,46416,10802
20427,46228,10481
20256,46052,10173
20095,45897,9889
19919,45723,9587
19726,45527,9269
19542,45349,8977
19373,45195,8710
19199,45027,8426
19025,44843,8131
18878,44688,7871
18751,44562,7644
18619,44425,7411
18492,44289,7189
18397,44192,7028
18329,44126,6912
18265,44055,6801
18214,43995,6709
18198,43978,6674
18203,43987,6676
18204,43987,6676
18208,43990,6685
18240,44030,6739
18290,44092,6818
18330,44136,6880
18365,44170,6940
18415,44230,7033
18469,44297,7139
18507,44339,7224
18540,44374,7309
18586,44430,7412
18624,44478,7500
18638,44492,7549
18652,44506,7590
18678,44539,7642
18684,44553,7664
18655,44523,7632
18623,44491,7590
18603,44478,7556
18567,44444,7496
18507,44376,7395
18453,44316,7292
18410,44275,7201
18351,44213,7082
18269,44120,6929
18191,44038,6789
18122,43973,6667
18038,43885,6518
17940,43773,6338
17857,43680,6174
17784,43603,6034
17692,43504,5874
17586,43389,5701
17495,43297,5561
17417,43224,5447
17328,43136,5315
17244,43048,5175
17185,42992,5066
17134,42946,4970
17065,42867,4846
16991,42774,4715
16935,42709,4618
16880,42657,4530
16807,42581,4418
16730,42498,4304
16673,42447,4224
16624,42410,4152
16561,42351,4055
16498,42290,3960
16458,42263,3903
16428,42245,3854
16385,42203,3780
16342,42157,3707
16311,42132,3663
16279,42103,3617
16237,42054,3550
16203,42012,3495
16184,41997,3471
16162,41975,3439
16128,41927,3379
16103,41888,3324
16088,41875,3289
16059,41848,3238
16012,41796,3162
15972,41754,3100
15944,41733,3061
15904,41698,3009
15852,41638,2937
15812,41594,2885
15787,41575,2854
15754,41544,2805
15711,41497,2736
15676,41466,2686
15650,41452,2649
15617,41426,2597
15583,41395,2541
15568,41392,2520
15573,41411,2528
15582,41421,2536
15605,41440,2567
15676,41517,2673
15792,41650,2860
15933,41806,3102
16113,41998,3425
16363,42269,3871
16681,42609,4440
17044,42985,5103
17459,43407,5865
17940,43903,6735
18457,44435,7662
18969,44948,8575
19474,45451,9465
19976,45962,10337
20441,46442,11141
20840,46852,11842
21197,47218,12463
21526,47558,13018
21794,47837,13472
21988,48030,13806
22144,48183,14063
22281,48322,14269
22371,48408,14391
22402,48428,14420
22410,48424,14406
22404,48412,14366
22360,48360,14265
22276,48261,14101
22183,48157,13919
22082,48057,13735
21953,47926,13512
21803,47766,13250
21664,47626,13000
21538,47505,12767
21392,47358,12506
21232,47189,12227
21094,47046,11978
20969,46922,11750
20831,46774,11500
20690,46617,11239
20567,46487,11010
20445,46369,10794
20301,46223,10545
20156,46067,10283
20031,45940,10053
19908,45817,9829
19766,45663,9573
19623,45502,9312
19499,45369,9083
19378,45245,8867
19239,45099,8632
19102,44954,8407
18994,44846,8225
18902,44755,8063
18808,44655,7897
18727,44569,7760
18674,44525,7678
18635,44496,7620
18598,44459,7564
18576,44440,7539
18577,44455,7559
18579,44475,7590
18579,44483,7615
18600,44509,7661
18645,44562,7743
18684,44606,7824
18713,44627,7884
18756,44665,7956
18818,44732,8051
18869,44785,8132
18902,44811,8188
18937,44840,8249
18974,44880,8312
18988,44895,8339
18979,44881,8330
18969,44874,8320
18960,44874,8306
18927,44844,8253
18876,44792,8168
18836,44756,8090
18801,44732,8013
18739,44676,7900
18657,44591,7761
18585,44517,7634
18518,44449,7514
18432,44350,7365
18335,44236,7198
18254,44148,7052
18179,44074,6915
18085,43977,6752
17992,43875,6587
17924,43804,6453
17855,43732,6317
17760,43627,6150
17668,43523,5988
17600,43451,5861
17527,43376,5729
17429,43272,5566
17334,43174,5416
17259,43107,5306
17179,43039,5189
17085,42951,5049
17005,42877,4931
16948,42834,4851
16888,42788,4769
16820,42723,4671
16769,42672,4593
16738,42648,4541
16700,42612,4473
16651,42554,4381
16614,42513,4305
16594,42494,4256
16565,42459,4195
16521,42403,4123
16487,42363,4075
