green_channel,red_channel,ir_channel
17921,41854,24262
17943,41872,24294
17958,41884,24314
17968,41890,24324
17973,41890,24328
17970,41888,24325
17960,41879,24315
17941,41863,24294
17915,41840,24264
17883,41812,24226
17847,41781,24181
17808,41746,24132
17764,41704,24075
17716,41659,24010
17667,41612,23938
17616,41563,23859
17562,41511,23776
17505,41456,23692
17445,41397,23604
17384,41337,23513
17322,41274,23422
17259,41211,23337
17198,41150,23256
17138,41090,23175
17079,41030,23092
17022,40971,23009
16966,40915,22926
16909,40865,22844
16852,40820,22766
16798,40779,22690
16746,40737,22617
16695,40692,22545
16644,40648,22472
16594,40605,22400
16543,40560,22327
16489,40511,22253
16435,40460,22178
16386,40416,22107
16339,40377,22040
16293,40340,21977
16247,40303,21917
16204,40269,21862
16165,40235,21811
16132,40202,21765
16103,40169,21722
16077,40138,21679
16052,40110,21635
16027,40084,21591
16004,40060,21546
15979,40037,21500
15953,40015,21454
15927,39993,21410
15899,39971,21370
15870,39947,21331
15841,39922,21291
15810,39898,21250
15777,39874,21209
15745,39849,21169
15714,39822,21127
15685,39792,21084
15656,39760,21041
15624,39726,20996
15590,39692,20951
15556,39656,20907
15521,39621,20862
15487,39587,20815
15453,39557,20769
15422,39530,20724
15394,39506,20683
15365,39483,20643
15333,39458,20603
15299,39430,20564
15267,39402,20529
15235,39375,20496
15205,39353,20463
15178,39335,20431
15154,39317,20398
15132,39298,20365
15109,39281,20332
15085,39264,20298
15059,39246,20263
15033,39224,20228
15006,39201,20192
14982,39179,20157
14961,39159,20123
14941,39141,20085
14919,39122,20043
14894,39099,19997
14869,39072,19949
14841,39041,19900
14811,39006,19851
14779,38973,19806
14747,38941,19763
14719,38913,19720
14694,38887,19678
14670,38861,19639
14647,38835,19601
14621,38811,19562
14593,38789,19523
14562,38767,19484
14531,38747,19447
14501,38725,19410
14472,38701,19372
14441,38675,19331
14405,38647,19287
14367,38615,19239
14328,38582,19188
14292,38547,19134
14257,38509,19080
14220,38469,19024
14182,38428,18966
14143,38389,18907
14102,38349,18850
14061,38307,18794
14021,38266,18736
13982,38228,18678
13944,38189,18620
13907,38151,18565
13872,38115,18514
13840,38084,18466
13810,38058,18421
13781,38034,18383
13755,38012,18348
13729,37989,18312
13702,37965,18275
13676,37936,18234
13648,37905,18192
13618,37875,18152
13585,37847,18114
13549,37819,18074
13509,37786,18031
13464,37751,17983
13415,37713,17928
13364,37671,17866
13312,37625,17802
13260,37575,17738
13208,37522,17672
13156,37470,17607
13106,37421,17545
13058,37371,17484
13011,37322,17421
12966,37276,17360
12923,37235,17302
12883,37198,17248
12845,37167,17197
12813,37140,17151
12787,37119,17109
12770,37105,17078
12766,37107,17067
12780,37127,17086
12817,37169,17144
12883,37237,17245
12982,37336,17394
13116,37470,17595
13289,37641,17847
13497,37844,18151
13737,38076,18503
14007,38333,18898
14298,38614,19332
14604,38913,19798
14923,39224,20284
15248,39541,20778
15572,39854,21270
15888,40159,21756
16194,40453,22228
16486,40730,22678
16756,40985,23099
17000,41214,23484
17218,41415,23829
17409,41591,24134
17573,41744,24401
17713,41873,24632
17828,41980,24825
17919,42064,24979
17983,42122,25096
18025,42154,25179
18046,42166,25231
18051,42165,25256
18042,42153,25258
18019,42131,25238
17988,42101,25202
17953,42070,25157
17918,42037,25104
17881,42004,25044
17843,41971,24980
17806,41937,24916
17770,41900,24852
17736,41863,24787
17703,41829,24723
17672,41800,24663
17642,41775,24611
17614,41752,24564
17585,41731,24519
17559,41714,24478
17538,41703,24440
17519,41695,24407
17503,41688,24376
17486,41676,24345
17467,41660,24310
17442,41637,24269
17412,41606,24220
17375,41567,24163
17334,41520,24098
17288,41467,24026
17239,41411,23948
17188,41352,23866
17131,41290,23779
17069,41227,23688
17008,41167,23596
16951,41111,23506
16898,41058,23419
16849,41009,23336
16802,40964,23259
16759,40925,23187
16723,40890,23122
16695,40862,23066
16674,40841,23023
16660,40828,22993
16652,40822,22975
16651,40822,22969
16658,40827,22976
16672,40835,22992
16690,40848,23016
16710,40867,23045
16734,40891,23078
16759,40916,23113
16785,40941,23149
16809,40962,23187
16831,40979,23225
16851,40994,23259
16870,41008,23289
16886,41020,23314
16898,41029,23335
16903,41032,23346
16903,41028,23347
16897,41022,23341
16884,41014,23331
16864,41002,23314
16837,40981,23286
16804,40954,23250
16766,40924,23205
16721,40891,23151
16673,40853,23089
16624,40812,23022
16574,40769,22952
16523,40723,22879
16471,40678,22803
16419,40632,22728
16368,40584,22653
16318,40537,22580
16270,40489,22506
16223,40443,22433
16177,40397,22362
16130,40352,22291
16082,40307,22221
16035,40263,22152
15989,40219,22083
15941,40173,22007
15891,40126,21924
15844,40079,21837
15800,40031,21751
15758,39983,21669
15716,39938,21593
15674,39893,21520
15629,39843,21447
15576,39791,21372
15519,39739,21296
15461,39688,21222
15406,39640,21150
15352,39595,21078
15299,39553,21005
15247,39511,20936
15198,39469,20870
15149,39426,20806
15103,39385,20746
15064,39349,20693
15033,39319,20644
15007,39295,20598
14984,39275,20555
14965,39259,20516
14950,39245,20480
14934,39229,20446
14916,39211,20414
14895,39191,20382
14874,39169,20347
14854,39147,20313
14836,39126,20282
14818,39106,20254
14800,39088,20227
14783,39070,20196
14766,39051,20163
14747,39032,20130
14725,39013,20098
14703,38997,20069
14682,38984,20042
14661,38969,20012
14637,38953,19981
14612,38936,19952
14588,38920,19924
14567,38905,19895
14548,38891,19865
14529,38875,19834
14513,38858,19807
14500,38843,19781
14486,38829,19752
14473,38813,19721
14458,38795,19689
14439,38776,19656
14415,38753,19624
14387,38728,19592
14358,38702,19559
14331,38675,19526
14307,38648,19493
14283,38626,19461
14261,38608,19426
14240,38590,19388
14217,38569,19345
14191,38545,19298
14161,38516,19247
14127,38482,19194
14090,38445,19137
14054,38409,19081
14019,38373,19026
13986,38339,18974
13949,38307,18923
13910,38277,18871
13869,38245,18818
13830,38210,18762
13791,38176,18707
13754,38142,18651
13715,38108,18595
13677,38073,18541
13638,38036,18490
13597,37997,18440
13560,37960,18391
13527,37926,18343
13493,37895,18292
13458,37867,18240
13423,37840,18188
13389,37813,18139
13357,37786,18089
13326,37758,18038
13293,37731,17988
13261,37703,17940
13230,37674,17894
13202,37645,17852
13176,37616,17811
13151,37586,17771
13127,37555,17730
13104,37525,17691
13079,37495,17651
13050,37466,17607
13022,37438,17561
12993,37411,17517
12965,37383,17475
12937,37353,17430
12909,37323,17379
12878,37294,17325
12844,37264,17268
12808,37229,17212
12770,37192,17155
12731,37152,17098
12691,37114,17040
12651,37076,16984
12611,37039,16931
12571,37003,16877
12530,36968,16823
12489,36934,16772
12448,36904,16724
12409,36875,16676
12371,36847,16629
12338,36817,16581
12308,36791,16536
12285,36770,16498
12272,36758,16471
12273,36759,16465
12292,36777,16490
12335,36819,16552
12409,36888,16656
12517,36989,16810
12661,37127,17020
12839,37304,17286
13048,37512,17602
13284,37744,17964
13544,37998,18364
13826,38270,18794
14118,38553,19241
14414,38840,19700
14713,39128,20165
15011,39415,20629
15303,39695,21086
15584,39963,21527
15851,40214,21944
16098,40445,22332
16322,40649,22686
16520,40827,23004
16693,40980,23287
16840,41110,23532
16961,41216,23741
17057,41302,23915
17131,41370,24053
17184,41422,24156
17219,41456,24226
17238,41474,24267
17242,41481,24283
17231,41477,24275
17206,41459,24245
17171,41430,24197
17129,41395,24137
17081,41354,24068
17030,41308,23992
16980,41262,23911
16930,41216,23828
16878,41169,23744
16826,41120,23658
16776,41068,23572
16727,41017,23489
16680,40968,23409
16638,40922,23337
16597,40878,23272
16558,40839,23214
16520,40803,23159
16484,40770,23107
16451,40736,23056
16419,40703,23003
16385,40670,22948
16350,40634,22890
16312,40596,22825
16270,40555,22752
16222,40506,22668
16167,40452,22575
16107,40392,22474
16041,40330,22369
15970,40266,22261
15895,40198,22153
15822,40130,22048
15752,40065,21950
15688,40005,21857
15632,39955,21774
15586,39915,21702
15551,39885,21642
15528,39862,21592
15514,39845,21556
15508,39834,21535
15509,39831,21529
15519,39837,21534
15538,39849,21550
15559,39867,21575
15583,39887,21605
15608,39908,21640
15634,39928,21679
15659,39948,21720
15684,39967,21760
15709,39986,21801
15732,40007,21843
15754,40030,21885
15773,40052,21924
15787,40073,21956
15796,40090,21982
15798,40101,21999
15796,40104,22008
15789,40100,22005
15775,40091,21995
15755,40077,21978
15731,40060,21956
15704,40040,21928
15674,40018,21890
15641,39992,21842
15605,39959,21789
15568,39919,21729
15527,39876,21663
15482,39830,21590
15433,39779,21513
15382,39726,21433
15329,39675,21349
15275,39624,21265
15219,39572,21179
15161,39520,21092
15102,39470,21008
15045,39422,20927
14990,39377,20850
14936,39332,20779
14883,39289,20711
14831,39244,20640
14782,39196,20564
14737,39147,20486
14692,39100,20410
14643,39056,20333
14591,39010,20252
14539,38965,20171
14489,38921,20090
14440,38876,20011
14395,38830,19936
14350,38782,19867
14304,38732,19800
14258,38681,19733
14211,38632,19664
14166,38587,19591
14122,38544,19521
14079,38505,19454
14038,38470,19389
14001,38439,19329
13967,38413,19272
13936,38388,19220
13908,38365,19172
13882,38342,19128
13857,38320,19090
13833,38299,19054
13812,38283,19021
13794,38270,18990
13778,38256,18961
13761,38238,18934
13743,38217,18908
13724,38194,18881
13705,38170,18853
13687,38148,18824
13670,38127,18794
13654,38106,18762
13638,38087,18728
13619,38065,18691
13597,38041,18655
13577,38016,18623
13556,37993,18592
13531,37970,18559
13506,37948,18529
13484,37930,18500
13462,37911,18473
13442,37895,18446
13423,37881,18418
13406,37869,18394
13388,37857,18370
13369,37847,18347
13351,37835,18325
13332,37819,18301
13311,37799,18272
13287,37777,18238
13262,37756,18203
13236,37734,18167
13211,37710,18130
13188,37686,18092
13165,37664,18055
13142,37644,18019
13120,37625,17985
13098,37604,17950
13076,37579,17913
13053,37553,17872
13029,37524,17828
13003,37491,17784
12977,37461,17741
12952,37434,17700
12928,37407,17657
12902,37377,17610
12872,37346,17560
12838,37313,17506
12799,37274,17448
12755,37231,17385
12708,37186,17322
12659,37144,17261
12611,37105,17204
12564,37069,17153
12521,37037,17104
12480,37007,17056
12443,36980,17010
12413,36958,16968
12389,36938,16929
12369,36921,16892
12352,36910,16859
12338,36904,16828
12325,36898,16796
12312,36886,16764
12299,36871,16732
12286,36852,16700
12271,36829,16668
12252,36803,16631
12232,36775,16591
12212,36747,16551
12189,36720,16513
12166,36694,16476
12143,36671,16443
12124,36653,16417
12117,36645,16405
12123,36652,16415
12148,36675,16453
12198,36718,16527
12273,36788,16642
12377,36888,16802
12512,37020,17007
12677,37182,17257
12869,37369,17550
13082,37577,17879
13313,37804,18238
13561,38045,18619
13821,38296,19018
14087,38552,19427
14354,38809,19838
14615,39060,20244
14867,39298,20639
15104,39519,21016
15325,39721,21368
15526,39903,21689
15705,40064,21976
15860,40206,22228
15992,40327,22446
16104,40427,22632
16194,40507,22782
16261,40567,22897
16309,40608,22977
16339,40634,23028
16351,40646,23053
16350,40642,23056
16335,40623,23037
16310,40593,23000
16275,40554,22948
16234,40509,22888
16188,40460,22820
16139,40410,22744
16091,40362,22663
16044,40316,22582
15997,40270,22500
15950,40223,22415
15903,40177,22332
15857,40131,22252
15813,40087,22174
15770,40049,22099
15728,40011,22025
15687,39972,21952
15648,39932,21880
15608,39890,21807
15565,39846,21730
15516,39797,21649
15464,39744,21562
15410,39689,21471
15353,39628,21375
15294,39564,21275
15234,39496,21172
15171,39426,21065
15104,39354,20956
15035,39286,20850
14969,39224,20750
14910,39168,20657
14860,39118,20574
14817,39075,20506
14782,39040,20452
14755,39013,20409
14736,38996,20376
14724,38990,20355
14718,38993,20344
14718,39003,20343
14722,39018,20351
14734,39038,20371
14758,39062,20408
14790,39093,20457
14827,39130,20510
14870,39169,20568
14917,39210,20629
14965,39253,20692
15012,39297,20757
15057,39343,20821
15101,39388,20882
15143,39429,20936
15176,39462,20982
15200,39487,21018
15218,39504,21046
15229,39513,21065
15232,39511,21074
15226,39501,21068
15208,39485,21048
15181,39459,21016
15148,39424,20972
15112,39387,20921
15075,39350,20869
15039,39312,20814
15001,39270,20754
14957,39226,20689
14911,39181,20620
14865,39137,20546
14817,39093,20468
14770,39047,20388
14723,39001,20310
14677,38956,20235
14630,38911,20163
14583,38865,20091
14535,38818,20019
14486,38773,19949
14437,38731,19882
14392,38690,19816
14352,38652,19751
14316,38614,19686
14281,38575,19621
14245,38536,19554
14209,38495,19486
14170,38451,19416
14125,38405,19346
14080,38356,19274
14036,38304,19199
13990,38252,19120
13942,38203,19040
13892,38156,18964
13841,38110,18891
13789,38066,18818
13739,38026,18749
13692,37987,18682
13646,37949,18617
13601,37912,18552
13559,37877,18491
13518,37842,18435
13478,37806,18380
13440,37772,18326
13405,37740,18274
13371,37708,18223
13338,37676,18173
13306,37645,18124
13276,37618,18078
13250,37595,18038
13231,37577,18005
13218,37562,17978
13210,37548,17957
13203,37535,17936
13195,37522,17914
13184,37509,17893
13172,37495,17871
13158,37479,17847
13141,37464,17823
13123,37449,17798
13103,37433,17772
13082,37416,17743
13061,37398,17711
13041,37380,17677
13019,37359,17640
12996,37338,17602
12975,37317,17564
12955,37295,17529
12937,37273,17496
12918,37253,17464
12899,37232,17430
12880,37213,17395
12860,37196,17360
12837,37179,17326
12812,37163,17293
12785,37145,17260
12761,37125,17225
12740,37101,17189
12720,37075,17152
12700,37049,17116
12679,37026,17080
12657,37004,17044
12633,36982,17009
12608,36957,16973
12578,36933,16937
12547,36909,16900
12515,36881,16863
12483,36852,16822
12453,36824,16778
12425,36798,16732
12396,36771,16685
12367,36743,16636
12339,36712,16587
12310,36680,16536
12275,36649,16484
12236,36619,16432
12194,36587,16380
12154,36550,16328
12116,36510,16276
12081,36469,16225
12050,36431,16176
12018,36393,16126
11984,36359,16073
11950,36329,16017
11917,36302,15962
11885,36278,15910
11854,36254,15862
11827,36231,15820
11805,36212,15785
11791,36200,15762
11787,36200,15756
11799,36215,15775
11832,36245,15822
11888,36295,15904
11968,36368,16027
12077,36468,16198
12215,36599,16413
12380,36760,16670
12570,36947,16966
12783,37157,17294
13016,37385,17649
13263,37625,18024
13516,37871,18413
13769,38118,18808
14020,38361,19202
14266,38598,19590
14509,38827,19971
14746,39048,20340
14970,39257,20689
15177,39447,21014
15365,39618,21309
15532,39770,21575
15678,39905,21809
15804,40021,22008
15911,40116,22172
15999,40192,22304
16066,40251,22402
16116,40293,22472
16149,40317,22515
16166,40324,22533
16167,40319,22530
16153,40302,22508
16128,40274,22470
16095,40236,22419
16059,40192,22358
16021,40146,22293
15981,40102,22226
15941,40061,22158
15899,40023,22088
15857,39983,22018
15818,39943,21952
15784,39904,21891
15753,39869,21834
15727,39839,21781
15704,39810,21732
15681,39783,21691
15658,39759,21657
15638,39741,21628
15622,39729,21601
15606,39716,21572
15586,39699,21539
15561,39678,21498
15533,39654,21449
15500,39628,21392
15464,39597,21331
15424,39562,21264
15382,39523,21193
15338,39482,21117
15294,39441,21040
15248,39399,20960
15201,39355,20881
15156,39311,20804
15114,39270,20730
15075,39234,20666
15045,39203,20610
15021,39177,20564
15002,39154,20528
14988,39138,20503
14980,39128,20491
14979,39126,20491
14986,39131,20503
14996,39142,20521
15009,39157,20543
15025,39173,20569
15045,39190,20600
15071,39209,20633
15097,39229,20665
15123,39248,20702
15150,39271,20742
15178,39298,20780
15204,39325,20814
15228,39349,20846
15249,39370,20872
15263,39387,20894
15271,39400,20909
15273,39407,20917
15269,39410,20919
15261,39411,20912
15251,39408,20896
15237,39397,20873
15215,39380,20845
15188,39356,20810
15156,39325,20770
15123,39290,20725
15089,39251,20673
15053,39210,20616
15014,39164,20554
14971,39118,20489
14927,39072,20421
14882,39028,20352
14833,38983,20281
14779,38937,20206
14724,38889,20129
14671,38840,20052
14618,38792,19975
14566,38745,19899
14517,38700,19826
14470,38654,19754
14424,38607,19680
14377,38558,19603
14331,38509,19527
14288,38462,19456
14246,38417,19388
14204,38374,19320
14161,38332,19252
14114,38290,19183
14068,38248,19116
14023,38208,19052
13980,38172,18993
13938,38138,18938
13899,38105,18884
13861,38075,18830
13827,38046,18779
13795,38018,18730
13763,37992,18684
13735,37969,18641
13710,37951,18600
13688,37937,18560
13667,37921,18519
13646,37901,18478
13625,37880,18440
13604,37858,18404
13585,37838,18371
13567,37817,18339
13549,37794,18307
13530,37770,18274
13510,37744,18240
13489,37717,18203
13468,37691,18167
13446,37668,18131
13426,37650,18096
13405,37638,18064
13382,37625,18035
13359,37610,18005
13338,37594,17974
13317,37574,17944
13296,37552,17912
13274,37530,17876
13253,37509,17839
13232,37489,17804
13211,37470,17771
13188,37449,17738
13163,37426,17705
13137,37399,17670
13110,37371,17635
13085,37345,17602
13066,37323,17572
13052,37305,17544
13042,37291,17519
13028,37277,17493
13011,37262,17465
12990,37248,17433
12968,37234,17400
12946,37219,17368
12926,37202,17335
12905,37185,17301
12884,37165,17265
12860,37143,17226
12835,37119,17186
12806,37094,17146
12773,37066,17108
12739,37036,17068
12706,37007,17024
12675,36980,16979
12646,36953,16934
12618,36926,16891
12590,36896,16847
12563,36866,16804
12535,36835,16759
12503,36803,16711
12466,36768,16662
12427,36733,16610
12386,36695,16557
12345,36656,16504
12305,36616,16451
12269,36577,16398
12235,36539,16343
12201,36505,16289
12167,36476,16236
12134,36450,16186
12103,36425,16138
12076,36401,16095
12052,36380,16055
12026,36358,16015
11998,36333,15975
11968,36305,15932
11938,36273,15886
11907,36240,15837
11874,36207,15788
11840,36175,15738
11807,36145,15688
11774,36117,15641
11741,36089,15594
11708,36060,15546
11675,36033,15499
11643,36005,15454
11612,35976,15409
11579,35946,15366
11547,35917,15322
11514,35887,15277
11483,35858,15232
11455,35828,15187
11427,35799,15144
11399,35772,15105
11370,35745,15067
11345,35720,15028
11321,35697,14991
11296,35676,14954
11273,35653,14917
11252,35631,14879
11232,35608,14840
11210,35585,14805
11185,35561,14772
11159,35536,14737
11132,35509,14703
11104,35484,14670
11076,35462,14633
11053,35443,14594
11030,35424,14554
11001,35402,14512
10969,35377,14470
10936,35351,14426
10904,35327,14381
10874,35304,14337
10847,35281,14295
10823,35257,14253
10800,35231,14214
10777,35204,14179
10755,35180,14149
10734,35161,14123
10719,35150,14109
10718,35153,14116
10736,35176,14154
10778,35223,14228
10849,35299,14347
10954,35408,14515
11094,35548,14734
11269,35716,15000
11472,35911,15308
11699,36128,15650
11947,36363,16019
12209,36612,16411
12478,36866,16817
12749,37123,17226
13019,37377,17633
13283,37624,18031
13538,37862,18418
13781,38086,18790
14012,38297,19147
14230,38498,19485
14434,38684,19799
14622,38853,20087
14789,39003,20346
14932,39135,20573
15052,39247,20764
15151,39341,20922
15230,39417,21049
15290,39475,21144
15331,39509,21210
15356,39526,21251
15370,39531,21267
15373,39525,21261
15361,39507,21236
15337,39481,21195
15303,39452,21141
15261,39417,21078
15212,39375,21007
15159,39327,20929
15104,39273,20848
15051,39217,20767
14999,39162,20686
14952,39107,20604
14910,39058,20527
14872,39017,20457
14840,38982,20393
14814,38952,20337
14794,38928,20288
14780,38907,20247
14770,38890,20212
14760,38876,20181
14748,38862,20153
14732,38847,20128
14713,38830,20098
14688,38810,20059
14656,38787,20010
14619,38758,19954
14578,38723,19891
14535,38684,19823
14492,38643,19752
14448,38602,19678
14403,38559,19606
14360,38515,19538
14324,38470,19475
14292,38428,19417
14263,38391,19366
14240,38363,19324
14223,38346,19293
14212,38339,19271
14210,38341,19261
14214,38351,19261
14225,38367,19269
14239,38386,19286
14257,38406,19309
14277,38428,19338
14301,38453,19372
14327,38481,19411
14356,38509,19453
14386,38537,19495
14414,38561,19533
14441,38581,19567
14465,38596,19597
14486,38607,19626
14502,38615,19651
14513,38621,19672
14519,38627,19687
14522,38631,19695
14519,38630,19693
14509,38623,19682
14493,38610,19665
14474,38594,19645
14450,38575,19623
14424,38553,19597
14395,38527,19565
14364,38498,19525
14329,38464,19478
14288,38425,19426
14242,38385,19371
14194,38345,19313
14143,38305,19249
14092,38262,19180
14041,38215,19108
13992,38166,19032
13943,38115,18954
13893,38064,18876
13843,38014,18800
13795,37964,18726
13748,37914,18653
13697,37867,18580
13644,37823,18510
13592,37781,18441
13542,37739,18369
13493,37694,18295
13445,37648,18221
13399,37603,18150
13352,37558,18078
13304,37514,18007
13256,37471,17937
13207,37427,17866
13155,37382,17796
13104,37337,17725
13058,37293,17658
13017,37253,17598
12978,37216,17545
12943,37183,17498
12913,37155,17457
12886,37131,17417
12860,37108,17375
12834,37083,17331
12810,37057,17290
12787,37033,17253
12766,37009,17219
12746,36987,17186
12727,36967,17153
12709,36950,17119
12689,36934,17084
12670,36921,17048
12650,36907,17011
12629,36892,16975
12609,36877,16942
12590,36865,16912
12571,36854,16883
12553,36841,16855
12535,36827,16829
12519,36815,16806
12506,36804,16785
12497,36793,16765
12489,36781,16743
12478,36769,16722
12465,36754,16703
12452,36737,16684
12441,36723,16664
12431,36710,16642
12421,36698,16618
12408,36684,16590
12392,36668,16560
12374,36651,16529
12356,36633,16499
12336,36613,16467
12315,36591,16433
12293,36568,16398
12272,36545,16365
12254,36523,16331
12234,36501,16298
12214,36478,16266
12192,36455,16232
12166,36429,16197
12140,36405,16161
12115,36385,16124
12093,36366,16084
12074,36348,16048
12055,36331,16016
12032,36313,15985
12006,36293,15951
11977,36270,15914
11946,36243,15875
11913,36216,15833
11878,36189,15788
11838,36159,15741
11799,36127,15693
11760,36094,15644
11722,36061,15594
11684,36027,15543
11645,35994,15491
11608,35963,15439
11573,35931,15387
11538,35899,15335
11506,35868,15285
11474,35841,15241
11446,35819,15201
11419,35798,15164
11392,35777,15129
11365,35756,15094
11339,35735,15058
11313,35713,15020
11288,35691,14982
11263,35667,14945
11236,35641,14907
11209,35611,14867
11180,35579,14825
11152,35543,14782
11123,35508,14737
11091,35474,14688
11056,35440,14634
11022,35403,14577
10988,35367,14518
10955,35331,14458
10920,35295,14400
10882,35259,14345
10842,35225,14291
10804,35193,14240
10771,35165,14192
10745,35143,14149
10722,35122,14109
10703,35100,14072
10685,35078,14039
10668,35059,14007
10649,35042,13975
10627,35025,13941
10603,35005,13904
10578,34982,13868
10552,34957,13833
10527,34929,13801
10503,34900,13772
10483,34874,13744
10467,34851,13721
10461,34838,13705
10469,34845,13707
10495,34875,13737
10544,34927,13800
10616,35003,13903
10714,35103,14047
10836,35228,14232
10982,35375,14456
11149,35545,14716
11334,35731,15006
11533,35925,15315
11742,36129,15639
11962,36344,15975
12187,36562,16316
12412,36775,16656
12631,36977,16989
12840,37167,17309
13040,37345,17613
13229,37512,17898
13401,37665,18162
13556,37805,18400
13697,37932,18612
13819,38045,18797
13922,38139,18957
14004,38216,19089
14068,38275,19192
14116,38316,19268
14148,38341,19320
14166,38353,19351
14173,38355,19362
14173,38346,19353
14164,38329,19330
14146,38306,19292
14119,38276,19241
14084,38239,19180
14043,38195,19107
13995,38145,19024
13942,38091,18937
13885,38034,18849
13826,37977,18762
13767,37920,18676
13710,37865,18593
13659,37814,18514
13613,37768,18441
13573,37723,18372
13536,37680,18305
13498,37640,18238
13459,37603,18169
13417,37563,18099
13372,37521,18030
13323,37478,17961
13273,37437,17890
13224,37395,17817
13175,37350,17743
13128,37304,17666
13082,37257,17586
13038,37208,17502
12994,37157,17417
12951,37107,17337
12910,37062,17264
12872,37023,17198
12839,36992,17143
12810,36968,17100
12788,36951,17070
12771,36941,17049
12759,36937,17035
12753,36936,17026
12752,36936,17028
12755,36937,17039
12761,36942,17057
12772,36953,17081
12787,36971,17113
12807,36992,17150
12832,37017,17192
12865,37048,17238
12901,37082,17289
12937,37117,17341
12970,37150,17391
13002,37181,17437
13032,37209,17480
13059,37237,17521
13081,37263,17557
13099,37286,17585
13111,37302,17604
13115,37307,17609
13110,37303,17602
13099,37291,17584
13080,37272,17559
13053,37245,17529
13022,37216,17492
12987,37187,17452
12951,37158,17410
12918,37127,17367
12885,37093,17320
12849,37056,17269
12809,37017,17214
12767,36976,17157
12723,36933,17097
12674,36890,17032
12622,36847,16962
12570,36805,16887
12519,36764,16810
12470,36723,16736
12421,36679,16665
12371,36632,16594
12319,36584,16523
12272,36540,16451
12230,36501,16381
12189,36461,16313
12145,36418,16246
12100,36376,16183
12056,36336,16123
12012,36295,16064
11970,36256,16005
11929,36219,15945
11892,36186,15887
11857,36156,15835
11825,36128,15785
11794,36102,15737
11765,36076,15688
11734,36046,15636
11698,36015,15581
11662,35980,15525
11629,35944,15470
11597,35908,15416
11568,35871,15366
11542,35837,15324
11517,35808,15286
11494,35784,15251
11474,35763,15218
11455,35746,15186
11436,35732,15155
11417,35719,15125
11397,35704,15094
11379,35686,15064
11363,35668,15035
11348,35650,15008
11332,35634,14980
11315,35621,14952
11299,35608,14923
11281,35593,14893
11261,35576,14862
11239,35560,14829
11219,35544,14796
11199,35526,14763
11178,35506,14730
11154,35486,14701
11130,35470,14672
11107,35456,14645
11085,35441,14617
11066,35424,14590
11048,35405,14564
11033,35388,14540
11023,35375,14517
11017,35369,14495
11011,35366,14470
11006,35364,14446
10999,35362,14425
10990,35358,14407
10981,35351,14386
10972,35343,14363
10963,35333,14339
10950,35320,14315
10931,35302,14290
10908,35283,14265
10885,35264,14240
10863,35241,14211
10841,35217,14179
10818,35193,14144
10794,35171,14110
10768,35150,14075
10741,35130,14040
10716,35109,14005
10692,35085,13969
10668,35060,13935
10643,35035,13901
10617,35010,13866
10591,34982,13829
10564,34952,13785
10534,34920,13735
10502,34884,13683
10468,34844,13628
10431,34801,13569
10392,34759,13510
10352,34719,13453
10315,34681,13398
10277,34645,13345
10242,34609,13292
10211,34575,13244
10183,34543,13200
10155,34514,13158
10127,34486,13118
10097,34460,13078
10066,34436,13035
10034,34415,12993
10000,34398,12954
9969,34383,12918
9944,34368,12889
9928,34354,12868
9922,34348,12859
9931,34355,12870
9961,34384,12910
10014,34437,12982
10092,34513,13092
10195,34612,13241
10320,34735,13429
10469,34880,13657
10640,35043,13918
10829,35225,14209
11037,35422,14524
11256,35628,14856
11481,35840,15199
11707,36054,15546
11934,36265,15893
12159,36467,16233
12379,36661,16559
12590,36847,16872
12790,37025,17166
12970,37191,17441
13131,37344,17693
13274,37479,17919
13398,37595,18113
13503,37688,18275
13589,37761,18406
13656,37815,18507
13702,37849,18581
13729,37866,18628
13738,37865,18652
13733,37851,18652
13715,37828,18632
13687,37798,18597
13652,37764,18554
13612,37728,18504
13569,37688,18451
13524,37649,18394
13477,37611,18335
13432,37574,18274
13390,37536,18213
13353,37502,18155
13319,37475,18101
13288,37449,18049
13260,37424,17997
13237,37401,17946
13216,37379,17899
13197,37359,17855
13181,37342,17815
13164,37326,17778
13145,37311,17743
13122,37295,17705
13093,37275,17660
13059,37249,17607
13019,37215,17549
12972,37173,17486
12917,37123,17414
12858,37067,17335
12798,37008,17252
12739,36948,17167
12681,36888,17081
12623,36828,16997
12567,36772,16919
12514,36720,16846
12465,36672,16777
12420,36628,16711
12380,36589,16653
12344,36556,16606
12315,36531,16569
12293,36514,16542
12277,36505,16522
12265,36502,16509
12261,36501,16504
12264,36508,16507
12273,36522,16521
12288,36541,16545
12309,36564,16577
12332,36590,16615
12356,36615,16655
12381,36639,16694
12404,36661,16730
12426,36680,16761
12446,36699,16790
12464,36716,16815
12479,36729,16837
12490,36739,16857
12496,36746,16871
12496,36751,16880
12491,36750,16881
12482,36743,16873
12465,36728,16856
12444,36708,16828
12418,36684,16789
12386,36654,16738
12348,36619,16679
12305,36578,16616
12257,36535,16554
12208,36493,16492
12161,36453,16431
12115,36414,16372
12071,36377,16313
12027,36340,16253
11983,36300,16191
11939,36257,16126
11898,36214,16058
11857,36172,15989
11816,36133,15923
11775,36096,15859
11735,36060,15796
11696,36026,15734
11657,35993,15672
11617,35959,15609
11573,35924,15549
11528,35887,15491
11482,35850,15432
11439,35814,15376
11400,35781,15322
11362,35748,15268
11326,35713,15211
11290,35676,15150
11252,35639,15090
11215,35600,15030
11177,35561,14972
11141,35524,14917
11107,35491,14864
11076,35462,14816
11047,35435,14772
11020,35412,14732
10997,35395,14693
10976,35383,14654
10957,35370,14615
10940,35353,14576
10923,35334,14540
10902,35312,14505
10880,35288,14471
10858,35264,14437
10836,35242,14401
10815,35221,14367
10796,35200,14337
10777,35179,14310
10756,35157,14285
10735,35136,14256
10714,35114,14225
10694,35094,14194
10677,35077,14169
10663,35063,14148
10651,35052,14126
10638,35043,14103
10624,35038,14080
10611,35030,14055
10600,35017,14028
10590,35000,14001
10576,34982,13974
10559,34966,13945
10542,34950,13916
10528,34935,13885
10514,34921,13856
10498,34908,13828
10478,34895,13800
10457,34881,13773
10435,34866,13744
10414,34849,13712
10392,34829,13679
10368,34809,13645
10342,34789,13612
10317,34770,13578
10293,34751,13545
10271,34730,13511
10250,34706,13475
10228,34679,13436
10203,34652,13398
10178,34630,13362
10152,34610,13327
10125,34592,13290
10098,34575,13254
10074,34557,13220
10051,34536,13189
10027,34515,13159
10002,34493,13128
9978,34470,13094
9955,34445,13059
9932,34422,13021
9913,34402,12983
9895,34382,12946
9874,34359,12907
9850,34332,12868
9823,34304,12831
9795,34278,12793
9768,34256,12753
9742,34236,12713
9715,34213,12674
9687,34185,12632
9657,34154,12587
9628,34122,12540
9599,34091,12494
9565,34060,12449
9529,34028,12402
9492,33998,12354
9456,33967,12306
9423,33939,12259
9392,33916,12214
9364,33898,12174
9336,33881,12138
9310,33864,12105
9285,33848,12074
9261,33832,12044
9238,33816,12014
9218,33800,11985
9205,33785,11958
9197,33772,11936
9193,33765,11921
9198,33764,11916
9216,33774,11929
9252,33799,11965
9307,33845,12032
9383,33915,12135
9484,34010,12278
9610,34130,12462
9760,34274,12687
9935,34441,12950
10132,34628,13249
10347,34831,13579
10576,35048,13933
10815,35273,14300
11057,35500,14672
11299,35725,15043
11538,35947,15409
11773,36164,15767
12002,36375,16114
12220,36577,16447
12426,36765,16760
12613,36935,17050
12780,37088,17312
12926,37219,17543
13049,37329,17740
13151,37416,17901
13231,37480,18029
13291,37525,18128
13333,37555,18197
13359,37572,18239
13371,37579,18258
13369,37574,18254
13354,37561,18231
13330,37540,18197
13302,37512,18153
13271,37481,18104
13238,37447,18048
13201,37410,17987
13163,37373,17925
13124,37336,17865
13085,37301,17807
13047,37269,17750
13013,37240,17693
12982,37213,17639
12955,37189,17586
12930,37168,17536
12908,37148,17491
12885,37128,17452
12861,37108,17417
12838,37085,17383
12813,37058,17346
12783,37029,17305
12750,36997,17257
12714,36964,17203
12675,36929,17145
12636,36893,17086
12595,36856,17022
12552,36818,16951
12508,36780,16877
12462,36740,16805
12418,36701,16735
12376,36665,16669
12338,36630,16608
12307,36598,16552
12281,36569,16503
12261,36545,16463
12248,36528,16434
12243,36518,16413
12241,36514,16402
12244,36517,16398
12251,36521,16399
12262,36526,16405
12276,36531,16415
12292,36536,16428
12309,36542,16445
12324,36552,16467
12337,36568,16490
12350,36590,16515
12366,36614,16541
12383,36637,16567
12397,36657,16593
12409,36672,16621
12418,36684,16648
12426,36696,16671
12432,36707,16687
12435,36716,16698
12434,36721,16704
12430,36721,16704
12421,36714,16695
12410,36700,16678
12398,36682,16658
12382,36661,16635
12363,36639,16605
12342,36618,16571
12320,36595,16535
12295,36569,16496
12266,36541,16454
12233,36509,16409
12199,36475,16360
12163,36441,16307
12124,36406,16253
12085,36370,16197
12046,36333,16140
12008,36296,16080
11967,36258,16019
11925,36220,15956
11881,36181,15891
11833,36139,15820
11785,36097,15745
11737,36056,15670
11691,36015,15600
11647,35976,15535
11606,35939,15473
11565,35904,15411
11523,35868,15348
11481,35829,15285
11440,35790,15225
11402,35753,15166
11367,35718,15109
11335,35686,15057
11304,35657,15009
11275,35628,14963
11245,35598,14917
11213,35569,14869
11182,35541,14824
11151,35515,14780
11121,35488,14736
11090,35462,14690
11062,35434,14644
11035,35405,14600
11006,35376,14558
10975,35346,14516
10941,35316,14475
10906,35288,14434
10876,35264,14392
10852,35242,14353
10833,35225,14316
10817,35213,14281
10802,35204,14249
10788,35196,14220
10773,35188,14197
10758,35176,14177
10740,35160,14155
10722,35143,14131
10706,35124,14108
10694,35105,14084
10682,35088,14062
10671,35074,14042
10662,35063,14023
10653,35051,14004
10640,35038,13983
10624,35029,13962
10610,35021,13941
10597,35013,13916
10584,35001,13889
10572,34987,13860
10561,34973,13831
10551,34960,13805
10539,34946,13779
10520,34930,13752
10497,34913,13721
10472,34894,13688
10447,34870,13655
10422,34845,13621
10397,34821,13587
10372,34797,13553
10347,34774,13518
10323,34754,13483
10299,34734,13447
10275,34713,13408
10249,34689,13369
10222,34664,13333
10196,34641,13298
10171,34618,13264
10147,34594,13228
10120,34571,13191
10093,34549,13152
10068,34528,13115
10044,34505,13078
10022,34481,13038
10000,34456,12995
9977,34432,12952
9953,34410,12910
9930,34390,12872
9907,34373,12837
9885,34357,12805
9863,34340,12772
9843,34323,12741
9826,34306,12710
9809,34288,12679
9792,34269,12645
9774,34249,12608
9755,34228,12570
9731,34202,12533
9705,34173,12498
9677,34142,12465
9650,34113,12430
9623,34087,12393
9596,34061,12353
9566,34035,12312
9534,34008,12270
9500,33979,12228
9464,33946,12182
9428,33911,12133
9393,33877,12083
9361,33848,12037
9331,33822,11997
9298,33799,11958
9267,33776,11919
9239,33752,11880
9212,33728,11841
9186,33706,11804
9162,33686,11766
9138,33664,11729
9116,33643,11694
9094,33623,11662
9071,33602,11630
9048,33581,11598
9029,33564,11569
9018,33556,11552
9018,33559,11554
9034,33575,11578
9071,33609,11627
9132,33668,11708
9220,33753,11827
9333,33865,11988
9474,34003,12193
9642,34165,12437
9832,34347,12715
10040,34543,13023
10265,34754,13355
10502,34977,13707
10748,35207,14074
10998,35440,14448
11246,35670,14826
11488,35895,15200
11721,36110,15565
11942,36313,15915
12150,36504,16246
12347,36684,16554
12528,36851,16839
12691,37000,17098
12833,37129,17325
12954,37240,17518
13054,37332,17681
13135,37405,17813
13199,37457,17916
13244,37491,17987
13269,37510,18030
13279,37516,18048
13281,37513,18048
13276,37501,18035
13262,37481,18007
13238,37456,17967
13210,37427,17919
13179,37395,17865
13144,37362,17805
13103,37326,17742
13057,37289,17678
13010,37252,17614
12965,37215,17551
12926,37180,17490
12894,37149,17435
12864,37123,17386
12838,37101,17342
12819,37079,17302
12805,37058,17267
12793,37036,17235
12779,37015,17203
12764,36993,17171
12746,36971,17137
12724,36947,17100
12697,36921,17059
12668,36894,17011
12637,36865,16957
12602,36833,16898
12565,36797,16835
12528,36762,16772
12490,36726,16707
12449,36687,16641
12408,36646,16577
12370,36606,16517
12335,36571,16459
12303,36540,16406
12276,36515,16362
12255,36496,16328
12238,36481,16303
12227,36470,16287
12223,36465,16278
12224,36465,16278
12232,36469,16288
12244,36476,16302
12257,36487,16323
12275,36502,16350
12296,36519,16382
12319,36538,16417
12343,36558,16454
12365,36579,16490
12387,36600,16525
12408,36620,16559
12425,36639,16591
12440,36657,16621
12452,36672,16647
12460,36684,16669
12465,36693,16686
12467,36699,16695
12466,36702,16696
12462,36703,16693
12454,36702,16687
12446,36699,16678
12438,36691,16665
12429,36679,16645
12414,36666,16618
12394,36650,16584
12368,36630,16546
12337,36603,16504
12301,36568,16457
12261,36528,16404
12216,36485,16343
12168,36443,16278
12120,36400,16212
12072,36356,16147
12024,36311,16082
11978,36267,16019
11932,36226,15956
11890,36188,15891
11851,36151,15826
11810,36116,15763
11769,36083,15706
11730,36053,15653
11694,36023,15601
11662,35994,15549
11631,35964,15495
11600,35933,15441
11566,35901,15387
11530,35866,15331
11496,35829,15275
11463,35791,15219
11429,35754,15162
11392,35717,15106
11355,35679,15051
11320,35642,14997
11285,35606,14945
11252,35576,14896
11219,35549,14853
11187,35523,14814
11156,35498,14777
11128,35473,14740
11103,35452,14704
11078,35433,14667
11052,35416,14627
11027,35398,14585
11002,35377,14546
10979,35356,14515
10959,35337,14490
10943,35319,14467
10932,35302,14442
10924,35285,14416
10916,35272,14394
10910,35261,14376
10903,35252,14361
10895,35241,14346
10886,35229,14328
10876,35218,14308
10863,35206,14287
10849,35192,14266
10830,35175,14245
10808,35160,14221
10782,35143,14194
10754,35126,14165
10728,35110,14135
10705,35094,14104
10682,35077,14071
10658,35058,14037
10633,35038,14001
10608,35018,13968
10585,34997,13935
10563,34975,13904
10544,34955,13877
10530,34940,13852
10517,34928,13827
10504,34920,13802
10492,34913,13777
10481,34906,13753
10466,34897,13727
10449,34883,13698
10431,34867,13668
10414,34850,13638
10399,34832,13612
10385,34814,13589
10370,34796,13566
10351,34777,13542
10330,34758,13515
10304,34738,13485
10275,34715,13453
10245,34691,13418
10218,34669,13381
10193,34648,13342
10171,34626,13303
10152,34602,13265
10133,34579,13226
10110,34552,13185
10082,34522,13142
10054,34494,13100
10026,34469,13059
9997,34447,13020
9968,34424,12983
9939,34399,12945
9910,34373,12907
9882,34351,12871
9857,34333,12839
9834,34313,12808
9811,34292,12775
9788,34272,12740
9765,34251,12705
9741,34228,12672
9719,34204,12640
9701,34181,12608
9685,34157,12575
9669,34134,12543
9652,34112,12510
9635,34091,12478
9618,34070,12449
9604,34053,12428
9595,34044,12418
9594,34048,12419
9606,34067,12437
9635,34104,12480
9686,34162,12557
9763,34241,12670
9869,34342,12821
10000,34466,13008
10155,34612,13230
10330,34778,13484
10527,34961,13768
10742,35159,14077
10971,35368,14405
11209,35586,14748
11447,35808,15100
11680,36028,15457
11909,36240,15812
12131,36444,16159
12345,36639,16492
12547,36821,16805
12734,36991,17094
12903,37145,17353
13054,37277,17582
13184,37386,17778
13288,37475,17941
13368,37547,18073
13428,37603,18178
13470,37642,18256
13498,37665,18306
13514,37674,18330
13519,37671,18332
13513,37657,18316
13498,37637,18285
13476,37609,18240
13446,37574,18184
13406,37531,18119
13360,37484,18044
13311,37437,17962
13261,37389,17879
13209,37343,17797
13157,37300,17722
13109,37260,17655
13064,37223,17591
13024,37191,17528
12990,37164,17470
12963,37139,17416
12940,37115,17366
12917,37091,17320
12894,37067,17277
12869,37043,17232
12841,37016,17183
12806,36983,17130
12767,36945,17072
12723,36902,17006
12675,36853,16933
12624,36801,16854
12572,36747,16770
12518,36692,16684
12459,36638,16598
12400,36584,16516
12346,36534,16443
12300,36493,16381
12265,36462,16330
12238,36441,16290
12222,36428,16263
12216,36424,16249
12218,36431,16249
12228,36447,16262
12245,36469,16288
12271,36495,16324
12303,36525,16367
12337,36557,16414
12373,36591,16463
12409,36623,16514
12446,36655,16567
12483,36687,16619
12519,36719,16671
12554,36749,16721
12584,36775,16766
12612,36799,16810
12636,36820,16852
12656,36838,16887
12670,36852,16912
12677,36861,16925
12678,36864,16928
12671,36859,16919
12657,36846,16904
12635,36828,16882
12607,36805,16851
12572,36775,16810
12533,36740,16763
12491,36703,16713
12451,36665,16664
12412,36627,16615
12374,36587,16566
12338,36548,16516
12301,36511,16463
12264,36475,16406
12228,36437,16345
12190,36397,16280
12151,36356,16215
12111,36314,16149
12069,36274,16083
12027,36238,16015
11985,36202,15950
11941,36166,15887
11898,36130,15826
11859,36096,15765
11821,36064,15705
11783,36034,15647
11744,36005,15592
11708,35979,15539
11674,35955,15487
11641,35931,15437
11607,35905,15384
11571,35874,15327
11533,35839,15269
11496,35800,15211
11458,35763,15156
11421,35725,15099
11384,35686,15042
11348,35645,14985
11312,35604,14931
11278,35567,14882
11247,35535,14837
11220,35508,14796
11196,35486,14759
11175,35465,14723
11156,35442,14688
11140,35419,14653
11125,35398,14620
11110,35381,14588
11094,35368,14556
11076,35355,14526
11057,35340,14498
11038,35324,14471
11019,35306,14445
11001,35292,14420
10985,35282,14400
10971,35273,14382
10960,35265,14364
10949,35258,14345
10940,35253,14326
10934,35248,14307
10926,35242,14288
10914,35234,14269
10901,35222,14247
10887,35206,14223
10872,35188,14196
10857,35172,14172
10844,35158,14155
10833,35145,14143
10824,35134,14132
10814,35123,14119
10805,35113,14105
10795,35104,14088
10784,35095,14068
10773,35087,14045
10761,35076,14018
10749,35062,13988
10737,35044,13956
10723,35023,13926
10708,35001,13895
10690,34977,13862
10669,34953,13828
10649,34932,13794
10629,34913,13764
10607,34894,13735
10583,34871,13705
10557,34850,13673
10532,34829,13640
10507,34807,13609
10481,34781,13578
10454,34754,13544
10427,34727,13503
10398,34698,13456
10365,34665,13404
10328,34629,13349
10291,34593,13293
10257,34558,13239
10225,34525,13188
10194,34495,13140
10165,34471,13097
10138,34452,13056
10113,34436,13020
10092,34420,12991
10079,34409,12971
10076,34407,12967
10087,34416,12981
10117,34441,13022
10170,34489,13096
10245,34561,13208
10345,34659,13358
10469,34784,13548
10616,34931,13774
10783,35098,14032
10968,35282,14322
11171,35479,14637
11389,35688,14971
11617,35906,15317
11849,36128,15672
12083,36350,16031
12313,36568,16387
12537,36778,16734
12753,36980,17068
12958,37171,17386
13146,37348,17680
13316,37505,17949
13465,37642,18188
13593,37758,18393
13700,37855,18563
13785,37934,18703
13852,37996,18819
13905,38042,18910
13943,38073,18974
13966,38091,19012
13977,38095,19027
13977,38088,19022
13966,38070,19001
13945,38044,18966
13914,38014,18921
13875,37979,18867
13831,37941,18806
13787,37901,18743
13742,37861,18679
13698,37817,18616
13657,37772,18553
13619,37728,18489
13583,37686,18427
13548,37649,18370
13514,37618,18318
13485,37592,18273
13460,37569,18234
13437,37547,18196
13416,37527,18158
13396,37505,18116
13372,37481,18069
13344,37453,18017
13310,37421,17960
13271,37384,17900
13229,37343,17834
13183,37298,17762
13133,37252,17684
13079,37204,17602
13025,37150,17518
12971,37095,17432
12918,37040,17347
12866,36989,17267
12820,36943,17196
12779,36905,17133
12744,36874,17080
12716,36854,17037
12694,36840,17004
12678,36830,16980
12669,36828,16967
12672,36834,16969
12685,36849,16984
12708,36871,17008
12737,36897,17038
12765,36925,17071
12791,36951,17107
12815,36977,17147
12841,37005,17189
12868,37035,17232
12897,37065,17274
12926,37093,17312
12952,37117,17349
12975,37136,17381
12994,37150,17407
13010,37160,17425
13020,37165,17433
13020,37162,17432
13011,37153,17422
12993,37139,17403
12970,37121,17379
12946,37101,17352
12920,37079,17323
12889,37057,17290
12854,37031,17255
12819,37001,17217
12784,36970,17175
12748,36937,17127
12713,36905,17075
12677,36878,17020
12637,36849,16963
12594,36814,16901
12548,36773,16835
12503,36729,16767
12461,36687,16696
12419,36647,16627
12375,36608,16558
12330,36569,16490
12285,36527,16420
12239,36479,16351
12192,36431,16285
12146,36386,16222
12103,36346,16161
12062,36307,16098
12023,36270,16036
11988,36236,15976
11951,36206,15916
11915,36178,15859
11881,36148,15806
11847,36116,15754
11813,36081,15703
11779,36045,15652
11747,36011,15602
11716,35982,15555
11684,35957,15510
11654,35932,15466
11625,35906,15420
11598,35880,15375
11573,35855,15331
11552,35834,15289
11533,35816,15249
11516,35799,15212
11498,35783,15180
11480,35766,15149
11464,35751,15121
11451,35737,15096
11439,35721,15073
11426,35705,15049
11412,35689,15024
11396,35674,14998
11379,35659,14971
11361,35643,14944
11343,35628,14919
11324,35612,14894
11305,35597,14869
11288,35582,14844
11272,35570,14820
11260,35560,14794
11249,35551,14767
11240,35541,14744
11230,35534,14722
11222,35529,14699
11214,35524,14677
11204,35519,14658
11192,35514,14638
11181,35510,14617
11170,35503,14597
11159,35492,14580
11146,35479,14564
11131,35466,14547
11114,35453,14528
11096,35437,14507
11078,35419,14483
11059,35397,14452
11037,35376,14418
11012,35357,14382
10989,35339,14345
10967,35320,14308
10947,35301,14273
10931,35280,14240
10916,35260,14209
10901,35243,14180
10886,35228,14151
10869,35217,14122
10850,35207,14092
10831,35195,14058
10811,35179,14023
10789,35160,13988
10766,35140,13953
10741,35118,13919
10713,35095,13883
10684,35072,13844
10656,35048,13805
10626,35022,13765
10597,34995,13722
10571,34969,13676
10549,34943,13631
10525,34919,13588
10499,34895,13548
10470,34869,13511
10442,34842,13477
10414,34818,13445
10388,34799,13416
10365,34784,13386
10346,34766,13355
10327,34744,13323
10309,34721,13291
10291,34698,13260
10271,34676,13229
10250,34654,13196
10227,34631,13161
10201,34605,13124
10174,34580,13084
10145,34553,13043
10117,34523,13001
10088,34494,12959
10060,34466,12918
10034,34440,12879
10011,34416,12841
9989,34393,12801
9969,34373,12761
9949,34354,12724
9931,34337,12692
9915,34321,12664
9902,34307,12642
9890,34298,12625
9883,34297,12615
9883,34308,12616
9896,34330,12637
9927,34367,12688
9980,34424,12773
10060,34503,12892
10168,34606,13050
10305,34733,13247
10472,34889,13486
10666,35070,13764
10880,35273,14078
11113,35492,14420
11357,35722,14785
11610,35960,15166
11869,36203,15555
12127,36447,15944
12383,36685,16328
12632,36916,16704
12868,37134,17066
13090,37333,17408
13296,37515,17728
13483,37681,18024
13652,37830,18292
13802,37962,18530
13935,38077,18736
14048,38175,18911
14140,38255,19053
14213,38317,19162
14266,38360,19245
14301,38388,19301
14318,38402,19333
14318,38402,19342
14305,38390,19332
14282,38371,19306
14251,38346,19267
14212,38317,19216
14171,38285,19157
14131,38250,19095
14091,38211,19030
14054,38172,18964
14017,38132,18898
13979,38092,18833
13942,38055,18772
13909,38024,18718
13881,37997,18670
13855,37971,18626
13832,37945,18585
13813,37923,18550
13797,37906,18522
13783,37892,18500
13768,37878,18480
13753,37863,18457
13735,37845,18424
13712,37823,18378
13684,37797,18325
13653,37766,18270
13616,37729,18208
13575,37686,18138
13531,37638,18063
13483,37588,17986
13432,37539,17910
13379,37490,17838
13326,37443,17771
13273,37399,17705
13225,37361,17642
13185,37330,17585
13151,37306,17539
13125,37288,17503
13107,37274,17474
13095,37262,17452
13089,37253,17435
13088,37247,17423
13089,37243,17415
13092,37242,17415
13098,37245,17423
13104,37249,17435
13112,37255,17450
13122,37265,17471
13138,37282,17500
13156,37302,17533
13175,37322,17565
13191,37336,17591
13204,37344,17615
13214,37349,17637
13222,37350,17654
13226,37348,17665
13226,37344,17670
13219,37339,17668
13208,37331,17659
13194,37322,17644
13177,37310,17622
13158,37293,17593
13132,37271,17557
13101,37244,17513
13064,37214,17465
13026,37180,17413
12986,37143,17357
12942,37103,17293
12895,37061,17225
12845,37016,17157
12795,36970,17089
12748,36926,17024
12704,36883,16962
12662,36841,16902
12620,36800,16841
12578,36759,16781
12537,36723,16723
12500,36691,16668
12464,36660,16614
12431,36631,16559
12401,36603,16500
12374,36575,16440
12348,36549,16382
12321,36523,16329
12290,36494,16278
12254,36463,16229
12215,36433,16178
12177,36404,16125
12142,36375,16070
12105,36343,16011
12066,36308,15950
12023,36273,15887
11980,36238,15824
11938,36203,15765
11901,36170,15714
11869,36139,15669
11842,36112,15629
11819,36085,15592
11798,36062,15556
11780,36043,15523
11765,36029,15491
11749,36014,15459
11732,35998,15425
11714,35983,15391
11697,35970,15360
11680,35957,15329
11663,35944,15298
11647,35934,15269
11631,35924,15242
11618,35912,15218
11605,35900,15195
11593,35888,15173
11584,35878,15150
11576,35868,15125
11567,35858,15102
11555,35846,15078
11540,35829,15052
11521,35808,15024
11497,35784,14993
11472,35762,14962
11445,35742,14931
11417,35721,14901
11389,35700,14870
11362,35677,14840
11336,35655,14811
11309,35635,14781
11284,35615,14752
11262,35597,14722
11245,35579,14692
11235,35563,14661
11229,35551,14630
11224,35541,14598
11215,35531,14567
11201,35521,14539
11185,35512,14513
11167,35500,14485
11148,35485,14456
11132,35467,14427
11115,35449,14400
11097,35429,14372
11074,35406,14342
11048,35378,14306
11020,35348,14266
10992,35319,14223
10962,35289,14177
10929,35257,14129
10893,35226,14082
10858,35197,14037
10827,35172,13994
10800,35149,13955
10775,35128,13918
10751,35108,13886
10727,35087,13855
10704,35065,13824
10679,35042,13788
10652,35017,13749
10622,34989,13707
10589,34962,13665
10556,34937,13622
10525,34911,13578
10493,34883,13533
10461,34856,13489
10432,34832,13448
10407,34811,13412
10385,34791,13379
10366,34770,13347
10347,34748,13313
10325,34724,13275
10299,34697,13234
10273,34669,13194
10248,34643,13153
10222,34616,13110
10191,34585,13063
10155,34550,13014
10117,34511,12965
10078,34472,12916
10043,34438,12870
10013,34409,12828
9985,34383,12791
9958,34360,12756
9934,34337,12723
9910,34315,12690
9887,34294,12657
9867,34274,12621
9850,34257,12585
9833,34244,12551
9817,34234,12515
9803,34224,12478
9787,34210,12446
9768,34192,12416
9745,34173,12383
9719,34150,12349
9691,34125,12313
9664,34099,12276
9636,34071,12240
9608,34041,12202
9580,34012,12167
9555,33988,12137
9534,33973,12115
9522,33968,12108
9524,33975,12121
9547,33998,12160
9596,34042,12232
9672,34111,12346
9779,34214,12504
9916,34350,12706
10081,34515,12952
10270,34702,13235
10479,34909,13552
10705,35130,13897
10945,35360,14263
11194,35596,14641
11447,35834,15025
11703,36071,15406
11955,36301,15777
12195,36519,16132
12420,36726,16466
12627,36920,16778
12814,37099,17065
12981,37257,17323
13124,37392,17550
13245,37503,17745
13343,37591,17905
13420,37658,18031
13474,37707,18126
13511,37738,18197
13536,37754,18244
13551,37758,18266
13552,37753,18268
13538,37739,18253
13515,37718,18228
13487,37690,18194
13454,37657,18151
13418,37621,18098
13379,37581,18038
13337,37539,17973
13292,37499,17907
13249,37463,17839
13210,37428,17774
13174,37393,17711
13140,37357,17651
13106,37322,17590
13072,37288,17531
13039,37255,17476
13008,37222,17425
12981,37189,17378
12958,37157,17335
12934,37126,17291
12909,37096,17247
12884,37066,17202
12858,37039,17158
12830,37014,17111
12797,36989,17062
12760,36960,17012
12724,36929,16958
12690,36897,16902
12653,36862,16844
12614,36824,16783
12576,36786,16721
12539,36748,16659
12499,36709,16596
12459,36669,16532
12421,36631,16471
12387,36596,16415
12359,36564,16366
12332,36534,16326
12307,36512,16294
12286,36498,16271
12270,36491,16255
12262,36489,16244
12263,36491,16242
12273,36497,16252
12286,36509,16275
12302,36525,16305
12321,36547,16336
12343,36573,16367
12365,36601,16398
12388,36629,16430
12411,36654,16460
12432,36677,16488
12452,36701,16516
12471,36722,16541
12489,36740,16561
12500,36751,16574
12503,36757,16579
12499,36756,16575
12488,36748,16564
12471,36731,16545
12447,36708,16518
12419,36681,16483
12387,36650,16442
12352,36617,16396
12313,36580,16345
12270,36538,16292
12227,36494,16237
12185,36453,16180
12144,36413,16120
12100,36373,16058
12055,36333,15995
12008,36292,15930
11963,36250,15865
11921,36207,15800
11881,36168,15739
11844,36135,15681
11807,36104,15626
11768,36074,15570
11730,36044,15513
11697,36015,15457
11664,35987,15401
11631,35959,15344
11595,35932,15288
11554,35901,15232
11509,35863,15173
11460,35819,15109
11410,35774,15041
11361,35728,14973
11313,35682,14906
11269,35636,14844
11227,35595,14786
11185,35557,14730
11146,35518,14675
11110,35482,14623
11076,35449,14573
11043,35419,14528
11013,35390,14486
10985,35364,14447
10961,35343,14412
10943,35327,14379
10927,35316,14348
10912,35307,14319
10895,35298,14290
10878,35285,14258
10861,35268,14223
10842,35250,14185
10823,35230,14147
10804,35208,14111
10786,35183,14080
10768,35158,14050
10749,35134,14022
10728,35112,13994
10708,35092,13968
10689,35076,13944
10670,35058,13917
10650,35039,13887
10629,35020,13855
10610,35003,13825
10591,34987,13795
10573,34973,13765
10558,34962,13738
10546,34952,13713
10534,34941,13690
10523,34925,13666
10510,34906,13642
10497,34888,13621
10484,34872,13602
10471,34859,13582
10459,34846,13560
10448,34831,13535
10432,34815,13506
10410,34799,13474
10384,34780,13433
10356,34757,13387
10326,34732,13342
10292,34706,13300
10257,34679,13261
10222,34650,13223
10191,34620,13185
10161,34590,13147
10132,34563,13111
10104,34540,13079
10080,34520,13051
10062,34505,13025
10049,34493,13000
10038,34483,12976
10026,34470,12951
10014,34458,12926
10004,34447,12900
9993,34437,12872
9978,34425,12842
9960,34409,12810
9944,34392,12778
9927,34375,12748
9909,34356,12719
9888,34335,12691
9866,34312,12661
9840,34288,12628
9812,34260,12591
9783,34229,12550
9753,34198,12505
9723,34169,12458
9693,34141,12409
9664,34112,12359
9634,34085,12309
9604,34061,12262
9573,34037,12216
9544,34011,12173
9517,33989,12135
9490,33971,12103
9465,33953,12074
9443,33936,12044
9424,33920,12014
9408,33904,11987
9395,33889,11962
9384,33878,11938
9376,33872,11918
9367,33867,11899
9356,33858,11876
9342,33847,11851
9326,33833,11824
9306,33816,11797
9282,33797,11766
9256,33774,11730
9230,33750,11693
9208,33728,11657
9190,33709,11625
9176,33694,11600
9172,33688,11585
9177,33692,11585
9193,33710,11603
9227,33746,11649
9284,33806,11728
9367,33892,11845
9477,34002,12001
9612,34135,12199
9771,34289,12435
9949,34465,12705
10144,34655,13004
10355,34854,13329
10576,35058,13671
10804,35266,14021
11034,35477,14373
11262,35685,14719
11482,35886,15054
11690,36078,15370
11882,36255,15663
12056,36416,15931
12211,36561,16174
12345,36689,16389
12458,36797,16576
12552,36889,16732
12630,36962,16858
12692,37020,16956
12737,37063,17029
12769,37093,17079
12787,37105,17108
12793,37102,17117
12785,37087,17108
12767,37062,17083
12740,37029,17044
12705,36992,16992
12664,36951,16932
12618,36904,16865
12571,36855,16794
12525,36806,16719
12477,36756,16641
12427,36705,16559
12376,36654,16476
12329,36605,16395
12286,36561,16320
12247,36520,16252
12209,36481,16190
12172,36444,16132
12136,36410,16077
12100,36376,16022
12063,36343,15970
12027,36312,15919
11992,36282,15868
11958,36252,15813
11924,36219,15753
11888,36181,15685
11850,36140,15612
11810,36097,15536
11765,36053,15458
11717,36012,15380
11667,35972,15305
11620,35931,15234
11577,35893,15165
11538,35858,15102
11503,35828,15046
11473,35801,14999
11450,35776,14964
11435,35758,14943
11429,35747,14935
11431,35743,14941
11441,35749,14960
11457,35764,14988
11480,35787,15024
11507,35817,15065
11537,35851,15111
11569,35887,15159
11603,35924,15207
11640,35961,15255
11679,35994,15301
11716,36024,15347
11749,36051,15390
11779,36076,15431
11804,36099,15466
11824,36118,15495
11840,36134,15519
11850,36145,15539
11853,36146,15552
11851,36137,15553
11843,36122,15543
11830,36105,15527
11810,36083,15503
11784,36060,15473
11755,36036,15438
11722,36007,15399
11685,35972,15356
11645,35935,15310
11605,35897,15262
11567,35862,15210
11530,35831,15154
11493,35802,15098
11456,35775,15042
11421,35752,14988
11389,35730,14934
11356,35705,14880
11324,35676,14825
11293,35645,14768
11262,35613,14708
11227,35579,14646
11187,35541,14583
11140,35501,14519
11090,35459,14453
11039,35417,14387
10988,35375,14321
10938,35333,14254
10894,35294,14190
10857,35259,14128
10823,35227,14069
10788,35193,14012
10754,35160,13955
10721,35125,13899
10688,35090,13845
10655,35058,13794
10624,35032,13746
10593,35007,13697
10562,34982,13647
10533,34956,13600
10508,34932,13557
10487,34910,13520
10466,34890,13486
10446,34869,13455
10425,34850,13427
10405,34834,13402
10387,34818,13380
10371,34802,13359
10357,34787,13336
10344,34773,13312
10327,34758,13286
10308,34740,13258
10286,34720,13230
10262,34699,13202
10238,34679,13174
10215,34659,13144
10194,34641,13116
10175,34624,13089
10158,34606,13061
10142,34588,13032
10128,34571,13005
10114,34557,12982
10100,34546,12960
10089,34536,12939
10083,34532,12922
10078,34530,12908
10072,34527,12894
10066,34522,12880
10060,34518,12866
10056,34515,12854
10050,34511,12842
10043,34506,12829
10037,34497,12813
10027,34483,12797
10014,34466,12778
9998,34447,12757
9980,34425,12733
9960,34402,12706
9939,34378,12673
9920,34353,12639
9902,34329,12606
9882,34305,12573
9862,34282,12540
9841,34260,12505
9820,34238,12467
9796,34219,12430
9771,34200,12393
9748,34183,12358
9726,34166,12323
9705,34150,12288
9682,34131,12251
9656,34109,12214
9630,34085,12178
9605,34060,12141
9583,34037,12106
9560,34016,12072
9537,33994,12035
9514,33968,11994
9490,33943,11951
9464,33919,11910
9439,33897,11870
9414,33877,11833
9389,33859,11799
9368,33844,11773
9353,33835,11758
9351,33837,11759
9368,33855,11782
9405,33892,11834
9465,33950,11921
9551,34032,12046
9662,34140,12209
9799,34274,12408
9958,34431,12640
10134,34602,12901
10327,34783,13188
10530,34970,13491
10738,35162,13800
10947,35355,14111
11154,35546,14421
11357,35733,14728
11555,35914,15027
11743,36083,15314
11917,36239,15583
12073,36381,15835
12211,36510,16064
12331,36623,16268
12434,36719,16443
12519,36797,16590
12587,36862,16710
12640,36913,16805
12681,36950,16876
12710,36974,16926
12729,36988,16958
12738,36992,16973
12738,36987,16973
12728,36974,16960
12713,36953,16933
12692,36926,16893
12665,36897,16843
12633,36865,16788
12597,36830,16728
12556,36792,16666
12513,36749,16602
12470,36700,16535
12428,36651,16466
12388,36604,16397
12349,36563,16329
12309,36526,16263
12269,36489,16199
12227,36452,16137
12186,36416,16078
12146,36379,16022
12108,36346,15969
12071,36314,15916
12035,36281,15861
11998,36243,15805
11961,36203,15743
11924,36165,15677
11886,36129,15607
11846,36093,15535
11805,36057,15461
11763,36020,15387
11720,35980,15312
11679,35938,15237
11639,35895,15166
11601,35855,15102
11565,35822,15048
11532,35796,15003
11504,35773,14964
11481,35754,14934
11465,35743,14916
11457,35742,14909
11454,35749,14911
11457,35760,14920
11467,35774,14937
11483,35792,14962
11507,35816,14995
11537,35847,15035
11569,35880,15081
11602,35911,15130
11636,35940,15180
11670,35970,15230
11701,35999,15277
11727,36024,15318
11748,36046,15355
11765,36062,15384
11775,36070,15402
11779,36072,15412
11781,36073,15415
11777,36070,15411
11767,36061,15401
11751,36045,15381
11729,36025,15353
11703,36003,15321
11674,35978,15285
11640,35948,15246
11603,35916,15202
11567,35886,15155
11534,35857,15105
11502,35829,15055
11469,35800,15007
11432,35768,14959
11393,35732,14908
11356,35695,14855
11322,35659,14801
11290,35625,14747
11256,35590,14693
11221,35556,14641
11187,35525,14593
11156,35497,14543
11124,35468,14489
11089,35436,14431
11053,35402,14370
11017,35367,14309
10980,35331,14247
10940,35294,14186
10895,35257,14126
10848,35219,14068
10801,35181,14010
10754,35145,13952
10712,35110,13891
10675,35073,13831
10640,35036,13773
10607,35001,13721
10580,34971,13675
10555,34945,13631
10533,34923,13591
10514,34905,13555
10494,34889,13523
10472,34877,13493
10451,34866,13463
10430,34853,13433
10409,34837,13401
10386,34816,13365
10364,34791,13327
10343,34767,13288
10320,34746,13252
10297,34724,13218
10277,34703,13186
10259,34682,13157
10240,34659,13128
10221,34636,13100
10202,34614,13073
10184,34597,13044
10171,34583,13016
10160,34570,12989
10148,34557,12966
10134,34547,12943
10121,34538,12921
10111,34529,12898
10103,34520,12875
10096,34512,12854
10089,34505,12834
10079,34498,12815
10066,34491,12793
10051,34482,12769
10037,34470,12745
10022,34453,12719
10008,34436,12690
9995,34419,12661
9979,34404,12633
9962,34388,12605
9942,34371,12577
9923,34354,12551
9901,34339,12527
9878,34324,12503
9855,34309,12477
9834,34291,12449
9814,34272,12419
9793,34252,12387
9769,34231,12351
9743,34208,12313
9718,34182,12276
9696,34156,12240
9675,34129,12209
9654,34102,12179
9634,34079,12151
9614,34060,12125
9597,34043,12100
9580,34028,12077
9565,34013,12054
9549,34001,12028
9532,33992,12002
9513,33984,11978
9493,33975,11952
9473,33962,11921
9454,33946,11887
9433,33925,11850
9409,33898,11809
9382,33870,11766
9353,33843,11722
9324,33816,11677
9293,33786,11629
9261,33756,11580
9231,33729,11534
9202,33705,11492
9171,33679,11452
9141,33653,11410
9114,33628,11369
9089,33607,11330
9066,33590,11295
9050,33576,11267
9043,33567,11247
9044,33564,11238
9056,33570,11250
9085,33592,11291
9135,33638,11369
9209,33710,11489
9311,33809,11652
9442,33933,11858
9600,34083,12104
9784,34257,12385
9991,34453,12694
10215,34666,13027
10455,34891,13380
10704,35123,13749
10955,35356,14126
11202,35586,14504
11442,35812,14877
11675,36031,15238
11897,36240,15585
12105,36438,15914
12296,36621,16218
12469,36786,16495
12623,36931,16746
12758,37054,16969
12872,37157,17162
12965,37240,17324
13041,37308,17457
13103,37361,17563
13151,37400,17643
13185,37423,17697
13203,37431,17726
13209,37429,17732
13202,37418,17721
13185,37397,17695
13158,37367,17657
13125,37331,17609
13085,37292,17554
13038,37248,17493
12991,37204,17426
12946,37166,17361
12907,37135,17303
12874,37112,17253
12846,37096,17211
12826,37086,17173
12811,37075,17136
12798,37063,17099
12784,37047,17065
12770,37029,17033
12755,37009,17003
12736,36987,16970
12716,36964,16935
12693,36938,16894
12666,36911,16846
12634,36881,16791
12595,36846,16728
12550,36807,16661
12498,36762,16587
12443,36713,16507
12388,36663,16426
12333,36610,16345
12279,36558,16266
12225,36506,16186
12172,36457,16109
12122,36412,16035
12081,36371,15968
12047,36336,15911
12018,36308,15867
11994,36290,15834
11978,36281,15810
11972,36280,15795
11974,36285,15790
11986,36298,15798
12006,36318,15818
12029,36340,15847
12050,36362,15881
12069,36385,15919
12091,36409,15961
12115,36436,16004
12142,36464,16045
12167,36491,16084
12190,36514,16120
12210,36530,16149
12225,36540,16170
12234,36545,16183
12237,36545,16191
12236,36541,16196
12232,36535,16195
12225,36527,16187
12217,36517,16173
12205,36504,16154
12188,36489,16130
12164,36471,16101
12135,36449,16066
12103,36422,16027
12071,36393,15989
12040,36365,15951
12008,36338,15910
11973,36311,15864
11936,36283,15814
11898,36253,15761
11858,36223,15705
11818,36190,15645
11779,36152,15581
11741,36109,15514
11699,36059,15445
11652,36006,15375
11603,35955,15307
11555,35912,15241
11508,35870,15174
11462,35827,15109
11414,35782,15044
11369,35740,14977
11327,35700,14912
11289,35663,14849
11251,35630,14788
11210,35594,14728
11169,35557,14666
11126,35517,14600
11082,35478,14533
11038,35439,14466
10995,35401,14398
10955,35365,14332
10914,35330,14271
10874,35298,14212
10835,35265,14152
10797,35232,14096
10762,35201,14044
10729,35171,13992
10696,35140,13941
10666,35111,13894
10638,35084,13852
10613,35059,13812
10590,35035,13771
10567,35011,13735
10544,34990,13703
10522,34970,13673
10502,34953,13645
10483,34938,13616
10464,34926,13586
10445,34915,13555
10429,34904,13524
10415,34892,13494
10399,34875,13462
10383,34856,13432
10369,34836,13403
10353,34817,13374
10333,34798,13339
10309,34776,13302
10283,34751,13263
10259,34725,13225
10234,34698,13189
10210,34674,13157
10187,34652,13128
10164,34630,13098
10143,34608,13067
10122,34587,13032
10104,34566,12998
10087,34547,12968
10070,34531,12940
10054,34518,12912
10039,34504,12884
10022,34489,12853
10002,34473,12818
9979,34456,12782
9958,34440,12747
9937,34422,12711
9916,34402,12671
9892,34383,12633
9868,34364,12598
9842,34344,12567
9814,34321,12533
9784,34296,12494
9755,34270,12455
9726,34244,12420
9696,34221,12387
9667,34201,12353
9641,34184,12322
9617,34165,12292
9595,34143,12262
9573,34119,12230
9552,34095,12196
9532,34073,12159
9512,34050,12119
9491,34027,12079
9468,34007,12039
9444,33989,11999
9419,33969,11961
9393,33948,11924
9369,33927,11890
9348,33907,11855
9326,33885,11817
9303,33862,11776
9276,33837,11731
9248,33811,11687
9219,33783,11644
9190,33752,11599
9159,33720,11552
9128,33685,11503
9095,33650,11454
9061,33617,11405
9026,33584,11356
8989,33550,11307
8951,33518,11260
8914,33490,11212
8881,33463,11166
8852,33435,11121
8828,33407,11079
8808,33383,11039
8789,33362,11002
8772,33343,10967
8756,33324,10935
8739,33304,10908
8720,33285,10883
8701,33266,10857
8682,33248,10829
8665,33234,10801
8645,33222,10772
8623,33206,10741
8599,33188,10708
8574,33171,10672
8550,33154,10636
8529,33136,10599
8508,33115,10559
8484,33093,10518
8457,33069,10478
8429,33040,10437
8404,33010,10398
8382,32983,10364
8361,32958,10335
8343,32937,10311
8335,32925,10299
8341,32926,10306
8366,32946,10338
8413,32992,10405
8487,33068,10518
8595,33178,10680
8737,33319,10890
8912,33488,11145
9115,33685,11443
9342,33905,11780
9588,34143,12147
9847,34393,12538
10115,34649,12949
10388,34906,13373
10663,35160,13800
10934,35410,14223
11198,35654,14638
11452,35885,15037
11691,36104,15415
11910,36306,15768
12105,36490,16093
12279,36654,16386
12434,36797,16645
12569,36922,16872
12684,37029,17068
12781,37117,17232
12857,37186,17363
12913,37236,17461
12949,37268,17528
12968,37284,17569
12970,37285,17585
12958,37273,17579
12936,37254,17553
12908,37229,17511
12873,37196,17458
12831,37157,17395
12787,37114,17325
12741,37069,17251
12695,37022,17177
12651,36975,17104
12608,36928,17031
12565,36884,16959
12521,36840,16888
12477,36797,16822
12437,36758,16760
12404,36726,16703
12375,36698,16650
12348,36672,16599
12325,36648,16552
12299,36625,16509
12269,36599,16464
12236,36569,16415
12202,36538,16361
12166,36507,16302
12126,36473,16239
12082,36436,16173
12035,36397,16107
11985,36359,16041
11934,36320,15970
11882,36277,15892
11828,36230,15809
11773,36181,15725
11719,36134,15643
11670,36090,15569
11630,36050,15505
11597,36016,15451
11571,35990,15405
11550,35971,15371
11538,35961,15348
11534,35960,15337
11538,35963,15336
11549,35969,15343
11564,35978,15358
11582,35991,15381
11602,36010,15408
11624,36032,15440
11648,36055,15475
11673,36081,15515
11700,36109,15557
11727,36138,15599
11753,36164,15639
11777,36187,15677
11798,36207,15710
11815,36223,15738
11827,36233,15757
11831,36236,15768
11831,36233,15771
11827,36226,15768
11819,36213,15758
11804,36196,15743
11781,36175,15722
11757,36149,15697
11732,36119,15665
11701,36087,15629
11666,36054,15588
11631,36019,15541
11596,35985,15487
11558,35953,15428
11517,35922,15365
11471,35889,15300
11421,35850,15232
11369,35806,15162
11319,35763,15092
11271,35721,15022
11223,35680,14950
11175,35639,14876
11127,35597,14802
11080,35555,14732
11032,35512,14663
10984,35469,14597
10935,35427,14533
10888,35387,14469
10842,35346,14405
10797,35306,14339
10753,35266,14272
10706,35224,14204
10657,35180,14134
10608,35133,14062
10561,35087,13990
10517,35044,13919
10472,35002,13849
10426,34962,13779
10376,34921,13708
10326,34875,13635
10277,34828,13564
10230,34781,13497
10187,34737,13435
10148,34696,13378
10112,34660,13325
10078,34627,13276
10045,34598,13229
10012,34572,13183
9981,34548,13135
9953,34527,13091
9929,34508,13054
9907,34492,13021
9886,34476,12992
9867,34457,12964
9849,34438,12935
9834,34422,12905
9818,34407,12876
9801,34391,12845
9782,34374,12814
9760,34357,12779
9735,34338,12743
9709,34317,12706
9686,34298,12669
9669,34282,12634
9654,34269,12602
9639,34252,12574
9623,34231,12546
9604,34207,12518
9583,34184,12490
9561,34164,12461
9538,34145,12430
9514,34127,12398
9489,34108,12368
9465,34086,12337
9441,34062,12305
9418,34037,12271
9394,34013,12240
9372,33993,12210
9353,33976,12181
9336,33963,12156
9323,33950,12131
9311,33938,12107
9300,33927,12083
9291,33920,12058
9282,33914,12030
9270,33906,11998
9255,33896,11962
9238,33886,11925
9220,33872,11889
9200,33855,11854
9178,33834,11820
9154,33809,11783
9128,33782,11744
9099,33752,11705
9069,33721,11668
9038,33688,11628
9005,33654,11587
8973,33619,11544
8940,33585,11499
8907,33553,11455
8874,33522,11413
8843,33493,11371
8812,33464,11328
8781,33437,11283
8749,33416,11237
8716,33395,11187
8682,33373,11138
8650,33350,11091
8619,33323,11048
8592,33297,11007
8570,33273,10966
8552,33251,10927
8535,33230,10891
8518,33211,10857
8500,33195,10826
8480,33183,10794
8459,33168,10762
8434,33150,10728
8405,33132,10691
8373,33114,10652
8339,33093,10613
8304,33068,10573
8268,33035,10528
8231,32997,10478
8194,32957,10427
8158,32917,10376
8124,32878,10329
8093,32845,10287
8063,32816,10245
8035,32792,10205
8007,32773,10166
7981,32753,10130
7956,32732,10095
7933,32711,10061
7910,32693,10025
7886,32674,9988
7864,32654,9954
7844,32636,9921
7829,32621,9893
7820,32611,9870
7817,32606,9856
7821,32609,9856
7835,32623,9877
7869,32655,9929
7929,32709,10017
8015,32785,10145
8127,32887,10316
8267,33018,10534
8439,33180,10797
8638,33365,11099
8857,33570,11433
9092,33793,11795
9341,34030,12180
9602,34277,12583
9869,34528,12997
10136,34778,13415
10400,35027,13830
10656,35270,14237
10900,35504,14628
11130,35727,15001
11345,35933,15348
11539,36118,15664
11709,36280,15946
11854,36417,16190
11977,36531,16395
12079,36623,16561
12160,36693,16690
12220,36740,16787
12260,36770,16856
12281,36785,16899
12285,36790,16917
12277,36782,16912
12259,36763,16889
12231,36737,16851
12195,36704,16798
12152,36663,16735
12105,36617,16664
12056,36570,16588
12007,36524,16509
11957,36477,16428
11907,36433,16349
11858,36391,16272
11811,36350,16197
11766,36311,16124
11724,36274,16052
11683,36235,15982
11643,36194,15914
11599,36150,15846
11553,36105,15777
11505,36061,15707
11456,36015,15636
11406,35966,15562
11356,35915,15482
11306,35865,15397
11255,35815,15315
11204,35766,15235
11155,35715,15155
11108,35667,15074
11063,35620,14991
11017,35574,14909
10971,35529,14831
10927,35488,14756
10886,35453,14687
10849,35425,14628
10819,35402,14581
10797,35385,14544
10780,35374,14517
10770,35370,14502
10769,35371,14497
10776,35376,14501
10793,35386,14514
10815,35402,14535
10841,35417,14562
10868,35433,14596
10896,35453,14636
10924,35477,14682
10953,35503,14732
10981,35531,14784
11007,35557,14837
11030,35581,14888
11052,35605,14935
11069,35629,14978
11082,35654,15018
11095,35677,15051
11108,35695,15078
11122,35711,15102
11134,35724,15121
11142,35733,15133
11145,35736,15139
11143,35734,15136
11135,35726,15126
11122,35713,15108
11101,35697,15085
11074,35676,15057
11043,35651,15023
11011,35624,14981
10977,35595,14934
10942,35562,14882
10906,35528,14826
10870,35493,14770
10833,35456,14712
10795,35418,14652
10757,35379,14589
10715,35339,14524
10671,35297,14458
10625,35257,14388
10579,35216,14316
10534,35175,14242
10490,35134,14167
10446,35091,14091
10399,35047,14013
10351,35002,13935
10300,34954,13856
10249,34902,13777
10196,34852,13699
10142,34801,13624
10089,34751,13553
10039,34701,13483
9991,34653,13417
9946,34606,13351
9908,34562,13287
9874,34523,13226
9846,34492,13169
9820,34468,13117
9796,34448,13068
9771,34430,13021
9744,34411,12977
9716,34392,12936
9691,34375,12897
9667,34358,12858
9643,34340,12821
9619,34321,12784
9596,34300,12748
9574,34279,12712
9551,34260,12676
9529,34243,12641
9507,34227,12608
9490,34211,12576
9475,34197,12548
9461,34183,12522
9450,34171,12499
9440,34161,12477
9431,34154,12459
9422,34147,12443
9413,34142,12429
9405,34141,12415
9401,34141,12402
9397,34139,12390
9392,34133,12378
9386,34122,12365
9380,34110,12352
9374,34099,12340
9368,34088,12329
9361,34077,12314
9354,34064,12297
9344,34052,12278
9332,34043,12258
9320,34034,12237
9307,34023,12213
9291,34010,12187
9274,33997,12160
9257,33982,12132
9240,33965,12104
9223,33948,12076
9205,33930,12049
9188,33910,12019
9172,33890,11988
9157,33871,11958
9142,33851,11930
9124,33830,11901
9100,33808,11868
9072,33786,11836
9046,33765,11806
9021,33746,11778
8996,33731,11749
8973,33716,11715
8951,33698,11680
8930,33677,11645
8905,33655,11608
8880,33634,11572
8858,33616,11536
8838,33600,11502
8819,33582,11469
8800,33562,11436
8779,33538,11398
8754,33513,11355
8727,33486,11311
8699,33459,11266
8668,33430,11221
8636,33400,11178
8609,33374,11145
8593,33359,11128
8592,33358,11133
8610,33376,11160
8650,33416,11218
8714,33480,11311
8805,33567,11443
8921,33678,11617
9060,33814,11830
9223,33972,12082
9406,34150,12371
9606,34348,12687
9820,34561,13024
10044,34779,13376
10275,35001,13739
10513,35224,14105
10749,35446,14470
10981,35661,14829
11203,35866,15176
11412,36057,15504
11602,36231,15807
11770,36387,16080
11918,36521,16321
12045,36636,16529
12150,36731,16704
12232,36804,16846
12293,36855,16955
12335,36889,17030
12359,36905,17074
12367,36907,17092
12361,36896,17089
12342,36874,17067
12313,36844,17029
12274,36808,16978
12228,36768,16918
12178,36722,16848
12124,36670,16771
12067,36614,16689
12006,36557,16601
11942,36502,16510
11881,36449,16420
11824,36396,16333
11768,36342,16245
11711,36286,16155
11654,36231,16062
11600,36176,15968
11545,36119,15874
11489,36063,15780
11433,36006,15687
11376,35948,15595
11318,35891,15502
11256,35835,15404
11189,35777,15297
11119,35717,15183
11047,35652,15065
10976,35585,14944
10905,35518,14825
10834,35452,14709
10768,35390,14601
10708,35334,14500
10657,35284,14408
10613,35241,14328
10575,35203,14261
10547,35173,14206
10528,35153,14163
10514,35139,14130
10506,35134,14112
10503,35136,14108
10507,35145,14119
10520,35161,14142
10542,35184,14177
10570,35212,14221
10602,35244,14270
10637,35279,14326
10676,35316,14388
10715,35354,14456
10753,35389,14526
10787,35420,14593
10819,35446,14654
10850,35470,14706
10876,35491,14750
10895,35507,14785
10905,35518,14811
10910,35525,14829
10910,35528,14840
10904,35528,14844
10894,35522,14840
10878,35510,14828
10858,35491,14812
10836,35469,14789
10811,35444,14759
10782,35418,14722
10747,35390,14679
10708,35359,14631
10668,35326,14579
10628,35292,14525
10593,35256,14468
10560,35220,14408
10525,35182,14346
10488,35143,14282
10451,35104,14217
10414,35065,14152
10375,35024,14085
10329,34981,14016
10276,34936,13941
10220,34889,13863
10167,34844,13788
10119,34799,13714
10074,34753,13639
10029,34709,13565
9985,34670,13491
9943,34635,13419
9900,34603,13353
9856,34572,13293
9814,34539,13237
9775,34507,13185
9737,34477,13133
9702,34447,13078
9670,34418,13023
9640,34390,12969
9611,34364,12916
9582,34337,12863
9554,34311,12810
9526,34287,12759
9496,34259,12707
9464,34226,12654
9434,34192,12604
9405,34162,12557
9377,34133,12510
9350,34106,12462
9324,34081,12416
9299,34061,12375
9276,34043,12339
9255,34025,12306
9236,34009,12272
9219,33995,12239
9203,33982,12208
9190,33972,12182
9179,33964,12161
9170,33956,12142
9161,33949,12123
9154,33945,12104
9149,33941,12085
9143,33933,12066
9134,33921,12045
9124,33906,12025
9115,33892,12007
9104,33877,11988
9094,33862,11968
9085,33848,11948
9074,33831,11930
9061,33811,11913
9048,33793,11894
9039,33779,11873
9031,33766,11853
9022,33752,11829
9012,33738,11804
9002,33727,11781
8990,33717,11761
8979,33709,11742
8969,33703,11724
8961,33699,11707
8953,33693,11690
8945,33684,11674
8940,33677,11661
8940,33676,11653
8951,33685,11659
8975,33709,11685
9015,33749,11738
9074,33807,11823
9153,33884,11939
9255,33983,12089
9383,34105,12278
9532,34251,12505
9699,34415,12767
9882,34595,13062
10079,34785,13382
10288,34984,13722
10508,35190,14076
10732,35399,14438
10956,35606,14800
11176,35810,15157
11390,36007,15505
11592,36195,15839
11781,36372,16156
11957,36536,16450
12119,36689,16717
12262,36826,16953
12385,36944,17154
12487,37042,17322
12566,37119,17455
12622,37175,17559
12660,37213,17635
12682,37235,17683
12690,37245,17708
12686,37242,17713
12670,37226,17699
12647,37202,17667
12619,37171,17621
12587,37136,17564
12551,37098,17499
12509,37057,17429
12459,37012,17350
12404,36958,17264
12347,36900,17174
12288,36842,17083
12228,36788,16991
12171,36738,16900
12119,36692,16813
12072,36647,16733
12029,36605,16661
11989,36563,16593
11947,36515,16522
11900,36461,16446
11846,36403,16364
11788,36343,16274
11728,36283,16179
11667,36223,16080
11604,36162,15976
11537,36102,15870
11467,36041,15762
11398,35978,15653
11331,35913,15545
11264,35849,15437
11199,35791,15334
11139,35741,15240
11087,35696,15157
11043,35657,15085
11006,35621,15024
10976,35589,14970
10950,35566,14926
10930,35550,14892
10916,35538,14865
10908,35531,14846
10905,35529,14838
10909,35533,14843
10923,35543,14858
10942,35557,14880
10964,35573,14907
10988,35592,14938
11011,35615,14973
11032,35638,15012
11054,35660,15055
11079,35681,15100
11105,35703,15144
11132,35728,15186
11155,35752,15226
11175,35771,15262
11192,35786,15290
11205,35798,15308
11213,35807,15318
11216,35809,15322
11211,35804,15318
11200,35793,15303
11182,35777,15280
11159,35758,15249
11129,35733,15211
11095,35702,15164
11059,35668,15112
11023,35633,15057
10985,35601,15003
10945,35569,14948
10904,35536,14894
10864,35503,14839
10826,35469,14781
10787,35434,14721
10747,35397,14659
10705,35360,14594
10662,35321,14528
10620,35282,14461
10578,35244,14395
10538,35205,14328
10495,35163,14258
10449,35119,14183
10402,35076,14107
10354,35032,14031
10305,34986,13955
10252,34940,13879
10198,34894,13804
10147,34851,13732
10099,34810,13663
10054,34772,13597
10011,34734,13535
9971,34698,13478
9936,34665,13425
9906,34633,13374
9876,34602,13323
9846,34571,13274
9816,34543,13224
9785,34515,13176
9757,34488,13129
9732,34460,13082
9710,34436,13035
9688,34418,12989
9666,34401,12947
9647,34385,12907
9633,34368,12869
9620,34352,12833
9605,34336,12798
9587,34317,12761
9569,34297,12724
9554,34277,12688
9538,34254,12654
9520,34229,12622
9500,34204,12589
9475,34178,12556
9448,34154,12522
9422,34131,12488
9401,34111,12455
9383,34095,12425
9370,34083,12400
9361,34073,12379
9354,34067,12360
9349,34064,12341
9344,34060,12324
9338,34057,12309
9330,34054,12296
9324,34052,12285
9318,34049,12272
9311,34044,12258
9302,34037,12243
9294,34027,12230
9282,34017,12217
9269,34008,12200
9253,33998,12178
9238,33985,12153
9221,33971,12125
9203,33954,12093
9184,33934,12060
9167,33914,12027
9149,33893,11996
9128,33871,11966
9110,33849,11939
9092,33827,11913
9072,33805,11886
9051,33782,11857
9031,33760,11829
9013,33741,11801
8996,33723,11770
8978,33705,11736
8955,33685,11699
8930,33663,11660
8903,33642,11620
8875,33621,11577
8848,33598,11531
8821,33572,11484
8794,33546,11438
8770,33523,11398
8748,33506,11365
8730,33493,11341
8719,33486,11330
8721,33490,11338
8742,33509,11373
8786,33544,11435
8852,33602,11531
8944,33686,11669
9065,33800,11854
9217,33946,12086
9394,34120,12361
9598,34319,12674
9826,34539,13022
10074,34774,13401
10336,35021,13804
10606,35275,14224
10877,35530,14649
11143,35781,15071
11401,36023,15487
11644,36252,15891
11872,36467,16273
12080,36664,16625
12266,36844,16947
12434,37007,17238
12585,37151,17496
12716,37274,17720
12826,37376,17909
12915,37460,18063
12985,37528,18183
13040,37581,18273
13083,37616,18337
13112,37637,18378
13128,37649,18398
13132,37652,18399
13123,37646,18381
13104,37632,18346
13075,37609,18300
13039,37578,18244
13000,37540,18181
12960,37497,18115
12921,37455,18049
12882,37415,17986
12842,37375,17926
12805,37334,17868
12771,37294,17813
12737,37256,17760
12704,37222,17707
12676,37194,17660
12656,37171,17619
12642,37152,17584
12632,37138,17554
12622,37132,17527
12611,37126,17497
12597,37115,17462
12578,37100,17423
12556,37083,17377
12529,37061,17326
12498,37032,17265
12462,36998,17195
12421,36958,17118
12376,36913,17037
12327,36868,16953
12276,36823,16869
12228,36780,16789
12181,36741,16714
12140,36705,16644
12104,36667,16580
12072,36630,16520
12044,36598,16467
12019,36571,16422
12000,36546,16386
11984,36523,16359
11973,36504,16340
11970,36494,16331
11974,36494,16333
11984,36506,16344
11998,36527,16360
12015,36552,16378
12034,36580,16400
12054,36606,16427
12073,36629,16457
12093,36649,16489
12116,36669,16522
12141,36687,16553
12162,36702,16581
12178,36714,16604
12187,36720,16623
12190,36721,16636
12188,36720,16641
12180,36716,16637
12167,36709,16625
12148,36698,16610
12125,36683,16589
12097,36661,16559
12065,36629,16519
12029,36590,16471
11989,36546,16419
11950,36501,16362
11910,36462,16305
11871,36424,16247
11830,36385,16186
11790,36347,16123
11750,36309,16059
11711,36274,15996
11672,36241,15931
11632,36208,15866
11592,36174,15801
11553,36138,15734
11511,36101,15663
11466,36064,15591
11422,36027,15521
11379,35988,15452
11335,35947,15383
11289,35907,15315
11241,35866,15250
11191,35825,15186
11143,35783,15118
11099,35739,15050
11056,35694,14981
11014,35650,14911
10970,35608,14841
10926,35569,14772
10885,35530,14706
10847,35495,14644
10809,35460,14582
10774,35425,14522
10740,35391,14464
10707,35357,14410
10674,35326,14361
10646,35300,14318
10625,35277,14278
10610,35257,14243
10598,35241,14211
10588,35227,14182
10579,35216,14153
10571,35205,14123
10560,35193,14093
10546,35180,14063
10529,35163,14033
10509,35144,14000
10487,35122,13962
10466,35100,13922
10446,35078,13881
10425,35055,13838
10405,35033,13796
10383,35009,13757
10361,34982,13720
10338,34955,13685
10313,34930,13653
10285,34907,13620
10255,34881,13587
10226,34853,13554
10198,34827,13523
10171,34805,13493
10145,34788,13468
10122,34774,13443
10101,34762,13415
10083,34750,13388
10068,34738,13363
10057,34727,13335
10048,34719,13306
10039,34711,13280
10026,34703,13259
10014,34694,13240
10006,34685,13224
9999,34675,13207
9992,34663,13184
9983,34648,13158
9971,34632,13130
9957,34612,13100
9941,34590,13068
9922,34568,13037
9902,34546,13005
9879,34524,12972
9853,34502,12937
9828,34480,12902
9802,34457,12866
9774,34433,12827
9745,34407,12785
9714,34379,12741
9682,34349,12698
9654,34318,12658
9631,34290,12619
9613,34265,12582
9597,34243,12544
9579,34227,12508
9558,34213,12475
9536,34198,12443
9511,34185,12410
9485,34171,12373
9460,34158,12337
9439,34144,12302
9420,34129,12266
9404,34112,12230
9385,34094,12192
9365,34075,12154
9346,34055,12117
9325,34036,12080
9299,34014,12042
9270,33989,12002
9240,33963,11960
9209,33936,11915
9177,33908,11869
9144,33878,11824
9110,33847,11781
9075,33818,11741
9044,33792,11708
9021,33770,11685
9010,33758,11676
9016,33764,11690
9047,33793,11739
9106,33849,11829
9197,33936,11965
9322,34054,12149
9477,34200,12381
9660,34371,12661
9868,34566,12986
10101,34785,13350
10355,35025,13743
10624,35281,14157
10901,35545,14585
11180,35812,15020
11456,36076,15455
11727,36335,15884
11987,36584,16302
12233,36817,16701
12463,37032,17076
12675,37226,17422
12865,37400,17735
13034,37553,18013
13182,37686,18255
13307,37800,18464
13410,37895,18639
13492,37970,18779
13556,38027,18888
13603,38070,18968
13632,38099,19021
13644,38110,19051
13643,38105,19056
13630,38087,19039
13606,38060,19004
13575,38028,18957
13541,37994,18905
13504,37960,18848
13465,37925,18789
13426,37889,18728
13387,37852,18667
13347,37818,18609
13311,37785,18553
13282,37754,18501
13257,37727,18453
13233,37703,18410
13211,37680,18371
13189,37658,18330
13167,37635,18288
13142,37609,18246
13115,37580,18201
13088,37550,18153
13060,37518,18102
13029,37479,18046
12991,37432,17979
12946,37380,17903
12894,37327,17820
12838,37273,17733
12780,37221,17643
12722,37170,17556
12662,37120,17471
12604,37072,17387
12551,37028,17305
12504,36988,17227
12465,36954,17155
12431,36922,17090
12400,36894,17032
12373,36873,16983
12353,36860,16942
12340,36850,16911
12335,36842,16891
12335,36839,16881
12340,36842,16880
12348,36849,16886
12360,36856,16897
12374,36866,16915
12393,36880,16941
12414,36899,16970
12433,36919,17000
12452,36937,17031
12475,36955,17061
12498,36971,17090
12519,36987,17115
12538,37002,17135
12553,37015,17149
12562,37025,17159
12565,37029,17163
12563,37029,17163
12555,37024,17157
12542,37011,17145
12525,36993,17126
12509,36975,17102
12492,36954,17075
12473,36932,17044
12451,36909,17010
12424,36887,16971
12397,36863,16930
12367,36834,16885
12331,36800,16831
12293,36765,16771
12254,36728,16710
12212,36688,16650
12167,36645,16590
12122,36602,16531
12078,36559,16470
12032,36518,16405
11984,36475,16336
11932,36431,16264
11879,36385,16189
11826,36339,16111
11776,36296,16033
11729,36253,15954
11683,36208,15875
11637,36162,15795
11588,36117,15715
11536,36071,15637
11484,36023,15560
11434,35978,15485
11390,35937,15417
11352,35903,15356
11321,35873,15300
11294,35845,15248
11268,35821,15199
11241,35798,15154
11212,35776,15111
11185,35755,15070
11160,35733,15029
11136,35709,14987
11112,35684,14943
11087,35656,14897
11061,35627,14850
11035,35599,14804
11007,35570,14757
10977,35541,14708
10948,35516,14662
10922,35494,14619
10897,35472,14577
10871,35450,14535
10846,35429,14496
10821,35409,14464
10798,35389,14436
10781,35371,14409
10768,35356,14382
10757,35341,14356
10746,35326,14327
10732,35310,14293
10716,35295,14258
10701,35282,14224
10689,35270,14195
10680,35258,14170
10671,35246,14145
10660,35234,14118
10646,35219,14091
10631,35205,14066
10615,35194,14041
10600,35184,14017
10582,35171,13990
10562,35155,13962
10540,35137,13936
10522,35118,13910
10504,35098,13881
10483,35077,13849
10463,35055,13818
10442,35031,13785
10419,35008,13751
10394,34985,13716
10370,34962,13681
10347,34938,13648
10325,34914,13615
10302,34891,13581
10274,34865,13545
10244,34837,13507
10210,34806,13466
10175,34778,13424
10140,34752,13384
10106,34726,13343
10075,34698,13300
10049,34672,13258
10026,34650,13218
10007,34632,13179
9988,34616,13138
9965,34601,13095
9939,34583,13054
9911,34563,13011
9886,34540,12969
9860,34515,12927
9834,34489,12884
9811,34462,12838
9789,34435,12793
9765,34409,12748
9737,34381,12704
9708,34352,12662
9678,34324,12624
9648,34298,12591
9618,34271,12558
9590,34244,12524
9562,34217,12485
9535,34191,12442
9509,34166,12398
9483,34141,12353
9456,34117,12311
9428,34094,12273
9399,34074,12237
9371,34054,12203
9344,34032,12170
9318,34010,12137
9292,33987,12102
9263,33961,12061
9232,33932,12016
9199,33901,11969
9168,33869,11919
9138,33837,11869
9109,33805,11819
9082,33778,11775
9059,33757,11738
9042,33744,11712
9036,33741,11704
9046,33752,11720
9078,33784,11766
9135,33842,11847
9218,33926,11970
9329,34036,12134
9468,34171,12343
9636,34331,12598
9829,34516,12894
10046,34721,13226
10283,34944,13591
10536,35183,13982
10801,35435,14391
11071,35693,14812
11342,35953,15238
11609,36208,15663
11868,36453,16079
12116,36687,16482
12350,36908,16867
12569,37113,17229
12773,37302,17563
12958,37471,17866
13120,37618,18131
13260,37745,18357
13377,37852,18548
13473,37938,18706
13548,38005,18833
13599,38053,18929
13631,38084,18996
13647,38098,19037
13652,38099,19055
13646,38088,19051
13631,38070,19030
13609,38045,18998
13580,38017,18961
13549,37989,18917
13517,37962,18869
13486,37933,18818
13455,37903,18766
13422,37873,18713
13388,37841,18659
13355,37808,18607
13326,37777,18559
13298,37750,18512
13271,37726,18468
13246,37703,18424
13224,37681,18379
13204,37660,18333
13181,37640,18286
13155,37616,18238
13127,37586,18184
13094,37550,18125
13059,37511,18063
13019,37470,17998
12974,37423,17928
12926,37374,17852
12874,37325,17771
12819,37276,17685
12762,37226,17597
12706,37178,17511
12651,37131,17428
12598,37086,17347
12552,37045,17274
12514,37009,17209
12480,36978,17151
12447,36952,17098
12419,36930,17053
12399,36912,17022
12389,36900,17004
12388,36893,16999
12395,36893,17001
12406,36900,17011
12421,36911,17029
12440,36927,17057
12464,36949,17089
12493,36980,17127
12523,37013,17167
12551,37040,17208
12577,37063,17249
12602,37088,17290
12628,37116,17333
12654,37145,17376
12677,37172,17414
12696,37195,17447
12706,37213,17472
12710,37226,17489
12709,37236,17498
12706,37240,17500
12699,37237,17494
12690,37225,17480
12680,37209,17459
12666,37192,17430
12648,37170,17395
12625,37143,17356
12597,37110,17315
12566,37074,17269
12531,37035,17218
12495,36997,17163
12457,36958,17105
12415,36916,17041
12371,36871,16972
12324,36823,16900
12275,36771,16825
12228,36721,16746
12182,36674,16669
12132,36628,16595
12081,36583,16523
12031,36540,16451
11983,36500,16378
11937,36462,16309
11892,36426,16244
11849,36389,16183
11805,36350,16123
11761,36311,16063
11719,36271,16004
11680,36231,15943
11641,36192,15881
11603,36155,15818
11566,36120,15756
11530,36085,15695
11493,36048,15632
11455,36012,15571
11420,35977,15512
11386,35944,15455
11351,35910,15399
11317,35875,15344
11285,35840,15290
11255,35806,15238
11227,35777,15190
11203,35753,15142
11180,35732,15097
11159,35712,15054
11142,35696,15015
11128,35681,14979
11113,35664,14946
11095,35647,14913
11076,35629,14880
11055,35611,14848
11033,35593,14816
11008,35574,14783
10980,35553,14752
10952,35529,14722
10924,35502,14692
10896,35474,14661
10872,35450,14628
10850,35431,14595
10831,35412,14563
10815,35394,14533
10800,35380,14503
10786,35367,14474
10772,35353,14446
10758,35338,14417
10746,35324,14389
10734,35312,14362
10723,35301,14337
10710,35289,14312
10698,35276,14287
10686,35264,14264
10674,35256,14244
10665,35252,14226
10655,35247,14210
10645,35238,14193
10633,35226,14173
10618,35212,14148
10600,35194,14119
10580,35175,14088
10557,35155,14054
10533,35134,14018
10509,35113,13980
10482,35089,13940
10456,35063,13900
10430,35035,13860
10404,35007,13819
10380,34979,13780
10358,34952,13744
10334,34927,13711
10310,34904,13678
10287,34883,13644
10265,34864,13609
10245,34846,13575
10225,34829,13541
10207,34813,13507
10191,34797,13470
10174,34782,13432
10158,34768,13396
10143,34756,13362
10126,34741,13329
10107,34725,13299
10091,34710,13276
10083,34701,13261
10086,34702,13260
10104,34716,13280
10138,34746,13329
10189,34796,13408
10259,34867,13522
10355,34961,13677
10477,35081,13873
10625,35224,14108
10797,35389,14377
10990,35574,14674
11199,35775,14997
11419,35988,15341
11648,36206,15698
11879,36425,16061
12109,36641,16424
12332,36848,16782
12547,37047,17128
12751,37237,17457
12939,37415,17763
13109,37576,18043
13263,37717,18296
13398,37838,18519
13516,37941,18711
13616,38028,18875
13695,38099,19009
13754,38154,19117
13798,38193,19200
13826,38219,19257
13837,38234,19290
13835,38239,19302
13823,38235,19295
13804,38222,19275
13778,38202,19244
13749,38176,19201
13720,38147,19152
13692,38113,19098
13662,38075,19040
13629,38034,18979
13593,37993,18915
13557,37952,18849
13520,37914,18782
13485,37879,18716
13451,37846,18652
13418,37811,18588
13388,37772,18524
13356,37732,18460
13320,37691,18392
13277,37650,18320
13229,37606,18240
13180,37557,18153
13127,37502,18062
13066,37441,17967
12997,37379,17865
12923,37316,17757
12850,37254,17646
12781,37194,17538
12714,37134,17433
12654,37076,17334
12600,37026,17242
12552,36984,17157
12509,36946,17084
12473,36912,17023
12444,36883,16973
12422,36858,16931
12408,36837,16899
12400,36825,16881
12397,36821,16877
12398,36825,16886
12405,36836,16904
12419,36852,16927
12439,36873,16956
12464,36899,16991
12492,36929,17033
12523,36961,17081
12555,36992,17131
12588,37022,17181
12623,37051,17231
12657,37082,17281
12688,37112,17328
12714,37141,17371
12733,37165,17407
12746,37183,17434
12753,37191,17450
12755,37189,17456
12751,37180,17453
12740,37164,17439
12722,37143,17417
12696,37119,17390
12663,37092,17356
12628,37061,17314
12590,37025,17264
12553,36985,17211
12517,36945,17157
12483,36906,17099
12448,36868,17036
12411,36828,16970
12373,36791,16904
12334,36756,16837
12297,36722,16773
12264,36689,16713
12229,36654,16653
12194,36620,16592
12159,36584,16528
12122,36548,16463
12081,36513,16397
12036,36476,16331
11990,36438,16264
11943,36400,16196
11897,36363,16126
11851,36324,16055
11805,36280,15981
11758,36237,15906
11714,36197,15831
11670,36159,15760
11628,36124,15692
11588,36089,15627
11552,36057,15563
11518,36024,15503
11483,35991,15450
11449,35961,15403
11419,35933,15359
11391,35905,15313
11365,35878,15266
11341,35855,15220
11316,35832,15175
11292,35809,15130
11268,35784,15088
11244,35755,15049
11221,35724,15013
11197,35693,14978
11174,35665,14944
11154,35643,14913
11136,35625,14881
11117,35607,14845
11096,35586,14809
11074,35566,14775
11052,35548,14745
11030,35532,14718
11009,35519,14693
10989,35506,14669
10971,35494,14644
10955,35483,14617
10940,35472,14588
10928,35462,14557
10917,35450,14524
10905,35438,14491
10893,35426,14460
10880,35412,14432
10870,35400,14408
10866,35393,14388
10864,35386,14370
10861,35376,14351
10855,35366,14331
10846,35359,14313
10834,35354,14297
10820,35346,14282
10803,35335,14266
10784,35321,14247
10764,35306,14226
10745,35292,14204
10727,35275,14178
10713,35255,14150
10701,35234,14119
10688,35212,14086
10671,35189,14047
10646,35164,14005
10613,35135,13962
10577,35106,13918
10541,35078,13874
10508,35049,13829
10478,35019,13786
10447,34989,13744
10416,34961,13703
10384,34933,13665
10355,34906,13626
10327,34879,13585
10297,34853,13544
10269,34830,13503
10244,34811,13465
10223,34797,13432
10208,34787,13405
10203,34782,13389
10208,34785,13387
10227,34799,13403
10261,34824,13437
10310,34864,13497
10378,34924,13589
10466,35007,13714
10575,35112,13875
10705,35238,14076
10855,35385,14312
11026,35551,14581
11216,35735,14880
11420,35931,15203
11632,36137,15544
11851,36348,15900
12075,36563,16269
12300,36780,16640
12521,36994,17005
12735,37200,17359
12941,37396,17697
13135,37580,18013
13315,37750,18307
13481,37905,18577
13631,38043,18819
13762,38165,19029
13874,38270,19208
13967,38357,19360
14042,38426,19484
14102,38479,19578
14149,38518,19644
14180,38544,19686
14197,38555,19707
14201,38553,19708
14193,38539,19689
14174,38515,19655
14144,38483,19608
14105,38446,19553
14064,38407,19491
14023,38367,19425
13981,38327,19357
13938,38284,19290
13892,38237,19221
13848,38190,19153
13806,38149,19086
13764,38110,19021
13724,38072,18958
13689,38035,18897
13657,37999,18839
13628,37965,18785
13596,37932,18729
13560,37899,18669
13521,37864,18602
13479,37826,18532
13436,37786,18457
13390,37745,18376
13342,37700,18286
13288,37650,18190
13231,37595,18091
13174,37538,17990
13117,37480,17889
13059,37422,17789
13001,37363,17694
12948,37308,17606
12903,37258,17526
12865,37215,17455
12834,37180,17395
12809,37153,17346
12789,37135,17310
12776,37124,17287
12768,37117,17275
12765,37116,17274
12769,37123,17283
12779,37138,17301
12796,37158,17327
12820,37185,17360
12848,37213,17396
12879,37241,17434
12909,37267,17475
12938,37292,17516
12965,37318,17557
12988,37342,17596
13006,37362,17631
13020,37377,17661
13029,37386,17684
13035,37392,17700
13039,37395,17709
13038,37396,17714
13031,37393,17715
13024,37388,17710
13014,37378,17698
13000,37360,17676
12981,37335,17644
12956,37305,17605
12927,37274,17561
12895,37242,17513
12858,37207,17460
12815,37170,17400
12768,37129,17334
12717,37085,17265
12661,37041,17193
12607,36995,17118
12554,36947,17040
12501,36897,16962
12450,36845,16886
12399,36795,16812
12349,36748,16738
12301,36705,16666
12253,36664,16595
12205,36626,16527
12160,36589,16461
12117,36553,16396
12077,36520,16333
12039,36488,16269
11999,36454,16204
11957,36417,16140
11917,36378,16075
11880,36337,16008
11844,36298,15941
11810,36261,15875
11775,36226,15813
11741,36194,15753
11708,36159,15693
11676,36121,15632
11644,36082,15571
11611,36046,15513
11578,36015,15460
11545,35987,15412
11513,35964,15366
11485,35942,15321
11459,35919,15277
11434,35893,15233
11408,35866,15190
11382,35842,15148
11358,35822,15108
11336,35804,15072
11312,35786,15037
11287,35766,15001
11266,35747,14969
11248,35729,14940
11231,35713,14912
11214,35697,14885
11196,35679,14857
11177,35660,14828
11156,35642,14802
11136,35625,14780
11120,35614,14760
11114,35609,14740
11112,35606,14719
11111,35603,14698
11111,35601,14679
11110,35598,14662
11107,35591,14644
11099,35582,14623
11090,35572,14603
11079,35561,14583
11067,35548,14561
11054,35534,14537
11042,35520,14513
11029,35507,14490
11015,35493,14465
11000,35480,14439
10984,35467,14411
10967,35452,14381
10947,35436,14349
10924,35417,14316
10899,35396,14284
10873,35374,14254
10850,35353,14226
10829,35334,14201
10809,35315,14176
10786,35296,14150
10762,35279,14119
10739,35264,14087
10717,35249,14053
10696,35232,14016
10674,35215,13976
10650,35196,13937
10623,35176,13897
10596,35153,13855
10569,35126,13812
10544,35100,13768
10523,35074,13725
10502,35046,13683
10482,35019,13644
10462,34996,13608
10444,34976,13577
10424,34959,13547
10403,34941,13512
10377,34920,13472
10345,34896,13431
10312,34874,13393
10283,34856,13358
10258,34838,13327
10235,34814,13298
10212,34785,13268
10190,34756,13238
10169,34731,13205
10148,34709,13167
10128,34688,13125
10111,34668,13082
10092,34649,13040
10067,34628,12998
10039,34609,12954
10014,34591,12911
9992,34574,12870
9971,34556,12831
9950,34534,12792
9926,34506,12751
9899,34477,12708
9871,34447,12662
9841,34416,12617
9809,34385,12573
9777,34356,12529
9745,34329,12488
9715,34302,12453
9689,34277,12424
9667,34259,12402
9658,34252,12394
9666,34263,12410
9696,34296,12460
9750,34351,12547
9831,34432,12676
9944,34543,12852
10091,34685,13078
10269,34855,13349
10474,35053,13661
10704,35276,14012
10954,35515,14396
11217,35765,14805
11486,36018,15233
11756,36272,15668
12028,36527,16105
12299,36782,16540
12564,37029,16966
12818,37267,17378
13060,37494,17770
13285,37709,18137
13494,37907,18479
13684,38087,18791
13852,38246,19071
13998,38387,19318
14123,38510,19528
14225,38610,19702
14304,38688,19840
14362,38744,19941
14403,38779,20009
14430,38794,20051
14445,38796,20075
14448,38787,20081
14438,38770,20067
14416,38746,20036
14385,38715,19993
14349,38677,19941
14311,38637,19881
14272,38596,19815
14233,38556,19747
14194,38518,19679
14154,38481,19612
14115,38447,19547
14078,38417,19482
14043,38390,19421
14012,38366,19365
13985,38343,19313
13961,38320,19266
13938,38297,19222
13913,38276,19178
13885,38256,19133
13855,38235,19085
13820,38209,19031
13785,38179,18973
13747,38144,18909
13704,38101,18837
13655,38050,18759
13602,37993,18673
13544,37934,18583
13482,37874,18489
13422,37812,18394
13363,37754,18303
13309,37701,18220
13261,37655,18144
13217,37614,18074
13178,37579,18011
13147,37549,17955
13124,37528,17909
13107,37513,17873
13096,37506,17848
13091,37505,17834
13093,37509,17829
13100,37515,17833
13110,37526,17847
13124,37541,17870
13141,37559,17899
13161,37580,17932
13184,37602,17968
13206,37621,18003
13226,37634,18038
13247,37647,18073
13266,37660,18109
13284,37673,18144
13300,37684,18172
13312,37694,18191
13320,37701,18206
13322,37704,18217
13317,37701,18218
13305,37694,18210
13289,37686,18194
13271,37678,18173
13252,37669,18152
13229,37657,18129
13204,37641,18104
13175,37619,18072
13141,37591,18030
13104,37560,17980
13067,37529,17924
13027,37496,17864
12987,37460,17800
12948,37423,17735
12908,37385,17669
12866,37343,17598
12822,37299,17521
12776,37253,17442
12727,37205,17365
12675,37156,17285
12620,37105,17201
12563,37049,17113
12509,36992,17025
12456,36938,16940
12403,36885,16858
12351,36836,16778
12301,36790,16702
12253,36748,16629
12206,36706,16558
12161,36664,16490
12118,36622,16427
12076,36581,16366
12036,36543,16307
11999,36509,16252
11964,36480,16197
11929,36452,16141
11896,36422,16084
11863,36391,16027
11829,36362,15970
11792,36333,15912
11755,36304,15854
11720,36270,15795
11689,36235,15740
11660,36202,15690
11633,36172,15645
11606,36145,15602
11581,36122,15561
11557,36102,15523
11534,36085,15486
11516,36068,15450
11501,36050,15415
11487,36030,15379
11472,36007,15339
11455,35984,15300
11435,35963,15264
11415,35943,15229
11392,35923,15194
11368,35904,15161
11344,35886,15130
11323,35870,15102
11302,35854,15076
11280,35839,15049
11259,35823,15018
11241,35807,14985
11224,35791,14954
11206,35774,14925
11185,35756,14895
11163,35738,14863
11138,35718,14830
11110,35696,14797
11084,35671,14766
11060,35646,14737
11038,35624,14710
11019,35607,14687
11002,35590,14663
10986,35570,14638
10972,35551,14613
10958,35532,14587
10944,35512,14558
10929,35492,14525
10913,35473,14489
10894,35455,14454
10870,35436,14419
10843,35414,14384
10813,35392,14348
10784,35370,14310
10757,35348,14269
10732,35323,14227
10708,35296,14183
10681,35268,14140
10652,35241,14100
10624,35216,14063
10596,35195,14026
10568,35173,13989
10541,35149,13950
10514,35121,13907
10487,35091,13860
10460,35060,13807
10429,35029,13749
10396,34998,13692
10362,34970,13638
10330,34945,13588
10298,34923,13540
10265,34900,13492
10232,34877,13443
10198,34851,13394
10166,34823,13347
10134,34794,13300
10103,34765,13255
10072,34737,13208
10042,34708,13160
10012,34678,13114
9984,34649,13070
9959,34620,13028
9936,34594,12988
9912,34570,12953
9885,34544,12919
9857,34514,12882
9827,34483,12843
9795,34452,12800
9763,34422,12755
9733,34396,12709
9706,34373,12667
9680,34350,12630
9658,34329,12596
9639,34310,12563
9621,34291,12531
9602,34276,12499
9580,34263,12465
9557,34249,12429
9533,34232,12392
9511,34212,12356
9488,34190,12320
9464,34165,12284
9438,34138,12246
9409,34113,12208
9380,34089,12172
9355,34068,12140
9336,34051,12113
9328,34043,12097
9335,34048,12097
9359,34070,12121
9402,34111,12178
9469,34179,12272
9563,34276,12410
9683,34401,12593
9831,34552,12823
10007,34729,13098
10209,34928,13416
10434,35144,13770
10676,35374,14155
10932,35617,14564
11199,35871,14990
11472,36128,15425
11745,36387,15863
12014,36642,16297
12276,36889,16722
12527,37123,17131
12761,37343,17517
12975,37550,17877
13171,37740,18210
13348,37909,18511
13504,38056,18779
13640,38182,19016
13753,38289,19219
13844,38375,19387
13915,38440,19521
13966,38486,19625
13997,38515,19700
14009,38529,19743
14005,38528,19757
13992,38516,19745
13973,38496,19715
13948,38470,19673
13918,38439,19618
13881,38401,19551
13838,38359,19476
13790,38312,19396
13736,38261,19314
13677,38204,19230
13618,38147,19144
13562,38093,19060
13510,38043,18980
13463,37997,18904
13418,37952,18832
13376,37910,18762
13336,37872,18693
13298,37839,18627
13258,37806,18562
13218,37770,18497
13177,37732,18432
13136,37691,18364
13095,37648,18295
13049,37604,18224
12998,37561,18152
12944,37517,18074
12889,37472,17990
12834,37424,17901
12780,37371,17810
12727,37317,17718
12675,37264,17626
12625,37211,17539
12576,37160,17457
12529,37114,17383
12486,37074,17317
12448,37043,17256
12420,37021,17206
12400,37006,17169
12391,37001,17145
12389,37004,17132
12396,37013,17132
12407,37028,17143
12420,37046,17166
12439,37068,17199
12463,37094,17238
12488,37121,17278
12510,37143,17318
12532,37161,17363
12555,37178,17408
12576,37195,17450
12596,37211,17487
12614,37225,17520
12630,37237,17546
12640,37246,17564
12643,37250,17578
12641,37251,17588
12637,37248,17594
12631,37244,17594
12621,37239,17587
12610,37232,17572
12596,37224,17552
12578,37214,17525
12556,37198,17492
12532,37175,17455
12504,37146,17414
12472,37112,17370
12438,37079,17323
12401,37045,17275
12363,37010,17224
12325,36975,17167
12284,36939,17106
12242,36903,17042
12200,36865,16975
12159,36825,16905
12114,36784,16832
12065,36741,16755
12011,36693,16674
11953,36639,16591
11896,36584,16507
11842,36531,16425
11791,36482,16346
11743,36436,16268
11697,36389,16190
11652,36342,16112
11604,36293,16034
11555,36242,15959
11506,36191,15886
11458,36144,15815
11410,36104,15748
11365,36070,15683
11325,36036,15617
11285,35999,15550
11245,35962,15484
11204,35924,15417
11163,35885,15351
11122,35845,15284
11080,35803,15216
11039,35761,15148
11000,35720,15082
10963,35682,15022
10926,35644,14968
10891,35609,14918
10858,35577,14870
10829,35547,14824
10804,35520,14783
10783,35500,14747
10766,35487,14714
10749,35477,14684
10731,35464,14651
10713,35450,14617
10698,35438,14587
10683,35429,14559
10668,35418,14530
10654,35403,14500
10639,35388,14468
10623,35375,14438
10604,35362,14412
10582,35349,14389
10562,35336,14370
10547,35323,14350
10532,35310,14325
10515,35298,14299
10499,35286,14276
10483,35276,14256
10469,35264,14236
10457,35252,14216
10445,35240,14195
10433,35230,14171
10422,35220,14145
10412,35209,14119
10400,35195,14094
10385,35175,14067
10366,35151,14037
10345,35127,14007
10326,35107,13979
10308,35090,13951
10290,35074,13923
10272,35058,13893
10253,35041,13861
10232,35021,13831
10209,34999,13803
10184,34975,13772
10159,34951,13736
10137,34930,13699
10120,34912,13664
10103,34895,13629
10083,34875,13594
10058,34851,13558
10029,34827,13523
9998,34804,13489
9968,34781,13454
9940,34759,13418
9916,34737,13383
9893,34714,13346
9870,34689,13305
9844,34661,13258
9814,34633,13209
9782,34606,13159
9751,34578,13106
9719,34548,13054
9686,34514,13005
9653,34478,12958
9620,34447,12910
9588,34420,12863
9556,34397,12819
9528,34378,12777
9504,34359,12734
9483,34338,12693
9462,34316,12655
9439,34293,12615
9414,34268,12573
9388,34239,12530
9365,34212,12488
9344,34189,12453
9326,34171,12424
9309,34156,12396
9293,34139,12370
9276,34121,12345
9259,34102,12320
9243,34086,12298
9232,34077,12285
9229,34079,12287
9239,34096,12307
9268,34131,12354
9318,34186,12435
9393,34264,12557
9496,34365,12724
9629,34490,12936
9791,34638,13192
9982,34809,13488
10193,35003,13817
10417,35216,14172
10652,35445,14548
10897,35683,14940
11147,35925,15341
11398,36168,15745
11648,36410,16147
11890,36647,16539
12121,36874,16916
12339,37085,17270
12539,37275,17596
12718,37441,17890
12873,37583,18149
13002,37700,18371
13106,37796,18558
13190,37875,18711
13254,37937,18830
13298,37982,18920
13325,38011,18981
13336,38025,19014
13334,38021,19021
13319,38002,19005
13294,37969,18968
13260,37928,18916
13219,37879,18853
13173,37828,18783
13122,37776,18705
13066,37724,18620
13007,37673,18533
12950,37625,18450
12897,37579,18369
12847,37533,18286
12799,37485,18199
12752,37437,18109
12707,37389,18020
12661,37341,17931
12613,37292,17843
12562,37240,17750
12508,37186,17653
12449,37127,17553
12386,37064,17449
12318,36997,17339
12245,36927,17224
12169,36855,17109
12092,36783,16996
12016,36715,16882
11943,36650,16767
11873,36586,16653
11805,36523,16542
11741,36464,16437
11685,36410,16338
11637,36360,16248
11596,36315,16169
11562,36278,16105
11533,36248,16056
11511,36226,16020
11499,36213,15998
11493,36205,15986
11493,36201,15980
11501,36203,15985
11514,36210,16000
11532,36222,16024
11555,36239,16056
11582,36262,16099
11611,36292,16151
11641,36328,16208
11672,36365,16265
11704,36402,16322
11735,36437,16378
11765,36469,16434
11792,36499,16489
11816,36528,16537
11837,36551,16577
11857,36568,16607
11872,36582,16628
11881,36589,16639
11881,36590,16640
11874,36583,16632
11859,36568,16617
11836,36547,16593
11807,36523,16563
11775,36496,16529
11742,36467,16489
11711,36437,16443
11679,36406,16396
11646,36374,16346
11612,36340,16293
11576,36305,16236
11537,36271,16174
11495,36233,16104
11450,36190,16028
11402,36146,15948
11354,36101,15868
11308,36054,15791
11262,36005,15714
11214,35955,15634
11163,35903,15553
11110,35854,15471
11056,35806,15390
11001,35760,15306
10943,35714,15218
10883,35664,15128
10823,35612,15041
10765,35564,14958
10710,35518,14876
10656,35473,14793
10603,35424,14708
10549,35373,14623
10496,35321,14538
10447,35272,14455
10401,35227,14379
10359,35187,14311
10322,35154,14249
10294,35126,14193
10270,35099,14145
10247,35074,14104
10223,35053,14067
10199,35035,14029
10176,35014,13989
10153,34989,13945
10129,34962,13899
10105,34933,13850
10081,34904,13802
10058,34876,13756
10033,34850,13715
10009,34827,13677
9985,34807,13642
9965,34790,13611
9947,34771,13581
9929,34749,13550
9910,34729,13516
9889,34711,13484
9868,34694,13451
9847,34680,13420
9827,34667,13393
9811,34654,13370
9794,34639,13349
9777,34623,13327
9762,34608,13304
9749,34594,13285
9739,34579,13267
9731,34566,13248
9724,34554,13229
9720,34544,13211
9717,34536,13192
9714,34529,13173
9710,34522,13154
9704,34515,13137
9700,34509,13121
9695,34503,13106
9689,34496,13091
9681,34489,13074
9671,34482,13056
9658,34473,13039
9644,34464,13023
9630,34454,13003
9615,34439,12977
9597,34421,12947
9579,34401,12915
9560,34383,12881
9537,34365,12844
9513,34344,12804
9490,34323,12763
9467,34303,12722
9444,34283,12680
9419,34261,12639
9394,34239,12600
9368,34216,12560
9341,34189,12517
9312,34159,12472
9280,34125,12428
9247,34091,12385
9215,34061,12343
9184,34033,12301
9153,34007,12261
9124,33983,12220
9098,33962,12181
9078,33944,12150
9067,33934,12132
9069,33935,12135
9089,33954,12166
9133,33994,12229
9202,34056,12328
9294,34143,12467
9411,34255,12650
9553,34392,12874
9718,34553,13139
9906,34735,13441
10113,34936,13775
10336,35150,14133
10570,35373,14509
10811,35601,14895
11054,35832,15286
11294,36061,15674
11525,36282,16054
11744,36493,16418
11949,36689,16761
12138,36873,17079
12309,37041,17370
12460,37190,17633
12590,37319,17865
12701,37428,18064
12793,37518,18229
12865,37588,18362
12922,37643,18467
12964,37682,18546
12992,37703,18599
13007,37711,18623
13011,37709,18622
13003,37696,18601
12985,37676,18566
12956,37646,18518
12917,37609,18453
12869,37566,18375
12813,37518,18288
12752,37464,18195
12693,37407,18101
12634,37351,18005
12575,37298,17908
12517,37246,17816
12463,37195,17729
12413,37145,17644
12365,37094,17559
12319,37045,17477
12273,36999,17398
12228,36956,17320
12182,36913,17240
12134,36871,17156
12086,36828,17071
12039,36780,16984
11991,36727,16895
11940,36669,16801
11883,36608,16701
11820,36544,16594
11752,36479,16482
11683,36415,16372
11614,36351,16265
11547,36291,16163
11486,36237,16069
11431,36187,15983
11380,36142,15907
11336,36106,15841
11301,36077,15786
11274,36053,15741
11255,36032,15706
11243,36017,15682
11241,36009,15667
11248,36009,15664
11261,36015,15673
11280,36028,15692
11305,36048,15720
11332,36075,15758
11363,36107,15805
11398,36141,15860
11436,36178,15919
11473,36215,15978
11508,36249,16035
11539,36280,16087
11567,36308,16133
11591,36334,16173
11610,36353,16206
11624,36367,16231
11635,36377,16248
11643,36385,16260
11644,36387,16266
11639,36382,16262
11628,36371,16248
11611,36355,16223
11587,36332,16189
11558,36302,16146
11524,36265,16095
11486,36225,16038
11446,36186,15975
11408,36147,15908
11367,36107,15840
11322,36067,15773
11274,36027,15703
11225,35985,15630
11176,35940,15555
11127,35895,15481
11078,35850,15405
11027,35804,15327
10975,35762,15250
10924,35720,15176
10874,35676,15101
10822,35632,15025
10772,35588,14948
10720,35545,14870
10667,35499,14787
10613,35450,14698
10558,35398,14607
10506,35345,14521
10455,35293,14439
10406,35242,14362
10355,35189,14287
10305,35137,14214
10255,35087,14144
10208,35041,14075
10161,34999,14010
10117,34959,13948
10075,34921,13887
10034,34883,13828
9997,34848,13772
9961,34816,13718
9927,34787,13666
9898,34763,13613
9876,34743,13562
9857,34724,13513
9834,34704,13466
9810,34681,13424
9785,34656,13385
9763,34632,13348
9743,34611,13313
9725,34592,13277
9703,34569,13238
9677,34544,13196
9649,34519,13154
9623,34498,13113
9598,34480,13072
9573,34463,13034
9551,34445,12996
9532,34427,12960
9515,34409,12930
9498,34391,12902
9484,34372,12876
9474,34356,12853
9466,34344,12835
9457,34334,12820
9447,34324,12805
9436,34313,12790
9423,34301,12775
9410,34287,12757
9397,34270,12737
9381,34252,12713
9363,34234,12687
9344,34217,12658
9323,34199,12628
9302,34181,12598
9283,34168,12569
9266,34157,12540
9248,34147,12512
9232,34134,12483
9215,34121,12451
9197,34105,12417
9180,34090,12382
9167,34075,12353
9156,34061,12328
9144,34044,12302
9130,34025,12277
9116,34005,12254
9101,33983,12230
9085,33962,12203
9066,33941,12173
9045,33921,12141
9023,33903,12107
9000,33887,12073
8978,33871,12035
8956,33849,11994
8931,33823,11950
8902,33795,11903
8872,33766,11856
8843,33737,11807
8813,33705,11756
8781,33673,11704
8748,33644,11653
8716,33615,11601
8684,33586,11547
8652,33556,11494
8619,33526,11443
8585,33495,11396
8550,33465,11351
8518,33437,11311
8490,33410,11277
8467,33387,11249
8449,33372,11227
8442,33368,11216
8449,33379,11223
8476,33409,11261
8529,33463,11337
8613,33546,11458
8729,33659,11627
8874,33800,11846
9046,33965,12112
9240,34151,12417
9453,34357,12759
9682,34578,13132
9924,34812,13529
10174,35054,13940
10430,35302,14360
10688,35553,14782
10946,35805,15200
11200,36052,15611
11446,36287,16009
11679,36507,16388
11895,36711,16741
12091,36897,17062
12263,37061,17347
12411,37201,17593
12536,37318,17802
12637,37410,17976
12716,37478,18115
12773,37523,18219
12808,37548,18291
12826,37559,18334
12828,37558,18354
12817,37547,18353
12796,37527,18335
12770,37502,18302
12737,37472,18255
12699,37438,18196
12656,37399,18127
12610,37354,18049
12561,37305,17965
12509,37254,17878
12453,37201,17791
12397,37150,17706
12344,37099,17622
12298,37050,17540
12258,37005,17463
12226,36966,17392
12197,36934,17326
12169,36906,17262
12137,36881,17201
12104,36856,17141
12071,36830,17084
12037,36801,17026
12000,36770,16964
11958,36733,16893
11913,36690,16816
11866,36642,16735
11816,36592,16652
11763,36540,16565
11708,36485,16474
11650,36427,16379
11593,36369,16283
11539,36315,16193
11487,36263,16107
11440,36214,16028
11398,36169,15954
11362,36130,15887
11330,36097,15828
11302,36071,15781
11279,36053,15745
11263,36042,15717
11255,36035,15698
11255,36035,15688
11259,36038,15687
11270,36043,15696
11286,36053,15714
11304,36068,15741
11326,36086,15773
11350,36108,15806
11372,36133,15841
11392,36163,15877
11410,36191,15913
11422,36214,15949
11432,36232,15983
11442,36248,16012
11451,36262,16035
11458,36272,16050
11463,36275,16056
11464,36271,16054
11458,36259,16040
11446,36240,16017
11429,36218,15987
11404,36192,15950
11373,36163,15906
11337,36129,15857
11299,36089,15804
11260,36046,15751
11222,36005,15699
11182,35964,15645
11136,35922,15586
11086,35878,15521
11034,35835,15449
10980,35792,15374
10927,35748,15298
10875,35700,15222
10825,35650,15145
10774,35599,15066
10723,35551,14986
10675,35508,14906
10631,35464,14827
10589,35421,14749
10545,35378,14671
10499,35337,14595
10454,35297,14522
10411,35255,14454
10367,35211,14385
10321,35166,14313
10276,35121,14241
10233,35077,14173
10193,35037,14108
10153,34999,14041
10110,34962,13972
10063,34924,13904
10014,34885,13839
9967,34846,13774
9922,34811,13710
9877,34777,13647
9835,34744,13583
9797,34710,13522
9762,34675,13466
9729,34637,13413
9696,34599,13360
9662,34564,13306
9628,34530,13255
9594,34499,13208
9565,34471,13167
9542,34446,13129
9523,34425,13094
9505,34409,13062
9488,34396,13032
9471,34387,13004
9454,34381,12978
9435,34376,12951
9415,34369,12921
9395,34357,12887
9376,34341,12853
9357,34321,12821
9338,34298,12789
9320,34276,12757
9305,34255,12726
9291,34235,12695
9280,34214,12665
9271,34196,12637
9263,34182,12612
9256,34174,12589
9250,34169,12570
9241,34165,12553
9229,34161,12534
9214,34154,12512
9198,34146,12490
9181,34137,12467
9163,34125,12441
9144,34111,12415
9124,34095,12389
9105,34078,12365
9089,34061,12338
9073,34044,12308
9054,34024,12276
9036,34002,12243
9015,33977,12208
8991,33951,12171
8966,33924,12133
8941,33898,12094
8919,33874,12054
8898,33854,12013
8879,33835,11973
8858,33816,11936
8836,33796,11900
8814,33774,11864
8792,33749,11826
8767,33727,11786
8740,33705,11745
8711,33682,11706
8684,33659,11666
8660,33636,11626
8637,33613,11586
8617,33592,11544
8597,33573,11503
8578,33556,11466
8558,33539,11433
8538,33521,11401
8518,33500,11369
8497,33473,11333
8473,33443,11294
8446,33413,11253
8416,33385,11211
8386,33359,11168
8357,33333,11125
8329,33308,11085
8303,33287,11047
8279,33270,11010
8254,33253,10973
8230,33232,10936
8206,33209,10899
8180,33185,10858
8150,33159,10815
8121,33133,10775
8095,33107,10737
8068,33081,10697
8040,33053,10656
8016,33028,10618
7998,33009,10588
7985,32997,10571
7984,32997,10572
8002,33013,10597
8041,33049,10655
8105,33109,10752
8196,33195,10892
8314,33309,11076
8462,33454,11306
8638,33627,11577
8839,33821,11885
9058,34031,12224
9293,34256,12586
9539,34490,12964
9789,34726,13350
10040,34961,13744
10287,35191,14140
10529,35416,14529
10764,35633,14902
10988,35840,15254
11197,36032,15582
11384,36207,15881
11549,36364,16147
11694,36502,16380
11819,36620,16582
11924,36720,16754
12007,36801,16897
12070,36864,17011
12116,36907,17098
12145,36932,17161
12160,36940,17201
12163,36934,17219
12155,36917,17215
12137,36893,17190
12112,36867,17148
12081,36841,17094
12044,36812,17035
12003,36779,16973
11960,36745,16907
11920,36710,16837
11878,36672,16764
11835,36628,16690
11791,36582,16619
11750,36537,16549
11712,36494,16483
11679,36454,16420
11646,36416,16359
11611,36381,16302
11575,36345,16248
11540,36311,16197
11507,36279,16146
11475,36248,16094
11443,36216,16037
11406,36178,15972
11366,36135,15902
11323,36090,15829
11276,36044,15752
11226,35996,15671
11175,35946,15587
11127,35898,15506
11082,35851,15427
11039,35807,15351
10997,35766,15281
10959,35730,15216
10924,35698,15158
10893,35672,15109
10871,35652,15069
10856,35638,15035
10845,35627,15007
10838,35618,14986
10834,35612,14971
10833,35612,14964
10837,35619,14967
10845,35630,14978
10857,35644,14993
10871,35659,15013
10886,35675,15035
10901,35692,15059
10917,35708,15086
10933,35724,15113
10948,35737,15138
10961,35748,15160
10975,35757,15182
10985,35766,15202
10989,35773,15217
10986,35776,15223
10979,35776,15221
10970,35771,15215
10957,35762,15201
10942,35747,15182
10926,35727,15160
10905,35704,15134
10879,35680,15107
10851,35655,15078
10821,35629,15043
10786,35597,14997
10747,35560,14943
10708,35520,14885
10671,35481,14828
10634,35445,14769
10598,35412,14708
10560,35378,14644
10519,35341,14578
10476,35302,14510
10433,35261,14440
10391,35219,14371
10351,35179,14305
10313,35139,14241
10274,35099,14177
10234,35061,14112
10191,35025,14049
10148,34990,13986
10105,34958,13922
10063,34927,13860
10022,34892,13798
9986,34855,13739
9954,34816,13682
9923,34778,13624
9889,34743,13569
9856,34715,13517
9826,34690,13466
9797,34665,13414
9766,34639,13361
9733,34611,13308
9702,34582,13255
9674,34554,13203
9648,34527,13155
9624,34505,13111
9600,34487,13069
9577,34470,13028
9553,34452,12991
9530,34434,12955
9506,34413,12921
9483,34389,12885
9457,34363,12847
9433,34336,12812
9409,34314,12782
9384,34298,12754
9359,34284,12728
9336,34273,12702
9317,34262,12677
9302,34251,12649
9287,34238,12620
9270,34222,12591
9248,34205,12561
9225,34186,12529
9200,34166,12497
9176,34146,12465
9155,34127,12435
9139,34111,12408
9124,34098,12382
9111,34085,12355
9101,34072,12329
9091,34057,12301
9079,34039,12273
9065,34020,12246
9050,34003,12220
9032,33988,12195
9013,33974,12171
8992,33959,12145
8970,33944,12117
8948,33925,12087
8926,33903,12057
8905,33882,12030
8887,33864,12005
8871,33846,11980
8855,33829,11953
8841,33813,11925
8825,33796,11895
8805,33776,11865
8785,33757,11833
8767,33740,11801
8750,33725,11772
8729,33710,11741
8706,33693,11708
8683,33672,11676
8663,33649,11647
8644,33625,11617
8625,33602,11584
8606,33581,11546
8586,33561,11505
8565,33539,11466
8544,33515,11430
8519,33490,11392
8492,33465,11350
8463,33439,11305
8431,33412,11258
8400,33384,11209
8371,33356,11158
8342,33327,11107
8312,33300,11060
8284,33273,11016
8259,33247,10974
8235,33219,10934
8211,33192,10896
8187,33169,10861
8162,33150,10829
8139,33134,10798
8117,33120,10769
8097,33106,10740
8078,33091,10710
8058,33070,10676
8036,33046,10637
8015,33021,10597
7995,32998,10558
7975,32977,10520
7954,32957,10483
7931,32936,10448
7908,32915,10415
7885,32896,10384
7867,32880,10361
7858,32871,10350
7859,32873,10354
7874,32892,10378
7909,32931,10429
7967,32993,10515
8049,33078,10636
8156,33184,10795
8290,33311,10991
8446,33461,11224
8621,33628,11490
8817,33809,11786
9027,34003,12104
9247,34207,12437
9473,34416,12779
9701,34625,13123
9924,34831,13465
10140,35035,13803
10345,35233,14132
10540,35423,14447
10722,35598,14743
10888,35755,15017
11037,35893,15264
11169,36015,15483
11286,36123,15672
11387,36218,15833
11473,36297,15966
11541,36360,16070
11590,36407,16147
11620,36439,16199
11635,36455,16226
11638,36454,16232
11632,36442,16219
11617,36420,16188
11593,36388,16142
11563,36350,16083
11528,36307,16014
11488,36261,15940
11443,36215,15867
11397,36170,15792
11351,36125,15717
11306,36081,15643
11267,36038,15572
11234,36000,15506
11202,35966,15445
11173,35933,15386
11143,35900,15328
11111,35867,15270
11077,35836,15213
11044,35805,15156
11010,35775,15098
10976,35745,15038
10941,35715,14976
10905,35682,14910
10865,35643,14838
10818,35598,14758
10768,35549,14673
10714,35494,14586
10657,35437,14501
10597,35378,14416
10537,35321,14331
10480,35267,14248
10431,35220,14171
10389,35181,14106
10356,35149,14053
10333,35125,14012
10319,35111,13985
10314,35108,13970
10315,35111,13964
10321,35115,13965
10331,35119,13973
10345,35126,13992
10365,35138,14022
10389,35156,14060
10416,35176,14103
10447,35202,14149
10481,35233,14199
10512,35264,14250
10540,35292,14302
10564,35317,14351
10582,35338,14391
10594,35356,14423
10602,35373,14450
10609,35389,14471
10613,35401,14485
10611,35410,14494
10607,35414,14498
10600,35411,14494
10591,35402,14482
10577,35390,14462
10557,35374,14440
10536,35357,14415
10512,35337,14385
10486,35311,14349
10458,35282,14305
10429,35251,14259
10400,35221,14212
10371,35187,14162
10340,35151,14110
10305,35113,14056
10269,35074,14000
10233,35036,13939
10195,34999,13873
10156,34963,13806
10114,34928,13738
10071,34896,13672
10031,34863,13610
9994,34830,13552
9962,34800,13498
9933,34770,13447
9907,34741,13397
9879,34711,13348
9849,34678,13297
9816,34642,13244
9782,34604,13187
9747,34565,13129
9709,34526,13069
9671,34489,13008
9635,34453,12949
9597,34417,12890
9559,34381,12830
9520,34348,12770
9482,34318,12711
9449,34286,12653
9420,34254,12600
9393,34224,12554
9367,34200,12514
9345,34183,12480
9328,34170,12450
9314,34158,12423
9301,34144,12397
9289,34127,12371
9277,34109,12345
9263,34095,12320
9249,34080,12295
9233,34061,12267
9214,34038,12234
9193,34014,12202
9171,33992,12169
9148,33971,12135
9126,33950,12100
9104,33932,12066
9081,33915,12036
9059,33899,12005
9040,33881,11975
9024,33863,11947
9008,33848,11922
8994,33834,11900
8983,33825,11883
8977,33820,11871
8974,33817,11861
8972,33815,11854
8968,33814,11846
8967,33819,11836
8967,33825,11826
8966,33830,11815
8962,33831,11802
8957,33828,11788
8949,33821,11771
8939,33810,11749
8926,33797,11724
8912,33780,11698
8896,33759,11670
8880,33736,11639
8863,33715,11607
8844,33696,11575
8823,33678,11544
8801,33658,11512
8781,33636,11481
8762,33613,11449
8743,33591,11417
8724,33571,11385
8707,33552,11356
8690,33535,11328
8675,33520,11301
8661,33505,11275
8648,33487,11248
8630,33468,11221
8607,33449,11193
8582,33430,11161
8556,33409,11126
8532,33388,11089
8507,33365,11052
8482,33340,11013
8460,33315,10971
8440,33290,10930
8419,33266,10890
8398,33242,10848
8378,33219,10807
8359,33199,10769
8344,33181,10734
8334,33167,10708
8332,33160,10699
8340,33164,10713
8360,33181,10750
8397,33214,10813
