green_channel,red_channel,ir_channel
52877,51764,21063
52892,51765,21062
52908,51762,21060
52921,51758,21062
52926,51754,21068
52925,51749,21072
52920,51742,21070
52912,51736,21061
52901,51734,21048
52889,51731,21030
52870,51727,21008
52843,51719,20981
52807,51703,20943
52765,51677,20891
52722,51642,20830
52682,51606,20768
52648,51572,20710
52620,51538,20655
52590,51504,20598
52556,51472,20540
52523,51445,20491
52492,51422,20448
52457,51400,20403
52421,51375,20353
52389,51348,20301
52359,51321,20246
52332,51292,20190
52309,51260,20136
52292,51226,20087
52272,51186,20034
52242,51140,19973
52199,51090,19907
52156,51042,19837
52122,51001,19768
52094,50969,19705
52064,50940,19645
52027,50911,19583
51986,50882,19516
51945,50857,19452
51907,50838,19392
51868,50819,19331
51827,50795,19268
51782,50767,19203
51732,50736,19134
51682,50702,19065
51640,50669,19001
51607,50640,18945
51578,50615,18890
51547,50592,18830
51514,50565,18768
51478,50536,18707
51439,50507,18648
51402,50481,18596
51373,50462,18554
51353,50450,18520
51336,50442,18491
51324,50439,18466
51315,50438,18443
51307,50437,18415
51295,50430,18378
51273,50413,18330
51246,50388,18282
51215,50355,18235
51187,50320,18190
51163,50289,18150
51135,50259,18109
51102,50228,18067
51070,50201,18023
51047,50177,17979
51025,50153,17930
50994,50126,17875
50948,50092,17818
50895,50054,17762
50848,50014,17708
50816,49979,17657
50789,49947,17610
50758,49917,17567
50722,49888,17523
50690,49859,17473
50668,49837,17424
50657,49823,17381
50651,49813,17347
50643,49801,17314
50631,49780,17274
50611,49754,17227
50589,49730,17184
50565,49706,17142
50538,49678,17095
50508,49646,17045
50476,49610,16995
50444,49579,16950
50416,49555,16913
50389,49533,16882
50367,49513,16862
50364,49507,16867
50399,49536,16917
50472,49603,17017
50574,49702,17163
50700,49828,17351
50846,49970,17573
51010,50124,17821
51195,50292,18094
51396,50475,18388
51604,50669,18694
51810,50863,18999
52009,51049,19296
52194,51222,19578
52366,51382,19847
52526,51529,20102
52670,51658,20333
52788,51764,20529
52884,51852,20694
52965,51926,20839
53033,51986,20966
53092,52034,21074
53147,52070,21166
53193,52094,21238
53226,52108,21290
53241,52114,21321
53235,52107,21333
53209,52085,21326
53172,52051,21305
53130,52012,21277
53089,51970,21244
53052,51927,21208
53020,51891,21173
52990,51861,21136
52960,51834,21097
52933,51810,21061
52915,51793,21037
52908,51781,21025
52905,51767,21017
52907,51752,21012
52908,51741,21010
52908,51732,21005
52905,51728,21000
52897,51731,21000
52885,51735,21002
52880,51740,21005
52883,51749,21017
52890,51761,21038
52894,51771,21059
52896,51773,21072
52893,51765,21069
52885,51746,21047
52877,51724,21011
52868,51702,20969
52850,51677,20916
52821,51648,20856
52786,51621,20797
52748,51594,20738
52702,51562,20674
52650,51531,20610
52602,51508,20553
52560,51489,20502
52525,51475,20454
52499,51468,20414
52476,51465,20381
52447,51456,20349
52412,51438,20311
52382,51418,20273
52365,51401,20244
52355,51386,20225
52350,51372,20213
52354,51362,20205
52368,51362,20203
52382,51366,20204
52384,51366,20202
52374,51361,20198
52363,51352,20195
52353,51340,20191
52344,51327,20186
52339,51315,20180
52338,51302,20173
52339,51289,20163
52338,51278,20148
52332,51269,20129
52322,51258,20100
52308,51244,20065
52280,51225,20026
52243,51199,19980
52207,51170,19929
52175,51140,19879
52149,51112,19835
52129,51087,19798
52107,51060,19764
52083,51032,19729
52056,50999,19686
52029,50965,19634
52002,50928,19573
51973,50892,19503
51940,50858,19427
51897,50824,19344
51848,50787,19257
51799,50748,19173
51752,50716,19100
51702,50690,19037
51647,50666,18981
51590,50639,18929
51532,50609,18875
51478,50575,18817
51434,50538,18759
51396,50498,18701
51362,50454,18645
51331,50413,18592
51304,50372,18537
51276,50328,18479
51252,50287,18421
51243,50260,18369
51247,50246,18324
51247,50236,18279
51235,50225,18231
51218,50215,18184
51201,50202,18139
51179,50185,18091
51145,50164,18039
51103,50145,17991
51059,50125,17950
51018,50101,17913
50987,50078,17879
50966,50060,17843
50950,50041,17804
50931,50019,17758
50911,49997,17710
50894,49978,17666
50879,49962,17627
50861,49945,17589
50835,49928,17550
50804,49913,17512
50769,49897,17475
50733,49879,17433
50705,49865,17388
50685,49853,17343
50670,49842,17299
50660,49836,17254
50651,49827,17207
50640,49810,17157
50625,49785,17106
50606,49753,17054
50579,49713,17000
50545,49669,16946
50510,49626,16895
50481,49589,16849
50462,49568,16818
50460,49565,16810
50482,49584,16834
50535,49633,16899
50617,49713,17012
50732,49829,17180
50871,49976,17398
51028,50143,17654
51205,50322,17940
51398,50505,18241
51597,50686,18547
51796,50861,18856
51992,51027,19160
52186,51183,19451
52376,51331,19727
52556,51470,19981
52716,51591,20209
52847,51689,20405
52951,51769,20572
53036,51836,20719
53107,51895,20847
53161,51944,20955
53198,51978,21040
53216,51991,21096
53219,51985,21130
53212,51967,21150
53203,51943,21157
53197,51924,21154
53192,51913,21144
53182,51905,21131
53164,51894,21113
53140,51875,21087
53116,51852,21062
53088,51824,21039
53058,51790,21014
53032,51758,20986
53011,51735,20957
52998,51726,20937
52992,51728,20928
52986,51736,20925
52985,51749,20927
52992,51763,20935
53000,51774,20942
53010,51782,20942
53022,51790,20940
53033,51794,20936
53040,51799,20933
53041,51803,20932
53031,51800,20929
53010,51790,20918
52983,51774,20899
52953,51754,20877
52926,51731,20849
52898,51705,20811
52869,51673,20768
52839,51634,20722
52810,51589,20669
52782,51542,20611
52749,51500,20545
52711,51461,20473
52671,51426,20403
52633,51397,20335
52604,51385,20275
52587,51386,20231
52574,51392,20199
52556,51391,20170
52534,51384,20145
52519,51377,20132
52514,51372,20131
52511,51369,20128
52507,51365,20124
52502,51357,20121
52499,51342,20117
52504,51329,20115
52512,51320,20115
52516,51316,20108
52515,51315,20093
52513,51316,20071
52506,51317,20047
52496,51314,20025
52487,51304,20004
52480,51292,19983
52476,51281,19960
52467,51267,19933
52447,51248,19897
52420,51224,19851
52384,51199,19801
52343,51179,19753
52299,51161,19707
52259,51142,19663
52231,51126,19630
52207,51111,19605
52175,51085,19576
52139,51050,19540
52109,51018,19498
52086,50993,19458
52064,50973,19414
52041,50952,19364
52018,50935,19314
51991,50916,19263
51955,50891,19206
51914,50861,19142
51874,50825,19075
51830,50783,19006
51780,50732,18933
51733,50680,18856
51693,50634,18780
51658,50594,18708
51626,50561,18642
51595,50533,18583
51563,50506,18527
51529,50479,18473
51493,50450,18421
51460,50419,18365
51426,50387,18304
51389,50354,18236
51352,50325,18166
51314,50300,18099
51276,50274,18039
51241,50245,17987
51207,50211,17936
51175,50175,17886
51146,50136,17840
51119,50098,17794
51098,50066,17749
51082,50046,17707
51065,50034,17666
51042,50025,17622
51016,50015,17574
50988,50004,17526
50960,49992,17483
50935,49977,17449
50914,49958,17419
50889,49934,17384
50861,49906,17339
50830,49880,17288
50802,49858,17240
50777,49839,17197
50754,49818,17156
50736,49797,17117
50724,49778,17083
50709,49752,17044
50689,49721,16998
50666,49694,16947
50641,49673,16896
50616,49654,16845
50588,49637,16797
50558,49618,16752
50531,49601,16710
50510,49590,16674
50487,49579,16641
50463,49560,16606
50435,49532,16563
50405,49498,16514
50375,49460,16459
50354,49427,16408
50341,49403,16364
50327,49383,16323
50317,49373,16292
50318,49377,16282
50335,49400,16297
50373,49448,16346
50436,49518,16436
50525,49609,16569
50647,49726,16756
50803,49874,16998
50987,50048,17286
51189,50235,17602
51399,50429,17932
51611,50624,18268
51820,50815,18600
52021,50997,18921
52216,51170,19232
52399,51334,19525
52573,51488,19799
52731,51627,20051
52864,51745,20277
52976,51839,20474
53068,51910,20640
53143,51961,20777
53206,52001,20883
53250,52030,20960
53274,52050,21010
53280,52057,21038
53269,52049,21046
53250,52029,21039
53226,52005,21027
53199,51977,21013
53168,51941,20990
53134,51902,20955
53103,51867,20914
53079,51840,20877
53065,51824,20852
53060,51811,20840
53056,51792,20829
53049,51774,20813
53042,51761,20793
53031,51754,20776
53021,51753,20769
53018,51758,20772
53023,51761,20782
53030,51759,20792
53042,51755,20802
53065,51756,20817
53096,51765,20839
53129,51782,20866
53157,51801,20891
53173,51818,20905
53174,51827,20906
53164,51828,20898
53144,51819,20879
53111,51800,20849
53069,51779,20811
53022,51754,20768
52973,51721,20722
52919,51676,20668
52867,51625,20607
52825,51577,20544
52790,51537,20481
52756,51503,20415
52722,51473,20348
52696,51445,20282
52678,51428,20228
52664,51418,20187
52646,51411,20158
52629,51405,20139
52616,51397,20125
52608,51390,20116
52608,51384,20116
52616,51379,20118
52622,51372,20112
52623,51367,20103
52618,51368,20098
52607,51372,20095
52599,51376,20092
52595,51376,20094
52592,51370,20095
52594,51363,20094
52599,51359,20086
52599,51352,20066
52587,51337,20035
52564,51319,19996
52531,51302,19955
52492,51282,19915
52458,51262,19877
52428,51238,19845
52396,51207,19810
52365,51177,19772
52337,51154,19733
52313,51136,19695
52290,51119,19656
52261,51102,19617
52234,51086,19581
52211,51069,19545
52189,51046,19500
52170,51020,19448
52146,50991,19387
52116,50958,19322
52086,50933,19264
52056,50909,19211
52019,50876,19154
51976,50834,19094
51938,50796,19031
51906,50764,18969
51872,50736,18909
51836,50711,18850
51794,50686,18787
51745,50657,18720
51697,50621,18651
51652,50582,18583
51616,50544,18522
51586,50508,18464
51561,50475,18405
51539,50447,18345
51518,50422,18282
51496,50402,18225
51473,50389,18174
51446,50379,18129
51416,50368,18086
51383,50348,18043
51346,50319,17996
51312,50284,17949
51285,50252,17906
51261,50225,17860
51237,50198,17808
51212,50172,17754
51187,50147,17701
51167,50124,17654
51148,50106,17611
51124,50089,17569
51095,50068,17524
51068,50044,17481
51047,50021,17446
51031,49999,17417
51016,49976,17386
51005,49953,17351
50998,49930,17312
50987,49909,17267
50968,49889,17215
50949,49875,17165
50927,49865,17121
50897,49852,17079
50866,49836,17041
50836,49817,17006
50801,49790,16965
50760,49754,16917
50719,49714,16867
50687,49674,16817
50661,49637,16769
50645,49608,16725
50636,49587,16682
50628,49569,16638
50615,49556,16592
50595,49541,16544
50567,49524,16495
50532,49498,16446
50497,49464,16395
50469,49432,16347
50444,49405,16299
50411,49381,16244
50372,49357,16187
50335,49335,16135
50303,49311,16088
50271,49284,16042
50236,49254,15992
50200,49226,15945
50173,49210,15914
50158,49208,15903
50162,49224,15921
50195,49266,15983
50256,49335,16093
50349,49436,16255
50485,49573,16471
50657,49741,16733
50851,49928,17027
51063,50125,17345
51291,50328,17684
51532,50537,18037
51773,50746,18390
52004,50944,18729
52224,51131,19054
52429,51308,19363
52613,51472,19646
52769,51616,19899
52894,51735,20123
52989,51827,20316
53058,51895,20478
53111,51945,20612
53157,51982,20723
53194,52003,20813
53220,52012,20884
53236,52011,20936
53241,51997,20966
53237,51974,20973
53234,51949,20966
53231,51928,20946
53222,51907,20917
53206,51885,20877
53186,51867,20832
53167,51854,20794
53146,51845,20763
53122,51835,20737
53097,51822,20715
53078,51807,20704
53072,51795,20704
53076,51785,20705
53085,51780,20707
53097,51778,20714
53106,51776,20722
53114,51776,20730
53125,51780,20738
53139,51792,20746
53156,51812,20758
53171,51834,20768
53180,51850,20771
53181,51856,20765
53171,51855,20754
53155,51855,20740
53133,51852,20724
53106,51841,20703
53079,51822,20675
53050,51800,20641
53018,51775,20605
52989,51747,20566
52958,51710,20518
52924,51664,20456
52891,51617,20386
52860,51573,20315
52833,51535,20249
52812,51505,20190
52794,51485,20140
52774,51467,20101
52754,51447,20073
52738,51427,20051
52724,51406,20030
52711,51386,20007
52696,51368,19981
52677,51354,19953
52658,51345,19928
52644,51342,19907
52633,51345,19897
52620,51350,19896
52604,51355,19901
52589,51359,19908
52573,51358,19911
52558,51353,19909
52548,51348,19906
52547,51343,19903
52549,51336,19894
52547,51325,19876
52539,51309,19852
52528,51287,19824
52514,51261,19793
52495,51228,19755
52472,51193,19709
52449,51163,19657
52422,51136,19600
52391,51113,19537
52361,51092,19473
52332,51071,19409
52303,51051,19349
52279,51037,19297
52259,51024,19249
52239,51008,19206
52222,50991,19171
52208,50975,19140
52190,50957,19103
52157,50927,19052
52115,50884,18991
52072,50837,18924
52035,50790,18857
52003,50748,18789
51967,50709,18717
51921,50668,18640
51869,50625,18557
51817,50580,18476
51766,50539,18398
51718,50506,18326
51674,50477,18258
51631,50448,18194
51585,50419,18134
51540,50390,18078
51501,50359,18028
51469,50325,17984
51437,50288,17940
51408,50249,17890
51388,50216,17841
51375,50187,17793
51364,50160,17742
51351,50138,17688
51337,50122,17639
51323,50108,17597
51306,50094,17559
51286,50079,17523
51264,50063,17484
51241,50042,17439
51212,50014,17387
51177,49982,17327
51141,49950,17268
51111,49926,17214
51088,49912,17165
51062,49895,17112
51033,49875,17060
51007,49860,17021
50987,49849,16991
50970,49837,16960
50948,49820,16922
50921,49796,16877
50890,49767,16826
50859,49734,16772
50831,49706,16723
50813,49690,16688
50798,49683,16664
50784,49683,16647
50775,49690,16632
50770,49697,16616
50767,49702,16599
50761,49700,16582
50745,49686,16557
50719,49660,16523
50689,49625,16481
50660,49585,16433
50633,49543,16379
50606,49500,16320
50579,49457,16261
50554,49420,16209
50527,49387,16161
50493,49350,16113
50452,49308,16062
50408,49264,16004
50370,49225,15946
50348,49200,15898
50344,49196,15872
50358,49212,15876
50390,49254,15918
50449,49325,16010
50538,49426,16153
50657,49553,16339
50805,49707,16569
50985,49888,16847
51193,50092,17168
51419,50309,17516
51650,50530,17878
51876,50747,18240
52095,50956,18596
52303,51151,18938
52497,51327,19260
52679,51481,19558
52845,51611,19827
52992,51719,20061
53118,51806,20261
53226,51874,20424
53313,51923,20552
53378,51959,20647
53422,51984,20714
53446,51995,20754
53451,51992,20773
53439,51974,20776
53412,51942,20765
53378,51906,20740
53342,51867,20706
53306,51829,20670
53275,51793,20633
53248,51758,20595
53229,51729,20562
53217,51708,20537
53205,51692,20517
53189,51677,20497
53170,51660,20480
53148,51641,20464
53127,51621,20444
53110,51603,20426
53100,51591,20423
53097,51588,20434
53099,51592,20452
53108,51604,20472
53123,51618,20491
53138,51628,20500
53144,51628,20496
53144,51622,20481
53141,51617,20459
53137,51610,20430
53127,51601,20395
53110,51587,20354
53094,51571,20311
53080,51549,20265
53063,51521,20214
53043,51489,20158
53022,51454,20101
52999,51420,20047
52976,51390,19996
52948,51360,19945
52916,51330,19896
52876,51300,19850
52834,51271,19804
52800,51248,19763
52774,51233,19731
52752,51224,19704
52730,51217,19680
52707,51213,19657
52687,51209,19637
52673,51207,19622
52665,51207,19616
52660,51207,19616
52655,51206,19618
52654,51206,19621
52658,51210,19625
52664,51213,19627
52671,51217,19627
52678,51223,19627
52689,51230,19628
52701,51238,19634
52711,51244,19641
52714,51243,19639
52710,51237,19626
52696,51224,19601
52674,51202,19568
52647,51177,19529
52611,51150,19484
52571,51123,19434
52538,51099,19388
52519,51084,19353
52505,51078,19326
52488,51075,19302
52467,51069,19276
52443,51061,19246
52414,51048,19210
52377,51023,19170
52335,50990,19125
52286,50950,19074
52233,50906,19019
52184,50859,18960
52139,50812,18901
52097,50768,18844
52064,50730,18786
52040,50693,18724
52018,50656,18658
51997,50620,18595
51977,50588,18536
51960,50562,18481
51942,50542,18427
51919,50523,18374
51895,50505,18325
51873,50487,18284
51850,50466,18244
51820,50440,18193
51784,50407,18136
51745,50374,18076
51703,50342,18015
51665,50314,17955
51633,50289,17899
51608,50268,17848
51589,50251,17805
51571,50235,17768
51546,50218,17731
51514,50199,17692
51484,50182,17655
51458,50169,17621
51433,50153,17588
51407,50133,17553
51382,50109,17512
51357,50081,17467
51337,50054,17427
51321,50031,17393
51304,50011,17360
51287,49997,17324
51271,49982,17282
51249,49960,17229
51221,49935,17172
51194,49911,17118
51169,49884,17067
51146,49855,17022
51129,49832,16992
51123,49818,16975
51128,49818,16971
51149,49838,16995
51188,49880,17052
51243,49947,17147
51322,50043,17283
51434,50171,17463
51579,50329,17685
51747,50506,17939
51930,50689,18213
52126,50874,18503
52338,51064,18812
52556,51253,19133
52773,51438,19458
52982,51614,19776
53175,51776,20075
53346,51922,20349
53496,52046,20593
53627,52143,20807
53744,52221,20992
53849,52286,21153
53938,52341,21285
54003,52379,21384
54039,52396,21450
54049,52392,21490
54043,52377,21512
54023,52353,21520
53995,52326,21519
53971,52307,21518
53951,52291,21514
53927,52270,21501
53901,52245,21477
53873,52219,21446
53848,52198,21416
53827,52184,21391
53806,52172,21366
53787,52162,21342
53779,52157,21325
53780,52158,21314
53785,52159,21304
53791,52161,21295
53799,52163,21295
53801,52162,21299
53796,52155,21301
53791,52149,21301
53790,52147,21303
53794,52149,21306
53799,52156,21309
53804,52162,21308
53801,52163,21297
53791,52158,21278
53772,52146,21253
53743,52124,21215
53705,52092,21160
53661,52053,21093
53617,52011,21020
53573,51968,20945
53531,51933,20875
53493,51908,20813
53457,51889,20760
53425,51874,20715
53398,51862,20674
53372,51851,20634
53344,51836,20595
53315,51818,20558
53287,51801,20525
53266,51787,20494
53255,51778,20469
53253,51776,20451
53259,51779,20438
53272,51787,20429
53284,51792,20425
53291,51791,20424
53296,51785,20424
53298,51772,20421
53294,51755,20419
53291,51741,20423
53289,51731,20427
53284,51717,20419
53277,51699,20399
53269,51679,20373
53252,51652,20340
53227,51622,20306
53207,51591,20271
53192,51565,20233
53179,51548,20193
53171,51541,20155
53166,51536,20118
53157,51524,20076
53142,51502,20024
53115,51472,19964
53072,51433,19900
53019,51388,19837
52964,51342,19776
52913,51299,19717
52866,51262,19660
52819,51229,19603
52772,51202,19547
52730,51179,19491
52699,51162,19437
52674,51145,19384
52643,51124,19323
52605,51096,19253
52563,51061,19175
52519,51022,19094
52476,50983,19009
52436,50945,18926
52402,50910,18851
52371,50881,18786
52344,50855,18728
52318,50825,18672
52292,50793,18616
52271,50763,18564
52255,50735,18515
52231,50699,18463
52197,50654,18408
52156,50608,18356
52118,50570,18312
52084,50539,18274
52051,50512,18235
52014,50482,18185
51979,50452,18127
51949,50426,18069
51921,50406,18014
51898,50395,17963
51886,50395,17915
51881,50400,17871
51875,50402,17830
51869,50400,17794
51865,50393,17756
51857,50374,17710
51838,50339,17659
51810,50301,17613
51781,50267,17576
51750,50233,17541
51716,50195,17497
51681,50159,17446
51648,50129,17398
51612,50103,17348
51571,50082,17297
51532,50064,17244
51494,50047,17184
51459,50028,17120
51424,50007,17057
51391,49986,17002
51365,49972,16962
51353,49970,16946
51365,49990,16962
51407,50033,17023
51487,50104,17140
51604,50208,17310
51749,50341,17526
51919,50495,17782
52114,50670,18079
52330,50862,18404
52556,51062,18741
52784,51261,19083
53010,51457,19426
53234,51652,19768
53452,51844,20105
53654,52024,20424
53831,52184,20713
53986,52319,20967
54124,52428,21188
54239,52511,21379
54332,52577,21551
54412,52635,21706
54477,52684,21837
54522,52720,21939
54550,52743,22015
54565,52755,22066
54565,52761,22093
54550,52756,22097
54524,52739,22081
54494,52714,22054
54468,52690,22021
54447,52669,21988
54434,52654,21962
54426,52642,21943
54417,52634,21926
54406,52628,21913
54395,52624,21905
54385,52619,21899
54377,52614,21895
54370,52610,21894
54364,52608,21894
54360,52608,21896
54360,52611,21902
54366,52616,21915
54373,52620,21928
54379,52621,21934
54386,52625,21935
54394,52633,21940
54394,52638,21947
54383,52634,21952
54369,52621,21952
54355,52603,21943
54339,52579,21920
54319,52548,21885
54297,52517,21846
54272,52488,21807
54242,52457,21760
54208,52423,21701
54169,52385,21634
54126,52346,21562
54084,52310,21490
54044,52276,21422
54004,52242,21358
53965,52207,21291
53925,52172,21221
53886,52139,21152
53853,52109,21092
53835,52084,21045
53833,52066,21012
53836,52054,20988
53838,52046,20975
53835,52038,20966
53827,52027,20955
53816,52020,20945
53803,52020,20939
53792,52024,20932
53783,52030,20926
53778,52035,20923
53779,52038,20919
53786,52038,20917
53787,52036,20917
53776,52027,20910
53751,52011,20895
53721,51994,20874
53688,51974,20841
53653,51954,20796
53626,51938,20751
53605,51924,20708
53578,51904,20662
53545,51876,20607
53511,51843,20548
53483,51810,20490
53460,51781,20436
53440,51753,20385
53416,51723,20334
53386,51686,20281
53352,51642,20224
53317,51597,20167
53287,51557,20111
53255,51522,20054
53215,51487,19995
53174,51454,19934
53138,51425,19873
53108,51398,19812
53080,51371,19749
53047,51340,19682
53002,51303,19608
52947,51263,19528
52890,51224,19449
52840,51191,19382
52795,51160,19321
52749,51125,19259
52704,51092,19199
52661,51061,19146
52626,51030,19099
52598,51002,19053
52574,50974,19005
52547,50943,18950
52517,50910,18886
52486,50877,18817
52455,50848,18749
52422,50821,18685
52386,50801,18628
52354,50788,18580
52327,50780,18535
52301,50766,18484
52271,50743,18426
52244,50716,18369
52222,50692,18322
52206,50671,18278
52189,50647,18234
52166,50619,18188
52135,50590,18143
52099,50560,18098
52061,50534,18053
52026,50510,18007
52000,50487,17962
51983,50467,17925
51970,50450,17899
51958,50438,17880
51951,50428,17866
51943,50416,17852
51923,50392,17828
51895,50360,17792
51871,50331,17753
51850,50307,17711
51823,50282,17658
51792,50259,17594
51762,50240,17529
51729,50219,17466
51692,50195,17405
51657,50171,17346
51626,50147,17287
51596,50115,17229
51567,50080,17172
51537,50049,17120
51509,50020,17075
51484,49992,17031
51458,49960,16984
51423,49923,16930
51374,49883,16869
51319,49843,16807
51270,49810,16751
51230,49790,16700
51206,49786,16660
51204,49796,16644
51228,49823,16664
51280,49876,16731
51360,49954,16844
51471,50062,17010
51618,50202,17233
51799,50371,17507
52002,50560,17817
52224,50766,18157
52462,50987,18522
52705,51213,18898
52943,51433,19273
53171,51641,19642
53395,51838,20003
53612,52019,20347
53809,52176,20664
53984,52311,20948
54138,52428,21200
54263,52522,21418
54358,52594,21602
54429,52649,21753
54485,52690,21871
54530,52720,21961
54565,52742,22029
54585,52757,22074
54590,52763,22096
54582,52761,22097
54565,52749,22078
54543,52729,22046
54513,52701,22004
54479,52672,21957
54447,52645,21912
54416,52620,21869
54390,52600,21835
54377,52594,21818
54374,52598,21815
54373,52603,21822
54371,52608,21835
54369,52611,21853
54368,52616,21875
54367,52619,21895
54368,52618,21910
54374,52618,21925
54386,52623,21946
54401,52630,21971
54412,52639,21995
54418,52642,22014
54415,52634,22020
54401,52613,22010
54378,52583,21988
54348,52546,21957
54312,52505,21919
54274,52462,21873
54238,52418,21818
54204,52379,21759
54176,52351,21703
54149,52331,21648
54115,52308,21585
54074,52285,21519
54038,52263,21457
54005,52239,21394
53973,52215,21329
53943,52197,21268
53914,52183,21211
53883,52170,21164
53852,52160,21126
53819,52149,21094
53787,52135,21066
53762,52117,21043
53740,52099,21024
53718,52083,21007
53697,52072,20991
53678,52064,20976
53666,52059,20968
53665,52055,20967
53674,52054,20968
53689,52054,20968
53703,52051,20964
53710,52038,20952
53708,52020,20935
53700,52001,20921
53688,51984,20907
53682,51972,20892
53676,51966,20873
53661,51957,20844
53636,51938,20803
53606,51915,20753
53577,51895,20704
53547,51879,20659
53510,51861,20613
53467,51840,20568
53424,51821,20522
53384,51803,20477
53348,51784,20432
53310,51762,20385
53271,51735,20337
53236,51709,20284
53207,51683,20225
53181,51654,20159
53158,51623,20094
53139,51592,20035
53118,51560,19976
53093,51524,19915
53065,51482,19852
53040,51440,19789
53014,51398,19723
52983,51355,19655
52951,51310,19584
52915,51265,19514
52877,51225,19451
52833,51184,19389
52783,51144,19324
52731,51105,19254
52679,51065,19177
52629,51025,19100
52585,50991,19032
52540,50965,18974
52490,50939,18918
52441,50913,18862
52402,50896,18810
52378,50885,18759
52358,50875,18704
52337,50860,18644
52316,50843,18586
52293,50824,18535
52260,50796,18489
52226,50762,18445
52194,50726,18402
52160,50687,18354
52123,50650,18303
52090,50617,18247
52060,50584,18188
52031,50551,18129
51999,50519,18070
51967,50488,18010
51941,50461,17954
51919,50438,17907
51898,50415,17863
51873,50392,17819
51844,50369,17773
51815,50346,17724
51789,50323,17677
51766,50299,17628
51742,50274,17574
51714,50248,17515
51685,50224,17456
51654,50199,17401
51622,50173,17347
51589,50149,17297
51559,50130,17255
51538,50117,17218
51522,50109,17186
51505,50100,17153
51486,50089,17119
51462,50074,17083
51433,50055,17040
51396,50029,16990
51355,49996,16937
51316,49962,16881
51279,49928,16822
51244,49893,16764
51219,49867,16717
51215,49862,16699
51238,49885,16720
51287,49933,16787
51364,50002,16899
51470,50092,17058
51604,50210,17269
51769,50362,17533
51968,50549,17847
52193,50763,18203
52434,50989,18585
52677,51207,18974
52912,51411,19352
53139,51603,19715
53359,51782,20065
53560,51943,20393
53742,52085,20696
53905,52214,20967
54047,52328,21201
54162,52423,21399
54253,52499,21563
54326,52566,21699
54381,52624,21812
54416,52665,21901
54439,52690,21967
54452,52702,22011
54453,52703,22035
54444,52694,22043
54429,52679,22037
54407,52655,22021
54379,52621,21998
54347,52582,21968
54315,52544,21934
54284,52511,21901
54258,52485,21870
54236,52469,21842
54222,52462,21820
54211,52458,21800
54200,52450,21784
54190,52435,21771
54185,52423,21762
54187,52421,21763
54193,52428,21773
54202,52436,21787
54207,52444,21802
54204,52446,21813
54192,52446,21821
54175,52448,21826
54165,52454,21826
54161,52459,21817
54149,52456,21793
54132,52448,21756
54111,52435,21714
54084,52415,21670
54047,52383,21620
54002,52336,21560
53954,52283,21497
53901,52230,21433
53843,52178,21365
53784,52131,21296
53734,52093,21232
53689,52062,21171
53651,52034,21117
53626,52013,21073
53612,51996,21040
53609,51985,21019
53615,51978,21010
53625,51973,21008
53639,51970,21010
53653,51970,21013
53665,51971,21013
53671,51969,21004
53670,51964,20989
53668,51958,20973
53668,51956,20965
53668,51955,20958
53665,51949,20945
53661,51938,20930
53657,51929,20918
53651,51924,20908
53640,51923,20895
53628,51927,20880
53614,51934,20864
53594,51939,20843
53573,51938,20812
53551,51928,20774
53532,51912,20732
53509,51888,20688
53479,51856,20647
53449,51821,20607
53419,51786,20568
53388,51749,20525
53360,51712,20474
53333,51677,20418
53300,51645,20359
53260,51617,20298
53223,51598,20239
53194,51586,20185
53164,51571,20126
53125,51544,20054
53075,51501,19969
53018,51449,19878
52960,51393,19788
52905,51339,19707
52854,51288,19632
52806,51241,19561
52763,51199,19492
52726,51164,19427
52695,51131,19364
52662,51098,19301
52627,51066,19243
52595,51037,19190
52567,51011,19141
52543,50988,19095
52520,50967,19049
52496,50945,19001
52466,50919,18951
52434,50890,18898
52399,50859,18840
52364,50825,18779
52335,50791,18722
52312,50760,18674
52292,50739,18640
52273,50723,18617
52257,50707,18595
52240,50691,18568
52218,50675,18535
52186,50659,18494
52145,50641,18448
52101,50620,18399
52057,50597,18350
52023,50573,18305
51997,50550,18262
51980,50528,18220
51969,50508,18180
51953,50487,18140
51928,50466,18096
51903,50450,18050
51885,50441,18005
51872,50435,17964
51864,50430,17928
51861,50428,17905
51869,50437,17899
51897,50462,17921
51948,50503,17983
52023,50564,18090
52125,50648,18243
52255,50758,18444
52413,50900,18693
52595,51072,18987
52792,51263,19308
52998,51458,19642
53210,51657,19988
53423,51854,20334
53632,52042,20668
53838,52216,20991
54031,52371,21297
54203,52506,21577
54352,52621,21829
54481,52713,22050
54591,52790,22239
54682,52853,22399
54748,52897,22525
54795,52925,22623
54826,52946,22697
54843,52957,22747
54846,52956,22778
54837,52951,22794
54824,52952,22797
54810,52957,22786
54786,52955,22758
54753,52943,22717
54717,52925,22669
54683,52906,22625
54654,52888,22589
54630,52869,22561
54610,52853,22539
54595,52837,22518
54584,52817,22495
54575,52798,22471
54569,52784,22451
54568,52777,22438
54569,52776,22433
54568,52779,22434
54565,52787,22437
54563,52795,22442
54567,52803,22452
54576,52812,22467
54585,52818,22482
54591,52821,22489
54594,52820,22489
54589,52808,22474
54567,52781,22437
54533,52744,22384
54493,52700,22324
54444,52648,22253
54386,52589,22172
54323,52529,22090
54264,52475,22014
54211,52431,21946
54158,52393,21876
54108,52358,21806
54065,52329,21744
54026,52305,21690
53989,52280,21640
53953,52258,21596
53918,52237,21561
53885,52215,21532
53858,52194,21508
53838,52178,21493
53823,52166,21481
53813,52157,21473
53807,52154,21472
53801,52154,21469
53798,52156,21461
53800,52160,21449
53801,52166,21436
53802,52169,21421
53803,52170,21406
53799,52166,21389
53793,52159,21370
53793,52155,21355
53799,52154,21344
53809,52150,21330
53819,52142,21311
53823,52131,21288
53816,52116,21259
53797,52098,21225
53768,52079,21185
53728,52055,21139
53683,52030,21090
53640,52004,21044
53597,51976,20993
53548,51942,20932
53494,51902,20862
53443,51862,20792
53403,51828,20728
53370,51797,20669
53335,51762,20613
53293,51719,20553
53247,51671,20488
53197,51623,20424
53143,51574,20355
53086,51526,20279
53032,51478,20198
52986,51435,20117
52948,51399,20037
52917,51369,19960
52890,51345,19888
52860,51324,19822
52823,51303,19760
52778,51283,19701
52731,51263,19647
52690,51248,19601
52656,51239,19561
52623,51227,19519
52591,51207,19464
52559,51179,19398
52528,51145,19328
52498,51110,19262
52473,51078,19206
52450,51050,19155
52424,51022,19103
52397,50991,19052
52372,50955,19000
52346,50914,18948
52315,50871,18896
52276,50825,18846
52234,50777,18796
52194,50732,18744
52159,50694,18687
52129,50665,18626
52106,50643,18571
52086,50627,18519
52061,50611,18466
52029,50596,18416
51997,50588,18376
51973,50589,18346
51969,50603,18337
51997,50640,18369
52065,50708,18457
52169,50808,18603
52303,50940,18806
52467,51099,19060
52660,51277,19354
52879,51471,19677
53117,51679,20026
53366,51892,20393
53615,52100,20766
53853,52300,21129
54079,52494,21482
54291,52676,21823
54476,52833,22139
54631,52960,22424
54761,53069,22679
54875,53168,22911
54976,53255,23113
55059,53325,23283
55122,53381,23424
55165,53419,23535
55191,53441,23615
55212,53452,23667
55229,53454,23700
55244,53452,23718
55253,53449,23721
55247,53442,23710
55224,53430,23684
55189,53411,23648
55149,53390,23609
55111,53371,23573
55075,53353,23542
55041,53338,23515
55014,53327,23494
54997,53322,23479
54984,53321,23468
54978,53322,23461
54978,53325,23460
54979,53329,23463
54979,53332,23469
54980,53329,23475
54983,53322,23478
54987,53311,23483
54985,53296,23488
54976,53276,23491
54966,53255,23488
54960,53239,23478
54958,53228,23465
54952,53219,23445
54933,53203,23410
54900,53179,23360
54858,53148,23298
54806,53113,23230
54747,53080,23159
54682,53047,23088
54609,53012,23014
54539,52975,22941
54479,52942,22873
54426,52910,22809
54376,52877,22745
54326,52839,22682
54284,52803,22623
54255,52773,22570
54232,52745,22517
54210,52714,22460
54189,52684,22403
54174,52663,22354
54167,52651,22319
54158,52639,22294
54149,52625,22279
54143,52613,22272
54138,52600,22269
54136,52586,22268
54141,52578,22268
54149,52575,22268
54157,52575,22268
54160,52574,22263
54157,52572,22248
54147,52570,22226
54130,52563,22198
54106,52551,22163
54080,52535,22124
54051,52512,22083
54018,52483,22040
53984,52452,21992
53947,52420,21938
53909,52387,21880
53870,52356,21820
53826,52325,21761
53781,52296,21706
53738,52271,21652
53694,52241,21591
53650,52205,21521
53613,52170,21451
53581,52138,21386
53549,52103,21322
53512,52066,21256
53472,52029,21191
53429,51993,21124
53381,51954,21053
53331,51912,20980
53284,51870,20907
53240,51827,20831
53198,51785,20755
53159,51745,20683
53121,51707,20614
53084,51673,20549
53047,51643,20487
53010,51614,20422
52968,51581,20349
52922,51546,20268
52870,51510,20188
52817,51479,20115
52770,51454,20050
52728,51433,19990
52691,51414,19937
52652,51393,19883
52605,51362,19826
52553,51323,19765
52500,51281,19705
52449,51238,19644
52404,51200,19585
52372,51170,19533
52352,51145,19488
52344,51125,19448
52340,51105,19410
52330,51079,19368
52312,51048,19321
52285,51015,19267
52256,50986,19214
52233,50962,19168
52212,50941,19127
52191,50920,19089
52174,50902,19050
52158,50885,19006
52136,50868,18956
52110,50849,18900
52081,50827,18843
52052,50804,18787
52019,50779,18730
51983,50751,18673
51951,50728,18620
51920,50704,18567
51881,50673,18504
51836,50635,18432
51787,50595,18358
51739,50556,18286
51699,50522,18225
51670,50495,18175
51648,50472,18134
51633,50455,18105
51633,50455,18101
51658,50480,18133
51716,50539,18213
51810,50634,18354
51942,50767,18558
52109,50935,18818
52303,51127,19126
52524,51336,19477
52767,51559,19869
53021,51788,20285
53276,52013,20700
53528,52234,21108
53772,52447,21502
53997,52646,21874
54201,52826,22216
54384,52983,22527
54541,53117,22805
54673,53228,23049
54787,53324,23264
54880,53407,23450
54945,53466,23599
54987,53503,23716
55018,53527,23805
55041,53539,23868
55055,53543,23909
55067,53542,23937
55076,53537,23956
55080,53529,23969
55079,53518,23977
55073,53506,23976
55063,53491,23966
55049,53476,23951
55032,53464,23935
55015,53457,23922
55004,53452,23910
54997,53447,23897
54992,53443,23883
54991,53442,23873
54994,53444,23869
54994,53443,23865
54995,53445,23865
54999,53450,23876
55005,53455,23896
55015,53464,23925
55024,53476,23955
55026,53481,23975
55029,53481,23983
55032,53478,23976
55035,53473,23956
55033,53466,23931
55023,53455,23901
55004,53437,23864
54979,53411,23817
54952,53379,23765
54912,53343,23705
54855,53298,23633
54786,53246,23549
54709,53190,23458
54627,53136,23365
54550,53087,23273
54482,53043,23189
54426,53006,23116
54383,52975,23052
54344,52947,22991
54307,52919,22936
54273,52894,22887
54245,52872,22846
54227,52856,22816
54217,52842,22795
54209,52824,22778
54201,52804,22765
54192,52784,22755
54185,52770,22748
54183,52765,22745
54185,52765,22743
54180,52769,22739
54175,52776,22731
54170,52783,22715
54161,52781,22687
54146,52772,22651
54127,52761,22612
54104,52746,22571
54082,52727,22531
54061,52702,22491
54035,52670,22455
54004,52636,22424
53966,52600,22389
53924,52563,22345
53884,52529,22300
53846,52499,22256
53803,52472,22207
53757,52449,22155
53717,52430,22099
53681,52408,22036
53647,52378,21966
53612,52341,21895
53577,52301,21826
53541,52263,21757
53501,52226,21683
53459,52189,21607
53421,52158,21536
53384,52128,21469
53343,52092,21398
53302,52053,21326
53266,52011,21255
53228,51965,21183
53181,51913,21111
53130,51857,21037
53080,51797,20959
53035,51742,20882
53000,51696,20810
52971,51661,20743
52942,51633,20679
52908,51608,20611
52869,51583,20541
52825,51562,20472
52780,51544,20407
52734,51527,20345
52686,51507,20282
52639,51478,20217
52592,51441,20150
52549,51400,20087
52513,51359,20031
52479,51316,19980
52449,51274,19934
52424,51239,19894
52402,51213,19858
52378,51191,19820
52348,51169,19776
52311,51147,19727
52265,51124,19674
52212,51103,19621
52159,51079,19563
52114,51054,19499
52080,51036,19438
52059,51026,19382
52041,51014,19325
52022,50997,19266
52005,50977,19210
51994,50955,19158
51986,50930,19106
51978,50901,19058
51968,50874,19020
51952,50849,18988
51930,50825,18956
51906,50803,18926
51881,50782,18894
51850,50756,18852
51817,50729,18796
51786,50703,18735
51757,50680,18677
51734,50659,18626
51708,50639,18578
51669,50614,18530
51619,50582,18479
51564,50545,18424
51506,50509,18368
51455,50478,18314
51414,50452,18262
51382,50426,18201
51352,50396,18132
51325,50365,18064
51298,50337,18001
51268,50311,17940
51242,50288,17883
51218,50268,17831
51197,50251,17791
51190,50249,17777
51217,50272,17804
51280,50322,17880
51373,50395,18010
51492,50494,18200
51642,50626,18450
51826,50797,18759
52045,51001,19120
52290,51223,19514
52544,51454,19921
52797,51686,20327
53046,51911,20726
53282,52126,21114
53497,52325,21485
53690,52507,21829
53864,52670,22139
54017,52812,22412
54150,52932,22651
54263,53030,22857
54359,53111,23032
54444,53180,23188
54519,53238,23326
54579,53283,23438
54624,53313,23520
54652,53332,23576
54665,53342,23612
54664,53345,23629
54650,53339,23628
54628,53326,23612
54603,53310,23586
54579,53292,23558
54559,53271,23531
54545,53248,23505
54530,53219,23478
54512,53187,23457
54494,53160,23447
54480,53144,23447
54471,53135,23449
54465,53130,23450
54464,53130,23450
54464,53137,23453
54466,53151,23456
54467,53167,23456
54467,53181,23451
54466,53191,23444
54463,53199,23439
54462,53207,23444
54460,53216,23452
54455,53221,23455
54451,53221,23453
54446,53210,23441
54433,53187,23418
54409,53157,23382
54370,53120,23334
54316,53075,23273
54254,53022,23203
54187,52969,23126
54122,52917,23045
54064,52868,22964
54014,52824,22886
53971,52785,22813
53937,52748,22741
53907,52711,22676
53878,52677,22620
53846,52648,22569
53813,52622,22524
53785,52601,22486
53768,52584,22455
53761,52577,22436
53762,52579,22428
53768,52583,22426
53773,52587,22428
53771,52591,22431
53761,52596,22431
53748,52605,22425
53731,52609,22413
53705,52608,22395
53672,52601,22373
53635,52586,22350
53597,52564,22327
53560,52537,22299
53530,52506,22267
53501,52474,22233
53471,52444,22197
53442,52416,22158
53412,52389,22113
53378,52358,22060
53348,52327,22006
53326,52298,21955
53310,52268,21902
53292,52233,21850
53269,52193,21796
53245,52154,21743
53230,52123,21691
53221,52100,21637
53206,52078,21577
53177,52051,21506
53139,52021,21428
53097,51993,21354
53045,51963,21283
52987,51928,21209
52936,51891,21140
52892,51854,21076
52845,51809,21010
52796,51757,20936
52755,51706,20858
52719,51658,20778
52686,51612,20702
52652,51570,20630
52609,51526,20561
52559,51482,20497
52511,51444,20441
52465,51412,20391
52423,51385,20344
52383,51361,20297
52344,51339,20246
52305,51317,20187
52266,51295,20127
52229,51270,20068
52187,51237,20002
52143,51197,19931
52108,51162,19860
52076,51135,19790
52043,51114,19723
52011,51094,19659
51978,51071,19594
51948,51045,19533
51925,51022,19481
51906,51001,19433
51883,50976,19385
51859,50954,19344
51837,50935,19311
51810,50915,19278
51774,50885,19235
51730,50846,19182
51690,50808,19126
51656,50777,19073
51619,50750,19020
51576,50723,18963
51531,50693,18901
51484,50659,18839
51438,50624,18777
51394,50592,18721
51349,50564,18669
51309,50541,18618
51282,50528,18572
51265,50522,18532
51254,50516,18493
51248,50511,18451
51244,50505,18405
51237,50497,18354
51229,50485,18303
51222,50474,18256
51215,50463,18215
51208,50452,18176
51197,50439,18134
51180,50419,18090
51158,50394,18046
51133,50366,18001
51103,50333,17952
51066,50295,17896
51026,50256,17834
50981,50214,17766
50927,50167,17691
50866,50115,17612
50804,50063,17533
50752,50015,17457
50712,49975,17390
50683,49943,17335
50661,49912,17289
50637,49876,17252
50613,49843,17228
50604,49828,17229
50616,49840,17261
50650,49880,17325
50715,49956,17435
50815,50070,17599
50945,50217,17812
51105,50391,18073
51300,50587,18382
51525,50799,18733
51767,51020,19118
52019,51248,19527
52276,51475,19945
52526,51693,20355
52761,51902,20746
52978,52099,21109
53170,52275,21439
53338,52428,21738
53482,52559,22007
53599,52659,22241
53690,52732,22443
53764,52788,22616
53829,52834,22763
53880,52868,22880
53914,52884,22963
53930,52884,23012
53935,52873,23034
53931,52858,23035
53921,52841,23021
53908,52822,22998
53892,52805,22969
53874,52787,22935
53854,52769,22898
53830,52749,22859
53806,52729,22822
53782,52708,22787
53757,52687,22758
53733,52671,22734
53711,52659,22716
53692,52649,22703
53677,52640,22695
53666,52635,22689
53657,52637,22691
53646,52646,22701
53637,52659,22713
53629,52668,22718
53619,52669,22712
53612,52667,22705
53614,52668,22701
53618,52670,22696
53620,52669,22681
53621,52661,22657
53615,52644,22625
53602,52621,22587
53584,52596,22546
53561,52568,22502
53532,52540,22455
53496,52510,22402
53447,52477,22340
53393,52444,22274
53342,52414,22210
53297,52391,22149
53256,52367,22083
53215,52339,22017
53180,52313,21957
53152,52291,21908
53133,52272,21871
53122,52256,21846
53118,52244,21826
53120,52239,21811
53125,52237,21802
53126,52232,21794
53125,52225,21786
53124,52221,21779
53126,52219,21776
53127,52218,21774
53129,52216,21769
53130,52212,21762
53130,52206,21753
53131,52197,21742
53134,52187,21728
53132,52176,21710
53123,52167,21690
53107,52156,21665
53084,52137,21632
53058,52115,21594
53031,52093,21557
53006,52075,21523
52980,52055,21486
52947,52024,21442
52905,51979,21390
52857,51927,21333
52808,51875,21274
52760,51826,21217
52715,51787,21168
52675,51757,21125
52637,51733,21083
52605,51714,21041
52580,51698,21004
52554,51680,20964
52522,51656,20916
52489,51629,20860
52460,51603,20799
52431,51577,20730
52400,51550,20651
52366,51522,20573
52329,51492,20497
52285,51457,20414
52233,51417,20320
52180,51380,20226
52136,51353,20143
52101,51335,20071
52069,51321,20009
52037,51305,19950
52002,51284,19895
51963,51257,19843
51917,51222,19790
51869,51183,19739
51818,51146,19691
51769,51111,19649
51727,51080,19611
51691,51055,19577
51661,51035,19542
51642,51022,19504
51631,51012,19461
51622,50997,19409
51609,50974,19353
51596,50950,19299
51586,50925,19250
51580,50902,19207
51574,50883,19171
51567,50866,19141
51557,50848,19113
51542,50826,19085
51523,50803,19059
51501,50781,19029
51471,50755,18989
51429,50722,18938
51382,50684,18882
51334,50649,18825
51286,50622,18770
51241,50599,18711
51199,50577,18650
51163,50557,18594
51137,50540,18545
51118,50525,18501
51099,50512,18457
51088,50500,18422
51098,50498,18411
51137,50514,18432
51196,50549,18493
51270,50605,18601
51362,50688,18759
51481,50805,18967
51629,50951,19217
51802,51123,19506
51993,51314,19822
52196,51515,20152
52402,51713,20487
52603,51904,20822
52802,52086,21156
52999,52259,21483
53192,52419,21798
53370,52564,22102
53528,52692,22387
53666,52799,22641
53785,52886,22856
53883,52955,23029
53963,53005,23166
54029,53044,23277
54077,53071,23361
54105,53089,23427
54120,53101,23481
54121,53103,23517
54111,53091,23532
54094,53074,23530
54073,53055,23518
54050,53038,23500
54031,53029,23477
54019,53024,23452
54006,53017,23423
53985,53006,23389
53960,52997,23352
53939,52991,23318
53924,52989,23289
53913,52987,23267
53904,52984,23246
53893,52979,23225
53876,52974,23203
53856,52969,23181
53836,52969,23168
53824,52977,23172
53817,52986,23188
53811,52988,23205
53807,52983,23216
53804,52972,23220
53800,52956,23217
53795,52934,23206
53786,52910,23189
53770,52882,23165
53742,52847,23129
53701,52804,23078
53652,52754,23014
53600,52703,22938
53548,52654,22852
53496,52608,22759
53443,52563,22662
53389,52519,22567
53336,52481,22483
53283,52448,22408
53237,52423,22341
53202,52406,22283
53174,52390,22233
53151,52373,22188
53134,52357,22149
53122,52344,22122
53122,52343,22110
53132,52357,22110
53148,52378,22121
53162,52401,22139
53165,52417,22157
53153,52424,22168
53132,52425,22174
53110,52425,22179
53092,52423,22183
53081,52420,22185
53074,52418,22184
53065,52413,22174
53052,52397,22154
53036,52372,22125
53014,52341,22088
52988,52309,22045
52961,52277,21997
52942,52249,21949
52931,52223,21905
52921,52198,21864
52907,52174,21822
52887,52154,21779
52864,52134,21728
52834,52107,21661
52792,52072,21580
52747,52034,21498
52709,52003,21425
52677,51979,21358
52638,51954,21293
52586,51922,21230
52533,51887,21170
52487,51848,21109
52446,51803,21044
52411,51760,20981
52375,51717,20919
52333,51668,20850
52289,51616,20772
52245,51568,20687
52200,51522,20597
52153,51484,20511
52103,51452,20435
52052,51426,20368
52009,51403,20310
51974,51378,20254
51939,51349,20193
51904,51314,20127
51871,51277,20059
51844,51243,19993
51818,51214,19931
51790,51190,19874
51765,51174,19821
51744,51164,19769
51720,51149,19711
51694,51128,19650
51668,51105,19595
51640,51075,19547
51615,51047,19509
51593,51020,19478
51569,50988,19441
51541,50952,19396
51510,50921,19351
51478,50896,19308
51444,50873,19264
51411,50853,19218
51380,50833,19169
51355,50812,19120
51340,50790,19074
51330,50765,19025
51311,50734,18967
51287,50703,18908
51266,50680,18859
51250,50665,18825
51236,50656,18803
51230,50659,18801
51243,50679,18829
51276,50721,18889
51334,50789,18986
51419,50886,19128
51524,51005,19313
51653,51145,19541
51811,51308,19806
51996,51489,20101
52201,51680,20425
52418,51877,20767
52638,52071,21115
52857,52255,21465
53071,52428,21814
53277,52597,22156
53469,52757,22481
53644,52903,22784
53798,53033,23063
53933,53151,23315
54052,53257,23533
54154,53344,23712
54238,53412,23853
54309,53465,23966
54370,53501,24051
54415,53523,24115
54441,53539,24159
54454,53549,24184
54459,53546,24189
54455,53529,24180
54440,53509,24163
54416,53491,24145
54396,53477,24130
54386,53467,24119
54380,53460,24110
54371,53452,24102
54361,53446,24098
54344,53440,24094
54324,53434,24083
54315,53433,24070
54321,53437,24063
54333,53447,24066
54345,53460,24076
54352,53472,24085
54353,53481,24090
54349,53484,24090
54346,53482,24090
54341,53475,24091
54337,53465,24090
54326,53453,24085
54306,53438,24072
54280,53423,24048
54246,53398,24010
54203,53364,23957
54155,53326,23894
54108,53288,23827
54060,53247,23759
54015,53204,23689
53975,53161,23620
53935,53113,23549
53889,53058,23481
53844,53007,23422
53800,52962,23366
53752,52925,23309
53706,52898,23251
53666,52873,23188
53634,52852,23128
53618,52839,23080
53612,52830,23045
53604,52821,23021
53595,52812,23004
53586,52802,22988
53576,52792,22974
53569,52787,22958
53561,52782,22938
53552,52776,22916
53546,52768,22898
53537,52756,22881
53522,52741,22859
53504,52726,22833
53488,52716,22808
53472,52707,22785
53448,52692,22759
53418,52674,22729
53391,52656,22698
53363,52637,22664
53336,52615,22626
53313,52592,22588
53295,52568,22552
53277,52543,22513
53257,52516,22468
53231,52488,22419
53194,52463,22367
53151,52438,22308
53107,52409,22240
53063,52375,22168
53017,52338,22094
52969,52300,22020
52921,52262,21949
52878,52223,21882
52842,52179,21816
52805,52128,21746
52768,52076,21678
52736,52032,21619
52709,52000,21568
52685,51978,21521
52662,51959,21474
52633,51935,21421
52596,51905,21357
52551,51869,21283
52502,51831,21205
52449,51792,21126
52396,51753,21046
52346,51716,20965
52300,51682,20891
52263,51656,20829
52228,51635,20776
52186,51613,20723
52140,51590,20665
52096,51567,20601
52056,51545,20535
52020,51521,20472
51990,51496,20415
51966,51463,20361
51940,51426,20313
51914,51390,20272
51890,51355,20231
51865,51322,20190
51841,51294,20147
51815,51267,20102
51787,51242,20058
51762,51225,20019
51744,51219,19983
51725,51213,19940
51705,51198,19893
51689,51181,19848
51680,51166,19811
51673,51154,19783
51668,51145,19762
51662,51134,19739
51647,51122,19711
51623,51111,19676
51597,51103,19634
51571,51092,19585
51544,51074,19531
51510,51048,19470
51475,51018,19405
51442,50984,19338
51407,50942,19268
51364,50894,19197
51318,50847,19136
51278,50810,19092
51248,50789,19068
51235,50788,19068
51251,50813,19105
51304,50874,19194
51396,50973,19342
51521,51102,19544
51677,51258,19796
51860,51438,20088
52064,51635,20414
52286,51837,20767
52522,52042,21141
52766,52250,21528
53009,52454,21917
53242,52650,22298
53454,52833,22657
53649,53001,22989
53831,53156,23298
53999,53296,23579
54149,53419,23825
54278,53525,24036
54386,53614,24213
54474,53679,24359
54540,53719,24475
54581,53737,24560
54604,53737,24618
54611,53725,24657
54610,53709,24682
54609,53703,24706
54609,53707,24729
54606,53710,24749
54604,53715,24763
54605,53725,24776
54610,53739,24789
54619,53756,24803
54627,53771,24810
54626,53777,24804
54619,53774,24786
54610,53767,24768
54599,53759,24754
54589,53754,24746
54583,53753,24744
54578,53757,24748
54575,53765,24760
54578,53779,24782
54587,53800,24810
54595,53821,24838
54602,53839,24856
54608,53852,24863
54618,53858,24867
54627,53857,24866
54626,53846,24851
54611,53826,24819
54588,53796,24775
54565,53761,24724
54542,53721,24665
54515,53673,24600
54474,53614,24530
54419,53552,24458
54360,53497,24384
54300,53444,24303
54240,53395,24220
54186,53355,24147
54134,53326,24084
54080,53301,24020
54027,53280,23953
53983,53264,23892
53948,53256,23842
53921,53253,23801
53899,53250,23764
53877,53240,23720
53854,53223,23672
53835,53202,23631
53824,53180,23605
53820,53160,23594
53821,53144,23591
53825,53136,23594
53829,53131,23597
53832,53126,23596
53832,53118,23588
53824,53098,23567
53808,53066,23534
53785,53026,23496
53760,52989,23457
53737,52959,23423
53713,52932,23389
53686,52906,23351
53657,52883,23307
53630,52863,23263
53603,52846,23218
53578,52831,23174
53550,52814,23130
53514,52794,23082
53468,52771,23028
53418,52747,22967
53370,52723,22905
53330,52699,22844
53299,52674,22783
53271,52646,22720
53238,52606,22651
53200,52558,22584
53163,52512,22525
53129,52469,22466
53090,52428,22402
53047,52388,22333
52995,52350,22260
52931,52313,22184
52866,52280,22106
52811,52250,22026
52763,52219,21941
52714,52186,21851
52665,52153,21762
52612,52119,21681
52560,52083,21606
52517,52048,21535
52484,52012,21466
52454,51972,21395
52428,51929,21329
52410,51892,21274
52399,51862,21229
52388,51834,21183
52369,51804,21127
52339,51771,21059
52302,51738,20991
52269,51710,20931
52238,51682,20872
52208,51657,20809
52180,51639,20748
52149,51623,20688
52111,51607,20629
52076,51593,20580
52047,51584,20541
52015,51576,20508
51977,51562,20476
51940,51545,20444
51910,51531,20416
51889,51520,20389
51869,51506,20357
51848,51482,20316
51832,51454,20275
51820,51425,20236
51806,51396,20195
51785,51363,20145
51757,51324,20087
51724,51283,20026
51684,51240,19962
51646,51199,19897
51614,51163,19840
51585,51131,19792
51554,51099,19747
51517,51065,19700
51481,51031,19649
51448,51002,19593
51416,50978,19534
51385,50956,19474
51356,50936,19418
51333,50923,19375
51324,50927,19359
51341,50954,19382
51392,51009,19457
51476,51098,19585
51593,51217,19765
51744,51366,20000
51925,51543,20286
52129,51739,20611
52350,51944,20960
52577,52151,21322
52807,52357,21690
53045,52560,22062
53285,52759,22432
53517,52946,22790
53726,53109,23123
53909,53249,23427
54070,53374,23702
54205,53483,23945
54316,53581,24154
54407,53667,24329
54478,53736,24466
54531,53788,24570
54573,53824,24651
54607,53843,24712
54630,53845,24751
54646,53839,24774
54654,53832,24789
54651,53824,24794
54640,53815,24786
54630,53807,24771
54622,53798,24759
54610,53785,24751
54594,53766,24744
54581,53746,24741
54571,53731,24737
54561,53724,24732
54554,53728,24732
54556,53744,24744
54569,53769,24765
54587,53796,24791
54598,53821,24818
54604,53839,24842
54609,53855,24863
54613,53869,24880
54617,53881,24893
54626,53889,24898
54634,53890,24896
54634,53876,24882
54619,53849,24855
54591,53813,24815
54550,53766,24759
54499,53714,24686
54444,53662,24605
54389,53613,24526
54334,53567,24454
54281,53526,24386
54227,53485,24317
54169,53438,24242
54116,53393,24169
54068,53355,24102
54026,53320,24041
53992,53290,23984
53960,53260,23928
53929,53231,23874
53906,53206,23832
53890,53185,23802
53876,53166,23777
53867,53149,23755
53861,53135,23739
53852,53124,23730
53842,53119,23727
53840,53127,23732
53845,53142,23738
53852,53153,23739
53857,53159,23738
53858,53159,23730
53854,53153,23720
53850,53148,23716
53844,53147,23716
53832,53145,23712
53817,53137,23702
53800,53125,23683
53779,53109,23650
53759,53092,23606
53743,53072,23558
53724,53042,23507
53697,53005,23456
53665,52966,23407
53624,52927,23354
53577,52893,23299
53533,52866,23247
53491,52842,23195
53450,52815,23138
53410,52781,23078
53371,52742,23020
53332,52703,22964
53294,52666,22903
53256,52631,22837
53221,52602,22769
53187,52576,22697
53146,52541,22615
53101,52498,22527
53061,52457,22445
53026,52423,22374
52994,52391,22307
52964,52360,22243
52935,52323,22182
52902,52283,22129
52866,52244,22080
52827,52206,22029
52785,52170,21974
52744,52136,21913
52709,52108,21855
52683,52089,21802
52655,52074,21751
52619,52055,21695
52583,52033,21634
52557,52010,21578
52538,51985,21532
52519,51962,21495
52500,51944,21461
52479,51929,21425
52450,51912,21378
52418,51893,21327
52391,51875,21278
52369,51856,21235
52349,51835,21198
52324,51808,21157
52287,51775,21106
52239,51736,21046
52188,51697,20984
52140,51660,20925
52099,51629,20870
52065,51600,20817
52036,51566,20762
52006,51528,20709
51976,51493,20660
51954,51469,20624
51944,51467,20613
51960,51496,20640
52008,51560,20712
52087,51649,20830
52192,51759,20991
52324,51885,21196
52477,52026,21441
52647,52182,21719
52837,52351,22024
53043,52535,22349
53255,52724,22682
53470,52910,23015
53687,53092,23343
53896,53264,23660
54086,53423,23957
54257,53573,24235
54410,53709,24491
54538,53821,24715
54643,53910,24906
54728,53981,25068
54795,54034,25198
54846,54074,25301
54882,54102,25377
54909,54126,25429
54933,54149,25466
54950,54168,25492
54961,54178,25507
54973,54181,25514
54981,54175,25514
54978,54157,25506
54961,54132,25494
54939,54104,25483
54921,54082,25478
54905,54062,25472
54890,54044,25463
54876,54031,25453
54869,54026,25448
54872,54031,25452
54882,54042,25466
54894,54056,25486
54904,54070,25507
54907,54087,25527
54904,54102,25541
54899,54113,25548
54898,54120,25553
54899,54120,25557
54903,54114,25562
54907,54104,25563
54905,54092,25554
54892,54077,25529
54867,54053,25481
54833,54022,25418
54795,53984,25348
54751,53939,25270
54701,53893,25188
54640,53843,25101
54570,53794,25009
54503,53752,24919
54439,53712,24828
54378,53668,24738
54324,53623,24661
54282,53585,24602
54249,53556,24555
54221,53530,24511
54201,53506,24468
54189,53486,24432
54181,53470,24408
54174,53455,24395
54165,53444,24389
54152,53435,24382
54135,53429,24369
54121,53425,24352
54115,53423,24333
54114,53423,24316
54112,53425,24303
54105,53424,24290
54093,53417,24267
54086,53411,24239
54085,53405,24215
54085,53394,24193
54082,53377,24170
54075,53358,24146
54064,53339,24121
54049,53327,24093
54030,53316,24057
54002,53297,24006
53964,53268,23942
53925,53236,23875
53890,53205,23813
53858,53174,23757
53820,53137,23703
53778,53094,23652
53735,53053,23603
53688,53016,23548
53634,52977,23487
53574,52935,23425
53516,52896,23359
53467,52864,23285
53426,52839,23204
53386,52818,23123
53340,52791,23047
53291,52760,22976
53243,52730,22911
53200,52706,22851
53166,52685,22791
53133,52654,22728
53096,52612,22659
53059,52566,22589
53025,52525,22516
52997,52489,22439
52971,52456,22366
52947,52422,22301
52926,52386,22245
52905,52353,22194
52878,52324,22146
52839,52298,22098
52792,52271,22044
52746,52241,21985
52702,52208,21928
52661,52171,21878
52624,52132,21829
52591,52093,21777
52563,52059,21726
52539,52032,21676
52516,52009,21623
52492,51984,21566
52464,51957,21507
52437,51933,21451
52409,51908,21399
52383,51882,21353
52353,51854,21303
52317,51827,21249
52276,51805,21192
52233,51784,21130
52196,51763,21070
52168,51746,21021
52151,51739,20988
52147,51742,20977
52162,51755,20995
52196,51783,21047
52246,51830,21131
52318,51902,21254
52414,52002,21422
52533,52125,21626
52678,52267,21865
52849,52427,22138
53038,52600,22441
53241,52782,22767
53452,52966,23109
53662,53149,23457
53866,53330,23800
54065,53511,24130
54253,53680,24438
54426,53833,24722
54580,53966,24978
54717,54081,25204
54841,54181,25404
54950,54265,25578
55042,54332,25721
55116,54386,25835
55173,54429,25924
55211,54459,25987
55230,54476,26022
55233,54482,26038
55231,54483,26047
55230,54479,26059
55221,54465,26071
55208,54445,26081
55198,54429,26090
55193,54417,26096
55188,54411,26100
55175,54408,26102
55157,54409,26106
55142,54415,26111
55130,54419,26107
55121,54417,26100
55125,54417,26101
55139,54421,26111
55148,54421,26123
55150,54418,26133
55152,54413,26143
55151,54409,26151
55149,54406,26158
55143,54399,26162
55136,54388,26159
55130,54376,26145
55123,54363,26119
55113,54347,26086
55099,54327,26047
55076,54300,26004
55045,54267,25954
55002,54227,25891
54950,54183,25815
54893,54142,25733
54830,54099,25644
54764,54054,25557
54702,54009,25473
54646,53960,25392
54589,53907,25314
54536,53857,25246
54491,53810,25187
54449,53764,25128
54412,53724,25070
54381,53694,25018
54351,53672,24974
54320,53656,24936
54295,53646,24903
54278,53635,24870
54270,53624,24837
54268,53615,24806
54268,53607,24782
54264,53592,24762
54258,53575,24745
54256,53564,24736
54256,53562,24732
54256,53566,24725
54255,53575,24711
54249,53581,24685
54229,53579,24645
54199,53569,24597
54169,53560,24554
54143,53550,24512
54118,53532,24468
54090,53502,24419
54057,53463,24366
54019,53421,24310
53983,53382,24254
53951,53344,24197
53916,53304,24135
53878,53265,24071
53843,53228,24013
53813,53193,23962
53779,53157,23909
53736,53119,23854
53688,53078,23800
53638,53034,23745
53589,52988,23686
53545,52947,23628
53507,52914,23570
53471,52885,23511
53432,52857,23451
53386,52828,23388
53337,52801,23323
53289,52775,23252
53238,52744,23167
53182,52705,23068
53129,52661,22967
53084,52619,22879
53047,52581,22806
53013,52543,22740
52980,52504,22676
52945,52463,22613
52905,52419,22551
52864,52375,22492
52822,52337,22431
52777,52306,22364
52731,52279,22291
52689,52256,22219
52655,52237,22154
52625,52218,22097
52605,52199,22048
52591,52177,22003
52578,52151,21959
52558,52121,21917
52530,52087,21877
52499,52053,21834
52467,52019,21788
52438,51989,21739
52414,51966,21692
52390,51947,21646
52357,51926,21596
52315,51901,21537
52271,51871,21466
52233,51837,21392
52199,51802,21320
52163,51770,21251
52127,51745,21186
52094,51729,21131
52067,51719,21086
52044,51712,21050
52025,51710,21019
52011,51710,20992
51999,51709,20966
51979,51700,20930
51950,51679,20879
51918,51648,20816
51887,51612,20752
51860,51576,20694
51837,51544,20641
51817,51513,20592
51795,51482,20544
51769,51447,20494
51741,51407,20442
51705,51359,20385
51662,51306,20327
51623,51260,20273
51593,51225,20229
51569,51199,20192
51550,51184,20164
51541,51183,20155
51551,51199,20170
51587,51237,20220
51651,51309,20318
51745,51416,20469
51876,51558,20673
52039,51725,20925
52229,51911,21219
52442,52113,21549
52676,52325,21906
52921,52539,22279
53168,52752,22659
53408,52958,23037
53633,53146,23401
53845,53318,23745
54039,53472,24064
54212,53610,24352
54366,53732,24608
54501,53832,24829
54608,53905,25017
54684,53956,25170
54734,53990,25287
54766,54011,25370
54785,54024,25427
54793,54034,25464
54794,54041,25485
54788,54043,25495
54781,54042,25502
54779,54046,25512
54782,54052,25526
54789,54059,25543
54792,54065,25562
54790,54064,25574
54785,54057,25578
54779,54047,25575
54773,54035,25567
54765,54021,25558
54755,54006,25552
54751,53996,25554
54757,53998,25568
54768,54009,25593
54782,54026,25627
54798,54046,25666
54814,54068,25704
54823,54082,25732
54824,54083,25745
54824,54080,25748
54829,54081,25747
54832,54082,25738
54826,54078,25715
54810,54070,25683
54782,54057,25637
54740,54036,25576
54689,54006,25504
54634,53967,25425
54575,53921,25336
54513,53867,25236
54450,53809,25132
54388,53752,25029
54331,53705,24937
54287,53672,24859
54251,53646,24791
54222,53625,24734
54201,53610,24688
54191,53604,24656
54186,53602,24634
54176,53598,24610
54162,53587,24583
54149,53575,24565
54142,53565,24560
54139,53560,24565
54142,53557,24575
54147,53553,24584
54147,53539,24586
54134,53514,24579
54111,53484,24566
54082,53451,24547
54053,53415,24519
54029,53383,24486
54016,53363,24457
54012,53352,24432
54014,53349,24410
54014,53346,24386
54002,53335,24351
53977,53314,24307
53945,53288,24258
53912,53262,24205
53878,53238,24150
53840,53216,24090
53796,53190,24026
53753,53162,23963
53716,53131,23903
53684,53097,23846
53655,53063,23789
53623,53028,23729
53581,52987,23662
53534,52940,23591
53488,52896,23517
53445,52857,23444
53408,52823,23374
53374,52794,23306
53338,52765,23239
53298,52736,23171
53253,52702,23102
53199,52662,23034
53144,52622,22972
53088,52582,22911
53028,52537,22846
52967,52485,22772
52908,52431,22692
52852,52379,22610
52801,52330,22528
52754,52284,22446
52716,52245,22370
52694,52219,22304
52680,52203,22248
52666,52192,22199
52653,52185,22152
52639,52174,22102
52613,52152,22044
52574,52120,21981
52529,52087,21924
52487,52062,21881
52450,52044,21847
52414,52025,21806
52375,52001,21753
52338,51974,21695
52306,51949,21640
52276,51925,21586
52242,51903,21536
52205,51883,21489
52169,51865,21442
52133,51847,21387
52094,51821,21320
52051,51786,21241
52008,51742,21162
51971,51698,21090
51945,51660,21029
51925,51625,20974
51899,51586,20918
51866,51544,20862
51834,51508,20807
51803,51478,20753
51768,51454,20700
51731,51432,20647
51696,51415,20598
51664,51402,20552
51631,51387,20501
51595,51366,20444
51561,51341,20386
51529,51313,20329
51498,51280,20272
51465,51243,20212
51433,51205,20153
51407,51169,20097
51386,51133,20042
51363,51095,19984
51333,51054,19926
51295,51012,19873
51255,50976,19826
51216,50947,19782
51176,50922,19734
51134,50898,19681
51086,50872,19622
51032,50847,19561
50980,50825,19502
50929,50801,19444
50879,50772,19384
50829,50741,19324
50785,50711,19267
50750,50685,19212
50722,50662,19152
50693,50637,19080
50663,50606,19005
50636,50575,18939
50620,50555,18894
50625,50554,18883
50655,50575,18916
50710,50620,18998
50797,50695,19135
50923,50807,19332
51088,50958,19591
51289,51147,19904
51518,51363,20256
51759,51589,20630
52003,51819,21017
52250,52050,21416
52496,52278,21818
52733,52493,22207
52960,52690,22578
53171,52865,22926
53352,53011,23243
53503,53129,23523
53631,53227,23771
53742,53311,23990
53834,53380,24177
53902,53431,24323
53948,53462,24427
53979,53476,24495
53998,53482,24538
54009,53487,24571
54016,53490,24600
54015,53488,24616
54005,53480,24615
53988,53466,24603
53963,53454,24586
53934,53442,24562
53906,53427,24531
53885,53413,24500
53873,53404,24478
53869,53399,24461
53867,53393,24449
53858,53381,24440
53847,53365,24437
53840,53352,24437
53836,53345,24436
53833,53341,24436
53827,53340,24435
53821,53341,24431
53821,53344,24429
53827,53351,24436
53835,53358,24447
53846,53367,24458
53863,53375,24466
53879,53377,24467
53880,53365,24459
53867,53346,24442
53850,53327,24418
53827,53307,24380
53793,53283,24329
53743,53250,24267
53683,53215,24196
53626,53183,24118
53572,53149,24034
53519,53110,23948
53471,53072,23867
53436,53037,23796
53412,53003,23734
53387,52966,23676
53360,52927,23626
53336,52895,23584
53317,52871,23554
53304,52859,23538
53299,52859,23534
53302,52867,23538
53309,52878,23546
53314,52892,23557
53307,52901,23563
53297,52902,23562
53294,52903,23560
53300,52908,23559
53311,52913,23557
53319,52911,23550
53321,52906,23542
53322,52901,23534
53322,52894,23521
53319,52886,23501
53310,52881,23477
53292,52875,23445
53264,52863,23400
53228,52841,23346
53192,52813,23290
53162,52782,23236
53135,52749,23186
53110,52719,23142
53088,52692,23104
53065,52664,23061
53038,52636,23014
53003,52605,22964
52956,52569,22908
52905,52534,22848
52857,52507,22788
52814,52484,22726
52765,52450,22651
52714,52409,22567
52670,52369,22488
52631,52334,22414
52592,52301,22340
52555,52267,22267
52522,52228,22198
52484,52181,22129
52439,52129,22058
52391,52078,21984
52342,52032,21913
52293,51993,21847
52249,51962,21781
52210,51935,21713
52176,51908,21647
52145,51881,21586
52108,51852,21524
52067,51820,21459
52031,51786,21394
52004,51750,21331
51979,51715,21274
51953,51686,21224
51926,51660,21180
51898,51633,21138
51869,51606,21095
51840,51579,21050
51808,51547,21002
51772,51510,20948
51732,51469,20888
51691,51431,20826
51655,51399,20767
51622,51370,20712
51591,51345,20657
51566,51326,20603
51546,51313,20554
51529,51301,20511
51511,51289,20469
51487,51275,20424
51456,51263,20379
51423,51251,20335
51389,51238,20289
51357,51224,20242
51329,51212,20197
51300,51200,20152
51269,51185,20104
51240,51165,20051
51216,51139,19994
51194,51111,19938
51169,51081,19884
51144,51048,19830
51121,51009,19775
51094,50962,19719
51066,50916,19668
51046,50879,19629
51030,50847,19595
51007,50823,19557
50976,50802,19515
50943,50782,19472
50915,50767,19430
50892,50755,19388
50865,50737,19340
50836,50715,19287
50808,50691,19235
50780,50665,19185
50747,50635,19134
50708,50599,19074
50663,50563,19010
50621,50534,18948
50586,50513,18890
50555,50497,18842
50536,50491,18812
50542,50506,18814
50586,50546,18864
50668,50613,18971
50777,50706,19132
50912,50825,19341
51074,50971,19594
51262,51142,19888
51467,51330,20218
51679,51530,20574
51901,51744,20946
52127,51962,21318
52344,52167,21677
52547,52354,22018
52736,52523,22343
52909,52679,22649
53071,52821,22937
53221,52944,23197
53348,53038,23421
53449,53108,23610
53529,53159,23770
53591,53192,23894
53634,53210,23984
53656,53215,24045
53663,53212,24087
53666,53212,24121
53665,53213,24143
53655,53210,24145
53641,53204,24130
53626,53196,24104
53607,53184,24071
53583,53172,24036
53558,53164,23999
53539,53159,23961
53527,53157,23927
53517,53155,23896
53507,53154,23867
53499,53154,23839
53491,53151,23816
53478,53141,23795
53463,53126,23778
53454,53112,23769
53449,53102,23768
53445,53093,23769
53440,53085,23765
53437,53075,23757
53436,53059,23748
53429,53036,23735
53414,53010,23720
53391,52982,23699
53359,52951,23671
53323,52917,23633
53282,52885,23588
53241,52859,23541
53202,52834,23489
53157,52802,23422
53106,52766,23347
53058,52733,23270
53010,52699,23191
52964,52660,23109
52920,52622,23032
52880,52591,22965
52846,52564,22908
52821,52541,22861
52809,52521,22822
52808,52505,22792
52812,52494,22772
52814,52489,22764
52814,52489,22764
52807,52487,22764
52798,52480,22760
52789,52473,22756
52776,52468,22752
52761,52471,22752
52751,52483,22753
52742,52493,22744
52729,52495,22723
52712,52487,22693
52694,52478,22660
52681,52474,22629
52671,52472,22601
52663,52467,22573
52652,52457,22543
52632,52439,22508
52608,52416,22471
52590,52390,22433
52580,52364,22397
52569,52336,22362
52546,52301,22323
52511,52259,22279
52470,52211,22226
52425,52161,22161
52376,52113,22086
52323,52070,22007
52269,52036,21933
52210,52006,21864
52150,51978,21798
52097,51957,21737
52049,51939,21678
52009,51923,21621
51979,51908,21565
51955,51892,21507
51936,51874,21443
51917,51849,21373
51893,51816,21301
51861,51774,21223
51820,51725,21141
51774,51673,21058
51726,51622,20979
51686,51572,20902
51654,51528,20827
51628,51489,20752
51605,51451,20678
51584,51414,20605
51561,51379,20538
51534,51345,20476
51502,51313,20416
51469,51281,20356
51430,51250,20296
51384,51217,20236
51337,51188,20179
51289,51162,20122
51241,51136,20062
51193,51108,20000
51147,51078,19939
51105,51047,19880
51065,51015,19819
51030,50983,19756
50999,50950,19694
50967,50913,19632
50933,50877,19570
50899,50846,19513
50865,50822,19462
50827,50802,19416
50793,50789,19377
50769,50780,19346
50753,50770,19318
50738,50755,19285
50720,50738,19249
50703,50718,19209
50685,50693,19162
50664,50662,19107
50638,50623,19048
50610,50580,18986
50583,50539,18926
50558,50505,18873
50529,50477,18825
50491,50451,18772
50447,50420,18708
50398,50386,18632
50349,50349,18553
50307,50314,18481
50270,50282,18418
50235,50250,18364
50205,50225,18319
50187,50210,18290
50186,50212,18286
50207,50232,18315
50255,50272,18383
50332,50338,18499
50438,50435,18674
50578,50566,18912
50755,50733,19202
50958,50925,19529
51178,51133,19881
51406,51346,20248
51634,51563,20623
51864,51789,21003
52092,52014,21378
52311,52222,21730
52515,52406,22054
52701,52566,22351
52875,52703,22622
53031,52819,22868
53162,52917,23088
53269,52996,23275
53354,53059,23430
53422,53109,23554
53479,53152,23649
53519,53186,23716
53538,53204,23760
53538,53210,23786
53527,53202,23792
53504,53180,23777
53467,53147,23740
53421,53109,23687
53378,53073,23631
53340,53042,23581
53310,53015,23538
53287,52993,23500
53265,52974,23467
53239,52953,23439
53213,52931,23411
53195,52910,23388
53182,52892,23376
53174,52879,23378
53169,52871,23388
53170,52867,23399
53174,52866,23407
53177,52869,23411
53181,52878,23415
53183,52888,23417
53174,52887,23410
53161,52875,23394
53151,52856,23374
53139,52830,23350
53121,52801,23325
53101,52773,23301
53074,52744,23266
53041,52713,23217
53002,52679,23158
52954,52642,23089
52898,52600,23013
52834,52561,22938
52774,52527,22867
52724,52497,22796
52680,52465,22720
52645,52434,22646
52617,52406,22581
52590,52378,22521
52562,52346,22466
52533,52312,22419
52508,52283,22387
52492,52262,22367
52478,52244,22347
52456,52226,22322
52429,52210,22292
52406,52205,22263
52392,52211,22240
52384,52219,22219
52380,52228,22206
52385,52239,22202
52396,52250,22200
52408,52260,22195
52423,52264,22191
52434,52255,22184
52432,52234,22172
52418,52208,22154
52399,52180,22130
52375,52152,22102
52343,52124,22064
52304,52095,22010
52260,52063,21944
52217,52035,21880
52178,52009,21819
52137,51975,21758
52095,51932,21700
52056,51892,21645
52022,51857,21590
51990,51826,21532
51961,51797,21471
51932,51768,21405
51901,51734,21338
51865,51695,21272
51826,51654,21208
51782,51612,21141
51732,51563,21065
51675,51515,20981
51616,51475,20894
51564,51442,20813
51521,51412,20739
51487,51379,20664
51450,51339,20587
51405,51294,20507
51352,51249,20429
51298,51206,20350
51246,51167,20269
51197,51131,20188
51152,51093,20108
51111,51051,20032
51074,51008,19962
51034,50971,19896
50989,50935,19831
50946,50901,19768
50911,50867,19704
50879,50832,19638
50843,50793,19570
50804,50754,19499
50767,50721,19429
50735,50692,19363
50706,50666,19303
50675,50643,19246
50639,50619,19191
50603,50596,19138
50571,50576,19085
50547,50558,19031
50528,50541,18982
50509,50521,18940
50488,50500,18900
50463,50477,18858
50433,50457,18813
50405,50442,18763
50384,50428,18710
50361,50412,18657
50336,50392,18607
50311,50369,18559
50283,50342,18507
50248,50311,18450
50208,50278,18388
50168,50246,18321
50134,50214,18252
50102,50182,18182
50071,50149,18111
50038,50111,18041
50005,50071,17981
49971,50037,17926
49936,50005,17869
49901,49975,17807
49863,49942,17739
49821,49908,17670
49781,49878,17607
49741,49847,17549
49703,49813,17493
49665,49779,17434
49629,49747,17373
49597,49719,17314
49566,49693,17257
49535,49665,17204
49505,49633,17157
49472,49595,17113
49437,49559,17068
49400,49527,17021
49354,49494,16965
49304,49458,16898
49254,49420,16822
49204,49380,16740
49159,49342,16657
49126,49306,16577
49102,49272,16505
49077,49239,16441
49046,49203,16380
49013,49171,16327
48992,49157,16301
48997,49174,16315
49036,49225,16380
49116,49308,16503
49236,49419,16682
49392,49561,16921
49585,49738,17226
49806,49944,17582
50045,50172,17973
50295,50415,18387
50554,50665,18814
50818,50915,19250
51077,51157,19682
51324,51382,20099
51555,51587,20496
51769,51779,20869
51971,51959,21218
52158,52122,21539
52323,52265,21828
52460,52382,22080
52570,52474,22291
52652,52541,22457
52707,52588,22578
52740,52618,22656
52756,52629,22700
52762,52626,22719
52763,52613,22723
52758,52597,22716
52747,52580,22699
52728,52560,22674
52708,52537,22645
52687,52512,22612
52663,52485,22572
52635,52459,22529
52609,52436,22491
52590,52415,22461
52575,52388,22434
52556,52356,22407
52535,52328,22385
52516,52307,22369
52501,52293,22358
52491,52285,22355
52483,52283,22358
52477,52288,22360
52475,52301,22360
52476,52316,22357
52472,52325,22346
52466,52334,22330
52459,52342,22315
52450,52345,22297
52439,52341,22274
52422,52328,22246
52398,52304,22210
52371,52274,22168
52345,52242,22123
52316,52208,22074
52276,52167,22015
52227,52118,21950
52174,52066,21884
52125,52015,21820
52080,51966,21757
52032,51915,21691
51984,51865,21629
51940,51824,21571
51905,51795,21516
51878,51778,21468
51854,51771,21428
51832,51771,21387
51815,51776,21349
51805,51779,21314
51799,51777,21285
51796,51773,21265
51796,51768,21252
51803,51764,21246
51818,51763,21248
51838,51763,21253
51858,51763,21258
51874,51764,21260
51879,51763,21259
51873,51756,21252
51857,51740,21240
51831,51716,21224
51802,51691,21208
51774,51670,21191
51744,51649,21165
51713,51629,21134
51678,51612,21101
51638,51596,21060
51598,51580,21008
51557,51563,20945
51512,51539,20874
51470,51510,20802
51432,51476,20734
51395,51440,20666
51358,51404,20596
51325,51371,20525
51293,51336,20451
51260,51296,20374
51223,51254,20296
51184,51209,20219
51145,51161,20143
51108,51116,20072
51075,51082,20010
51042,51055,19956
51005,51027,19902
50962,50996,19843
50914,50963,19781
50866,50926,19716
50818,50889,19647
50769,50848,19571
50720,50805,19487
50669,50762,19398
50620,50722,19312
50579,50688,19238
50550,50663,19175
50525,50640,19116
50495,50614,19055
50460,50584,18989
50423,50551,18922
50380,50511,18855
50334,50465,18791
50293,50423,18733
50257,50390,18681
50223,50363,18631
50187,50338,18579
50152,50314,18522
50114,50286,18456
50073,50251,18382
50034,50218,18309
50003,50189,18242
49977,50164,18177
49953,50142,18116
49927,50121,18057
49898,50096,17995
49869,50070,17934
49842,50046,17878
49813,50023,17827
49784,50000,17779
49758,49979,17734
49738,49956,17692
49721,49929,17654
49703,49904,17623
49684,49883,17594
49665,49862,17561
49640,49838,17520
49609,49810,17472
49571,49780,17416
49531,49750,17352
49488,49716,17283
49440,49675,17207
49392,49630,17129
49353,49589,17056
49321,49549,16985
49290,49508,16915
49255,49468,16852
49216,49431,16798
49176,49395,16743
49133,49362,16683
49090,49337,16621
49051,49318,16561
49011,49301,16501
48968,49281,16434
48923,49253,16361
48884,49218,16289
48847,49175,16216
48808,49126,16144
48768,49080,16083
48732,49043,16029
48697,49013,15974
48662,48983,15912
48622,48951,15844
48580,48916,15774
48537,48880,15707
48497,48843,15644
48457,48806,15582
48411,48763,15517
48360,48718,15447
48310,48677,15378
48258,48640,15312
48203,48605,15245
48146,48565,15172
48092,48524,15097
48051,48491,15035
48036,48474,14999
48047,48483,15004
48091,48528,15068
48170,48608,15196
48291,48726,15391
48452,48883,15659
48652,49080,15994
48887,49313,16384
49152,49571,16812
49433,49840,17260
49723,50111,17720
50016,50380,18184
50304,50636,18639
50584,50878,19076
50855,51106,19491
51107,51311,19878
51328,51490,20235
51514,51643,20560
51672,51769,20846
51805,51873,21094
51911,51956,21303
51986,52020,21470
52033,52067,21589
52059,52096,21665
52071,52108,21711
52074,52108,21736
52074,52098,21743
52071,52078,21739
52059,52051,21730
52042,52023,21719
52018,52000,21705
51987,51976,21684
51947,51948,21654
51906,51914,21621
51871,51881,21590
51842,51855,21560
51817,51835,21531
51796,51818,21500
51776,51801,21468
51753,51780,21433
51725,51761,21396
51693,51748,21361
51670,51736,21329
51662,51727,21307
51658,51720,21292
51651,51712,21276
51642,51704,21261
51635,51700,21250
51628,51700,21238
51628,51703,21228
51633,51701,21218
51634,51689,21206
51626,51675,21190
51606,51662,21169
51579,51645,21138
51551,51623,21098
51519,51598,21051
51479,51568,20998
51432,51537,20938
51388,51507,20871
51347,51478,20798
51307,51443,20721
51273,51406,20647
51243,51372,20584
51214,51341,20533
51187,51314,20491
51167,51293,20456
51152,51280,20425
51144,51270,20397
51141,51261,20374
51140,51253,20359
51134,51247,20348
51127,51244,20341
51123,51245,20340
51119,51246,20340
51116,51245,20339
51110,51244,20337
51105,51245,20336
51108,51251,20336
51113,51259,20335
51115,51262,20330
51113,51257,20324
51109,51250,20318
51100,51238,20306
51086,51220,20283
51070,51201,20253
51052,51184,20218
51031,51169,20179
51007,51151,20134
50979,51127,20081
50947,51097,20023
50910,51060,19957
50865,51019,19884
50816,50974,19809
50766,50925,19737
50717,50879,19670
50671,50839,19610
50626,50799,19550
50581,50755,19485
50545,50715,19419
50518,50679,19356
50491,50645,19294
50465,50617,19234
50437,50594,19173
50399,50566,19110
50352,50534,19048
50301,50501,18980
50251,50466,18904
50205,50434,18824
50161,50401,18742
50119,50368,18662
50073,50331,18584
50016,50289,18503
49951,50247,18420
49893,50211,18336
49844,50182,18256
49795,50153,18176
49741,50116,18088
49683,50070,17992
49627,50020,17896
49582,49973,17812
49547,49931,17741
49519,49892,17675
49489,49847,17610
49454,49797,17548
49417,49750,17491
49383,49712,17438
49354,49683,17387
49333,49666,17341
49317,49657,17297
49299,49646,17249
49278,49629,17192
49254,49608,17131
49229,49589,17071
49205,49570,17015
49185,49552,16962
49170,49534,16914
49148,49512,16864
49115,49479,16810
49074,49436,16753
49032,49391,16697
48993,49350,16644
48952,49311,16586
48904,49273,16523
48854,49236,16456
48805,49198,16383
48765,49162,16310
48736,49129,16244
48711,49097,16181
48681,49064,16117
48653,49039,16053
48629,49023,15994
48602,49007,15937
48568,48985,15877
48528,48956,15813
48492,48926,15750
48459,48891,15686
48417,48847,15616
48368,48795,15548
48321,48749,15492
48278,48712,15444
48238,48682,15396
48202,48653,15344
48172,48625,15293
48143,48597,15241
48111,48565,15185
48075,48531,15122
48035,48495,15054
47989,48459,14980
47938,48425,14903
47888,48394,14820
47838,48362,14735
47790,48327,14651
47743,48290,14570
47698,48250,14493
47652,48201,14415
47601,48151,14337
47552,48110,14266
47516,48084,14215
47506,48077,14198
47530,48103,14233
47595,48170,14334
47707,48277,14508
47863,48423,14758
48060,48607,15081
48293,48827,15460
48555,49075,15878
48836,49339,16325
49124,49607,16787
49407,49874,17252
49681,50134,17711
49950,50381,18153
50214,50613,18574
50460,50824,18971
50682,51009,19340
50879,51172,19676
51051,51317,19974
51195,51442,20230
51315,51547,20443
51415,51631,20620
51497,51696,20765
51556,51739,20884
51598,51764,20978
51626,51777,21046
51641,51781,21088
51647,51777,21110
51641,51766,21121
51625,51751,21117
51606,51740,21097
51587,51728,21062
51566,51711,21020
51538,51687,20975
51503,51654,20927
51464,51617,20876
51418,51580,20821
51367,51539,20758
51320,51495,20692
51279,51451,20632
51247,51411,20586
51227,51384,20556
51215,51374,20537
51202,51370,20522
51190,51367,20509
51184,51363,20495
51184,51359,20483
51183,51356,20473
51174,51350,20461
51160,51342,20447
51147,51338,20430
51129,51331,20406
51104,51312,20370
51072,51279,20327
51035,51242,20282
50993,51203,20233
50950,51166,20180
50908,51136,20124
50870,51114,20068
50834,51096,20015
50800,51076,19962
50772,51055,19909
50747,51030,19860
50723,51001,19816
50708,50978,19778
50701,50964,19744
50697,50956,19710
50693,50949,19683
50684,50937,19664
50670,50922,19650
50655,50914,19640
50646,50912,19635
50644,50913,19637
50641,50911,19643
50636,50907,19647
50635,50907,19651
50644,50915,19657
50655,50928,19658
50658,50936,19654
50656,50938,19647
50654,50937,19640
50650,50929,19630
50642,50913,19614
50633,50898,19598
50615,50885,19575
50593,50871,19544
50569,50855,19509
50547,50837,19473
50526,50818,19435
50500,50790,19392
50465,50752,19347
50427,50710,19301
50386,50670,19248
50348,50638,19190
50313,50611,19132
50271,50584,19074
50220,50555,19014
50170,50526,18951
50131,50503,18892
50103,50486,18837
50081,50468,18778
50060,50441,18713
50034,50403,18645
50000,50355,18576
49965,50305,18506
49930,50255,18434
49892,50208,18359
49855,50165,18280
49815,50127,18198
49770,50095,18114
49727,50066,18027
49685,50038,17938
49642,50010,17855
49600,49984,17781
49560,49959,17711
49524,49934,17639
49490,49906,17566
49460,49875,17496
49433,49840,17433
49403,49801,17375
49372,49767,17319
49339,49739,17265
49307,49713,17207
49275,49684,17147
49250,49656,17094
49230,49634,17050
49205,49614,17009
49174,49595,16967
49142,49577,16925
49109,49555,16880
49074,49522,16826
49039,49480,16765
49005,49438,16704
48976,49406,16651
48949,49384,16603
48919,49361,16552
48886,49337,16501
48851,49306,16451
48813,49273,16399
48774,49243,16345
48735,49217,16290
48704,49194,16233
48686,49176,16182
48675,49160,16137
48656,49139,16089
48625,49110,16032
48585,49076,15974
48542,49037,15918
48497,48997,15859
48452,48959,15794
48408,48922,15728
48374,48893,15667
48350,48874,15614
48336,48860,15565
48325,48846,15520
48317,48831,15483
48314,48824,15463
48327,48833,15470
48359,48867,15517
48416,48933,15609
48498,49027,15746
48615,49151,15935
48773,49303,16184
48963,49480,16487
49176,49679,16835
49403,49894,17214
49645,50118,17614
49899,50348,18026
50153,50575,18437
50401,50792,18839
50646,50998,19230
50881,51197,19603
51090,51381,19946
51274,51546,20252
51442,51689,20521
51589,51807,20752
51714,51898,20946
51817,51966,21110
51897,52014,21242
51958,52046,21344
52002,52068,21423
52029,52079,21478
52038,52081,21510
52040,52079,21525
52035,52070,21524
52020,52048,21505
51991,52018,21472
51950,51987,21430
51908,51957,21384
51867,51927,21340
51830,51903,21304
51797,51885,21272
51769,51869,21242
51751,51851,21212
51739,51833,21184
51728,51816,21158
51711,51799,21132
51699,51783,21109
51695,51769,21092
51689,51752,21073
51680,51738,21053
51670,51730,21037
51655,51722,21020
51639,51713,20998
51628,51707,20974
51621,51703,20951
51612,51693,20924
51594,51673,20896
51568,51648,20865
51538,51624,20829
51506,51600,20781
51474,51575,20722
51440,51547,20659
51403,51513,20594
51358,51471,20529
51311,51430,20470
51265,51395,20417
51227,51365,20369
51197,51339,20328
51172,51313,20298
51155,51295,20283
51144,51288,20272
51135,51285,20257
51129,51281,20240
51129,51272,20229
51130,51262,20224
51135,51258,20225
51146,51262,20229
51160,51275,20233
51172,51290,20235
51178,51302,20239
51182,51311,20247
51186,51317,20257
51192,51329,20270
51201,51347,20281
51205,51363,20286
51208,51372,20285
51216,51378,20286
51223,51382,20291
51220,51377,20293
51206,51364,20286
51183,51345,20265
51158,51321,20230
51133,51292,20184
51104,51258,20130
51068,51218,20071
51031,51180,20010
50998,51151,19954
50970,51130,19904
50944,51112,19854
50914,51090,19801
50881,51066,19746
50848,51040,19691
50819,51014,19636
50792,50989,19580
50760,50960,19519
50720,50927,19453
50680,50894,19383
50643,50861,19309
50605,50821,19231
50566,50776,19151
50523,50731,19073
50483,50695,19001
50447,50665,18931
50408,50636,18858
50369,50604,18786
50336,50569,18717
50298,50532,18649
50251,50497,18581
50201,50463,18510
50157,50430,18442
50119,50397,18380
50082,50362,18325
50046,50328,18272
50011,50299,18221
49976,50277,18172
49943,50260,18125
49913,50241,18080
49888,50219,18036
49870,50198,17997
49852,50174,17962
49826,50147,17925
49795,50112,17881
49757,50076,17831
49710,50042,17774
49658,50011,17708
49609,49983,17642
49568,49955,17584
49535,49925,17534
49513,49897,17488
49495,49872,17446
49483,49855,17413
49484,49854,17397
49502,49872,17406
49546,49912,17455
49622,49979,17558
49730,50076,17719
49876,50208,17938
50061,50370,18213
50273,50556,18531
50498,50759,18886
50738,50979,19273
50989,51206,19677
51243,51433,20084
51491,51654,20483
51728,51865,20865
51948,52061,21222
52151,52238,21549
52336,52393,21845
52500,52525,22113
52644,52639,22354
52772,52739,22568
52885,52826,22758
52976,52896,22918
53041,52952,23047
53086,52997,23146
53116,53029,23217
53130,53043,23260
53129,53043,23279
53114,53036,23281
53088,53024,23270
53058,53003,23253
53029,52978,23231
53005,52952,23206
52989,52929,23181
52980,52909,23159
52974,52896,23142
52964,52886,23127
52954,52878,23109
52945,52869,23092
52936,52859,23076
52926,52845,23061
52918,52829,23053
52915,52816,23052
52916,52810,23051
52917,52806,23048
52918,52801,23042
52920,52798,23035
52919,52799,23029
52909,52801,23022
52894,52802,23009
52876,52797,22987
52859,52787,22955
52842,52769,22919
52820,52741,22880
52794,52706,22833
52765,52670,22782
52731,52633,22722
52693,52594,22651
52653,52554,22572
52610,52511,22494
52562,52465,22420
52516,52421,22351
52474,52384,22290
52427,52352,22233
52377,52323,22174
52332,52298,22121
52297,52276,22083
52276,52256,22057
52269,52241,22040
52270,52233,22032
52270,52233,22030
52272,52239,22031
52284,52254,22037
52304,52275,22050
52324,52294,22071
52344,52309,22093
52359,52322,22112
52362,52333,22125
52357,52339,22128
52354,52345,22127
52355,52348,22124
52353,52341,22120
52353,52335,22119
52353,52331,22116
52346,52325,22103
52333,52318,22082
52316,52308,22056
52295,52293,22021
52272,52273,21974
52244,52244,21921
52209,52209,21862
52170,52175,21801
52127,52137,21733
52080,52095,21659
52038,52054,21586
52002,52015,21517
51966,51972,21448
51930,51928,21378
51893,51890,21311
51852,51857,21243
51805,51823,21170
51754,51787,21094
51706,51752,21024
51663,51720,20962
51621,51688,20905
51578,51658,20846
51540,51632,20782
51506,51605,20712
51474,51573,20637
51447,51538,20564
51424,51505,20498
51394,51474,20436
51352,51440,20373
51306,51404,20311
51259,51367,20253
51212,51330,20197
51164,51295,20141
51117,51265,20085
51074,51238,20028
51035,51208,19965
50996,51171,19899
50958,51124,19832
50920,51072,19769
50885,51025,19714
50859,50989,19669
50844,50966,19635
50834,50949,19603
50822,50937,19563
50806,50923,19517
50782,50906,19467
50753,50891,19413
50722,50877,19357
50688,50858,19292
50649,50830,19217
50611,50799,19138
50581,50776,19065
50560,50764,19011
50546,50760,18982
50545,50768,18987
50563,50797,19034
50613,50851,19127
50700,50934,19271
50826,51051,19471
50991,51201,19728
51190,51379,20038
51411,51577,20384
51642,51784,20751
51882,51997,21132
52126,52213,21522
52373,52434,21922
52616,52651,22325
52845,52858,22716
53062,53051,23091
53264,53226,23442
53444,53381,23761
53601,53517,24045
53733,53632,24293
53841,53725,24503
53932,53804,24681
54008,53867,24825
54068,53912,24933
54114,53941,25007
54151,53960,25057
54177,53970,25090
54194,53972,25109
54208,53973,25120
54221,53973,25130
54230,53965,25135
54231,53950,25133
54225,53936,25130
54212,53925,25129
54197,53917,25126
54184,53909,25118
54170,53900,25108
54160,53898,25101
54156,53900,25100
54158,53900,25112
54165,53900,25131
54173,53900,25147
54178,53901,25161
54180,53904,25173
54178,53909,25182
54180,53918,25188
54186,53927,25185
54186,53927,25170
54180,53919,25148
54171,53904,25124
54160,53887,25097
54147,53870,25070
54132,53849,25039
54109,53824,25000
54078,53794,24948
54039,53756,24878
53992,53714,24798
53937,53668,24713
53878,53617,24627
53819,53569,24543
53762,53522,24463
53705,53470,24382
53648,53415,24305
53599,53366,24239
53561,53328,24177
53532,53298,24118
53513,53279,24068
53503,53269,24027
53496,53260,23989
53490,53251,23956
53485,53242,23929
53481,53231,23904
53485,53221,23883
53500,53220,23868
53526,53231,23861
53556,53253,23859
53581,53276,23854
53602,53303,23851
53624,53328,23847
53645,53345,23837
53663,53352,23818
53670,53350,23788
53662,53336,23745
53648,53319,23703
53636,53308,23670
53624,53305,23646
53606,53302,23626
53582,53294,23604
53552,53276,23575
53520,53252,23540
53493,53227,23507
53473,53205,23476
53456,53183,23443
53437,53158,23405
53410,53128,23358
53377,53089,23299
53341,53045,23233
53300,53002,23162
53257,52964,23093
53215,52928,23025
53171,52886,22948
53122,52837,22862
53070,52788,22774
53018,52742,22688
52962,52697,22603
52901,52653,22518
52837,52607,22432
52771,52555,22342
52709,52497,22248
52651,52438,22156
52598,52386,22072
52550,52343,21997
52504,52308,21930
52460,52278,21871
52422,52251,21818
52394,52224,21770
52365,52192,21723
52335,52157,21679
52309,52125,21638
52282,52094,21594
52251,52064,21546
52223,52037,21493
52196,52014,21440
52167,51996,21393
52134,51980,21345
52101,51965,21290
52070,51946,21234
52044,51925,21185
52022,51901,21141
51996,51870,21099
51970,51840,21059
51946,51810,21020
51919,51775,20975
51884,51737,20924
51847,51700,20872
51809,51665,20820
51770,51632,20767
51732,51599,20711
51700,51568,20659
51675,51542,20615
51654,51521,20577
51632,51504,20540
51606,51486,20497
51578,51467,20448
51550,51448,20399
51518,51427,20349
51482,51406,20297
51447,51393,20252
51425,51395,20228
51426,51411,20233
51455,51444,20275
51515,51503,20361
51615,51597,20496
51749,51723,20677
51909,51870,20902
52090,52036,21174
52295,52221,21494
52518,52419,21848
52753,52626,22225
52995,52838,22617
53239,53050,23016
53484,53258,23412
53725,53457,23796
53953,53640,24160
54154,53796,24494
54325,53925,24799
54471,54031,25076
54600,54120,25319
54715,54199,25526
54811,54267,25697
54890,54328,25837
54952,54380,25953
54998,54423,26045
55033,54455,26115
55058,54478,26166
55082,54499,26204
55107,54526,26243
55131,54559,26278
55149,54591,26302
55163,54620,26318
55173,54643,26330
55175,54657,26340
55169,54665,26347
55163,54674,26352
55165,54688,26358
55172,54704,26363
55183,54720,26373
55198,54731,26387
55212,54731,26396
55224,54723,26405
55235,54714,26418
55243,54706,26434
55249,54700,26450
55251,54698,26464
55250,54700,26471
55243,54700,26469
55234,54699,26459
55226,54699,26443
55217,54690,26419
55199,54668,26387
55172,54638,26346
55136,54605,26296
55092,54571,26236
55039,54532,26163
54980,54485,26078
54922,54437,25990
54869,54391,25907
54816,54340,25830
54763,54290,25759
54716,54246,25691
54674,54206,25623
54634,54171,25557
54595,54148,25501
54561,54132,25450
54534,54115,25401
54511,54094,25352
54493,54073,25307
54485,54056,25272
54482,54038,25244
54474,54012,25213
54462,53981,25181
54445,53952,25157
54426,53931,25145
54407,53916,25138
54388,53903,25124
54371,53892,25103
54358,53886,25086
54349,53884,25072
54340,53882,25060
54326,53878,25044
54302,53868,25020
54269,53850,24989
54232,53830,24954
54201,53814,24921
54179,53802,24890
54162,53788,24853
54140,53764,24808
54103,53730,24754
54056,53690,24693
54008,53647,24630
53958,53604,24565
53905,53561,24499
53853,53522,24436
53807,53491,24376
53768,53469,24318
53737,53454,24260
53711,53439,24198
53684,53418,24127
53655,53391,24047
53626,53361,23965
53590,53323,23877
53547,53276,23785
53503,53229,23702
53462,53183,23628
53422,53136,23556
53387,53093,23488
53355,53050,23423
53316,53000,23357
53271,52945,23289
53225,52892,23223
53179,52841,23157
53135,52796,23092
53093,52756,23027
53052,52719,22958
53013,52684,22889
52975,52652,22824
52931,52618,22758
52880,52581,22692
52827,52543,22627
52783,52511,22569
52752,52490,22521
52727,52473,22474
52703,52455,22424
52680,52435,22375
52660,52419,22329
52640,52404,22279
52615,52387,22221
52589,52369,22156
52567,52352,22094
52550,52337,22040
52534,52322,21995
52511,52303,21949
52478,52276,21899
52436,52248,21844
52391,52224,21790
52351,52209,21742
52314,52201,21697
52277,52190,21651
52244,52174,21598
52211,52149,21536
52173,52113,21466
52137,52074,21397
52111,52042,21337
52094,52020,21288
52080,52005,21242
52060,51985,21194
52037,51964,21144
52016,51947,21096
51994,51931,21049
51970,51910,21000
51942,51884,20945
51909,51850,20883
51875,51814,20817
51844,51784,20756
51817,51760,20706
51787,51736,20663
51750,51711,20624
51712,51688,20588
51678,51670,20560
51650,51661,20545
51637,51662,20554
51647,51681,20600
51692,51732,20700
51780,51820,20855
51909,51939,21057
52073,52084,21304
52269,52252,21593
52491,52444,21922
52733,52652,22282
52988,52870,22664
53250,53092,23060
53510,53312,23457
53758,53521,23846
53988,53715,24222
54202,53891,24580
54399,54050,24914
54580,54191,25219
54746,54320,25498
54900,54439,25749
55041,54543,25970
55161,54625,26156
55250,54680,26304
55308,54714,26421
55343,54732,26512
55361,54739,26582
55370,54738,26633
55375,54739,26667
55376,54745,26687
55367,54752,26696
55352,54758,26698
55336,54767,26697
55324,54780,26696
55318,54795,26693
55314,54805,26684
55313,54811,26675
55323,54820,26675
55343,54830,26684
55363,54833,26695
55375,54826,26703
55383,54816,26715
55389,54810,26730
55397,54811,26748
55408,54820,26770
55426,54838,26795
55443,54859,26816
55453,54875,26828
55453,54882,26829
55442,54883,26821
55425,54874,26805
55404,54857,26777
55380,54829,26737
55356,54797,26695
55332,54764,26651
55305,54729,26604
55277,54695,26554
55247,54662,26499
55215,54625,26437
55176,54586,26367
55132,54546,26291
55085,54505,26212
55033,54464,26135
54974,54426,26060
54911,54391,25985
54853,54360,25919
54806,54337,25869
54773,54325,25832
54754,54322,25805
54745,54323,25784
54745,54324,25768
54749,54326,25753
54749,54322,25729
54749,54316,25700
54756,54318,25680
54763,54324,25670
54763,54327,25662
54763,54327,25658
54762,54324,25655
54759,54317,25650
54757,54305,25641
54752,54287,25625
54742,54265,25603
54732,54245,25577
54720,54226,25547
54703,54206,25513
54684,54185,25481
54668,54168,25453
54653,54150,25429
54634,54131,25404
54611,54108,25373
54591,54081,25333
54572,54050,25285
54550,54017,25232
54515,53982,25171
54471,53945,25101
54425,53910,25029
54376,53876,24955
54322,53839,24875
54271,53808,24797
54223,53782,24726
54170,53751,24657
54112,53710,24586
54057,53666,24515
54007,53619,24440
53960,53569,24363
53918,53521,24293
53880,53480,24227
53846,53444,24165
53812,53409,24102
53773,53375,24033
53730,53344,23960
53690,53320,23888
53651,53302,23817
53605,53281,23743
53554,53252,23667
53500,53217,23592
53452,53182,23527
53416,53154,23475
53391,53129,23430
53368,53103,23388
53340,53074,23345
53305,53046,23300
53269,53019,23255
53243,52999,23214
53224,52984,23172
53203,52965,23125
53182,52945,23078
53164,52924,23034
53150,52900,22992
53136,52868,22947
53119,52833,22901
53093,52794,22850
53061,52753,22794
53028,52716,22742
52995,52685,22693
52958,52658,22642
52918,52635,22586
52882,52618,22530
52847,52596,22471
52807,52562,22400
52760,52521,22321
52710,52478,22243
52668,52436,22169
52634,52399,22108
52609,52370,22067
52598,52357,22054
52607,52365,22073
52638,52398,22128
52694,52457,22220
52773,52541,22355
52882,52653,22544
53029,52797,22790
53207,52968,23081
53404,53149,23403
53617,53338,23750
53843,53535,24119
54073,53736,24496
54301,53934,24872
54527,54132,25247
54750,54328,25615
54962,54508,25959
55156,54667,26267
55329,54806,26540
55480,54928,26786
55615,55045,27012
55740,55157,27221
55848,55255,27403
55932,55328,27547
55993,55379,27656
56038,55418,27737
56071,55448,27797
56091,55467,27834
56096,55480,27852
56084,55485,27858
56061,55482,27853
56033,55476,27840
56010,55472,27826
55995,55468,27813
55984,55461,27797
55978,55451,27780
55980,55441,27768
55982,55428,27761
55985,55414,27761
55988,55404,27766
55990,55402,27777
55991,55408,27789
55987,55413,27797
55983,55415,27798
55982,55417,27802
55981,55416,27809
55975,55410,27808
55962,55397,27795
55943,55382,27773
55922,55369,27742
55895,55350,27701
55867,55324,27654
55842,55297,27605
55816,55263,27552
55783,55219,27493
55743,55171,27427
55698,55122,27356
55651,55074,27281
55605,55030,27202
55557,54990,27125
55503,54952,27049
55439,54912,26968
55374,54873,26888
55313,54842,26815
55258,54814,26754
55208,54785,26704
55172,54759,26665
55152,54739,26634
55148,54727,26611
55150,54720,26590
55152,54714,26570
55153,54708,26551
55156,54703,26536
55164,54700,26526
55172,54696,26521
55175,54687,26518
55172,54675,26516
55162,54662,26508
55144,54645,26491
55122,54628,26466
55098,54613,26442
55072,54600,26413
55049,54591,26377
55029,54583,26333
54999,54563,26280
54963,54532,26220
54927,54496,26160
54894,54459,26105
54865,54423,26054
54839,54387,26002
54813,54354,25946
54786,54328,25889
54759,54305,25833
54724,54280,25768
54683,54252,25696
54642,54225,25628
54604,54199,25565
54570,54173,25502
54537,54145,25435
54498,54103,25362
54448,54048,25282
54392,53985,25196
54333,53922,25106
54268,53863,25014
54205,53813,24924
54153,53776,24832
54108,53746,24743
54066,53717,24660
54026,53687,24580
53985,53651,24499
53943,53607,24420
53902,53563,24349
53861,53516,24278
53814,53465,24203
53764,53414,24128
53717,53370,24056
53670,53333,23993
53622,53301,23935
53580,53276,23874
53545,53254,23806
53508,53232,23733
53473,53210,23661
53441,53184,23590
53413,53156,23525
53389,53127,23467
53372,53101,23415
53359,53074,23368
53344,53041,23321
53321,53004,23278
53286,52963,23235
53247,52922,23190
53211,52886,23146
53179,52857,23104
53150,52837,23061
53119,52824,23014
53079,52809,22955
53032,52787,22887
52985,52759,22817
52939,52725,22746
52894,52688,22677
52851,52649,22606
52813,52612,22538
52785,52585,22480
52765,52563,22432
52743,52538,22382
52714,52509,22325
52681,52479,22262
52648,52447,22195
52611,52412,22127
52572,52371,22065
52533,52330,22016
52505,52300,21989
52498,52290,21987
52514,52304,22011
52555,52347,22071
52626,52418,22176
52730,52517,22328
52868,52647,22528
53036,52808,22780
53231,52996,23083
53449,53206,23432
53679,53428,23812
53914,53655,24209
54151,53885,24612
54390,54113,25013
54624,54332,25403
54852,54540,25779
55071,54735,26141
55274,54912,26481
55455,55068,26795
55622,55210,27083
55778,55339,27343
55914,55450,27569
56027,55543,27760
56117,55617,27914
56182,55669,28027
56222,55699,28104
56245,55713,28155
56255,55718,28191
56259,55717,28216
56264,55711,28232
56266,55699,28243
56261,55680,28251
56252,55660,28259
56241,55640,28261
56225,55621,28260
56206,55606,28265
56193,55600,28271
56190,55603,28277
56195,55605,28279
56203,55603,28283
56212,55602,28290
56223,55605,28298
56232,55609,28304
56236,55616,28312
56233,55628,28324
56226,55643,28334
56216,55655,28334
56205,55661,28326
56194,55664,28316
56181,55660,28305
56169,55651,28292
56152,55633,28270
56124,55609,28237
56088,55583,28192
56048,55550,28133
56010,55511,28069
55975,55467,28001
55939,55419,27925
55895,55367,27844
55845,55312,27759
55795,55259,27673
55748,55214,27591
55703,55177,27517
55660,55146,27447
55614,55113,27373
55569,55077,27295
55529,55043,27222
55495,55011,27156
55466,54984,27100
55443,54964,27057
55428,54954,27029
55425,54953,27016
55429,54959,27013
55436,54965,27016
55441,54971,27020
55441,54974,27024
55432,54973,27020
55418,54966,27001
55403,54955,26974
55390,54943,26947
55379,54930,26922
55368,54915,26897
55347,54892,26870
55321,54862,26841
55291,54831,26808
55253,54799,26766
55212,54765,26717
55177,54736,26669
55147,54711,26623
55114,54682,26568
55075,54648,26505
55037,54615,26442
55000,54581,26376
54957,54544,26302
54910,54505,26225
54864,54466,26151
54818,54428,26073
54774,54389,25995
54738,54351,25922
54709,54317,25858
54681,54282,25793
54646,54237,25722
54599,54179,25645
54545,54115,25560
54486,54049,25468
54422,53987,25370
54358,53930,25269
54298,53884,25171
54246,53849,25082
54199,53820,25005
54156,53793,24937
54115,53765,24869
54076,53735,24798
54040,53705,24727
54007,53678,24661
53974,53652,24596
53936,53620,24525
53891,53580,24446
53844,53535,24367
53795,53492,24289
53747,53450,24214
53705,53411,24144
53668,53378,24078
53633,53348,24015
53593,53316,23952
53551,53284,23888
53507,53252,23816
53457,53215,23736
53407,53175,23658
53362,53139,23590
53326,53104,23528
53295,53069,23468
53270,53039,23414
53251,53015,23369
53230,52993,23322
53203,52968,23269
53177,52943,23212
53156,52921,23155
53138,52902,23098
53122,52884,23039
53107,52862,22981
53088,52833,22923
53056,52797,22860
53009,52755,22789
52955,52710,22717
52903,52669,22650
52852,52632,22586
52801,52595,22521
52750,52558,22458
52702,52525,22399
52660,52494,22341
52626,52468,22286
52598,52446,22237
52572,52424,22191
52549,52402,22144
52526,52378,22092
52501,52349,22034
52471,52312,21969
52433,52266,21897
52392,52216,21822
52351,52169,21746
52312,52130,21674
52274,52098,21606
52236,52066,21539
52196,52033,21470
52154,51996,21399
52109,51958,21323
52064,51922,21248
52025,51890,21185
51999,51870,21144
51994,51874,21137
52021,51914,21180
52086,51991,21281
52183,52099,21437
52314,52238,21648
52481,52410,21920
52684,52613,22254
52917,52838,22637
53170,53077,23052
53438,53327,23492
53712,53578,23945
53981,53821,24392
54238,54048,24822
54474,54253,25233
54689,54435,25624
54887,54598,25992
55073,54747,26334
55237,54877,26642
55376,54986,26907
55494,55079,27129
55595,55158,27318
55678,55223,27475
55745,55273,27604
55793,55311,27705
55825,55336,27778
55847,55351,27829
55866,55366,27867
55883,55383,27895
55891,55392,27908
55889,55395,27908
55883,55395,27904
55872,55393,27896
55857,55392,27888
55846,55393,27880
55838,55391,27871
55833,55388,27863
55829,55389,27856
55827,55393,27850
55827,55396,27844
55833,55401,27840
55839,55406,27836
55842,55409,27832
55842,55411,27826
55836,55411,27820
55824,55409,27814
55814,55404,27811
55807,55397,27810
55804,55389,27811
55803,55384,27814
55800,55379,27817
55792,55370,27811
55775,55351,27783
55748,55322,27738
55711,55288,27680
55664,55249,27613
55613,55210,27541
55565,55173,27468
55520,55136,27393
55476,55097,27318
55432,55058,27245
55393,55019,27176
55358,54982,27110
55322,54948,27045
55283,54914,26983
55243,54881,26922
55207,54849,26864
55181,54821,26818
55164,54798,26784
55149,54772,26755
55129,54744,26731
55106,54716,26715
55082,54693,26704
55061,54673,26694
55045,54657,26685
55033,54649,26684
55026,54648,26687
55023,54649,26685
55022,54650,26676
55016,54649,26659
55003,54650,26637
54991,54654,26609
54979,54655,26571
54964,54650,26529
54945,54635,26480
54922,54611,26426
54904,54584,26372
54888,54556,26321
54871,54527,26271
54851,54497,26220
54822,54464,26164
54783,54427,26097
54738,54387,26024
54688,54345,25949
54636,54304,25875
54583,54262,25804
54533,54222,25739
54485,54185,25677
54435,54150,25614
54387,54114,25548
54344,54071,25478
54301,54022,25405
54259,53967,25331
54212,53908,25250
54165,53847,25164
54120,53788,25075
54077,53734,24986
54037,53687,24896
53996,53649,24808
53950,53616,24721
53902,53587,24637
53853,53559,24553
53799,53525,24463
53743,53490,24369
53692,53463,24283
53645,53443,24206
53598,53420,24129
53546,53387,24045
53490,53348,23958
53433,53304,23873
53378,53259,23795
53333,53218,23725
53297,53177,23657
53262,53127,23589
53223,53070,23523
53181,53012,23464
53138,52958,23409
53099,52911,23363
53070,52875,23328
53053,52850,23299
53039,52833,23264
53026,52821,23219
53011,52812,23168
52991,52803,23110
52962,52793,23048
52928,52781,22982
52891,52766,22911
52852,52744,22834
52811,52716,22758
52773,52688,22695
52742,52663,22646
52713,52637,22600
52687,52609,22555
52662,52575,22507
52632,52534,22456
52596,52493,22407
52556,52453,22358
52514,52410,22300
52473,52365,22235
52434,52324,22169
52394,52287,22103
52346,52252,22038
52291,52214,21968
52237,52172,21889
52188,52129,21806
52146,52089,21727
52109,52054,21652
52077,52023,21581
52050,51996,21516
52028,51969,21458
52008,51941,21401
51992,51914,21345
51977,51888,21290
51958,51866,21240
51929,51843,21192
51893,51820,21143
51851,51797,21092
51801,51767,21033
51748,51734,20966
51697,51699,20893
51647,51662,20818
51602,51622,20742
51561,51574,20667
51518,51524,20597
51478,51478,20536
51438,51435,20477
51398,51397,20422
51365,51374,20381
51347,51373,20368
51357,51401,20396
51404,51463,20472
51491,51560,20606
51620,51692,20802
51793,51857,21060
52000,52051,21375
52226,52264,21735
52464,52491,22128
52717,52731,22547
52979,52978,22978
53240,53218,23407
53497,53443,23825
53746,53652,24231
53978,53846,24615
54189,54027,24969
54380,54194,25297
54550,54343,25600
54693,54474,25873
54810,54584,26110
54908,54673,26304
54995,54743,26460
55070,54795,26586
55128,54829,26682
55169,54848,26753
55189,54856,26796
55191,54856,26814
55187,54854,26812
55185,54849,26800
55177,54836,26778
55159,54815,26748
55134,54792,26711
55109,54771,26672
55088,54749,26637
55066,54724,26610
55046,54704,26592
55030,54691,26580
55015,54685,26570
54997,54677,26555
54981,54668,26537
54972,54659,26522
54962,54646,26512
54950,54633,26506
54936,54623,26502
54923,54618,26495
54918,54618,26487
54919,54618,26478
54923,54613,26470
54928,54606,26469
54927,54599,26468
54918,54591,26463
54898,54575,26446
54872,54552,26414
54845,54528,26373
54820,54505,26327
54796,54479,26275
54768,54444,26212
54731,54400,26138
54689,54358,26065
54647,54321,26001
54604,54289,25941
54560,54258,25878
54522,54234,25820
54491,54220,25771
54471,54212,25733
54462,54206,25702
54463,54199,25677
54469,54193,25655
54478,54188,25635
54483,54180,25619
54484,54175,25615
54483,54175,25620
54478,54175,25625
54470,54173,25627
54458,54171,25627
54435,54162,25621
54405,54149,25608
54377,54140,25592
54356,54136,25575
54343,54134,25551
54331,54129,25514
54316,54116,25469
54300,54096,25417
54282,54070,25360
54257,54038,25300
54227,54003,25241
54194,53969,25183
54161,53938,25132
54123,53906,25086
54082,53872,25042
54042,53839,25006
54004,53805,24972
53969,53771,24935
53941,53742,24894
53921,53720,24849
53905,53700,24805
53885,53678,24758
53853,53651,24704
53810,53618,24640
53760,53581,24571
53706,53541,24497
53651,53498,24413
53596,53449,24322
53542,53396,24229
53487,53341,24136
53434,53290,24047
53385,53244,23965
53342,53205,23890
53306,53172,23820
53274,53140,23753
53245,53109,23689
53215,53080,23627
53182,53050,23560
53149,53014,23489
53119,52982,23421
53091,52953,23359
53061,52924,23297
53028,52894,23234
52992,52863,23173
52956,52834,23114
52926,52813,23059
52901,52796,23009
52874,52775,22957
52844,52749,22900
52813,52724,22844
52782,52701,22791
52745,52675,22734
52700,52643,22671
52653,52607,22605
52612,52574,22544
52580,52542,22489
52553,52510,22444
52531,52481,22403
52513,52456,22363
52498,52435,22323
52481,52414,22281
52455,52392,22234
52422,52371,22187
52388,52356,22144
52359,52347,22103
52337,52340,22067
52317,52331,22032
52294,52318,21995
52275,52301,21955
52262,52276,21914
52247,52241,21868
52227,52200,21814
52200,52160,21756
52165,52120,21694
52125,52080,21627
52079,52035,21554
52029,51989,21483
51983,51950,21422
51940,51917,21365
51900,51883,21305
51862,51850,21240
51829,51820,21181
51807,51799,21140
51804,51798,21135
51828,51827,21173
51884,51887,21257
51977,51980,21395
52107,52111,21592
52273,52273,21844
52472,52464,22149
52696,52672,22501
52936,52895,22884
53189,53129,23288
53447,53368,23700
53696,53603,24103
53930,53826,24489
54153,54036,24853
54364,54231,25193
54555,54403,25497
54718,54544,25760
54855,54656,25987
54965,54743,26175
55054,54808,26328
55128,54854,26454
55181,54879,26553
55210,54887,26628
55225,54885,26687
55231,54878,26725
55229,54867,26743
55213,54854,26747
55183,54840,26736
55146,54825,26712
55108,54811,26683
55074,54798,26656
55044,54783,26625
55015,54765,26586
54988,54741,26540
54969,54716,26493
54959,54697,26455
54959,54691,26430
54965,54695,26415
54973,54702,26403
54978,54707,26393
54981,54712,26389
54981,54714,26386
54976,54709,26373
54968,54698,26355
54958,54686,26339
54949,54673,26321
54936,54656,26298
54922,54635,26272
54908,54616,26246
54896,54595,26216
54880,54567,26181
54854,54529,26137
54817,54483,26087
54777,54435,26031
54733,54389,25969
54688,54347,25904
54641,54312,25839
54595,54284,25772
54555,54255,25701
54519,54225,25630
54488,54198,25565
54466,54175,25512
54452,54154,25468
54437,54127,25431
54416,54093,25398
54392,54057,25367
54371,54025,25339
54353,54001,25315
54339,53986,25302
54329,53979,25300
54321,53976,25300
54316,53976,25300
54318,53984,25306
54326,53998,25318
54332,54011,25327
54326,54021,25331
54308,54027,25331
54285,54031,25327
54264,54031,25315
54251,54032,25299
54243,54033,25280
54234,54031,25254
54217,54021,25220
54193,54001,25172
54165,53974,25111
54136,53943,25039
54105,53906,24963
54072,53868,24887
54044,53836,24817
54023,53806,24755
54005,53773,24701
53983,53735,24654
53955,53695,24612
53926,53655,24570
53891,53612,24519
53852,53571,24458
53812,53533,24391
53767,53495,24319
53716,53457,24243
53663,53418,24166
53613,53381,24096
53564,53342,24030
53512,53298,23963
53460,53252,23893
53408,53204,23812
53355,53152,23725
53310,53104,23637
53274,53062,23552
53242,53026,23473
53209,52993,23399
53167,52962,23325
53124,52933,23247
53079,52901,23166
53037,52867,23091
53002,52836,23023
52970,52804,22955
52940,52772,22887
52914,52740,22821
52888,52705,22761
52864,52671,22707
52843,52641,22656
52816,52616,22602
52783,52593,22545
52747,52570,22486
52713,52553,22436
52681,52536,22392
52648,52513,22346
52615,52486,22301
52587,52457,22256
52566,52430,22212
52548,52410,22165
52529,52394,22113
52503,52374,22054
52468,52348,21988
52428,52320,21921
52386,52289,21856
52342,52257,21791
52297,52224,21723
52256,52194,21658
52227,52176,21603
52210,52168,21559
52202,52163,21523
52198,52159,21495
52197,52156,21476
52208,52164,21475
52238,52190,21504
52289,52236,21569
52364,52307,21678
52462,52401,21832
52582,52516,22025
52723,52655,22259
52891,52822,22538
53087,53017,22864
53305,53228,23225
53536,53445,23606
53767,53657,23988
53993,53859,24360
54211,54048,24717
54419,54218,25054
54613,54370,25373
54793,54510,25674
54956,54639,25952
55102,54753,26198
55230,54851,26414
55344,54938,26603
55442,55012,26764
55519,55070,26895
55569,55110,26987
55598,55133,27043
55612,55143,27071
55613,55147,27080
55606,55149,27075
55593,55148,27059
55577,55142,27030
55556,55126,26993
55532,55100,26951
55506,55065,26905
55473,55026,26855
55435,54983,26804
55396,54943,26757
55358,54908,26714
55323,54880,26675
55293,54859,26643
55270,54846,26621
55256,54837,26604
55249,54830,26595
55253,54833,26598
55263,54844,26613
55273,54853,26630
55288,54859,26644
55303,54859,26653
55308,54846,26652
55302,54825,26645
55291,54807,26636
55275,54789,26615
55254,54768,26581
55228,54748,26541
55194,54725,26493
55153,54698,26434
55112,54668,26369
55077,54637,26303
55050,54606,26234
55026,54572,26163
54994,54531,26097
54957,54490,26035
54922,54451,25978
54890,54416,25923
54859,54384,25868
54829,54356,25813
54803,54330,25763
54781,54311,25723
54763,54296,25693
54749,54287,25674
54737,54283,25661
54726,54282,25652
54712,54280,25643
54698,54275,25632
54684,54267,25620
54667,54256,25601
54654,54241,25578
54643,54227,25560
54630,54210,25542
54616,54192,25521
54611,54183,25504
54613,54182,25492
54617,54184,25478
54619,54183,25459
54612,54175,25432
54594,54162,25400
54572,54148,25364
54541,54126,25318
54501,54094,25259
54458,54057,25192
54413,54017,25120
54365,53977,25044
54316,53940,24971
54270,53908,24907
54234,53883,24853
54204,53860,24809
54172,53837,24764
54137,53811,24713
54101,53780,24656
54064,53745,24598
54032,53712,24539
54003,53681,24482
53975,53649,24424
53947,53619,24367
53916,53588,24309
53879,53556,24248
53841,53526,24183
53804,53500,24117
53762,53473,24046
53711,53440,23971
53655,53400,23892
53594,53352,23806
53530,53300,23717
53473,53252,23634
53424,53211,23557
53385,53180,23484
53355,53156,23415
53329,53134,23351
53303,53109,23285
53273,53079,23213
53235,53039,23133
53193,52992,23045
53147,52940,22958
53102,52889,22877
53061,52844,22805
53025,52805,22741
52999,52771,22687
52984,52744,22641
52977,52722,22601
52974,52701,22565
52968,52677,22528
52956,52650,22489
52939,52620,22449
52921,52594,22414
52895,52568,22377
52859,52538,22332
52816,52505,22274
52772,52475,22211
52727,52450,22154
52677,52429,22102
52623,52409,22053
52571,52388,22007
52522,52368,21963
52484,52349,21919
52460,52331,21876
52446,52315,21832
52435,52295,21784
52420,52269,21731
52401,52237,21677
52379,52200,21623
52356,52158,21566
52333,52116,21505
52315,52080,21445
52299,52048,21387
52280,52017,21328
52256,51988,21267
52225,51960,21208
52195,51939,21158
52176,51932,21131
52180,51951,21145
52214,52000,21208
52290,52088,21332
52408,52216,21521
52559,52378,21769
52730,52563,22066
52922,52763,22400
53130,52975,22765
53350,53194,23152
53582,53416,23554
53827,53637,23959
54079,53855,24358
54330,54065,24745
54571,54263,25112
54797,54444,25453
55003,54604,25765
55181,54741,26040
55335,54860,26280
55469,54966,26486
55583,55057,26656
55678,55131,26794
55751,55180,26900
55792,55201,26971
55809,55204,27015
55811,55202,27039
55806,55198,27047
55793,55189,27042
55773,55171,27024
55742,55146,26997
55703,55115,26964
55668,55083,26930
55640,55054,26900
55618,55032,26875
55601,55017,26855
55587,55009,26838
55577,55011,26825
55572,55019,26820
55566,55024,26818
55556,55024,26818
55550,55024,26823
55554,55027,26838
55563,55034,26856
55567,55046,26872
55565,55059,26888
55562,55069,26901
55563,55074,26909
55569,55075,26908
55577,55071,26898
55586,55064,26879
55597,55058,26858
55605,55052,26836
55601,55040,26808
55580,55017,26766
55551,54985,26711
55518,54942,26651
55476,54891,26585
55427,54837,26514
55374,54789,26441
55317,54745,26367
55260,54705,26295
55213,54678,26230
55177,54659,26170
55145,54637,26110
55118,54612,26055
55101,54586,26007
55090,54563,25969
55078,54538,25937
55065,54515,25911
55056,54501,25894
55050,54496,25886
55039,54493,25881
55022,54492,25875
55002,54493,25867
54984,54495,25860
54975,54503,25856
54975,54514,25857
54982,54525,25859
54990,54532,25857
54992,54531,25849
54989,54523,25835
54984,54511,25816
54979,54496,25791
54965,54470,25760
54946,54437,25724
54926,54405,25685
54899,54372,25635
54864,54334,25570
54820,54295,25500
54769,54257,25431
54720,54224,25365
54679,54192,25303
54646,54161,25248
54621,54132,25200
54602,54105,25156
54588,54082,25116
54572,54055,25075
54549,54020,25024
54520,53978,24961
54483,53930,24886
54440,53879,24809
54395,53830,24735
54348,53784,24661
54300,53743,24588
54252,53713,24518
54208,53691,24449
54166,53669,24379
54126,53643,24305
54085,53615,24233
54043,53582,24162
53999,53542,24095
53959,53505,24037
53924,53470,23982
53890,53438,23922
53857,53409,23853
53824,53380,23778
53790,53349,23703
53755,53320,23632
53718,53290,23564
53681,53256,23500
53644,53216,23441
53611,53177,23385
53582,53142,23329
53553,53112,23272
53518,53086,23217
53481,53061,23160
53447,53037,23103
53416,53012,23050
53388,52988,23003
53362,52965,22957
53335,52943,22913
53310,52924,22868
53286,52905,22820
53271,52889,22773
53261,52870,22728
53244,52844,22682
53219,52815,22634
53192,52786,22582
53163,52757,22529
53132,52731,22478
53105,52713,22428
53080,52695,22373
53049,52672,22310
53014,52647,22243
52977,52621,22177
52943,52597,22119
52914,52575,22066
52888,52553,22020
52865,52532,21982
52839,52504,21945
52809,52470,21907
52780,52436,21865
52756,52407,21820
52735,52381,21773
52716,52356,21726
52699,52333,21682
52678,52312,21639
52645,52289,21588
52601,52263,21532
52552,52237,21477
52502,52210,21420
52451,52177,21355
52401,52135,21279
52356,52090,21204
52319,52052,21140
52288,52021,21084
52259,51993,21029
52232,51968,20974
52207,51946,20921
52183,51925,20866
52153,51902,20807
52114,51870,20741
52071,51832,20673
52034,51794,20610
52009,51763,20558
51999,51740,20523
52009,51733,20510
52043,51750,20536
52100,51795,20614
52184,51871,20751
52303,51983,20948
52461,52135,21204
52651,52318,21510
52868,52528,21853
53108,52762,22227
53365,53013,22629
53628,53271,23044
53882,53523,23459
54125,53768,23864
54358,54003,24251
54575,54221,24611
54768,54409,24934
54941,54566,25217
55097,54698,25467
55237,54811,25683
55359,54902,25868
55459,54971,26025
55537,55020,26154
55593,55048,26248
55625,55057,26313
55635,55055,26355
55632,55044,26375
55621,55024,26373
55606,54997,26354
55587,54968,26327
55567,54943,26298
55543,54924,26270
55517,54910,26239
55492,54898,26205
55470,54887,26172
55448,54874,26140
55428,54858,26110
55420,54847,26087
55421,54834,26072
55415,54815,26061
55401,54792,26053
55387,54775,26047
55376,54765,26045
55362,54760,26045
55344,54756,26042
55331,54753,26037
55330,54756,26038
55336,54759,26045
55341,54757,26051
55347,54757,26059
55353,54760,26065
55353,54759,26059
55346,54751,26035
55331,54735,25992
55308,54712,25937
55274,54680,25874
55232,54639,25806
55190,54597,25738
55148,54555,25670
55104,54513,25600
55066,54471,25533
55038,54432,25471
55014,54393,25413
54988,54361,25364
54957,54335,25321
54924,54312,25280
54893,54293,25242
54869,54280,25209
54857,54272,25186
54852,54265,25173
54848,54258,25166
54846,54253,25162
54846,54254,25159
54846,54258,25155
54838,54255,25145
54830,54245,25132
54827,54235,25125
54824,54228,25123
54814,54217,25117
54796,54205,25102
54775,54195,25082
54755,54187,25058
54736,54176,25027
54717,54162,24991
54703,54145,24956
54692,54126,24925
54675,54105,24896
54654,54081,24863
54636,54063,24828
54621,54051,24793
54602,54036,24753
54575,54009,24700
54540,53971,24640
54505,53930,24581
54474,53898,24525
54447,53874,24467
54419,53852,24407
54388,53825,24348
54352,53790,24288
54315,53750,24229
54278,53714,24176
54240,53683,24125
54199,53651,24067
54156,53614,24002
54110,53572,23936
54062,53526,23867
54013,53479,23791
53965,53435,23710
53918,53392,23632
53867,53346,23556
53811,53298,23477
53755,53253,23396
53705,53216,23316
53665,53182,23239
53637,53150,23170
53618,53122,23109
53596,53096,23049
53567,53068,22986
53532,53040,22922
53496,53011,22858
53466,52980,22798
53438,52950,22745
53406,52926,22699
53377,52908,22658
53356,52895,22622
53339,52884,22589
53320,52874,22556
53294,52863,22520
53265,52846,22478
53240,52823,22433
53217,52797,22389
53195,52768,22345
53172,52739,22303
53146,52714,22262
53118,52693,22216
53086,52668,22160
53054,52640,22099
53030,52614,22042
53007,52589,21989
52980,52559,21936
52946,52524,21882
52906,52490,21828
52864,52460,21768
52824,52434,21710
52791,52414,21663
52770,52401,21629
52755,52392,21600
52744,52382,21569
52734,52365,21533
52719,52341,21494
52699,52313,21452
52671,52280,21401
52636,52247,21346
52604,52221,21294
52579,52205,21244
52555,52191,21192
52530,52173,21133
52503,52148,21073
52470,52116,21010
52432,52077,20946
52394,52036,20885
52359,51998,20834
52323,51964,20782
52284,51933,20728
52245,51910,20674
52207,51894,20617
52164,51872,20548
52115,51838,20466
52065,51792,20381
52020,51744,20301
51984,51697,20232
51950,51651,20177
51920,51613,20139
51907,51598,20130
51916,51608,20154
51945,51642,20209
51999,51707,20309
52089,51809,20459
52218,51947,20657
52382,52115,20905
52573,52306,21198
52784,52512,21520
53015,52729,21868
53261,52949,22234
53503,53160,22599
53734,53359,22956
53956,53553,23306
54169,53740,23642
54366,53912,23952
54543,54064,24228
54694,54194,24469
54812,54301,24677
54900,54382,24848
54964,54438,24979
55013,54473,25072
55054,54491,25140
55085,54499,25188
55100,54495,25215
55095,54479,25216
55076,54456,25196
55053,54431,25163
55030,54405,25122
55004,54375,25075
54973,54337,25026
54937,54296,24978
54899,54255,24928
54859,54219,24879
54820,54189,24832
54781,54163,24782
54743,54139,24734
54710,54120,24696
54687,54106,24664
54675,54099,24642
54678,54098,24635
54690,54098,24638
54697,54092,24645
54699,54082,24651
54704,54075,24659
54714,54072,24673
54725,54075,24686
54727,54080,24691
54720,54080,24682
54706,54069,24661
54686,54046,24632
54663,54018,24596
54632,53986,24550
54593,53951,24497
54542,53913,24437
54485,53871,24365
54432,53828,24285
54387,53783,24206
54343,53739,24134
54306,53703,24072
54277,53676,24019
54252,53654,23973
54225,53634,23928
54199,53614,23882
54177,53596,23841
54166,53586,23813
54166,53579,23790
54171,53573,23771
54174,53569,23760
54178,53569,23754
54184,53577,23751
54189,53590,23752
54188,53599,23751
54182,53602,23747
54173,53602,23742
54165,53600,23738
54160,53597,23732
54153,53590,23722
54140,53580,23708
54125,53570,23689
54112,53559,23667
54100,53547,23647
54085,53535,23622
54065,53519,23586
54040,53497,23540
54014,53466,23489
53990,53432,23439
53965,53401,23394
53932,53370,23346
53894,53339,23295
53861,53311,23246
53836,53286,23202
53813,53263,23161
53785,53241,23117
53759,53219,23069
53737,53193,23018
53711,53159,22965
53680,53122,22911
53644,53086,22854
53605,53055,22791
53566,53028,22725
53528,53000,22658
53487,52967,22589
53444,52928,22522
53395,52883,22452
53343,52836,22372
53293,52791,22287
53243,52745,22201
53194,52699,22121
53152,52660,22053
53117,52631,21996
53084,52607,21943
53050,52582,21888
53011,52551,21829
52971,52512,21769
52934,52473,21707
52900,52436,21642
52863,52404,21577
52823,52375,21512
52781,52347,21444
52742,52315,21374
52706,52280,21308
52674,52246,21248
52642,52213,21192
52607,52176,21137
52573,52138,21081
52549,52105,21026
52534,52077,20976
52524,52054,20936
52511,52037,20901
52489,52021,20861
52462,52006,20813
52437,51993,20762
52415,51977,20714
52387,51950,20671
52357,51919,20631
52335,51895,20593
52318,51882,20554
52298,51869,20508
52277,51852,20459
52256,51829,20410
52231,51802,20359
52200,51776,20312
52159,51751,20262
52115,51724,20207
52071,51693,20147
52030,51659,20088
51991,51626,20027
51946,51590,19961
51898,51551,19889
51856,51515,19819
51824,51480,19756
51798,51448,19703
51769,51419,19659
51747,51396,19626
51746,51390,19617
51767,51409,19646
51809,51457,19716
51878,51530,19830
51978,51627,19985
52106,51751,20179
52265,51902,20410
52448,52076,20679
52648,52266,20979
52858,52466,21294
53064,52664,21613
53261,52848,21928
53446,53015,22228
53618,53169,22510
53781,53312,22773
53937,53445,23016
54077,53564,23234
54192,53662,23418
54281,53735,23562
54353,53789,23674
54409,53826,23762
54448,53851,23829
54469,53867,23874
54472,53867,23898
54455,53848,23898
54422,53812,23878
54379,53767,23842
54328,53720,23799
54278,53675,23753
54235,53630,23702
54196,53587,23651
54161,53551,23599
54124,53517,23540
54086,53484,23480
54056,53455,23428
54035,53431,23388
54014,53410,23359
53988,53392,23333
53964,53375,23310
53945,53359,23290
53926,53340,23272
53906,53323,23254
53889,53312,23239
53876,53303,23227
53871,53299,23218
53869,53297,23210
53870,53293,23200
53870,53286,23188
53861,53273,23165
53840,53249,23125
53812,53216,23075
53784,53182,23021
53756,53148,22967
53724,53115,22912
53687,53083,22854
53648,53050,22793
53605,53010,22732
53559,52963,22672
53511,52919,22616
53464,52888,22565
53423,52868,22518
53393,52850,22473
53364,52829,22425
53331,52805,22375
53305,52785,22330
53288,52768,22293
53270,52750,22261
53247,52731,22231
53227,52719,22206
53216,52713,22190
53214,52714,22186
53217,52719,22189
53221,52726,22191
53228,52730,22185
53235,52731,22174
53236,52728,22161
53223,52720,22143
53201,52707,22118
53177,52687,22092
53154,52665,22069
53127,52642,22040
53094,52617,22001
53064,52593,21962
53044,52572,21927
53027,52551,21892
53006,52526,21854
52980,52499,21812
52953,52469,21765
52929,52437,21716
52903,52403,21665
52869,52372,21610
52828,52338,21548
52781,52295,21476
52727,52245,21394
52671,52195,21307
52619,52151,21227
52577,52115,21160
52539,52081,21097
52504,52050,21032
52475,52023,20973
52448,51996,20922
52418,51963,20867
52379,51922,20797
52331,51879,20716
52284,51835,20629
52233,51789,20539
52177,51745,20448
52127,51707,20361
52086,51668,20278
52044,51624,20196
51998,51581,20120
51956,51541,20050
51914,51503,19983
51875,51463,19919
51841,51424,19859
51807,51388,19799
51771,51354,19738
51738,51325,19682
51706,51298,19632
51676,51277,19582
51648,51261,19532
51618,51242,19482
51581,51216,19430
51542,51182,19375
51506,51146,19320
51475,51113,19264
51446,51086,19206
51415,51061,19150
51381,51034,19097
51344,51004,19043
51303,50971,18986
51263,50939,18926
51229,50909,18868
51200,50880,18819
51175,50857,18774
51149,50838,18728
51120,50817,18677
51087,50791,18625
51053,50762,18574
