green_channel,red_channel,ir_channel
56482,53238,29060
56485,53241,29054
56487,53241,29045
56483,53236,29029
56473,53228,29006
56463,53222,28986
56451,53216,28974
56437,53208,28967
56422,53198,28960
56410,53190,28959
56402,53183,28961
56394,53176,28959
56385,53166,28952
56378,53156,28940
56370,53145,28923
56358,53131,28901
56344,53115,28879
56327,53102,28855
56311,53092,28828
56292,53080,28795
56264,53063,28756
56231,53038,28714
56198,53013,28671
56169,52994,28631
56144,52976,28597
56123,52959,28572
56106,52945,28551
56091,52930,28529
56081,52917,28513
56077,52909,28501
56073,52899,28484
56063,52888,28462
56049,52881,28440
56033,52877,28422
56014,52869,28402
55995,52859,28380
55979,52852,28359
55966,52847,28340
55954,52837,28319
55948,52824,28296
55946,52812,28274
55940,52798,28250
55930,52780,28220
55921,52759,28187
55912,52740,28163
55903,52722,28146
55893,52708,28124
55879,52698,28101
55865,52695,28081
55855,52696,28062
55846,52694,28040
55837,52689,28017
55831,52684,27997
55825,52678,27980
55813,52665,27963
55795,52647,27945
55775,52630,27927
55753,52612,27909
55728,52591,27886
55702,52568,27859
55670,52545,27831
55635,52524,27799
55602,52505,27766
55574,52487,27737
55550,52469,27715
55533,52454,27701
55524,52443,27696
55524,52439,27704
55536,52442,27725
55560,52458,27758
55596,52487,27805
55642,52526,27868
55703,52576,27948
55774,52636,28044
55852,52706,28151
55934,52779,28269
56014,52850,28390
56089,52916,28511
56160,52980,28631
56227,53047,28752
56292,53113,28873
56356,53176,28986
56413,53233,29091
56463,53284,29186
56506,53331,29269
56545,53372,29341
56582,53405,29407
56615,53432,29466
56645,53459,29518
56673,53487,29561
56694,53510,29596
56708,53528,29624
56722,53545,29649
56735,53557,29672
56747,53565,29693
56759,53572,29713
56769,53580,29733
56776,53585,29752
56783,53590,29772
56789,53596,29794
56795,53603,29816
56798,53611,29837
56798,53618,29859
56799,53625,29887
56803,53634,29919
56812,53646,29956
56826,53662,29998
56843,53680,30039
56868,53703,30080
56900,53729,30122
56932,53754,30168
56964,53780,30216
56998,53807,30262
57035,53838,30309
57075,53870,30358
57113,53898,30399
57145,53920,30430
57170,53936,30457
57189,53949,30484
57210,53963,30513
57228,53977,30538
57236,53986,30555
57236,53990,30565
57231,53994,30573
57226,54001,30582
57221,54010,30591
57211,54012,30594
57198,54007,30589
57187,54001,30584
57178,53996,30582
57171,53995,30582
57167,53998,30586
57166,54003,30594
57169,54005,30607
57177,54007,30623
57189,54011,30639
57201,54018,30648
57215,54026,30655
57226,54034,30663
57228,54036,30667
57228,54035,30665
57227,54034,30665
57225,54033,30671
57228,54035,30679
57236,54041,30685
57243,54047,30689
57248,54050,30694
57254,54050,30700
57260,54047,30705
57264,54046,30709
57267,54047,30716
57270,54049,30722
57269,54047,30722
57263,54041,30717
57255,54037,30711
57248,54038,30709
57239,54041,30706
57227,54040,30703
57208,54034,30696
57190,54025,30685
57179,54020,30674
57171,54018,30665
57165,54012,30658
57161,54000,30648
57159,53986,30633
57160,53975,30620
57161,53966,30608
57161,53955,30593
57152,53942,30574
57139,53929,30551
57121,53914,30525
57101,53900,30498
57082,53889,30475
57069,53880,30457
57057,53870,30440
57044,53859,30425
57031,53849,30411
57021,53841,30401
57012,53835,30389
57005,53829,30375
56997,53823,30360
56988,53816,30344
56974,53810,30324
56954,53800,30301
56932,53787,30279
56909,53772,30260
56888,53757,30240
56871,53745,30221
56859,53739,30210
56852,53736,30205
56845,53732,30198
56837,53727,30185
56828,53723,30172
56817,53720,30162
56803,53717,30152
56790,53712,30141
56776,53702,30131
56760,53690,30123
56743,53675,30111
56729,53656,30091
56718,53639,30069
56712,53628,30050
56710,53621,30033
56711,53615,30017
56709,53610,30001
56704,53601,29985
56694,53587,29967
56681,53574,29947
56669,53567,29930
56659,53560,29915
56648,53552,29898
56637,53547,29881
56627,53551,29867
56614,53553,29851
56599,53550,29830
56587,53545,29805
56580,53540,29781
56577,53536,29757
56571,53529,29730
56559,53516,29700
56541,53498,29667
56520,53479,29629
56499,53460,29592
56478,53443,29560
56457,53428,29532
56433,53413,29502
56409,53395,29469
56386,53374,29439
56368,53356,29415
56354,53344,29393
56340,53335,29374
56322,53325,29355
56303,53311,29337
56287,53300,29320
56273,53291,29301
56258,53284,29283
56244,53276,29263
56227,53263,29237
56203,53244,29205
56174,53223,29172
56143,53201,29142
56115,53182,29114
56091,53165,29085
56068,53148,29058
56045,53128,29030
56024,53106,29003
56010,53089,28979
55998,53079,28960
55987,53074,28940
55980,53072,28920
55976,53069,28902
55971,53063,28882
55963,53057,28862
55959,53051,28842
55953,53041,28820
55939,53021,28794
55916,52992,28756
55889,52962,28707
55857,52934,28658
55830,52915,28619
55813,52902,28590
55800,52889,28563
55787,52876,28539
55771,52862,28519
55755,52850,28498
55741,52842,28476
55726,52831,28453
55705,52818,28434
55680,52802,28412
55656,52785,28387
55635,52772,28362
55614,52758,28340
55594,52742,28319
55577,52722,28295
55563,52699,28267
55545,52673,28237
55523,52647,28203
55500,52624,28165
55474,52602,28130
55450,52583,28101
55435,52570,28079
55425,52557,28058
55417,52547,28036
55411,52539,28016
55404,52533,27995
55395,52525,27974
55383,52517,27956
55372,52512,27941
55361,52507,27923
55348,52498,27898
55332,52485,27871
55312,52467,27843
55289,52447,27816
55266,52426,27788
55241,52407,27760
55218,52392,27733
55197,52379,27708
55178,52367,27684
55162,52360,27663
55150,52357,27649
55143,52355,27643
55143,52361,27648
55159,52378,27673
55193,52408,27716
55242,52453,27775
55301,52510,27853
55372,52580,27953
55453,52658,28071
55536,52735,28199
55617,52808,28331
55696,52879,28467
55776,52950,28605
55852,53017,28741
55926,53080,28873
56001,53143,29004
56071,53202,29129
56133,53256,29245
56188,53307,29351
56239,53355,29447
56289,53399,29531
56332,53437,29602
56364,53467,29661
56387,53488,29706
56400,53503,29741
56409,53515,29772
56419,53528,29801
56427,53541,29828
56435,53552,29847
56443,53562,29861
56450,53569,29880
56459,53577,29908
56471,53586,29939
56482,53597,29972
56494,53611,30008
56508,53622,30039
56524,53631,30061
56542,53638,30078
56562,53648,30100
56586,53667,30130
56610,53692,30167
56635,53715,30209
56663,53737,30256
56695,53762,30310
56729,53791,30368
56762,53819,30426
56792,53847,30478
56820,53873,30523
56847,53899,30565
56875,53927,30616
56903,53955,30672
56928,53982,30723
56949,54010,30768
56968,54037,30809
56989,54061,30845
57011,54081,30877
57030,54098,30906
57050,54114,30929
57069,54131,30945
57086,54144,30956
57100,54152,30962
57112,54158,30970
57121,54160,30980
57124,54157,30986
57118,54148,30983
57109,54137,30976
57097,54127,30967
57086,54118,30958
57080,54113,30955
57080,54109,30959
57083,54108,30965
57091,54109,30972
57099,54109,30979
57104,54112,30991
57110,54123,31012
57119,54139,31034
57125,54156,31055
57132,54171,31077
57140,54184,31101
57147,54192,31119
57152,54197,31132
57157,54202,31145
57162,54208,31155
57166,54215,31163
57167,54224,31171
57162,54231,31178
57154,54234,31181
57148,54236,31177
57139,54234,31168
57128,54228,31158
57119,54221,31150
57114,54214,31147
57111,54209,31147
57111,54205,31147
57113,54201,31146
57111,54197,31141
57105,54193,31134
57098,54188,31126
57096,54184,31118
57094,54180,31109
57091,54174,31102
57089,54168,31096
57086,54163,31087
57082,54157,31074
57075,54150,31058
57067,54143,31037
57058,54136,31010
57048,54129,30983
57039,54123,30961
57031,54116,30940
57021,54105,30919
57015,54097,30898
57009,54090,30881
57001,54082,30867
56992,54074,30855
56983,54064,30842
56972,54053,30827
56959,54042,30812
56942,54027,30793
56923,54006,30771
56909,53987,30755
56901,53976,30746
56891,53970,30737
56878,53963,30727
56865,53956,30717
56851,53947,30703
56835,53933,30687
56823,53923,30671
56814,53917,30657
56806,53915,30646
56797,53914,30635
56784,53911,30621
56766,53903,30603
56750,53890,30580
56739,53875,30558
56734,53863,30540
56729,53853,30524
56728,53845,30504
56730,53840,30478
56732,53835,30451
56727,53828,30423
56717,53819,30400
56703,53808,30381
56689,53797,30362
56675,53790,30346
56667,53788,30335
56662,53786,30329
56653,53778,30322
56637,53761,30309
56621,53740,30291
56607,53723,30270
56592,53709,30247
56577,53695,30222
56562,53682,30195
56547,53673,30169
56533,53666,30144
56519,53657,30118
56510,53646,30088
56505,53634,30058
56498,53623,30030
56489,53611,29999
56480,53602,29968
56469,53596,29945
56459,53594,29931
56449,53595,29925
56437,53595,29918
56421,53591,29910
56403,53582,29897
56386,53572,29879
56373,53561,29857
56362,53549,29832
56354,53537,29807
56349,53529,29785
56338,53523,29764
56328,53516,29742
56323,53508,29720
56323,53499,29695
56319,53485,29668
56310,53467,29640
56297,53449,29615
56283,53435,29596
56269,53427,29581
56257,53422,29568
56249,53418,29557
56245,53413,29547
56237,53405,29537
56224,53394,29529
56209,53383,29520
56193,53374,29504
56180,53364,29483
56166,53350,29463
56148,53335,29442
56130,53318,29417
56112,53300,29391
56091,53280,29366
56072,53261,29343
56055,53248,29317
56035,53231,29284
56012,53213,29247
55989,53197,29208
55967,53179,29166
55944,53156,29123
55920,53134,29086
55893,53113,29052
55866,53089,29016
55843,53067,28985
55825,53053,28964
55810,53047,28949
55800,53042,28932
55788,53035,28912
55770,53022,28891
55751,53006,28870
55733,52988,28847
55717,52970,28821
55703,52954,28793
55691,52939,28765
55679,52926,28736
55664,52911,28708
55642,52891,28679
55616,52865,28644
55590,52835,28600
55568,52805,28556
55546,52777,28516
55523,52753,28477
55503,52735,28446
55491,52726,28433
55491,52727,28438
55504,52739,28460
55525,52762,28498
55556,52797,28558
55597,52844,28639
55651,52898,28735
55725,52964,28845
55816,53045,28973
55915,53133,29113
56012,53219,29257
56107,53302,29401
56199,53382,29546
56285,53454,29687
56364,53521,29819
56437,53584,29945
56501,53640,30064
56557,53688,30168
56611,53732,30261
56664,53777,30347
56712,53820,30426
56751,53857,30497
56784,53887,30559
56813,53911,30610
56831,53927,30653
56843,53939,30689
56850,53948,30715
56854,53954,30733
56859,53963,30750
56868,53973,30767
56880,53983,30782
56892,53993,30792
56900,54001,30804
56903,54007,30819
56904,54014,30835
56912,54024,30853
56926,54038,30877
56943,54053,30906
56961,54068,30936
56985,54088,30973
57014,54115,31020
57046,54147,31071
57078,54182,31125
57109,54215,31183
57136,54245,31239
57159,54274,31290
57186,54306,31342
57219,54341,31396
57255,54377,31450
57290,54411,31500
57324,54444,31544
57356,54474,31586
57384,54502,31626
57403,54521,31660
57414,54531,31685
57423,54538,31703
57428,54545,31716
57431,54550,31725
57430,54549,31730
57427,54546,31734
57427,54545,31742
57429,54544,31750
57430,54544,31758
57430,54546,31769
57427,54547,31780
57422,54546,31785
57416,54542,31787
57410,54535,31789
57406,54529,31793
57403,54526,31797
57403,54526,31800
57408,54529,31805
57416,54535,31814
57421,54542,31824
57422,54548,31833
57424,54556,31843
57430,54567,31856
57438,54578,31870
57444,54585,31883
57446,54587,31895
57449,54588,31904
57454,54585,31903
57461,54585,31897
57470,54587,31894
57474,54590,31892
57472,54593,31893
57465,54597,31896
57453,54597,31898
57440,54589,31898
57432,54582,31897
57428,54580,31896
57421,54577,31890
57407,54569,31878
57387,54558,31862
57368,54546,31843
57356,54537,31822
57346,54530,31799
57332,54520,31776
57313,54507,31755
57293,54489,31733
57274,54470,31706
57262,54453,31677
57257,54441,31656
57250,54426,31643
57240,54408,31630
57231,54390,31616
57223,54377,31604
57219,54372,31593
57215,54372,31582
57205,54370,31574
57194,54372,31573
57187,54374,31572
57181,54372,31566
57173,54366,31555
57161,54360,31544
57152,54355,31534
57149,54353,31524
57145,54348,31510
57136,54337,31491
57125,54324,31467
57113,54310,31438
57108,54300,31413
57108,54289,31391
57108,54275,31370
57103,54259,31349
57091,54243,31328
57076,54230,31311
57063,54221,31296
57053,54216,31283
57043,54211,31271
57028,54204,31259
57008,54192,31242
56989,54177,31219
56978,54168,31197
56969,54163,31179
56956,54154,31158
56943,54140,31134
56927,54122,31114
56907,54103,31095
56889,54087,31073
56873,54074,31051
56859,54062,31031
56846,54051,31011
56834,54042,30992
56823,54034,30974
56811,54025,30956
56799,54013,30934
56786,54000,30908
56770,53985,30880
56750,53968,30852
56729,53950,30826
56709,53931,30800
56689,53912,30772
56668,53895,30740
56644,53876,30701
56619,53853,30656
56591,53831,30614
56560,53809,30577
56525,53784,30539
56491,53757,30501
56460,53729,30467
56435,53705,30436
56412,53684,30406
56386,53667,30378
56361,53651,30351
56340,53636,30325
56323,53621,30299
56309,53606,30274
56299,53593,30249
56289,53578,30226
56282,53560,30199
56277,53548,30173
56271,53541,30152
56260,53535,30132
56241,53524,30109
56221,53510,30083
56204,53497,30056
56184,53483,30030
56159,53468,30001
56133,53454,29970
56113,53444,29945
56097,53437,29922
56082,53427,29896
56064,53412,29865
56046,53397,29835
56030,53383,29808
56014,53368,29779
55996,53350,29746
55977,53333,29716
55954,53317,29689
55927,53299,29661
55902,53284,29632
55880,53271,29604
55860,53256,29578
55841,53238,29555
55823,53218,29530
55799,53192,29495
55769,53159,29453
55737,53126,29412
55707,53098,29378
55681,53079,29350
55663,53067,29328
55653,53061,29314
55651,53062,29317
55659,53073,29336
55678,53094,29366
55711,53125,29408
55757,53166,29467
55816,53220,29544
55883,53282,29636
55959,53350,29745
56039,53423,29870
56119,53496,30008
56201,53570,30154
56287,53648,30302
56378,53727,30451
56469,53808,30599
56555,53887,30741
56630,53959,30872
56699,54023,30993
56762,54081,31104
56820,54134,31202
56875,54182,31289
56926,54225,31369
56970,54263,31443
57004,54294,31508
57028,54317,31560
57044,54329,31601
57058,54336,31634
57068,54341,31663
57073,54346,31690
57080,54358,31716
57091,54375,31741
57104,54392,31764
57117,54407,31790
57130,54421,31821
57139,54433,31848
57146,54438,31868
57157,54445,31892
57172,54458,31922
57190,54475,31958
57210,54496,31999
57230,54517,32042
57251,54539,32091
57276,54565,32146
57303,54592,32203
57331,54619,32264
57363,54650,32329
57395,54685,32392
57423,54720,32452
57450,54751,32510
57481,54778,32567
57517,54805,32623
57556,54832,32680
57592,54858,32734
57625,54879,32778
57655,54895,32810
57676,54907,32833
57684,54910,32850
57683,54909,32864
57686,54909,32874
57690,54913,32882
57695,54918,32890
57700,54925,32898
57704,54935,32904
57708,54948,32910
57714,54964,32920
57720,54983,32932
57723,54994,32940
57719,54996,32945
57715,54994,32947
57715,54990,32948
57717,54984,32950
57722,54980,32961
57734,54982,32980
57745,54987,33001
57754,54993,33016
57759,54998,33025
57760,54998,33028
57763,54997,33030
57768,54999,33032
57770,55006,33034
57773,55014,33038
57772,55020,33042
57765,55020,33042
57755,55014,33036
57746,55007,33030
57744,55006,33029
57746,55008,33032
57745,55009,33038
57744,55008,33046
57747,55007,33053
57748,55005,33058
57745,55003,33059
57738,54996,33055
57731,54985,33043
57722,54973,33027
57706,54960,33008
57685,54949,32989
57669,54942,32974
57657,54938,32958
57645,54933,32939
57630,54926,32918
57613,54917,32892
57592,54902,32864
57570,54883,32837
57551,54861,32808
57538,54843,32782
57531,54832,32764
57526,54827,32751
57516,54823,32739
57502,54817,32725
57489,54810,32711
57477,54803,32697
57465,54796,32681
57455,54791,32663
57448,54783,32645
57442,54774,32629
57438,54764,32612
57427,54752,32595
57411,54738,32578
57399,54729,32566
57389,54722,32556
57375,54712,32542
57359,54699,32525
57346,54687,32512
57332,54670,32502
57319,54648,32492
57312,54628,32483
57312,54613,32470
57309,54603,32450
57299,54596,32425
57279,54585,32399
57250,54567,32372
57219,54545,32341
57187,54521,32308
57151,54496,32274
57117,54470,32238
57093,54445,32201
57074,54419,32166
57055,54394,32133
57040,54375,32102
57031,54364,32073
57027,54357,32051
57027,54350,32037
57027,54346,32027
57025,54348,32016
57020,54348,32000
57012,54345,31982
56999,54340,31961
56984,54332,31938
56967,54320,31914
56951,54307,31890
56931,54288,31860
56906,54265,31823
56882,54241,31785
56862,54221,31753
56844,54201,31720
56821,54178,31683
56792,54153,31644
56759,54127,31606
56725,54102,31565
56694,54079,31525
56668,54060,31493
56650,54044,31468
56635,54032,31444
56617,54018,31417
56596,54001,31384
56571,53985,31351
56541,53967,31317
56511,53944,31279
56479,53914,31238
56445,53885,31198
56414,53861,31161
56388,53842,31125
56366,53824,31091
56350,53809,31056
56339,53797,31020
56332,53786,30985
56328,53772,30955
56322,53760,30926
56316,53752,30897
56305,53742,30869
56290,53729,30841
56274,53717,30812
56257,53706,30782
56237,53696,30753
56216,53687,30729
56201,53680,30706
56188,53672,30681
56174,53656,30655
56159,53638,30627
56145,53621,30594
56127,53602,30555
56104,53580,30516
56079,53558,30480
56055,53539,30446
56030,53519,30412
56007,53498,30378
55983,53478,30342
55956,53455,30306
55927,53431,30271
55897,53405,30239
55867,53381,30210
55840,53359,30182
55816,53337,30153
55795,53315,30124
55779,53298,30099
55769,53287,30078
55760,53278,30057
55748,53270,30033
55735,53262,30007
55718,53251,29978
55694,53234,29949
55665,53214,29919
55638,53195,29889
55613,53176,29855
55590,53155,29817
55565,53132,29777
55538,53106,29734
55508,53079,29689
55478,53056,29647
55452,53038,29611
55425,53018,29573
55397,52993,29531
55369,52963,29488
55345,52937,29452
55325,52919,29425
55308,52907,29405
55297,52900,29392
55298,52903,29391
55312,52916,29401
55336,52935,29422
55368,52960,29457
55408,52991,29508
55450,53029,29573
55499,53076,29657
55562,53137,29758
55641,53213,29879
55731,53296,30011
55823,53380,30151
55915,53466,30304
56006,53553,30463
56095,53636,30622
56184,53715,30780
56277,53794,30940
56372,53873,31100
56461,53950,31249
56540,54021,31382
56610,54085,31505
56670,54140,31619
56722,54192,31722
56775,54244,31814
56827,54293,31897
56873,54332,31969
56909,54361,32029
56934,54384,32076
56952,54403,32118
56967,54420,32157
56979,54433,32194
56989,54443,32225
56999,54454,32257
57011,54468,32290
57025,54484,32322
57040,54501,32351
57056,54521,32383
57074,54544,32420
57091,54564,32459
57105,54581,32499
57115,54595,32542
57124,54611,32587
57136,54630,32635
57152,54652,32687
57175,54676,32745
57206,54703,32807
57243,54735,32874
57285,54774,32946
57328,54816,33024
57374,54862,33105
57420,54910,33184
57468,54956,33259
57516,55000,33333
57561,55042,33402
57600,55081,33468
57634,55115,33529
57665,55144,33584
57691,55167,33631
57709,55184,33666
57719,55196,33693
57725,55206,33712
57730,55216,33721
57730,55220,33722
57722,55218,33717
57712,55212,33709
57702,55204,33699
57687,55190,33686
57667,55174,33672
57646,55161,33657
57629,55152,33645
57614,55148,33635
57601,55144,33630
57592,55137,33631
57585,55127,33632
57582,55121,33634
57586,55124,33642
57595,55130,33654
57607,55138,33671
57624,55149,33692
57640,55160,33712
57651,55167,33726
57659,55171,33731
57664,55175,33733
57669,55182,33740
57673,55187,33750
57672,55185,33754
57668,55180,33756
57667,55180,33765
57674,55186,33777
57681,55196,33785
57686,55204,33789
57691,55210,33793
57694,55213,33796
57695,55213,33795
57696,55212,33798
57702,55216,33807
57714,55226,33814
57727,55238,33815
57739,55248,33816
57750,55258,33818
57754,55263,33815
57747,55257,33798
57733,55243,33773
57718,55231,33751
57704,55218,33732
57687,55203,33712
57666,55185,33691
57644,55167,33673
57623,55152,33655
57598,55137,33634
57569,55119,33609
57542,55099,33580
57526,55082,33548
57516,55068,33514
57504,55051,33485
57487,55033,33463
57469,55014,33441
57453,54998,33416
57438,54983,33391
57425,54970,33367
57416,54963,33346
57408,54961,33331
57399,54960,33319
57388,54958,33305
57378,54952,33285
57365,54940,33259
57345,54921,33231
57324,54903,33203
57305,54890,33176
57288,54878,33151
57274,54868,33130
57265,54860,33111
57259,54853,33093
57255,54847,33079
57255,54843,33074
57255,54838,33074
57251,54832,33071
57245,54826,33063
57238,54818,33054
57228,54806,33039
57213,54790,33014
57199,54775,32983
57186,54762,32951
57167,54747,32917
57142,54730,32883
57118,54711,32851
57096,54694,32823
57080,54679,32798
57067,54664,32775
57054,54651,32752
57037,54639,32727
57020,54625,32698
57001,54609,32664
56977,54592,32628
56948,54569,32589
56918,54539,32547
56889,54508,32506
56865,54481,32471
56850,54463,32442
56836,54447,32415
56817,54428,32381
56797,54409,32342
56783,54397,32305
56774,54386,32269
56764,54373,32236
56753,54358,32206
56744,54342,32177
56735,54326,32148
56725,54310,32122
56711,54296,32099
56692,54282,32075
56669,54269,32050
56648,54260,32027
56629,54251,32004
56611,54242,31979
56597,54232,31955
56583,54220,31932
56567,54208,31908
56551,54194,31884
56537,54181,31856
56520,54168,31822
56497,54156,31785
56476,54143,31749
56455,54124,31712
56437,54101,31675
56422,54082,31643
56408,54066,31612
56392,54050,31583
56375,54033,31557
56359,54016,31533
56338,53994,31504
56308,53966,31469
56270,53934,31429
56232,53899,31385
56198,53869,31339
56171,53847,31297
56149,53831,31261
56132,53820,31231
56118,53811,31203
56106,53803,31176
56097,53798,31149
56088,53793,31119
56077,53779,31084
56059,53756,31044
56035,53729,31004
56015,53706,30968
56000,53686,30937
55988,53670,30909
55977,53659,30883
55966,53651,30856
55952,53640,30827
55937,53624,30801
55921,53609,30779
55901,53594,30755
55879,53576,30721
55858,53557,30680
55836,53538,30641
55811,53519,30603
55783,53499,30560
55755,53477,30514
55730,53454,30474
55706,53432,30438
55684,53415,30404
55664,53404,30374
55644,53397,30348
55620,53386,30316
55592,53369,30279
55563,53348,30239
55534,53323,30201
55506,53294,30165
55480,53266,30129
55456,53240,30094
55431,53217,30057
55407,53194,30019
55382,53173,29981
55359,53155,29947
55341,53142,29920
55323,53132,29900
55309,53126,29885
55299,53122,29881
55299,53125,29893
55314,53145,29926
55343,53177,29979
55382,53216,30051
55434,53264,30143
55503,53323,30255
55583,53390,30381
55673,53464,30520
55774,53547,30673
55878,53635,30833
55979,53723,30996
56079,53812,31162
56179,53905,31326
56277,53997,31482
56367,54082,31631
56448,54158,31771
56524,54224,31902
56600,54284,32022
56677,54340,32135
56746,54390,32241
56801,54432,32336
56845,54470,32421
56887,54508,32498
56927,54543,32566
56956,54568,32617
56974,54584,32650
56983,54596,32674
56987,54606,32692
56990,54617,32708
56996,54631,32725
57006,54646,32744
57019,54662,32766
57031,54680,32794
57045,54700,32828
57064,54725,32869
57089,54754,32912
57118,54785,32956
57154,54817,33004
57191,54848,33062
57226,54876,33125
57262,54905,33186
57303,54935,33250
57346,54967,33318
57390,54999,33389
57433,55028,33456
57469,55057,33517
57505,55089,33575
57538,55121,33632
57566,55153,33685
57594,55185,33736
57620,55219,33786
57644,55250,33835
57666,55280,33880
57683,55306,33922
57693,55324,33961
57698,55334,33991
57696,55333,34009
57690,55328,34021
57687,55325,34030
57686,55323,34037
57681,55317,34039
57672,55311,34039
57665,55306,34039
57661,55302,34038
57658,55301,34036
57656,55300,34033
57652,55297,34029
57646,55290,34024
57640,55281,34020
57633,55270,34014
57631,55262,34007
57636,55259,34003
57642,55256,34003
57645,55253,34008
57651,55253,34019
57661,55259,34030
57672,55268,34038
57683,55280,34049
57696,55294,34059
57708,55306,34065
57716,55315,34069
57719,55325,34073
57718,55332,34075
57716,55335,34072
57712,55335,34067
57710,55338,34064
57706,55343,34065
57701,55346,34067
57695,55345,34067
57689,55343,34065
57685,55344,34065
57682,55345,34063
57676,55340,34058
57670,55333,34052
57665,55328,34047
57657,55323,34040
57644,55315,34028
57627,55303,34014
57613,55290,33996
57597,55277,33967
57578,55263,33932
57558,55248,33901
57538,55233,33870
57519,55217,33838
57499,55201,33811
57482,55187,33786
57472,55176,33765
57463,55164,33743
57451,55145,33719
57439,55126,33696
57426,55110,33680
57412,55096,33664
57394,55081,33647
57377,55067,33627
57361,55055,33604
57346,55045,33583
57331,55037,33566
57319,55033,33556
57313,55033,33549
57308,55035,33542
57306,55040,33537
57307,55049,33532
57307,55052,33521
57300,55053,33505
57291,55052,33487
57280,55045,33466
57267,55027,33439
57247,55003,33404
57221,54974,33368
57192,54941,33332
57163,54907,33296
57143,54880,33260
57131,54859,33228
57119,54839,33199
57103,54821,33171
57084,54804,33148
57058,54786,33126
57030,54768,33104
57002,54749,33082
56975,54730,33059
56953,54716,33038
56937,54705,33016
56922,54693,32991
56911,54681,32964
56902,54667,32934
56892,54653,32904
56884,54640,32876
56873,54632,32849
56855,54625,32823
56831,54612,32791
56805,54592,32751
56780,54567,32706
56758,54539,32662
56734,54509,32619
56709,54476,32576
56685,54447,32535
56663,54423,32497
56644,54405,32461
56624,54392,32426
56608,54385,32396
56591,54380,32369
56573,54371,32339
56555,54358,32307
56535,54341,32275
56512,54322,32240
56485,54300,32201
56458,54279,32162
56437,54262,32127
56419,54249,32099
56396,54235,32074
56373,54223,32051
56353,54209,32027
56330,54189,31996
56305,54166,31959
56281,54145,31919
56261,54126,31885
56245,54108,31855
56232,54091,31823
56219,54074,31792
56208,54055,31760
56195,54031,31722
56173,54002,31679
56144,53973,31639
56111,53949,31603
56075,53924,31567
56041,53899,31527
56011,53874,31487
55984,53852,31455
55963,53834,31428
55946,53821,31407
55933,53811,31385
55920,53800,31362
55902,53784,31337
55879,53766,31308
55858,53750,31276
55838,53736,31244
55818,53719,31208
55796,53696,31172
55773,53671,31138
55752,53647,31104
55734,53627,31069
55713,53607,31033
55688,53585,30994
55662,53564,30955
55638,53544,30919
55615,53523,30883
55592,53496,30843
55567,53470,30801
55544,53450,30762
55525,53437,30733
55516,53436,30723
55517,53444,30735
55528,53463,30766
55555,53499,30818
55602,53551,30895
55667,53617,30995
55747,53694,31117
55841,53781,31260
55944,53877,31419
56051,53975,31587
56158,54069,31757
56266,54161,31927
56375,54251,32097
56485,54341,32266
56594,54433,32434
56696,54523,32596
56787,54605,32749
56869,54680,32893
56940,54746,33023
57000,54807,33136
57054,54862,33234
57098,54910,33322
57134,54952,33400
57163,54988,33468
57184,55016,33529
57197,55037,33580
57208,55052,33619
57220,55062,33646
57235,55070,33669
57252,55078,33692
57264,55082,33709
57272,55086,33724
57283,55096,33744
57297,55111,33766
57313,55127,33790
57330,55141,33816
57347,55153,33846
57369,55170,33882
57394,55189,33925
57420,55211,33974
57449,55235,34028
57480,55261,34085
57510,55287,34145
57538,55316,34209
57566,55347,34270
57595,55379,34329
57629,55413,34389
57665,55451,34452
57700,55487,34512
57731,55521,34566
57760,55555,34617
57791,55591,34669
57821,55626,34717
57849,55655,34757
57874,55676,34787
57896,55691,34809
57909,55698,34823
57917,55701,34831
57925,55705,34839
57931,55705,34847
57926,55699,34851
57909,55690,34847
57890,55680,34838
57873,55671,34828
57863,55665,34824
57858,55662,34824
57853,55657,34819
57852,55650,34811
57854,55644,34806
57855,55642,34804
57852,55644,34802
57851,55647,34801
57855,55650,34802
57862,55650,34808
57870,55650,34819
57877,55653,34833
57880,55655,34843
57882,55661,34852
57887,55670,34863
57894,55681,34874
57900,55691,34883
57906,55700,34890
57912,55707,34897
57911,55713,34902
57902,55719,34904
57893,55723,34902
57891,55724,34900
57895,55725,34901
57900,55726,34903
57902,55725,34899
57902,55723,34888
57900,55718,34876
57891,55706,34864
57873,55689,34849
57849,55673,34830
57825,55657,34809
57806,55641,34789
57791,55626,34775
57775,55613,34759
57758,55601,34735
57744,55589,34708
57728,55574,34679
57711,55556,34651
57695,55539,34624
57678,55520,34595
57659,55496,34562
57643,55477,34532
57629,55466,34502
57613,55456,34474
57592,55442,34454
57569,55428,34442
57554,55413,34430
57541,55396,34418
57521,55376,34408
57498,55357,34391
57479,55342,34366
57459,55328,34338
57437,55313,34308
57414,55298,34278
57396,55283,34249
57381,55267,34220
57362,55248,34190
57342,55227,34157
57327,55207,34120
57316,55191,34082
57305,55175,34050
57290,55157,34028
57268,55136,34012
57239,55111,33998
57210,55090,33985
57187,55079,33973
57170,55073,33958
57158,55069,33942
57146,55064,33924
57129,55053,33897
57107,55035,33861
57086,55018,33823
57068,55006,33788
57053,54996,33757
57038,54986,33732
57026,54974,33712
57016,54958,33686
57004,54937,33646
56991,54914,33603
56980,54892,33561
56967,54872,33520
56954,54855,33481
56939,54841,33448
56923,54829,33420
56903,54817,33394
56880,54800,33366
56851,54779,33334
56813,54753,33297
56767,54726,33255
56728,54706,33214
56698,54689,33174
56670,54673,33133
56643,54655,33095
56621,54633,33064
56605,54613,33039
56597,54599,33014
56593,54587,32985
56587,54571,32947
56576,54551,32906
56562,54530,32865
56545,54508,32819
56529,54485,32772
56511,54467,32733
56486,54448,32700
56458,54430,32664
56428,54411,32627
56396,54393,32592
56364,54378,32560
56337,54366,32526
56315,54353,32489
56298,54340,32452
56280,54326,32420
56261,54309,32391
56243,54292,32364
56230,54275,32337
56217,54257,32308
56205,54234,32273
56193,54211,32236
56182,54187,32201
56167,54165,32169
56149,54143,32139
56125,54120,32108
56093,54096,32074
56056,54071,32037
56020,54046,31998
55987,54025,31957
55962,54011,31920
55942,53997,31889
55922,53980,31857
55904,53962,31830
55893,53943,31805
55880,53925,31775
55861,53903,31733
55834,53878,31684
55800,53850,31633
55765,53824,31584
55733,53799,31536
55702,53772,31493
55671,53745,31453
55640,53719,31414
55609,53694,31373
55581,53673,31337
55561,53658,31311
55546,53645,31286
55529,53630,31259
55516,53618,31232
55506,53611,31203
55499,53604,31172
55496,53596,31134
55490,53585,31091
55474,53565,31050
55447,53537,31012
55414,53506,30976
55382,53477,30944
55351,53451,30912
55319,53425,30875
55289,53401,30836
55261,53380,30799
55237,53363,30770
55221,53350,30742
55207,53341,30710
55194,53334,30681
55188,53334,30665
55189,53340,30664
55198,53351,30678
55218,53367,30709
55248,53390,30762
55289,53424,30834
55344,53473,30928
55416,53540,31048
55502,53623,31195
55598,53715,31357
55698,53812,31532
55801,53910,31715
55908,54007,31900
56017,54101,32081
56122,54196,32259
56223,54292,32437
56326,54387,32613
56429,54479,32778
56522,54562,32926
56603,54634,33057
56675,54694,33171
56737,54742,33267
56788,54783,33351
56826,54818,33426
56855,54845,33491
56878,54866,33545
56901,54884,33592
56921,54901,33633
56940,54916,33668
56955,54925,33696
56965,54932,33720
56974,54937,33743
56988,54944,33765
57006,54955,33787
57026,54968,33817
57051,54988,33856
57078,55015,33901
57105,55048,33949
57133,55087,34005
57164,55131,34072
57200,55176,34143
57242,55223,34218
57288,55270,34297
57334,55315,34375
57378,55357,34447
57421,55396,34517
57463,55435,34584
57503,55472,34646
57544,55507,34706
57584,55541,34766
57620,55576,34821
57650,55609,34873
57680,55640,34931
57713,55673,34993
57749,55707,35053
57782,55737,35108
57808,55759,35154
57826,55773,35188
57832,55783,35210
57831,55788,35224
57833,55789,35236
57836,55789,35246
57835,55792,35255
57832,55796,35261
57828,55797,35264
57821,55794,35258
57813,55787,35244
57803,55779,35227
57797,55770,35216
57797,55763,35213
57802,55761,35215
57804,55758,35215
57803,55754,35215
57802,55755,35218
57800,55761,35225
57796,55766,35232
57790,55767,35239
57789,55772,35249
57791,55784,35260
57796,55801,35266
57801,55814,35264
57807,55819,35259
57810,55819,35256
57815,55819,35255
57823,55820,35253
57835,55822,35252
57847,55826,35259
57858,55835,35272
57867,55846,35279
57873,55853,35278
57882,55856,35278
57889,55854,35283
57891,55850,35285
57888,55849,35284
57882,55852,35282
57876,55850,35278
57869,55839,35269
57860,55824,35256
57848,55813,35238
57837,55805,35214
57824,55798,35187
57808,55788,35157
57789,55772,35125
57766,55752,35093
57738,55732,35065
57712,55715,35038
57684,55696,35010
57655,55671,34979
57633,55643,34948
57614,55618,34917
57594,55597,34889
57578,55581,34864
57570,55568,34842
57572,55561,34825
57579,55559,34810
57584,55560,34795
57585,55564,34783
57584,55567,34774
57580,55563,34766
57574,55557,34756
57564,55552,34737
57547,55542,34710
57527,55525,34676
57504,55506,34644
57480,55491,34614
57458,55480,34587
57441,55469,34565
57423,55459,34546
57402,55449,34524
57382,55437,34496
57364,55420,34468
57349,55402,34443
57333,55384,34425
57313,55365,34411
57295,55348,34396
57284,55335,34379
57273,55320,34361
57255,55302,34341
57233,55282,34315
57213,55260,34286
57195,55237,34256
57179,55219,34228
57167,55204,34201
57157,55188,34171
57148,55175,34142
57140,55164,34116
57131,55152,34088
57120,55137,34059
57106,55120,34028
57089,55096,33987
57072,55064,33940
57049,55033,33896
57023,55009,33856
57002,54993,33818
56988,54982,33783
56979,54975,33755
56971,54970,33734
56959,54966,33715
56942,54960,33693
56924,54952,33665
56909,54944,33632
56897,54933,33598
56883,54918,33565
56868,54900,33533
56851,54880,33503
56831,54861,33474
56806,54839,33440
56776,54814,33399
56749,54790,33353
56729,54772,33301
56712,54757,33248
56693,54739,33200
56677,54725,33162
56664,54712,33131
56647,54695,33100
56624,54674,33068
56598,54653,33035
56574,54628,33001
56551,54602,32962
56530,54580,32924
56514,54564,32889
56499,54549,32857
56482,54533,32830
56465,54517,32806
56450,54502,32784
56438,54487,32759
56425,54472,32731
56407,54459,32703
56386,54444,32674
56365,54428,32645
56346,54414,32619
56329,54403,32598
56314,54391,32572
56298,54376,32538
56279,54355,32498
56251,54327,32455
56218,54294,32409
56190,54263,32361
56166,54234,32313
56141,54205,32267
56111,54174,32224
56078,54145,32186
56052,54124,32153
56032,54108,32123
56011,54092,32089
55989,54077,32050
55967,54067,32011
55944,54057,31973
55924,54046,31940
55905,54033,31907
55885,54017,31870
55868,54001,31829
55856,53984,31786
55844,53965,31747
55823,53941,31713
55796,53913,31677
55774,53883,31633
55754,53853,31590
55731,53823,31550
55706,53793,31513
55678,53763,31477
55647,53733,31440
55614,53703,31401
55583,53677,31364
55559,53655,31328
55542,53636,31293
55528,53619,31260
55512,53603,31229
55493,53587,31195
55471,53570,31158
55446,53551,31119
55420,53532,31084
55395,53512,31057
55375,53497,31041
55369,53497,31042
55383,53515,31066
55413,53549,31111
55454,53594,31174
55513,53651,31256
55593,53722,31356
55691,53805,31477
55797,53897,31624
55912,53998,31796
56029,54101,31981
56146,54197,32167
56261,54289,32353
56374,54381,32541
56485,54476,32729
56590,54572,32913
56689,54661,33087
56786,54744,33253
56881,54826,33410
56971,54908,33557
57057,54988,33693
57136,55062,33811
57202,55127,33912
57258,55182,34001
57299,55227,34080
57326,55260,34142
57340,55280,34180
57346,55292,34201
57350,55300,34218
57357,55309,34236
57365,55320,34252
57374,55334,34269
57385,55349,34290
57396,55359,34312
57407,55363,34330
57420,55366,34350
57433,55373,34374
57447,55386,34402
57468,55408,34434
57495,55440,34473
57528,55474,34520
57558,55507,34573
57584,55536,34627
57609,55565,34684
57636,55597,34744
57667,55630,34804
57704,55658,34864
57743,55684,34923
57778,55713,34979
57811,55745,35033
57846,55779,35092
57885,55810,35150
57922,55836,35200
57954,55860,35244
57981,55879,35283
58002,55899,35315
58023,55921,35342
58044,55937,35364
58061,55950,35385
58072,55959,35402
58077,55969,35410
58076,55976,35413
58072,55978,35411
58062,55976,35408
58047,55974,35406
58034,55973,35404
58031,55974,35402
58033,55978,35402
58030,55983,35401
58025,55987,35397
58019,55987,35396
58015,55984,35401
58014,55983,35409
58012,55977,35412
58012,55964,35411
58017,55951,35409
58024,55940,35409
58030,55933,35412
58033,55929,35418
58031,55927,35424
58027,55930,35428
58024,55933,35431
58027,55932,35427
58036,55931,35421
58048,55936,35417
58059,55947,35417
58064,55958,35421
58067,55968,35429
58065,55974,35438
58052,55974,35441
58031,55968,35437
58012,55958,35430
57996,55951,35424
57980,55947,35413
57960,55938,35394
57941,55924,35372
57923,55909,35348
57901,55891,35324
57879,55870,35296
57860,55848,35263
57838,55826,35230
57813,55806,35198
57793,55790,35167
57785,55781,35142
57784,55774,35123
57781,55765,35104
57774,55754,35078
57768,55743,35050
57762,55731,35025
57753,55718,34998
57741,55707,34972
57730,55699,34950
57720,55690,34932
57708,55679,34910
57696,55670,34887
57684,55663,34864
57671,55654,34838
57661,55643,34812
57649,55631,34788
57628,55619,34764
57606,55606,34739
57590,55592,34713
57577,55579,34685
57564,55562,34652
57550,55541,34617
57534,55517,34584
57516,55494,34551
57496,55471,34518
57474,55446,34492
57445,55420,34472
57412,55393,34457
57377,55373,34445
57342,55357,34435
57315,55346,34425
57299,55336,34406
57287,55323,34377
57275,55310,34344
57265,55301,34316
57257,55296,34295
57252,55289,34272
57245,55278,34244
57230,55263,34215
57205,55243,34183
57177,55221,34147
57146,55199,34107
57112,55172,34064
57077,55137,34018
57042,55097,33972
57008,55056,33929
56976,55017,33889
56948,54984,33851
56924,54960,33814
56904,54942,33775
56889,54927,33739
56873,54911,33704
56849,54890,33668
56823,54868,33631
56800,54850,33595
56782,54833,33560
56765,54813,33520
56746,54791,33469
56720,54764,33410
56687,54733,33351
56647,54700,33295
56611,54672,33248
56581,54653,33208
56558,54640,33173
56541,54630,33147
56530,54622,33123
56522,54612,33100
56510,54600,33075
56492,54584,33045
56473,54566,33009
56459,54551,32969
56445,54536,32930
56431,54520,32896
56415,54504,32866
56394,54487,32835
56370,54470,32800
56345,54453,32763
56318,54436,32730
56291,54414,32700
56267,54389,32668
56248,54366,32635
56231,54348,32602
56214,54336,32567
56199,54326,32527
56179,54312,32482
56156,54297,32438
56133,54283,32402
56113,54270,32369
56089,54253,32332
56057,54229,32292
56021,54197,32247
55982,54160,32196
55945,54120,32143
55914,54082,32097
55890,54047,32059
55870,54014,32020
55851,53982,31977
55835,53956,31931
55821,53938,31889
55801,53920,31848
55773,53898,31806
55739,53873,31759
55707,53851,31708
55676,53828,31653
55647,53807,31598
55619,53789,31548
55590,53769,31502
55560,53747,31459
55531,53723,31424
55512,53705,31401
55509,53700,31401
55524,53712,31429
55557,53740,31482
55605,53785,31560
55671,53846,31662
55753,53920,31787
55846,54004,31933
55943,54094,32094
56044,54187,32266
56148,54284,32441
56253,54387,32621
56357,54491,32806
56460,54592,32991
56560,54689,33172
56658,54782,33347
56753,54872,33516
56847,54956,33675
56938,55035,33823
57025,55108,33960
57104,55172,34085
57173,55231,34196
57230,55281,34297
57275,55323,34388
57312,55357,34469
57342,55385,34534
57363,55405,34582
57383,55422,34621
57406,55440,34660
57429,55460,34697
57450,55484,34728
57469,55511,34754
57488,55536,34778
57502,55557,34801
57515,55576,34823
57530,55592,34844
57544,55606,34867
57557,55622,34896
57568,55638,34926
57582,55652,34961
57604,55669,35001
57628,55687,35041
57653,55704,35086
57682,55726,35142
57717,55751,35209
57754,55778,35278
57794,55809,35345
57836,55847,35413
57880,55889,35486
57926,55933,35561
57973,55981,35636
58018,56026,35709
58056,56066,35777
58087,56104,35841
58113,56137,35897
58134,56162,35941
58155,56181,35972
58174,56192,35992
58185,56197,36002
58185,56200,36007
58183,56204,36016
58183,56206,36029
58182,56208,36040
58180,56208,36046
58175,56201,36046
58168,56193,36041
58158,56188,36030
58146,56180,36016
58132,56169,36004
58117,56161,35992
58105,56159,35983
58101,56160,35983
58102,56165,35989
58104,56172,35994
58109,56178,35995
58114,56176,35993
58113,56164,35988
58110,56152,35984
58112,56150,35987
58117,56156,35997
58115,56161,36007
58102,56162,36009
58087,56157,36001
58073,56145,35987
58061,56131,35971
58051,56118,35957
58044,56110,35947
58038,56105,35939
58033,56105,35931
58028,56107,35919
58022,56104,35904
58016,56094,35891
58009,56084,35884
57998,56078,35879
57988,56071,35873
57981,56061,35866
57974,56048,35854
57967,56036,35840
57956,56023,35824
57941,56007,35801
57920,55989,35774
57895,55971,35741
57865,55951,35701
57832,55930,35658
57804,55911,35611
57788,55893,35567
57775,55874,35529
57757,55855,35495
57737,55839,35464
57719,55825,35433
57705,55812,35400
57698,55801,35369
57695,55793,35344
57686,55783,35318
57670,55773,35292
57652,55763,35267
57636,55754,35244
57622,55743,35221
57611,55731,35202
57597,55712,35186
57577,55689,35166
57552,55668,35142
57529,55649,35115
57510,55628,35082
57492,55607,35050
57474,55588,35016
57460,55573,34981
57445,55559,34948
57427,55540,34917
57407,55520,34881
57386,55499,34840
57366,55480,34798
57348,55462,34759
57326,55444,34724
57303,55429,34691
57280,55413,34657
57256,55397,34622
57230,55379,34583
57206,55359,34543
57188,55337,34504
57173,55317,34465
57159,55304,34429
57145,55294,34401
57135,55286,34384
57126,55277,34375
57114,55266,34366
57097,55251,34346
57077,55234,34316
57052,55213,34283
57024,55189,34248
56991,55161,34211
56952,55130,34173
56913,55096,34133
56878,55063,34094
56847,55031,34054
56816,54997,34009
56788,54966,33964
56763,54941,33923
56741,54926,33888
56722,54915,33855
56701,54900,33820
56675,54877,33778
56647,54849,33727
56616,54818,33671
56585,54787,33616
56555,54758,33558
56527,54731,33496
56503,54707,33439
56478,54683,33386
56451,54659,33335
56427,54639,33288
56406,54625,33251
56386,54614,33219
56369,54605,33184
56358,54595,33149
56344,54578,33116
56322,54550,33080
56293,54518,33039
56259,54485,32991
56223,54450,32940
56184,54410,32890
56147,54371,32838
56115,54337,32789
56084,54312,32753
56056,54297,32731
56035,54288,32718
56020,54281,32704
56002,54272,32684
55980,54257,32653
55958,54239,32612
55943,54224,32571
55928,54214,32538
55909,54201,32507
55891,54185,32472
55876,54168,32434
55859,54147,32397
55836,54121,32357
55809,54092,32311
55784,54065,32259
55761,54041,32203
55736,54016,32145
55709,53991,32092
55679,53967,32048
55650,53945,32015
55626,53924,31985
55606,53905,31953
55586,53885,31915
55562,53863,31871
55539,53843,31826
55518,53821,31786
55496,53796,31750
55474,53770,31712
55449,53742,31670
55423,53712,31624
55400,53687,31582
55376,53666,31545
55346,53641,31504
55312,53610,31456
55275,53575,31400
55236,53538,31335
55193,53502,31265
55151,53465,31199
55111,53431,31145
55072,53399,31103
55037,53369,31065
55010,53341,31026
54994,53319,30993
54990,53309,30974
54997,53311,30972
55015,53327,30985
55043,53358,31015
55084,53399,31067
55139,53451,31141
55206,53514,31237
55280,53582,31351
55362,53654,31482
55455,53733,31629
55557,53820,31795
55665,53915,31979
55779,54016,32174
55896,54121,32376
56010,54226,32578
56123,54332,32778
56234,54437,32972
56337,54536,33156
56432,54625,33328
56526,54713,33490
56619,54801,33643
56705,54884,33785
56784,54960,33916
56859,55030,34036
56926,55091,34139
56986,55142,34226
57035,55183,34301
57076,55220,34368
57107,55254,34426
57129,55281,34475
57144,55302,34516
57162,55323,34555
57182,55342,34595
57202,55360,34635
57225,55379,34674
57250,55399,34709
57273,55419,34743
57292,55436,34774
57308,55452,34801
57324,55469,34831
57343,55485,34870
57364,55503,34913
57388,55528,34956
57419,55561,35006
57452,55597,35066
57485,55633,35131
57521,55670,35199
57565,55706,35267
57611,55743,35336
57658,55785,35408
57706,55826,35485
57755,55869,35568
57804,55913,35654
57850,55954,35730
57890,55987,35794
57923,56013,35853
57948,56036,35906
57964,56053,35950
57976,56064,35986
57984,56072,36017
57989,56083,36042
57991,56096,36058
57991,56107,36069
57988,56112,36078
57980,56111,36082
57972,56110,36079
57965,56106,36073
57960,56097,36065
57953,56087,36058
57946,56083,36054
57942,56085,36054
57942,56087,36059
57943,56090,36067
57947,56096,36073
57958,56105,36082
57971,56115,36098
57977,56121,36112
57979,56124,36122
57986,56129,36135
57997,56135,36150
58006,56142,36158
58012,56146,36163
58016,56145,36165
58019,56138,36162
58023,56130,36152
58026,56122,36137
58024,56113,36116
58019,56103,36090
58017,56092,36065
58012,56079,36043
58003,56066,36026
57992,56053,36012
57980,56040,35998
57966,56034,35987
57952,56035,35981
57937,56037,35974
57924,56038,35970
57916,56043,35969
57909,56050,35970
57902,56052,35963
57893,56046,35943
57884,56034,35916
57874,56021,35892
57861,56009,35869
57848,56001,35841
57835,55989,35809
57824,55971,35776
57815,55950,35746
57806,55930,35718
57793,55914,35690
57776,55900,35660
57754,55882,35625
57727,55859,35585
57698,55835,35546
57674,55812,35509
57655,55791,35477
57637,55774,35446
57619,55765,35418
57606,55762,35395
57594,55756,35374
57580,55745,35353
57565,55733,35331
57554,55725,35314
57547,55722,35295
57537,55715,35265
57524,55699,35231
57507,55680,35196
57487,55663,35164
57462,55644,35134
57434,55619,35107
57405,55591,35078
57382,55567,35049
57367,55550,35023
57352,55533,34996
57331,55512,34960
57308,55494,34920
57285,55479,34883
57264,55465,34847
57244,55448,34812
57220,55425,34775
57193,55398,34736
57166,55373,34695
57145,55350,34656
57126,55325,34620
57104,55297,34582
57080,55268,34539
57052,55236,34491
57024,55204,34443
57002,55177,34397
56980,55154,34353
56959,55134,34317
56941,55117,34288
56922,55101,34261
56901,55087,34237
56879,55073,34216
56856,55063,34196
56835,55054,34174
56817,55045,34143
56802,55036,34109
56791,55023,34074
56778,55007,34040
56759,54985,34000
56731,54955,33953
56699,54921,33904
56668,54889,33855
56641,54860,33812
56613,54832,33771
56582,54805,33730
56552,54780,33689
56531,54762,33649
56517,54752,33610
56502,54746,33573
56483,54736,33535
56461,54723,33499
56440,54709,33463
56418,54691,33423
56397,54671,33382
56378,54651,33345
56357,54634,33307
56333,54620,33264
56303,54602,33215
56268,54581,33163
56229,54559,33114
56194,54535,33072
56169,54513,33034
56151,54493,32992
56133,54470,32948
56116,54448,32907
56097,54425,32864
56080,54399,32821
56066,54373,32783
56048,54351,32750
56028,54332,32719
56009,54311,32683
55989,54285,32643
55963,54257,32602
55932,54229,32557
55896,54202,32504
55853,54174,32451
55814,54142,32400
55783,54112,32349
55758,54081,32292
55733,54047,32233
55707,54014,32177
55683,53983,32127
55664,53957,32085
55651,53938,32051
55641,53926,32019
55632,53913,31984
55621,53899,31945
55608,53884,31905
55592,53867,31865
55569,53847,31819
55538,53823,31772
55506,53797,31730
55479,53775,31688
55456,53755,31644
55434,53734,31600
55410,53713,31557
55384,53693,31513
55357,53672,31466
55329,53650,31421
55299,53626,31379
55269,53595,31333
55243,53562,31286
55224,53538,31253
55216,53528,31237
55219,53527,31236
55231,53534,31254
55256,53555,31294
55294,53591,31349
55342,53637,31419
55406,53692,31511
55490,53761,31628
55587,53841,31765
55691,53930,31917
55803,54027,32081
55925,54130,32253
56050,54237,32434
56174,54346,32619
56291,54452,32804
56403,54553,32987
56511,54647,33162
56613,54737,33327
56708,54818,33484
56797,54893,33635
56880,54964,33773
56952,55023,33891
57010,55072,33989
57059,55117,34075
57106,55157,34154
57149,55192,34222
57184,55222,34276
57208,55250,34319
57230,55275,34360
57252,55299,34398
57266,55315,34427
57274,55325,34448
57287,55336,34469
57304,55350,34487
57319,55358,34500
57335,55364,34510
57355,55374,34526
57378,55388,34554
57402,55410,34592
57427,55438,34637
57454,55472,34687
57483,55511,34741
57516,55553,34797
57552,55595,34854
57589,55633,34914
57627,55667,34978
57668,55701,35044
57706,55735,35114
57739,55765,35181
57769,55793,35241
57800,55823,35301
57832,55858,35358
57867,55894,35413
57902,55927,35465
57931,55954,35510
57959,55973,35544
57979,55982,35566
57986,55982,35575
57985,55976,35579
57978,55968,35580
57972,55962,35581
57968,55957,35581
57967,55955,35581
57967,55957,35585
57970,55961,35591
57967,55959,35593
57959,55954,35587
57952,55947,35577
57944,55939,35567
57935,55930,35559
57931,55925,35556
57931,55923,35556
57934,55923,35555
57939,55922,35554
57940,55919,35554
57937,55918,35551
57932,55914,35547
57924,55911,35544
57913,55913,35545
57907,55918,35549
57904,55924,35554
57900,55928,35557
57897,55935,35558
57896,55941,35562
57893,55946,35567
57891,55948,35567
57888,55943,35561
57883,55932,35552
57878,55916,35540
57872,55901,35530
57869,55889,35517
57867,55879,35504
57866,55873,35496
57865,55870,35486
57867,55871,35471
57864,55872,35451
57853,55870,35427
57834,55861,35403
57811,55849,35378
57786,55831,35351
57760,55808,35322
57735,55784,35291
57711,55762,35257
57690,55740,35218
57669,55716,35178
57644,55690,35136
57625,55665,35095
57608,55644,35058
57589,55626,35023
57567,55613,34992
57545,55598,34966
57523,55587,34941
57502,55579,34916
57483,55567,34887
57465,55554,34857
57449,55540,34827
57437,55526,34796
57428,55515,34765
57420,55503,34737
57407,55489,34708
57386,55471,34677
57363,55446,34646
57341,55417,34615
57317,55389,34584
57293,55366,34555
57266,55346,34526
57235,55324,34492
57203,55300,34455
57172,55278,34417
57145,55259,34376
57127,55244,34337
57113,55232,34305
57097,55220,34270
57082,55208,34233
57071,55199,34195
57059,55191,34157
57044,55180,34120
57024,55162,34078
56999,55136,34031
56972,55105,33982
56950,55076,33939
56931,55048,33905
56909,55017,33875
56884,54987,33850
56856,54961,33836
56827,54938,33824
56802,54915,33804
56784,54893,33775
56771,54877,33741
56759,54866,33708
56747,54855,33675
56732,54841,33641
56711,54825,33606
56685,54808,33571
56660,54786,33536
56639,54761,33498
56615,54735,33453
56584,54706,33401
56548,54678,33345
56515,54654,33290
56487,54634,33244
56462,54614,33201
56434,54595,33160
56400,54572,33121
56364,54545,33083
56329,54516,33043
56298,54490,32999
56271,54471,32960
56248,54453,32926
56226,54432,32889
56203,54406,32848
56184,54381,32805
56166,54358,32763
56148,54336,32726
56131,54310,32690
56112,54282,32652
56089,54249,32609
56060,54211,32555
56027,54175,32491
55996,54146,32428
55970,54124,32375
55947,54105,32331
55921,54085,32297
55889,54066,32270
55857,54050,32245
55829,54037,32220
55807,54030,32192
55786,54022,32160
55761,54009,32120
55733,53987,32071
55702,53958,32016
55669,53924,31960
55643,53894,31907
55620,53867,31855
55595,53837,31802
55564,53799,31751
55531,53758,31700
55497,53721,31651
55465,53690,31604
55434,53664,31561
55410,53642,31529
55393,53626,31511
55389,53621,31506
55404,53633,31523
55435,53662,31562
55477,53700,31625
55528,53748,31709
55592,53810,31816
55670,53884,31941
55757,53967,32082
55852,54058,32236
55958,54156,32400
56073,54260,32575
56188,54364,32760
56301,54465,32952
56409,54564,33145
56514,54659,33332
56616,54751,33509
56715,54839,33679
56808,54924,33843
56898,55003,33994
56986,55079,34132
57066,55151,34261
57131,55212,34373
57181,55259,34458
57215,55294,34521
57236,55321,34566
57251,55341,34600
57268,55359,34631
57286,55379,34664
57303,55403,34695
57322,55426,34726
57341,55445,34755
57356,55458,34781
57365,55467,34806
57374,55478,34836
57387,55488,34870
57400,55497,34904
57419,55511,34937
57445,55530,34974
57472,55553,35021
57496,55581,35073
57520,55608,35130
57549,55636,35193
57575,55663,35255
57603,55691,35314
57640,55723,35374
57679,55755,35438
57715,55788,35504
57753,55824,35570
57797,55863,35638
57841,55901,35708
57883,55936,35777
57924,55973,35846
57959,56012,35910
57989,56045,35964
58018,56070,36009
58041,56088,36047
58053,56098,36072
58061,56105,36083
58070,56114,36093
58078,56122,36101
58079,56126,36100
58070,56124,36088
58057,56119,36073
58043,56111,36059
58026,56099,36044
58009,56086,36031
57992,56072,36020
57973,56059,36014
57950,56051,36010
57928,56044,36004
57912,56035,35995
57905,56029,35987
57905,56028,35980
57907,56028,35973
57908,56024,35966
57911,56019,35965
57914,56013,35965
57914,56007,35960
57915,56004,35952
57918,56002,35943
57920,55999,35935
57920,55996,35927
57913,55991,35919
57898,55982,35908
57885,55973,35896
57876,55965,35883
57871,55957,35871
57867,55952,35857
57862,55949,35841
57856,55944,35821
57846,55934,35798
57831,55918,35772
57812,55898,35746
57790,55877,35720
57764,55856,35689
57740,55841,35657
57725,55833,35630
57715,55826,35609
57702,55813,35584
57683,55796,35556
57663,55782,35527
57643,55770,35498
57622,55756,35470
57601,55739,35441
57579,55716,35409
57553,55688,35373
57522,55661,35332
57491,55634,35292
57463,55608,35255
57442,55585,35221
57420,55566,35185
57394,55548,35146
57363,55526,35102
57329,55502,35055
57299,55478,35011
57272,55454,34968
57247,55433,34927
57226,55415,34891
57208,55395,34857
57185,55373,34823
57162,55350,34787
57141,55329,34751
57123,55310,34715
57107,55293,34680
57093,55276,34645
57080,55256,34606
57067,55235,34566
57053,55217,34531
57042,55206,34503
57037,55199,34478
57031,55193,34459
57018,55184,34439
56999,55173,34413
56973,55158,34380
56942,55136,34341
56909,55109,34303
56880,55085,34273
56854,55066,34248
56828,55048,34220
56797,55027,34186
56764,55000,34149
56732,54973,34109
56704,54946,34066
56678,54921,34022
56654,54896,33979
56629,54870,33939
56606,54845,33899
56583,54822,33856
56562,54802,33812
56543,54785,33771
56522,54767,33730
56501,54746,33687
56480,54725,33643
56455,54703,33601
56424,54675,33558
56391,54641,33514
56360,54608,33471
56326,54579,33434
56287,54551,33395
56248,54522,33349
56210,54494,33297
56171,54464,33241
56132,54433,33183
56094,54398,33124
56056,54362,33065
56021,54326,33012
55992,54295,32967
55971,54273,32926
55958,54257,32891
55949,54242,32857
55936,54221,32820
55914,54195,32781
55890,54172,32744
55868,54154,32707
55843,54134,32665
55811,54106,32617
55777,54076,32566
55746,54046,32511
55716,54012,32452
55686,53979,32392
55658,53948,32336
55627,53916,32285
55594,53884,32236
55560,53854,32184
55525,53825,32132
55493,53797,32082
55468,53772,32035
55451,53755,31994
55440,53743,31961
55430,53737,31933
55416,53728,31908
55396,53712,31882
55374,53695,31856
55349,53680,31826
55319,53658,31784
55288,53632,31735
55254,53608,31682
55217,53582,31631
55178,53550,31580
55140,53514,31531
55102,53480,31485
55067,53448,31436
55034,53415,31383
55006,53383,31330
54982,53357,31280
54961,53335,31234
54939,53313,31189
54916,53294,31149
54897,53278,31116
54876,53265,31085
54851,53249,31049
54827,53232,31008
54805,53219,30966
54782,53204,30921
54759,53180,30875
54736,53155,30834
54712,53132,30797
54686,53112,30760
54656,53092,30721
54621,53067,30677
54584,53036,30629
54551,53004,30579
54523,52978,30536
54503,52961,30507
54499,52958,30496
54513,52972,30504
54539,52998,30531
54571,53033,30578
54612,53076,30644
54668,53130,30731
54740,53197,30842
54820,53272,30972
54909,53355,31115
55006,53443,31269
55107,53535,31437
55213,53633,31622
55326,53735,31815
55442,53837,32009
55558,53940,32204
55676,54044,32400
55792,54148,32595
55909,54246,32781
56022,54339,32960
56123,54424,33128
56205,54495,33277
56268,54553,33403
56321,54604,33513
56371,54653,33611
56419,54697,33701
56462,54737,33781
56497,54770,33850
56525,54799,33911
56548,54824,33965
56568,54845,34010
56589,54865,34049
56607,54882,34084
56627,54905,34115
56650,54934,34145
56673,54961,34175
56693,54985,34207
56717,55007,34240
56748,55033,34280
56788,55064,34330
56831,55098,34386
56871,55135,34443
56908,55171,34498
56941,55203,34551
56972,55231,34607
56998,55258,34672
57019,55286,34741
57040,55317,34808
57071,55352,34877
57113,55391,34949
57161,55432,35029
57208,55476,35117
57251,55520,35205
57290,55563,35285
57325,55602,35355
57356,55634,35416
57383,55658,35470
57404,55672,35519
57420,55681,35558
57437,55692,35589
57455,55710,35614
57470,55728,35634
57478,55738,35646
57480,55740,35651
57477,55737,35652
57468,55734,35648
57458,55732,35638
57454,55735,35628
57457,55736,35623
57461,55733,35621
57461,55726,35617
57458,55721,35607
57459,55722,35601
57464,55725,35601
57470,55733,35607
57477,55747,35617
57478,55760,35625
57471,55763,35626
57458,55762,35618
57447,55762,35609
57445,55764,35602
57451,55763,35602
57458,55759,35611
57464,55756,35620
57465,55753,35625
57460,55745,35622
57446,55728,35607
57427,55705,35586
57410,55685,35564
57393,55670,35543
57372,55660,35523
57350,55653,35503
57337,55647,35483
57338,55643,35469
57346,55643,35461
57357,55647,35458
57364,55646,35450
57364,55642,35434
57359,55640,35412
57352,55637,35387
57340,55629,35362
57322,55613,35338
57298,55591,35311
57270,55568,35280
57240,55546,35242
57213,55525,35202
57189,55504,35163
57166,55481,35124
57148,55456,35087
57135,55435,35055
57123,55420,35026
57116,55415,35002
57111,55414,34980
57105,55407,34956
57097,55396,34932
57086,55383,34911
57069,55366,34886
57046,55348,34855
57026,55332,34819
57007,55316,34778
56988,55296,34732
56969,55273,34684
56951,55249,34643
56928,55226,34608
56901,55206,34576
56874,55188,34544
56852,55173,34514
56841,55160,34489
56835,55145,34470
56827,55129,34452
56810,55111,34431
56786,55096,34404
56760,55083,34368
56734,55070,34326
56708,55058,34283
56685,55047,34242
56663,55036,34202
56644,55023,34163
56625,55003,34123
56603,54978,34082
56584,54954,34045
56573,54933,34018
56563,54916,33998
56547,54898,33975
56524,54876,33946
56498,54850,33915
56472,54824,33884
56444,54796,33849
56419,54770,33814
56397,54747,33781
56376,54726,33747
56354,54705,33712
56329,54681,33675
56301,54655,33636
56271,54631,33594
56245,54608,33550
56217,54580,33504
56187,54550,33457
56158,54516,33404
56128,54480,33347
56093,54444,33291
56057,54413,33243
56022,54387,33199
55991,54363,33155
55961,54339,33115
55933,54318,33078
55909,54301,33045
55886,54285,33011
55863,54270,32975
55841,54257,32936
55821,54246,32893
55803,54236,32848
55782,54221,32805
55761,54204,32766
55739,54185,32728
55714,54161,32691
55688,54130,32655
55661,54099,32616
55636,54071,32579
55611,54046,32545
55584,54021,32511
55556,53996,32474
55528,53971,32433
55500,53949,32394
55473,53930,32357
55452,53909,32323
55434,53888,32287
55418,53866,32248
55402,53847,32209
55385,53830,32167
55365,53814,32118
55340,53797,32068
55312,53783,32023
55286,53768,31980
55268,53752,31937
55253,53738,31896
55237,53722,31858
55221,53704,31816
55208,53684,31771
55192,53662,31732
55173,53643,31702
55152,53625,31674
55128,53604,31640
55103,53581,31601
55077,53559,31562
55051,53542,31526
55026,53526,31489
55002,53509,31451
54978,53493,31415
54952,53470,31379
54922,53441,31339
54893,53415,31300
54873,53397,31263
54858,53382,31223
54844,53365,31182
54831,53349,31143
54817,53332,31105
54800,53312,31063
54774,53285,31018
54741,53253,30969
54705,53220,30919
54668,53188,30867
54632,53157,30818
54599,53129,30774
54569,53103,30735
54541,53080,30699
54512,53056,30662
54486,53032,30622
54466,53009,30579
54454,52991,30539
54448,52983,30512
54450,52989,30511
54466,53009,30532
54498,53040,30572
54544,53083,30633
54602,53135,30717
54669,53199,30824
54749,53277,30957
54846,53370,31113
54956,53473,31288
55076,53583,31474
55204,53697,31666
55338,53815,31864
55474,53935,32070
55608,54052,32275
55734,54158,32472
55852,54257,32660
55964,54352,32840
56066,54434,33005
56149,54505,33151
56220,54568,33282
56280,54625,33389
56328,54675,33476
56371,54724,33554
56409,54770,33628
56442,54811,33698
56471,54843,33757
56491,54864,33803
56503,54878,33843
56513,54889,33882
56526,54897,33917
56539,54901,33950
56551,54907,33988
56562,54914,34028
56574,54923,34064
56589,54936,34100
56608,54955,34140
56629,54978,34183
56654,55005,34221
56682,55034,34257
56719,55063,34295
56762,55094,34340
56805,55126,34389
56844,55158,34436
56884,55194,34485
56927,55232,34541
56973,55269,34605
57020,55304,34671
57061,55340,34738
57092,55375,34805
57113,55404,34863
57127,55427,34912
57140,55444,34956
57155,55460,35000
57172,55480,35045
57191,55503,35086
57211,55526,35120
57227,55543,35145
57236,55551,35164
57242,55553,35179
57244,55550,35190
57240,55547,35196
57235,55544,35194
57233,55543,35190
57233,55543,35187
57233,55544,35185
57233,55547,35182
57233,55552,35179
57234,55557,35178
57239,55560,35182
57248,55563,35193
57257,55568,35206
57262,55572,35219
57260,55571,35230
57254,55566,35239
57247,55564,35247
57238,55566,35252
57225,55567,35249
57210,55564,35239
57195,55558,35227
57182,55552,35217
57173,55544,35207
57167,55538,35200
57163,55540,35200
57167,55547,35203
57180,55555,35207
57194,55561,35207
57200,55563,35196
57202,55561,35179
57205,55561,35160
57209,55563,35140
57214,55566,35121
57215,55565,35102
57212,55557,35080
57210,55547,35057
57207,55539,35037
57200,55529,35019
57190,55513,35000
57174,55493,34980
57150,55472,34956
57120,55449,34927
57089,55424,34891
57064,55403,34856
57043,55389,34824
57025,55378,34795
57008,55365,34769
56990,55353,34744
56972,55342,34719
56954,55330,34696
56940,55320,34674
56933,55316,34653
56927,55313,34634
56919,55306,34612
56905,55294,34588
56890,55277,34564
56875,55258,34544
56858,55238,34519
56842,55218,34486
56831,55199,34449
56821,55181,34418
56812,55165,34391
56803,55155,34368
56793,55149,34344
56778,55142,34322
56758,55128,34302
56736,55110,34281
56716,55092,34259
56698,55077,34233
56675,55059,34205
56649,55039,34174
56627,55020,34143
56607,55006,34111
56587,54992,34074
56570,54975,34033
56556,54960,33994
56545,54944,33962
56534,54925,33935
56524,54907,33910
56514,54891,33887
56497,54872,33860
56476,54851,33829
56455,54834,33799
56436,54822,33772
56414,54815,33751
56393,54807,33732
56375,54794,33708
56360,54777,33678
56345,54756,33644
56326,54734,33612
56302,54713,33581
56275,54690,33547
56247,54664,33514
56218,54637,33482
56187,54611,33448
56151,54584,33409
56113,54555,33362
56077,54528,33312
56043,54508,33267
56019,54494,33227
56000,54480,33187
55980,54460,33145
55966,54439,33108
55959,54422,33072
55950,54403,33034
55935,54378,32994
55919,54356,32959
55906,54339,32928
55895,54327,32897
55884,54317,32868
55872,54306,32842
55858,54296,32815
55842,54285,32785
55822,54270,32757
55801,54250,32727
55781,54230,32694
55762,54215,32662
55742,54203,32630
55718,54188,32591
55690,54167,32547
55661,54141,32503
55634,54114,32459
55609,54086,32416
55586,54058,32373
55563,54033,32332
55540,54013,32298
55519,53999,32269
55501,53988,32237
55484,53979,32201
55464,53965,32163
55442,53945,32124
55421,53920,32083
55400,53895,32042
55376,53868,32003
55348,53841,31962
55318,53815,31917
55283,53787,31869
55240,53755,31819
55195,53720,31769
55154,53686,31722
55128,53659,31683
55116,53645,31664
55121,53647,31668
55145,53669,31699
55184,53706,31754
55234,53752,31833
55297,53809,31934
55377,53879,32055
55470,53959,32195
55572,54049,32353
55683,54151,32529
55798,54258,32715
55914,54364,32907
56027,54469,33100
56138,54569,33288
56245,54660,33469
56346,54746,33647
56445,54832,33824
56543,54916,33995
56636,54994,34154
56719,55067,34301
56792,55131,34433
56857,55185,34547
56913,55230,34642
56961,55272,34721
57002,55314,34783
57036,55352,34832
57063,55384,34871
57087,55409,34903
57113,55429,34932
57138,55443,34965
57158,55456,35001
57179,55473,35041
57204,55496,35087
57234,55525,35133
57266,55556,35177
57297,55584,35219
57330,55607,35264
57363,55628,35318
57396,55652,35379
57433,55683,35445
57475,55719,35518
57518,55757,35600
57563,55798,35686
57604,55842,35771
57642,55887,35854
57683,55934,35939
57726,55983,36022
57768,56032,36101
57810,56076,36173
57846,56113,36238
57876,56149,36297
57904,56183,36351
57935,56211,36404
57962,56235,36455
57979,56251,36499
57985,56262,36533
57985,56266,36555
57982,56264,36570
57979,56262,36578
57981,56265,36583
57985,56270,36585
57986,56271,36579
57986,56264,36566
57989,56257,36555
57995,56257,36549
57996,56261,36545
57994,56268,36540
57996,56278,36538
58004,56289,36542
58016,56298,36548
58025,56301,36550
58025,56297,36546
58020,56286,36537
58015,56273,36528
58016,56263,36524
58021,56259,36527
58025,56259,36535
58022,56262,36543
58017,56268,36549
58010,56271,36550
58003,56269,36551
58001,56265,36555
58000,56263,36557
57998,56261,36551
57996,56258,36545
57996,56255,36539
57996,56256,36530
57991,56258,36517
57981,56256,36498
57967,56248,36477
57953,56237,36458
57934,56223,36436
57911,56209,36409
57892,56199,36383
57879,56191,36362
57867,56178,36341
57856,56162,36317
57845,56146,36288
57831,56131,36252
57811,56110,36211
57782,56084,36167
57747,56054,36122
57717,56028,36083
57694,56005,36048
57672,55979,36012
57647,55952,35975
57621,55926,35936
57594,55901,35897
57568,55877,35859
57542,55851,35820
57518,55821,35780
57493,55791,35736
57461,55763,35686
57429,55737,35637
57402,55715,35599
57378,55696,35569
57352,55682,35540
57331,55672,35508
57315,55658,35475
57297,55638,35444
57275,55618,35414
57258,55603,35382
57248,55590,35350
57238,55574,35315
57222,55555,35275
57203,55536,35230
57185,55518,35185
57166,55501,35146
57140,55485,35109
57112,55468,35072
57083,55446,35036
57054,55420,35006
57022,55391,34978
56990,55364,34947
56963,55343,34912
56945,55327,34876
56935,55314,34845
56927,55302,34817
56915,55289,34787
56896,55275,34754
56877,55262,34721
56862,55248,34687
56846,55229,34655
56826,55205,34618
56802,55177,34572
56780,55149,34526
56758,55124,34486
56734,55101,34443
56705,55073,34391
56671,55042,34336
56639,55012,34287
56613,54986,34243
56585,54965,34197
56553,54944,34153
56521,54922,34119
56489,54901,34090
56459,54882,34054
56434,54863,34015
56413,54844,33980
56388,54823,33947
56358,54798,33914
56326,54771,33883
56295,54741,33849
56263,54705,33810
56230,54667,33769
56201,54631,33729
56176,54599,33686
56150,54572,33639
56122,54547,33587
56090,54523,33531
56056,54504,33474
56022,54484,33419
55988,54463,33364
55952,54438,33310
55916,54406,33255
55881,54374,33204
55854,54350,33165
55835,54332,33134
55819,54315,33100
55802,54295,33060
55786,54275,33015
55771,54256,32968
55752,54234,32923
55727,54211,32882
55700,54188,32844
55672,54165,32804
55642,54138,32765
55614,54110,32732
55592,54087,32704
55574,54068,32677
55562,54051,32652
55549,54036,32623
55536,54024,32595
55522,54013,32566
55505,54000,32533
55487,53986,32502
55467,53972,32473
55448,53956,32440
55433,53940,32403
55419,53926,32367
55404,53909,32334
55389,53890,32298
55373,53870,32265
55354,53850,32236
55336,53831,32207
55320,53813,32178
55305,53796,32151
55286,53778,32126
55261,53758,32096
55234,53738,32061
55214,53725,32025
55202,53717,31989
55188,53706,31954
55170,53686,31918
55148,53659,31879
55128,53633,31841
55110,53608,31799
55091,53583,31755
55073,53562,31713
55060,53550,31679
55054,53546,31658
55052,53546,31649
55057,53553,31657
55076,53573,31688
55106,53603,31742
55150,53643,31817
55213,53696,31912
55294,53761,32027
55389,53837,32160
55496,53921,32313
55616,54014,32489
55750,54119,32680
55896,54234,32881
56044,54360,33093
56188,54489,33314
56325,54617,33535
56457,54743,33756
56585,54862,33972
56706,54972,34172
56816,55070,34356
56913,55153,34522
56997,55220,34668
57073,55277,34792
57141,55332,34900
57200,55382,34998
57248,55425,35082
57286,55465,35153
57320,55498,35222
57347,55522,35288
57367,55543,35347
57384,55566,35401
57401,55589,35452
57419,55609,35498
57439,55625,35542
57463,55645,35590
57491,55672,35643
57524,55701,35699
57560,55729,35755
57599,55756,35813
57635,55780,35873
57668,55803,35933
57698,55831,35995
57729,55866,36064
57764,55903,36142
57803,55943,36227
57847,55992,36317
57896,56046,36413
57950,56100,36512
58008,56151,36614
58067,56204,36721
58121,56261,36830
58173,56317,36936
58224,56368,37033
58267,56410,37117
58301,56446,37188
58336,56478,37245
58374,56505,37289
58404,56524,37320
58417,56534,37340
58418,56539,37350
58415,56545,37359
58415,56550,37372
58417,56554,37383
58417,56551,37384
58410,56542,37375
58402,56532,37363
58394,56522,37352
58388,56511,37340
58384,56504,37330
58380,56504,37325
58379,56512,37324
58379,56520,37321
58378,56523,37315
58379,56524,37311
58380,56528,37309
58378,56532,37307
58375,56537,37307
58379,56543,37313
58386,56550,37323
58394,56557,37335
58404,56564,37347
58420,56571,37359
58438,56575,37372
58454,56578,37383
58463,56582,37389
58466,56586,37390
58463,56586,37385
58458,56581,37376
58453,56573,37364
58448,56566,37350
58440,56560,37335
58426,56551,37321
58411,56541,37309
58399,56535,37298
58389,56534,37287
58379,56531,37272
58368,56524,37255
58363,56517,37242
58360,56510,37230
58352,56499,37209
58336,56481,37175
58320,56460,37136
58309,56440,37102
58297,56419,37073
58277,56396,37041
58254,56373,37006
58235,56350,36970
58215,56329,36934
58196,56311,36897
58174,56296,36859
58149,56283,36822
58122,56267,36786
58096,56245,36755
58072,56223,36729
58047,56200,36699
58022,56177,36661
58000,56155,36622
57978,56132,36587
57955,56111,36556
57935,56093,36526
57918,56082,36496
57903,56072,36466
57889,56059,36434
57873,56038,36396
57855,56013,36354
57832,55988,36311
57808,55967,36270
57784,55945,36234
57761,55922,36204
57746,55904,36178
57735,55890,36154
57722,55874,36126
57704,55853,36094
57686,55831,36061
57665,55811,36030
57637,55795,35995
57608,55779,35951
57584,55763,35902
57565,55744,35855
57548,55725,35814
57533,55711,35779
57519,55700,35748
57507,55691,35719
57497,55683,35693
57485,55673,35667
57470,55655,35639
57452,55628,35605
57431,55598,35572
57407,55573,35539
57379,55553,35502
57349,55534,35459
57321,55515,35415
57296,55491,35373
57270,55463,35332
57244,55433,35289
57219,55402,35245
57195,55373,35202
57169,55347,35162
57140,55326,35123
57115,55311,35083
57092,55297,35044
57069,55280,35000
57042,55255,34950
57012,55224,34894
56983,55192,34842
56960,55165,34795
56941,55142,34751
56921,55120,34707
56897,55098,34660
56875,55079,34611
56853,55059,34564
56831,55040,34523
56808,55020,34487
56784,54999,34455
56760,54978,34425
56739,54960,34398
56715,54944,34371
56686,54928,34341
56656,54911,34303
56628,54891,34255
56601,54871,34204
56573,54848,34153
56546,54824,34105
56520,54799,34064
56494,54774,34025
56467,54749,33984
56437,54718,33944
56405,54685,33906
56373,54653,33870
56345,54624,33834
56323,54599,33799
56305,54579,33765
56285,54560,33729
56266,54540,33690
56248,54519,33651
56234,54501,33612
56222,54485,33572
56211,54470,33530
56199,54455,33489
56186,54440,33450
56170,54422,33411
56146,54400,33369
56117,54377,33328
56088,54358,33292
56061,54342,33262
56032,54328,33234
56003,54312,33203
55969,54290,33167
55930,54262,33126
55895,54234,33086
55870,54213,33048
55850,54197,33012
55834,54183,32976
55821,54169,32941
55812,54150,32904
55798,54123,32861
55774,54088,32815
55742,54052,32768
55708,54018,32719
55675,53983,32666
55647,53952,32612
55624,53926,32562
55604,53902,32516
55584,53880,32473
55563,53858,32433
55538,53835,32396
55511,53812,32357
55479,53787,32311
55444,53756,32258
55414,53727,32204
55391,53704,32157
55375,53688,32121
55369,53683,32102
55373,53688,32103
55384,53700,32124
55406,53724,32167
55445,53762,32235
55506,53814,32329
55589,53883,32447
55685,53967,32584
55783,54058,32743
55886,54156,32921
55999,54262,33112
56116,54369,33310
56234,54474,33513
56352,54578,33720
56472,54683,33926
56595,54787,34124
56715,54886,34315
56824,54978,34501
56918,55061,34671
57001,55133,34821
57077,55202,34954
57146,55265,35071
57206,55318,35169
57254,55359,35250
57290,55390,35319
57322,55418,35384
57352,55445,35443
57377,55473,35493
57400,55500,35537
57426,55525,35578
57453,55546,35617
57477,55564,35655
57500,55584,35693
57523,55607,35728
57543,55630,35757
57565,55657,35789
57593,55689,35830
57625,55725,35882
57667,55764,35944
57714,55804,36015
57760,55846,36090
57805,55888,36168
57850,55929,36246
57890,55968,36320
57927,56008,36394
57964,56050,36470
58007,56094,36549
58056,56139,36634
58112,56184,36721
58168,56224,36809
58218,56260,36895
58262,56294,36977
58296,56326,37051
58323,56354,37112
58350,56378,37162
58378,56397,37204
58399,56413,37241
58409,56427,37271
58408,56439,37288
58400,56447,37292
58388,56448,37288
58375,56442,37283
58361,56438,37278
58351,56439,37272
58342,56441,37271
58337,56438,37270
58332,56429,37266
58330,56419,37257
58329,56411,37245
58325,56402,37228
58318,56394,37209
58313,56389,37195
58309,56381,37185
58299,56372,37181
58284,56365,37179
58268,56358,37175
58257,56352,37172
58251,56348,37172
58245,56343,37171
58238,56337,37163
58227,56331,37149
58215,56325,37133
58209,56321,37122
58209,56319,37118
58208,56317,37113
58208,56314,37102
58213,56314,37091
58220,56315,37083
58223,56313,37078
58216,56307,37070
58199,56300,37055
58178,56295,37034
58160,56292,37014
58146,56281,36995
58133,56267,36981
58120,56253,36970
58102,56238,36953
58081,56223,36925
58058,56207,36890
58034,56186,36854
58005,56160,36816
57975,56133,36777
57949,56115,36738
57930,56106,36700
57915,56098,36664
57898,56086,36629
57876,56071,36594
57850,56056,36558
57822,56038,36521
57794,56015,36482
57766,55987,36442
57738,55957,36406
57711,55929,36373
57689,55911,36343
57675,55901,36319
57663,55889,36299
57646,55868,36276
57624,55843,36245
57602,55816,36205
57578,55788,36163
57556,55758,36127
57539,55732,36096
57522,55713,36066
57500,55694,36033
57475,55673,35999
57453,55653,35965
57433,55638,35931
57417,55625,35896
57407,55611,35862
57400,55596,35833
57390,55581,35806
57374,55566,35777
57355,55552,35746
57333,55537,35712
57309,55520,35681
57282,55498,35650
57255,55475,35614
57229,55454,35569
57206,55434,35520
57189,55420,35478
57174,55409,35445
57157,55394,35411
57136,55375,35371
57109,55353,35329
57076,55326,35286
57041,55299,35241
57014,55276,35196
56994,55256,35154
56976,55233,35112
56956,55207,35074
56933,55182,35039
56904,55154,35004
56868,55121,34965
56834,55088,34925
56805,55060,34888
56779,55033,34853
56753,55008,34813
56724,54985,34769
56695,54960,34722
56666,54932,34673
56635,54905,34625
56599,54878,34577
56563,54852,34527
56533,54831,34480
56512,54815,34439
56498,54800,34402
56485,54783,34368
56473,54767,34336
56459,54755,34303
56439,54744,34263
56417,54730,34218
56392,54710,34172
56363,54687,34125
56330,54665,34077
56297,54642,34031
56269,54614,33986
56246,54586,33944
56227,54564,33905
56210,54543,33867
56190,54518,33830
56160,54490,33792
56127,54462,33755
56098,54435,33720
56076,54409,33687
56058,54383,33658
56043,54362,33633
56027,54345,33608
56006,54328,33579
55977,54304,33545
55943,54278,33508
55909,54251,33471
55875,54221,33425
55837,54189,33369
55795,54157,33308
55752,54124,33244
55711,54086,33184
55672,54046,33133
55638,54011,33089
55610,53983,33052
55595,53966,33028
55593,53960,33024
55603,53967,33040
55623,53986,33075
55654,54014,33129
55696,54055,33204
55756,54113,33302
55836,54187,33420
55930,54273,33557
56040,54370,33717
56159,54473,33893
56277,54578,34079
56394,54682,34273
56513,54789,34475
56639,54899,34682
56771,55009,34890
56899,55119,35093
57017,55226,35287
57128,55328,35472
57235,55421,35645
57331,55502,35800
57411,55572,35938
57481,55634,36061
57543,55691,36170
57593,55742,36266
57632,55787,36351
57664,55824,36426
57693,55854,36487
57718,55877,36536
57740,55899,36582
57759,55920,36625
57777,55941,36666
57796,55965,36706
57817,55993,36754
57837,56023,36805
57856,56054,36855
57881,56088,36909
57916,56123,36967
57959,56159,37031
58004,56200,37096
58049,56244,37165
58092,56289,37241
58136,56334,37326
58181,56383,37418
58227,56433,37508
58272,56479,37595
58313,56517,37682
58352,56552,37769
58391,56591,37855
58433,56631,37939
58471,56666,38019
58502,56699,38089
58532,56730,38149
58561,56758,38206
58586,56780,38256
58606,56797,38292
58620,56808,38315
58629,56810,38323
58634,56804,38318
58635,56794,38304
58631,56785,38286
58618,56774,38263
58600,56762,38238
58583,56752,38215
58568,56743,38197
58554,56736,38187
58535,56728,38177
58515,56720,38165
58497,56710,38152
58476,56699,38140
58455,56688,38127
58441,56683,38119
58436,56686,38117
58437,56696,38119
58448,56710,38124
58464,56722,38134
58474,56729,38143
58471,56728,38144
58460,56721,38136
58445,56709,38124
58428,56694,38113
58414,56680,38107
58401,56672,38101
58391,56667,38091
58382,56656,38077
58370,56640,38057
58358,56626,38037
58352,56619,38019
58349,56615,38003
58343,56609,37985
58327,56599,37961
58303,56589,37929
58279,56579,37896
58254,56564,37866
58228,56546,37837
58205,56527,37810
58189,56511,37784
58174,56493,37756
58152,56470,37717
58127,56447,37674
58109,56429,37634
58093,56413,37602
58071,56396,37570
58046,56379,37532
58022,56356,37491
57997,56326,37450
57973,56298,37413
57950,56278,37379
57931,56259,37345
57919,56239,37310
57906,56219,37271
57884,56197,37229
57859,56174,37185
57837,56153,37143
57816,56133,37107
57795,56113,37070
57770,56092,37027
57741,56069,36984
57710,56043,36944
57679,56017,36906
57647,55993,36866
57617,55969,36821
57592,55945,36775
57566,55920,36730
57537,55893,36683
57510,55865,36634
57488,55840,36587
57469,55819,36546
57446,55802,36507
57417,55784,36469
57386,55762,36437
57356,55739,36409
57330,55717,36381
57305,55696,36351
57284,55678,36319
57266,55662,36283
57248,55642,36242
57228,55615,36196
57204,55586,36143
57178,55557,36087
57155,55530,36034
57134,55504,35987
57108,55475,35942
57080,55447,35895
57050,55423,35845
57017,55398,35794
56982,55369,35745
56947,55337,35699
56910,55307,35651
56872,55277,35599
56835,55242,35548
56802,55207,35501
56776,55177,35454
56748,55150,35404
56716,55123,35352
56691,55098,35301
56677,55080,35255
56663,55062,35210
56641,55042,35161
56614,55020,35112
56587,54997,35066
56556,54970,35021
56522,54940,34977
56486,54911,34932
56453,54885,34885
56419,54861,34837
56384,54840,34788
56347,54818,34739
56310,54791,34688
56276,54763,34639
56246,54739,34593
56218,54714,34548
56189,54690,34502
56161,54668,34456
56137,54649,34411
56114,54630,34368
56092,54611,34325
56075,54590,34284
56061,54568,34247
56043,54545,34209
56017,54519,34160
55986,54490,34104
55957,54459,34048
55931,54430,33994
55905,54400,33945
55873,54369,33898
55834,54337,33851
55793,54304,33809
55750,54270,33768
55704,54236,33727
55658,54202,33686
55613,54171,33645
55575,54142,33605
55544,54119,33564
55516,54095,33518
55490,54069,33470
55463,54041,33426
55435,54016,33387
55411,53994,33349
55393,53975,33308
55374,53954,33264
55350,53929,33222
55325,53901,33179
55298,53875,33130
55269,53844,33076
55237,53806,33018
55205,53769,32955
55169,53733,32890
55129,53698,32828
55090,53663,32769
55053,53628,32710
55020,53596,32650
54996,53576,32596
54979,53564,32554
54962,53557,32519
54949,53552,32486
54936,53542,32452
54919,53525,32414
54901,53505,32372
54881,53485,32329
54855,53462,32285
54824,53434,32237
54792,53403,32183
54760,53372,32125
54728,53342,32071
54694,53313,32022
54657,53285,31973
54621,53258,31925
54587,53232,31878
54560,53207,31835
54538,53187,31797
54524,53174,31770
54520,53172,31759
54525,53180,31761
54544,53199,31786
54582,53234,31840
54635,53284,31921
54702,53348,32025
54782,53422,32147
54874,53503,32285
54973,53586,32437
55077,53672,32599
55189,53767,32778
55309,53871,32971
55428,53980,33172
55543,54088,33378
55656,54192,33587
55768,54294,33796
55875,54389,33999
55976,54479,34188
56068,54564,34362
56150,54643,34519
56225,54715,34656
56296,54786,34775
56360,54853,34874
56415,54911,34953
56459,54958,35018
56494,54999,35075
56526,55040,35126
56558,55076,35176
56592,55104,35227
56624,55124,35273
56654,55141,35309
56679,55156,35342
56699,55171,35379
56717,55188,35416
56738,55205,35453
56764,55228,35498
56793,55259,35551
56825,55289,35609
56859,55318,35674
56892,55346,35741
56924,55374,35810
56963,55407,35884
57007,55448,35966
57056,55495,36056
57110,55545,36150
57162,55590,36242
57209,55634,36331
57257,55683,36424
57305,55734,36518
57349,55782,36609
57387,55829,36694
57421,55872,36772
57452,55914,36844
57477,55949,36909
57497,55978,36962
57523,56003,37008
57554,56026,37052
57579,56046,37089
57593,56061,37116
57597,56069,37129
57597,56072,37134
57595,56068,37135
57592,56059,37130
57584,56051,37117
57571,56039,37097
57554,56020,37073
57538,56004,37050
57523,55994,37028
57505,55985,37004
57487,55976,36983
57473,55973,36964
57463,55976,36947
57456,55977,36934
57453,55973,36925
57456,55973,36921
57466,55977,36922
57482,55981,36928
57500,55983,36937
57518,55986,36949
57529,55990,36959
57530,55988,36961
57527,55979,36956
57524,55973,36951
57522,55970,36948
57515,55966,36946
57501,55961,36939
57487,55957,36927
57475,55956,36913
57462,55955,36898
57448,55954,36880
57436,55948,36858
57421,55936,36832
57403,55922,36804
57387,55912,36776
57378,55907,36752
57369,55900,36732
57356,55889,36710
57337,55876,36684
57318,55860,36654
57306,55841,36620
57296,55824,36589
57285,55815,36563
57273,55809,36539
57257,55793,36514
57235,55767,36486
57208,55740,36457
57187,55716,36427
57171,55693,36393
57154,55674,36355
57129,55657,36308
57099,55638,36255
57071,55616,36203
57043,55592,36159
57019,55571,36121
56999,55553,36084
56981,55532,36046
56963,55511,36009
56943,55493,35979
56924,55477,35953
56905,55457,35924
56883,55437,35892
56861,55425,35860
56842,55417,35830
56829,55410,35800
56816,55398,35767
56804,55384,35729
56796,55369,35693
56787,55352,35659
56780,55335,35626
56771,55322,35595
56755,55303,35558
56738,55278,35515
56721,55256,35473
56703,55242,35435
56681,55228,35395
56659,55209,35351
56637,55188,35308
56615,55168,35271
56589,55148,35237
56561,55125,35206
56534,55107,35180
56506,55094,35151
56477,55076,35113
56452,55050,35069
56434,55024,35024
56420,55000,34979
56405,54976,34937
56384,54949,34897
56358,54922,34856
56331,54899,34816
56299,54878,34771
56258,54854,34719
56212,54826,34662
56166,54792,34606
56123,54755,34552
56080,54717,34496
56040,54680,34437
56004,54644,34379
55970,54604,34324
55937,54567,34269
55905,54537,34221
55875,54515,34177
55853,54496,34136
55835,54475,34092
55815,54453,34046
55793,54431,34000
55770,54409,33958
55747,54387,33921
55730,54366,33885
55716,54347,33847
55704,54333,33810
55692,54323,33779
55678,54313,33751
55659,54300,33719
55641,54283,33685
55622,54265,33653
55600,54245,33618
55575,54225,33577
55550,54206,33534
55523,54188,33491
55498,54170,33450
55476,54152,33409
55456,54133,33372
55432,54111,33336
55406,54088,33299
55383,54063,33260
55362,54036,33219
55335,54004,33178
55306,53972,33135
55280,53943,33092
55258,53922,33048
55236,53905,33008
55213,53888,32973
55190,53871,32939
55164,53852,32901
55135,53830,32860
55109,53807,32817
55084,53784,32775
55054,53758,32734
55022,53731,32690
54995,53706,32646
54968,53680,32599
54942,53650,32552
54917,53619,32504
54888,53583,32451
54854,53545,32393
54816,53512,32337
54775,53480,32284
54738,53450,32233
54708,53427,32183
54682,53411,32139
54657,53396,32099
54634,53381,32060
54613,53363,32017
54590,53341,31970
54568,53319,31920
54546,53297,31868
54525,53277,31818
54508,53259,31775
54495,53245,31735
54484,53231,31696
54471,53218,31659
54453,53201,31625
54427,53179,31591
54395,53151,31552
54362,53124,31510
54332,53100,31469
54303,53075,31425
54270,53045,31377
54235,53014,31323
54200,52983,31266
54170,52953,31211
54146,52930,31167
54127,52917,31138
54116,52916,31132
54114,52925,31149
54125,52945,31183
54150,52972,31233
54191,53008,31299
54246,53054,31378
54316,53108,31470
54403,53175,31584
54506,53259,31725
54617,53353,31885
54734,53453,32061
54849,53555,32245
54957,53656,32432
55061,53753,32615
55164,53849,32792
55266,53944,32963
55369,54035,33132
55466,54116,33294
55557,54192,33445
55645,54264,33588
55725,54331,33722
55792,54389,33840
55849,54439,33940
55900,54483,34028
55941,54521,34106
55971,54551,34172
55995,54576,34230
56016,54595,34280
56031,54610,34318
56046,54624,34340
56065,54637,34356
56086,54650,34371
56108,54666,34390
56129,54685,34415
56149,54707,34445
56169,54729,34479
56194,54750,34520
56227,54775,34567
56262,54802,34618
56292,54828,34668
56320,54855,34719
56349,54889,34776
56385,54924,34840
56428,54959,34914
56472,54993,34995
56514,55032,35078
56561,55080,35163
56611,55133,35248
56659,55183,35327
56701,55229,35405
56742,55272,35481
56782,55314,35551
56818,55356,35613
56847,55392,35665
56873,55422,35705
56903,55449,35741
56933,55467,35772
56956,55476,35795
56971,55479,35812
56980,55484,35823
56980,55490,35826
56971,55490,35821
56958,55485,35811
56944,55479,35802
56928,55472,35794
56916,55468,35784
56909,55463,35776
56907,55453,35771
56903,55442,35766
56893,55430,35754
56879,55419,35734
56869,55409,35712
56868,55402,35695
56873,55397,35685
56877,55397,35682
56881,55403,35686
56883,55409,35693
56883,55410,35696
56883,55407,35695
56885,55403,35694
56886,55401,35696
56886,55399,35699
56889,55399,35703
56891,55400,35709
56889,55397,35708
56880,55391,35697
56868,55386,35680
56858,55382,35664
56848,55375,35645
56840,55367,35629
56835,55365,35625
56832,55373,35627
56829,55384,35629
56826,55393,35626
56826,55401,35620
56832,55406,35616
56839,55408,35607
56840,55404,35591
56836,55395,35573
56824,55382,35554
56804,55367,35530
56777,55348,35498
56751,55330,35461
56729,55315,35422
56707,55299,35382
56687,55283,35343
56674,55266,35306
56665,55246,35271
56653,55222,35239
56638,55197,35209
56618,55175,35180
56592,55154,35146
56562,55134,35107
56538,55121,35068
56517,55110,35034
56497,55098,35005
56482,55082,34980
56465,55061,34957
56448,55038,34933
56431,55019,34912
56412,55003,34893
56393,54988,34869
56377,54977,34840
56362,54968,34811
56346,54960,34780
56335,54952,34752
56330,54943,34727
56325,54931,34699
56319,54916,34671
56314,54900,34644
56307,54880,34614
56293,54856,34580
56271,54833,34542
56246,54812,34501
56223,54793,34466
56201,54774,34434
56178,54756,34401
56155,54736,34368
56132,54713,34334
56109,54690,34302
56086,54667,34271
56062,54645,34237
56036,54624,34201
56008,54606,34162
55978,54588,34121
55950,54570,34081
55927,54551,34045
55907,54532,34013
55884,54506,33980
55856,54475,33942
55828,54443,33899
55802,54417,33855
55784,54398,33819
55769,54383,33787
55753,54366,33749
55737,54347,33706
55719,54326,33666
55699,54306,33626
55676,54284,33581
55649,54261,33533
55622,54241,33490
55597,54225,33450
55570,54207,33408
55537,54180,33363
55504,54150,33320
55476,54123,33283
55451,54099,33248
55428,54076,33215
55408,54056,33187
55391,54039,33162
55374,54025,33138
55356,54011,33111
55333,53993,33082
55307,53969,33047
55279,53944,33007
55247,53922,32963
55213,53898,32919
55178,53868,32871
55146,53836,32819
55120,53809,32770
55096,53790,32728
55071,53776,32690
55045,53765,32655
55020,53752,32618
54997,53738,32582
54974,53721,32547
54953,53701,32510
54935,53677,32469
54915,53650,32426
54893,53624,32383
54872,53597,32343
54848,53569,32303
54823,53542,32262
54796,53515,32218
54770,53489,32173
54749,53465,32131
54732,53442,32088
54717,53417,32042
54701,53393,31998
54679,53373,31957
54660,53356,31917
54639,53336,31878
54611,53311,31840
54580,53284,31804
54548,53255,31770
54519,53227,31735
54497,53207,31706
54483,53196,31692
54479,53196,31696
54489,53209,31719
54515,53238,31763
54557,53282,31829
54614,53339,31918
54686,53410,32027
54773,53495,32156
54869,53591,32301
54971,53688,32457
55077,53784,32618
55184,53880,32787
55288,53973,32963
55387,54062,33138
55484,54149,33308
55580,54234,33476
55671,54313,33640
55755,54386,33797
55836,54452,33942
55913,54513,34075
55983,54569,34197
56041,54616,34300
56089,54658,34382
56134,54698,34447
56179,54734,34500
56219,54761,34541
56251,54781,34573
56276,54800,34604
56294,54821,34637
56307,54843,34670
56320,54866,34700
56336,54893,34731
56358,54922,34770
56385,54948,34813
56415,54970,34861
56448,54995,34912
56482,55024,34966
56518,55057,35025
56553,55095,35087
56585,55134,35148
56616,55171,35210
56649,55207,35277
56684,55239,35346
56717,55264,35418
56746,55286,35495
56773,55306,35573
56801,55330,35647
56833,55359,35717
56867,55394,35786
56904,55434,35851
56942,55476,35911
56978,55516,35965
57009,55548,36014
57033,55570,36053
57053,55581,36081
57067,55584,36107
57076,55582,36133
57076,55578,36151
57071,55569,36155
57063,55556,36150
57056,55545,36140
57047,55535,36128
57032,55530,36113
57021,55534,36099
57017,55541,36085
57016,55548,36071
57018,55556,36060
57022,55564,36053
57023,55570,36049
57020,55574,36047
57016,55579,36045
57016,55585,36042
57022,55591,36042
57031,55597,36044
57041,55596,36043
57045,55588,36038
57043,55575,36030
57037,55563,36019
57026,55554,36009
57013,55552,36003
57001,55554,35999
56989,55556,35989
56977,55556,35974
56967,55551,35958
56957,55541,35941
56949,55530,35928
56946,55522,35919
56945,55518,35913
56947,55519,35905
56950,55522,35895
56950,55520,35880
56947,55512,35857
56938,55496,35829
56926,55475,35803
56912,55454,35781
56896,55434,35759
56878,55418,35732
56855,55407,35700
56831,55397,35669
56808,55385,35640
56785,55367,35611
56765,55347,35584
56748,55328,35563
56729,55308,35542
56704,55285,35516
56676,55265,35487
56649,55248,35456
56622,55230,35422
56594,55210,35380
56564,55187,35334
56534,55163,35287
56512,55138,35240
56500,55113,35192
56490,55087,35146
56478,55061,35105
56464,55037,35068
56442,55014,35035
56414,54996,35003
56390,54983,34972
56375,54969,34944
56362,54955,34919
56350,54942,34895
56337,54929,34871
56322,54915,34843
56302,54901,34809
56278,54888,34777
56251,54874,34746
56219,54853,34712
56190,54829,34674
56172,54808,34637
56159,54787,34602
56140,54762,34566
56120,54738,34525
56100,54717,34479
56081,54697,34433
56065,54675,34395
56052,54653,34362
56040,54634,34331
56018,54618,34296
55987,54602,34258
55955,54584,34218
55928,54563,34175
55908,54540,34135
55888,54517,34099
55862,54490,34062
55829,54461,34021
55800,54432,33982
55772,54405,33946
55743,54382,33913
55719,54365,33883
55699,54350,33851
55675,54330,33816
55647,54309,33784
55617,54286,33753
55585,54257,33715
55550,54225,33668
55515,54196,33618
55480,54173,33571
55445,54152,33529
55416,54132,33490
55394,54114,33451
55376,54095,33407
55359,54074,33360
55343,54053,33311
55324,54033,33263
55304,54015,33220
55285,53997,33180
55263,53976,33142
55239,53955,33109
55216,53933,33077
55192,53910,33043
55166,53884,33005
55139,53857,32963
55112,53827,32923
55089,53799,32885
55068,53777,32846
55048,53761,32807
55030,53747,32772
55016,53736,32743
55005,53728,32716
54994,53720,32687
54983,53710,32656
54970,53697,32623
54955,53680,32587
54935,53660,32548
54913,53639,32506
54891,53617,32463
54870,53596,32422
54846,53572,32381
54820,53542,32336
54791,53509,32283
54760,53478,32225
54731,53450,32166
54707,53425,32108
54685,53404,32061
54663,53389,32026
54638,53378,31995
54613,53364,31964
54584,53346,31931
54552,53323,31897
54520,53301,31861
54490,53276,31817
54458,53249,31767
54425,53223,31717
54395,53198,31669
54368,53172,31621
54341,53145,31572
54314,53118,31526
54292,53093,31483
54276,53071,31444
54263,53052,31406
54250,53037,31370
54236,53028,31334
54223,53024,31298
54213,53020,31262
54203,53014,31228
54189,53003,31196
54168,52986,31163
54142,52964,31129
54118,52942,31100
54094,52918,31071
54068,52890,31034
54042,52865,30994
54019,52845,30956
53997,52824,30916
53972,52799,30869
53944,52769,30818
53917,52740,30771
53890,52717,30731
53862,52693,30693
53832,52669,30657
53803,52647,30624
53779,52629,30589
53757,52611,30552
53735,52592,30513
53713,52569,30472
53690,52543,30425
53663,52513,30375
53629,52485,30326
53592,52461,30282
53555,52441,30243
53525,52422,30207
53507,52407,30177
53500,52399,30158
53497,52396,30150
53501,52399,30159
53524,52416,30194
53569,52451,30254
53631,52502,30335
53704,52568,30438
53787,52645,30567
53876,52731,30718
53973,52824,30886
54077,52921,31066
54188,53021,31256
54304,53121,31450
54422,53223,31645
54539,53324,31837
54652,53420,32025
54760,53511,32204
54865,53598,32370
54961,53679,32524
55048,53753,32664
55123,53819,32789
55186,53873,32894
55236,53919,32983
55279,53961,33060
55314,53998,33127
55339,54026,33186
55357,54048,33237
55369,54065,33278
55381,54078,33312
55394,54089,33345
55409,54100,33378
55426,54113,33409
55443,54128,33437
55461,54144,33466
55482,54167,33502
55507,54194,33544
55531,54223,33588
55557,54254,33638
55585,54290,33701
55619,54325,33773
55661,54358,33844
55708,54392,33914
55758,54429,33988
55810,54467,34066
55861,54506,34149
55908,54544,34235
55956,54582,34327
56005,54622,34420
56053,54664,34509
56099,54710,34589
56144,54755,34663
56183,54791,34729
56218,54822,34791
56251,54853,34851
56280,54884,34904
56304,54913,34946
56323,54939,34982
56340,54959,35018
56354,54972,35053
56366,54981,35085
56376,54988,35107
56378,54992,35114
56368,54990,35106
56356,54984,35090
56352,54977,35075
56352,54970,35064
56352,54964,35058
56348,54962,35054
56346,54962,35051
56350,54966,35048
56358,54971,35047
56369,54974,35049
56382,54979,35053
56395,54988,35059
56406,55001,35062
56413,55013,35057
56414,55021,35047
56414,55025,35037
56416,55028,35032
56417,55028,35032
56412,55023,35029
56405,55015,35021
56397,55009,35008
56392,55007,34999
56391,55009,34997
56394,55013,35001
56397,55013,35006
56391,55006,35006
56373,54991,34997
56350,54975,34979
56331,54960,34961
56317,54947,34948
56305,54935,34937
56298,54930,34932
56298,54928,34929
56302,54926,34919
56305,54920,34905
56307,54913,34894
56304,54911,34883
56296,54910,34865
56291,54906,34843
56288,54897,34820
56281,54885,34795
56267,54873,34767
56253,54865,34741
56243,54862,34717
56236,54862,34697
56227,54863,34677
56217,54862,34655
56210,54857,34633
56204,54851,34617
56193,54840,34598
56179,54824,34569
56167,54808,34535
56158,54795,34507
56148,54784,34480
56138,54773,34453
56131,54762,34436
56121,54749,34423
56109,54732,34404
56094,54709,34377
56076,54687,34346
56056,54669,34317
56041,54656,34292
56031,54645,34266
56019,54631,34239
56002,54614,34212
55984,54596,34181
55968,54574,34144
55953,54553,34107
55937,54533,34073
55917,54514,34046
55893,54499,34024
55869,54486,34005
55845,54476,33987
55824,54471,33968
55809,54465,33949
55799,54458,33928
55792,54448,33908
55788,54439,33893
55782,54430,33877
55772,54416,33852
55753,54395,33819
55726,54368,33782
55695,54339,33745
55664,54311,33705
55634,54284,33665
55608,54260,33625
55589,54241,33587
55577,54228,33551
55565,54219,33519
55548,54206,33488
55529,54186,33454
55508,54164,33417
55486,54142,33376
55463,54120,33336
55441,54099,33299
55419,54078,33260
55398,54053,33220
55377,54030,33184
55358,54011,33149
55341,53990,33109
55319,53966,33067
55291,53939,33027
55266,53912,32988
55242,53883,32945
55217,53853,32900
55192,53823,32859
55170,53797,32816
55151,53776,32775
55136,53761,32737
55122,53750,32701
55112,53741,32667
55100,53732,32634
55085,53720,32605
55070,53705,32579
55061,53691,32552
55053,53679,32523
55039,53664,32490
55014,53646,32450
54984,53625,32408
54954,53602,32368
54927,53580,32330
54900,53557,32294
54876,53535,32257
54857,53517,32221
54838,53505,32189
54821,53494,32161
54807,53483,32131
54794,53470,32102
54778,53456,32074
54763,53442,32042
54746,53425,32003
54724,53401,31961
54699,53377,31924
54673,53353,31892
54648,53331,31863
54626,53313,31838
54605,53299,31811
54585,53286,31775
54567,53271,31731
54550,53254,31686
54532,53233,31643
54510,53211,31598
54487,53186,31552
54463,53161,31504
54439,53133,31459
54416,53106,31423
54396,53085,31393
54381,53071,31369
54370,53061,31347
54357,53050,31323
54343,53036,31295
54330,53023,31260
54315,53009,31219
54295,52993,31178
54274,52975,31139
54251,52955,31098
54225,52931,31055
54197,52905,31009
54171,52884,30961
54142,52863,30908
54111,52843,30855
54083,52824,30802
54059,52806,30755
54036,52789,30718
54017,52775,30692
54004,52761,30671
53995,52747,30647
53980,52731,30615
53962,52711,30582
53944,52690,30554
53932,52672,30530
53922,52653,30506
53910,52630,30475
53893,52605,30436
53871,52579,30393
53844,52557,30350
53818,52543,30313
53792,52529,30276
53761,52510,30235
53727,52487,30195
53693,52457,30155
53658,52425,30112
53623,52396,30071
53594,52373,30037
53575,52356,30007
53561,52338,29978
53555,52325,29960
53564,52327,29964
53589,52347,29993
53626,52382,30043
53676,52425,30116
53738,52478,30212
53812,52546,30330
53899,52627,30472
53996,52718,30637
54104,52812,30816
54222,52910,31001
54348,53014,31186
54479,53122,31373
54613,53234,31563
54746,53346,31749
54869,53453,31927
54981,53557,32104
55085,53658,32278
55178,53748,32436
55253,53817,32572
55311,53868,32687
55358,53911,32781
55395,53946,32862
55423,53974,32930
55444,53996,32987
55461,54014,33036
55476,54028,33075
55492,54041,33107
55509,54056,33138
55531,54071,33168
55555,54082,33195
55578,54089,33216
55602,54095,33236
55624,54103,33260
55645,54113,33290
55672,54131,33329
55705,54161,33378
55736,54196,33433
55765,54230,33489
55795,54264,33547
55825,54298,33610
55858,54334,33680
55891,54370,33754
55923,54405,33827
55960,54442,33901
56004,54482,33976
56050,54520,34049
56092,54555,34123
56134,54596,34199
56178,54640,34278
56218,54683,34354
56256,54721,34418
56296,54751,34468
56335,54776,34511
56370,54802,34551
56401,54827,34585
56429,54845,34612
56451,54853,34637
56457,54853,34655
56448,54848,34661
56431,54842,34657
56413,54831,34647
56398,54818,34636
56387,54811,34629
56380,54812,34626
56377,54816,34622
56373,54816,34615
56373,54814,34609
56380,54814,34610
56391,54816,34615
56401,54821,34625
56408,54828,34631
56413,54831,34631
56417,54833,34627
56420,54835,34624
56421,54838,34623
56419,54842,34621
56416,54845,34619
56415,54845,34618
56419,54847,34622
56424,54853,34631
56433,54863,34640
56445,54873,34647
56454,54881,34653
56459,54886,34660
56462,54889,34663
56463,54888,34660
56463,54887,34656
56457,54888,34652
56449,54891,34645
56438,54892,34635
56424,54891,34621
56415,54888,34607
56416,54886,34596
56420,54884,34582
56419,54882,34563
56412,54875,34542
56403,54867,34523
56390,54860,34503
56373,54848,34480
56356,54829,34458
56338,54805,34431
56314,54775,34395
56287,54741,34354
56260,54713,34315
56239,54692,34280
56225,54677,34248
56211,54664,34219
56198,54653,34193
56189,54647,34166
56182,54641,34138
56179,54635,34108
56177,54627,34079
56172,54612,34051
56162,54595,34026
56149,54580,34008
56133,54565,33994
56116,54550,33987
56103,54539,33985
56090,54530,33983
56074,54522,33976
56060,54514,33961
56054,54511,33939
56048,54510,33918
56040,54507,33897
56027,54499,33875
56010,54486,33853
55992,54470,33831
55973,54452,33808
55949,54430,33782
55922,54407,33753
55896,54384,33717
55870,54357,33676
55842,54327,33633
55816,54296,33589
55794,54268,33543
55773,54244,33498
55752,54224,33457
55731,54205,33419
55712,54183,33382
55691,54157,33344
55669,54133,33310
55653,54115,33282
55637,54101,33255
55619,54089,33228
55604,54079,33207
55590,54070,33187
55575,54058,33157
55560,54046,33122
55541,54032,33088
55518,54017,33057
55490,53999,33023
55459,53976,32981
55425,53952,32943
55396,53931,32915
55374,53914,32888
55358,53894,32856
55342,53870,32817
55319,53843,32767
55293,53814,32715
55267,53788,32668
55239,53765,32629
55211,53743,32592
55186,53723,32552
55163,53705,32512
55140,53686,32476
55115,53667,32439
55090,53651,32404
55067,53632,32373
55040,53607,32339
55012,53580,32297
54987,53555,32259
54969,53530,32223
54950,53505,32184
54925,53480,32143
54896,53452,32099
54868,53426,32049
54842,53404,31995
54820,53383,31941
54804,53364,31892
54790,53351,31846
54776,53341,31807
54765,53333,31777
54757,53327,31750
54750,53316,31723
54739,53300,31696
54723,53282,31666
54701,53262,31632
54675,53239,31597
54651,53217,31564
54626,53200,31535
54599,53185,31509
54570,53173,31484
54542,53159,31456
54517,53140,31422
54490,53116,31383
54465,53093,31347
54445,53073,31320
54425,53053,31290
54400,53032,31255
54380,53014,31222
54364,53001,31191
54346,52987,31152
54328,52969,31107
54310,52946,31058
54289,52920,31006
54264,52887,30951
54235,52849,30899
54202,52812,30851
54165,52778,30807
54128,52746,30765
54093,52720,30722
54060,52700,30680
54029,52678,30640
54003,52653,30600
53982,52632,30569
53967,52619,30559
53963,52615,30565
53971,52622,30582
53991,52643,30618
54028,52678,30680
54082,52729,30763
54152,52795,30864
54235,52869,30982
54328,52950,31114
54428,53039,31258
54533,53130,31417
54644,53227,31592
54761,53332,31777
54884,53437,31962
55010,53540,32149
55136,53646,32340
55253,53752,32528
55360,53849,32704
55461,53937,32867
55555,54019,33019
55633,54096,33156
55695,54160,33275
55746,54213,33377
55789,54258,33467
55827,54295,33546
55861,54324,33611
55888,54348,33663
55910,54369,33716
55925,54388,33765
55928,54399,33800
55927,54405,33829
55928,54413,33862
55935,54428,33895
55948,54449,33926
55961,54469,33960
55974,54488,33998
55987,54508,34040
56004,54525,34080
56028,54543,34120
56059,54565,34163
56092,54589,34217
56128,54619,34282
56165,54653,34352
56205,54689,34422
56246,54728,34490
56288,54767,34554
56332,54804,34613
56377,54840,34671
56423,54875,34731
56469,54909,34791
56511,54941,34852
56547,54973,34911
56583,55004,34970
56617,55034,35027
56646,55062,35077
56670,55087,35121
56686,55106,35157
56693,55116,35184
56694,55120,35200
56697,55122,35208
56704,55122,35211
56711,55123,35213
56715,55127,35213
56721,55136,35215
56728,55146,35215
56734,55152,35208
56734,55151,35197
56725,55143,35189
56711,55129,35182
56692,55115,35176
56677,55108,35172
56670,55105,35172
56667,55106,35172
56665,55109,35171
56660,55110,35168
56654,55111,35167
56653,55111,35170
56656,55113,35174
56661,55118,35178
56668,55122,35182
56672,55122,35181
56674,55123,35177
56675,55127,35177
56674,55131,35178
56672,55134,35173
56667,55131,35161
56659,55124,35145
56652,55118,35130
56647,55113,35121
56644,55113,35116
56641,55112,35110
56637,55106,35100
56628,55094,35086
56616,55079,35068
56608,55065,35050
56601,55051,35032
56583,55031,35008
56559,55005,34976
56535,54976,34939
56507,54947,34900
56473,54921,34859
56435,54897,34816
56401,54873,34776
56372,54848,34741
56344,54825,34708
56317,54803,34674
56292,54783,34638
56270,54766,34605
56250,54753,34573
56232,54743,34543
56215,54733,34513
56201,54718,34481
56190,54698,34450
56180,54680,34420
56170,54665,34388
56158,54649,34355
56146,54633,34326
56134,54618,34297
56120,54601,34261
56105,54580,34222
56093,54561,34188
56082,54546,34157
56065,54531,34123
56043,54515,34090
56024,54501,34062
56006,54491,34034
55985,54480,34001
55964,54466,33965
55947,54453,33936
55936,54443,33915
55924,54431,33901
55907,54413,33886
55888,54395,33871
55868,54377,33856
55848,54360,33837
55828,54342,33817
55806,54324,33797
55784,54308,33778
55764,54295,33755
55745,54282,33728
55729,54269,33700
55714,54254,33666
55700,54237,33627
55686,54221,33586
55673,54201,33544
55658,54179,33499
55642,54157,33455
55624,54136,33414
55605,54117,33375
55585,54100,33336
55567,54083,33295
55548,54065,33252
55525,54043,33208
55496,54017,33162
55465,53987,33117
55434,53956,33074
55400,53925,33029
55365,53894,32979
55332,53862,32922
55300,53828,32866
55269,53796,32814
55240,53769,32767
55214,53745,32723
55193,53725,32682
55175,53709,32643
55157,53696,32603
55130,53680,32559
55091,53657,32513
55047,53629,32466
55008,53601,32420
54974,53571,32376
54941,53537,32332
54914,53504,32290
54892,53474,32250
54868,53446,32208
54840,53419,32164
54814,53398,32122
54795,53384,32089
54779,53373,32060
54762,53362,32034
54740,53346,32005
54718,53325,31970
54698,53304,31928
54677,53285,31884
54652,53265,31841
54625,53242,31795
54601,53220,31752
54576,53199,31714
54549,53175,31678
54523,53148,31646
54498,53125,31615
54472,53109,31586
54448,53094,31554
54426,53078,31517
54406,53059,31477
54387,53038,31437
54368,53017,31397
54347,52995,31355
54321,52970,31308
54294,52943,31262
54271,52918,31219
54251,52895,31179
54232,52869,31142
54215,52844,31107
54200,52823,31073
54183,52803,31034
54160,52781,30989
54138,52759,30942
54118,52737,30896
54094,52714,30850
54069,52693,30804
54048,52679,30764
54028,52667,30730
54003,52653,30696
53973,52635,30662
53938,52613,30626
53904,52593,30589
53874,52572,30550
53845,52551,30511
53819,52530,30474
53798,52510,30437
53779,52489,30397
53762,52467,30355
53746,52444,30309
53727,52417,30257
53702,52386,30204
53668,52356,30153
53629,52329,30109
53592,52306,30073
53561,52287,30046
53538,52272,30026
53526,52263,30017
53529,52266,30023
53548,52283,30050
53582,52314,30103
53628,52358,30178
53688,52412,30273
53766,52482,30390
53861,52568,30527
53968,52663,30678
54084,52763,30844
54204,52867,31025
54329,52977,31220
54457,53091,31427
54588,53207,31637
54713,53317,31845
54828,53419,32045
54936,53514,32234
55039,53604,32410
55134,53688,32572
55223,53769,32725
55306,53844,32867
55380,53914,32999
55445,53975,33116
55501,54025,33217
55549,54067,33302
55588,54101,33374
55618,54130,33436
55645,54158,33491
55670,54185,33536
55688,54208,33576
55700,54226,33613
55713,54244,33647
55729,54263,33680
55746,54280,33713
55766,54298,33752
55790,54320,33795
55816,54346,33840
55841,54371,33886
55870,54401,33940
55910,54438,34003
55955,54477,34072
55997,54518,34142
56032,54559,34213
56067,54597,34284
56106,54634,34352
56148,54668,34415
56197,54704,34478
56249,54743,34547
56293,54782,34617
56331,54821,34684
56372,54863,34752
56415,54906,34826
56456,54944,34904
56492,54974,34980
56525,55002,35053
56559,55029,35117
56586,55049,35165
56600,55057,35195
56598,55056,35213
56591,55049,35222
56587,55039,35225
56584,55031,35223
56576,55030,35219
56568,55030,35212
56562,55027,35199
56555,55021,35179
56549,55016,35159
56546,55011,35139
56545,55008,35124
56544,55007,35113
56546,55010,35107
56554,55024,35109
56569,55043,35118
56590,55065,35134
56612,55086,35157
56628,55106,35181
56636,55120,35200
56640,55126,35215
56643,55128,35228
56646,55134,35238
56646,55138,35240
56645,55140,35234
56641,55136,35227
56631,55130,35222
56617,55123,35217
56601,55116,35211
56589,55110,35206
56583,55101,35198
56577,55091,35187
56570,55082,35173
56565,55073,35161
56560,55060,35151
56553,55046,35139
56544,55033,35124
56538,55024,35104
56536,55018,35085
56538,55012,35066
56535,55004,35046
56525,54993,35021
56508,54977,34990
56489,54959,34956
56476,54945,34924
56467,54935,34893
56460,54926,34865
56453,54920,34841
56444,54917,34822
56432,54913,34803
56418,54908,34782
56402,54900,34759
56385,54892,34731
56370,54887,34701
56358,54885,34670
56348,54879,34640
56340,54868,34612
56330,54854,34587
56313,54840,34565
56296,54827,34544
56280,54814,34528
56266,54801,34514
56255,54791,34497
56244,54784,34474
56233,54775,34447
56220,54761,34418
56207,54742,34391
56194,54726,34366
56180,54711,34340
56161,54689,34308
56139,54660,34268
56114,54630,34227
56085,54604,34189
56059,54581,34156
56037,54561,34123
56022,54546,34091
56012,54533,34062
56004,54520,34034
55995,54501,34007
55982,54477,33983
55965,54451,33957
55944,54424,33928
55924,54399,33898
55902,54376,33867
55880,54354,33836
55859,54337,33807
55838,54323,33779
55817,54309,33747
55800,54292,33708
55785,54273,33665
55771,54254,33625
55753,54233,33586
55728,54208,33547
55699,54182,33506
55673,54159,33467
55651,54138,33429
55630,54119,33387
55609,54099,33341
55586,54077,33293
55564,54056,33249
55543,54038,33211
55522,54019,33176
55501,54001,33145
55482,53987,33113
55462,53971,33076
55441,53952,33037
55422,53935,32997
55407,53917,32954
55390,53894,32904
55370,53868,32856
55349,53846,32812
55328,53828,32774
55307,53811,32740
55284,53790,32707
55260,53769,32676
55239,53750,32644
55216,53731,32611
55193,53716,32581
55173,53709,32556
55160,53705,32529
55149,53697,32495
55135,53683,32455
55115,53664,32415
55092,53639,32375
55068,53610,32337
55048,53583,32302
55028,53555,32268
55001,53525,32232
54971,53497,32195
54943,53477,32157
54919,53461,32118
54894,53446,32080
54864,53429,32040
54835,53409,32001
54812,53389,31965
54794,53368,31929
54774,53345,31888
54753,53322,31846
54731,53299,31806
54707,53274,31765
54684,53245,31724
54660,53215,31690
54633,53187,31658
54602,53159,31621
54569,53135,31580
54539,53120,31543
54519,53110,31510
54503,53098,31472
54485,53084,31429
54467,53067,31388
54450,53047,31345
54431,53025,31298
54410,53003,31253
54385,52983,31212
54359,52966,31175
54334,52949,31139
54306,52926,31096
54276,52901,31045
54244,52870,30993
54214,52840,30944
54188,52812,30894
54165,52785,30846
54145,52759,30798
54125,52732,30752
54102,52702,30705
54076,52673,30657
54053,52647,30608
54031,52620,30559
54006,52592,30512
53975,52562,30465
53941,52534,30420
53910,52510,30386
53885,52494,30366
53871,52492,30360
53872,52502,30370
53889,52522,30397
53924,52552,30444
53978,52596,30510
54048,52654,30596
54130,52725,30703
54223,52806,30832
54324,52894,30978
54428,52988,31137
54541,53089,31307
54664,53197,31487
54795,53312,31677
54927,53428,31877
55053,53542,32077
55178,53654,32277
55305,53764,32479
55427,53868,32674
55536,53965,32852
55634,54053,33017
55725,54136,33174
55807,54212,33317
55878,54280,33441
55938,54336,33550
55983,54381,33646
56011,54412,33727
56027,54429,33792
56039,54439,33842
56050,54445,33878
56060,54450,33901
56062,54453,33912
56060,54453,33918
56058,54454,33925
56062,54457,33936
56073,54465,33952
56089,54478,33978
56107,54489,34009
56123,54499,34041
56142,54515,34083
56162,54536,34135
56187,54563,34195
56218,54597,34261
56253,54636,34327
56295,54678,34389
56343,54719,34449
56393,54763,34513
56443,54810,34579
56491,54855,34644
56535,54893,34707
56575,54930,34767
56615,54965,34826
56657,54999,34890
56697,55035,34960
56738,55071,35030
56779,55103,35096
56820,55135,35155
56856,55164,35203
56884,55181,35232
56904,55190,35245
56916,55195,35251
56925,55197,35256
56933,55200,35257
56939,55205,35253
56940,55208,35244
56934,55203,35228
56927,55193,35210
56922,55188,35196
56921,55193,35191
56926,55204,35191
56932,55215,35191
56933,55223,35188
56928,55224,35185
56922,55221,35183
56918,55217,35183
56919,55216,35189
56920,55215,35201
56918,55215,35218
56916,55218,35238
56917,55223,35258
56915,55226,35272
56909,55226,35277
56905,55225,35276
56900,55223,35272
56894,55221,35265
56887,55216,35255
56880,55210,35241
56876,55204,35228
56877,55199,35213
56879,55196,35201
56883,55197,35196
56889,55204,35196
56901,55214,35200
56915,55225,35204
56925,55230,35202
56928,55230,35193
56921,55224,35176
56911,55214,35154
56900,55204,35133
56887,55192,35114
56870,55179,35091
56852,55166,35063
56837,55155,35038
56828,55148,35016
56819,55138,34992
56804,55121,34961
56787,55098,34925
56773,55072,34893
56761,55043,34867
56739,55010,34839
56712,54979,34809
56686,54956,34780
56665,54941,34753
56645,54928,34721
56626,54912,34688
56608,54896,34661
56588,54884,34639
56566,54877,34617
56544,54871,34593
56525,54860,34565
56511,54845,34538
56496,54828,34514
56474,54812,34490
56451,54797,34463
56431,54782,34433
56413,54763,34400
56394,54739,34365
56374,54715,34330
56358,54694,34292
56348,54675,34249
56335,54656,34206
56317,54637,34162
56296,54618,34118
56275,54600,34078
56256,54582,34045
56239,54566,34017
56222,54551,33992
56205,54535,33962
56191,54521,33931
56177,54508,33902
56161,54497,33876
56144,54487,33854
56128,54479,33835
56113,54470,33819
56098,54457,33802
56086,54441,33785
56074,54423,33768
56064,54406,33745
56051,54385,33717
56034,54363,33691
56013,54344,33664
55986,54323,33630
55957,54301,33595
55931,54279,33562
55908,54257,33526
55886,54237,33486
55865,54217,33447
55846,54196,33409
55825,54175,33370
55800,54153,33329
55770,54129,33288
55740,54102,33248
55711,54073,33208
55682,54044,33165
55651,54013,33115
55619,53982,33061
55589,53951,33002
55562,53922,32943
55537,53898,32893
55515,53878,32848
55491,53860,32802
55464,53842,32755
55441,53826,32709
55422,53809,32669
55405,53790,32632
55385,53768,32599
55363,53746,32569
55345,53731,32540
55325,53718,32511
55299,53699,32479
55272,53674,32447
55246,53646,32416
55221,53617,32378
55194,53588,32329
55166,53562,32282
55140,53541,32241
55118,53522,32207
55096,53501,32173
55073,53478,32140
55051,53459,32104
55027,53442,32068
54996,53424,32028
54961,53402,31982
54927,53379,31935
54897,53359,31890
54874,53344,31851
54858,53332,31825
54852,53326,31813
54857,53329,31815
54875,53347,31836
54908,53378,31884
54956,53420,31958
55020,53474,32056
55099,53540,32177
55193,53618,32322
55302,53709,32489
55417,53805,32667
55536,53904,32851
55661,54009,33039
55786,54116,33230
55910,54221,33420
56032,54325,33612
56152,54428,33807
56269,54528,34001
56376,54623,34186
56474,54712,34363
56561,54794,34526
56633,54864,34665
56693,54920,34777
56743,54965,34868
56787,55003,34944
56826,55040,35013
56855,55077,35074
56880,55111,35123
56900,55138,35158
56914,55153,35182
56924,55162,35201
56934,55170,35217
56945,55177,35229
56953,55181,35243
56962,55185,35266
56975,55199,35301
56994,55223,35343
57025,55254,35389
57065,55290,35439
57106,55329,35494
57146,55368,35556
57186,55403,35622
57227,55436,35685
57266,55469,35741
57307,55500,35799
57347,55528,35864
57387,55559,35935
57428,55599,36009
57467,55640,36086
57504,55681,36165
57540,55722,36242
57572,55764,36314
57603,55798,36377
57628,55822,36430
57647,55839,36471
57666,55855,36506
57687,55865,36533
57701,55867,36547
57700,55861,36546
57689,55849,36533
57671,55834,36518
57649,55818,36505
57626,55806,36493
57606,55799,36480
57587,55795,36462
57569,55789,36441
57557,55779,36420
57553,55770,36402
57553,55764,36385
57553,55762,36367
57552,55759,36356
57553,55757,36355
57560,55757,36362
57567,55762,36371
57575,55770,36383
57581,55779,36399
57587,55786,36417
57591,55790,36432
57595,55795,36442
57602,55799,36448
57611,55800,36449
57612,55795,36444
57603,55785,36436
57593,55772,36426
57581,55757,36419
57562,55746,36411
57540,55739,36395
57519,55729,36373
57501,55720,36350
57488,55718,36327
57477,55718,36308
57467,55714,36290
57455,55708,36271
57447,55700,36248
57443,55687,36223
57441,55673,36199
57433,55661,36172
57416,55648,36136
57396,55632,36097
57380,55615,36061
57362,55600,36026
57340,55585,35990
57319,55569,35958
57301,55556,35927
57285,55545,35894
57268,55530,35857
57251,55510,35819
57234,55488,35784
57211,55468,35751
57188,55447,35713
57167,55421,35668
57144,55393,35623
57121,55370,35582
57100,55354,35547
57081,55339,35517
57060,55320,35488
57038,55300,35456
57018,55280,35423
57005,55259,35392
56995,55239,35371
56981,55222,35355
56963,55212,35339
56943,55203,35318
56920,55190,35290
56895,55173,35258
56870,55153,35225
56843,55134,35190
56812,55111,35147
56783,55086,35104
56760,55064,35067
56740,55047,35031
56718,55028,34992
56698,55005,34955
56681,54982,34920
56665,54958,34882
56648,54933,34840
56627,54903,34795
56604,54874,34751
56581,54852,34711
56557,54833,34670
56533,54813,34626
56512,54794,34583
56490,54776,34540
56466,54754,34495
56442,54727,34448
56416,54698,34405
56384,54668,34366
56347,54641,34324
56307,54617,34283
56267,54590,34245
56229,54559,34209
56190,54526,34167
56155,54497,34118
56129,54474,34069
56107,54452,34022
56087,54430,33980
56070,54412,33945
56054,54399,33913
56033,54383,33881
56011,54366,33851
55992,54350,33819
55973,54334,33782
55949,54317,33738
55924,54296,33693
55902,54273,33653
55881,54250,33617
55861,54229,33578
55838,54205,33536
55813,54177,33495
55784,54148,33454
55753,54120,33411
55723,54094,33367
55695,54069,33329
55667,54042,33291
55637,54013,33248
55608,53983,33207
55581,53953,33166
55555,53924,33121
55530,53898,33077
55508,53878,33036
55487,53861,32996
55463,53845,32956
55437,53829,32916
55408,53813,32874
55371,53790,32830
55331,53760,32783
55297,53731,32736
55270,53705,32691
55250,53678,32649
55230,53650,32607
55208,53627,32562
55182,53608,32516
55156,53592,32471
55135,53575,32425
55110,53552,32377
55080,53524,32331
55052,53499,32285
55025,53477,32237
54999,53453,32190
54976,53427,32148
54957,53404,32116
54940,53385,32091
54931,53379,32083
54936,53389,32096
54955,53412,32131
54990,53445,32182
55037,53487,32252
55094,53539,32342
55166,53601,32456
55250,53673,32587
55347,53757,32736
55454,53859,32907
55572,53975,33098
55697,54094,33302
55823,54211,33511
55948,54328,33723
56076,54445,33936
56206,54558,34148
56335,54668,34353
56457,54771,34547
56568,54866,34726
56665,54951,34885
56749,55027,35023
56822,55092,35144
56889,55144,35254
56947,55186,35357
56996,55222,35448
57042,55262,35527
57086,55306,35598
57123,55350,35659
57156,55392,35707
57182,55428,35742
57202,55456,35772
57223,55483,35804
57247,55506,35840
57270,55521,35882
57291,55532,35931
57318,55545,35989
57350,55562,36054
57380,55580,36118
57406,55597,36180
57431,55618,36243
57458,55649,36308
57490,55688,36375
57525,55731,36445
57559,55772,36515
57595,55813,36584
57637,55857,36655
57688,55903,36732
57745,55950,36819
57800,55997,36909
57852,56044,36998
57905,56095,37082
57958,56144,37163
58008,56189,37240
58055,56228,37310
58098,56257,37371
58130,56279,37424
58153,56297,37468
58168,56311,37503
58174,56325,37530
58174,56339,37549
58173,56349,37560
58172,56354,37568
58172,56355,37570
58171,56352,37565
58170,56348,37555
58169,56343,37542
58169,56337,37526
58168,56333,37509
58164,56334,37493
58159,56335,37477
58154,56336,37458
58151,56336,37440
58146,56334,37428
58140,56329,37419
58133,56322,37410
58130,56314,37400
58133,56306,37395
58139,56301,37398
58140,56296,37403
58135,56290,37402
58124,56283,37394
58111,56278,37384
58100,56272,37376
58089,56265,37368
58081,56260,37362
58074,56260,37356
58064,56261,37346
58050,56260,37327
58037,56257,37303
58033,56252,37283
58032,56243,37266
58033,56232,37252
58037,56226,37239
58041,56223,37227
58048,56223,37215
58059,56223,37207
58067,56219,37202
58069,56213,37200
58061,56204,37195
58043,56192,37180
58018,56175,37152
57988,56153,37113
57958,56128,37070
57930,56101,37030
57905,56078,36996
57879,56061,36966
57854,56047,36935
57826,56031,36898
57798,56011,36857
57775,55987,36815
57755,55962,36775
57737,55937,36735
57715,55911,36692
57689,55886,36648
57662,55865,36604
57636,55844,36564
57613,55823,36529
57594,55804,36493
57579,55789,36457
57569,55777,36423
57558,55765,36391
57549,55753,36361
57540,55745,36335
57526,55738,36310
57509,55731,36281
57494,55722,36247
57486,55712,36212
57482,55701,36184
57476,55687,36158
57463,55669,36130
57444,55648,36098
57423,55628,36064
57399,55606,36028
57372,55581,35992
57340,55552,35954
57304,55522,35914
57269,55492,35871
57243,55468,35828
57223,55446,35787
57208,55424,35751
57196,55403,35722
57180,55382,35693
57156,55361,35656
57133,55341,35614
57112,55323,35570
57091,55306,35525
57073,55291,35485
57056,55273,35453
57034,55253,35420
57008,55232,35383
56979,55211,35339
56951,55186,35291
56925,55158,35246
56905,55132,35209
56890,55108,35178
56878,55084,35146
56860,55060,35106
56836,55039,35058
56806,55022,35004
56774,55005,34952
56745,54987,34905
56719,54968,34860
56694,54941,34817
56669,54910,34775
56645,54879,34733
56619,54848,34690
56587,54820,34644
56550,54795,34597
56515,54776,34553
56487,54763,34511
56466,54750,34468
56452,54738,34426
56447,54725,34393
56443,54713,34365
56434,54698,34335
56418,54680,34303
56397,54663,34266
56376,54649,34227
56360,54637,34189
56346,54622,34153
56330,54602,34115
56309,54577,34072
56278,54546,34022
56239,54512,33967
56202,54479,33917
56174,54454,33881
56155,54438,33858
56138,54424,33840
56115,54411,33818
56093,54397,33792
56076,54383,33769
56057,54367,33749
56037,54348,33731
56016,54327,33708
55994,54301,33677
55972,54275,33641
55948,54251,33599
55922,54227,33554
55895,54204,33509
55867,54183,33466
55841,54165,33424
55820,54149,33384
55796,54131,33340
55765,54109,33293
55730,54081,33243
55695,54051,33196
55663,54020,33152
55636,53988,33107
55610,53956,33061
55586,53925,33014
55561,53892,32967
55536,53858,32915
55510,53822,32861
55485,53793,32807
55463,53770,32760
55445,53754,32721
55430,53744,32690
55419,53737,32664
55411,53731,32641
55408,53732,32627
55411,53740,32627
55421,53756,32643
55437,53779,32676
55462,53811,32729
55503,53857,32808
55563,53918,32909
55640,53991,33033
55739,54082,33187
55859,54187,33362
55997,54298,33550
56144,54413,33749
56292,54528,33956
56435,54642,34164
56568,54751,34369
56689,54853,34570
56803,54952,34765
56909,55050,34947
57007,55141,35113
57097,55222,35262
57178,55291,35394
57249,55349,35512
57308,55397,35615
57361,55437,35703
57408,55472,35777
57447,55504,35837
57475,55532,35883
57492,55558,35918
57507,55582,35946
57525,55602,35970
57546,55619,35998
57568,55636,36034
57593,55655,36076
57620,55673,36118
57645,55693,36157
57662,55714,36192
57675,55737,36224
57690,55761,36256
57708,55786,36294
57734,55813,36338
57768,55842,36395
57806,55878,36466
57845,55919,36548
57886,55963,36631
57926,56004,36708
57966,56039,36780
58005,56071,36852
58048,56102,36929
58097,56135,37011
58146,56169,37094
58199,56207,37177
58253,56251,37259
58303,56296,37334
58340,56333,37396
58364,56359,37446
58376,56378,37485
58382,56396,37512
58387,56413,37527
58393,56426,37533
58399,56433,37530
58403,56436,37522
58408,56435,37509
58409,56428,37490
58401,56415,37471
58390,56401,37460
58380,56389,37456
58372,56378,37450
58364,56369,37441
58361,56365,37435
58359,56364,37432
58355,56362,37427
58348,56360,37422
58343,56359,37421
58341,56361,37423
58339,56363,37425
58339,56368,37424
58343,56375,37424
58349,56381,37424
58357,56383,37418
58364,56380,37412
58372,56377,37411
58382,56375,37413
58395,56377,37417
58409,56384,37424
58421,56394,37430
58425,56397,37429
58425,56395,37424
58423,56391,37417
58416,56386,37410
58404,56382,37401
58388,56381,37389
58373,56379,37376
58356,56372,37365
58336,56356,37348
58310,56334,37317
58278,56305,37278
58246,56271,37237
58218,56236,37193
58191,56205,37145
58168,56178,37095
58150,56156,37046
58139,56139,37003
58128,56125,36967
58118,56116,36938
58107,56112,36913
58089,56106,36885
58068,56095,36854
58050,56081,36826
58035,56064,36801
58020,56044,36781
58010,56029,36768
58002,56016,36754
57988,56000,36733
57973,55984,36709
57961,55974,36690
57950,55969,36678
57938,55966,36666
57924,55966,36649
57905,55965,36623
57884,55956,36589
57864,55936,36549
57846,55909,36508
57832,55885,36471
57821,55865,36437
57805,55845,36401
57788,55827,36367
57770,55807,36333
57749,55780,36300
57728,55753,36273
57709,55728,36250
57690,55706,36224
57669,55690,36194
57650,55681,36165
57631,55676,36137
57611,55668,36102
57589,55654,36059
57566,55637,36015
57543,55620,35970
57527,55601,35924
57516,55583,35881
57504,55565,35846
57486,55547,35814
57460,55527,35783
57429,55508,35746
57393,55486,35699
57357,55460,35645
57326,55434,35593
57299,55407,35544
57274,55379,35499
57250,55349,35458
57223,55317,35419
57193,55288,35379
57162,55262,35338
57129,55238,35293
57098,55214,35248
57072,55190,35204
57050,55166,35164
57027,55140,35126
57003,55115,35090
56981,55092,35053
56963,55075,35015
56953,55067,34982
56947,55065,34953
56936,55061,34922
56923,55052,34888
56910,55042,34857
56894,55029,34829
56870,55007,34798
56838,54982,34761
56802,54956,34720
56767,54931,34675
56735,54908,34630
56709,54885,34588
