green_channel,red_channel,ir_channel
21249,27623,44981
21179,27552,44853
21111,27485,44730
21041,27419,44610
20971,27352,44488
20904,27286,44369
20832,27224,44253
20754,27160,44135
20675,27093,44013
20600,27027,43893
20527,26965,43779
20453,26902,43661
20380,26834,43538
20312,26767,43415
20249,26705,43294
20188,26642,43173
20129,26580,43056
20069,26522,42944
20002,26461,42834
19928,26398,42719
19857,26336,42606
19792,26283,42503
19729,26233,42403
19660,26178,42296
19589,26118,42187
19522,26064,42088
19460,26017,41997
19397,25966,41903
19332,25913,41804
19270,25864,41705
19214,25819,41605
19159,25769,41498
19101,25714,41386
19042,25661,41279
18980,25610,41173
18911,25554,41062
18844,25500,40955
18786,25458,40863
18734,25422,40782
18689,25388,40709
18663,25369,40662
18669,25379,40661
18716,25424,40717
18812,25505,40841
18952,25624,41040
19131,25780,41312
19346,25969,41647
19599,26185,42036
19884,26426,42475
20188,26689,42955
20498,26960,43453
20814,27231,43957
21133,27502,44464
21451,27774,44972
21755,28037,45464
22041,28283,45929
22310,28514,46370
22558,28729,46780
22780,28922,47149
22974,29090,47475
23143,29238,47763
23290,29368,48016
23413,29473,48227
23514,29553,48401
23599,29621,48549
23666,29679,48668
23718,29720,48756
23759,29751,48823
23790,29780,48875
23804,29802,48908
23801,29811,48921
23795,29815,48928
23795,29823,48944
23794,29827,48960
23788,29823,48969
23785,29822,48975
23788,29827,48984
23793,29833,48994
23798,29837,49001
23805,29843,49006
23812,29847,49008
23813,29845,49003
23810,29838,48988
23800,29827,48962
23779,29811,48927
23743,29782,48874
23699,29737,48801
23648,29685,48714
23591,29632,48622
23525,29573,48518
23453,29503,48400
23380,29434,48280
23309,29372,48163
23237,29312,48046
23165,29248,47930
23102,29187,47825
23048,29134,47734
22997,29083,47652
22951,29033,47578
22912,28991,47516
22880,28959,47463
22855,28932,47419
22841,28911,47387
22834,28900,47369
22828,28894,47359
22818,28886,47344
22807,28877,47326
22798,28874,47313
22789,28873,47304
22772,28865,47285
22752,28851,47256
22737,28839,47228
22728,28831,47203
22717,28816,47171
22700,28792,47126
22677,28768,47075
22648,28741,47019
22611,28706,46948
22565,28661,46866
22515,28616,46784
22462,28568,46694
22400,28513,46590
22333,28453,46482
22267,28396,46383
22199,28339,46283
22128,28278,46171
22062,28217,46057
22005,28157,45947
21942,28094,45835
21869,28026,45713
21796,27962,45590
21725,27903,45470
21650,27843,45348
21572,27780,45224
21493,27718,45103
21412,27660,44987
21331,27601,44870
21254,27538,44746
21183,27478,44624
21117,27420,44504
21047,27357,44378
20975,27289,44247
20910,27225,44126
20851,27166,44016
20788,27102,43903
20721,27031,43783
20658,26963,43670
20598,26901,43568
20534,26836,43467
20466,26767,43364
20402,26705,43265
20344,26652,43171
20284,26596,43070
20219,26538,42964
20153,26486,42858
20091,26441,42755
20030,26398,42651
19969,26354,42548
19906,26313,42449
19845,26272,42351
19784,26227,42245
19721,26180,42137
19659,26134,42037
19595,26084,41938
19529,26024,41832
19466,25963,41730
19411,25911,41639
19356,25862,41551
19302,25818,41469
19269,25792,41417
19271,25797,41415
19309,25831,41466
19384,25893,41572
19506,25994,41746
19677,26139,41993
19889,26319,42305
20136,26529,42676
20409,26765,43099
20699,27021,43563
20998,27288,44049
21303,27557,44546
21611,27831,45052
21917,28102,45554
22210,28361,46035
22486,28603,46490
22744,28835,46926
22983,29051,47336
23195,29242,47704
23382,29406,48025
23549,29552,48306
23696,29682,48550
23816,29786,48751
23909,29865,48913
23986,29931,49050
24050,29987,49166
24098,30027,49253
24132,30050,49315
24156,30066,49363
24169,30075,49396
24172,30072,49410
24173,30063,49416
24177,30057,49423
24174,30051,49426
24161,30041,49418
24149,30036,49413
24146,30046,49419
24143,30057,49426
24136,30059,49423
24129,30057,49414
24120,30053,49399
24110,30040,49375
24096,30020,49339
24077,29995,49293
24045,29966,49236
24002,29926,49162
23951,29875,49069
23896,29821,48967
23833,29764,48860
23762,29702,48741
23685,29633,48613
23609,29563,48487
23538,29494,48367
23467,29426,48253
23395,29359,48140
23325,29298,48035
23264,29247,47942
23215,29205,47859
23177,29173,47793
23151,29150,47744
23130,29131,47708
23112,29114,47679
23100,29103,47659
23096,29103,47650
23093,29104,47642
23089,29100,47631
23092,29095,47622
23102,29095,47621
23105,29093,47618
23096,29083,47604
23084,29073,47587
23075,29070,47572
23061,29064,47552
23040,29046,47521
23016,29023,47479
22989,29001,47432
22953,28971,47375
22910,28928,47304
22861,28878,47223
22805,28826,47135
22744,28770,47040
22681,28711,46940
22617,28655,46839
22550,28600,46743
22481,28542,46642
22413,28477,46533
22344,28410,46418
22269,28345,46301
22188,28278,46179
22105,28206,46050
22025,28137,45926
21952,28077,45808
21877,28012,45685
21795,27940,45555
21715,27869,45427
21641,27805,45302
21570,27739,45175
21502,27670,45044
21434,27601,44915
21363,27530,44792
21290,27456,44672
21222,27388,44559
21156,27330,44453
21086,27275,44348
21010,27216,44235
20939,27156,44119
20876,27104,44008
20813,27054,43898
20742,26997,43781
20667,26935,43658
20598,26880,43542
20537,26832,43439
20477,26781,43340
20413,26724,43239
20346,26669,43141
20279,26617,43043
20212,26561,42941
20147,26504,42837
20084,26450,42737
20017,26394,42630
19944,26331,42515
19872,26268,42403
19805,26210,42300
19738,26154,42200
19673,26098,42099
19621,26053,42012
19587,26023,41951
19574,26011,41922
19592,26026,41937
19650,26077,42009
19754,26167,42149
19899,26294,42357
20082,26451,42630
20302,26642,42969
20554,26868,43370
20826,27116,43810
21111,27377,44276
21406,27649,44769
21707,27928,45277
22005,28199,45783
22293,28455,46275
22570,28697,46751
22831,28927,47205
23072,29141,47630
23295,29340,48022
23496,29522,48383
23668,29681,48704
23812,29813,48977
23937,29926,49210
24048,30026,49413
24139,30110,49583
24209,30169,49711
24264,30211,49808
24311,30249,49886
24350,30282,49951
24376,30306,49997
24389,30321,50027
24393,30332,50049
24393,30343,50063
24388,30345,50065
24381,30341,50063
24374,30337,50064
24364,30330,50058
24349,30315,50038
24339,30301,50021
24338,30297,50016
24333,30292,50009
24318,30279,49993
24301,30262,49973
24286,30245,49952
24266,30220,49920
24237,30183,49873
24197,30141,49811
24143,30093,49734
24073,30034,49639
23993,29964,49526
23914,29894,49404
23840,29827,49280
23764,29752,49145
23685,29671,49002
23609,29594,48866
23536,29527,48741
23466,29465,48625
23401,29405,48519
23346,29353,48425
23302,29310,48343
23263,29274,48269
23228,29247,48208
23201,29230,48166
23181,29221,48137
23168,29212,48114
23161,29206,48099
23160,29204,48092
23158,29202,48085
23154,29192,48070
23151,29183,48054
23149,29176,48045
23137,29165,48031
23113,29143,47998
23088,29122,47958
23069,29106,47919
23044,29089,47875
23012,29062,47819
22977,29032,47758
22936,29002,47694
22885,28966,47622
22828,28921,47540
22766,28871,47451
22699,28820,47358
22629,28764,47256
22562,28702,47146
22496,28635,47033
22424,28565,46919
22347,28490,46798
22270,28414,46669
22195,28342,46539
22122,28275,46407
22046,28204,46270
21966,28129,46127
21890,28060,45992
21818,28000,45867
21745,27937,45740
21668,27868,45608
21592,27799,45480
21515,27730,45356
21434,27661,45229
21349,27588,45098
21266,27517,44969
21186,27450,44841
21108,27385,44710
21036,27321,44578
20968,27265,44453
20900,27208,44329
20828,27142,44200
20757,27071,44076
20688,27002,43965
20611,26935,43855
20527,26865,43739
20452,26801,43625
20390,26749,43525
20328,26698,43429
20261,26642,43328
20196,26588,43223
20134,26539,43121
20070,26490,43018
20007,26437,42911
19947,26381,42802
19888,26324,42692
19827,26264,42580
19768,26202,42467
19707,26144,42357
19642,26090,42256
19574,26036,42155
19509,25979,42052
19451,25924,41958
19401,25883,41884
19367,25858,41834
19360,25857,41823
19391,25891,41874
19466,25966,42000
19582,26078,42195
19739,26225,42457
19939,26408,42787
20183,26628,43179
20460,26875,43618
20761,27139,44094
21074,27418,44601
21395,27705,45131
21715,27991,45666
22029,28272,46196
22332,28545,46716
22616,28800,47213
22880,29033,47671
23124,29245,48098
23349,29446,48500
23548,29630,48865
23720,29787,49183
23873,29925,49460
24009,30052,49706
24120,30161,49915
24205,30247,50083
24272,30310,50216
24328,30358,50326
24373,30395,50413
24407,30422,50476
24430,30441,50523
24444,30454,50559
24453,30465,50583
24461,30471,50596
24466,30474,50604
24464,30473,50611
24457,30471,50610
24450,30465,50604
24449,30459,50601
24451,30459,50602
24447,30456,50598
24437,30449,50589
24427,30440,50586
24422,30435,50590
24416,30423,50588
24401,30398,50570
24377,30361,50539
24339,30318,50491
24286,30270,50420
24224,30217,50331
24160,30164,50230
24092,30110,50118
24020,30048,49993
23945,29980,49860
23871,29915,49732
23794,29848,49606
23715,29776,49477
23642,29707,49353
23579,29651,49250
23522,29605,49161
23467,29561,49078
23419,29521,49004
23382,29493,48945
23353,29472,48898
23325,29451,48852
23302,29434,48810
23286,29424,48777
23276,29419,48754
23268,29413,48735
23259,29408,48717
23249,29405,48701
23234,29399,48680
23216,29386,48652
23196,29365,48618
23170,29338,48578
23142,29306,48532
23115,29273,48479
23085,29239,48424
23046,29203,48368
22997,29162,48297
22942,29116,48209
22885,29067,48116
22825,29019,48023
22763,28968,47926
22702,28915,47820
22643,28863,47715
22582,28811,47610
22515,28748,47493
22444,28674,47365
22375,28600,47238
22308,28531,47118
22236,28462,46996
22161,28389,46868
22086,28318,46739
22013,28250,46610
21936,28181,46475
21854,28105,46336
21775,28033,46200
21699,27967,46071
21621,27901,45942
21540,27835,45814
21461,27772,45693
21385,27712,45574
21312,27649,45445
21241,27586,45316
21173,27527,45197
21101,27466,45080
21022,27400,44956
20948,27335,44832
20885,27277,44714
20823,27220,44599
20755,27156,44483
20685,27089,44370
20615,27025,44260
20550,26965,44153
20492,26904,44043
20433,26844,43935
20370,26788,43830
20300,26733,43722
20229,26676,43613
20160,26625,43507
20100,26581,43406
20040,26533,43300
19977,26477,43184
19916,26418,43070
19860,26365,42964
19801,26309,42858
19736,26246,42746
19671,26184,42637
19609,26128,42538
19549,26078,42448
19496,26035,42367
19453,26009,42307
19428,26001,42278
19427,26011,42285
19462,26050,42344
19546,26131,42476
19678,26255,42685
19849,26412,42957
20055,26598,43286
20301,26820,43677
20581,27070,44123
20878,27335,44603
21183,27608,45106
21493,27891,45627
21800,28175,46152
22101,28446,46663
22396,28705,47160
22678,28954,47641
22935,29186,48090
23162,29391,48495
23370,29575,48864
23561,29745,49202
23728,29894,49500
23867,30015,49755
23983,30115,49971
24075,30200,50151
24146,30270,50296
24203,30323,50411
24245,30362,50504
24271,30392,50582
24286,30410,50642
24295,30415,50680
24306,30418,50707
24317,30420,50732
24323,30418,50750
24322,30412,50756
24320,30412,50761
24321,30416,50768
24321,30417,50767
24318,30411,50756
24314,30405,50743
24308,30400,50729
24297,30392,50711
24284,30380,50694
24271,30368,50680
24250,30351,50657
24214,30319,50612
24169,30278,50548
24121,30238,50477
24066,30194,50394
23995,30138,50287
23912,30067,50159
23830,29994,50030
23753,29925,49903
23675,29854,49769
23593,29778,49630
23512,29705,49499
23442,29642,49381
23379,29585,49270
23320,29530,49166
23268,29482,49080
23228,29443,49009
23197,29407,48944
23172,29375,48890
23154,29354,48852
23136,29338,48820
23113,29316,48781
23094,29298,48745
23081,29285,48720
23066,29270,48696
23046,29250,48669
23029,29235,48639
23015,29226,48613
22999,29217,48586
22981,29202,48556
22962,29184,48521
22939,29165,48483
22909,29139,48433
22872,29101,48365
22834,29059,48286
22792,29015,48205
22742,28965,48114
22684,28909,48012
22625,28855,47909
22563,28803,47807
22492,28743,47696
22418,28678,47576
22346,28616,47454
22276,28554,47333
22204,28486,47207
22128,28413,47076
22051,28345,46946
21974,28278,46815
21896,28207,46679
21823,28137,46545
21752,28068,46417
21674,27994,46286
21588,27911,46146
21504,27827,46003
21429,27754,45869
21355,27687,45738
21276,27614,45601
21192,27535,45458
21109,27459,45319
21026,27387,45185
20940,27314,45048
20850,27239,44907
20757,27168,44763
20667,27098,44620
20582,27025,44478
20504,26956,44346
20433,26895,44227
20361,26833,44110
20286,26769,43987
20220,26713,43869
20166,26667,43761
20110,26618,43650
20046,26563,43532
19978,26504,43411
19908,26445,43292
19835,26382,43171
19763,26315,43050
19692,26252,42934
19623,26194,42824
19556,26135,42711
19489,26075,42594
19422,26021,42481
19352,25969,42370
19274,25907,42250
19192,25835,42120
19114,25768,41995
19038,25707,41879
18960,25643,41764
18888,25580,41657
18833,25535,41576
18804,25515,41533
18803,25516,41531
18834,25546,41579
18908,25614,41694
19028,25722,41881
19189,25861,42129
19388,26030,42439
19622,26233,42812
19883,26460,43231
20164,26704,43679
20466,26967,44154
20781,27246,44656
21090,27525,45162
21381,27791,45655
21659,28049,46136
21926,28299,46605
22170,28528,47052
22388,28730,47464
22587,28912,47841
22765,29077,48185
22917,29219,48485
23046,29335,48737
23155,29431,48949
23244,29508,49124
23315,29568,49262
23373,29613,49368
23421,29651,49453
23461,29684,49525
23487,29706,49576
23502,29713,49606
23511,29716,49626
23514,29721,49640
23507,29721,49642
23496,29714,49632
23484,29706,49620
23473,29699,49608
23459,29684,49590
23441,29660,49567
23423,29638,49544
23405,29620,49522
23387,29602,49496
23372,29584,49464
23353,29567,49430
23326,29545,49386
23290,29513,49323
23250,29475,49246
23205,29436,49168
23148,29389,49081
23078,29328,48974
23005,29263,48855
22932,29197,48731
22853,29128,48598
22768,29051,48455
22685,28975,48311
22608,28909,48176
22533,28847,48050
22465,28787,47932
22407,28734,47826
22354,28685,47732
22305,28637,47649
22265,28589,47575
22231,28550,47515
22201,28521,47473
22173,28500,47439
22151,28482,47409
22136,28471,47388
22127,28468,47374
22115,28463,47357
22100,28452,47334
22089,28445,47314
22081,28442,47298
22069,28435,47274
22052,28420,47239
22033,28405,47201
22015,28389,47161
21990,28367,47110
21960,28341,47051
21925,28315,46989
21882,28285,46922
21825,28241,46842
21764,28185,46749
21704,28127,46654
21644,28070,46556
21573,28007,46443
21496,27937,46317
21424,27870,46188
21354,27809,46064
21282,27744,45937
21208,27672,45802
21136,27600,45667
21065,27530,45534
20994,27458,45396
20925,27386,45256
20858,27319,45123
20782,27248,44990
20697,27166,44849
20614,27085,44709
20537,27014,44577
20456,26947,44445
20370,26878,44306
20287,26808,44166
20205,26740,44030
20118,26669,43895
20032,26595,43758
19953,26523,43619
19877,26456,43483
19800,26390,43349
19728,26324,43217
19661,26262,43092
19594,26204,42973
19521,26142,42851
19443,26074,42727
19370,26011,42613
19304,25956,42510
19238,25899,42404
19171,25838,42290
19108,25780,42178
19050,25730,42073
18987,25677,41968
18919,25619,41859
18854,25562,41752
18790,25509,41646
18726,25453,41532
18658,25392,41411
18588,25333,41294
18516,25277,41179
18444,25218,41061
18376,25160,40943
18310,25105,40830
18239,25047,40719
18164,24987,40607
18104,24936,40511
18070,24910,40452
18060,24907,40433
18081,24929,40461
18146,24990,40559
18259,25096,40736
18416,25242,40983
18613,25419,41289
18846,25622,41649
19105,25852,42060
19382,26101,42508
19673,26359,42980
19970,26623,43471
20266,26890,43974
20553,27150,44474
20830,27397,44954
21098,27633,45417
21350,27856,45859
21579,28058,46269
21786,28238,46642
21974,28403,46981
22139,28553,47284
22279,28682,47545
22397,28789,47766
22495,28878,47953
22571,28951,48104
22625,29003,48212
22659,29034,48284
22679,29052,48336
22689,29059,48373
22686,29054,48386
22680,29042,48381
22676,29033,48371
22668,29026,48359
22652,29010,48338
22631,28988,48305
22612,28967,48271
22597,28948,48240
22579,28921,48206
22555,28888,48165
22530,28861,48125
22509,28843,48091
22486,28823,48052
22459,28799,48006
22427,28775,47960
22391,28748,47905
22348,28711,47829
22301,28670,47741
22254,28626,47652
22193,28569,47551
22115,28498,47433
22036,28430,47311
21964,28371,47197
21889,28309,47077
21807,28238,46949
21731,28173,46826
21665,28120,46715
21604,28070,46614
21544,28018,46518
21494,27973,46436
21456,27941,46371
21426,27917,46318
21403,27898,46272
21384,27885,46239
21371,27879,46219
21361,27869,46199
21354,27859,46177
21351,27857,46167
21347,27862,46165
21336,27862,46159
21322,27856,46148
21311,27850,46139
21301,27843,46129
21281,27824,46102
21251,27794,46059
21223,27766,46016
21202,27745,45976
21180,27722,45927
21149,27690,45864
21114,27654,45797
21079,27616,45727
21039,27572,45645
20988,27523,45552
20930,27475,45459
20863,27422,45356
20786,27356,45240
20706,27287,45119
20632,27224,45003
20559,27161,44880
20481,27090,44744
20407,27020,44607
20339,26956,44478
20267,26890,44349
20187,26815,44210
20109,26740,44074
20037,26673,43950
19962,26605,43827
19882,26532,43698
19802,26460,43567
19723,26393,43440
19643,26326,43310
19564,26257,43175
19488,26189,43044
19413,26122,42916
19337,26056,42787
19263,25988,42659
19197,25923,42539
19133,25863,42426
19065,25801,42311
18996,25739,42197
18935,25683,42091
18876,25633,41987
18812,25582,41877
18747,25527,41764
18689,25478,41661
18636,25435,41565
18578,25387,41465
18513,25330,41359
18448,25276,41255
18387,25225,41155
18323,25168,41051
18255,25108,40943
18188,25055,40837
18124,25010,40736
18059,24962,40636
17993,24908,40537
17930,24859,40447
17873,24816,40367
17827,24781,40297
17802,24764,40253
17810,24777,40259
17853,24822,40321
17934,24896,40439
18063,25010,40628
18242,25168,40894
18453,25355,41218
18684,25558,41586
18939,25781,41998
19217,26023,42451
19501,26274,42930
19788,26527,43418
20074,26782,43912
20354,27037,44404
20624,27283,44879
20883,27515,45331
21127,27732,45764
21348,27930,46169
21539,28099,46529
21705,28242,46838
21856,28373,47115
21990,28496,47364
22102,28599,47573
22192,28679,47740
22268,28745,47877
22330,28798,47991
22372,28832,48074
22393,28848,48128
22404,28860,48165
22412,28869,48190
22415,28870,48200
22412,28865,48199
22407,28856,48197
22397,28844,48191
22383,28827,48178
22370,28812,48165
22362,28803,48157
22349,28793,48141
22330,28775,48110
22315,28759,48079
22307,28753,48057
22294,28744,48027
22271,28723,47980
22243,28697,47927
22213,28673,47873
22172,28641,47809
22120,28596,47727
22064,28545,47636
22007,28493,47539
21939,28435,47429
21861,28365,47309
21781,28293,47188
21704,28223,47074
21631,28154,46958
21566,28087,46839
21507,28028,46727
21453,27976,46628
21402,27929,46539
21356,27885,46458
21316,27852,46395
21280,27826,46348
21247,27800,46308
21222,27776,46271
21211,27763,46248
21209,27757,46232
21202,27747,46211
21191,27735,46188
21184,27731,46172
21178,27736,46164
21164,27736,46148
21143,27727,46126
21122,27714,46104
21104,27703,46078
21084,27687,46042
21057,27663,45995
21024,27637,45946
20984,27607,45893
20940,27571,45829
20897,27532,45756
20856,27494,45681
20813,27455,45598
20765,27409,45498
20710,27359,45389
20652,27310,45285
20587,27257,45176
20513,27193,45056
20437,27129,44937
20367,27069,44825
20296,27005,44710
20218,26933,44585
20139,26861,44460
20062,26794,44340
19982,26729,44218
19902,26658,44089
19827,26590,43961
19758,26525,43837
19686,26459,43711
19608,26389,43578
19535,26322,43446
19467,26257,43319
19400,26189,43193
19333,26117,43068
19267,26047,42947
19204,25983,42828
19142,25922,42711
19076,25860,42599
19009,25800,42493
18940,25745,42389
18872,25691,42282
18809,25637,42176
18749,25585,42076
18685,25533,41975
18617,25477,41870
18557,25425,41770
18505,25382,41678
18452,25340,41584
18395,25290,41479
18341,25239,41374
18288,25192,41276
18228,25143,41178
18160,25085,41073
18095,25026,40969
18036,24975,40875
17975,24925,40780
17910,24870,40678
17849,24819,40580
17794,24777,40494
17742,24741,40423
17700,24712,40372
17687,24704,40355
17711,24730,40387
17774,24788,40475
17877,24878,40626
18025,25005,40848
18211,25167,41138
18432,25358,41486
18679,25571,41880
18949,25806,42318
19236,26063,42792
19533,26327,43280
19831,26589,43774
20126,26852,44272
20415,27113,44769
20693,27367,45252
20959,27608,45714
21209,27838,46152
21437,28051,46561
21639,28238,46934
21819,28401,47271
21979,28547,47576
22114,28674,47842
22226,28778,48065
22322,28866,48254
22408,28944,48420
22475,29004,48554
22521,29042,48651
22558,29067,48724
22593,29094,48789
22621,29116,48844
22637,29127,48882
22650,29137,48908
22665,29150,48931
22674,29160,48951
22674,29163,48964
22670,29163,48974
22667,29163,48984
22665,29163,48991
22668,29161,48993
22674,29158,48995
22677,29157,48998
22677,29157,48998
22677,29153,48991
22675,29144,48977
22665,29128,48954
22639,29101,48914
22598,29061,48856
22546,29016,48784
22487,28969,48702
22421,28916,48606
22354,28858,48497
22284,28800,48383
22211,28743,48267
22132,28679,48140
22054,28612,48007
21989,28553,47883
21934,28504,47774
21883,28457,47676
21835,28410,47587
21791,28373,47513
21754,28346,47455
21724,28322,47406
21695,28297,47361
21667,28275,47326
21644,28257,47300
21623,28239,47275
21606,28223,47251
21590,28211,47233
21571,28201,47215
21549,28188,47189
21530,28175,47161
21514,28165,47136
21493,28152,47106
21465,28130,47065
21441,28106,47021
21423,28086,46981
21398,28059,46937
21362,28022,46881
21324,27980,46817
21280,27938,46747
21228,27895,46672
21172,27849,46589
21115,27800,46498
21058,27749,46402
20999,27692,46298
20940,27629,46184
20878,27564,46064
20809,27500,45944
20737,27432,45821
20663,27359,45694
20584,27289,45566
20501,27222,45438
20419,27152,45306
20339,27079,45169
20264,27011,45039
20193,26949,44915
20120,26885,44791
20046,26820,44661
19979,26759,44537
19915,26704,44422
19849,26645,44307
19779,26580,44187
19713,26517,44070
19651,26460,43957
19584,26401,43842
19514,26341,43725
19446,26284,43616
19383,26232,43513
19319,26178,43408
19254,26124,43301
19195,26074,43198
19137,26029,43095
19078,25983,42987
19021,25939,42882
18968,25899,42786
18917,25858,42690
18863,25811,42584
18806,25758,42480
18747,25707,42387
18682,25654,42294
18610,25594,42193
18540,25537,42089
18480,25488,41989
18421,25437,41885
18359,25377,41775
18302,25315,41668
18249,25261,41572
18195,25210,41480
18143,25164,41395
18101,25131,41329
18079,25118,41294
18084,25127,41303
18124,25163,41364
18203,25234,41486
18319,25344,41671
18470,25486,41914
18658,25657,42215
18883,25859,42583
19140,26092,43007
19413,26339,43465
19699,26593,43941
19994,26860,44434
20292,27131,44938
20585,27389,45438
20869,27633,45922
21144,27872,46392
21408,28102,46842
21651,28312,47259
21868,28498,47639
22063,28670,47985
22236,28828,48296
22386,28965,48567
22513,29077,48799
22616,29170,48998
22697,29246,49161
22759,29303,49284
22811,29349,49382
22859,29392,49468
22896,29425,49537
22921,29441,49583
22943,29452,49619
22967,29468,49657
22985,29484,49690
22996,29492,49714
23002,29499,49735
23006,29508,49755
23009,29518,49774
23012,29526,49791
23016,29534,49808
23016,29542,49824
23011,29543,49829
23000,29533,49821
22988,29517,49807
22976,29497,49790
22958,29469,49758
22933,29434,49709
22903,29398,49652
22864,29361,49588
22810,29316,49507
22744,29264,49408
22676,29211,49302
22609,29158,49192
22540,29100,49075
22471,29039,48955
22400,28980,48840
22331,28923,48729
22271,28865,48622
22220,28811,48525
22176,28769,48444
22133,28732,48372
22091,28693,48301
22055,28657,48236
22029,28632,48187
22003,28613,48148
21973,28592,48110
21946,28572,48074
21930,28558,48048
21920,28551,48028
21909,28543,48006
21895,28531,47981
21879,28518,47958
21861,28503,47934
21839,28483,47902
21814,28460,47867
21789,28439,47831
21763,28416,47788
21731,28385,47733
21698,28355,47677
21667,28330,47626
21628,28297,47563
21580,28251,47483
21529,28202,47398
21477,28160,47316
21421,28117,47228
21361,28064,47129
21299,28007,47024
21237,27952,46915
21169,27891,46796
21099,27824,46670
21031,27759,46546
20964,27695,46423
20894,27624,46292
20825,27548,46156
20758,27477,46029
20689,27413,45909
20613,27347,45786
20535,27281,45660
20466,27222,45545
20401,27168,45439
20332,27108,45325
20259,27042,45202
20191,26978,45085
20126,26919,44976
20057,26858,44863
19984,26796,44746
19913,26740,44633
19850,26687,44524
19791,26631,44413
19732,26575,44304
19674,26522,44207
19618,26472,44111
19563,26419,44005
19509,26369,43900
19455,26329,43805
19400,26290,43712
19341,26243,43613
19288,26194,43518
19242,26151,43431
19191,26104,43338
19131,26050,43236
19073,26000,43139
19021,25959,43054
18967,25918,42966
18907,25869,42870
18849,25820,42777
18793,25776,42690
18739,25731,42600
18684,25682,42501
18629,25632,42401
18576,25583,42305
18523,25532,42208
18471,25484,42113
18427,25449,42039
18394,25428,41996
18377,25419,41981
18391,25432,42005
18446,25483,42092
18541,25575,42246
18670,25700,42456
18837,25855,42721
19045,26045,43047
19289,26265,43429
19554,26498,43855
19830,26742,44313
20117,26997,44799
20412,27261,45298
20707,27519,45795
20995,27767,46282
21274,28010,46757
21537,28240,47209
21779,28449,47627
22005,28643,48018
22213,28825,48386
22393,28988,48714
22539,29123,48993
22665,29239,49229
22778,29342,49433
22870,29426,49602
22942,29488,49737
22996,29533,49845
23033,29570,49931
23058,29600,49994
23078,29623,50037
23098,29638,50066
23114,29651,50087
23124,29660,50097
23131,29665,50100
23136,29670,50108
23144,29679,50125
23150,29683,50141
23151,29680,50149
23151,29677,50160
23151,29680,50175
23149,29683,50184
23144,29679,50180
23135,29668,50165
23119,29647,50137
23097,29619,50095
23073,29586,50047
23043,29554,49997
23002,29519,49935
22947,29470,49848
22884,29410,49747
22822,29352,49647
22756,29297,49547
22681,29234,49431
22602,29166,49305
22529,29102,49183
22461,29044,49069
22395,28988,48960
22331,28931,48855
22276,28882,48764
22232,28842,48684
22197,28806,48609
22164,28771,48540
22133,28746,48487
22104,28727,48446
22076,28708,48408
22057,28693,48380
22047,28687,48368
22038,28681,48356
22021,28668,48335
22003,28654,48310
21987,28645,48286
21967,28632,48256
21940,28608,48217
21915,28586,48178
21895,28572,48140
21874,28556,48095
21847,28533,48039
21817,28505,47978
21784,28472,47913
21744,28433,47838
21700,28389,47753
21650,28345,47664
21595,28301,47571
21535,28247,47468
21471,28187,47357
21405,28128,47248
21334,28070,47133
21257,28002,47003
21178,27926,46866
21107,27856,46740
21039,27792,46620
20967,27725,46495
20891,27654,46363
20822,27590,46236
20758,27531,46117
20689,27469,45994
20611,27401,45863
20530,27335,45730
20453,27272,45598
20374,27207,45464
20295,27138,45327
20216,27069,45193
20141,27004,45065
20067,26938,44937
19992,26871,44812
19918,26805,44696
19846,26742,44582
19773,26679,44465
19700,26618,44349
19627,26562,44240
19553,26503,44130
19475,26437,44012
19401,26372,43897
19334,26313,43786
19266,26253,43670
19194,26189,43545
19126,26126,43424
19065,26067,43308
19002,26006,43193
18936,25942,43074
18870,25878,42959
18806,25818,42850
18738,25759,42740
18662,25697,42625
18585,25636,42510
18510,25580,42398
18436,25524,42285
18365,25468,42173
18295,25414,42063
18221,25356,41952
18144,25290,41835
18077,25225,41721
18025,25174,41623
17982,25136,41544
17949,25109,41487
17941,25105,41471
17973,25141,41519
18043,25214,41634
18149,25318,41810
18297,25451,42048
18487,25618,42349
18714,25818,42712
18966,26041,43123
19237,26277,43569
19521,26526,44045
19815,26786,44542
20116,27053,45047
20414,27320,45546
20700,27578,46030
20972,27822,46489
21227,28044,46917
21465,28249,47321
21681,28440,47700
21871,28610,48044
22034,28751,48340
22173,28871,48595
22288,28975,48813
22377,29056,48989
22443,29114,49124
22494,29160,49231
22534,29200,49316
22561,29229,49378
22575,29243,49416
22585,29251,49440
22595,29261,49459
22604,29266,49466
22607,29262,49461
22604,29256,49450
22594,29247,49437
22579,29234,49418
22566,29222,49398
22558,29214,49384
22550,29207,49373
22533,29195,49355
22513,29180,49330
22500,29171,49309
22485,29162,49285
22460,29139,49244
22423,29102,49184
22377,29056,49111
22323,29007,49029
22261,28951,48931
22190,28883,48817
22112,28811,48692
22030,28739,48561
21941,28662,48419
21850,28585,48277
21765,28516,48146
21686,28451,48020
21612,28385,47896
21550,28326,47783
21500,28279,47690
21456,28238,47607
21412,28199,47530
21379,28166,47466
21358,28143,47416
21338,28123,47370
21315,28101,47324
21297,28083,47284
21285,28071,47258
21273,28063,47239
21261,28057,47223
21251,28056,47211
21240,28055,47203
21224,28047,47185
21205,28033,47154
21188,28020,47120
21167,28006,47082
21134,27981,47031
21096,27945,46968
21064,27910,46910
21036,27878,46853
20998,27836,46782
20944,27782,46692
20884,27730,46597
20821,27684,46501
20751,27635,46397
20676,27577,46284
20605,27518,46170
20537,27460,46055
20469,27396,45931
20400,27325,45803
20327,27254,45678
20251,27182,45553
20172,27105,45417
20096,27029,45281
20022,26961,45153
19942,26892,45024
19852,26816,44885
19768,26743,44748
19695,26679,44620
19620,26615,44491
19539,26544,44355
19463,26475,44221
19395,26413,44095
19327,26347,43973
19258,26276,43849
19185,26203,43726
19109,26133,43606
19033,26065,43485
18959,26001,43362
18889,25941,43244
18818,25887,43133
18741,25828,43015
18663,25762,42887
18591,25699,42765
18522,25643,42654
18451,25586,42543
18381,25524,42428
18321,25467,42319
18268,25414,42218
18210,25359,42115
18145,25302,42004
18080,25246,41893
18016,25192,41785
17954,25138,41676
17895,25085,41569
17836,25038,41470
17774,24992,41370
17708,24941,41262
17643,24889,41156
17580,24839,41056
17511,24788,40957
17442,24733,40855
17388,24687,40770
17363,24664,40723
17368,24666,40720
17402,24693,40765
17473,24752,40869
17587,24853,41042
17745,24996,41284
17944,25172,41590
18178,25377,41955
18442,25608,42370
18726,25857,42827
19025,26121,43314
19334,26394,43826
19643,26671,44351
19945,26944,44872
20241,27204,45372
20527,27454,45851
20796,27690,46306
21042,27905,46725
21266,28096,47102
21470,28269,47444
21650,28425,47752
21795,28552,48014
21908,28650,48228
21999,28732,48407
22073,28806,48556
22133,28867,48672
22179,28911,48753
22214,28946,48811
22237,28974,48853
22249,28988,48877
22256,28989,48890
22259,28984,48898
22256,28975,48896
22247,28959,48876
22236,28941,48850
22228,28928,48829
22218,28916,48809
22207,28903,48783
22197,28892,48758
22188,28886,48741
22173,28878,48723
22150,28860,48695
22128,28838,48665
22108,28820,48639
22078,28794,48600
22034,28756,48539
21984,28714,48463
21930,28671,48376
21865,28619,48273
21790,28555,48151
21714,28485,48019
21638,28416,47882
21559,28344,47744
21479,28268,47609
21402,28194,47484
21325,28127,47369
21252,28067,47259
21189,28012,47154
21136,27964,47063
21090,27924,46985
21049,27889,46916
21014,27855,46855
20989,27831,46813
20977,27821,46790
20971,27817,46774
20965,27814,46759
20961,27818,46749
20960,27824,46743
20958,27824,46732
20953,27819,46714
20951,27816,46698
20950,27814,46683
20941,27800,46657
20921,27776,46620
20893,27749,46578
20858,27723,46530
20816,27691,46469
20769,27652,46399
20718,27614,46328
20661,27572,46247
20596,27520,46146
20535,27468,46038
20478,27419,45935
20416,27365,45829
20346,27299,45711
20277,27232,45589
20216,27173,45470
20153,27113,45346
20085,27046,45214
20017,26980,45083
19950,26916,44961
19880,26851,44838
19805,26780,44709
19728,26705,44575
19647,26629,44442
19563,26552,44307
19479,26473,44168
19401,26399,44032
19324,26332,43900
19246,26265,43763
19167,26198,43625
19090,26135,43496
19012,26072,43375
18928,26005,43252
18840,25930,43125
18758,25860,43006
18684,25799,42899
18610,25738,42791
18533,25676,42678
18460,25614,42566
18395,25556,42458
18332,25499,42349
18272,25445,42236
18214,25395,42124
18151,25344,42008
18083,25288,41885
18021,25236,41766
17967,25190,41662
17912,25144,41565
17852,25090,41461
17791,25034,41355
17734,24981,41254
17670,24923,41154
17597,24860,41050
17525,24799,40951
17464,24750,40865
17417,24715,40800
17392,24700,40765
17401,24712,40773
17449,24758,40840
17538,24839,40974
17671,24955,41173
17847,25105,41440
18061,25290,41773
18308,25504,42163
18583,25741,42599
18878,25999,43068
19182,26272,43565
19487,26547,44073
19795,26816,44578
20103,27083,45081
20402,27345,45576
20682,27591,46048
20944,27816,46487
21190,28027,46895
21416,28223,47270
21607,28390,47599
21762,28526,47879
21893,28641,48120
22007,28744,48326
22100,28827,48492
22173,28890,48619
22231,28937,48720
22275,28973,48799
22301,28991,48850
22312,28998,48882
22316,29003,48906
22316,29008,48922
22313,29008,48920
22303,29003,48905
22292,28998,48892
22281,28993,48884
22271,28983,48875
22264,28972,48864
22262,28966,48857
22256,28959,48844
22242,28942,48818
22225,28921,48789
22208,28905,48764
22183,28885,48729
22146,28852,48674
22102,28810,48607
22054,28767,48536
21993,28712,48447
21915,28640,48330
21832,28564,48198
21753,28493,48066
21669,28417,47928
21578,28332,47780
21490,28248,47634
21410,28175,47501
21333,28110,47375
21256,28046,47253
21186,27988,47141
21125,27942,47043
21074,27904,46955
21033,27871,46877
20998,27842,46811
20969,27817,46756
20946,27792,46706
20931,27770,46665
20924,27756,46637
20918,27748,46615
20907,27736,46587
20895,27722,46557
20885,27715,46538
20871,27711,46526
20848,27700,46507
20826,27685,46478
20809,27670,46449
20786,27648,46414
20751,27613,46364
20711,27570,46303
20672,27529,46239
20633,27492,46171
20589,27448,46090
20534,27394,45992
20473,27340,45883
20410,27287,45769
20343,27230,45651
20268,27170,45530
20188,27112,45414
20110,27052,45294
20032,26984,45165
19951,26912,45035
19871,26843,44909
19790,26771,44777
19708,26690,44636
19631,26611,44496
19558,26537,44364
19482,26463,44228
19399,26387,44087
19319,26313,43947
19243,26247,43813
19166,26185,43680
19086,26119,43544
19004,26053,43408
18923,25988,43274
18840,25920,43142
18762,25852,43012
18688,25789,42891
18614,25727,42774
18536,25660,42650
18458,25590,42523
18386,25524,42404
18314,25462,42291
18242,25398,42175
18172,25336,42059
18108,25283,41951
18042,25234,41845
17970,25177,41730
17900,25113,41609
17837,25053,41489
17774,24996,41369
17705,24934,41244
17631,24870,41117
17559,24808,40995
17490,24748,40881
17417,24684,40767
17341,24618,40650
17264,24555,40535
17192,24498,40430
17132,24449,40337
17088,24413,40265
17068,24401,40232
17085,24418,40252
17151,24471,40337
17264,24563,40496
17423,24698,40735
17628,24874,41048
17876,25084,41427
18160,25325,41865
18470,25595,42353
18797,25879,42870
19134,26171,43405
19476,26468,43954
19813,26764,44506
20136,27050,45044
20445,27321,45561
20744,27585,46062
21033,27843,46543
21297,28081,46986
21535,28290,47387
21751,28474,47753
21945,28638,48082
22114,28776,48363
22257,28890,48597
22378,28988,48796
22479,29073,48965
22558,29141,49096
22622,29195,49202
22679,29244,49295
22727,29287,49374
22766,29320,49433
22800,29345,49481
22834,29367,49527
22860,29383,49566
22881,29390,49591
22909,29398,49616
22944,29416,49655
22974,29436,49695
22994,29449,49722
23017,29465,49747
23046,29487,49778
23071,29508,49807
23089,29523,49830
23107,29536,49850
23120,29550,49867
23124,29559,49874
23119,29558,49863
23105,29546,49835
23082,29524,49793
23046,29489,49733
22999,29440,49652
22946,29389,49563
22889,29336,49470
22824,29276,49365
22755,29210,49246
22694,29150,49129
22649,29103,49026
22613,29065,48933
22583,29033,48852
22559,29010,48792
22540,28994,48748
22524,28980,48709
22516,28969,48677
22516,28967,48660
22519,28969,48655
22525,28971,48650
22536,28978,48651
22553,28993,48667
22568,29008,48687
22581,29015,48700
22594,29023,48711
22610,29038,48727
22622,29049,48742
22626,29047,48746
22623,29036,48738
22618,29025,48725
22607,29013,48706
22585,28987,48671
22552,28951,48619
22513,28912,48553
22469,28871,48480
22420,28828,48398
22367,28782,48309
22306,28734,48218
22242,28680,48121
22174,28619,48011
22104,28556,47898
22031,28497,47789
21950,28433,47673
21862,28359,47546
21776,28282,47415
21694,28211,47286
21608,28140,47152
21522,28066,47012
21444,27994,46876
21374,27928,46747
21302,27861,46616
21226,27790,46477
21148,27719,46340
21072,27651,46206
20996,27581,46072
20915,27509,45939
20830,27441,45812
20745,27377,45690
20660,27310,45566
20580,27240,45444
20504,27174,45329
20428,27106,45212
20352,27035,45087
20282,26967,44963
20220,26909,44852
20157,26851,44746
20087,26786,44633
20019,26721,44522
19962,26668,44422
19908,26622,44325
19847,26570,44219
19782,26515,44106
19717,26463,43997
19652,26414,43892
19587,26364,43785
19518,26310,43674
19447,26252,43558
19376,26193,43441
19308,26130,43319
19242,26066,43203
19179,26007,43097
19114,25949,42991
19049,25891,42882
18994,25846,42788
18959,25824,42726
18942,25819,42700
18950,25834,42717
18997,25883,42796
19091,25973,42948
19227,26097,43168
19401,26252,43451
19620,26445,43803
19879,26678,44222
20165,26936,44693
20473,27211,45200
20800,27500,45738
21137,27800,46298
21476,28099,46863
21819,28394,47426
22156,28686,47984
22473,28967,48523
22763,29224,49023
23027,29458,49481
23269,29675,49904
23484,29868,50290
23668,30026,50620
23821,30153,50896
23949,30260,51132
24057,30356,51333
24142,30434,51497
24205,30493,51624
24252,30539,51723
24288,30574,51800
24315,30595,51852
24332,30605,51886
24344,30614,51913
24351,30623,51931
24351,30623,51932
24350,30620,51926
24352,30622,51927
24350,30620,51929
24338,30608,51921
24328,30597,51911
24326,30594,51906
24318,30586,51893
24298,30564,51865
24278,30537,51833
24258,30514,51801
24227,30483,51761
24182,30442,51704
24127,30397,51633
24062,30346,51550
23989,30284,51448
23911,30212,51329
23832,30134,51203
23751,30055,51071
23662,29972,50924
23569,29886,50766
23480,29807,50618
23395,29736,50484
23310,29667,50354
23234,29604,50232
23172,29557,50127
23119,29521,50037
23065,29483,49952
23014,29443,49870
22975,29409,49803
22950,29386,49752
22929,29363,49708
22906,29340,49664
22881,29321,49626
22860,29310,49594
22842,29299,49561
22821,29286,49527
22800,29277,49497
22784,29270,49467
22769,29254,49427
22751,29233,49383
22736,29214,49346
22710,29188,49302
22666,29146,49234
22617,29096,49155
22570,29049,49074
22518,29000,48985
22459,28945,48889
22400,28889,48790
22339,28836,48690
22274,28782,48584
22209,28726,48470
22145,28668,48355
22078,28610,48236
22003,28543,48106
21923,28471,47964
21840,28399,47823
21754,28328,47684
21664,28252,47538
21574,28171,47383
21487,28091,47233
21399,28013,47091
21302,27929,46948
21202,27837,46797
21110,27752,46651
21025,27674,46513
20938,27594,46370
20849,27511,46219
20760,27433,46072
20674,27361,45933
20589,27287,45794
20504,27211,45653
20419,27136,45513
20330,27061,45371
20240,26981,45221
20157,26900,45075
20084,26829,44944
20007,26757,44817
19922,26680,44685
19843,26609,44551
19774,26547,44424
19705,26489,44300
19630,26430,44175
19553,26371,44052
19478,26316,43935
19404,26261,43822
19333,26203,43710
19266,26146,43601
19199,26094,43496
19131,26041,43389
19066,25985,43278
19004,25931,43169
18944,25880,43064
18882,25824,42955
18814,25760,42839
18750,25700,42729
18692,25651,42630
18636,25602,42534
18580,25553,42441
18534,25516,42365
18506,25499,42319
18500,25502,42310
18527,25530,42352
18595,25592,42463
18708,25695,42647
18868,25840,42901
19076,26025,43227
19327,26248,43624
19610,26497,44078
19916,26762,44569
20243,27044,45096
20587,27347,45656
20936,27659,46232
21282,27966,46802
21624,28265,47359
21954,28557,47902
22260,28830,48417
22533,29074,48889
22775,29292,49316
22993,29490,49704
23188,29667,50049
23355,29815,50346
23490,29935,50596
23599,30032,50809
23694,30112,50985
23773,30175,51123
23832,30221,51226
23872,30255,51304
23900,30277,51360
23921,30291,51394
23939,30307,51424
23956,30328,51455
23965,30341,51471
23968,30342,51471
23971,30341,51471
23979,30343,51477
23983,30339,51479
23978,30326,51472
23967,30311,51463
23953,30297,51453
23935,30281,51440
23915,30263,51419
23893,30245,51396
23868,30227,51366
23831,30199,51317
23787,30160,51251
23743,30115,51178
23693,30066,51094
23630,30005,50986
23556,29933,50858
23481,29861,50727
23406,29791,50597
23324,29719,50459
23233,29643,50315
23138,29568,50177
23049,29497,50047
22969,29430,49919
22900,29368,49799
22842,29314,49697
22787,29266,49604
22736,29217,49514
22698,29176,49440
22677,29152,49393
22660,29135,49362
22644,29119,49338
22634,29108,49321
22626,29105,49311
22618,29108,49302
22612,29110,49294
22605,29110,49287
22595,29108,49278
22581,29098,49259
22566,29080,49224
22556,29064,49186
22545,29053,49151
22527,29035,49108
22499,29006,49051
22470,28977,48991
22442,28951,48933
22408,28916,48864
22361,28868,48779
22306,28811,48685
22246,28753,48587
22183,28694,48484
22121,28634,48375
22057,28576,48265
21984,28518,48149
21899,28453,48021
21812,28385,47885
21733,28322,47757
21661,28263,47638
21584,28197,47512
21502,28123,47379
21428,28055,47252
21367,27997,47132
21311,27937,47007
21249,27872,46875
21182,27809,46748
21112,27749,46625
21038,27687,46501
20963,27623,46376
20891,27563,46258
20816,27498,46134
20731,27423,45997
20648,27347,45861
20571,27277,45736
20490,27204,45610
20405,27126,45475
20321,27049,45336
20240,26976,45199
20158,26902,45061
20070,26821,44922
19975,26736,44784
19875,26652,44645
19774,26571,44505
19684,26493,44368
19605,26424,44238
19532,26361,44118
19456,26301,43997
19380,26239,43873
19312,26184,43756
19251,26134,43649
19191,26081,43542
19129,26023,43430
19063,25965,43318
18993,25906,43205
18922,25844,43089
18853,25782,42974
18787,25724,42865
18719,25668,42758
18646,25608,42645
18572,25547,42531
18511,25497,42431
18464,25462,42358
18431,25439,42313
18423,25440,42312
18463,25483,42382
18558,25571,42531
18704,25699,42752
18894,25865,43038
19122,26069,43392
19384,26306,43808
19671,26562,44268
19976,26832,44761
20293,27114,45282
20609,27395,45807
20917,27662,46317
21219,27921,46818
21513,28175,47309
21784,28414,47775
22026,28631,48201
22247,28829,48589
22449,29008,48938
22625,29166,49244
22774,29299,49504
22898,29412,49722
22997,29507,49902
23075,29579,50043
23134,29627,50146
23181,29662,50226
23216,29690,50293
23235,29704,50339
23240,29705,50362
23243,29703,50370
23241,29701,50371
23232,29690,50359
23216,29671,50331
23195,29651,50298
23172,29631,50261
23149,29610,50219
23129,29589,50180
23112,29572,50148
23094,29558,50117
23076,29541,50076
23060,29522,50033
23047,29505,49999
23030,29485,49966
23005,29454,49918
22968,29410,49852
22925,29363,49776
22875,29314,49691
22813,29255,49587
22737,29185,49465
22653,29113,49335
22565,29039,49198
22474,28961,49051
22379,28882,48898
22287,28809,48752
22198,28740,48614
22112,28670,48481
22035,28608,48366
21972,28560,48273
21916,28518,48188
21868,28476,48105
21839,28444,48037
21827,28430,47992
21818,28423,47961
21806,28413,47935
21801,28405,47920
21804,28405,47922
21810,28406,47929
21818,28405,47935
21828,28406,47939
21829,28408,47940
21821,28403,47928
21808,28391,47901
21794,28377,47871
21770,28360,47835
21733,28330,47780
21686,28290,47710
21639,28253,47641
21596,28220,47578
21546,28177,47500
21483,28119,47402
21412,28055,47296
21342,27992,47189
21270,27925,47073
21195,27852,46944
21119,27781,46811
21043,27712,46674
20965,27639,46531
20886,27562,46386
20804,27486,46248
20714,27408,46107
20622,27323,45955
20534,27239,45801
20450,27165,45657
20360,27093,45509
20259,27012,45354
20163,26933,45202
20079,26861,45059
19994,26788,44916
19899,26708,44763
19804,26628,44607
19712,26553,44457
19621,26476,44311
19532,26397,44165
19445,26321,44024
19354,26245,43886
19258,26164,43745
19162,26083,43599
19066,26005,43455
18973,25933,43316
18881,25859,43175
18794,25781,43029
18716,25708,42892
18644,25642,42768
18572,25576,42644
18501,25507,42518
18435,25446,42398
18374,25392,42287
18314,25339,42177
18253,25284,42067
18190,25232,41960
18126,25179,41851
18058,25118,41738
17990,25054,41625
17923,24994,41517
17853,24934,41403
17779,24867,41279
17708,24803,41152
17642,24745,41036
17573,24687,40927
17501,24623,40818
17437,24565,40718
17391,24527,40642
17368,24513,40603
17376,24525,40612
17427,24571,40689
17531,24667,40850
17690,24813,41098
17902,25000,41422
18154,25222,41814
18437,25477,42267
18746,25755,42763
19079,26045,43286
19429,26349,43831
19786,26665,44392
20135,26979,44953
20466,27278,45497
20787,27562,46027
21098,27833,46537
21383,28079,47010
21633,28291,47435
21856,28478,47817
22054,28646,48159
22222,28790,48455
22364,28912,48704
22485,29014,48909
22583,29098,49074
22656,29160,49195
22704,29197,49276
22732,29216,49325
22745,29220,49351
22749,29213,49357
22752,29203,49354
22750,29194,49348
22738,29183,49330
22716,29165,49300
22696,29144,49268
22683,29132,49244
22671,29124,49223
22651,29108,49197
22631,29088,49165
22618,29070,49138
22611,29058,49116
22601,29044,49090
22585,29027,49056
22562,29010,49016
22532,28989,48969
22494,28957,48906
22448,28917,48827
22398,28872,48739
22337,28817,48634
22260,28747,48505
22180,28672,48369
22108,28604,48240
22033,28534,48110
21951,28458,47973
21870,28382,47839
21794,28315,47719
21720,28257,47610
21655,28207,47510
21602,28164,47427
21562,28131,47359
21528,28103,47296
21500,28078,47239
21479,28059,47199
21466,28050,47180
21454,28042,47166
21441,28034,47153
21431,28030,47142
21427,28030,47135
21424,28025,47122
21420,28015,47105
21415,28007,47089
21406,28000,47070
21387,27987,47041
21366,27971,47005
21348,27955,46969
21326,27937,46932
21292,27910,46882
21250,27875,46821
21211,27840,46759
21172,27806,46695
21125,27765,46615
21068,27712,46517
21008,27655,46411
20947,27598,46303
20880,27537,46186
20804,27470,46060
20727,27403,45934
20650,27336,45806
20569,27260,45667
20485,27180,45521
20402,27103,45377
20314,27023,45230
20218,26933,45075
20124,26845,44925
20039,26768,44788
19952,26692,44650
19858,26610,44503
19768,26533,44357
19685,26465,44222
19606,26396,44092
19528,26325,43961
19453,26256,43832
19378,26191,43706
19301,26127,43577
19224,26063,43446
19156,26006,43326
19090,25956,43214
19018,25901,43098
18940,25833,42975
18867,25764,42855
18798,25698,42740
18725,25632,42624
18648,25562,42503
18570,25494,42383
18494,25429,42264
18419,25364,42146
18348,25301,42031
18277,25243,41917
18199,25184,41798
18114,25119,41669
18035,25053,41540
17963,24993,41419
17890,24934,41300
17810,24870,41175
17733,24807,41056
17671,24758,40957
17629,24727,40891
17615,24716,40865
17636,24735,40895
17703,24794,40995
17822,24898,41172
17994,25044,41428
18213,25235,41763
18475,25468,42172
18769,25732,42633
19085,26011,43125
19423,26306,43649
19771,26612,44200
20115,26911,44756
20446,27196,45298
20768,27473,45827
21080,27742,46334
21372,27994,46810
21641,28223,47248
21886,28431,47649
22103,28617,48013
22289,28776,48331
22449,28912,48604
22591,29032,48841
22713,29134,49039
22803,29208,49187
22868,29256,49293
22919,29294,49379
22958,29329,49447
22982,29358,49491
22993,29377,49515
22994,29390,49526
22989,29397,49528
22981,29396,49518
22975,29388,49500
22968,29375,49479
22949,29357,49450
22920,29329,49412
22895,29298,49374
22879,29274,49346
22863,29255,49320
22838,29229,49286
22810,29198,49243
22784,29169,49193
22757,29140,49136
22725,29101,49067
22678,29053,48987
22613,29000,48899
22537,28942,48795
22454,28876,48675
22370,28804,48550
22289,28730,48426
22207,28653,48295
22125,28574,48157
22047,28498,48026
21974,28435,47910
21905,28377,47798
21843,28320,47690
21791,28270,47592
21745,28229,47507
21703,28191,47433
21664,28151,47365
21633,28117,47313
21611,28095,47284
21593,28080,47265
21580,28068,47245
21573,28061,47231
21568,28057,47223
21559,28050,47210
21551,28040,47194
21546,28034,47185
21537,28031,47181
21516,28020,47164
21485,27998,47130
21455,27975,47089
21429,27952,47045
21397,27919,46985
21353,27873,46908
21302,27826,46827
21250,27782,46744
21192,27735,46650
21127,27681,46549
21057,27628,46448
20986,27572,46342
20916,27510,46224
20847,27447,46102
20780,27391,45985
20706,27335,45862
20619,27266,45723
20528,27191,45582
20444,27121,45446
20358,27047,45309
20267,26966,45166
20182,26885,45027
20103,26810,44896
20025,26736,44764
19949,26662,44627
19874,26587,44487
19795,26511,44345
19712,26433,44198
19626,26349,44046
19540,26271,43903
19456,26202,43773
19369,26136,43645
19282,26067,43515
19204,26002,43391
19131,25940,43274
19057,25873,43152
18982,25802,43023
18909,25733,42894
18833,25668,42765
18754,25604,42632
18673,25537,42499
18590,25472,42374
18506,25406,42252
18420,25333,42126
18340,25261,41997
18267,25200,41876
18193,25144,41757
18113,25080,41633
18034,25013,41510
17961,24953,41396
17893,24899,41292
17830,24848,41192
17772,24799,41099
17728,24763,41031
17711,24751,41000
17735,24771,41020
17812,24834,41117
17946,24948,41302
18128,25106,41567
18348,25297,41899
18611,25527,42302
18911,25796,42771
19233,26089,43282
19568,26390,43820
19916,26696,44377
20268,27006,44945
20614,27306,45509
20949,27593,46055
21272,27868,46578
21576,28129,47072
21858,28366,47527
22113,28579,47942
22344,28774,48325
22552,28952,48674
22730,29103,48975
22874,29225,49224
22992,29328,49434
23086,29415,49608
23159,29481,49743
23211,29529,49842
23248,29566,49918
23279,29596,49978
23307,29618,50021
23332,29635,50050
23350,29654,50073
23357,29671,50088
23355,29674,50090
23352,29671,50093
23354,29673,50104
23355,29676,50116
23349,29669,50121
23338,29654,50115
23325,29639,50110
23317,29631,50107
23313,29624,50100
23310,29617,50089
23303,29612,50079
23286,29601,50058
23260,29573,50018
23230,29538,49966
23197,29502,49904
23148,29454,49819
23080,29387,49705
23006,29311,49575
22932,29236,49444
22851,29158,49307
22763,29078,49162
22679,29003,49020
22597,28934,48889
22516,28868,48766
22440,28806,48652
22373,28751,48554
22314,28706,48471
22262,28665,48394
22220,28630,48320
22192,28607,48261
22176,28594,48221
22161,28584,48189
22151,28574,48161
22151,28567,48141
22152,28563,48131
22146,28555,48120
22135,28539,48103
22120,28523,48087
22100,28508,48067
22077,28491,48039
22056,28473,48009
22037,28462,47985
22013,28447,47953
21982,28420,47901
21949,28387,47840
21915,28355,47779
21874,28321,47712
21825,28276,47634
21778,28229,47550
21736,28186,47466
21691,28145,47379
21642,28095,47280
21583,28038,47168
21516,27979,47051
21444,27918,46929
21368,27849,46801
21286,27776,46671
21202,27707,46545
21114,27634,46412
21026,27554,46268
20942,27475,46125
20864,27404,45990
20782,27331,45852
20691,27251,45709
20600,27167,45571
20511,27086,45441
20421,27005,45314
20333,26925,45186
20251,26854,45060
20176,26794,44942
20103,26736,44822
20033,26680,44699
19964,26627,44581
19894,26578,44472
19822,26524,44358
19753,26467,44239
19694,26416,44124
19636,26367,44011
19568,26309,43889
19494,26244,43761
19425,26185,43644
19362,26130,43540
19294,26068,43431
19216,25997,43313
19137,25925,43195
19061,25856,43084
18989,25790,42972
18920,25726,42859
18852,25669,42752
18783,25613,42644
18713,25556,42533
18652,25505,42433
18607,25469,42358
18575,25442,42306
18559,25428,42281
18583,25447,42311
18660,25512,42418
18783,25621,42598
18952,25768,42849
19171,25953,43172
19431,26177,43563
19725,26433,44012
20043,26712,44504
20376,27004,45028
20715,27306,45575
21051,27608,46128
21382,27903,46672
21708,28191,47209
22021,28470,47735
22309,28726,48233
22570,28955,48690
22813,29164,49112
23035,29359,49497
23228,29531,49839
23393,29680,50136
23538,29811,50395
23662,29920,50616
23763,30006,50798
23845,30073,50946
23914,30130,51067
23968,30174,51159
24006,30205,51221
24034,30229,51265
24057,30253,51307
24070,30271,51343
24070,30273,51365
24067,30267,51376
24066,30266,51389
24067,30269,51404
24066,30270,51414
24064,30268,51419
24064,30270,51426
24070,30274,51433
24076,30271,51433
24078,30259,51427
24072,30248,51418
24056,30236,51397
24031,30215,51355
24003,30186,51299
23973,30157,51239
23931,30121,51168
23868,30070,51077
23795,30012,50977
23724,29953,50874
23647,29887,50757
23558,29810,50624
23468,29731,50489
23384,29657,50359
23305,29584,50230
23235,29512,50102
23176,29446,49987
23124,29390,49887
23077,29342,49794
23037,29301,49712
23008,29273,49647
22985,29255,49598
22961,29239,49554
22936,29223,49510
22916,29213,49477
22902,29208,49453
22892,29203,49432
22884,29195,49409
22874,29192,49390
22860,29186,49368
22841,29170,49336
22822,29146,49297
22805,29122,49260
22784,29096,49217
22750,29057,49159
22708,29009,49090
22661,28961,49019
22611,28916,48946
22560,28868,48865
22504,28818,48781
22444,28771,48697
22381,28725,48606
22316,28673,48499
22249,28618,48387
22181,28566,48280
22110,28510,48168
22036,28447,48044
21963,28385,47918
21894,28330,47799
21820,28273,47678
21737,28206,47548
21653,28131,47415
21568,28053,47283
21483,27971,47149
21404,27890,47012
21331,27814,46877
21256,27743,46746
21174,27669,46609
21087,27592,46463
21005,27518,46322
20927,27450,46193
20847,27383,46066
20767,27314,45936
20691,27248,45811
20618,27185,45691
20547,27124,45569
20480,27063,45445
20415,27002,45324
20345,26939,45202
20272,26873,45078
20205,26810,44959
20144,26755,44851
20082,26702,44747
20012,26640,44633
19939,26576,44515
19869,26520,44404
19800,26468,44296
19726,26407,44181
19647,26336,44056
19565,26266,43929
19486,26198,43803
19410,26127,43674
19333,26056,43546
19260,25995,43428
19193,25941,43320
19138,25892,43224
19110,25862,43163
19115,25866,43157
19154,25900,43205
19229,25963,43310
19356,26070,43490
19539,26229,43755
19762,26427,44095
20016,26656,44498
20302,26916,44958
20613,27204,45467
20940,27504,46004
21276,27806,46553
21616,28108,47115
21955,28408,47679
22281,28693,48228
22593,28961,48747
22887,29215,49240
23156,29452,49700
23394,29662,50114
23609,29845,50481
23804,30010,50812
23973,30156,51104
24109,30274,51345
24218,30368,51541
24312,30450,51709
24394,30524,51853
24456,30579,51966
24499,30619,52048
24529,30649,52112
24552,30675,52164
24567,30694,52201
24575,30704,52224
24581,30712,52241
24586,30719,52253
24591,30718,52256
24598,30716,52260
24608,30722,52276
24613,30724,52290
24611,30711,52286
24608,30697,52278
24606,30692,52274
24596,30686,52264
24578,30670,52240
24558,30649,52209
24537,30625,52173
24509,30595,52122
24470,30557,52052
24421,30512,51969
24361,30460,51879
24288,30399,51774
24211,30328,51653
24130,30254,51522
24042,30177,51385
23952,30097,51240
23865,30018,51096
23787,29950,50967
23720,29892,50855
23654,29835,50747
23589,29779,50643
23535,29731,50555
23492,29697,50487
23457,29663,50425
23429,29628,50364
23412,29603,50315
23403,29589,50281
23393,29577,50253
23385,29566,50228
23381,29561,50215
23377,29558,50206
23369,29550,50186
23358,29538,50157
23349,29528,50127
23336,29517,50095
23317,29503,50053
23296,29486,50008
23271,29467,49965
23232,29438,49909
23180,29392,49831
23126,29339,49747
23076,29291,49668
23022,29240,49583
22963,29180,49485
22905,29120,49382
22847,29064,49279
22781,29005,49168
22705,28936,49042
22627,28867,48911
22549,28806,48781
22466,28741,48648
22379,28669,48508
22289,28601,48366
22198,28538,48229
22110,28471,48090
22025,28397,47947
21945,28324,47810
21872,28255,47679
21802,28184,47544
21732,28111,47403
21656,28035,47261
21574,27955,47120
21489,27869,46976
21404,27784,46834
21325,27708,46705
21246,27637,46581
21162,27563,46449
21081,27489,46313
21006,27422,46181
20928,27358,46051
20847,27291,45917
20771,27227,45787
20702,27171,45668
20632,27115,45552
20557,27049,45429
20482,26980,45304
20414,26918,45189
20348,26859,45080
20279,26795,44967
20212,26729,44848
20148,26669,44729
20081,26610,44609
20007,26545,44484
19931,26476,44357
19856,26409,44233
19781,26343,44111
19710,26276,43990
19644,26211,43871
19580,26151,43757
19519,26099,43653
19473,26059,43566
19447,26041,43515
19450,26054,43518
19490,26096,43579
19576,26172,43703
19711,26290,43907
19894,26454,44196
20121,26653,44558
20383,26882,44980
20678,27142,45455
20996,27432,45977
21322,27734,46522
21652,28037,47074
21991,28345,47634
22333,28655,48193
22662,28953,48732
22972,29229,49241
23260,29483,49721
23520,29716,50168
23750,29925,50570
23958,30112,50928
24144,30281,51247
24303,30430,51524
24436,30553,51753
24548,30650,51938
24639,30726,52093
24708,30785,52217
24757,30827,52309
24799,30858,52379
24834,30883,52439
24854,30897,52480
24858,30896,52499
24860,30890,52509
24867,30891,52525
24871,30892,52537
24868,30886,52536
24868,30881,52533
24872,30879,52536
24873,30874,52540
24867,30863,52539
24861,30852,52535
24856,30842,52530
24847,30828,52515
24834,30810,52487
24820,30796,52450
24804,30783,52406
24779,30762,52348
24744,30729,52272
24700,30686,52185
24642,30632,52086
24570,30567,51970
24492,30495,51842
24419,30426,51721
24351,30364,51606
24284,30304,51489
24216,30240,51370
24147,30178,51259
24082,30120,51161
24023,30061,51067
23969,30004,50980
23923,29956,50906
23883,29917,50845
23851,29884,50790
23827,29858,50742
23807,29843,50709
23788,29834,50686
23772,29823,50663
23759,29811,50642
23747,29801,50626
23728,29791,50610
23705,29775,50585
23686,29764,50556
23671,29759,50530
23649,29749,50499
23614,29724,50454
23577,29694,50398
23544,29664,50334
23506,29627,50262
23463,29581,50178
23413,29529,50088
23359,29476,49995
23303,29423,49898
23249,29372,49796
23195,29323,49690
23136,29271,49581
23069,29210,49462
22991,29138,49330
22913,29063,49196
22839,28989,49066
22761,28911,48934
22677,28828,48793
22593,28749,48649
22512,28675,48511
22430,28602,48374
22347,28527,48235
22267,28455,48097
22191,28386,47960
22116,28312,47816
22037,28237,47668
21957,28165,47526
21875,28093,47390
21788,28014,47250
21703,27934,47109
21622,27860,46975
21541,27786,46846
21457,27705,46711
21377,27626,46574
21307,27559,46447
21237,27498,46326
21160,27435,46204
21081,27372,46078
21013,27317,45957
20954,27267,45844
20896,27212,45730
20831,27150,45614
20762,27088,45501
20695,27029,45392
20632,26969,45279
20570,26909,45167
20509,26853,45061
20447,26800,44955
20379,26741,44840
20312,26682,44723
20249,26630,44612
20178,26574,44501
20096,26511,44382
20018,26449,44266
19951,26391,44157
19886,26335,44049
19825,26280,43941
19770,26233,43847
19729,26202,43777
19708,26189,43737
19719,26199,43743
19771,26245,43816
19869,26334,43967
20012,26462,44192
20203,26631,44482
20444,26845,44844
20726,27097,45274
21032,27369,45751
21354,27651,46261
21690,27945,46802
22036,28247,47364
22376,28543,47928
22705,28828,48478
23023,29105,49012
23328,29376,49525
23612,29633,50000
23873,29869,50434
24110,30086,50832
24314,30276,51183
24485,30431,51477
24633,30561,51728
24762,30672,51946
24866,30759,52127
24947,30820,52266
25012,30866,52372
25064,30905,52453
25103,30935,52510
25130,30952,52545
25145,30961,52566
25148,30966,52581
25146,30966,52587
25146,30957,52581
25145,30947,52573
25139,30942,52571
25130,30936,52565
25118,30927,52550
25111,30923,52539
25107,30926,52536
25101,30922,52529
25093,30910,52513
25087,30898,52492
25079,30889,52464
25057,30871,52423
25017,30839,52365
24966,30798,52294
24907,30751,52213
24842,30693,52115
24774,30628,52004
24705,30563,51888
24631,30495,51765
24551,30417,51630
24471,30335,51493
24399,30264,51369
24333,30202,51254
24268,30142,51138
24206,30086,51027
24155,30045,50934
24115,30016,50859
24077,29990,50795
24044,29966,50740
24024,29952,50699
24018,29947,50673
24015,29941,50650
24007,29929,50628
23996,29916,50610
23986,29906,50593
23977,29891,50567
23964,29873,50535
23950,29858,50508
23932,29837,50473
23909,29806,50424
23885,29775,50371
23862,29751,50321
23831,29721,50265
23787,29678,50197
23740,29632,50122
23695,29590,50045
23642,29543,49959
23579,29488,49859
23513,29427,49753
23443,29366,49642
23368,29301,49519
23292,29228,49381
23216,29157,49242
23136,29090,49104
23051,29022,48964
22969,28953,48820
22898,28888,48681
22833,28826,48549
22763,28754,48414
22685,28672,48275
22612,28592,48137
22543,28515,48001
22473,28436,47863
22401,28357,47725
22329,28287,47593
22251,28222,47461
22168,28153,47325
22089,28087,47191
22014,28028,47065
21935,27967,46941
21854,27899,46809
21786,27832,46680
21731,27775,46567
21677,27724,46462
21617,27667,46357
21554,27607,46249
21491,27548,46143
21430,27492,46038
21371,27436,45930
21312,27380,45821
21250,27328,45717
21190,27278,45612
21131,27224,45504
21075,27173,45399
21023,27129,45303
20969,27083,45203
20908,27029,45093
20847,26974,44985
20790,26923,44887
20730,26868,44784
20663,26804,44673
20596,26740,44562
20532,26681,44457
20467,26626,44356
20409,26576,44261
20368,26538,44183
20349,26525,44136
20355,26541,44132
20398,26591,44188
20489,26685,44319
20622,26818,44520
20797,26982,44784
21012,27177,45114
21267,27407,45516
21551,27665,45976
21853,27935,46470
22171,28215,46988
22504,28507,47527
22835,28800,48070
23155,29079,48593
23462,29342,49091
23758,29597,49567
24036,29839,50014
24289,30055,50420
24510,30242,50785
24703,30409,51113
24868,30553,51399
25002,30668,51634
25113,30763,51828
25206,30845,51993
25276,30909,52123
25321,30946,52210
25355,30968,52270
25386,30985,52320
25406,30995,52357
25411,30996,52376
25415,30997,52388
25422,31003,52398
25426,31007,52405
25428,31005,52405
25434,31004,52405
25443,31007,52408
25450,31011,52408
25456,31014,52404
25460,31019,52401
25460,31023,52398
25447,31017,52383
25423,31001,52354
25396,30983,52317
25362,30961,52270
25313,30923,52200
25255,30868,52106
25196,30806,52002
25138,30740,51892
25074,30666,51763
25003,30583,51618
24927,30502,51472
24847,30426,51333
24768,30349,51196
24692,30274,51066
24624,30209,50952
24564,30152,50853
24508,30098,50764
24463,30054,50691
24429,30028,50640
24399,30011,50600
24369,29992,50559
24348,29979,50524
24343,29978,50502
24344,29981,50489
24346,29979,50474
24348,29975,50459
24348,29974,50445
24346,29976,50431
24343,29977,50415
24339,29974,50396
24327,29964,50374
24306,29944,50343
24278,29911,50298
24251,29876,50248
24230,29845,50198
24203,29811,50136
24165,29769,50060
24125,29727,49979
24082,29687,49895
24032,29644,49805
23976,29595,49708
23917,29544,49611
23860,29496,49514
23797,29440,49406
23727,29372,49284
23652,29303,49161
23574,29237,49037
23496,29169,48908
23422,29099,48778
23351,29032,48651
23275,28964,48526
23194,28889,48396
23117,28812,48261
23046,28740,48134
22975,28671,48012
22895,28597,47885
22809,28517,47748
22727,28443,47612
22647,28376,47481
22566,28308,47344
22485,28237,47204
22408,28170,47072
22336,28107,46945
22268,28043,46814
22204,27979,46685
22141,27920,46567
22071,27861,46452
21994,27797,46334
21922,27736,46224
21862,27684,46128
21801,27629,46029
21734,27563,45917
21673,27500,45807
21620,27447,45707
21565,27394,45608
21504,27335,45503
21440,27275,45398
21375,27220,45293
21309,27163,45187
21243,27103,45075
21178,27041,44962
21112,26978,44849
21042,26912,44730
20973,26843,44608
20913,26783,44503
20863,26740,44418
20820,26707,44348
20799,26689,44302
20813,26703,44305
20866,26757,44375
20956,26845,44507
21085,26967,44701
21258,27130,44966
21475,27331,45300
21726,27559,45692
22002,27807,46134
22295,28073,46621
22603,28354,47136
22924,28642,47661
23255,28933,48192
23586,29225,48725
23898,29502,49242
24187,29755,49730
24461,29993,50191
24720,30220,50631
24954,30428,51036
25157,30607,51393
25337,30765,51710
25502,30908,51994
25640,31031,52237
25749,31127,52432
25840,31209,52595
25922,31286,52740
25988,31351,52862
26039,31398,52953
26078,31434,53023
26107,31464,53081
26131,31489,53129
26153,31508,53167
26173,31524,53204
26193,31540,53243
26209,31552,53273
26223,31559,53296
26239,31569,53325
26254,31583,53360
26260,31589,53386
26258,31588,53400
26258,31592,53416
26264,31598,53434
26268,31596,53442
26266,31585,53435
26259,31572,53418
26246,31556,53390
26222,31531,53345
26188,31495,53282
26141,31448,53205
26077,31389,53109
25996,31314,52990
25912,31232,52859
25831,31154,52732
25748,31078,52603
25659,30999,52466
25572,30924,52332
25495,30862,52211
25430,30812,52103
25373,30764,52006
25318,30719,51919
25263,30679,51845
25216,30643,51779
25177,30610,51721
25145,30580,51674
25121,30560,51642
25104,30544,51614
25089,30525,51580
25078,30510,51552
25075,30506,51536
25070,30501,51521
25056,30486,51497
25040,30468,51467
25023,30452,51434
25001,30433,51396
24970,30406,51350
24936,30374,51299
24902,30342,51242
24864,30304,51171
24818,30259,51086
24769,30213,51000
24720,30169,50916
24665,30117,50823
24604,30058,50717
24542,30002,50609
24476,29950,50499
24401,29891,50379
24321,29823,50250
24247,29756,50124
24178,29695,50004
24101,29628,49879
24018,29552,49747
23937,29480,49619
23863,29413,49496
23791,29344,49368
23713,29269,49232
23631,29195,49097
23550,29122,48963
23471,29046,48825
23396,28973,48689
23325,28904,48559
23249,28830,48427
23165,28747,48284
23085,28667,48142
23014,28602,48015
22947,28541,47893
22878,28478,47772
22813,28417,47655
22751,28363,47545
22687,28308,47436
22620,28251,47326
22556,28193,47218
22492,28136,47113
22428,28079,47005
22365,28017,46893
22306,27960,46783
22247,27908,46681
22186,27854,46575
22123,27797,46461
22060,27742,46351
21993,27688,46249
21921,27629,46143
21847,27565,46032
21779,27504,45923
21718,27449,45821
21653,27390,45715
21582,27326,45599
21514,27267,45487
21451,27214,45382
21392,27164,45280
21341,27119,45190
21306,27087,45129
21293,27076,45103
21309,27091,45122
21367,27144,45205
21474,27245,45365
21623,27387,45596
21810,27561,45889
22037,27769,46248
22301,28015,46672
22589,28283,47142
22891,28558,47639
23212,28843,48162
23549,29140,48708
23884,29435,49259
24202,29715,49798
24504,29985,50322
24791,30247,50829
25056,30491,51303
25299,30712,51735
25522,30914,52126
25722,31097,52475
25900,31259,52783
26058,31398,53052
26195,31515,53286
26310,31615,53486
26400,31696,53650
26469,31759,53780
26524,31810,53890
26569,31853,53988
26604,31882,54069
26632,31900,54132
26660,31920,54189
26688,31945,54248
26711,31967,54300
26729,31983,54342
26746,32001,54382
26764,32020,54421
26779,32033,54453
26790,32043,54481
26800,32056,54511
26808,32070,54540
26814,32079,54561
26822,32086,54575
26830,32092,54590
26825,32092,54596
26805,32074,54582
26779,32045,54549
26750,32012,54507
26710,31970,54449
26652,31912,54364
26584,31844,54255
26513,31774,54134
26443,31706,54012
26368,31637,53883
26282,31564,53747
26193,31490,53613
26108,31418,53483
26030,31345,53356
25962,31277,53239
25903,31223,53144
25853,31177,53064
25807,31135,52988
25770,31106,52926
25746,31094,52885
25723,31083,52852
25696,31065,52815
25676,31049,52780
25666,31037,52755
25661,31026,52735
25655,31012,52716
25647,30999,52699
25635,30989,52681
25621,30974,52657
25604,30953,52626
25584,30933,52590
25557,30912,52546
25517,30879,52486
25471,30834,52410
25429,30790,52334
25387,30750,52260
25337,30704,52178
25280,30652,52084
25219,30597,51984
25155,30542,51883
25090,30487,51778
25027,30431,51667
24963,30374,51557
24891,30313,51442
24811,30247,51314
24738,30181,51188
24674,30123,51073
24611,30064,50957
24541,29999,50832
24472,29933,50704
24407,29871,50580
24338,29808,50458
24267,29740,50329
24192,29668,50197
24113,29593,50064
24033,29519,49929
23959,29446,49794
23885,29377,49660
23811,29314,49532
23732,29251,49403
23648,29181,49267
23565,29111,49134
23488,29046,49012
23410,28977,48890
23332,28901,48761
23261,28832,48637
23196,28773,48521
23133,28712,48407
23071,28648,48289
23012,28585,48177
22958,28529,48074
22905,28478,47975
22846,28428,47877
22785,28382,47783
22724,28340,47690
22662,28296,47590
22600,28246,47483
22539,28194,47376
22476,28141,47271
22405,28081,47160
22333,28018,47044
22266,27964,46936
22200,27912,46831
22130,27851,46718
22058,27783,46599
21992,27716,46484
21927,27653,46372
21857,27589,46253
21786,27524,46133
21722,27467,46027
21670,27424,45941
21635,27397,45881
21624,27394,45863
21650,27425,45909
21724,27498,46029
21848,27609,46222
22015,27757,46483
22224,27947,46814
22470,28172,47206
22746,28421,47647
23050,28692,48134
23373,28984,48660
23704,29279,49204
24033,29569,49751
24361,29862,50301
24682,30157,50853
24987,30440,51385
25269,30700,51882
25533,30940,52345
25778,31165,52776
25995,31365,53166
26180,31536,53508
26341,31686,53807
26481,31816,54066
26596,31923,54279
26691,32005,54451
26770,32071,54600
26834,32125,54727
26883,32164,54824
26920,32192,54900
26955,32222,54973
26988,32252,55045
27010,32272,55107
27023,32283,55156
27037,32296,55202
27055,32312,55248
27064,32325,55284
27068,32334,55312
27074,32349,55342
27089,32369,55375
27108,32385,55401
27127,32395,55423
27145,32407,55448
27152,32414,55463
27146,32406,55457
27137,32389,55434
27125,32371,55403
27097,32340,55354
27046,32285,55277
26988,32220,55183
26928,32155,55082
26857,32085,54970
26776,32011,54845
26697,31937,54717
26618,31870,54592
26539,31804,54465
26464,31739,54336
26392,31678,54213
26322,31622,54098
26258,31568,53991
26201,31515,53890
26156,31470,53806
26122,31440,53744
26095,31416,53693
26072,31391,53645
26055,31373,53608
26044,31364,53584
26039,31356,53563
26033,31348,53541
26025,31342,53520
26011,31336,53499
25992,31326,53472
25970,31314,53446
25946,31302,53423
25912,31282,53392
25870,31246,53343
25826,31204,53283
25783,31168,53223
25737,31130,53159
25683,31081,53080
25624,31022,52986
25568,30965,52885
25516,30914,52782
25465,30861,52667
25409,30804,52541
25347,30746,52417
25281,30686,52293
25211,30619,52161
25138,30553,52030
25064,30494,51906
24982,30429,51775
24888,30353,51632
24797,30277,51491
24718,30208,51363
24639,30134,51235
24555,30052,51100
24470,29968,50963
24389,29890,50830
24310,29812,50693
24229,29732,50551
24143,29652,50412
24053,29574,50275
23961,29494,50131
23871,29411,49980
23788,29334,49833
23714,29266,49696
23640,29197,49559
23560,29120,49418
23483,29043,49278
23411,28971,49143
23336,28901,49006
23260,28827,48865
23184,28756,48728
23108,28690,48597
23031,28624,48467
22961,28560,48345
22892,28504,48234
22819,28449,48127
22739,28387,48015
22662,28323,47904
22594,28266,47801
22528,28212,47696
22461,28152,47584
22401,28094,47472
22346,28044,47366
22283,27992,47255
22210,27932,47133
22136,27867,47004
22065,27805,46878
21994,27742,46755
21922,27674,46630
21845,27603,46501
21764,27533,46370
21685,27462,46239
21614,27393,46111
21553,27331,45995
21499,27281,45903
21452,27244,45834
21423,27226,45798
21438,27246,45820
21506,27314,45920
21620,27421,46097
21774,27559,46343
21973,27736,46663
22214,27955,47055
22490,28204,47502
22792,28477,47991
23113,28774,48519
23443,29086,49075
23772,29396,49637
24101,29699,50194
24431,29997,50745
24750,30283,51280
25045,30545,51780
25314,30781,52246
25565,31004,52684
25789,31209,53090
25979,31382,53447
26139,31523,53753
26279,31645,54020
26402,31750,54249
26502,31833,54433
26580,31896,54578
26644,31949,54696
26701,31998,54792
26744,32033,54860
26771,32054,54905
26785,32070,54939
26793,32084,54967
26799,32091,54984
26806,32097,54999
26814,32108,55023
26815,32116,55044
26805,32112,55056
26798,32109,55069
26798,32115,55093
26795,32120,55117
26786,32118,55129
26775,32114,55133
26762,32106,55130
26742,32091,55114
26720,32067,55080
26694,32039,55032
26661,32004,54972
26617,31955,54893
26562,31894,54792
26500,31831,54682
26429,31765,54562
26346,31686,54424
26255,31596,54269
26168,31511,54113
26084,31434,53966
25998,31355,53823
25911,31274,53682
25831,31201,53557
25764,31144,53449
25703,31093,53350
25646,31043,53257
25596,31005,53176
25553,30977,53111
25519,30952,53054
25496,30933,53011
25483,30925,52988
25470,30920,52974
25457,30909,52953
25451,30901,52933
25447,30898,52921
25436,30892,52906
25416,30876,52878
25399,30855,52844
25389,30839,52815
25370,30821,52782
25340,30789,52733
25306,30751,52672
25267,30711,52605
25224,30669,52533
25175,30621,52456
25123,30568,52370
25066,30512,52275
25002,30450,52168
24935,30381,52047
24866,30314,51920
24796,30253,51793
24719,30187,51659
24636,30114,51516
24555,30044,51371
24475,29978,51229
24393,29911,51081
24308,29840,50931
24228,29772,50789
24152,29708,50656
24074,29637,50517
23991,29559,50371
23910,29485,50224
23828,29412,50081
23744,29335,49935
23659,29254,49789
23575,29177,49649
23490,29101,49512
23405,29022,49370
23324,28946,49228
23247,28876,49090
23164,28803,48949
23074,28720,48799
22985,28634,48648
22903,28554,48505
22823,28476,48370
22742,28394,48234
22662,28311,48098
22586,28237,47967
22515,28172,47841
22445,28108,47715
22374,28042,47588
22299,27979,47469
22227,27923,47356
22160,27869,47242
22094,27816,47131
22029,27769,47029
21966,27723,46929
21903,27672,46820
21845,27624,46714
21791,27585,46615
21733,27539,46507
21669,27477,46384
21602,27408,46255
21533,27341,46127
21458,27269,45995
21380,27195,45860
21305,27124,45730
21233,27061,45611
21165,27006,45497
21106,26958,45399
21067,26928,45335
21053,26924,45319
21072,26945,45355
21136,27003,45456
21255,27113,45642
21427,27275,45915
21639,27474,46259
21886,27702,46661
22170,27962,47118
22484,28247,47624
22813,28541,48160
23149,28839,48709
23487,29144,49270
23822,29447,49832
24144,29737,50375
24448,30011,50891
24733,30269,51384
24991,30504,51840
25221,30710,52246
25432,30897,52611
25626,31069,52941
25786,31214,53225
25910,31327,53456
26011,31418,53646
26097,31494,53805
26167,31555,53934
26219,31603,54033
26257,31642,54108
26284,31673,54167
26303,31694,54205
26317,31702,54224
26326,31704,54230
26329,31702,54233
26326,31694,54228
26319,31679,54215
26310,31667,54203
26304,31665,54199
26292,31661,54188
26273,31646,54166
26257,31631,54146
26246,31623,54135
26235,31613,54119
26218,31595,54092
26193,31571,54054
26157,31536,54003
26109,31489,53933
26053,31434,53846
25989,31376,53749
25915,31315,53635
25832,31244,53501
25747,31169,53357
25660,31095,53215
25568,31018,53071
25472,30931,52916
25380,30842,52761
25296,30763,52620
25213,30695,52492
25132,30630,52370
25060,30569,52255
25004,30522,52157
24960,30482,52079
24921,30444,52011
24881,30410,51954
24848,30386,51912
24828,30371,51884
24818,30359,51857
24809,30349,51833
24797,30345,51817
24782,30338,51798
24761,30319,51765
24744,30296,51729
24732,30280,51698
24713,30262,51662
24679,30234,51609
24641,30206,51549
24605,30182,51490
24564,30153,51424
24514,30113,51345
24461,30068,51259
24402,30021,51168
24339,29964,51065
24273,29897,50947
24204,29828,50823
24128,29756,50692
24043,29674,50548
23955,29586,50394
23868,29503,50243
23786,29429,50097
23700,29350,49943
23607,29264,49780
23512,29180,49622
23420,29102,49473
23330,29024,49324
23240,28945,49174
23150,28869,49029
23059,28793,48884
22967,28712,48733
22882,28634,48582
22803,28563,48441
22717,28490,48301
22622,28410,48152
22530,28329,48001
22447,28255,47857
22369,28184,47716
22290,28109,47573
22212,28032,47428
22134,27960,47286
22058,27891,47147
21987,27825,47011
21915,27761,46878
21839,27700,46750
21761,27637,46621
21684,27570,46485
21612,27501,46352
21544,27438,46229
21474,27375,46108
21402,27303,45981
21334,27232,45855
21267,27168,45736
21195,27102,45616
21114,27032,45490
21032,26962,45365
20950,26893,45241
20865,26820,45109
20777,26745,44971
20695,26678,44839
20614,26616,44715
20531,26551,44593
20457,26488,44482
20405,26444,44402
20381,26428,44364
20387,26436,44369
20432,26474,44430
20531,26560,44568
20682,26696,44794
20878,26871,45097
21117,27080,45468
21397,27328,45902
21706,27605,46391
22032,27901,46916
22371,28208,47470
22717,28528,48047
23058,28846,48624
23390,29149,49182
23715,29440,49723
24031,29721,50249
24323,29983,50742
24586,30215,51190
24821,30424,51595
25032,30613,51964
25216,30780,52289
25375,30923,52565
25507,31041,52797
25611,31138,52992
25691,31211,53149
25753,31259,53263
25796,31292,53348
25826,31317,53416
25843,31333,53462
25849,31339,53484
25852,31345,53499
25856,31355,53516
25855,31360,53526
25851,31356,53528
25846,31351,53527
25842,31348,53524
25837,31341,53517
25834,31330,53509
25837,31323,53505
25838,31319,53501
25830,31306,53485
25816,31287,53462
25806,31277,53443
25796,31273,53426
25772,31257,53393
25730,31222,53339
25682,31177,53270
25630,31125,53188
25566,31062,53082
25489,30989,52953
25408,30914,52816
25324,30840,52674
25239,30763,52525
25158,30687,52376
25083,30621,52240
25007,30554,52109
24923,30480,51975
24846,30412,51854
24784,30358,51754
24727,30310,51665
24673,30262,51581
24626,30219,51508
24589,30184,51446
24559,30155,51393
24536,30125,51343
24519,30100,51298
24505,30082,51261
24489,30067,51224
24471,30049,51179
24448,30030,51132
24416,30012,51087
24378,29989,51038
24339,29960,50985
24302,29929,50930
24264,29898,50872
24218,29858,50799
24163,29806,50709
24108,29754,50616
24056,29706,50529
24000,29652,50436
23941,29590,50329
23883,29530,50215
23823,29471,50099
23753,29408,49974
23674,29335,49836
23591,29259,49693
23506,29181,49549
23419,29098,49402
23333,29013,49254
23251,28932,49109
23164,28851,48960
23074,28763,48800
22985,28675,48642
22896,28592,48491
22801,28508,48336
22701,28420,48170
22608,28338,48008
22525,28266,47859
22437,28194,47712
22342,28112,47558
22247,28028,47403
22154,27947,47249
22058,27866,47095
21964,27784,46942
21876,27702,46791
21790,27619,46642
21701,27534,46494
21612,27445,46341
21529,27357,46190
21450,27273,46044
21369,27189,45900
21286,27105,45753
21208,27030,45614
21135,26965,45487
21061,26904,45361
20985,26843,45231
20912,26784,45104
20841,26725,44979
20766,26662,44850
20687,26591,44712
20610,26519,44574
20532,26449,44441
20450,26376,44307
20364,26296,44168
20276,26214,44030
20188,26134,43894
20101,26055,43757
20020,25981,43627
19944,25918,43507
19872,25862,43394
19810,25813,43293
19778,25783,43228
19786,25787,43226
19837,25834,43295
19939,25925,43443
20102,26071,43684
20326,26274,44027
20593,26516,44450
20891,26781,44931
21224,27074,45467
21588,27396,46052
21964,27733,46661
22337,28069,47269
22707,28403,47876
23069,28732,48477
23416,29042,49055
23741,29325,49597
24041,29586,50103
24313,29826,50575
24555,30037,51005
24769,30218,51385
24960,30378,51722
25127,30523,52019
25267,30644,52273
25383,30743,52485
25482,30826,52662
25563,30897,52806
25623,30948,52914
25664,30982,52991
25696,31013,53058
25724,31044,53121
25741,31067,53173
25751,31083,53211
25762,31097,53244
25775,31115,53276
25787,31129,53298
25796,31134,53309
25800,31134,53316
25798,31131,53318
25795,31124,53312
25794,31116,53303
25793,31113,53297
25783,31111,53289
25759,31098,53268
25732,31079,53241
25712,31058,53214
25691,31035,53182
25658,30999,53130
25613,30950,53055
25560,30897,52967
25502,30842,52867
25435,30778,52751
25358,30708,52623
25273,30638,52492
25183,30564,52357
25090,30481,52213
25001,30400,52072
24925,30331,51945
24850,30263,51821
24775,30192,51697
24714,30132,51587
24669,30085,51498
24628,30042,51421
24592,29999,51346
24562,29967,51283
24539,29947,51241
24524,29934,51210
24516,29924,51186
24511,29919,51169
24502,29914,51155
24487,29904,51134
24470,29891,51107
24455,29883,51084
24441,29877,51065
24421,29858,51035
24393,29828,50989
24359,29796,50935
24319,29763,50872
24269,29720,50791
24209,29668,50696
24147,29616,50597
24088,29565,50495
24028,29507,50382
23969,29445,50262
23908,29384,50143
23839,29318,50021
23762,29243,49886
23686,29168,49749
23611,29097,49619
23528,29025,49489
23439,28944,49349
23351,28862,49208
23267,28786,49073
23184,28713,48940
23099,28640,48802
23013,28565,48659
22926,28489,48515
22839,28414,48368
22756,28335,48217
22674,28254,48067
22589,28171,47922
22501,28087,47776
22411,28002,47625
22322,27922,47477
22237,27849,47335
22152,27778,47193
22062,27702,47045
21975,27626,46903
21898,27559,46771
21824,27496,46642
21751,27430,46513
21681,27369,46393
21617,27317,46281
21558,27265,46169
21499,27212,46057
21438,27160,45949
21370,27108,45844
21300,27052,45734
21233,26990,45620
21175,26931,45512
21116,26870,45406
21046,26800,45287
20971,26725,45161
20901,26660,45044
20835,26602,44934
20763,26538,44817
20688,26467,44690
20616,26401,44563
20549,26341,44442
20481,26282,44322
20412,26223,44206
20349,26176,44108
20309,26148,44041
20296,26138,44010
20314,26152,44027
20370,26204,44110
20474,26301,44267
20628,26438,44498
20830,26614,44809
21075,26831,45199
21355,27080,45649
21659,27351,46139
21984,27643,46663
22325,27954,47219
22666,28265,47787
22997,28565,48351
23325,28861,48910
23648,29153,49459
23954,29430,49982
24238,29684,50470
24502,29917,50924
24741,30127,51341
24951,30311,51714
25130,30468,52040
25284,30607,52328
25414,30728,52575
25513,30820,52769
25586,30887,52914
25652,30946,53035
25714,31001,53140
25764,31043,53219
25802,31070,53276
25836,31092,53324
25864,31112,53370
25882,31125,53410
25892,31130,53442
25896,31135,53469
25900,31142,53491
25906,31148,53506
25917,31155,53519
25931,31167,53541
25941,31177,53564
25945,31175,53577
25949,31171,53587
25956,31173,53601
25954,31171,53607
25938,31154,53593
25921,31134,53569
25903,31117,53542
25873,31093,53499
25827,31053,53432
25772,31005,53348
25711,30952,53254
25641,30890,53143
25567,30822,53019
25489,30752,52890
25408,30683,52762
25329,30616,52634
25258,30551,52507
25194,30492,52392
25137,30442,52291
25084,30395,52196
25035,30350,52107
24994,30312,52035
24958,30285,51979
24926,30261,51930
24899,30240,51884
24881,30227,51856
24870,30222,51841
24856,30215,51824
24839,30201,51802
24828,30188,51787
24824,30179,51777
24818,30168,51761
24806,30148,51734
24788,30124,51701
24767,30098,51664
24744,30069,51619
24718,30037,51567
24687,30006,51511
24648,29970,51441
24603,29925,51353
24556,29874,51258
24508,29823,51169
24451,29771,51076
24386,29710,50973
24324,29652,50865
24268,29599,50760
24210,29545,50653
24145,29485,50539
24081,29428,50426
24019,29375,50318
23956,29321,50208
23890,29263,50095
23820,29201,49981
23746,29137,49865
23669,29069,49744
23595,28997,49618
23525,28929,49493
23455,28869,49372
23385,28808,49247
23312,28742,49117
23242,28678,48989
23177,28619,48867
23112,28556,48741
23044,28486,48609
22977,28416,48479
22911,28354,48355
22841,28291,48231
22767,28227,48106
22693,28166,47986
22618,28105,47871
22544,28039,47750
22477,27973,47623
22417,27914,47506
22361,27864,47400
22303,27812,47296
22240,27754,47190
22179,27699,47090
22118,27647,46994
22052,27592,46893
21987,27537,46790
21929,27486,46691
21872,27433,46590
21811,27372,46476
21753,27312,46358
21697,27258,46249
21635,27206,46141
21564,27147,46026
21497,27088,45910
21435,27032,45799
21374,26978,45692
21315,26922,45584
21255,26865,45477
21193,26812,45377
21135,26763,45284
21090,26718,45203
21066,26691,45157
21074,26696,45161
21112,26732,45215
21182,26797,45326
21294,26905,45505
21452,27060,45758
21649,27248,46072
21880,27460,46437
22143,27696,46857
22428,27955,47321
22721,28223,47807
23016,28491,48298
23318,28763,48797
23620,29037,49302
23911,29302,49793
24186,29552,50257
24440,29786,50697
24670,29999,51107
24875,30185,51477
25063,30350,51809
25235,30502,52111
25381,30637,52378
25498,30744,52600
25589,30824,52777
25666,30892,52925
25732,30951,53050
25785,30995,53150
25828,31027,53228
25863,31055,53296
25884,31076,53349
25895,31083,53382
25909,31087,53406
25928,31095,53433
25943,31104,53458
25951,31110,53478
25956,31114,53495
25960,31121,53513
25964,31129,53532
25968,31136,53548
25971,31141,53559
25969,31144,53565
25961,31137,53561
25950,31124,53545
25940,31112,53527
25932,31104,53507
25914,31088,53475
25885,31059,53426
25850,31020,53362
25805,30977,53285
25747,30923,53190
25684,30859,53079
25618,30793,52963
25543,30727,52846
25456,30655,52720
25368,30575,52587
25291,30502,52463
25224,30441,52355
25162,30383,52255
25107,30328,52162
25064,30285,52083
25030,30254,52016
25004,30230,51955
24985,30213,51901
24972,30205,51863
24960,30199,51836
24944,30185,51809
24933,30169,51785
24930,30160,51770
24929,30152,51759
24921,30141,51744
24909,30125,51724
24899,30111,51706
24889,30100,51689
24872,30088,51665
24845,30069,51632
24808,30050,51592
24770,30026,51540
24731,29993,51470
24694,29955,51392
24660,29918,51317
24620,29875,51241
24570,29824,51156
24517,29772,51067
24465,29725,50977
24405,29672,50875
24336,29608,50758
24269,29544,50640
24205,29487,50527
24139,29431,50412
24073,29371,50294
24007,29310,50176
23942,29251,50059
23876,29189,49940
23806,29124,49819
23733,29059,49702
23662,28994,49590
23593,28926,49474
23526,28858,49352
23457,28793,49234
23385,28729,49118
23312,28662,48996
23241,28596,48872
23177,28540,48753
23117,28488,48635
23049,28429,48512
22976,28365,48387
22911,28308,48273
22854,28261,48171
22795,28215,48066
22734,28165,47957
22676,28117,47852
22623,28069,47749
22570,28013,47640
22512,27948,47523
22454,27885,47412
22403,27829,47314
22358,27777,47223
22308,27728,47139
22252,27684,47062
22191,27642,46982
22131,27595,46888
22075,27544,46789
22026,27495,46695
21974,27443,46595
21915,27384,46484
21856,27327,46372
21803,27277,46269
21745,27229,46164
21681,27174,46050
21617,27120,45937
21554,27070,45827
21487,27018,45715
21420,26964,45603
21365,26917,45508
21329,26888,45443
21312,26876,45409
21317,26883,45411
21352,26919,45460
21422,26985,45568
21527,27082,45738
21671,27212,45968
21850,27376,46258
22060,27571,46598
22292,27784,46972
22545,28012,47380
22814,28255,47820
23086,28504,48279
23354,28744,48735
23621,28979,49186
23882,29217,49632
24122,29444,50059
24338,29648,50456
24538,29830,50820
24726,29995,51157
24892,30140,51457
25028,30263,51708
25142,30365,51916
25240,30452,52094
25321,30523,52245
25388,30579,52367
25440,30623,52464
25481,30659,52543
25513,30686,52604
25540,30704,52645
25560,30712,52674
25572,30716,52701
25581,30717,52722
25590,30716,52730
25595,30719,52734
25596,30725,52740
25592,30725,52741
25584,30713,52733
25579,30704,52729
25578,30700,52731
25575,30693,52725
25564,30674,52705
25553,30655,52678
25542,30641,52650
25522,30621,52616
25491,30590,52570
25455,30555,52516
25417,30520,52453
25369,30475,52374
25310,30420,52277
25241,30358,52167
25163,30289,52049
25083,30214,51921
25007,30139,51792
24937,30071,51673
24870,30008,51561
24807,29948,51454
24757,29898,51361
24724,29863,51287
24697,29836,51225
24673,29810,51168
24659,29791,51123
24657,29785,51095
24653,29786,51076
24642,29784,51058
24632,29784,51045
24630,29789,51040
24628,29791,51034
24625,29787,51022
24621,29779,51009
24612,29770,50997
24598,29759,50979
24584,29745,50952
24573,29731,50917
24559,29717,50881
24539,29698,50841
24516,29674,50795
24487,29647,50746
24450,29619,50698
24407,29586,50642
24361,29546,50571
24315,29506,50494
24264,29465,50411
24205,29415,50317
24145,29357,50213
24088,29301,50110
24032,29248,50008
23967,29190,49900
23894,29123,49785
23824,29060,49672
23761,29004,49564
23700,28949,49453
23637,28888,49339
23577,28829,49227
23521,28774,49115
23467,28719,49000
23417,28662,48887
23369,28608,48780
23314,28553,48671
23248,28490,48548
23179,28428,48423
23111,28374,48310
23042,28321,48199
22971,28259,48083
22909,28200,47969
22855,28151,47866
22797,28101,47763
22730,28044,47654
22665,27985,47542
22604,27930,47437
22542,27876,47337
22481,27821,47238
22424,27769,47141
22368,27719,47047
22312,27670,46954
22257,27621,46861
22198,27570,46769
22135,27518,46678
22069,27465,46581
22006,27411,46477
21950,27360,46374
21899,27319,46279
21843,27274,46181
21783,27220,46077
21728,27168,45975
21676,27121,45880
21622,27067,45785
21564,27008,45688
21509,26954,45597
21460,26909,45516
21420,26873,45449
21400,26854,45407
21406,26861,45403
21439,26897,45443
21498,26957,45526
21592,27047,45664
21723,27174,45871
21885,27330,46137
22070,27502,46442
22276,27688,46781
22504,27896,47164
22749,28124,47583
23003,28358,48015
23260,28591,48450
23515,28825,48887
23765,29057,49321
23999,29272,49732
24214,29464,50112
24410,29642,50468
24584,29802,50791
24736,29938,51069
24870,30055,51313
24995,30163,51533
25100,30254,51721
25181,30323,51868
25248,30377,51986
25305,30425,52089
25344,30458,52171
25362,30474,52230
25374,30484,52274
25390,30497,52312
25405,30507,52339
25417,30511,52355
25425,30512,52366
25426,30512,52377
25421,30507,52381
25417,30500,52377
25416,30496,52374
25414,30494,52373
25407,30488,52365
25398,30481,52349
25396,30481,52339
25399,30486,52336
25398,30484,52326
25387,30468,52301
25368,30449,52267
25341,30423,52225
25301,30385,52164
25251,30335,52082
25194,30280,51989
25131,30219,51888
25062,30150,51775
24993,30079,51654
24927,30015,51535
24861,29956,51416
24793,29893,51292
24727,29832,51174
24669,29785,51075
24615,29743,50985
24564,29698,50896
24523,29660,50817
24496,29633,50756
24473,29614,50707
24452,29601,50667
24439,29594,50636
24434,29592,50615
24434,29590,50596
24434,29584,50571
24432,29577,50549
24427,29571,50534
24416,29560,50515
24398,29542,50485
24378,29526,50455
24357,29514,50429
24329,29497,50397
24295,29468,50350
24258,29434,50295
24216,29396,50238
24168,29354,50172
24118,29310,50096
24070,29267,50018
24020,29223,49942
23965,29171,49855
23908,29112,49755
23858,29061,49658
23812,29019,49570
23760,28973,49476
23699,28918,49369
23638,28863,49261
23578,28811,49159
23518,28757,49054
23456,28699,48942
23392,28643,48826
23321,28586,48704
23245,28524,48571
23172,28461,48442
23106,28404,48327
23037,28347,48217
22962,28284,48100
22892,28221,47984
22833,28165,47875
22781,28112,47769
22730,28054,47656
22675,27991,47536
22613,27926,47414
22549,27862,47294
22488,27803,47176
22430,27750,47063
22371,27704,46960
22307,27655,46858
22237,27597,46750
22171,27542,46646
22112,27497,46550
22051,27450,46454
21988,27395,46351
21932,27344,46251
21886,27300,46160
21842,27258,46073
21794,27211,45982
21743,27164,45891
21686,27119,45800
21624,27069,45704
21562,27014,45601
21506,26960,45501
21449,26909,45403
21387,26857,45301
21322,26799,45196
21257,26746,45095
21194,26699,44999
21130,26650,44903
21068,26600,44810
21013,26560,44730
20965,26527,44659
20925,26494,44595
20901,26472,44550
20902,26474,44541
20930,26502,44573
20985,26553,44646
21076,26636,44770
21206,26757,44958
21370,26913,45210
21562,27094,45516
21782,27295,45866
22023,27516,46259
22282,27750,46689
22553,27989,47138
22831,28231,47593
23109,28476,48055
23380,28713,48514
23638,28932,48955
23878,29140,49379
24097,29341,49784
24289,29521,50156
24451,29674,50486
24596,29808,50782
24730,29929,51045
24846,30034,51270
24942,30120,51456
25027,30194,51611
25100,30258,51740
25159,30306,51840
25208,30341,51916
25254,30374,51984
25299,30409,52054
25336,30436,52112
25364,30451,52151
25387,30463,52182
25408,30476,52213
25422,30484,52239
25429,30485,52261
25431,30484,52283
25428,30482,52302
25425,30481,52318
25428,30486,52335
25439,30502,52357
25450,30517,52377
25455,30518,52382
25458,30512,52375
25462,30510,52366
25459,30509,52353
25437,30496,52321
25396,30466,52265
25346,30425,52193
25294,30380,52114
25240,30328,52024
25180,30267,51925
25115,30203,51826
25045,30139,51722
24970,30072,51607
24903,30009,51492
24849,29960,51391
24796,29910,51295
24740,29852,51197
24690,29799,51109
24653,29763,51037
24620,29739,50975
24588,29719,50919
24565,29703,50872
24553,29694,50839
24545,29686,50810
24539,29680,50780
24533,29676,50757
24525,29671,50739
24509,29657,50717
24490,29635,50688
24475,29617,50663
24463,29607,50645
24446,29593,50619
24422,29568,50582
24393,29542,50542
24365,29520,50498
24334,29494,50443
24301,29462,50377
24262,29426,50306
24214,29384,50227
24161,29334,50139
24113,29284,50049
24070,29242,49964
24022,29197,49874
23964,29140,49771
23901,29078,49662
23840,29022,49556
23782,28973,49454
23719,28919,49344
23649,28856,49225
23576,28792,49108
23505,28732,48996
23436,28671,48883
23368,28611,48772
23304,28557,48670
23241,28503,48569
23174,28443,48462
23110,28384,48358
23052,28331,48263
22993,28273,48163
22927,28208,48049
22861,28145,47934
22799,28092,47824
22736,28038,47715
22668,27979,47600
22603,27920,47486
22539,27869,47378
22475,27819,47274
22410,27767,47171
22348,27718,47077
22293,27674,46988
22239,27627,46893
22186,27580,46795
22137,27541,46707
22085,27508,46627
22027,27469,46539
21971,27420,46439
21923,27372,46344
21879,27324,46255
21835,27270,46163
21788,27212,46069
21741,27164,45981
21696,27122,45896
21649,27081,45808
21599,27039,45720
21547,27001,45637
21488,26959,45549
21423,26906,45450
21361,26851,45346
21304,26806,45248
21248,26765,45153
21186,26719,45054
21120,26666,44954
21058,26616,44866
21008,26577,44796
20979,26552,44747
20977,26547,44730
21005,26570,44757
21059,26619,44830
21137,26692,44950
21253,26797,45131
21412,26938,45378
21594,27105,45675
21796,27290,46006
22023,27500,46379
22275,27735,46792
22539,27981,47232
22808,28227,47684
23079,28474,48143
23343,28717,48603
23595,28942,49046
23831,29146,49463
24049,29336,49856
24243,29511,50220
24406,29662,50544
24547,29788,50826
24676,29901,51081
24793,30005,51310
24891,30089,51499
24971,30152,51646
25034,30206,51765
25082,30252,51867
25118,30284,51947
25146,30307,52006
25168,30330,52053
25188,30351,52092
25205,30363,52120
25221,30373,52144
25235,30386,52173
25246,30397,52199
25254,30398,52214
25264,30399,52224
25275,30406,52239
25277,30409,52251
25270,30403,52253
25268,30398,52253
25274,30398,52260
25279,30398,52269
25281,30394,52269
25279,30387,52257
25270,30376,52234
25247,30357,52194
25212,30325,52131
25163,30284,52054
25101,30236,51970
25031,30179,51876
24961,30115,51767
24891,30050,51654
24821,29988,51544
24746,29921,51429
24666,29850,51305
24595,29786,51191
24534,29734,51093
24475,29685,50999
24417,29634,50904
24366,29588,50818
24321,29552,50748
24281,29523,50687
24247,29497,50634
24217,29474,50591
24190,29451,50551
24167,29427,50509
24152,29406,50472
24140,29392,50443
24121,29380,50416
24098,29361,50382
24077,29339,50342
24059,29320,50302
24032,29299,50261
23992,29271,50209
23948,29239,50151
23910,29208,50092
23870,29174,50028
23823,29133,49952
23772,29087,49866
23721,29043,49777
23668,29002,49684
23610,28956,49584
23543,28903,49477
23469,28847,49369
23391,28787,49256
23313,28720,49133
23241,28655,49005
23174,28596,48884
23105,28535,48767
23031,28464,48643
22958,28393,48519
22890,28327,48401
22817,28259,48281
22737,28184,48149
22659,28112,48017
22586,28046,47892
22511,27980,47771
22435,27912,47649
22363,27844,47529
22292,27779,47411
22220,27710,47289
22144,27641,47161
22069,27580,47039
21995,27524,46925
21916,27463,46806
21838,27399,46681
21768,27339,46562
21696,27279,46448
21618,27213,46327
21541,27142,46202
21476,27082,46086
21416,27031,45980
21351,26974,45873
21287,26914,45763
21232,26863,45665
21182,26819,45578
21130,26771,45487
21072,26720,45388
21012,26673,45291
20953,26627,45193
20890,26570,45088
20821,26509,44981
20751,26453,44882
20684,26401,44787
20616,26344,44684
20546,26288,44579
20478,26238,44477
20412,26187,44374
20344,26130,44261
20281,26072,44147
20226,26023,44042
20169,25975,43941
20104,25923,43836
20046,25876,43740
20005,25842,43662
19973,25818,43600
19951,25803,43558
19953,25807,43553
19989,25839,43599
20057,25902,43698
20158,25995,43853
20300,26126,44069
20480,26293,44346
20687,26483,44671
20915,26688,45036
21161,26907,45437
21421,27138,45869
21692,27376,46321
21973,27618,46785
22257,27863,47255
22529,28103,47718
22780,28324,48156
23014,28530,48568
23236,28728,48959
23436,28911,49320
23607,29064,49633
23754,29192,49900
23882,29305,50135
23989,29403,50339
24073,29479,50506
24142,29539,50642
24202,29593,50759
24251,29637,50856
24285,29665,50927
24309,29678,50974
24325,29686,51007
24338,29690,51030
24349,29692,51045
24355,29692,51055
24357,29693,51066
24359,29694,51073
24360,29689,51074
24360,29683,51073
24353,29679,51077
24344,29672,51076
24337,29659,51064
24335,29646,51052
24329,29636,51044
24313,29620,51026
24284,29594,50991
24254,29569,50950
24224,29547,50908
24181,29519,50849
24122,29477,50767
24055,29426,50673
23986,29371,50570
23914,29311,50458
23842,29247,50339
23767,29183,50219
23689,29114,50097
23615,29044,49972
23549,28980,49856
23491,28927,49756
23437,28882,49666
23385,28838,49577
23340,28798,49494
23305,28766,49426
23275,28740,49370
23247,28712,49314
23229,28687,49265
23220,28671,49229
23208,28658,49199
23190,28639,49164
23170,28619,49127
23153,28605,49095
23134,28594,49070
23112,28579,49042
23084,28558,49008
23055,28538,48967
23029,28519,48924
23006,28497,48879
22981,28473,48834
22949,28449,48788
22913,28419,48733
22873,28381,48661
22831,28342,48586
22785,28308,48514
22732,28271,48437
22671,28223,48347
22611,28173,48250
22554,28123,48153
22492,28066,48047
22422,27997,47928
22351,27926,47804
22283,27860,47681
22211,27796,47555
22131,27728,47424
22047,27658,47297
21965,27592,47177
21886,27525,47058
21811,27457,46940
21740,27391,46825
21672,27327,46708
21605,27259,46586
21541,27192,46463
21482,27136,46346
21423,27086,46233
21359,27032,46114
21293,26977,45993
21229,26931,45879
21166,26887,45771
21098,26836,45661
21025,26778,45550
20954,26722,45439
20888,26669,45328
20823,26612,45213
20759,26552,45100
20696,26497,44997
20638,26447,44900
20584,26396,44804
20526,26346,44707
20461,26297,44610
20395,26246,44511
20334,26195,44410
20278,26148,44313
20223,26103,44221
20165,26057,44128
20107,26006,44028
20046,25952,43928
19980,25897,43828
19913,25841,43722
19847,25782,43608
19786,25729,43499
19727,25683,43404
19666,25640,43314
19612,25599,43231
19576,25573,43173
19558,25569,43152
19559,25583,43164
19592,25622,43218
19673,25697,43331
19801,25810,43510
19959,25950,43743
20142,26107,44023
20350,26286,44353
20582,26487,44728
20832,26702,45134
21096,26926,45566
21369,27159,46023
21643,27397,46492
21913,27632,46956
22180,27863,47413
22439,28089,47857
22674,28302,48273
22883,28489,48646
23075,28657,48984
23250,28810,49294
23398,28938,49564
23517,29037,49786
23618,29119,49970
23706,29194,50126
23775,29257,50251
23826,29301,50347
23864,29331,50422
23894,29355,50482
23912,29373,50525
23921,29382,50551
23925,29385,50569
23922,29384,50584
23915,29379,50591
23912,29372,50589
23910,29367,50586
23904,29365,50584
23893,29358,50577
23878,29346,50562
23867,29337,50549
23855,29332,50541
23839,29322,50526
23819,29305,50500
23799,29288,50469
23775,29270,50430
23736,29238,50374
23685,29193,50296
23632,29145,50204
23576,29095,50104
23511,29035,49993
23436,28967,49867
23357,28898,49735
23273,28830,49604
23184,28760,49470
23096,28688,49338
23015,28621,49215
22941,28560,49099
22875,28501,48991
22818,28450,48895
22767,28414,48817
22720,28384,48749
22679,28351,48685
22652,28326,48631
22636,28314,48594
22619,28304,48565
22595,28284,48532
22578,28263,48504
22569,28252,48485
22557,28242,48463
22537,28223,48430
22518,28203,48391
22498,28188,48351
22474,28170,48305
22448,28145,48252
22422,28118,48198
22392,28093,48145
22356,28063,48085
22313,28025,48014
22263,27981,47939
22205,27935,47862
22141,27880,47777
22076,27817,47682
22012,27755,47586
21948,27696,47490
21879,27631,47385
21806,27562,47269
21732,27497,47156
21655,27439,47047
21569,27376,46928
21476,27305,46795
21383,27233,46658
21297,27166,46524
21217,27100,46390
21138,27030,46258
21061,26962,46130
20981,26896,46003
20903,26828,45872
20831,26762,45744
20762,26702,45625
20687,26639,45504
20605,26564,45371
20528,26487,45235
20459,26421,45113
20394,26361,44997
20327,26299,44878
20258,26239,44754
20190,26185,44634
20125,26135,44522
20062,26084,44412
19993,26030,44305
19914,25975,44202
19835,25918,44099
19759,25857,43991
19688,25800,43887
19620,25751,43791
19548,25700,43694
19473,25639,43586
19404,25578,43476
19343,25524,43370
19282,25467,43260
19218,25403,43145
19158,25340,43031
19101,25283,42922
19045,25228,42817
18988,25173,42714
18936,25127,42623
18894,25092,42547
18864,25068,42485
18855,25060,42454
18874,25080,42476
18922,25131,42557
19005,25208,42694
19131,25318,42889
19300,25467,43150
19505,25649,43469
19737,25848,43830
19988,26060,44228
20259,26292,44665
20547,26544,45135
20839,26803,45618
21130,27060,46105
21416,27313,46595
21696,27560,47076
21961,27792,47533
22207,28008,47963
22429,28207,48364
22621,28384,48726
22783,28531,49040
22928,28661,49310
23057,28778,49544
23161,28875,49743
23241,28948,49904
23304,29004,50034
23355,29048,50140
23397,29084,50224
23432,29110,50284
23461,29133,50333
23484,29155,50377
23494,29169,50409
23495,29173,50424
23497,29177,50436
23501,29187,50453
23499,29194,50462
23489,29190,50458
23477,29181,50449
23465,29172,50439
23455,29160,50426
23447,29147,50410
23439,29134,50397
23425,29120,50384
23401,29097,50360
23372,29065,50323
23341,29034,50284
23303,29002,50237
23251,28952,50163
23188,28887,50061
23118,28818,49948
23045,28753,49829
22965,28682,49697
22881,28607,49558
22798,28537,49424
22716,28473,49294
22636,28409,49162
22565,28349,49038
22501,28298,48928
22434,28254,48827
22367,28205,48729
22309,28159,48641
22267,28123,48569
22234,28094,48510
22206,28065,48456
22182,28038,48407
22162,28017,48369
22148,28004,48339
22138,27993,48310
22130,27982,48282
22114,27969,48256
22091,27949,48227
22069,27925,48189
22049,27906,48154
22030,27897,48128
22002,27885,48093
21963,27862,48041
21925,27835,47984
21892,27811,47930
21854,27781,47867
21805,27736,47786
21750,27683,47692
21689,27627,47593
21620,27564,47486
21547,27497,47373
21471,27432,47263
21397,27368,47154
21320,27301,47035
21240,27230,46906
21163,27163,46779
21084,27099,46656
20997,27029,46525
20911,26953,46387
20832,26884,46256
20757,26821,46134
20674,26751,46010
20585,26676,45879
20502,26607,45750
20425,26544,45627
20348,26478,45501
20269,26408,45371
20192,26342,45245
20119,26281,45124
20047,26218,44999
19976,26153,44873
19906,26091,44756
19836,26033,44642
19767,25973,44521
19706,25916,44401
19653,25867,44294
19593,25815,44189
19523,25753,44075
19456,25694,43964
19398,25644,43864
19341,25594,43767
19281,25538,43668
19220,25484,43570
19157,25436,43474
19092,25388,43373
19027,25337,43266
18963,25286,43159
18894,25234,43052
18820,25172,42934
18741,25101,42807
18664,25033,42684
18591,24973,42569
18518,24918,42459
18450,24867,42356
18396,24830,42275
18360,24814,42223
18348,24815,42200
18370,24841,42221
18431,24899,42304
18527,24989,42454
18657,25105,42659
18829,25252,42923
19046,25436,43253
19295,25650,43638
19563,25875,44061
19842,26108,44514
20133,26356,45000
20433,26616,45509
20735,26879,46019
21028,27136,46519
21312,27388,47005
21581,27630,47467
21830,27851,47895
22056,28051,48292
22262,28236,48662
22437,28396,48988
22580,28524,49262
22702,28630,49499
22808,28722,49706
22894,28794,49880
22962,28846,50018
23022,28887,50125
23073,28926,50207
23113,28960,50270
23142,28986,50316
23163,29007,50351
23176,29024,50381
23185,29035,50401
23194,29037,50414
23203,29038,50432
23208,29039,50458
23206,29037,50478
23201,29028,50491
23201,29023,50503
23206,29024,50517
23208,29023,50521
23204,29017,50515
23192,29009,50503
23174,29000,50485
23150,28984,50454
23123,28963,50411
23091,28940,50362
23049,28906,50301
22999,28853,50222
22949,28794,50127
22898,28742,50026
22835,28692,49919
22754,28635,49806
22668,28573,49687
22587,28513,49571
22513,28459,49461
22444,28402,49350
22375,28342,49241
22312,28289,49143
22255,28243,49053
22203,28198,48965
22161,28157,48887
22129,28129,48827
22100,28103,48774
22068,28074,48718
22046,28050,48671
22034,28038,48637
22024,28030,48614
22015,28021,48592
22007,28009,48563
21997,27993,48528
21981,27969,48488
21966,27937,48447
21955,27908,48407
21942,27888,48371
21915,27864,48326
21873,27828,48266
21828,27794,48200
21781,27765,48137
21727,27734,48068
21671,27696,47990
21615,27653,47903
21552,27601,47809
21485,27538,47708
21420,27472,47603
21357,27410,47500
21289,27351,47394
21214,27290,47277
21140,27228,47153
21074,27174,47034
21008,27120,46919
20932,27055,46798
20850,26983,46671
20770,26914,46549
20696,26852,46432
20623,26789,46310
20549,26723,46184
20476,26663,46060
20402,26603,45935
20329,26534,45802
20261,26467,45670
20200,26409,45552
20131,26350,45438
20051,26282,45316
19975,26217,45195
19911,26165,45084
19847,26116,44975
19782,26064,44863
19721,26016,44754
19660,25972,44652
19596,25925,44551
19535,25875,44447
19478,25823,44346
19419,25770,44247
19359,25714,44142
19298,25654,44030
19239,25594,43919
19183,25539,43815
19123,25483,43710
19060,25421,43600
18999,25359,43493
18942,25306,43391
18885,25257,43286
18822,25209,43179
18755,25163,43076
18686,25119,42975
18618,25070,42874
18562,25026,42787
18526,24999,42733
18513,24996,42719
18525,25013,42740
18564,25051,42803
18640,25119,42924
18756,25222,43109
18904,25354,43344
19081,25511,43626
19287,25698,43958
19519,25909,44331
19769,26134,44730
20039,26373,45159
20325,26625,45619
20613,26879,46091
20897,27125,46558
21177,27366,47018
21447,27598,47468
21696,27814,47894
21921,28005,48284
22122,28174,48638
22298,28325,48955
22450,28456,49233
22584,28568,49469
22700,28665,49680
22798,28752,49870
22875,28820,50028
22932,28866,50146
22977,28902,50238
23015,28935,50319
23041,28958,50382
23056,28969,50427
23066,28977,50461
23074,28984,50490
23081,28989,50511
23088,28994,50527
23098,29000,50543
23110,29005,50558
23116,29001,50566
23116,28994,50568
23121,28994,50573
23128,29001,50580
23127,29001,50580
23115,28993,50572
23097,28982,50561
23070,28968,50542
23036,28944,50500
23003,28914,50443
22969,28884,50382
22928,28846,50312
22878,28796,50225
22825,28741,50129
22769,28686,50033
22705,28629,49931
22634,28564,49818
22562,28495,49695
22491,28429,49571
22427,28370,49451
22366,28313,49336
22310,28262,49230
22258,28223,49140
22213,28192,49063
22177,28164,48994
22149,28144,48940
22124,28132,48904
22099,28118,48875
22072,28098,48843
22052,28083,48815
22039,28076,48792
22027,28068,48767
22013,28052,48737
22001,28039,48707
21989,28029,48677
21971,28011,48637
21945,27982,48583
21916,27950,48525
21883,27915,48468
21844,27875,48403
21801,27833,48329
21759,27796,48257
21716,27762,48189
21665,27721,48112
21609,27670,48024
21555,27619,47936
21504,27574,47848
21449,27524,47750
21390,27470,47644
21330,27419,47538
21269,27369,47433
21202,27314,47321
21135,27256,47202
21070,27200,47086
20999,27139,46967
20919,27070,46839
20846,27002,46713
20784,26942,46597
20718,26883,46484
20642,26817,46365
20564,26747,46237
20486,26678,46107
20407,26611,45975
20331,26543,45844
20260,26480,45721
20195,26426,45612
20136,26375,45509
20083,26323,45403
20037,26274,45302
19992,26233,45208
19936,26191,45112
19873,26139,45007
19815,26083,44900
19762,26030,44797
19704,25976,44691
19639,25918,44579
19573,25862,44469
19506,25811,44364
19437,25757,44256
19366,25697,44145
19297,25637,44039
19229,25578,43938
19156,25515,43829
19084,25447,43713
19020,25389,43606
18962,25343,43510
18903,25299,43413
18845,25250,43312
18791,25203,43212
18742,25160,43114
18689,25115,43009
18636,25069,42905
18587,25030,42812
18543,24998,42731
18508,24972,42662
18492,24962,42622
18504,24979,42632
18541,25020,42688
18605,25081,42788
18706,25172,42945
18847,25297,43165
19016,25448,43436
19208,25615,43747
19430,25805,44102
19677,26020,44499
19936,26247,44923
20200,26477,45363
20470,26709,45816
20736,26943,46276
20992,27171,46727
21235,27387,47156
21466,27590,47560
21679,27779,47936
21871,27949,48277
22041,28096,48575
22193,28224,48836
22327,28337,49066
22439,28426,49258
22527,28490,49409
22597,28539,49535
22648,28579,49644
22681,28605,49731
22702,28623,49795
22722,28641,49846
22743,28662,49889
22757,28677,49920
22762,28682,49942
22764,28685,49964
22767,28688,49986
22771,28686,50000
22776,28683,50007
22780,28682,50013
22782,28682,50015
22784,28681,50007
22790,28683,49998
22797,28692,49995
22796,28699,49991
22783,28693,49973
22765,28678,49944
22745,28660,49910
22713,28631,49861
22666,28589,49789
22612,28541,49704
22555,28495,49614
22489,28444,49515
22418,28383,49402
22345,28316,49282
22273,28252,49163
22201,28190,49043
22133,28131,48922
22071,28075,48810
22014,28025,48713
21964,27979,48625
21922,27934,48541
21886,27894,48468
21854,27864,48414
21820,27839,48368
21783,27812,48320
21751,27788,48277
21731,27772,48242
21713,27758,48213
21694,27741,48183
21679,27727,48156
21666,27716,48132
21652,27702,48103
21636,27685,48064
21618,27667,48026
21597,27649,47988
21571,27625,47938
21544,27597,47876
21520,27573,47818
21491,27548,47758
21446,27509,47683
21392,27458,47596
21343,27410,47510
21299,27367,47425
21247,27318,47329
21187,27262,47222
21125,27208,47119
21064,27157,47020
21004,27104,46917
20945,27049,46809
20887,26996,46704
20827,26942,46601
20759,26880,46489
20688,26817,46375
20619,26762,46269
20544,26703,46161
20460,26634,46038
20379,26564,45913
20308,26502,45798
20238,26443,45686
20168,26380,45572
20103,26323,45459
20042,26272,45351
19981,26221,45243
19919,26167,45130
19858,26113,45014
19797,26062,44902
19733,26011,44793
19669,25956,44681
19608,25901,44574
19550,25848,44472
19490,25791,44366
19427,25732,44254
19365,25679,44146
19304,25631,44046
19240,25577,43945
19174,25519,43839
19116,25467,43740
19063,25424,43645
19008,25380,43546
18950,25335,43441
18892,25291,43340
18837,25249,43245
18781,25208,43149
18722,25162,43052
18663,25115,42958
18607,25069,42863
18550,25020,42762
18491,24970,42660
18431,24927,42565
18372,24886,42474
18316,24843,42381
18270,24802,42297
18239,24773,42238
18228,24758,42207
18240,24760,42203
18281,24787,42242
18353,24845,42336
18452,24929,42482
18577,25035,42676
18738,25171,42929
18937,25340,43239
19158,25532,43589
19391,25735,43964
19642,25956,44374
19910,26197,44817
20182,26439,45268
20449,26668,45712
20707,26889,46147
20953,27105,46571
21179,27304,46974
21386,27482,47349
21576,27644,47693
21747,27796,48004
21892,27928,48271
22010,28037,48494
22106,28125,48682
22181,28196,48838
22241,28249,48961
22290,28287,49057
22329,28317,49136
22357,28338,49199
22374,28346,49240
22388,28347,49266
22397,28350,49284
22398,28352,49294
22394,28349,49289
22394,28347,49279
22394,28348,49274
22386,28344,49265
22370,28328,49245
22357,28312,49227
22352,28305,49221
22344,28303,49214
22331,28297,49197
22320,28289,49178
22316,28282,49161
22301,28267,49131
22267,28235,49079
22223,28194,49009
22173,28149,48928
22111,28094,48831
22041,28028,48714
21970,27957,48592
21896,27889,48473
21820,27823,48354
21746,27756,48235
21674,27695,48119
21604,27644,48014
21541,27596,47916
21488,27549,47824
21447,27511,47748
21416,27485,47690
21388,27464,47638
21368,27447,47591
21360,27437,47555
21357,27431,47531
21352,27421,47508
21343,27405,47482
21340,27392,47465
21343,27386,47458
21341,27380,47449
21333,27373,47435
21323,27371,47424
21310,27373,47410
21292,27369,47384
21269,27355,47350
21244,27337,47314
21214,27317,47273
21177,27290,47218
21134,27256,47153
21092,27220,47087
21047,27179,47014
20997,27127,46925
20944,27069,46828
20889,27014,46734
20831,26959,46640
20767,26901,46536
20703,26843,46432
20642,26792,46335
20579,26743,46237
20511,26687,46129
20443,26630,46020
20381,26581,45916
20315,26530,45808
20243,26468,45687
20174,26407,45570
20112,26353,45465
20046,26296,45358
19973,26231,45241
19901,26166,45123
19833,26104,45008
19761,26040,44888
19683,25974,44765
19610,25915,44646
19544,25863,44536
19480,25810,44424
19415,25755,44306
19351,25703,44192
19285,25652,44084
19218,25598,43976
19151,25544,43871
19086,25494,43778
19023,25449,43690
18958,25403,43596
18900,25357,43502
18851,25315,43416
18802,25272,43329
18751,25224,43229
18703,25174,43126
18657,25130,43031
18608,25091,42939
18553,25048,42841
18496,25000,42739
18442,24957,42642
18393,24920,42552
18344,24880,42464
18290,24832,42372
18234,24783,42285
18190,24745,42209
18162,24719,42150
18150,24707,42118
18161,24717,42127
18199,24755,42179
18269,24818,42274
18372,24910,42425
18510,25035,42639
18678,25187,42902
18873,25355,43201
19096,25544,43546
19346,25756,43941
19609,25978,44369
19877,26207,44811
20152,26443,45266
20427,26684,45730
20689,26916,46187
20935,27134,46626
21169,27340,47046
21389,27533,47441
21591,27710,47800
21775,27866,48120
21937,28004,48407
22069,28120,48660
22171,28214,48874
22254,28287,49053
22323,28350,49209
22378,28401,49337
22418,28432,49429
22447,28451,49490
22474,28469,49541
22499,28487,49588
22514,28496,49621
22517,28495,49640
22516,28497,49655
22513,28499,49668
22505,28494,49673
22494,28480,49668
22486,28469,49662
22482,28467,49656
22480,28465,49642
22472,28456,49620
22455,28443,49599
22434,28424,49575
22407,28400,49540
22380,28371,49500
22349,28342,49459
22306,28306,49404
22249,28258,49324
22191,28207,49235
22136,28161,49144
22074,28111,49044
22001,28050,48930
21928,27986,48813
21863,27926,48699
21802,27868,48584
21744,27810,48467
21693,27761,48360
21648,27722,48267
21606,27684,48184
21571,27651,48114
21545,27629,48063
21525,27616,48029
21504,27600,47998
21482,27577,47965
21466,27559,47941
21456,27548,47929
21445,27535,47914
21431,27517,47893
21420,27501,47875
21406,27492,47862
21387,27479,47843
21363,27458,47813
21338,27440,47783
21317,27427,47755
21294,27412,47721
21266,27393,47679
21234,27372,47632
21193,27345,47575
21144,27308,47501
21091,27267,47419
21039,27231,47338
20982,27189,47249
20922,27136,47147
20865,27081,47043
20815,27031,46947
20760,26979,46849
20698,26920,46741
20638,26861,46631
20578,26802,46520
20512,26742,46405
20446,26681,46285
20381,26621,46165
20312,26566,46049
20239,26511,45937
20165,26451,45821
20094,26390,45706
20022,26332,45594
19948,26272,45479
19875,26208,45357
19805,26147,45239
19736,26088,45128
19664,26027,45014
19591,25964,44897
19526,25909,44791
19464,25862,44697
19396,25808,44597
19325,25748,44487
19263,25694,44384
19211,25647,44292
19158,25599,44198
19102,25546,44095
19047,25497,43995
18992,25455,43900
18933,25410,43800
18871,25362,43698
18812,25318,43603
18759,25277,43512
18707,25230,43413
18652,25177,43307
18597,25124,43203
18539,25070,43097
18480,25012,42983
18423,24956,42873
18368,24911,42778
18307,24866,42683
18237,24814,42575
18169,24765,42470
18115,24728,42384
18069,24696,42309
18032,24667,42248
18018,24655,42218
18031,24671,42233
18072,24712,42294
18148,24777,42407
18263,24871,42578
18416,24999,42808
18601,25155,43091
18815,25336,43421
19054,25544,43806
19316,25776,44239
19591,26019,44700
19876,26268,45183
20172,26525,45685
20468,26784,46194
20753,27031,46691
21025,27263,47166
21289,27491,47621
21541,27713,48058
21770,27912,48461
21972,28085,48824
22149,28236,49150
22302,28369,49436
22429,28478,49678
22534,28564,49882
22621,28635,50054
22692,28692,50192
22748,28736,50298
22795,28771,50382
22836,28803,50459
22862,28830,50524
22875,28845,50568
22888,28856,50603
22907,28871,50642
22926,28883,50682
22943,28887,50715
22961,28893,50745
22978,28906,50777
22988,28922,50807
22993,28934,50832
22995,28942,50852
22994,28949,50869
22992,28954,50880
22988,28950,50880
22981,28942,50875
22972,28934,50866
22955,28917,50841
22925,28889,50793
22887,28854,50733
22846,28819,50666
22793,28776,50584
22729,28722,50486
22661,28662,50379
22594,28601,50268
22528,28539,50151
22463,28478,50028
22398,28421,49914
22334,28371,49809
22271,28322,49707
22216,28273,49610
22170,28234,49528
22128,28204,49461
22086,28171,49394
22047,28133,49326
22019,28102,49274
22000,28082,49241
21983,28061,49212
21966,28039,49181
21954,28023,49156
21944,28017,49139
21929,28008,49117
21908,27992,49087
21885,27978,49057
21860,27965,49025
21831,27945,48983
21801,27921,48935
21771,27900,48889
21734,27876,48838
21687,27839,48772
21642,27799,48703
21603,27766,48637
21556,27728,48560
21495,27676,48464
21433,27620,48362
21377,27569,48265
21320,27518,48164
21258,27463,48055
21196,27407,47944
21136,27353,47837
21074,27295,47727
21006,27234,47613
20939,27174,47498
20870,27115,47382
20796,27053,47256
20722,26989,47118
20648,26928,46983
20573,26869,46858
20495,26802,46731
20418,26732,46601
20346,26668,46481
20275,26612,46367
20199,26550,46243
20117,26479,46105
20037,26409,45973
19964,26349,45853
19893,26291,45736
19822,26229,45618
19752,26170,45505
19686,26113,45397
19623,26056,45286
19567,26001,45175
19513,25952,45072
19455,25902,44972
19391,25847,44867
19332,25793,44761
19280,25749,44664
19229,25706,44568
19176,25657,44468
19123,25605,44364
19069,25558,44265
19012,25514,44168
18956,25468,44072
18897,25421,43972
18836,25372,43871
18775,25322,43768
18719,25271,43662
18665,25222,43562
18612,25179,43470
18556,25139,43381
18500,25099,43292
18460,25067,43218
18443,25053,43176
18447,25055,43169
18471,25074,43195
18527,25120,43268
18622,25202,43401
18752,25314,43592
18914,25454,43841
19109,25623,44154
19337,25822,44522
19589,26040,44930
19864,26277,45373
20159,26533,45853
20462,26801,46360
20761,27067,46869
21050,27321,47363
21331,27568,47854
21603,27808,48340
21857,28032,48799
22089,28235,49221
22300,28420,49610
22490,28586,49958
22656,28728,50257
22798,28850,50519
22920,28959,50753
23014,29047,50950
23083,29109,51107
23137,29155,51233
23186,29197,51342
23229,29234,51434
23261,29260,51504
23282,29273,51554
23297,29283,51593
23309,29292,51623
23317,29295,51642
23323,29297,51659
23329,29303,51678
23332,29307,51693
23334,29305,51696
23342,29303,51702
23355,29305,51716
23357,29307,51726
23350,29304,51726
23340,29303,51720
23327,29305,51713
23306,29299,51696
23276,29281,51660
23241,29257,51609
23197,29229,51546
23143,29190,51464
23084,29137,51368
23027,29080,51267
22966,29023,51163
22896,28959,51045
22819,28887,50917
22748,28822,50792
22683,28765,50675
22613,28704,50558
22539,28639,50442
22474,28581,50343
22421,28537,50262
22374,28496,50188
22329,28457,50118
22284,28425,50057
22246,28399,50004
22216,28374,49951
22196,28351,49902
22183,28335,49863
22166,28319,49825
22141,28296,49783
22122,28276,49745
22111,28266,49719
22095,28256,49691
22070,28239,49650
22043,28217,49601
22015,28196,49551
21981,28176,49500
21942,28150,49445
21898,28117,49383
21847,28076,49312
21790,28024,49228
21732,27964,49129
21674,27905,49027
21616,27852,48926
21552,27797,48818
21479,27734,48701
21406,27673,48582
21339,27618,48468
21270,27558,48344
21193,27486,48207
21113,27411,48068
21034,27340,47931
20956,27270,47793
20883,27201,47655
20814,27136,47523
20740,27072,47393
20656,27000,47256
20570,26926,47116
20492,26860,46983
20418,26797,46851
20340,26727,46711
20259,26653,46568
20180,26583,46433
20102,26517,46306
20023,26447,46174
19945,26376,46040
19874,26312,45913
19805,26255,45792
19732,26196,45665
19656,26130,45534
19581,26063,45407
19508,25999,45285
19436,25933,45157
19363,25867,45029
19293,25809,44914
19220,25755,44802
19142,25695,44684
19069,25637,44569
19005,25586,44464
18940,25534,44356
18869,25474,44240
18798,25412,44123
18731,25353,44011
18662,25295,43899
18595,25238,43783
18528,25185,43669
18459,25135,43560
18386,25080,43447
18310,25019,43326
18238,24962,43208
18172,24910,43098
18107,24858,42990
18044,24805,42882
17990,24759,42787
17950,24730,42722
17934,24721,42693
17953,24740,42711
18013,24795,42787
18109,24885,42925
18239,25003,43116
18404,25148,43363
18609,25326,43674
18846,25531,44043
19099,25749,44448
19363,25976,44881
19642,26218,45345
19934,26473,45832
20230,26727,46327
20522,26975,46820
20806,27222,47310
21073,27456,47775
21316,27663,48201
21540,27854,48593
21746,28033,48959
21926,28195,49290
22079,28329,49578
22210,28440,49822
22319,28530,50027
22406,28602,50190
22474,28657,50316
22523,28698,50414
22557,28729,50492
22575,28750,50545
22578,28753,50569
22577,28748,50579
22576,28746,50591
22568,28741,50595
22553,28726,50580
22542,28710,50558
22534,28701,50538
22526,28694,50516
22515,28685,50493
22506,28679,50478
22496,28676,50468
22480,28669,50449
22459,28656,50419
22440,28640,50387
22419,28622,50352
22391,28595,50304
22351,28559,50241
22303,28516,50171
22246,28467,50087
22182,28409,49984
22114,28351,49868
22046,28296,49750
21969,28234,49624
21880,28156,49484
21789,28075,49337
21706,28006,49200
21632,27947,49074
21560,27886,48950
21486,27823,48829
21418,27768,48717
21361,27721,48619
21312,27677,48529
21267,27634,48447
21227,27599,48381
21194,27570,48325
21161,27537,48269
21135,27510,48223
21119,27497,48198
21103,27486,48177
21084,27468,48144
21069,27454,48108
21057,27445,48076
21041,27434,48042
21019,27418,48000
20990,27395,47951
20951,27367,47898
20908,27335,47839
20867,27300,47772
20827,27261,47700
20783,27216,47625
20730,27163,47536
20669,27103,47430
20606,27047,47324
20545,27000,47225
20478,26949,47123
20404,26891,47010
20326,26828,46893
20247,26765,46774
20168,26699,46648
20090,26629,46513
20012,26557,46375
19931,26484,46234
19847,26406,46087
19765,26329,45940
19690,26260,45800
19614,26197,45662
19535,26130,45521
19455,26061,45378
19381,25996,45241
19313,25936,45110
19242,25870,44979
19164,25796,44843
19081,25724,44710
18999,25656,44580
18917,25585,44451
18837,25517,44324
18759,25457,44205
18679,25399,44086
18595,25334,43957
18517,25270,43833
18449,25215,43720
18380,25159,43609
18309,25098,43495
18246,25041,43385
18190,24992,43284
18133,24944,43181
18076,24892,43072
18020,24837,42963
17960,24786,42858
17897,24737,42752
17837,24688,42643
17782,24643,42540
17728,24601,42442
17669,24553,42337
17606,24497,42226
17546,24441,42120
17484,24387,42021
17416,24329,41917
17348,24270,41810
17287,24219,41709
17233,24179,41621
17183,24143,41538
17142,24111,41466
17121,24095,41423
17128,24104,41424
17169,24143,41476
17252,24216,41593
17381,24331,41782
17546,24478,42032
17742,24646,42330
17975,24842,42681
18242,25071,43089
18527,25322,43537
18820,25578,44007
19120,25835,44493
19422,26095,44988
19720,26352,45484
20006,26598,45969
20276,26828,46437
20531,27049,46885
20767,27252,47303
20976,27429,47675
21161,27585,48007
21321,27725,48304
21450,27837,48553
21550,27917,48748
21631,27979,48903
21703,28034,49029
21756,28077,49124
21785,28108,49185
21800,28134,49224
21809,28155,49252
21812,28166,49261
21809,28165,49256
21803,28160,49247
21797,28154,49236
21787,28138,49213
21775,28115,49182
21759,28092,49153
21738,28070,49125
21709,28045,49090
21679,28020,49053
21652,28003,49020
21624,27988,48986
21585,27958,48938
21536,27913,48872
21488,27867,48799
21442,27823,48721
21389,27772,48625
21323,27711,48509
21245,27649,48384
21162,27585,48251
21077,27514,48108
20998,27442,47964
20922,27373,47830
20836,27301,47695
20744,27224,47558
20663,27153,47432
20599,27096,47325
20546,27048,47231
20497,27004,47144
20453,26963,47068
20411,26931,47006
20374,26906,46954
20346,26884,46907
20325,26866,46867
20304,26853,46834
20282,26839,46805
20267,26824,46777
20262,26815,46758
20261,26816,46749
20252,26815,46737
20236,26804,46716
20219,26793,46694
20201,26786,46672
20176,26772,46637
20143,26744,46583
20104,26708,46518
20059,26668,46447
20011,26622,46367
19965,26574,46280
19919,26526,46194
19867,26475,46105
19805,26414,46003
19740,26350,45894
19676,26296,45788
19609,26246,45680
19534,26186,45561
19458,26119,45431
19383,26053,45304
19305,25990,45181
19219,25924,45052
19128,25852,44913
19041,25780,44772
18960,25712,44634
18879,25641,44493
18795,25569,44348
18709,25499,44210
18624,25430,44076
18539,25358,43936
