green_channel,red_channel,ir_channel
50217,6839,36763
50254,6871,36817
50281,6894,36864
50301,6913,36909
50316,6929,36942
50326,6941,36966
50333,6953,36992
50340,6964,37018
50349,6972,37035
50359,6977,37044
50366,6981,37054
50369,6981,37064
50375,6981,37068
50384,6985,37071
50390,6991,37082
50394,6997,37094
50402,7004,37100
50412,7011,37103
50418,7015,37107
50419,7017,37109
50422,7015,37100
50422,7010,37085
50418,7002,37074
50414,6995,37064
50410,6987,37047
50402,6976,37028
50392,6965,37010
50379,6951,36987
50362,6933,36957
50338,6909,36924
50308,6882,36895
50280,6853,36866
50256,6825,36836
50238,6806,36813
50228,6794,36800
50224,6786,36788
50220,6776,36774
50212,6765,36765
50200,6754,36758
50190,6746,36745
50183,6742,36731
50182,6741,36726
50188,6744,36730
50200,6752,36730
50215,6765,36727
50228,6778,36729
50243,6792,36732
50261,6806,36728
50279,6819,36725
50293,6829,36729
50301,6833,36734
50307,6830,36729
50308,6824,36718
50301,6814,36708
50287,6798,36695
50272,6781,36675
50255,6764,36654
50236,6747,36635
50216,6730,36613
50198,6711,36582
50177,6693,36550
50149,6675,36524
50119,6654,36497
50088,6629,36459
50056,6600,36417
50023,6570,36382
49995,6542,36344
49970,6515,36296
49941,6488,36249
49908,6459,36210
49874,6430,36169
49844,6402,36129
49816,6374,36091
49786,6346,36053
49754,6316,36008
49721,6286,35957
49685,6257,35907
49647,6227,35858
49613,6197,35808
49584,6167,35754
49559,6141,35707
49537,6119,35667
49515,6096,35627
49489,6070,35584
49458,6042,35544
49425,6015,35510
49395,5990,35476
49366,5966,35441
49336,5944,35409
49304,5923,35383
49273,5903,35349
49243,5881,35307
49214,5858,35265
49183,5833,35224
49153,5808,35177
49124,5785,35130
49097,5766,35092
49074,5751,35058
49059,5739,35023
49051,5730,34989
49050,5725,34965
49052,5720,34949
49055,5713,34928
49059,5703,34904
49063,5696,34884
49068,5692,34861
49070,5685,34833
49065,5675,34804
49055,5662,34775
49046,5648,34741
49035,5632,34703
49019,5614,34670
48999,5598,34651
48986,5586,34643
48983,5582,34647
48992,5591,34668
49012,5615,34705
49041,5652,34752
49083,5701,34809
49136,5762,34882
49203,5838,34978
49278,5922,35091
49358,6011,35217
49444,6105,35362
49538,6203,35522
49642,6303,35688
49748,6404,35856
49856,6504,36029
49967,6602,36204
50077,6696,36365
50180,6782,36513
50275,6861,36658
50361,6933,36794
50436,6996,36910
50503,7051,37010
50566,7103,37106
50622,7152,37197
50671,7197,37271
50710,7236,37328
50740,7271,37376
50762,7300,37418
50773,7320,37452
50776,7331,37477
50778,7340,37502
50782,7346,37525
50787,7348,37538
50790,7348,37543
50790,7347,37545
50791,7348,37548
50795,7349,37550
50803,7353,37557
50814,7361,37570
50830,7369,37577
50851,7376,37578
50873,7381,37576
50891,7387,37572
50908,7389,37560
50920,7389,37545
50928,7389,37535
50931,7389,37532
50935,7387,37527
50942,7385,37517
50948,7383,37505
50950,7377,37487
50948,7369,37462
50939,7361,37437
50923,7351,37421
50904,7339,37406
50891,7328,37384
50881,7318,37355
50870,7308,37330
50861,7297,37310
50853,7283,37285
50850,7273,37262
50847,7268,37252
50842,7264,37242
50840,7261,37225
50842,7260,37208
50843,7261,37199
50847,7263,37194
50855,7265,37190
50863,7267,37189
50871,7270,37195
50878,7275,37205
50888,7281,37212
50899,7287,37216
50909,7291,37217
50915,7292,37214
50910,7288,37204
50898,7279,37192
50883,7268,37182
50871,7257,37169
50863,7248,37153
50852,7241,37139
50838,7234,37126
50821,7222,37108
50799,7205,37083
50774,7183,37060
50745,7157,37041
50716,7129,37018
50686,7103,36989
50656,7080,36959
50627,7060,36928
50599,7037,36888
50569,7011,36844
50539,6982,36807
50509,6953,36771
50481,6926,36730
50456,6899,36686
50431,6875,36644
50407,6855,36600
50381,6833,36546
50351,6804,36485
50315,6768,36430
50280,6734,36382
50250,6705,36336
50224,6678,36294
50202,6655,36262
50182,6633,36235
50159,6608,36200
50134,6579,36158
50112,6554,36118
50093,6531,36080
50077,6507,36038
50058,6482,35997
50039,6461,35962
50026,6443,35929
50018,6427,35891
50006,6413,35853
49989,6403,35822
49969,6392,35795
49950,6380,35766
49930,6365,35733
49909,6348,35702
49889,6329,35671
49871,6310,35640
49849,6290,35613
49825,6269,35590
49801,6249,35558
49779,6229,35520
49755,6207,35486
49728,6185,35454
49704,6164,35419
49687,6145,35382
49673,6126,35350
49660,6110,35324
49645,6095,35292
49626,6077,35251
49604,6055,35211
49579,6030,35167
49552,6005,35112
49527,5981,35054
49506,5960,35010
49490,5945,34984
49482,5936,34965
49480,5936,34956
49485,5946,34966
49501,5968,34997
49530,6000,35040
49568,6042,35099
49614,6094,35182
49669,6157,35289
49738,6231,35412
49819,6316,35552
49909,6410,35711
50009,6512,35880
50121,6622,36049
50242,6736,36218
50367,6852,36397
50497,6969,36583
50622,7083,36763
50739,7189,36937
50847,7290,37108
50948,7385,37268
51041,7476,37410
51129,7562,37539
51212,7641,37660
51290,7712,37772
51362,7773,37873
51428,7828,37971
51487,7876,38065
51537,7912,38151
51579,7937,38223
51612,7956,38286
51639,7972,38341
51662,7987,38385
51677,8001,38423
51684,8012,38463
51687,8022,38501
51690,8029,38529
51695,8034,38549
51700,8041,38567
51708,8051,38586
51720,8062,38600
51736,8073,38613
51750,8086,38633
51768,8102,38660
51789,8116,38681
51813,8129,38694
51837,8141,38707
51856,8150,38714
51870,8150,38706
51878,8143,38690
51882,8135,38677
51884,8123,38662
51879,8108,38637
51866,8090,38608
51843,8072,38579
51815,8053,38548
51786,8033,38513
51761,8014,38482
51743,7998,38460
51728,7982,38438
51713,7964,38407
51695,7947,38369
51676,7933,38330
51657,7920,38293
51642,7905,38261
51631,7892,38245
51623,7883,38243
51618,7879,38244
51616,7878,38249
51615,7880,38261
51617,7883,38273
51620,7886,38275
51622,7887,38269
51621,7887,38265
51616,7891,38268
51608,7896,38271
51601,7900,38270
51598,7902,38270
51599,7901,38270
51604,7899,38263
51611,7894,38252
51614,7887,38245
51613,7878,38240
51609,7867,38224
51601,7852,38195
51586,7833,38165
51568,7816,38135
51547,7798,38103
51520,7777,38071
51488,7756,38044
51452,7733,38017
51417,7705,37978
51384,7672,37927
51353,7636,37875
51318,7598,37826
51284,7561,37773
51256,7527,37719
51229,7495,37670
51199,7464,37620
51170,7435,37566
51143,7412,37518
51117,7391,37482
51091,7368,37448
51064,7343,37410
51034,7316,37369
51000,7286,37325
50964,7254,37273
50933,7224,37216
50908,7197,37162
50885,7171,37117
50862,7141,37068
50839,7107,37012
50815,7076,36963
50792,7052,36922
50767,7031,36879
50737,7008,36829
50704,6986,36780
50670,6966,36740
50637,6948,36701
50605,6931,36663
50575,6915,36632
50551,6900,36604
50536,6884,36569
50523,6864,36526
50506,6839,36483
50487,6810,36440
50470,6781,36394
50452,6754,36349
50434,6727,36312
50413,6700,36281
50388,6669,36249
50359,6635,36212
50331,6602,36175
50309,6572,36136
50291,6547,36093
50272,6523,36053
50249,6499,36020
50222,6475,35988
50191,6451,35949
50155,6429,35905
50120,6410,35866
50088,6391,35831
50059,6372,35794
50029,6354,35756
50001,6334,35719
49977,6310,35675
49954,6282,35627
49931,6251,35581
49907,6219,35540
49887,6188,35499
49869,6159,35453
49852,6134,35414
49833,6116,35382
49816,6103,35350
49804,6096,35326
49796,6095,35320
49793,6103,35334
49797,6118,35356
49809,6138,35387
49835,6169,35440
49877,6216,35519
49929,6276,35615
49993,6349,35726
50071,6432,35864
50160,6525,36021
50258,6626,36185
50361,6733,36357
50467,6845,36543
50576,6960,36737
50689,7079,36927
50806,7198,37113
50927,7318,37300
51050,7435,37484
51169,7540,37653
51279,7634,37806
51377,7719,37952
51466,7798,38089
51547,7871,38212
51622,7937,38328
51692,8001,38441
51752,8059,38545
51800,8107,38633
51840,8145,38708
51870,8174,38773
51891,8194,38822
51906,8208,38857
51917,8220,38892
51928,8234,38933
51943,8252,38974
51957,8270,39011
51969,8287,39044
51979,8301,39073
51986,8312,39094
51990,8320,39112
51991,8326,39140
51992,8331,39177
51994,8337,39209
51998,8343,39232
52004,8348,39251
52013,8354,39267
52024,8362,39276
52034,8371,39277
52039,8374,39274
52039,8371,39266
52036,8363,39246
52027,8352,39219
52011,8338,39193
51993,8324,39164
51976,8312,39128
51958,8298,39090
51939,8285,39059
51921,8272,39031
51902,8256,38998
51882,8239,38968
51864,8227,38946
51853,8217,38929
51847,8206,38912
51843,8197,38905
51840,8192,38909
51838,8189,38914
51842,8188,38911
51852,8190,38907
51862,8198,38909
51870,8203,38908
51875,8202,38896
51880,8198,38885
51882,8193,38881
51881,8188,38878
51879,8183,38871
51873,8178,38866
51864,8174,38865
51852,8167,38857
51839,8157,38840
51823,8146,38825
51801,8132,38810
51776,8114,38786
51746,8091,38753
51712,8065,38723
51675,8038,38695
51640,8010,38660
51603,7980,38616
51564,7951,38574
51524,7925,38538
51483,7900,38497
51445,7873,38453
51409,7846,38415
51372,7819,38382
51330,7792,38343
51283,7762,38299
51236,7736,38260
51192,7714,38222
51152,7689,38177
51114,7661,38129
51078,7632,38086
51048,7605,38047
51025,7582,38007
51007,7561,37971
50986,7541,37941
50964,7519,37907
50942,7495,37865
50920,7474,37826
50902,7456,37796
50884,7440,37769
50862,7422,37736
50836,7398,37697
50810,7372,37658
50781,7346,37616
50746,7315,37569
50707,7277,37517
50665,7236,37464
50626,7196,37409
50589,7157,37353
50558,7121,37308
50533,7090,37274
50511,7063,37235
50496,7039,37190
50489,7022,37150
50484,7009,37117
50476,6995,37079
50466,6979,37036
50457,6963,36999
50447,6950,36971
50433,6938,36942
50414,6924,36908
50390,6906,36872
50366,6885,36835
50340,6862,36787
50310,6836,36730
50277,6810,36683
50243,6785,36647
50215,6762,36609
50190,6737,36566
50158,6705,36521
50118,6669,36473
50076,6632,36419
50034,6594,36368
49989,6559,36322
49945,6529,36277
49906,6504,36231
49872,6482,36183
49840,6457,36134
49806,6430,36082
49774,6404,36031
49743,6377,35984
49716,6352,35943
49696,6330,35907
49680,6310,35869
49664,6293,35834
49647,6279,35809
49631,6267,35792
49619,6257,35781
49612,6252,35785
49615,6259,35809
49632,6280,35846
49663,6312,35898
49707,6356,35972
49759,6411,36068
49821,6477,36178
49895,6555,36302
49981,6648,36447
50078,6757,36612
50184,6876,36788
50296,6996,36971
50407,7114,37163
50513,7227,37352
50613,7331,37524
50704,7425,37684
50791,7510,37843
50872,7587,37996
50948,7654,38135
51015,7713,38261
51073,7766,38379
51125,7816,38482
51176,7861,38564
51218,7902,38629
51251,7937,38684
51279,7969,38733
51304,8000,38771
51322,8024,38807
51333,8042,38847
51339,8056,38884
51343,8066,38913
51345,8075,38939
51343,8078,38960
51338,8075,38970
51331,8067,38968
51326,8061,38965
51322,8058,38967
51319,8056,38970
51320,8057,38975
51328,8061,38984
51338,8067,38997
51351,8074,39007
51363,8079,39010
51369,8079,39009
51369,8074,39005
51365,8066,38990
51356,8056,38969
51343,8047,38949
51327,8036,38929
51312,8024,38901
51297,8012,38871
51281,7999,38847
51266,7986,38826
51252,7970,38798
51237,7949,38760
51216,7924,38722
51191,7897,38685
51169,7873,38644
51150,7856,38608
51137,7847,38585
51133,7846,38574
51140,7851,38571
51153,7859,38572
51169,7870,38582
51188,7884,38596
51208,7898,38607
51227,7910,38620
51245,7922,38641
51264,7936,38663
51284,7952,38677
51300,7964,38688
51311,7970,38699
51321,7973,38708
51330,7974,38706
51336,7972,38699
51332,7966,38690
51318,7957,38674
51300,7947,38650
51285,7938,38629
51273,7932,38614
51262,7923,38597
51253,7909,38573
51239,7890,38546
51213,7864,38516
51182,7833,38481
51149,7802,38441
51114,7771,38402
51076,7739,38361
51041,7708,38314
51008,7677,38260
50975,7646,38208
50941,7613,38158
50903,7576,38100
50863,7538,38040
50822,7504,37988
50780,7471,37936
50742,7439,37882
50704,7413,37829
50668,7393,37785
50639,7378,37748
50615,7364,37705
50595,7346,37663
50576,7326,37628
50562,7306,37597
50555,7290,37562
50555,7278,37526
50558,7270,37495
50560,7262,37467
50561,7252,37436
50558,7240,37409
50551,7229,37391
50540,7218,37370
50526,7203,37340
50510,7187,37308
50489,7173,37277
50465,7160,37243
50437,7144,37203
50410,7125,37165
50389,7106,37134
50371,7084,37106
50352,7060,37073
50330,7034,37038
50308,7005,37002
50289,6974,36960
50272,6944,36917
50259,6918,36883
50251,6898,36856
50251,6883,36824
50251,6866,36783
50243,6845,36738
50231,6823,36695
50219,6801,36650
50205,6779,36607
50185,6758,36571
50160,6738,36539
50134,6717,36506
50107,6695,36477
50082,6676,36464
50066,6667,36469
50064,6667,36481
50074,6679,36503
50094,6704,36547
50126,6741,36611
50169,6785,36688
50223,6839,36783
50287,6906,36900
50363,6984,37031
50448,7066,37164
50536,7151,37302
50621,7238,37449
50703,7326,37594
50778,7410,37728
50846,7494,37856
50911,7577,37985
50973,7653,38106
51033,7719,38214
51090,7775,38314
51144,7825,38411
51192,7866,38496
51231,7898,38562
51263,7922,38618
51291,7943,38671
51319,7964,38719
51349,7984,38760
51381,8006,38797
51415,8030,38833
51446,8052,38861
51469,8067,38876
51483,8075,38883
51488,8076,38884
51491,8073,38878
51491,8068,38868
51490,8063,38861
51492,8060,38857
51498,8056,38849
51502,8051,38839
51503,8043,38835
51500,8032,38829
51496,8019,38809
51490,8008,38783
51482,7997,38761
51473,7983,38738
51458,7962,38704
51438,7935,38664
51416,7908,38631
51391,7881,38601
51360,7851,38558
51330,7823,38509
51302,7798,38462
51276,7774,38413
51247,7747,38362
51210,7717,38313
51170,7687,38272
51136,7663,38238
51110,7642,38201
51087,7624,38164
51070,7612,38137
51056,7603,38117
51040,7593,38097
51024,7579,38077
51008,7565,38059
50995,7551,38037
50989,7539,38011
50988,7530,37992
50987,7526,37986
50988,7524,37982
50992,7522,37976
51000,7525,37975
51013,7534,37983
51028,7546,37990
51037,7555,37988
51038,7560,37982
51029,7557,37972
51017,7550,37955
51004,7540,37937
50987,7527,37923
50965,7513,37908
50938,7496,37880
50906,7471,37842
50869,7441,37804
50831,7410,37763
50792,7377,37714
50752,7341,37663
50711,7307,37623
50669,7272,37586
50630,7235,37538
50596,7199,37484
50570,7169,37437
50549,7146,37395
50529,7124,37348
50507,7102,37299
50480,7080,37256
50448,7057,37215
50414,7034,37166
50383,7011,37112
50354,6989,37062
50327,6965,37015
50306,6941,36966
50288,6919,36920
50274,6898,36884
50264,6878,36853
50257,6859,36819
50250,6840,36781
50242,6820,36740
50231,6801,36694
50218,6784,36648
50203,6767,36613
50183,6748,36584
50160,6727,36548
50140,6705,36506
50120,6681,36467
50098,6658,36433
50073,6635,36396
50046,6609,36354
50018,6584,36316
49992,6560,36281
49969,6538,36238
49947,6517,36189
49925,6498,36146
49905,6483,36111
49888,6470,36074
49874,6456,36035
49860,6438,36000
49846,6420,35968
49834,6402,35929
49821,6383,35889
49809,6366,35859
49798,6353,35835
49789,6340,35805
49779,6324,35772
49766,6305,35747
49754,6284,35720
49739,6257,35684
49720,6230,35646
49704,6206,35612
49689,6184,35574
49675,6166,35531
49662,6152,35490
49650,6142,35458
49640,6133,35432
49632,6123,35412
49626,6117,35409
49623,6121,35430
49630,6137,35471
49651,6166,35527
49687,6211,35606
49739,6270,35711
49805,6342,35832
49879,6424,35965
49957,6512,36113
50037,6602,36273
50119,6694,36434
50205,6786,36588
50290,6879,36742
50370,6969,36896
50446,7053,37041
50518,7128,37173
50583,7195,37298
50641,7257,37417
50691,7312,37525
50732,7360,37621
50768,7401,37710
50802,7438,37790
50835,7471,37851
50861,7498,37895
50881,7518,37933
50898,7533,37969
50909,7539,37992
50914,7538,38004
50913,7538,38017
50912,7539,38032
50915,7540,38040
50922,7545,38051
50930,7553,38070
50941,7565,38092
50953,7576,38108
50964,7580,38117
50976,7583,38130
50994,7586,38144
51014,7589,38155
51034,7595,38163
51051,7604,38167
51066,7612,38163
51077,7616,38150
51080,7616,38135
51078,7618,38125
51077,7625,38121
51074,7629,38119
51067,7629,38117
51056,7625,38110
51041,7614,38092
51019,7595,38063
50992,7571,38034
50963,7549,38010
50934,7528,37981
50905,7505,37946
50876,7479,37911
50847,7456,37881
50819,7436,37850
50794,7419,37819
50776,7408,37797
50767,7401,37784
50763,7395,37770
50760,7389,37756
50759,7385,37751
50766,7386,37751
50776,7387,37743
50787,7385,37727
50798,7383,37719
50811,7384,37717
50828,7391,37716
50849,7403,37717
50874,7417,37725
50898,7427,37729
50916,7428,37720
50930,7427,37707
50940,7426,37704
50948,7423,37702
50956,7417,37689
50960,7406,37669
50960,7390,37649
50957,7371,37624
50951,7348,37591
50946,7324,37561
50945,7303,37535
50945,7281,37504
50941,7254,37461
50932,7221,37412
50919,7186,37364
50905,7151,37312
50886,7113,37256
50858,7076,37201
50827,7041,37151
50800,7011,37097
50778,6988,37039
50758,6965,36978
50737,6942,36919
50710,6915,36859
50677,6884,36795
50644,6853,36738
50613,6824,36691
50586,6797,36645
50558,6772,36599
50524,6748,36556
50483,6721,36512
50438,6690,36460
50392,6661,36407
50345,6635,36362
50298,6610,36321
50254,6585,36276
50215,6559,36231
50178,6534,36193
50144,6511,36155
50115,6490,36116
50088,6466,36078
50061,6444,36044
50033,6421,36006
50005,6398,35957
49977,6373,35908
49947,6349,35867
49920,6330,35832
49901,6317,35799
49887,6309,35773
49878,6302,35753
49869,6291,35731
49857,6276,35703
49841,6261,35676
49823,6246,35650
49810,6230,35618
49803,6213,35581
49800,6198,35551
49797,6184,35527
49792,6171,35498
49781,6155,35462
49764,6136,35429
49742,6116,35402
49721,6098,35378
49704,6087,35360
49692,6081,35361
49686,6082,35381
49689,6093,35410
49706,6117,35453
49734,6154,35515
49770,6200,35590
49820,6257,35674
49880,6327,35775
49950,6410,35904
50033,6504,36053
50125,6601,36206
50218,6698,36357
50309,6792,36512
50401,6885,36666
50494,6976,36813
50587,7061,36953
50680,7143,37091
50772,7220,37226
50860,7291,37346
50935,7355,37450
50996,7413,37546
51047,7462,37632
51089,7501,37705
51121,7531,37769
51146,7555,37828
51161,7574,37877
51173,7588,37913
51183,7598,37941
51194,7608,37968
51207,7617,37995
51219,7624,38016
51232,7632,38038
51248,7644,38064
51265,7655,38090
51278,7665,38111
51284,7668,38129
51286,7667,38146
51287,7667,38157
51286,7665,38162
51282,7664,38171
51277,7670,38186
51273,7681,38196
51269,7690,38198
51261,7696,38202
51247,7697,38203
51225,7691,38194
51198,7678,38173
51164,7659,38148
51126,7637,38122
51085,7614,38088
51041,7589,38048
50995,7562,38011
50952,7534,37971
50913,7505,37924
50879,7479,37881
50851,7460,37854
50829,7446,37833
50812,7432,37811
50800,7420,37791
50796,7415,37782
50805,7417,37783
50822,7423,37788
50839,7432,37793
50857,7442,37799
50881,7453,37802
50909,7463,37802
50938,7471,37806
50964,7477,37818
50984,7479,37824
51002,7481,37816
51016,7479,37798
51024,7473,37776
51024,7462,37752
51016,7447,37726
51004,7432,37707
50994,7418,37694
50986,7407,37677
50980,7399,37653
50970,7390,37629
50956,7380,37600
50939,7370,37565
50921,7360,37531
50901,7348,37505
50880,7335,37485
50860,7321,37461
50842,7305,37433
50825,7288,37406
50810,7270,37380
50799,7250,37345
50788,7229,37305
50776,7207,37273
50761,7186,37244
50745,7166,37208
50729,7143,37169
50711,7119,37136
50693,7093,37102
50672,7062,37056
50647,7026,37001
50617,6989,36951
50584,6957,36906
50550,6929,36857
50517,6903,36808
50484,6877,36764
50453,6854,36722
50424,6830,36675
50391,6802,36626
50351,6770,36580
50308,6737,36536
50267,6705,36489
50229,6676,36447
50191,6649,36414
50150,6622,36382
50104,6592,36344
50054,6561,36303
49998,6528,36261
49940,6494,36209
49885,6458,36155
49833,6422,36107
49787,6391,36067
49748,6365,36027
49710,6339,35985
49668,6307,35943
49625,6272,35903
49589,6241,35862
49558,6215,35819
49527,6193,35781
49497,6174,35747
49471,6158,35715
49449,6144,35684
49428,6130,35659
49408,6118,35640
49393,6111,35624
49383,6111,35617
49383,6118,35631
49397,6135,35665
49423,6164,35711
49461,6203,35769
49512,6255,35848
49577,6321,35946
49650,6394,36052
49725,6474,36168
49806,6563,36306
49896,6657,36458
49991,6754,36612
50090,6850,36771
50192,6950,36938
50293,7048,37101
50386,7138,37249
50466,7217,37387
50536,7288,37520
50599,7353,37644
50656,7413,37756
50712,7471,37862
50769,7525,37961
50819,7570,38041
50858,7603,38097
50888,7630,38141
50910,7653,38178
50928,7672,38207
50945,7688,38229
50961,7704,38253
50979,7719,38273
50995,7725,38281
51007,7723,38281
51009,7716,38288
51007,7711,38303
51006,7711,38318
51003,7713,38329
50998,7715,38342
50993,7715,38355
50989,7715,38359
50980,7712,38357
50971,7712,38359
50963,7712,38361
50955,7709,38355
50945,7699,38343
50932,7686,38332
50919,7672,38314
50909,7659,38281
50905,7649,38248
50904,7640,38223
50901,7627,38191
50897,7613,38147
50892,7599,38103
50886,7587,38064
50881,7577,38031
50876,7567,37997
50870,7553,37965
50863,7539,37940
50858,7527,37921
50850,7513,37899
50837,7495,37877
50823,7477,37859
50812,7464,37844
50802,7456,37829
50796,7450,37822
50791,7447,37823
50790,7446,37821
50794,7448,37814
50802,7451,37810
50810,7453,37809
50816,7454,37802
50818,7451,37790
50814,7446,37782
50807,7439,37775
50797,7430,37763
50783,7418,37744
50764,7406,37726
50741,7394,37708
50715,7382,37682
50691,7367,37653
50664,7351,37630
50635,7333,37609
50604,7317,37581
50571,7303,37549
50533,7285,37523
50495,7262,37498
50462,7238,37469
50432,7214,37441
50403,7195,37416
50373,7173,37384
50344,7142,37336
50315,7106,37285
50281,7067,37237
50241,7026,37184
50201,6991,37127
50164,6963,37076
50129,6943,37035
50095,6924,36995
50066,6902,36949
50036,6875,36905
50005,6847,36867
49973,6819,36825
49942,6789,36777
49910,6759,36733
49879,6731,36699
49853,6706,36666
49831,6685,36634
49808,6667,36602
49783,6650,36569
49752,6627,36529
49715,6597,36484
49673,6564,36443
49633,6532,36404
49600,6506,36365
49572,6485,36325
49547,6469,36292
49525,6455,36263
49506,6441,36228
49493,6426,36193
49483,6417,36166
49474,6412,36139
49462,6406,36101
49447,6394,36053
49430,6378,36012
49416,6364,35981
49401,6348,35950
49383,6329,35915
49362,6307,35885
49340,6287,35857
49322,6271,35828
49308,6258,35802
49295,6247,35788
49290,6244,35789
49297,6250,35798
49315,6267,35819
49343,6298,35861
49381,6338,35920
49429,6381,35986
49484,6431,36063
49547,6494,36163
49620,6569,36282
49703,6649,36408
49791,6732,36543
49883,6822,36692
49978,6915,36845
50075,7010,36998
50176,7107,37153
50275,7199,37304
50369,7282,37442
50453,7355,37567
50522,7420,37682
50577,7478,37788
50622,7527,37876
50660,7565,37943
50696,7597,38004
50731,7628,38063
50764,7656,38107
50795,7679,38135
50816,7697,38159
50831,7709,38179
50843,7718,38191
50853,7724,38194
50865,7731,38200
50879,7739,38209
50896,7751,38212
50912,7760,38209
50924,7765,38211
50936,7768,38218
50948,7770,38217
50959,7770,38210
50970,7774,38210
50982,7783,38211
50994,7789,38207
51003,7792,38203
51013,7794,38201
51025,7793,38195
51036,7786,38177
51038,7772,38153
51029,7754,38132
51017,7737,38115
51003,7720,38095
50988,7701,38070
50973,7682,38046
50962,7664,38017
50951,7647,37984
50937,7627,37952
50918,7605,37921
50894,7581,37887
50870,7557,37855
50851,7540,37831
50838,7530,37811
50829,7521,37788
50819,7513,37762
50806,7503,37742
50793,7493,37731
50785,7488,37720
50780,7489,37707
50777,7492,37699
50778,7496,37695
50787,7499,37687
50798,7500,37677
50801,7496,37673
50799,7487,37671
50798,7476,37661
50800,7468,37649
50800,7464,37643
50796,7460,37635
50794,7456,37621
50791,7451,37601
50783,7441,37583
50772,7427,37560
50758,7409,37526
50735,7385,37491
50705,7358,37462
50674,7331,37433
50644,7306,37400
50615,7279,37362
50589,7254,37325
50567,7231,37287
50547,7208,37243
50522,7183,37199
50495,7159,37154
50467,7136,37108
50438,7110,37055
50404,7083,36998
50369,7055,36943
50334,7026,36889
50298,6993,36834
50264,6960,36788
50233,6928,36753
50204,6897,36717
50180,6868,36677
50160,6843,36643
50145,6825,36614
50133,6812,36581
50120,6802,36546
50106,6790,36516
50093,6775,36487
50080,6758,36451
50062,6736,36408
50036,6711,36364
50007,6685,36317
49977,6659,36266
49949,6632,36218
49923,6606,36182
49902,6586,36152
49886,6567,36118
49868,6543,36079
49849,6517,36044
49832,6494,36014
49817,6472,35977
49804,6450,35934
49790,6426,35894
49775,6406,35857
49763,6393,35822
49756,6386,35793
49757,6383,35776
49763,6380,35758
49769,6371,35726
49768,6356,35682
49760,6336,35637
49748,6314,35592
49731,6290,35543
49708,6266,35499
49688,6248,35466
49677,6238,35442
49672,6237,35425
49668,6243,35424
49670,6258,35440
49680,6281,35468
49700,6313,35509
49730,6353,35572
49772,6404,35660
49827,6468,35766
49894,6541,35886
49966,6622,36023
50043,6710,36176
50130,6804,36334
50224,6900,36493
50317,6994,36651
50407,7085,36802
50493,7174,36944
50578,7262,37083
50665,7346,37225
50754,7425,37359
50841,7498,37472
50920,7564,37571
50989,7620,37664
51047,7665,37748
51098,7701,37815
51140,7728,37866
51174,7749,37912
51201,7767,37956
51223,7781,37997
51242,7796,38038
51263,7812,38084
51285,7828,38122
51303,7841,38143
51320,7853,38157
51334,7865,38174
51343,7875,38186
51350,7880,38188
51355,7885,38190
51358,7888,38199
51356,7890,38208
51355,7894,38214
51354,7896,38219
51354,7895,38227
51353,7889,38231
51344,7876,38224
51326,7856,38207
51304,7834,38185
51281,7814,38159
51249,7794,38125
51207,7771,38088
51161,7746,38049
51113,7718,38006
51068,7691,37960
51027,7662,37918
50990,7630,37880
50954,7596,37836
50916,7564,37789
50878,7534,37749
50840,7505,37713
50801,7473,37673
50763,7440,37636
50731,7413,37612
50704,7394,37595
50683,7379,37576
50664,7367,37555
50646,7356,37541
50629,7345,37528
50617,7334,37507
50606,7324,37486
50592,7313,37473
50572,7298,37462
50548,7276,37442
50524,7252,37418
50500,7232,37401
50480,7218,37386
50457,7204,37363
50426,7185,37333
50385,7158,37302
50337,7126,37268
50278,7088,37231
50215,7046,37194
50155,7006,37163
50103,6970,37131
50060,6941,37095
50026,6918,37064
49999,6900,37038
49974,6880,37008
49944,6855,36968
49911,6828,36928
49879,6800,36889
49850,6768,36845
49823,6732,36800
49798,6699,36761
49775,6668,36727
49752,6637,36687
49725,6605,36637
49694,6574,36588
49663,6547,36541
49633,6523,36489
49600,6498,36431
49565,6474,36376
49527,6445,36326
49482,6413,36270
49433,6382,36212
49379,6351,36160
49327,6320,36114
49280,6289,36063
49234,6256,36007
49191,6226,35957
49154,6198,35913
49118,6169,35862
49075,6134,35803
49026,6097,35744
48978,6062,35691
48931,6030,35640
48889,6002,35595
48853,5979,35562
48823,5960,35535
48799,5943,35506
48779,5927,35474
48761,5913,35446
48743,5902,35419
48724,5889,35392
48703,5871,35367
48679,5849,35343
48656,5825,35313
48639,5802,35277
48623,5780,35243
48606,5760,35212
48587,5744,35178
48566,5729,35140
48542,5714,35103
48511,5696,35073
48478,5675,35039
48450,5653,35000
48426,5632,34964
48405,5612,34930
48390,5592,34889
48378,5569,34842
48363,5541,34800
48345,5512,34765
48329,5487,34725
48318,5465,34685
48311,5448,34651
48308,5435,34620
48306,5425,34586
48304,5417,34551
48300,5411,34528
48295,5407,34513
48293,5406,34499
48299,5411,34492
48311,5425,34503
48330,5449,34533
48360,5482,34578
48399,5525,34643
48442,5576,34731
48495,5634,34832
48558,5701,34941
48625,5776,35058
48696,5858,35188
48776,5946,35329
48866,6041,35476
48964,6139,35631
49064,6238,35793
49164,6334,35949
49262,6427,36092
49358,6513,36228
49450,6593,36360
49538,6671,36484
49620,6742,36592
49692,6804,36686
49757,6857,36772
49817,6903,36850
49871,6941,36913
49920,6971,36966
49963,6996,37012
49996,7012,37040
50018,7021,37052
50032,7028,37065
50041,7036,37086
50047,7044,37105
50048,7049,37120
50043,7054,37137
50032,7056,37149
50021,7055,37151
50012,7055,37148
50003,7054,37150
49995,7053,37156
49988,7046,37152
49982,7035,37138
49969,7021,37123
49950,7008,37109
49931,6994,37091
49914,6983,37074
49903,6976,37066
49898,6970,37062
49892,6959,37051
49878,6940,37031
49852,6913,37008
49817,6881,36981
49782,6849,36946
49750,6822,36908
49721,6801,36872
49691,6782,36831
49661,6765,36785
49631,6744,36744
49603,6719,36712
49579,6694,36683
49557,6670,36654
49536,6648,36630
49514,6628,36609
49494,6610,36589
49475,6593,36572
49462,6585,36566
49461,6587,36570
49471,6594,36573
49485,6600,36574
49497,6606,36575
49503,6609,36576
49497,6606,36568
49483,6596,36552
49467,6586,36540
49455,6582,36532
49446,6580,36517
49439,6577,36492
49436,6572,36470
49435,6567,36451
49436,6564,36430
49434,6559,36409
49426,6547,36392
49413,6529,36372
49393,6505,36343
49367,6478,36311
49340,6453,36283
49313,6431,36253
49290,6413,36216
49270,6395,36175
49251,6377,36137
49232,6355,36099
49214,6331,36055
49193,6306,36009
49170,6281,35968
49149,6260,35932
49130,6240,35895
49107,6215,35856
49079,6186,35816
49048,6158,35771
49017,6131,35720
48985,6105,35673
48954,6081,35635
48924,6057,35598
48894,6036,35557
48864,6016,35515
48836,5996,35478
48811,5977,35441
48791,5959,35402
48769,5938,35364
48749,5918,35326
48735,5902,35289
48726,5890,35254
48715,5878,35225
48704,5866,35198
48692,5850,35165
48675,5830,35128
48651,5808,35098
48623,5786,35076
48596,5763,35052
48568,5740,35025
48541,5716,35004
48513,5692,34984
48484,5669,34952
48458,5647,34913
48434,5626,34874
48411,5606,34833
48391,5585,34788
48370,5566,34746
48345,5546,34710
48321,5528,34677
48303,5514,34643
48288,5501,34608
48274,5488,34578
48259,5472,34549
48241,5452,34514
48220,5430,34478
48195,5409,34447
48166,5388,34414
48134,5368,34375
48104,5349,34336
48083,5335,34312
48072,5327,34300
48067,5323,34294
48066,5323,34301
48070,5332,34327
48083,5353,34372
48107,5388,34435
48137,5430,34516
48174,5482,34612
48220,5543,34719
48274,5611,34834
48337,5688,34962
48409,5772,35096
48491,5861,35227
48578,5952,35355
48667,6041,35484
48754,6126,35612
48836,6205,35731
48911,6275,35840
48982,6337,35948
49048,6395,36047
49109,6446,36125
49161,6490,36189
49202,6526,36249
49236,6556,36301
49265,6579,36334
49286,6594,36354
49301,6602,36369
49312,6608,36383
49323,6611,36394
49327,6609,36401
49322,6604,36407
49314,6599,36408
49308,6595,36404
49305,6591,36401
49306,6591,36402
49313,6594,36402
49324,6599,36396
49334,6598,36383
49341,6593,36370
49347,6587,36358
49350,6580,36342
49348,6574,36322
49344,6570,36301
49339,6563,36278
49332,6553,36252
49319,6541,36224
49302,6528,36198
49285,6520,36169
49269,6512,36138
49253,6501,36105
49236,6487,36071
49221,6469,36034
49211,6449,35994
49206,6430,35962
49202,6413,35937
49201,6396,35912
49205,6384,35890
49213,6378,35880
49224,6376,35877
49237,6378,35870
49252,6384,35862
49266,6392,35860
49282,6402,35859
49302,6413,35852
49324,6425,35845
49342,6437,35848
49357,6446,35852
49369,6452,35847
49383,6460,35841
49400,6470,35843
49418,6481,35845
49436,6491,35843
49451,6500,35841
49463,6507,35843
49471,6510,35845
49475,6508,35840
49473,6503,35833
49468,6501,35832
49461,6495,35826
49446,6479,35809
49420,6454,35784
49386,6426,35759
49352,6400,35732
49321,6381,35696
49291,6365,35660
49264,6350,35631
49240,6334,35600
49215,6316,35565
49187,6295,35528
49157,6272,35495
49128,6249,35457
49104,6227,35416
49085,6208,35384
49070,6194,35360
49060,6181,35330
49052,6166,35296
49041,6147,35269
49029,6129,35247
49019,6115,35219
49011,6103,35187
49005,6090,35161
48999,6078,35140
48992,6065,35112
48984,6049,35080
48971,6032,35051
48953,6017,35027
48937,6004,34996
48922,5994,34964
48908,5986,34939
48895,5980,34921
48882,5974,34900
48865,5964,34873
48843,5948,34844
48817,5930,34812
48788,5912,34775
48763,5892,34740
48745,5876,34718
48733,5861,34702
48723,5843,34683
48709,5822,34662
48690,5801,34641
48667,5779,34612
48638,5751,34578
48607,5722,34549
48575,5699,34527
48546,5684,34504
48522,5672,34481
48504,5659,34460
48492,5645,34437
48484,5630,34403
48479,5615,34363
48475,5604,34328
48475,5597,34303
48479,5593,34276
48483,5587,34245
48485,5579,34214
48483,5568,34184
48478,5554,34149
48467,5536,34114
48456,5518,34092
48450,5503,34083
48451,5496,34079
48459,5503,34084
48475,5524,34107
48499,5556,34146
48531,5595,34195
48572,5643,34260
48622,5701,34350
48683,5770,34461
48757,5847,34585
48841,5930,34717
48931,6018,34861
49025,6111,35013
49119,6203,35162
49210,6288,35303
49299,6368,35437
49384,6444,35564
49463,6514,35679
49535,6578,35784
49597,6637,35882
49651,6692,35966
49703,6740,36037
49753,6785,36100
49800,6826,36158
49842,6858,36206
49875,6879,36239
49898,6889,36265
49913,6890,36288
49921,6886,36305
49919,6878,36313
49911,6869,36321
49905,6865,36329
49903,6863,36337
49901,6860,36342
49893,6856,36347
49881,6850,36349
49868,6842,36343
49854,6835,36333
49840,6829,36333
49828,6826,36338
49817,6824,36333
49808,6821,36320
49799,6814,36307
49790,6804,36289
49783,6791,36263
49780,6780,36234
49781,6773,36213
49783,6769,36201
49787,6763,36183
49795,6762,36163
49803,6763,36147
49807,6760,36130
49805,6749,36105
49795,6733,36079
49782,6717,36058
49769,6704,36038
49756,6690,36007
49744,6675,35974
49736,6663,35956
49731,6654,35945
49728,6642,35930
49726,6629,35915
49727,6620,35906
49734,6617,35899
49747,6620,35892
49765,6628,35893
49784,6640,35902
49802,6650,35910
49820,6655,35910
49835,6654,35906
49847,6650,35899
49859,6648,35885
49874,6650,35870
49888,6656,35866
49899,6663,35867
49910,6672,35862
49920,6681,35851
49924,6686,35843
49920,6682,35831
49910,6669,35811
49893,6651,35783
49873,6630,35760
49855,6610,35739
49838,6588,35712
49822,6566,35683
49802,6549,35660
49776,6529,35633
49749,6505,35598
49725,6481,35561
49705,6462,35533
49687,6447,35507
49671,6432,35470
49651,6412,35424
49624,6390,35380
49597,6368,35340
49569,6343,35297
49541,6318,35258
49514,6297,35228
49490,6278,35198
49469,6259,35161
49451,6241,35123
49436,6224,35091
49423,6204,35060
49410,6181,35027
49397,6159,34995
49382,6139,34968
49368,6124,34944
49357,6111,34916
49342,6094,34888
49324,6076,34862
49302,6059,34830
49278,6040,34794
49249,6020,34758
49220,6000,34724
49196,5984,34688
49177,5969,34650
49160,5956,34618
49140,5943,34588
49119,5929,34555
49101,5911,34519
49080,5890,34488
49054,5867,34463
49028,5845,34432
49005,5828,34400
48984,5813,34378
48964,5797,34360
48947,5779,34337
48936,5762,34310
48929,5747,34288
48922,5736,34267
48917,5725,34241
48910,5715,34214
48901,5706,34193
48894,5699,34173
48887,5689,34143
48876,5673,34107
48857,5651,34069
48834,5628,34034
48810,5607,33997
48784,5587,33962
48758,5569,33933
48734,5550,33903
48710,5530,33868
48686,5509,33835
48661,5490,33806
48640,5473,33774
48623,5459,33739
48611,5446,33707
48601,5432,33682
48592,5417,33653
48582,5398,33618
48569,5374,33584
48556,5351,33555
48546,5331,33521
48532,5310,33478
48516,5292,33439
48509,5283,33415
48514,5280,33400
48523,5281,33392
48537,5288,33399
48561,5306,33425
48594,5332,33459
48633,5362,33501
48678,5404,33565
48736,5462,33654
48805,5533,33753
48883,5611,33859
48969,5693,33980
49060,5779,34113
49152,5867,34249
49242,5959,34391
49329,6057,34541
49418,6154,34693
49509,6247,34833
49601,6333,34967
49691,6414,35101
49773,6489,35227
49843,6554,35334
49898,6605,35423
49941,6647,35504
49979,6682,35576
50010,6710,35632
50034,6727,35676
50053,6737,35711
50069,6741,35732
50084,6744,35743
50094,6745,35752
50095,6739,35760
50089,6727,35758
50078,6713,35748
50068,6702,35740
50063,6696,35737
50066,6698,35738
50079,6705,35743
50092,6714,35755
50101,6723,35772
50109,6729,35787
50117,6734,35799
50121,6734,35814
50124,6734,35828
50129,6736,35833
50134,6738,35834
50139,6739,35837
50140,6741,35839
50139,6737,35827
50133,6729,35805
50124,6716,35779
50112,6699,35747
50096,6676,35703
50075,6649,35655
50055,6626,35614
50040,6606,35580
50031,6588,35545
50026,6573,35513
50023,6563,35493
50022,6558,35479
50020,6553,35460
50018,6548,35439
50015,6543,35425
50015,6542,35417
50015,6539,35407
50011,6535,35398
50006,6533,35398
50000,6534,35399
49995,6533,35392
49994,6529,35386
49996,6526,35384
49996,6522,35378
49993,6513,35362
49993,6505,35348
49998,6501,35340
50006,6500,35329
50017,6499,35314
50027,6498,35300
50033,6493,35290
50036,6483,35277
50036,6472,35258
50034,6464,35243
50030,6458,35227
50022,6451,35203
50006,6440,35177
49981,6424,35155
49954,6405,35134
49930,6386,35109
49906,6368,35084
49881,6351,35062
49853,6332,35037
49829,6312,35003
49809,6295,34972
49788,6281,34952
49768,6270,34933
49749,6256,34904
49728,6240,34870
49707,6223,34843
49687,6209,34820
49667,6193,34787
49643,6173,34749
49617,6150,34716
49592,6128,34685
49572,6108,34651
49556,6090,34618
49541,6075,34592
49523,6058,34566
49501,6035,34534
49476,6006,34502
49446,5974,34470
49411,5941,34436
49378,5911,34400
49349,5886,34369
49324,5866,34344
49300,5846,34317
49279,5827,34289
49257,5807,34263
49232,5785,34236
49200,5762,34200
49166,5740,34158
49135,5722,34124
49113,5708,34097
49100,5696,34066
49090,5685,34033
49083,5677,34009
49078,5670,33988
49072,5663,33962
49062,5656,33929
49046,5643,33900
49024,5623,33874
49004,5601,33846
48988,5583,33815
48973,5568,33790
48957,5550,33766
48940,5530,33737
48925,5512,33709
48910,5500,33688
48892,5489,33670
48869,5472,33641
48845,5453,33605
48822,5432,33573
48797,5409,33542
48769,5384,33504
48739,5360,33465
48709,5339,33434
48683,5321,33408
48659,5302,33376
48635,5284,33343
48609,5267,33315
48584,5250,33286
48560,5229,33251
48537,5206,33216
48514,5183,33188
48490,5161,33163
48468,5141,33133
48442,5123,33104
48413,5102,33077
48385,5081,33045
48360,5059,33005
48335,5035,32968
48312,5014,32939
48295,4998,32908
48284,4987,32875
48276,4976,32845
48270,4961,32817
48265,4944,32782
48257,4926,32743
48246,4908,32711
48236,4893,32684
48230,4880,32656
48225,4867,32628
48224,4857,32613
48228,4854,32610
48236,4855,32610
48246,4861,32620
48258,4875,32650
48272,4899,32696
48297,4932,32748
48336,4979,32816
48391,5044,32913
48459,5120,33026
48535,5204,33145
48618,5294,33272
48702,5389,33413
48788,5479,33557
48872,5560,33688
48952,5635,33810
49030,5708,33936
49110,5781,34060
49190,5851,34176
49264,5915,34284
49328,5973,34385
49382,6023,34473
49424,6061,34544
49454,6092,34606
49477,6119,34662
49496,6140,34708
49512,6157,34742
49526,6173,34772
49536,6186,34797
49538,6191,34809
49532,6189,34806
49522,6184,34797
49507,6172,34785
49490,6153,34767
49471,6130,34744
49452,6113,34728
49435,6103,34717
49426,6099,34707
49422,6096,34701
49421,6095,34704
49425,6098,34713
49435,6105,34713
49446,6112,34706
49455,6117,34705
49460,6119,34705
49459,6116,34693
49453,6112,34677
49441,6104,34667
49428,6096,34658
49418,6092,34646
49410,6088,34633
49402,6082,34625
49395,6073,34616
49385,6060,34597
49370,6045,34569
49351,6029,34541
49333,6010,34513
49317,5987,34482
49298,5966,34452
49276,5947,34427
49250,5928,34395
49228,5909,34355
49211,5894,34318
49200,5880,34291
49191,5866,34266
49185,5851,34244
49182,5839,34234
49178,5834,34234
49178,5836,34233
49182,5841,34234
49189,5849,34243
49199,5859,34259
49208,5868,34273
49215,5871,34278
49220,5871,34280
49221,5871,34281
49218,5867,34277
49213,5859,34269
49205,5855,34266
49198,5855,34266
49194,5855,34257
49188,5853,34238
49176,5846,34221
49162,5836,34202
49145,5820,34173
49123,5797,34139
49096,5773,34108
49067,5749,34076
49040,5727,34042
49018,5705,34008
48994,5682,33977
48968,5656,33944
48940,5625,33905
48905,5592,33865
48868,5559,33830
48828,5526,33792
48786,5487,33743
48743,5448,33691
48707,5416,33648
48675,5389,33612
48648,5366,33579
48623,5348,33548
48602,5332,33522
48584,5315,33495
48564,5293,33460
48542,5272,33426
48520,5254,33398
48498,5238,33369
48478,5222,33337
48458,5207,33309
48442,5193,33284
48430,5182,33257
48417,5169,33224
48401,5154,33191
48383,5138,33161
48364,5123,33131
48344,5107,33098
48324,5092,33073
48305,5080,33054
48287,5067,33031
48267,5053,33006
48242,5037,32985
48216,5019,32965
48188,4997,32935
48158,4976,32904
48127,4956,32881
48095,4936,32858
48065,4916,32826
48039,4898,32788
48018,4882,32758
48001,4869,32735
47985,4851,32706
47966,4827,32672
47943,4803,32639
47919,4782,32605
47899,4766,32569
47881,4751,32539
47864,4739,32521
47849,4729,32505
47836,4719,32483
47825,4709,32459
47815,4700,32439
47807,4691,32417
47801,4681,32385
47795,4668,32348
47789,4652,32309
47785,4640,32272
47784,4632,32237
47778,4623,32207
47769,4613,32183
47761,4603,32159
47753,4591,32134
47743,4575,32109
47727,4554,32082
47707,4530,32051
47686,4505,32020
47669,4481,31995
47659,4464,31975
47655,4456,31955
47654,4452,31941
47656,4455,31945
47664,4469,31971
47682,4496,32011
47710,4533,32067
47745,4583,32145
47788,4643,32241
47837,4708,32342
47891,4778,32451
47949,4851,32574
48010,4927,32703
48078,5008,32825
48152,5088,32944
48229,5169,33069
48308,5248,33191
48384,5325,33300
48450,5394,33395
48505,5450,33485
48553,5496,33566
48598,5534,33632
48641,5568,33686
48682,5598,33735
48718,5625,33777
48746,5648,33804
48766,5663,33821
48777,5670,33833
48782,5669,33837
48781,5663,33830
48776,5660,33827
48776,5663,33831
48781,5667,33832
48790,5669,33827
48797,5670,33821
48799,5669,33816
48794,5658,33804
48781,5641,33788
48765,5625,33776
48752,5612,33768
48741,5601,33758
48731,5590,33744
48725,5582,33735
48723,5579,33732
48726,5579,33720
48728,5576,33697
48724,5568,33677
48720,5562,33661
48716,5557,33637
48712,5552,33611
48706,5547,33591
48697,5539,33573
48685,5527,33543
48667,5510,33507
48647,5493,33478
48628,5478,33453
48612,5463,33423
48598,5447,33392
48589,5431,33371
48585,5420,33356
48584,5409,33337
48583,5397,33319
48586,5390,33314
48593,5389,33314
48601,5392,33310
48614,5398,33306
48631,5407,33309
48648,5415,33312
48659,5416,33306
48664,5416,33297
48663,5418,33294
48662,5427,33294
48665,5440,33293
48668,5454,33298
48673,5469,33306
48679,5479,33310
48679,5481,33304
48673,5476,33294
48665,5470,33282
48658,5462,33264
48650,5449,33242
48637,5430,33219
48622,5407,33197
48606,5384,33176
48587,5364,33155
48565,5347,33136
48544,5330,33113
48525,5315,33083
48504,5301,33053
48478,5288,33031
48451,5272,33014
48426,5254,32994
48404,5236,32971
48380,5219,32952
48356,5202,32931
48332,5183,32901
48309,5164,32870
48287,5147,32846
48267,5132,32821
48244,5118,32791
48217,5103,32760
48190,5084,32737
48169,5066,32717
48154,5047,32691
48140,5025,32659
48126,5002,32627
48108,4983,32597
48083,4964,32567
48056,4946,32541
48034,4933,32522
48018,4925,32502
48002,4915,32474
47987,4904,32448
47973,4894,32429
47962,4885,32408
47955,4874,32379
47950,4862,32350
47943,4850,32324
47931,4837,32291
47914,4822,32256
47893,4808,32232
47871,4796,32218
47851,4786,32202
47828,4773,32185
47803,4757,32173
47778,4739,32162
47756,4723,32142
47735,4707,32114
47718,4691,32090
47704,4677,32070
47690,4661,32045
47672,4643,32014
47652,4627,31986
47636,4613,31964
47622,4600,31938
47611,4588,31908
47601,4584,31882
47592,4585,31859
47585,4585,31834
47579,4580,31809
47573,4575,31787
47565,4568,31765
47553,4553,31737
47538,4537,31710
47526,4527,31690
47522,4525,31679
47525,4525,31673
47531,4529,31674
47542,4544,31687
47559,4567,31717
47586,4597,31762
47622,4638,31821
47664,4690,31897
47714,4749,31988
47773,4813,32089
47843,4887,32203
47925,4969,32331
48015,5054,32466
48109,5135,32600
48204,5214,32738
48301,5297,32882
48397,5381,33019
48488,5460,33147
48572,5535,33269
48650,5604,33385
48721,5668,33490
48785,5726,33582
48843,5775,33665
48895,5817,33737
48938,5850,33794
48968,5874,33834
48987,5887,33866
48999,5893,33887
49009,5895,33896
49017,5896,33902
49020,5897,33916
49019,5895,33930
49016,5890,33932
49017,5885,33927
49021,5883,33927
49026,5884,33932
49028,5884,33929
49025,5880,33919
49017,5873,33907
49006,5866,33894
48997,5864,33880
48994,5865,33872
48993,5868,33875
48996,5872,33881
49001,5874,33881
49005,5876,33877
49005,5874,33872
49003,5867,33858
49002,5859,33837
49000,5854,33819
48995,5848,33804
48990,5840,33785
48984,5831,33760
48975,5823,33736
48964,5816,33715
48953,5807,33690
48942,5796,33661
48932,5785,33635
48923,5773,33612
48912,5763,33587
48903,5757,33565
48899,5753,33554
48904,5752,33552
48915,5752,33548
48926,5751,33542
48936,5751,33543
48947,5754,33549
48960,5760,33550
48976,5769,33550
48996,5782,33557
49019,5796,33567
49040,5811,33574
49058,5827,33581
49070,5841,33595
49074,5851,33613
49069,5851,33625
49060,5844,33631
49050,5833,33640
49041,5820,33646
49031,5807,33641
49022,5794,33630
49010,5781,33617
48994,5767,33598
48977,5754,33571
48962,5742,33541
48944,5730,33516
48925,5716,33492
48909,5701,33464
48896,5687,33439
48886,5676,33421
48873,5665,33400
48856,5650,33368
48833,5633,33334
48807,5613,33304
48781,5591,33273
48755,5567,33240
48731,5542,33210
48711,5520,33185
48692,5501,33155
48671,5482,33119
48646,5463,33088
48623,5446,33062
48604,5434,33027
48588,5422,32987
48573,5409,32955
48557,5395,32929
48543,5382,32902
48531,5369,32876
48521,5356,32856
48510,5344,32835
48497,5327,32806
48480,5305,32773
48459,5282,32744
48433,5257,32717
48403,5231,32687
48371,5209,32656
48342,5192,32635
48322,5180,32616
48307,5170,32587
48292,5158,32558
48276,5147,32534
48264,5136,32515
48254,5124,32496
48247,5110,32479
48243,5096,32465
48240,5078,32446
48232,5057,32414
48219,5036,32380
48205,5020,32354
48190,5007,32329
48175,4992,32299
48164,4979,32273
48155,4969,32255
48143,4958,32236
48131,4948,32214
48119,4939,32191
48106,4930,32166
48091,4917,32138
48072,4902,32110
48050,4887,32086
48028,4873,32067
48008,4859,32045
47986,4847,32019
47966,4836,31992
47948,4825,31966
47929,4810,31935
47909,4790,31902
47894,4773,31878
47887,4760,31855
47887,4750,31823
47888,4743,31783
47886,4739,31745
47880,4737,31712
47873,4734,31680
47867,4729,31658
47866,4730,31652
47869,4736,31658
47876,4744,31672
47886,4754,31695
47905,4775,31736
47930,4809,31798
47963,4851,31877
48008,4903,31975
48067,4967,32093
48138,5044,32229
48221,5130,32376
48310,5221,32530
48403,5313,32691
48497,5405,32849
48589,5496,32997
48676,5586,33142
48763,5680,33291
48853,5770,33433
48939,5852,33560
49021,5926,33677
49097,5994,33783
49163,6050,33872
49213,6094,33948
49254,6131,34020
49291,6163,34090
49324,6190,34145
49352,6210,34184
49373,6226,34221
49387,6237,34256
49396,6243,34278
49396,6241,34289
49397,6241,34303
49404,6247,34320
49419,6254,34332
49436,6264,34344
49450,6276,34364
49462,6292,34383
49473,6308,34392
49483,6323,34398
49488,6335,34412
49490,6344,34430
49498,6349,34443
49514,6352,34452
49536,6357,34464
49560,6366,34479
49583,6375,34487
49598,6385,34491
49605,6391,34496
49609,6394,34499
49610,6393,34496
49606,6389,34489
49601,6383,34483
49596,6375,34469
49588,6360,34445
49575,6341,34422
49562,6325,34408
49556,6316,34395
49553,6309,34374
49550,6301,34352
49549,6295,34342
49551,6292,34335
49552,6286,34323
49553,6279,34313
49551,6276,34309
49549,6275,34306
49547,6276,34306
49548,6283,34318
49554,6293,34340
49563,6303,34359
49575,6311,34373
49583,6317,34386
49587,6321,34400
49594,6326,34406
49604,6330,34407
49615,6337,34413
49629,6346,34419
49642,6354,34414
49651,6360,34402
49652,6363,34391
49648,6363,34381
49639,6357,34365
49623,6345,34350
49601,6330,34343
49577,6316,34337
49555,6302,34321
49538,6288,34299
49522,6272,34278
49507,6256,34254
49490,6238,34220
49469,6217,34185
49441,6195,34155
49409,6174,34124
49377,6151,34089
49347,6128,34057
49321,6105,34031
49300,6084,34004
49282,6062,33973
49261,6037,33940
49235,6010,33908
49208,5984,33877
49180,5959,33844
49151,5936,33815
49128,5919,33792
49112,5904,33763
49098,5887,33727
49078,5867,33696
49055,5847,33671
49033,5829,33646
49016,5810,33618
49000,5792,33593
48982,5776,33569
48965,5764,33540
48951,5754,33507
48936,5742,33476
48919,5727,33448
48902,5709,33411
48884,5688,33368
48862,5669,33334
48838,5651,33307
48811,5632,33275
48782,5616,33239
48755,5602,33213
48733,5589,33199
48717,5576,33181
48706,5565,33156
48696,5552,33136
48686,5537,33119
48673,5518,33097
48658,5497,33072
48644,5481,33050
48630,5469,33031
48617,5458,33008
48604,5443,32983
48586,5426,32957
48567,5410,32931
48546,5394,32901
48528,5378,32874
48516,5364,32858
48508,5351,32846
48498,5340,32829
48485,5330,32806
48475,5325,32779
48464,5319,32745
48449,5307,32707
48433,5292,32677
48417,5278,32653
48398,5261,32623
48374,5239,32589
48349,5219,32561
48328,5201,32538
48313,5185,32508
48297,5168,32473
48277,5149,32440
48253,5127,32406
48230,5106,32369
48212,5090,32336
48199,5080,32314
48186,5068,32293
48177,5051,32258
48166,5028,32214
48152,5005,32176
48139,4986,32148
48128,4972,32124
48121,4964,32106
48117,4961,32096
48115,4960,32085
48113,4960,32068
48111,4961,32049
48112,4965,32038
48119,4975,32038
48136,4991,32050
48161,5015,32077
48192,5049,32125
48236,5096,32194
48294,5158,32284
48363,5232,32395
48443,5316,32526
48535,5408,32667
48634,5504,32814
48736,5602,32972
48837,5703,33144
48940,5805,33316
49043,5905,33479
49145,6001,33633
49244,6095,33784
49341,6187,33929
49430,6274,34066
49505,6352,34198
49564,6420,34319
49609,6476,34419
49646,6522,34501
49680,6562,34578
49715,6600,34654
49750,6634,34723
49778,6661,34776
49795,6681,34816
49802,6695,34844
49804,6702,34855
49801,6704,34857
49799,6707,34871
49803,6715,34895
49814,6727,34919
49828,6738,34943
49842,6749,34976
49855,6759,35011
49864,6768,35037
49867,6772,35052
49865,6771,35069
49860,6769,35084
49856,6766,35092
49850,6763,35095
49844,6763,35100
49842,6769,35109
49846,6778,35119
49848,6784,35130
49842,6785,35139
49832,6783,35142
49821,6782,35141
49807,6780,35140
49787,6776,35136
49761,6768,35121
49734,6754,35094
49710,6737,35066
49689,6722,35048
49675,6713,35034
49666,6709,35019
49661,6709,35007
49661,6709,34997
49665,6709,34984
49666,6706,34969
49660,6698,34958
49650,6689,34951
49639,6681,34939
49632,6677,34927
49629,6679,34926
49624,6685,34928
49617,6689,34925
49604,6688,34922
49589,6684,34926
49572,6678,34931
49556,6672,34928
49540,6666,34922
49527,6665,34923
49519,6670,34927
49512,6676,34925
49501,6678,34915
49486,6676,34907
49466,6669,34897
49442,6658,34881
49419,6648,34865
49400,6641,34855
49387,6637,34846
49379,6632,34832
49373,6627,34816
49367,6623,34801
49361,6619,34786
49352,6613,34766
49342,6604,34747
49330,6596,34732
49313,6584,34711
49293,6569,34676
49270,6550,34639
49243,6526,34603
49216,6497,34565
49195,6467,34523
49181,6443,34491
49171,6429,34471
49166,6421,34450
49163,6415,34423
49158,6411,34396
49152,6410,34373
49142,6405,34345
49127,6393,34315
49112,6380,34292
49100,6370,34277
49092,6359,34260
49083,6346,34239
49070,6327,34217
49052,6304,34190
49028,6280,34154
49000,6256,34116
48968,6234,34088
48934,6212,34064
48896,6188,34033
48855,6163,34001
48811,6139,33977
48766,6116,33954
48717,6092,33920
48667,6067,33882
48617,6040,33850
48567,6014,33819
48523,5989,33785
48490,5968,33754
48465,5955,33733
48443,5945,33712
48424,5936,33683
48403,5926,33655
48379,5917,33629
48357,5906,33605
48341,5893,33579
48331,5880,33557
48321,5871,33539
48310,5864,33517
48297,5855,33490
48278,5839,33463
48248,5818,33437
48210,5793,33403
48168,5767,33364
48126,5744,33329
48089,5729,33303
48062,5721,33280
48043,5715,33254
48028,5709,33230
48017,5702,33209
48010,5691,33182
48007,5670,33145
48001,5646,33107
47990,5623,33072
47979,5603,33037
47966,5587,33003
47946,5570,32971
47923,5553,32941
47899,5536,32902
47873,5515,32859
47846,5495,32825
47823,5480,32799
47804,5471,32770
47789,5464,32738
47776,5459,32715
47763,5453,32695
47748,5442,32669
47729,5425,32641
47709,5402,32617
47688,5374,32593
47667,5347,32564
47650,5327,32541
47644,5318,32534
47647,5321,32539
47659,5334,32553
47678,5355,32581
47706,5387,32625
47744,5429,32687
47790,5480,32762
47849,5543,32860
47920,5621,32981
48001,5710,33116
48089,5802,33257
48180,5894,33409
48274,5987,33567
48372,6078,33719
48471,6167,33867
48565,6258,34022
48656,6353,34177
48745,6446,34320
48831,6531,34449
48908,6603,34568
48977,6667,34676
49037,6721,34764
49084,6765,34832
49117,6800,34892
49141,6829,34947
49160,6850,34989
49172,6863,35020
49180,6871,35049
49189,6880,35075
49198,6887,35087
49200,6888,35087
49197,6885,35089
49193,6882,35096
49189,6880,35097
49184,6878,35097
49184,6881,35107
49190,6890,35126
49196,6901,35143
49203,6913,35156
49212,6922,35169
49222,6932,35179
49231,6941,35184
49235,6946,35190
49239,6950,35199
49245,6954,35210
49252,6958,35214
49257,6961,35214
49259,6962,35215
49258,6961,35211
49252,6954,35193
49243,6942,35165
49230,6928,35137
49213,6913,35110
49193,6900,35085
49176,6888,35064
49165,6881,35046
49157,6873,35023
49147,6862,34993
49135,6848,34967
49122,6833,34944
49114,6820,34920
49114,6812,34898
49121,6808,34888
49133,6810,34890
49149,6812,34893
49166,6814,34895
49181,6815,34902
49193,6819,34913
49202,6822,34916
49209,6826,34916
49212,6829,34924
49210,6830,34936
49208,6833,34941
49208,6836,34940
49208,6837,34943
49207,6835,34945
49203,6830,34937
49195,6821,34924
49183,6811,34916
49169,6802,34909
49152,6792,34893
49131,6781,34867
49111,6772,34840
49090,6761,34813
49067,6745,34782
49042,6726,34753
49020,6709,34734
49005,6696,34713
48996,6686,34683
48987,6677,34652
48978,6669,34626
48964,6659,34600
48946,6641,34570
48924,6620,34543
48897,6598,34518
48871,6580,34494
48849,6566,34470
48829,6551,34450
48811,6532,34429
48790,6509,34401
48769,6486,34369
48753,6466,34340
48739,6451,34309
48729,6440,34274
48722,6432,34238
48714,6425,34209
48707,6419,34182
48702,6409,34149
48692,6394,34113
48670,6373,34083
48643,6353,34058
48617,6335,34029
48593,6320,33998
48569,6306,33975
48548,6290,33957
48533,6274,33930
48520,6258,33899
48510,6243,33873
48497,6230,33851
48479,6213,33823
48457,6194,33798
48432,6177,33780
48408,6163,33764
48391,6156,33745
48378,6148,33725
48365,6137,33709
48353,6122,33691
48338,6106,33664
48320,6090,33634
48303,6075,33609
48291,6062,33581
48283,6052,33550
48278,6045,33526
48275,6039,33508
48274,6031,33481
48270,6020,33442
48261,6010,33406
48250,6003,33375
48239,5997,33345
48225,5989,33319
48210,5979,33301
48196,5968,33286
48181,5953,33263
48162,5934,33236
48138,5910,33208
48114,5886,33178
48094,5866,33145
48076,5846,33112
48059,5827,33084
48047,5811,33062
48042,5799,33036
48040,5788,33004
48035,5771,32975
48024,5749,32944
48008,5724,32904
47990,5702,32862
47972,5687,32832
47961,5679,32812
47960,5682,32802
47969,5696,32808
47985,5723,32837
48014,5762,32888
48055,5810,32949
48105,5864,33023
48162,5926,33119
48232,5998,33230
48313,6075,33346
48400,6153,33475
48493,6236,33622
48589,6327,33774
48688,6419,33922
48787,6508,34064
48881,6591,34199
48965,6665,34326
49042,6732,34442
49110,6793,34553
49169,6850,34661
49223,6901,34756
49269,6945,34834
49308,6989,34904
49342,7029,34965
49368,7059,35009
49387,7080,35040
49397,7093,35068
49402,7102,35093
49403,7108,35106
49401,7110,35107
49397,7110,35109
49397,7109,35110
49405,7107,35108
49414,7104,35107
49421,7102,35115
49429,7105,35123
49440,7110,35121
49455,7116,35114
49470,7124,35117
49481,7131,35127
49489,7136,35133
49495,7138,35140
49499,7142,35154
49503,7149,35172
49504,7154,35183
49500,7155,35190
49491,7153,35196
49479,7147,35194
49468,7140,35178
49456,7131,35155
49445,7125,35137
49436,7119,35118
49425,7110,35090
49409,7100,35061
49391,7091,35036
49378,7083,35013
49371,7076,34989
49368,7071,34968
49371,7069,34951
49375,7069,34935
49380,7068,34916
49385,7065,34902
49386,7058,34895
49388,7052,34889
49395,7049,34884
49404,7047,34886
49419,7048,34893
49439,7050,34899
49460,7052,34902
49478,7055,34910
49494,7061,34918
49509,7068,34920
49520,7075,34917
49524,7080,34917
49525,7083,34916
49525,7081,34908
49524,7073,34893
49520,7063,34881
49515,7053,34872
49508,7039,34855
49501,7026,34837
49488,7011,34822
49472,6994,34808
49456,6977,34790
49440,6962,34771
49423,6949,34754
49404,6936,34734
49380,6920,34704
49352,6901,34667
49323,6883,34629
49295,6867,34593
49268,6852,34557
49242,6837,34526
49218,6822,34503
49199,6806,34477
49181,6786,34442
49162,6761,34407
49142,6735,34374
49128,6712,34341
49121,6693,34309
49116,6677,34285
49112,6664,34267
49108,6652,34247
49099,6638,34221
49084,6624,34193
49067,6611,34168
49050,6596,34138
49031,6578,34098
49008,6560,34057
48984,6540,34015
48961,6520,33969
48942,6506,33928
48926,6496,33900
48913,6488,33875
48900,6478,33842
48889,6468,33810
48878,6460,33792
48867,6453,33782
48856,6447,33768
48844,6440,33753
48831,6428,33742
48816,6410,33723
48802,6386,33692
48786,6360,33657
48764,6331,33625
48739,6302,33593
48714,6275,33555
48691,6250,33517
48672,6230,33489
48654,6214,33465
48637,6197,33434
48619,6178,33405
48601,6161,33384
48583,6145,33365
48564,6129,33343
48543,6112,33322
48525,6099,33305
48511,6093,33288
48498,6090,33265
48483,6086,33243
48465,6081,33224
48449,6073,33201
48435,6062,33174
48421,6049,33152
48403,6035,33131
48385,6018,33098
48371,6001,33058
48358,5983,33023
48347,5966,32991
48338,5948,32950
48327,5928,32903
48313,5908,32860
48298,5889,32825
48287,5870,32786
48275,5853,32748
48263,5841,32722
48255,5836,32708
48254,5837,32697
48257,5842,32693
48264,5850,32704
48279,5862,32728
48302,5879,32761
48332,5907,32807
48370,5948,32875
48414,6001,32962
48467,6061,33062
48525,6129,33176
48589,6204,33305
48656,6282,33436
48727,6360,33565
48803,6439,33700
48887,6521,33845
48975,6603,33990
49060,6681,34127
49139,6756,34259
49215,6829,34388
49293,6900,34508
49372,6966,34612
49444,7025,34704
49505,7075,34785
49553,7116,34852
49591,7149,34904
49618,7181,34952
49640,7210,34998
49661,7235,35036
49680,7254,35062
49692,7265,35085
49694,7269,35106
49693,7269,35119
49690,7266,35125
49683,7260,35134
49674,7257,35147
49668,7258,35156
49665,7262,35161
49664,7266,35174
49672,7275,35193
49689,7287,35211
49712,7299,35225
49737,7314,35239
49760,7330,35247
49782,7342,35246
49803,7351,35245
49819,7357,35250
49833,7361,35255
49845,7363,35254
49852,7363,35253
49853,7357,35256
49850,7349,35257
49844,7341,35247
49835,7335,35229
49823,7329,35213
49810,7325,35197
49796,7319,35170
49780,7311,35145
49767,7304,35131
49758,7296,35117
49753,7287,35098
49749,7279,35081
49746,7272,35070
49743,7264,35053
49736,7253,35028
49725,7241,35005
49716,7232,34990
49715,7229,34981
49719,7230,34975
49726,7231,34978
49734,7234,34990
49742,7236,34997
49748,7236,34998
49750,7233,35000
49752,7230,35006
49759,7231,35009
49769,7234,35010
49777,7234,35018
49784,7233,35029
49792,7233,35032
49797,7233,35029
49797,7229,35028
49789,7223,35024
49774,7213,35001
49753,7200,34967
49726,7184,34935
49698,7164,34904
49668,7140,34864
49635,7116,34819
49606,7098,34781
49580,7082,34747
49554,7061,34708
49529,7038,34665
49504,7012,34626
49477,6985,34590
49450,6956,34553
49423,6927,34516
49394,6900,34483
49366,6879,34451
49342,6862,34419
49320,6848,34390
49300,6835,34365
49280,6820,34337
49260,6798,34303
49235,6772,34271
49208,6743,34242
49182,6713,34210
49160,6688,34176
49140,6672,34148
49123,6658,34125
49107,6640,34096
49092,6619,34061
49078,6597,34028
49063,6576,34001
49046,6558,33971
49025,6541,33936
48999,6526,33905
48972,6511,33875
48948,6497,33841
48927,6489,33811
48909,6484,33794
48895,6481,33784
48881,6473,33764
48863,6456,33731
48843,6436,33700
48825,6419,33673
48809,6404,33640
48793,6389,33604
48772,6374,33571
48748,6357,33536
48721,6339,33493
48695,6322,33453
48672,6308,33423
48653,6294,33399
48642,6279,33373
48634,6264,33349
48627,6249,33333
48619,6230,33315
48605,6208,33289
48586,6186,33261
48566,6165,33235
48548,6143,33207
48531,6120,33175
48514,6102,33142
48497,6087,33109
48479,6070,33070
48460,6050,33026
48443,6032,32988
48426,6015,32955
48405,5993,32918
48383,5969,32880
48364,5949,32851
48347,5933,32830
48333,5920,32803
48323,5909,32771
48316,5900,32745
48310,5891,32723
48302,5880,32693
48292,5867,32650
48280,5854,32610
48263,5838,32577
48241,5818,32539
48215,5794,32501
48188,5771,32470
48164,5751,32445
48146,5734,32415
48133,5720,32379
48123,5708,32346
48111,5695,32316
48097,5679,32281
48082,5660,32246
48066,5643,32220
48050,5627,32196
48037,5611,32163
48025,5595,32129
48014,5580,32103
48006,5568,32079
47999,5557,32055
47994,5545,32038
47992,5536,32033
47996,5534,32038
48008,5543,32052
48029,5565,32086
48058,5601,32145
48100,5653,32227
48156,5720,32324
48222,5797,32438
48297,5880,32569
48380,5965,32705
48474,6054,32844
48576,6150,32996
48679,6248,33154
48782,6340,33306
48879,6426,33451
48969,6508,33600
49054,6588,33748
49136,6666,33883
49213,6738,34002
49280,6803,34114
49339,6861,34218
49395,6914,34305
49445,6959,34376
49485,6996,34443
49514,7025,34499
49534,7045,34535
49547,7059,34559
49558,7074,34586
49568,7090,34618
49580,7103,34645
49591,7114,34670
49602,7122,34696
49610,7128,34716
49615,7133,34726
49618,7137,34737
49618,7140,34752
49616,7142,34764
49612,7143,34769
49609,7144,34776
49606,7148,34795
49607,7158,34819
49613,7171,34837
49620,7185,34855
49628,7199,34879
49638,7215,34898
49649,7230,34908
49658,7243,34916
49663,7252,34923
49665,7257,34924
49666,7257,34916
49668,7252,34908
49671,7246,34900
49674,7237,34884
49673,7226,34860
49671,7215,34837
49667,7204,34816
49662,7192,34790
49655,7180,34762
49644,7168,34742
49628,7156,34730
49610,7146,34718
49594,7137,34709
49580,7129,34709
49567,7124,34712
49558,7121,34705
49554,7119,34693
49548,7115,34685
49537,7110,34681
49525,7105,34676
49515,7098,34668
49506,7089,34662
49503,7085,34657
49505,7087,34648
49510,7091,34641
49517,7100,34644
49521,7110,34650
49521,7114,34648
49519,7111,34639
49514,7102,34630
49508,7092,34619
49499,7083,34603
49486,7074,34587
49469,7063,34574
49450,7050,34559
49435,7038,34538
49420,7029,34521
49403,7022,34506
49383,7014,34486
49361,7002,34461
49334,6985,34438
49306,6965,34415
49280,6944,34387
49252,6923,34355
49224,6900,34325
49197,6881,34297
49174,6862,34262
49149,6836,34221
49124,6808,34181
49099,6782,34144
49071,6753,34100
49042,6723,34053
49013,6692,34010
48982,6663,33971
48950,6635,33931
48918,6609,33890
48887,6586,33860
48854,6565,33835
48826,6548,33809
48806,6538,33786
48792,6533,33771
48780,6527,33757
48765,6519,33734
48743,6507,33702
48714,6491,33668
48683,6476,33634
48659,6466,33599
48638,6455,33567
48620,6443,33545
48606,6429,33525
48599,6418,33498
48592,6407,33467
48582,6394,33437
48573,6380,33405
48565,6366,33370
48552,6349,33340
48536,6332,33317
48520,6318,33294
48507,6305,33267
48495,6293,33242
48486,6283,33223
48478,6274,33201
48468,6263,33172
48451,6245,33147
48427,6225,33127
48399,6204,33107
48370,6182,33081
48344,6158,33058
48322,6136,33040
48302,6115,33016
48283,6092,32983
48262,6068,32949
48240,6047,32918
48220,6030,32885
48202,6019,32851
48185,6010,32823
48168,5999,32798
48152,5987,32765
48134,5974,32726
48110,5955,32686
48081,5933,32649
48055,5910,32609
48035,5890,32571
48019,5875,32545
48003,5864,32526
47987,5853,32501
47970,5842,32471
47953,5833,32446
47937,5823,32426
47918,5807,32403
47895,5786,32378
47873,5767,32356
47852,5752,32333
47833,5739,32301
47810,5728,32265
47787,5719,32231
47764,5711,32197
47740,5701,32160
47719,5686,32123
47703,5669,32090
47689,5650,32058
47678,5633,32026
47669,5614,31998
47659,5592,31973
47652,5570,31943
47645,5551,31906
47633,5533,31870
47616,5516,31840
47598,5500,31810
47582,5487,31784
47568,5477,31771
47558,5471,31767
47551,5475,31770
47551,5486,31780
47560,5504,31809
47582,5536,31857
47620,5584,31919
47669,5643,31991
47727,5713,32084
47797,5792,32200
47876,5876,32325
47960,5961,32458
48049,6049,32598
48139,6138,32743
48230,6226,32886
48321,6314,33032
48413,6403,33187
48500,6487,33335
48584,6562,33468
48664,6630,33592
48739,6694,33713
48810,6757,33829
48873,6816,33929
48924,6866,34011
48963,6907,34083
48993,6939,34143
49014,6959,34188
49029,6976,34230
49044,6995,34278
49059,7014,34320
49072,7028,34349
49083,7040,34373
49096,7056,34398
49109,7072,34416
49122,7086,34423
49133,7098,34426
49143,7108,34432
49151,7114,34437
49154,7118,34438
49158,7122,34444
49168,7129,34455
49183,7136,34462
49197,7144,34466
49206,7154,34476
49212,7163,34486
49216,7171,34488
49218,7178,34484
49217,7183,34488
49219,7187,34498
49226,7192,34503
49232,7195,34509
49232,7192,34518
49226,7180,34522
49219,7161,34511
49210,7143,34490
49200,7129,34474
49192,7117,34461
49185,7106,34442
49179,7094,34418
49173,7081,34397
49167,7072,34379
49162,7064,34358
49153,7056,34336
49140,7049,34322
49134,7047,34314
49135,7046,34305
49139,7047,34297
49144,7049,34296
49148,7051,34296
49152,7052,34292
49156,7050,34294
49157,7050,34306
49157,7051,34318
49154,7051,34326
49152,7052,34333
49147,7054,34344
49139,7056,34347
49129,7056,34343
49120,7057,34343
49110,7059,34346
49101,7060,34347
49090,7058,34346
49078,7055,34350
49068,7054,34351
49060,7052,34342
49052,7046,34321
49040,7035,34299
49026,7023,34279
49011,7013,34254
48996,7001,34225
48981,6988,34200
48967,6973,34176
48957,6957,34148
48948,6942,34120
48934,6927,34097
48917,6910,34068
48897,6889,34028
48871,6863,33984
48844,6838,33947
48818,6815,33913
48792,6792,33877
48768,6770,33842
48745,6752,33813
48725,6734,33782
48703,6712,33743
48680,6693,33707
48662,6681,33682
48649,6674,33660
48637,6668,33636
48623,6657,33613
48608,6642,33588
48592,6626,33554
48577,6610,33516
48557,6594,33484
48533,6578,33459
48512,6563,33433
48494,6548,33404
48476,6534,33379
48459,6519,33357
48442,6502,33326
48421,6481,33286
48399,6459,33247
48380,6441,33216
48366,6425,33190
48357,6412,33166
48349,6401,33145
48339,6391,33122
48323,6381,33093
48303,6369,33065
48281,6356,33047
48259,6341,33032
48238,6326,33007
48217,6309,32977
48196,6292,32957
48175,6276,32944
48151,6259,32925
48125,6241,32900
48102,6223,32878
48083,6207,32856
48070,6190,32829
48057,6173,32800
48043,6159,32774
48033,6153,32751
48026,6148,32723
48020,6141,32695
48015,6133,32674
48013,6125,32654
48011,6115,32627
48002,6101,32596
47987,6086,32566
47971,6069,32530
47959,6048,32487
47951,6029,32447
47948,6014,32413
47946,6001,32375
47943,5987,32331
47937,5971,32291
47928,5955,32258
47921,5941,32229
47917,5932,32205
47913,5927,32198
47914,5928,32211
47924,5937,32235
47944,5958,32270
47973,5990,32325
48012,6034,32397
48066,6091,32481
48128,6157,32575
48193,6228,32685
48261,6304,32808
48336,6382,32934
48417,6461,33062
48502,6543,33201
48588,6628,33349
48679,6717,33500
48774,6809,33652
48869,6901,33809
48961,6992,33960
49050,7080,34094
49133,7159,34214
49206,7230,34330
49271,7291,34437
49328,7342,34525
49376,7382,34597
49415,7414,34664
49446,7443,34719
49470,7464,34757
49487,7476,34785
49496,7484,34807
49501,7491,34826
49504,7496,34835
49504,7498,34841
49500,7500,34852
49498,7502,34862
49503,7504,34868
49511,7505,34872
49517,7507,34876
49527,7510,34875
49538,7512,34872
49547,7514,34877
49556,7519,34890
49566,7526,34900
49578,7532,34908
49585,7535,34918
49586,7535,34925
49587,7534,34921
49592,7534,34913
49599,7535,34911
49602,7534,34911
49602,7532,34903
49602,7527,34888
49600,7520,34872
49594,7508,34854
49586,7494,34827
49581,7481,34799
49577,7472,34780
49574,7464,34765
49575,7457,34742
49577,7448,34716
49576,7438,34697
49576,7429,34682
49578,7422,34667
49580,7416,34656
49582,7412,34655
49587,7410,34658
49597,7411,34658
49606,7416,34661
49613,7422,34673
49620,7429,34687
49627,7434,34697
49636,7441,34708
49645,7449,34723
49652,7455,34733
49658,7458,34736
49660,7459,34736
49657,7460,34739
49652,7460,34739
49646,7458,34730
49639,7457,34718
49629,7454,34706
49616,7445,34689
49600,7432,34666
49579,7417,34643
49552,7398,34617
49521,7374,34584
49490,7349,34548
49464,7328,34521
49438,7309,34500
49410,7284,34474
49382,7255,34443
49354,7229,34417
49323,7202,34390
49291,7177,34357
49259,7156,34320
49230,7136,34285
49207,7117,34251
49190,7100,34213
49174,7086,34173
49157,7072,34138
49134,7056,34103
49109,7036,34063
49086,7016,34021
49068,6997,33989
49054,6977,33959
49039,6952,33920
49023,6925,33876
49009,6900,33838
48998,6878,33806
48987,6858,33771
48974,6840,33737
48961,6828,33711
48945,6815,33690
48921,6797,33664
48895,6778,33638
48871,6764,33616
48853,6751,33589
48839,6739,33555
48826,6728,33523
48813,6716,33497
48799,6701,33469
48780,6681,33435
48757,6658,33403
48732,6637,33374
48710,6617,33342
48689,6599,33308
48667,6583,33280
48648,6568,33256
48630,6550,33226
48613,6529,33186
48594,6507,33153
48577,6489,33127
48566,6478,33100
48556,6470,33073
48545,6462,33051
48534,6455,33027
48524,6444,32991
48512,6428,32945
48495,6409,32903
48475,6390,32864
48456,6375,32825
48440,6364,32793
48427,6356,32772
48416,6346,32757
48401,6332,32739
48382,6312,32716
48362,6291,32697
48344,6272,32675
48330,6255,32643
48319,6238,32606
48312,6220,32576
48308,6205,32552
48303,6193,32523
48295,6180,32492
48282,6164,32462
48265,6144,32427
48246,6121,32385
48226,6097,32343
48203,6073,32308
48183,6053,32276
48173,6038,32246
48168,6028,32224
48169,6021,32210
48175,6022,32204
48183,6030,32208
48195,6045,32227
48215,6068,32260
48246,6100,32305
48291,6146,32371
48349,6205,32467
48417,6273,32585
48492,6348,32710
48572,6432,32844
48654,6522,32995
48740,6618,33157
48832,6720,33322
48930,6826,33490
49034,6934,33665
49141,7037,33840
49243,7132,34002
49340,7221,34153
49430,7307,34303
49512,7387,34445
49586,7457,34569
49650,7515,34675
49702,7564,34772
49747,7608,34856
49790,7646,34919
49826,7677,34970
49856,7703,35021
49880,7724,35065
49900,7739,35096
49919,7754,35123
49938,7769,35153
49957,7785,35177
49976,7800,35191
49994,7815,35208
50008,7829,35233
50022,7844,35260
50036,7857,35286
50051,7870,35313
50068,7884,35338
50085,7894,35354
50100,7899,35363
50110,7905,35378
50118,7914,35397
50126,7924,35412
50131,7933,35424
50137,7942,35441
50146,7950,35460
50158,7954,35473
50169,7956,35478
50178,7955,35483
50183,7952,35487
50187,7943,35478
50190,7932,35460
50188,7920,35443
50183,7907,35427
50177,7892,35404
50168,7878,35378
50159,7866,35359
50150,7854,35343
50143,7845,35321
50140,7841,35299
50140,7840,35288
50139,7843,35281
50140,7848,35266
50143,7852,35250
50144,7852,35242
50144,7851,35242
50147,7851,35245
50152,7855,35256
50161,7864,35274
50173,7873,35289
50180,7879,35295
50183,7879,35295
50182,7878,35296
50185,7875,35296
50193,7871,35291
50204,7867,35285
50215,7866,35280
50226,7868,35275
50232,7868,35267
50233,7865,35256
50233,7864,35246
50233,7863,35235
50230,7860,35218
50223,7853,35203
50213,7844,35188
50199,7834,35169
50180,7821,35146
50152,7806,35123
50117,7788,35102
50084,7771,35075
50052,7752,35045
50022,7729,35018
49995,7706,34991
49972,7683,34956
49947,7658,34917
49915,7630,34885
49881,7602,34857
49849,7576,34823
49820,7554,34786
49796,7535,34757
49775,7520,34731
49753,7504,34697
49727,7487,34657
49696,7467,34619
49664,7445,34582
49634,7422,34541
49606,7396,34501
49579,7373,34466
49557,7353,34429
49542,7335,34388
49531,7316,34350
49521,7296,34315
49509,7275,34280
49489,7252,34240
49465,7232,34205
49445,7215,34181
49428,7201,34159
49413,7187,34133
49399,7173,34109
49387,7163,34087
49378,7156,34063
49366,7148,34035
49347,7137,34012
49321,7123,33990
49294,7103,33962
49267,7077,33931
49242,7050,33906
49216,7026,33883
49194,7006,33855
49175,6989,33821
49152,6970,33792
49126,6950,33764
49098,6924,33727
49071,6898,33687
49046,6875,33657
49022,6857,33635
49004,6843,33610
48987,6832,33581
48968,6823,33556
48944,6809,33531
48920,6787,33493
48896,6762,33450
48871,6739,33411
48844,6718,33374
48818,6694,33332
48792,6669,33289
48766,6645,33252
48740,6623,33220
48715,6599,33186
48691,6574,33155
48668,6552,33129
48652,6536,33104
48640,6526,33076
48625,6519,33046
48604,6511,33017
48578,6496,32981
48551,6474,32937
48524,6451,32893
48497,6430,32850
48470,6410,32807
48441,6389,32766
48410,6369,32732
48382,6348,32705
48358,6329,32675
48338,6314,32644
48321,6300,32618
48304,6284,32592
48290,6262,32557
48282,6236,32515
48277,6212,32481
48273,6194,32456
48271,6181,32429
48269,6171,32398
48270,6163,32379
48274,6161,32380
48285,6170,32396
48304,6187,32427
48333,6217,32480
48375,6260,32551
48432,6318,32636
48503,6392,32741
48583,6478,32874
48675,6575,33029
48777,6681,33196
48887,6790,33373
48998,6902,33561
49109,7014,33751
49218,7124,33936
49320,7230,34115
49419,7333,34295
49518,7434,34472
49617,7530,34640
49707,7619,34796
49782,7697,34940
49844,7765,35065
49898,7823,35172
49948,7877,35269
49998,7927,35364
50046,7975,35451
50089,8016,35527
50121,8049,35593
50144,8072,35649
50159,8091,35687
50169,8108,35712
50178,8125,35738
50185,8141,35767
50191,8155,35789
50199,8168,35806
50208,8179,35826
50215,8188,35848
50222,8197,35865
50228,8204,35878
50238,8214,35900
50256,8231,35933
50280,8251,35963
50304,8270,35990
50328,8287,36019
50351,8304,36049
50372,8319,36073
50389,8330,36091
50405,8341,36113
50415,8350,36134
50419,8354,36142
50418,8354,36140
50410,8353,36136
50399,8351,36131
50386,8346,36121
50371,8338,36112
50356,8333,36107
50337,8326,36097
50317,8314,36076
50299,8299,36054
50280,8286,36039
50261,8275,36032
50245,8270,36035
50235,8272,36051
50235,8279,36082
50240,8287,36116
50242,8295,36147
50241,8302,36175
50240,8311,36198
50239,8319,36217
50243,8328,36233
50253,8338,36249
50266,8347,36266
50280,8354,36279
50294,8358,36286
50308,8361,36291
50320,8365,36299
50327,8365,36309
50329,8362,36319
50327,8359,36330
50325,8355,36337
50323,8350,36334
50321,8344,36324
50314,8336,36310
50303,8327,36293
50286,8320,36274
50267,8313,36259
50245,8306,36246
50219,8296,36230
50189,8283,36209
50156,8268,36183
50123,8254,36155
50095,8238,36126
50068,8218,36093
50044,8196,36057
50023,8175,36019
50002,8155,35978
49981,8136,35942
49962,8116,35910
49944,8094,35879
49925,8069,35845
49903,8042,35809
49880,8019,35774
49858,8002,35743
49837,7989,35714
49819,7978,35688
49804,7965,35665
49789,7949,35639
49774,7930,35604
49761,7911,35564
49745,7893,35519
49726,7877,35474
49704,7861,35433
49677,7843,35400
49653,7824,35372
49634,7806,35347
49615,7788,35318
49600,7772,35289
49587,7758,35256
49575,7743,35220
49559,7728,35181
49537,7710,35143
49512,7693,35113
49487,7677,35093
49463,7658,35076
49444,7638,35057
49431,7617,35040
49425,7597,35021
49418,7576,34997
49406,7558,34969
49388,7543,34938
49368,7529,34904
49348,7513,34866
49326,7497,34830
49311,7486,34801
49299,7478,34779
49288,7467,34758
49273,7453,34732
49256,7437,34703
49236,7423,34674
49211,7406,34641
49184,7388,34602
49160,7370,34562
49135,7352,34527
49110,7334,34497
49086,7315,34465
49064,7298,34433
49045,7281,34406
49030,7266,34384
49016,7252,34364
49000,7235,34341
48982,7213,34308
48965,7188,34272
48952,7165,34243
48942,7143,34220
48935,7121,34198
48924,7101,34172
48908,7081,34134
48890,7062,34087
48868,7049,34040
48846,7042,33998
48827,7043,33962
48816,7049,33937
48814,7060,33927
48822,7077,33931
48841,7105,33957
48874,7148,34013
48921,7205,34098
48975,7269,34204
49039,7341,34330
49117,7422,34476
49206,7512,34645
49298,7607,34825
49393,7704,35003
49495,7801,35176
49602,7895,35344
49713,7991,35514
49829,8090,35687
49941,8188,35856
50044,8283,36010
50137,8373,36149
50222,8457,36277
50299,8532,36401
50367,8599,36516
50426,8658,36626
50479,8710,36727
50526,8751,36812
50565,8779,36883
50594,8797,36944
50615,8810,36994
50631,8820,37031
50641,8823,37057
50646,8824,37073
50652,8828,37087
50657,8836,37100
50656,8843,37107
50649,8848,37108
50638,8852,37106
50627,8857,37103
50619,8864,37105
50617,8872,37113
50624,8882,37123
50639,8895,37136
50655,8907,37149
50671,8914,37158
50686,8917,37163
50695,8914,37159
50695,8904,37148
50689,8895,37139
50681,8888,37131
50667,8878,37119
50647,8868,37106
50627,8858,37091
50608,8848,37071
50590,8837,37045
50573,8828,37016
50558,8822,36989
50545,8814,36963
50533,8800,36938
50525,8783,36912
50523,8769,36893
50522,8753,36881
50518,8733,36871
50512,8715,36857
50511,8704,36844
50511,8700,36835
50513,8701,36825
50517,8710,36821
50524,8725,36827
50528,8740,36832
50529,8755,36836
50529,8770,36842
50525,8782,36849
50520,8787,36852
50517,8789,36853
50515,8785,36852
50512,8776,36850
50506,8765,36846
50500,8754,36843
50493,8741,36842
50484,8727,36838
50472,8713,36828
50455,8699,36811
50435,8685,36786
50410,8669,36756
50385,8654,36727
50362,8639,36697
50340,8622,36662
50316,8603,36621
50291,8583,36577
50266,8563,36534
50243,8545,36494
50221,8530,36461
50205,8515,36434
50192,8498,36405
50178,8474,36374
50162,8448,36342
50143,8424,36310
50118,8401,36279
50088,8376,36250
50054,8351,36219
50021,8329,36190
49992,8313,36165
49967,8302,36140
49945,8291,36108
49920,8275,36063
49892,8255,36012
49861,8232,35956
49831,8205,35896
49805,8180,35843
49786,8158,35802
49770,8135,35764
49755,8108,35722
49740,8082,35676
49723,8061,35627
49703,8043,35576
49685,8029,35527
49665,8016,35485
49644,8005,35450
49624,7996,35420
49604,7984,35390
49582,7964,35354
49557,7938,35315
49533,7912,35278
49511,7888,35248
49487,7865,35225
49463,7844,35213
49441,7827,35205
49419,7808,35190
49395,7787,35165
49370,7763,35133
49343,7738,35097
49316,7710,35057
49293,7682,35017
49271,7658,34978
49247,7640,34943
49227,7628,34915
49212,7619,34891
49203,7611,34868
49193,7600,34839
49181,7586,34806
49165,7574,34774
49147,7564,34744
49123,7550,34705
49097,7533,34658
49073,7516,34614
49056,7500,34577
49042,7479,34546
49026,7453,34517
49015,7430,34499
49013,7413,34491
49014,7399,34487
49021,7393,34492
49037,7400,34514
49057,7420,34548
49080,7455,34597
49113,7502,34666
49157,7561,34754
49211,7632,34862
49275,7716,34987
49351,7810,35125
49440,7909,35278
49540,8010,35443
49649,8113,35614
49762,8219,35788
49874,8324,35965
49981,8425,36136
50080,8519,36294
50171,8606,36440
50259,8689,36580
50347,8767,36711
50428,8836,36829
50501,8897,36936
50566,8951,37033
50623,8998,37122
50669,9043,37199
50702,9080,37262
50729,9112,37310
50750,9138,37347
50767,9155,37377
50784,9167,37407
50800,9175,37436
50812,9183,37461
50820,9189,37479
50824,9197,37489
50832,9208,37498
50846,9221,37510
50867,9233,37522
50890,9244,37539
50908,9250,37560
50920,9254,37587
50928,9259,37618
50929,9267,37642
50927,9277,37656
50929,9289,37664
50931,9304,37666
50935,9318,37664
50938,9324,37660
50936,9320,37652
50930,9308,37642
50920,9292,37629
50905,9274,37608
50888,9255,37579
50868,9239,37545
50846,9221,37503
50822,9201,37456
50795,9175,37412
50766,9141,37373
50739,9108,37342
50717,9084,37320
50697,9067,37298
50679,9055,37274
50665,9049,37254
50650,9045,37230
50632,9043,37201
50620,9041,37177
50612,9036,37160
50606,9028,37148
50601,9021,37144
50596,9018,37148
50589,9020,37153
50580,9021,37151
50567,9016,37140
50553,9009,37129
50538,9005,37125
50527,9003,37126
50517,9003,37124
50512,9005,37120
50512,9012,37117
50513,9019,37110
50511,9018,37098
50504,9007,37084
50494,8990,37073
50486,8972,37064
50478,8954,37054
50462,8937,37034
50440,8920,37006
50416,8903,36969
50390,8883,36925
50359,8858,36871
50324,8829,36810
50290,8800,36751
50262,8774,36699
50238,8751,36656
50217,8730,36621
50197,8708,36582
50175,8684,36538
50152,8661,36499
50126,8636,36466
50095,8612,36434
50065,8593,36401
50034,8576,36364
50003,8561,36327
49972,8548,36292
49942,8534,36257
49911,8517,36219
49881,8500,36182
49856,8481,36151
49836,8458,36124
49818,8430,36095
49798,8400,36060
49777,8373,36026
49760,8346,35998
49745,8316,35971
49732,8282,35936
49719,8249,35895
49706,8220,35855
49691,8198,35819
49675,8182,35782
49657,8173,35743
49639,8166,35707
49619,8156,35669
49600,8146,35633
49581,8138,35600
49559,8127,35563
49535,8113,35517
49509,8094,35464
49485,8072,35410
49460,8045,35359
49432,8017,35314
49401,7990,35272
49372,7971,35236
49351,7961,35210
49338,7956,35191
49327,7951,35174
49309,7940,35153
49282,7923,35129
49252,7901,35098
49221,7874,35061
49196,7848,35027
49176,7826,34995
49156,7809,34958
49137,7791,34914
49121,7767,34865
49108,7742,34817
49098,7717,34771
49082,7688,34727
49060,7659,34689
49040,7636,34661
49027,7620,34642
49019,7606,34626
49011,7593,34611
48999,7575,34590
48978,7550,34557
48953,7526,34519
48937,7510,34492
48932,7502,34479
48936,7503,34481
48950,7514,34499
48974,7536,34540
49011,7572,34605
49059,7623,34690
49118,7684,34791
49188,7755,34908
49269,7835,35044
49358,7925,35194
49451,8022,35350
49547,8127,35513
49646,8237,35680
49749,8351,35850
49855,8462,36023
49960,8568,36194
50064,8667,36360
50164,8760,36518
50259,8844,36667
50352,8921,36813
50446,8995,36962
50538,9066,37107
50620,9129,37235
50689,9182,37346
50748,9228,37443
50796,9268,37529
50833,9304,37606
50865,9336,37676
50893,9363,37733
50919,9386,37780
50944,9407,37821
50969,9430,37860
50990,9452,37892
51003,9468,37908
51012,9484,37916
51024,9503,37926
51033,9523,37939
51039,9543,37955
51049,9564,37972
51063,9586,37987
51079,9607,37997
51097,9629,38005
51116,9649,38015
51135,9667,38027
51155,9682,38047
51175,9691,38070
51190,9693,38090
51196,9689,38103
51194,9679,38110
51186,9666,38111
51178,9653,38106
51171,9644,38099
51163,9640,38091
51149,9634,38074
51130,9627,38048
51111,9619,38019
51094,9612,37991
51083,9604,37967
51077,9593,37948
51070,9577,37932
51058,9558,37914
51048,9541,37901
51040,9526,37891
51031,9509,37878
51021,9496,37868
51012,9488,37869
51004,9484,37876
50999,9482,37879
50998,9479,37878
51001,9478,37877
51000,9478,37875
50996,9477,37869
50991,9478,37857
50987,9483,37839
50982,9487,37816
50978,9488,37789
50979,9487,37764
50982,9483,37746
50981,9474,37732
50979,9463,37722
50976,9457,37710
50972,9454,37694
50965,9449,37674
50949,9432,37650
50924,9405,37622
50894,9373,37592
50856,9338,37560
50808,9304,37524
50758,9273,37486
50712,9248,37446
50675,9224,37407
50649,9200,37365
50626,9173,37319
50600,9140,37274
50572,9104,37232
50542,9070,37193
50511,9043,37151
50480,9019,37102
50446,8997,37050
50410,8975,36991
50375,8953,36929
50346,8932,36872
50321,8910,36824
50298,8886,36783
50275,8858,36748
50250,8826,36715
50222,8797,36678
50195,8779,36640
50175,8771,36602
50157,8762,36558
50132,8746,36505
50098,8720,36440
50060,8692,36378
50025,8668,36325
49995,8649,36280
49971,8633,36243
49949,8614,36206
49928,8592,36169
49914,8572,36134
49904,8548,36097
49894,8522,36058
49879,8492,36023
49866,8465,35995
49852,8440,35969
49830,8416,35940
49803,8390,35908
49777,8363,35878
49753,8339,35852
49734,8320,35832
49716,8303,35813
49694,8283,35782
49666,8257,35739
49636,8232,35694
49608,8210,35657
49578,8190,35623
49544,8172,35588
49510,8157,35554
49478,8145,35518
49449,8131,35476
49424,8119,35429
49407,8111,35388
49397,8104,35350
49390,8090,35308
49377,8068,35267
49360,8037,35232
49341,8002,35201
49319,7969,35168
49292,7941,35129
49267,7918,35085
49245,7899,35041
49221,7884,34996
49198,7871,34951
49173,7858,34904
49150,7840,34859
49124,7814,34817
49096,7786,34782
49066,7758,34755
49037,7728,34726
49006,7696,34686
48976,7664,34636
48948,7637,34587
48923,7611,34545
48900,7583,34507
48877,7553,34464
48849,7521,34414
48819,7490,34364
48790,7460,34311
48765,7432,34256
48746,7405,34202
48735,7382,34150
48728,7363,34099
48722,7345,34048
48716,7328,34001
48712,7313,33962
48713,7299,33933
48716,7290,33921
48723,7287,33928
48734,7291,33949
48749,7303,33978
48773,7329,34019
48808,7370,34077
48850,7421,34151
48902,7479,34241
48965,7545,34347
49038,7622,34474
49122,7709,34620
49214,7804,34784
49313,7906,34961
49416,8014,35150
49520,8128,35343
49626,8246,35536
49736,8367,35733
49839,8484,35929
49932,8588,36107
50015,8678,36262
50092,8760,36403
50161,8834,36533
50220,8898,36649
50270,8952,36755
50317,8999,36850
50364,9041,36937
50410,9081,37018
50450,9120,37091
50485,9154,37154
50513,9185,37209
50538,9214,37258
50555,9236,37297
50566,9250,37327
50575,9263,37352
50587,9280,37379
50600,9303,37414
50613,9331,37454
50625,9363,37492
50637,9395,37524
50646,9425,37546
50651,9448,37561
50652,9465,37569
50653,9476,37575
50655,9485,37584
50659,9491,37597
50662,9495,37610
50661,9501,37623
50661,9506,37634
50662,9508,37642
50664,9508,37646
50663,9506,37646
50661,9505,37646
50658,9505,37648
50657,9506,37653
50656,9502,37657
50653,9494,37658
50647,9485,37655
50638,9474,37648
50627,9462,37645
50618,9457,37645
50612,9455,37647
50607,9451,37641
50599,9441,37623
50592,9430,37600
50587,9417,37579
50583,9406,37560
50581,9396,37541
50578,9386,37516
50571,9377,37492
50563,9373,37480
50560,9372,37481
50559,9371,37484
50554,9368,37479
50548,9363,37466
50546,9362,37455
50552,9370,37452
50561,9384,37459
50570,9397,37471
50571,9403,37482
50565,9403,37489
50556,9398,37488
50542,9388,37479
50524,9372,37463
50507,9354,37435
50492,9335,37395
50479,9317,37352
50468,9301,37312
50457,9284,37276
50441,9264,37245
50422,9245,37219
50400,9230,37192
50374,9212,37159
50343,9191,37118
50306,9167,37071
50271,9142,37028
50243,9120,36994
50220,9102,36970
50196,9084,36949
50170,9064,36923
50140,9040,36885
50104,9013,36839
50064,8984,36797
50022,8954,36760
49980,8927,36723
49939,8904,36687
49898,8879,36653
49858,8852,36619
49824,8828,36587
49795,8809,36556
49770,8792,36523
49749,8776,36489
49730,8759,36456
49712,8740,36423
49694,8721,36393
49679,8703,36367
49662,8686,36338
49639,8666,36302
49613,8649,36266
49585,8635,36233
49554,8618,36197
49523,8602,36159
49495,8586,36123
49470,8569,36088
49445,8548,36050
49421,8527,36015
49401,8508,35989
49385,8490,35968
49368,8470,35942
49350,8452,35909
49339,8441,35881
49334,8435,35860
49328,8427,35841
49319,8417,35820
49301,8404,35792
49276,8386,35760
49251,8369,35724
49228,8354,35692
49206,8338,35665
49183,8315,35633
49155,8288,35593
49124,8259,35549
49092,8233,35505
49066,8211,35466
49047,8189,35438
49034,8170,35421
49024,8151,35405
49009,8131,35380
48987,8111,35346
48970,8096,35308
48958,8084,35268
48943,8073,35222
48922,8061,35169
48894,8043,35116
48858,8019,35061
48819,7993,35004
48778,7967,34951
48736,7941,34905
48698,7921,34868
48667,7907,34841
48644,7895,34818
48627,7885,34798
48616,7879,34784
48605,7869,34770
48592,7856,34745
48580,7842,34717
48570,7827,34689
48555,7810,34657
48540,7792,34625
48533,7777,34597
48532,7769,34574
48529,7766,34558
48521,7764,34539
48508,7759,34511
48493,7748,34472
48479,7736,34436
48469,7730,34418
48469,7734,34421
48485,7750,34450
48517,7778,34503
48563,7818,34578
48624,7872,34677
48702,7939,34792
48794,8018,34916
48898,8108,35054
49007,8207,35212
49117,8311,35376
49226,8419,35540
49337,8534,35713
49451,8653,35897
49562,8769,36081
49671,8880,36259
49771,8982,36434
49861,9072,36598
49945,9148,36749
50020,9212,36887
50088,9270,37016
50155,9326,37141
50215,9380,37252
50263,9427,37345
50300,9471,37426
50333,9513,37497
50357,9549,37559
50376,9573,37608
50396,9593,37648
50416,9607,37683
50432,9613,37709
50444,9615,37726
50453,9620,37739
50461,9629,37750
50468,9644,37764
50476,9661,37781
50485,9680,37796
50494,9704,37815
50498,9724,37836
50491,9731,37849
50480,9726,37857
50476,9716,37865
50481,9708,37874
50488,9702,37883
50495,9699,37889
50508,9705,37892
50520,9715,37889
50527,9723,37879
50529,9730,37869
50524,9736,37863
50508,9737,37856
50485,9731,37844
50462,9722,37829
50441,9712,37809
50422,9700,37786
50405,9684,37759
50396,9668,37733
50396,9652,37711
50398,9634,37692
50396,9615,37674
50394,9597,37658
50397,9585,37653
50406,9582,37659
50421,9585,37670
50436,9590,37678
50442,9591,37679
50445,9592,37673
50449,9593,37665
50450,9595,37654
50445,9598,37641
50440,9607,37627
50439,9620,37619
50442,9635,37625
50445,9645,37642
50446,9649,37659
50445,9647,37672
50442,9642,37679
50439,9638,37687
50439,9637,37699
50441,9638,37712
50444,9639,37724
50445,9637,37729
50438,9628,37718
50422,9613,37692
50398,9598,37655
50364,9583,37609
50325,9567,37557
50287,9550,37500
50251,9533,37442
50216,9516,37390
50179,9493,37343
50143,9462,37297
50110,9425,37253
50082,9389,37209
50058,9361,37168
50036,9342,37130
50015,9332,37095
49998,9326,37063
49981,9321,37036
49960,9309,37008
49936,9288,36979
49909,9264,36953
49880,9239,36927
49853,9216,36897
49831,9196,36863
49810,9178,36822
49794,9164,36785
49784,9155,36754
49776,9149,36721
49764,9137,36677
49744,9114,36620
49718,9084,36556
49688,9054,36491
49654,9026,36429
49620,9002,36376
49589,8982,36333
49562,8965,36301
49541,8948,36277
49526,8935,36266
49520,8925,36261
49515,8914,36253
49509,8901,36239
49503,8890,36222
49497,8877,36203
49489,8857,36177
49479,8833,36147
49471,8812,36124
49465,8795,36110
49460,8782,36104
49452,8768,36098
49441,8753,36085
49427,8744,36064
49407,8737,36036
49382,8729,35995
49356,8722,35946
49332,8715,35893
49308,8706,35842
49283,8696,35806
49260,8684,35784
49234,8665,35757
49203,8638,35719
49175,8611,35678
49155,8590,35639
49143,8573,35599
49132,8557,35550
49123,8541,35500
49118,8528,35454
49114,8513,35410
49105,8491,35363
49094,8465,35322
49082,8436,35291
49070,8407,35267
49064,8385,35252
49064,8378,35253
49073,8390,35277
49097,8416,35321
49136,8454,35380
49185,8504,35453
49241,8564,35545
49308,8633,35659
49384,8706,35792
49466,8782,35941
49555,8864,36105
49653,8955,36273
49763,9060,36447
49882,9173,36627
49997,9280,36804
50103,9379,36976
50206,9478,37148
50306,9578,37325
50401,9677,37499
50489,9772,37656
50570,9864,37800
50644,9953,37938
50710,10031,38062
50763,10092,38164
50807,10141,38244
50844,10179,38303
50873,10209,38346
50894,10235,38381
50915,10257,38414
50935,10278,38440
50952,10296,38460
50966,10312,38481
50974,10325,38500
50977,10336,38516
50980,10349,38530
50984,10362,38537
50984,10374,38540
50988,10384,38548
50996,10395,38562
51008,10403,38581
51019,10407,38597
51027,10410,38610
51037,10410,38621
51046,10406,38625
51047,10399,38626
51047,10396,38632
51052,10401,38648
51061,10409,38668
51065,10413,38681
51060,10409,38681
51045,10400,38665
51028,10385,38641
51010,10370,38617
50995,10356,38596
50982,10344,38573
50971,10333,38548
50963,10318,38522
50954,10301,38495
50945,10288,38469
50936,10278,38442
50929,10272,38417
50920,10268,38396
50912,10263,38378
50904,10258,38365
50905,10258,38360
50914,10262,38360
50925,10267,38360
50940,10272,38365
50961,10275,38372
50984,10279,38378
51011,10288,38387
51041,10303,38400
51069,10318,38414
51095,10332,38427
51116,10343,38433
51129,10347,38429
51138,10346,38421
51145,10344,38411
51150,10340,38396
51149,10335,38380
51139,10327,38362
51124,10312,38338
51107,10294,38310
51090,10275,38282
51073,10255,38252
51054,10236,38221
51035,10217,38193
51013,10194,38169
50990,10171,38142
50968,10147,38111
50945,10124,38077
50921,10100,38045
50901,10078,38015
50887,10058,37983
50876,10040,37951
50867,10024,37923
50860,10012,37892
50850,9999,37856
50835,9980,37822
50816,9956,37803
50793,9928,37797
50768,9898,37791
50743,9871,37778
50718,9846,37757
50690,9824,37730
50659,9801,37697
50624,9777,37655
50594,9756,37609
50566,9739,37565
50538,9724,37520
50510,9709,37477
50488,9696,37437
50470,9685,37403
50454,9672,37369
50434,9657,37331
50412,9641,37285
50387,9625,37236
50360,9607,37189
50332,9583,37146
50303,9556,37106
50279,9534,37073
50264,9520,37054
50251,9507,37046
50235,9488,37035
50219,9463,37017
50204,9435,36996
50189,9407,36974
50173,9380,36945
50158,9349,36908
50140,9313,36862
50119,9279,36814
50100,9249,36775
50085,9223,36745
50074,9200,36714
50064,9181,36676
50049,9164,36632
50032,9146,36585
50015,9131,36544
50002,9120,36519
49990,9111,36506
49979,9104,36493
49966,9097,36478
49948,9092,36460
49927,9085,36437
49903,9077,36406
49881,9070,36375
49861,9063,36343
49844,9055,36301
49828,9045,36250
49814,9036,36203
49801,9028,36166
49787,9014,36134
49771,8993,36100
49753,8968,36059
49736,8943,36008
49720,8918,35952
49705,8896,35896
49689,8875,35848
49677,8859,35816
49677,8855,35809
49695,8868,35835
49730,8899,35894
49778,8944,35972
49838,8999,36062
49911,9067,36168
50001,9150,36297
50105,9246,36449
50217,9349,36623
50334,9457,36814
50457,9569,37017
50585,9681,37221
50710,9789,37420
50828,9893,37610
50940,9994,37794
51048,10094,37978
51154,10196,38160
51261,10295,38327
51365,10384,38474
51464,10465,38608
51551,10539,38733
51626,10605,38843
51696,10664,38939
51757,10721,39023
51807,10775,39091
51846,10818,39139
51878,10851,39167
51905,10881,39183
51924,10907,39195
51937,10929,39206
51949,10951,39219
51961,10972,39234
51975,10990,39248
51990,11007,39264
52009,11026,39282
52029,11051,39304
52047,11076,39333
52061,11096,39362
52075,11110,39387
52092,11123,39412
52108,11134,39437
52121,11141,39460
52134,11146,39483
52144,11150,39505
52148,11151,39523
52143,11150,39538
52134,11148,39547
52128,11143,39556
52120,11133,39556
52110,11120,39547
52098,11108,39534
52082,11095,39516
52061,11079,39489
52039,11057,39458
52018,11034,39425
52002,11019,39396
51992,11012,39372
51991,11008,39352
51992,11003,39333
51991,10996,39311
51985,10988,39285
51974,10978,39255
51959,10963,39225
51938,10947,39196
51917,10930,39168
51899,10908,39144
51887,10891,39127
51882,10883,39115
51881,10876,39104
51886,10869,39098
51892,10863,39098
51892,10855,39097
51892,10847,39095
51893,10840,39092
51894,10837,39090
51895,10836,39086
51898,10834,39080
51900,10829,39071
51903,10824,39060
51909,10820,39048
51915,10816,39035
51918,10813,39015
51915,10808,38988
51903,10795,38955
51880,10778,38917
51852,10757,38874
51819,10730,38829
51787,10699,38783
51758,10669,38738
51730,10643,38697
51696,10619,38656
51658,10597,38607
51624,10571,38554
51591,10544,38503
51551,10518,38455
51510,10489,38404
51475,10459,38356
51443,10427,38310
51407,10392,38263
51365,10355,38219
51326,10318,38186
51295,10286,38170
51271,10258,38163
51250,10234,38156
51231,10214,38146
51216,10198,38130
51198,10180,38111
51172,10160,38091
51141,10140,38066
51111,10120,38036
51078,10096,37997
51044,10069,37955
51013,10044,37915
50982,10018,37877
50946,9986,37837
50911,9951,37798
50879,9918,37764
50849,9889,37729
50823,9862,37693
50799,9838,37659
50777,9815,37621
50757,9793,37580
50735,9772,37540
50715,9753,37509
50695,9731,37479
50678,9706,37449
50665,9678,37418
50647,9647,37385
50624,9614,37342
50601,9579,37286
50579,9546,37225
50559,9517,37171
50542,9490,37129
50523,9464,37088
50499,9439,37047
50477,9417,37017
50461,9395,36998
50444,9371,36974
50421,9344,36940
50397,9320,36906
50372,9297,36873
50341,9274,36834
50303,9255,36787
50262,9238,36737
50226,9228,36692
50193,9221,36649
50160,9210,36601
50126,9191,36547
50092,9168,36485
50053,9140,36418
50011,9107,36348
49973,9073,36287
49946,9045,36245
49924,9018,36213
49907,8988,36185
49893,8961,36159
49887,8940,36133
49882,8920,36105
49877,8902,36073
49871,8888,36038
49863,8876,36001
49842,8861,35952
49810,8841,35894
49772,8817,35833
49734,8793,35769
49698,8770,35707
49666,8748,35657
49644,8732,35628
49635,8726,35625
49639,8737,35652
49657,8765,35709
49688,8806,35788
49729,8858,35879
49785,8920,35985
49860,8996,36110
49951,9085,36248
50052,9183,36391
50160,9285,36544
50270,9384,36710
50378,9477,36886
50483,9569,37068
50592,9664,37257
50706,9762,37451
50818,9858,37636
50916,9947,37801
51002,10029,37951
51078,10104,38088
51143,10172,38199
51196,10237,38289
51239,10298,38362
51276,10351,38415
51302,10393,38448
51321,10424,38474
51336,10446,38497
51345,10460,38513
51351,10467,38529
51354,10473,38544
51358,10477,38552
51362,10477,38554
51359,10474,38553
51352,10469,38556
51346,10466,38567
51343,10467,38581
51341,10468,38596
51340,10467,38613
51340,10467,38629
51347,10472,38644
51359,10485,38656
51371,10496,38664
51378,10502,38663
51382,10505,38656
51383,10505,38647
51382,10505,38640
51384,10509,38635
51387,10510,38627
51381,10505,38612
51367,10489,38593
51349,10464,38575
51332,10441,38561
51313,10421,38552
51291,10403,38543
51270,10388,38534
51252,10373,38523
51238,10358,38507
51231,10346,38487
51231,10341,38467
51232,10340,38443
51226,10335,38411
51214,10328,38378
51202,10323,38350
51187,10317,38325
51170,10311,38297
51157,10304,38268
51149,10294,38242
51142,10284,38222
51133,10273,38204
51125,10262,38191
51124,10255,38188
51127,10257,38191
51134,10264,38198
51141,10268,38206
51143,10269,38212
51139,10264,38219
51132,10260,38228
51122,10261,38238
51106,10264,38246
51087,10264,38250
51070,10265,38246
51058,10261,38231
51050,10255,38205
51042,10249,38174
51030,10242,38138
51013,10227,38095
50992,10202,38047
50965,10170,38004
50935,10135,37965
50904,10102,37931
50875,10074,37900
50847,10053,37873
50823,10038,37848
50800,10021,37818
50775,9995,37778
50745,9961,37730
50714,9929,37687
50690,9902,37657
50668,9876,37633
50645,9849,37611
50623,9822,37591
50602,9797,37572
50582,9779,37552
50564,9767,37530
50546,9757,37504
50523,9746,37475
50497,9737,37450
50472,9732,37427
50447,9730,37399
50416,9722,37359
50383,9708,37309
50350,9694,37256
50319,9679,37201
50293,9664,37151
50273,9648,37108
50254,9632,37063
50238,9615,37022
50227,9599,36991
50221,9584,36965
50215,9568,36945
50205,9546,36926
50190,9520,36905
50171,9494,36883
50146,9472,36858
50117,9456,36833
50092,9449,36810
50074,9446,36786
50056,9443,36756
50038,9439,36724
50021,9432,36695
50007,9419,36667
49999,9402,36643
49996,9382,36625
49992,9355,36603
49980,9324,36572
49963,9298,36542
49947,9276,36515
49931,9255,36484
49913,9233,36448
49892,9209,36405
49870,9188,36366
49851,9172,36337
49835,9158,36305
49822,9146,36270
49805,9135,36237
49781,9125,36199
49749,9115,36156
49715,9104,36115
49682,9090,36077
49648,9068,36033
49612,9042,35979
49579,9017,35918
49550,8993,35859
49528,8972,35815
49512,8955,35781
49498,8940,35747
49483,8925,35711
49467,8911,35673
49450,8897,35641
49433,8880,35609
49419,8859,35574
49406,8840,35546
49396,8827,35531
49391,8824,35531
49395,8832,35550
49410,8854,35588
49443,8891,35647
49493,8947,35734
49557,9019,35856
49634,9100,36006
49720,9181,36166
49817,9267,36330
49923,9362,36506
50035,9466,36693
50149,9571,36878
50264,9673,37058
50371,9767,37224
50461,9846,37371
50534,9914,37499
50595,9971,37606
50644,10018,37694
50685,10061,37766
50724,10105,37820
50759,10147,37863
50784,10183,37895
50798,10212,37915
50811,10236,37928
50825,10258,37937
50842,10281,37949
50857,10300,37957
50865,10309,37956
50868,10309,37946
50866,10306,37931
50860,10299,37914
50854,10292,37894
50853,10287,37877
50853,10282,37865
50847,10274,37857
50838,10265,37854
50831,10261,37860
50825,10260,37864
50819,10255,37858
50813,10245,37846
50811,10237,37835
50808,10232,37823
50805,10229,37812
50803,10225,37804
50800,10220,37794
50798,10216,37783
50800,10215,37771
50805,10217,37762
50807,10217,37754
50802,10211,37742
50791,10201,37722
50781,10191,37697
50772,10181,37673
50761,10165,37644
50745,10146,37612
50727,10132,37585
50712,10119,37562
50698,10106,37542
50688,10094,37525
50686,10085,37510
50685,10075,37497
50688,10069,37483
50690,10068,37465
50684,10065,37447
50677,10062,37434
50676,10063,37424
50680,10065,37417
50684,10065,37413
50689,10063,37413
50697,10061,37415
50712,10065,37418
50728,10073,37426
50744,10082,37438
50757,10091,37448
50765,10102,37456
50768,10109,37459
50765,10107,37452
50761,10102,37436
50757,10095,37419
50750,10083,37398
50738,10065,37372
50722,10043,37343
50708,10021,37311
50702,10003,37274
50697,9989,37235
50690,9976,37204
50681,9963,37184
50666,9947,37165
50642,9928,37141
50610,9906,37116
50574,9881,37098
50539,9852,37086
50510,9822,37070
50487,9793,37048
50471,9771,37023
50458,9757,36997
50445,9746,36963
50433,9735,36924
50420,9722,36890
50401,9702,36856
50377,9676,36817
50356,9647,36778
50339,9624,36737
50322,9604,36693
50299,9588,36649
50276,9578,36615
50255,9573,36595
50236,9568,36583
50221,9560,36573
50211,9546,36559
50207,9526,36538
50206,9508,36510
50202,9494,36480
50192,9484,36447
50180,9474,36408
50166,9456,36370
50155,9435,36340
50150,9418,36323
50146,9404,36314
50143,9392,36306
50135,9384,36298
50121,9377,36287
50101,9369,36262
50078,9362,36224
50059,9356,36185
50044,9350,36152
50031,9343,36124
50015,9331,36096
49995,9313,36061
49969,9292,36025
49941,9270,35995
49912,9248,35967
49882,9227,35937
49855,9205,35909
49836,9182,35882
49829,9160,35861
49831,9138,35842
49833,9115,35822
49835,9091,35796
49833,9067,35767
49827,9042,35733
49822,9022,35703
49821,9008,35681
49818,8996,35659
49816,8987,35640
49823,8992,35634
49837,9013,35641
49853,9041,35659
49874,9076,35692
49905,9119,35744
49948,9172,35812
50000,9235,35897
50065,9308,35999
50144,9391,36120
50231,9477,36252
50318,9560,36391
50409,9644,36535
50506,9728,36685
50607,9810,36841
50706,9888,36996
50796,9960,37142
50882,10032,37278
50963,10102,37401
51032,10166,37500
51084,10219,37573
51120,10261,37626
51147,10296,37664
51175,10328,37700
51204,10359,37737
51228,10385,37763
51245,10403,37776
51259,10416,37783
51268,10422,37784
51267,10422,37779
51259,10416,37770
51250,10407,37760
51246,10403,37753
51247,10403,37752
51250,10405,37755
51257,10406,37758
51261,10402,37757
51261,10394,37749
51258,10384,37733
51259,10374,37715
51268,10371,37703
51282,10369,37693
51295,10366,37682
51310,10365,37675
51329,10372,37674
51348,10381,37678
51359,10384,37676
51361,10378,37661
51355,10369,37639
51349,10360,37618
51345,10351,37599
51338,10336,37572
51325,10313,37540
51305,10286,37512
51279,10255,37489
51254,10225,37472
51233,10201,37455
51213,10179,37434
51196,10158,37409
51181,10141,37382
51168,10125,37354
51157,10111,37326
51149,10104,37296
51149,10106,37276
51160,10110,37268
51179,10111,37262
51200,10109,37259
51221,10104,37263
51241,10099,37267
51259,10102,37269
51278,10113,37273
51294,10120,37278
51303,10120,37278
51308,10118,37272
51313,10118,37268
51322,10120,37266
51332,10123,37265
51337,10123,37258
51333,10114,37244
51325,10100,37226
51316,10088,37203
51303,10074,37180
51295,10063,37162
51289,10057,37146
51279,10050,37132
51265,10041,37114
51245,10025,37084
51216,10003,37045
51185,9980,37005
51157,9960,36972
51131,9940,36947
51106,9919,36926
51080,9894,36895
51053,9865,36854
51031,9836,36816
51013,9812,36782
50997,9791,36747
50979,9772,36712
50956,9754,36674
50929,9734,36631
50903,9713,36583
50881,9697,36537
50867,9684,36502
50856,9670,36468
50843,9652,36437
50832,9631,36418
50817,9602,36404
50798,9567,36387
50781,9537,36372
50774,9516,36369
50779,9505,36374
50787,9495,36375
50785,9478,36357
50772,9454,36323
50752,9429,36286
50728,9404,36258
50705,9383,36243
50687,9368,36237
50674,9360,36234
50659,9356,36226
50637,9354,36207
50608,9352,36176
50579,9351,36136
50555,9349,36088
50535,9347,36037
50521,9345,35994
50512,9342,35962
50506,9337,35931
50499,9330,35897
50493,9320,35869
50486,9307,35844
50473,9289,35806
50451,9266,35758
50420,9242,35712
50390,9221,35678
50362,9203,35648
50339,9187,35614
50323,9175,35579
50315,9165,35554
50313,9156,35544
50310,9145,35542
50301,9133,35538
50288,9122,35532
50275,9112,35522
50263,9101,35507
50253,9089,35484
50243,9074,35454
50228,9050,35418
50207,9017,35379
50185,8982,35341
50166,8951,35308
50147,8920,35272
50125,8887,35231
50106,8855,35190
50092,8825,35156
50087,8802,35134
50089,8791,35127
50098,8791,35131
50108,8798,35139
50118,8813,35145
50136,8840,35162
50166,8880,35198
50202,8926,35251
50244,8978,35320
50295,9041,35414
50359,9117,35533
50436,9201,35669
50517,9287,35809
50600,9374,35953
50689,9464,36101
50782,9557,36246
50873,9648,36384
50963,9737,36513
51056,9824,36638
51148,9907,36757
51230,9980,36867
51299,10043,36969
51357,10095,37061
51406,10137,37138
51452,10170,37203
51500,10203,37266
51545,10233,37326
51581,10256,37379
51616,10278,37427
51647,10297,37464
51665,10307,37483
51669,10305,37488
51668,10300,37488
51668,10302,37492
51665,10308,37499
51663,10316,37505
51662,10326,37509
51661,10333,37510
51658,10336,37510
51659,10336,37514
51666,10338,37523
51673,10342,37534
51679,10346,37546
51686,10352,37560
51694,10359,37577
51706,10370,37594
51725,10386,37612
51748,10401,37634
51767,10409,37650
51773,10410,37649
51770,10405,37636
51768,10394,37625
51765,10376,37610
51760,10358,37593
51757,10345,37578
51751,10333,37559
51739,10318,37536
51730,10303,37513
51718,10285,37487
51701,10266,37455
51681,10245,37424
51661,10229,37398
51646,10222,37376
51638,10223,37358
51634,10225,37344
51634,10227,37332
51632,10227,37316
51629,10222,37293
51620,10212,37268
51608,10201,37250
51599,10193,37244
51597,10190,37246
51599,10186,37248
51602,10181,37252
51604,10178,37257
51603,10171,37257
51596,10159,37250
51589,10148,37243
51589,10144,37237
51597,10149,37234
51609,10158,37234
51623,10169,37236
51635,10178,37234
51640,10182,37224
51640,10180,37208
51635,10173,37193
51620,10161,37175
51599,10147,37154
51573,10128,37131
51542,10103,37101
51507,10075,37066
51472,10049,37033
51439,10026,37004
51406,10004,36972
51375,9983,36938
51348,9967,36907
51317,9952,36884
51283,9934,36863
51252,9915,36843
51231,9895,36827
51218,9879,36815
51205,9861,36800
51184,9840,36775
51161,9818,36747
51141,9799,36730
51126,9784,36724
51112,9771,36722
51102,9762,36722
51093,9752,36723
51078,9736,36709
51057,9716,36679
51033,9696,36647
51014,9682,36622
51003,9673,36608
50993,9665,36593
50977,9658,36566
50955,9647,36527
50931,9638,36484
50904,9631,36442
50876,9627,36407
50855,9628,36384
50837,9633,36367
50820,9634,36343
50804,9624,36306
50787,9603,36260
50773,9578,36211
50768,9563,36174
50768,9556,36148
50763,9550,36126
50755,9544,36104
50746,9540,36081
50741,9537,36062
50742,9532,36047
50743,9522,36031
50744,9508,36018
50743,9492,36006
50735,9475,35989
50719,9453,35961
50699,9429,35923
50674,9404,35878
50650,9383,35837
50633,9369,35804
50619,9361,35777
50610,9359,35760
50610,9362,35756
50614,9368,35758
50622,9370,35757
50625,9360,35743
50618,9338,35719
50603,9310,35692
50583,9280,35665
50560,9252,35639
50533,9226,35613
50499,9203,35586
50466,9188,35564
50438,9178,35542
50412,9169,35509
50389,9163,35473
50370,9163,35449
50354,9166,35434
50341,9166,35413
50322,9156,35379
50300,9139,35337
50279,9120,35292
50259,9099,35244
50243,9079,35202
50236,9067,35178
50235,9063,35167
50240,9068,35166
50249,9080,35183
50263,9097,35218
50284,9119,35264
50321,9153,35326
50373,9199,35410
50436,9254,35514
50516,9322,35643
50607,9399,35793
50697,9477,35952
50784,9557,36118
50872,9641,36289
50967,9731,36464
51064,9826,36643
51157,9919,36815
51240,10004,36964
51313,10082,37085
51383,10157,37192
51449,10230,37291
51506,10297,37381
51556,10357,37461
51601,10410,37528
51639,10456,37580
51669,10496,37627
51694,10531,37670
51713,10561,37708
51723,10586,37735
51726,10601,37751
51725,10611,37762
51725,10618,37775
51730,10624,37790
51734,10625,37800
51735,10623,37803
51739,10621,37802
51742,10623,37796
51742,10627,37791
51744,10634,37787
51746,10643,37783
51747,10652,37784
51750,10657,37787
51753,10661,37790
51752,10663,37795
51747,10662,37800
51741,10661,37806
51744,10664,37815
51757,10671,37827
51771,10679,37836
51781,10685,37835
51783,10684,37826
51775,10675,37813
51760,10661,37795
51743,10644,37775
51724,10622,37750
51708,10601,37723
51695,10581,37701
51681,10560,37682
51663,10540,37660
51649,10526,37641
51639,10518,37627
51629,10512,37615
51621,10509,37604
51620,10507,37597
51622,10507,37597
51624,10510,37600
51626,10517,37606
51633,10526,37613
51641,10538,37617
51649,10548,37619
51658,10555,37620
51667,10562,37617
51673,10567,37609
51679,10567,37597
51685,10568,37594
51694,10572,37607
51702,10574,37626
51709,10575,37644
51716,10577,37658
51724,10582,37668
51728,10590,37674
51733,10597,37675
51740,10605,37671
51746,10609,37660
51746,10604,37644
51739,10593,37622
51728,10586,37601
51718,10579,37585
51706,10569,37565
51687,10551,37531
51662,10527,37492
51641,10505,37464
51624,10488,37440
51607,10473,37412
51593,10460,37391
51586,10453,37377
51579,10450,37360
51564,10447,37334
51544,10439,37304
51522,10422,37267
51493,10399,37225
51461,10377,37189
51433,10357,37162
51410,10342,37142
51390,10329,37120
51369,10311,37090
51348,10291,37057
51329,10271,37022
51306,10245,36983
51279,10220,36946
51253,10201,36914
51227,10186,36887
51204,10177,36863
51192,10174,36845
51188,10171,36834
51187,10163,36821
51185,10153,36806
51182,10140,36790
51170,10121,36768
51151,10101,36742
51130,10085,36724
51112,10069,36715
51097,10057,36712
51082,10048,36709
51062,10041,36698
51040,10036,36673
51017,10031,36643
50995,10027,36619
50977,10022,36601
50960,10012,36579
50943,9998,36547
50924,9986,36515
50910,9985,36501
50903,9991,36502
50892,9994,36503
50876,9992,36502
50857,9985,36499
50837,9972,36495
50819,9958,36490
50802,9946,36482
50787,9934,36465
50773,9924,36446
50764,9918,36432
50766,9915,36426
50776,9913,36423
50784,9908,36415
50781,9897,36395
50771,9881,36366
50764,9863,36340
50763,9846,36320
50763,9829,36300
50757,9810,36275
50746,9790,36250
50731,9770,36227
50716,9749,36205
50703,9731,36186
50691,9713,36166
50678,9690,36137
50662,9666,36097
50648,9641,36053
50634,9621,36010
50622,9606,35972
50614,9596,35947
50609,9588,35930
50603,9582,35914
50594,9581,35901
50589,9587,35900
50596,9604,35923
50617,9636,35971
50647,9676,36036
50686,9725,36119
50744,9788,36229
50816,9865,36363
50897,9949,36510
50984,10034,36662
51077,10120,36806
51174,10209,36946
51275,10305,37086
51373,10403,37225
51467,10499,37361
51563,10598,37498
51662,10699,37635
51758,10793,37761
51845,10873,37869
51916,10937,37960
51975,10992,38041
52025,11041,38113
52064,11080,38173
52093,11115,38226
52119,11148,38278
52143,11173,38324
52159,11190,38351
52163,11196,38363
52159,11194,38367
52148,11188,38368
52135,11183,38369
52123,11176,38372
52115,11167,38372
52107,11158,38373
52102,11150,38371
52105,11145,38366
52111,11144,38353
52112,11140,38334
52109,11134,38320
52106,11129,38313
52100,11124,38309
52099,11124,38315
52108,11132,38325
52116,11141,38330
52121,11146,38336
52122,11146,38340
52120,11141,38337
52113,11131,38325
52101,11120,38305
52086,11107,38282
52069,11093,38258
52054,11081,38233
52044,11075,38207
52039,11071,38178
52037,11065,38151
52032,11056,38129
52023,11042,38109
52013,11029,38088
52009,11023,38073
52010,11025,38070
52014,11031,38075
52018,11038,38082
52021,11042,38084
52024,11045,38079
52024,11048,38075
52023,11048,38073
52026,11050,38073
52036,11055,38075
52051,11060,38075
52061,11062,38069
52064,11058,38059
52067,11055,38050
52073,11057,38047
52080,11058,38052
52085,11058,38061
52088,11059,38075
52088,11062,38088
52087,11067,38097
52086,11071,38108
52084,11075,38116
52077,11075,38116
52068,11070,38106
52061,11066,38095
52057,11065,38085
52052,11061,38071
52044,11048,38046
52027,11030,38012
52004,11009,37976
51981,10990,37939
51961,10971,37902
51938,10947,37861
51913,10920,37820
51888,10895,37787
51868,10875,37765
51855,10863,37745
51844,10852,37720
51828,10837,37689
51811,10820,37657
51796,10806,37629
51780,10794,37601
51763,10781,37568
51751,10771,37534
51745,10764,37507
51737,10753,37483
51726,10736,37458
51714,10719,37433
51698,10703,37404
51681,10685,37375
51664,10669,37348
51649,10657,37323
51635,10649,37297
51620,10639,37272
51608,10627,37249
51596,10614,37225
51580,10597,37194
51564,10579,37164
51548,10566,37140
51531,10555,37123
51514,10546,37112
51498,10535,37102
51482,10521,37088
51469,10506,37067
51461,10493,37044
51453,10479,37022
51439,10463,37001
51422,10449,36982
51407,10441,36967
51392,10435,36953
51378,10427,36935
51367,10419,36911
51357,10410,36888
51342,10399,36868
51323,10388,36844
51303,10379,36818
51283,10367,36795
51265,10350,36775
51250,10332,36756
51241,10318,36738
51234,10308,36721
51228,10300,36703
51220,10292,36686
51209,10284,36674
51202,10282,36664
51201,10287,36654
51202,10289,36642
51197,10286,36625
51192,10278,36604
51185,10267,36579
51176,10250,36555
51166,10229,36526
51153,10202,36490
51138,10175,36453
51120,10148,36418
51097,10121,36380
51076,10097,36340
51063,10081,36307
51056,10072,36285
51056,10069,36275
51065,10077,36283
51087,10101,36316
51121,10140,36372
51164,10190,36445
51218,10247,36533
51281,10313,36635
51351,10386,36754
51431,10465,36888
51517,10551,37034
51610,10643,37188
51710,10741,37352
51812,10842,37522
51915,10942,37690
52015,11040,37845
52105,11130,37989
52186,11216,38126
52262,11297,38254
52331,11370,38370
52393,11433,38471
52448,11484,38559
52497,11526,38637
52543,11563,38708
52580,11593,38764
52609,11616,38796
52623,11631,38800
52625,11639,38781
52623,11642,38752
52626,11641,38724
52629,11639,38700
52629,11640,38679
52628,11641,38659
52626,11637,38639
52619,11625,38616
52607,11610,38595
52599,11601,38580
52600,11601,38574
52609,11602,38575
52620,11603,38578
52626,11608,38578
52632,11620,38578
52643,11636,38584
52655,11648,38591
52666,11654,38601
52670,11657,38608
52670,11660,38607
52671,11662,38596
52674,11661,38582
52676,11656,38570
52667,11645,38556
52652,11631,38536
52641,11614,38515
52630,11594,38495
52620,11576,38474
52609,11563,38454
52600,11555,38433
52593,11545,38408
52590,11532,38385
52588,11520,38369
52581,11510,38354
52568,11499,38335
52554,11490,38315
52544,11483,38303
52544,11483,38302
52553,11495,38310
52570,11511,38317
52590,11520,38318
52611,11521,38316
52630,11519,38314
52638,11515,38311
52640,11509,38309
52644,11507,38314
52653,11509,38325
52663,11515,38335
52667,11520,38336
52663,11516,38328
52652,11503,38316
52635,11488,38301
52619,11473,38282
52612,11462,38264
52611,11456,38252
52608,11455,38240
52603,11455,38229
52595,11450,38218
52588,11445,38208
52581,11441,38196
52576,11440,38178
52573,11437,38157
52563,11428,38134
52544,11416,38110
52521,11403,38084
52501,11387,38058
52479,11365,38032
52452,11338,38002
52421,11310,37964
52395,11284,37923
52372,11260,37886
52353,11241,37865
52338,11223,37860
52321,11201,37860
52300,11176,37860
52278,11152,37858
52254,11128,37852
52238,11109,37844
52226,11098,37837
52210,11089,37828
52191,11078,37818
52178,11073,37807
52173,11071,37796
52168,11068,37781
52158,11056,37755
52141,11034,37719
52117,11007,37681
52091,10982,37647
52070,10965,37625
52055,10955,37610
52040,10944,37591
52023,10932,37570
52003,10916,37547
51983,10896,37525
51964,10878,37510
51951,10867,37501
51945,10860,37490
51941,10853,37473
51938,10848,37453
51931,10838,37431
51923,10826,37406
51916,10814,37383
51906,10798,37360
51892,10781,37335
51880,10768,37315
51869,10757,37295
51856,10743,37273
51837,10725,37247
51813,10708,37221
51789,10693,37203
51769,10682,37194
51756,10676,37184
51748,10669,37169
51739,10662,37150
51726,10653,37123
51709,10639,37091
51693,10621,37058
51684,10606,37029
51679,10595,37005
51676,10584,36984
51669,10574,36965
51656,10561,36946
51641,10546,36925
51629,10536,36898
51619,10529,36866
51607,10516,36828
51591,10497,36785
51573,10478,36743
51552,10460,36707
51530,10439,36675
51509,10415,36641
51489,10388,36600
51468,10361,36555
51449,10335,36517
51431,10311,36483
51414,10293,36450
51398,10277,36419
51382,10260,36386
51365,10241,36352
51348,10220,36316
51331,10202,36282
51316,10189,36257
51304,10178,36243
51298,10170,36235
51302,10165,36236
51315,10165,36234
51331,10169,36229
51353,10184,36239
51381,10210,36269
51412,10246,36320
51456,10290,36397
51515,10348,36498
51585,10420,36617
51661,10500,36749
51743,10586,36894
51830,10682,37046
51916,10782,37207
52005,10885,37378
52102,10991,37559
52206,11099,37744
52312,11206,37922
52410,11303,38081
52497,11385,38220
52574,11455,38342
52643,11515,38447
52706,11569,38541
52760,11617,38625
52803,11662,38699
52836,11703,38761
52865,11739,38808
52893,11771,38831
52920,11794,38830
52940,11810,38819
52952,11827,38807
52962,11842,38800
52971,11852,38795
52978,11859,38791
52980,11867,38786
52977,11872,38778
52968,11869,38766
52954,11864,38753
52942,11859,38745
52935,11856,38745
52936,11858,38748
52947,11865,38756
52961,11874,38770
52967,11881,38783
52969,11881,38790
52973,11877,38795
52975,11875,38803
52974,11874,38811
52974,11875,38818
52979,11878,38825
52982,11882,38829
52982,11885,38830
52978,11888,38828
52976,11891,38823
52973,11890,38819
52967,11884,38813
52960,11875,38799
52955,11864,38780
52952,11851,38758
52950,11835,38732
52950,11817,38706
52946,11794,38677
52938,11770,38646
52932,11750,38619
52925,11736,38598
52920,11725,38585
52919,11719,38579
52919,11719,38571
52926,11724,38566
52938,11733,38568
52948,11742,38572
52957,11748,38575
52964,11749,38576
52963,11744,38574
52958,11734,38568
52955,11721,38561
52957,11710,38559
52961,11704,38559
52966,11703,38561
52970,11700,38561
52966,11693,38556
52958,11683,38544
52954,11677,38529
52953,11668,38513
52950,11652,38495
52944,11639,38474
52938,11629,38450
52931,11621,38425
52928,11616,38403
52931,11614,38383
52928,11604,38360
52913,11589,38332
52890,11570,38301
52866,11550,38265
52835,11526,38221
52799,11496,38175
52763,11468,38135
52731,11445,38104
52702,11424,38074
52679,11408,38047
52662,11395,38021
52646,11379,37992
52623,11358,37960
52596,11341,37930
52569,11326,37903
52546,11309,37880
52527,11290,37858
52508,11272,37831
52493,11256,37802
52481,11239,37781
52459,11223,37775
52432,11210,37783
52408,11198,37799
52384,11184,37809
52358,11167,37812
52334,11148,37810
52313,11128,37803
52296,11109,37790
52283,11089,37772
52272,11077,37757
52265,11072,37745
52260,11070,37730
52256,11067,37708
52249,11058,37673
52238,11043,37633
52223,11026,37599
52207,11012,37572
52190,11002,37548
52172,10993,37527
52152,10986,37509
52127,10977,37496
52094,10961,37484
52061,10943,37466
52042,10931,37443
52035,10923,37421
52030,10914,37401
52024,10903,37383
52018,10890,37365
52008,10873,37337
51991,10850,37301
51967,10826,37262
51937,10801,37223
51907,10774,37185
51880,10751,37147
51854,10730,37110
51829,10711,37076
51812,10700,37051
51802,10696,37031
51795,10690,37006
51782,10676,36978
51767,10655,36950
51750,10632,36919
51735,10611,36895
51725,10596,36878
51717,10583,36860
51712,10571,36845
51704,10560,36829
51696,10549,36807
51690,10541,36785
51679,10531,36764
51661,10517,36744
51639,10503,36726
51617,10490,36704
51594,10477,36678
51569,10462,36648
51537,10439,36607
51501,10407,36558
51467,10374,36509
51441,10349,36470
51423,10331,36439
51411,10317,36414
51407,10306,36390
51404,10297,36368
51391,10285,36346
51368,10266,36318
51340,10243,36284
51314,10225,36253
51297,10218,36234
51290,10222,36232
51294,10236,36251
51314,10265,36295
51351,10309,36364
51398,10361,36450
51455,10419,36546
51530,10489,36651
51623,10573,36774
51726,10671,36921
51835,10780,37087
51942,10889,37264
52043,10993,37443
52140,11094,37620
52230,11193,37794
52316,11293,37967
52402,11389,38134
52480,11474,38284
52550,11548,38416
52616,11613,38535
52678,11673,38644
52729,11726,38732
52772,11771,38789
52809,11804,38818
52832,11826,38825
52840,11844,38818
52844,11862,38807
52851,11881,38798
52857,11895,38788
52855,11899,38776
52849,11897,38769
52843,11890,38762
52834,11883,38750
52826,11880,38740
52825,11879,38737
52829,11879,38737
52834,11883,38739
52833,11885,38739
52829,11878,38734
52823,11863,38724
52815,11849,38716
52812,11841,38712
52817,11838,38709
52826,11837,38709
52831,11840,38709
52830,11844,38709
52832,11849,38711
52841,11854,38716
52856,11861,38724
52869,11871,38728
52872,11874,38720
52865,11866,38705
52853,11852,38688
52833,11834,38662
52812,11813,38630
52792,11792,38597
52771,11775,38562
52748,11757,38526
52725,11734,38492
52705,11710,38465
52689,11694,38446
52683,11687,38436
52688,11687,38432
52699,11688,38432
52708,11691,38430
52709,11691,38422
52705,11686,38412
52700,11676,38404
52693,11667,38398
52686,11663,38395
52684,11667,38396
52688,11674,38402
52689,11679,38407
52686,11682,38411
52682,11686,38416
52686,11693,38424
52694,11702,38439
52699,11712,38454
52700,11717,38461
52697,11711,38461
52688,11698,38455
52679,11686,38443
52676,11677,38428
52676,11672,38413
52668,11671,38398
52648,11665,38376
52619,11653,38346
52588,11640,38316
52559,11628,38289
52535,11616,38264
52512,11601,38238
52491,11582,38206
52474,11557,38169
52457,11530,38126
52439,11505,38078
52420,11483,38033
52397,11462,37990
52367,11440,37944
52339,11418,37904
52310,11397,37884
52276,11377,37887
52244,11358,37898
52213,11340,37907
52180,11321,37917
52152,11300,37925
52131,11282,37926
52117,11268,37924
52104,11253,37914
52085,11236,37893
52061,11217,37867
52039,11200,37844
52023,11188,37819
52006,11174,37790
51986,11154,37756
51963,11130,37720
51938,11102,37685
51912,11075,37652
51889,11054,37627
51876,11045,37615
51872,11049,37612
51870,11058,37610
51872,11070,37609
51878,11080,37606
51881,11081,37593
51877,11067,37565
51863,11048,37527
51843,11027,37489
51819,11008,37456
51792,10988,37429
51770,10968,37401
51753,10949,37373
51744,10939,37352
51744,10935,37335
51741,10932,37313
51736,10927,37291
51734,10918,37275
51732,10904,37256
51725,10884,37232
51714,10866,37213
51705,10857,37203
51698,10857,37195
51690,10860,37185
51681,10860,37174
51669,10853,37161
51651,10840,37143
51625,10824,37117
51597,10804,37083
51567,10779,37042
51535,10750,36995
51505,10722,36947
51484,10699,36906
51464,10678,36869
51438,10653,36830
51410,10626,36794
51380,10600,36763
51356,10577,36738
51342,10562,36718
51335,10555,36703
51330,10550,36688
51328,10547,36678
51335,10556,36681
51353,10576,36701
51382,10606,36737
51423,10650,36798
51478,10712,36884
51547,10789,36993
51632,10876,37125
51725,10966,37269
51816,11053,37415
51904,11139,37564
51991,11230,37719
52074,11321,37874
52151,11408,38023
52224,11490,38169
52300,11573,38315
52381,11660,38460
52464,11746,38602
52543,11823,38731
52614,11886,38835
52676,11935,38906
52725,11971,38949
52760,11997,38972
52792,12021,38986
52823,12043,38994
52846,12058,38997
52852,12063,38998
52844,12065,38995
52831,12069,38988
52823,12074,38982
52824,12078,38982
52828,12080,38984
52826,12083,38987
52821,12087,38987
52814,12090,38986
52812,12092,38986
52813,12089,38980
52816,12084,38969
52826,12079,38959
52834,12072,38947
52833,12061,38929
52830,12051,38909
52820,12040,38887
52806,12029,38864
52798,12020,38845
52792,12014,38835
52785,12010,38832
52782,12012,38835
52790,12017,38840
52800,12018,38842
52803,12013,38835
52800,12008,38818
52792,11997,38793
52786,11985,38766
52781,11974,38742
52770,11961,38715
52752,11945,38685
52734,11931,38657
52720,11915,38635
52710,11898,38619
52701,11887,38606
52690,11877,38593
52679,11868,38575
52674,11858,38559
52673,11848,38548
52672,11840,38543
52669,11836,38539
52665,11834,38533
52662,11830,38524
52666,11827,38518
52677,11827,38520
52688,11830,38529
52700,11839,38543
52712,11855,38558
52722,11868,38570
52728,11876,38577
52731,11881,38578
52727,11882,38571
52719,11874,38556
52707,11859,38536
52692,11842,38514
52674,11827,38494
52658,11814,38475
52650,11802,38459
52646,11792,38448
52642,11781,38435
52631,11768,38410
52614,11751,38374
52596,11731,38339
52582,11714,38311
52568,11703,38285
52550,11695,38256
52526,11682,38223
52499,11660,38186
52471,11636,38152
52446,11621,38122
52424,11612,38092
52401,11598,38054
52379,11580,38017
52359,11564,37985
52344,11547,37953
52337,11528,37922
52335,11508,37891
52328,11485,37860
52316,11462,37833
52302,11442,37822
52286,11424,37832
52267,11408,37854
52248,11395,37880
52233,11384,37909
52221,11375,37934
52207,11366,37952
52194,11357,37959
52181,11346,37952
52171,11333,37933
52166,11325,37908
52158,11319,37881
52140,11306,37850
52116,11290,37816
52094,11277,37786
52073,11267,37760
52049,11253,37732
52025,11236,37703
52004,11219,37672
51988,11206,37641
51972,11197,37612
51953,11187,37586
51934,11176,37565
51915,11168,37547
51894,11157,37524
51872,11143,37498
51855,11130,37471
51837,11114,37447
51817,11092,37426
