green_channel,red_channel,ir_channel
17608,49594,5264
17587,49576,5210
17547,49532,5129
17494,49470,5033
17458,49434,4966
17428,49409,4912
17376,49354,4827
17316,49289,4730
17272,49251,4658
17231,49219,4591
17170,49159,4493
17108,49092,4386
17066,49050,4303
17025,49009,4221
16965,48939,4110
16906,48871,4009
16868,48831,3943
16829,48788,3876
16776,48722,3786
16731,48668,3708
16705,48642,3663
16673,48606,3612
16622,48546,3537
16579,48501,3473
16554,48488,3434
16520,48463,3378
16471,48412,3292
16434,48374,3222
16414,48357,3180
16381,48321,3117
16330,48257,3028
16294,48212,2960
16273,48192,2914
16236,48151,2844
16182,48087,2751
16147,48050,2687
16130,48043,2651
16102,48017,2593
16062,47974,2520
16038,47952,2476
16021,47944,2447
15980,47907,2385
15933,47856,2307
15911,47837,2264
15899,47832,2239
15866,47800,2186
15828,47761,2126
15820,47762,2111
15834,47786,2131
15846,47802,2152
15876,47835,2206
15956,47923,2336
16065,48043,2520
16180,48161,2730
16316,48306,2988
16489,48501,3312
16679,48712,3661
16865,48906,4000
17060,49110,4354
17276,49344,4741
17481,49570,5116
17659,49764,5451
17837,49957,5779
18026,50162,6111
18196,50342,6404
18339,50483,6642
18477,50619,6866
18613,50764,7089
18719,50882,7268
18793,50962,7392
18863,51039,7504
18932,51119,7613
18970,51166,7677
18982,51175,7696
18998,51190,7717
19018,51213,7741
19011,51203,7721
18981,51163,7664
18961,51143,7622
18949,51138,7595
18915,51101,7540
18865,51044,7466
18836,51016,7422
18820,51007,7393
18781,50968,7329
18731,50913,7249
18700,50882,7195
18675,50857,7146
18627,50796,7056
18569,50721,6949
18524,50669,6863
18472,50618,6771
18395,50536,6641
18312,50446,6503
18247,50380,6396
18190,50321,6294
18119,50240,6168
18054,50161,6053
18013,50110,5977
17974,50065,5906
17919,50005,5816
17872,49956,5745
17849,49939,5713
17827,49917,5681
17791,49871,5630
17769,49846,5605
17775,49858,5622
17781,49869,5637
17774,49863,5635
17784,49879,5659
17817,49924,5715
17840,49953,5755
17849,49959,5773
17873,49981,5813
17913,50020,5875
17935,50035,5909
17938,50027,5915
17954,50042,5940
17982,50079,5980
17988,50089,5986
17977,50072,5966
17976,50072,5965
17979,50083,5966
17954,50062,5926
17917,50022,5864
17900,50009,5830
17889,50005,5807
17853,49967,5750
17804,49913,5680
17775,49885,5634
17752,49862,5588
17707,49807,5503
17656,49743,5409
17623,49706,5342
17588,49667,5273
17527,49595,5169
17461,49519,5061
17412,49470,4980
17361,49419,4897
17290,49338,4785
17223,49263,4681
17178,49219,4603
17127,49167,4512
17058,49087,4393
17000,49020,4287
16961,48983,4211
16910,48935,4128
16842,48865,4025
16788,48812,3943
16750,48785,3886
16699,48738,3808
16632,48666,3703
16578,48610,3616
16544,48578,3554
16498,48526,3472
16437,48451,3372
16393,48398,3300
16365,48370,3250
16323,48320,3174
16270,48252,3080
16240,48215,3017
16225,48206,2980
16194,48180,2924
16153,48144,2857
16132,48139,2826
16127,48149,2818
16110,48130,2783
16085,48099,2735
16078,48094,2717
16080,48095,2706
16062,48065,2661
16036,48023,2600
16025,48007,2562
16010,47994,2526
15970,47952,2462
15930,47908,2403
15915,47898,2387
15910,47902,2392
15902,47897,2397
15924,47919,2445
15996,48002,2574
16095,48116,2752
16204,48238,2956
16348,48399,3221
16532,48615,3560
16728,48843,3924
16921,49057,4284
17132,49289,4669
17365,49549,5084
17586,49794,5477
17783,50005,5828
17986,50219,6177
18198,50442,6527
18387,50634,6833
18546,50791,7091
18703,50954,7345
18859,51122,7593
18978,51250,7783
19058,51333,7916
19137,51418,8043
19216,51504,8161
19263,51547,8223
19280,51556,8241
19302,51576,8264
19320,51599,8281
19302,51582,8249
19268,51539,8190
19255,51518,8157
19249,51505,8132
19219,51464,8072
19173,51409,7995
19143,51376,7941
19117,51347,7895
19072,51289,7821
19020,51223,7740
18982,51182,7685
18941,51140,7624
18874,51064,7522
18808,50982,7410
18764,50924,7318
18713,50859,7213
18635,50763,7073
18560,50677,6941
18507,50624,6843
18450,50568,6741
18372,50487,6615
18307,50420,6509
18270,50386,6444
18231,50346,6376
18181,50286,6292
18151,50246,6235
18148,50242,6220
18142,50234,6202
18128,50215,6171
18131,50221,6169
18153,50257,6198
18166,50278,6213
18168,50275,6211
18189,50292,6240
18225,50329,6295
18246,50344,6327
18252,50343,6338
18274,50366,6372
18302,50403,6416
18308,50410,6428
18302,50397,6421
18311,50404,6441
18328,50421,6470
18323,50408,6461
18309,50384,6435
18314,50386,6431
18327,50395,6433
18323,50377,6405
18314,50352,6370
18323,50357,6360
18329,50362,6348
18306,50333,6294
18279,50298,6233
18273,50292,6197
18263,50283,6159
18227,50241,6089
18190,50199,6025
18172,50180,5989
18149,50149,5939
18103,50087,5851
18061,50034,5772
18038,50012,5723
18007,49981,5662
17957,49922,5568
17915,49873,5483
17888,49851,5424
17853,49814,5349
17800,49750,5249
17758,49702,5171
17734,49683,5122
17698,49649,5055
17649,49594,4964
17616,49559,4897
17597,49544,4859
17561,49505,4800
17507,49443,4718
17466,49402,4658
17436,49381,4613
17389,49337,4539
17331,49274,4447
17295,49238,4385
17267,49217,4337
17218,49168,4260
17161,49103,4169
17123,49064,4108
17098,49037,4058
17056,48983,3978
17009,48919,3889
16980,48884,3831
16953,48854,3779
16901,48796,3692
16847,48734,3599
16815,48702,3539
16785,48671,3483
16737,48613,3402
16692,48561,3328
16672,48540,3291
16653,48518,3255
16617,48472,3191
16591,48439,3143
16591,48446,3138
16593,48458,3141
16590,48459,3141
16619,48491,3192
16694,48575,3318
16783,48676,3475
16878,48782,3649
17009,48931,3886
17177,49134,4194
17349,49345,4520
17523,49546,4851
17727,49772,5223
17955,50024,5627
18170,50255,6007
18366,50457,6356
18565,50670,6712
18760,50891,7066
18926,51072,7366
19065,51215,7615
19203,51360,7856
19333,51502,8085
19432,51602,8259
19512,51672,8393
19598,51754,8530
19676,51836,8655
19718,51877,8723
19738,51891,8755
19768,51916,8793
19795,51937,8821
19796,51925,8805
19790,51904,8774
19800,51908,8766
19808,51913,8759
19795,51891,8721
19777,51868,8680
19772,51870,8666
19764,51871,8648
19738,51847,8603
19715,51829,8565
19709,51837,8557
19700,51832,8536
19672,51794,8480
19650,51761,8427
19637,51746,8391
19607,51707,8333
19554,51632,8238
19504,51563,8149
19463,51514,8074
19402,51447,7972
19322,51353,7841
19253,51275,7730
19205,51224,7648
19154,51164,7555
19099,51093,7449
19067,51055,7376
19056,51048,7341
19039,51026,7298
19015,50990,7246
19012,50985,7228
19024,51004,7239
19024,51004,7237
19019,50993,7228
19039,51014,7252
19074,51057,7297
19092,51080,7320
19100,51091,7332
19126,51127,7372
19158,51173,7420
19173,51195,7436
19182,51207,7443
19207,51243,7476
19230,51278,7509
19232,51276,7506
19231,51265,7496
19245,51280,7510
19256,51290,7515
19245,51265,7480
19229,51236,7441
19227,51227,7425
19215,51206,7392
19177,51149,7317
19136,51092,7239
19107,51060,7185
19068,51015,7116
19010,50938,7014
18961,50874,6922
18933,50841,6858
18893,50797,6778
18828,50727,6672
18770,50672,6584
18726,50640,6523
18667,50586,6441
18590,50499,6329
18529,50428,6237
18486,50386,6169
18434,50331,6083
18373,50261,5979
18335,50220,5904
18317,50203,5853
18280,50159,5774
18222,50094,5675
18178,50052,5599
18142,50026,5534
18084,49973,5439
18016,49903,5334
17969,49859,5261
17930,49826,5203
17872,49767,5118
17810,49700,5024
17772,49660,4963
17739,49626,4907
17683,49563,4820
17624,49495,4731
17591,49457,4673
17565,49425,4617
17523,49367,4534
17481,49310,4454
17459,49282,4407
17435,49251,4355
17391,49192,4269
17349,49142,4188
17327,49122,4135
17297,49094,4074
17249,49041,3988
17213,48999,3915
17198,48986,3873
17177,48963,3824
17139,48918,3750
17113,48887,3693
17104,48882,3660
17081,48862,3612
17040,48817,3541
17009,48785,3488
16988,48772,3455
16951,48738,3400
16897,48681,3322
16861,48644,3267
16847,48633,3240
16830,48616,3207
16818,48603,3186
16846,48638,3236
16913,48722,3357
16993,48815,3508
17095,48927,3697
17245,49096,3965
17430,49308,4294
17625,49521,4637
17836,49748,5002
18080,50018,5421
18337,50306,5861
18577,50566,6272
18809,50809,6667
19050,51064,7073
19279,51309,7460
19472,51512,7788
19651,51698,8084
19834,51893,8374
19999,52070,8628
20127,52200,8818
20243,52313,8982
20358,52436,9146
20446,52534,9273
20494,52585,9344
20534,52626,9404
20583,52680,9476
20616,52712,9522
20623,52710,9521
20637,52715,9524
20668,52745,9551
20685,52760,9560
20680,52745,9540
20686,52745,9537
20710,52770,9560
20721,52780,9564
20711,52762,9538
20705,52751,9522
20701,52746,9513
20663,52701,9463
20589,52610,9366
20509,52517,9262
20421,52420,9143
20300,52283,8975
20160,52119,8776
20039,51978,8596
19929,51855,8429
19804,51712,8236
19676,51564,8037
19577,51453,7879
19498,51364,7747
19410,51263,7603
19330,51167,7469
19284,51112,7384
19252,51077,7320
19209,51025,7239
19170,50978,7166
19155,50965,7132
19143,50960,7107
19114,50934,7063
19095,50916,7031
19102,50933,7039
19114,50954,7056
19115,50956,7056
19130,50973,7074
19167,51021,7128
19194,51060,7173
19199,51068,7187
19215,51083,7208
19247,51125,7250
19261,51155,7270
19250,51149,7257
19246,51143,7254
19253,51150,7268
19237,51132,7252
19196,51081,7196
19163,51042,7146
19146,51025,7112
19114,50991,7058
19067,50936,6984
19036,50899,6935
19017,50881,6903
18980,50839,6841
18930,50777,6759
18898,50741,6707
18881,50722,6673
18848,50677,6606
18802,50613,6520
18770,50572,6459
18740,50537,6405
18686,50474,6319
18622,50401,6221
18577,50354,6153
18536,50318,6093
18475,50259,6002
18411,50199,5905
18371,50170,5841
18338,50149,5782
18288,50100,5697
18241,50049,5615
18216,50027,5561
18188,50001,5503
18136,49943,5411
18085,49887,5323
18054,49859,5266
18014,49823,5200
17952,49756,5101
17899,49698,5010
17870,49671,4950
17835,49635,4884
17781,49570,4794
17738,49519,4725
17718,49501,4692
17689,49472,4649
17641,49414,4577
17608,49372,4522
17595,49357,4491
17567,49325,4439
17516,49264,4363
17475,49219,4305
17445,49193,4263
17397,49145,4189
17330,49077,4085
17273,49027,3999
17227,48990,3926
17165,48925,3826
17096,48848,3716
17051,48802,3638
17016,48774,3579
16959,48721,3494
16892,48655,3398
16846,48616,3335
16809,48592,3285
16757,48541,3206
16702,48480,3118
16672,48446,3059
16645,48417,3004
16596,48358,2920
16542,48300,2834
16510,48279,2784
16489,48272,2748
16461,48251,2708
16456,48250,2707
16497,48303,2782
16567,48384,2907
16648,48474,3066
16767,48603,3293
16930,48790,3600
17107,48993,3936
17280,49188,4270
17471,49403,4631
17684,49648,5022
17884,49880,5392
18060,50079,5723
18235,50279,6050
18411,50485,6375
18561,50659,6656
18680,50790,6883
18794,50919,7097
18906,51050,7299
18988,51142,7449
19043,51196,7551
19100,51253,7652
19152,51314,7749
19171,51336,7793
19164,51324,7790
19160,51323,7789
19156,51326,7784
19127,51290,7734
19082,51229,7658
19049,51186,7603
19015,51147,7550
18954,51077,7462
18878,50992,7359
18817,50931,7282
18761,50877,7211
18686,50799,7106
18608,50715,6994
18550,50656,6910
18494,50599,6829
18419,50515,6717
18341,50428,6597
18278,50360,6494
18208,50283,6374
18115,50174,6212
18025,50067,6047
17950,49985,5910
17861,49895,5763
17747,49777,5589
17639,49671,5428
17550,49593,5298
17454,49509,5159
17346,49406,5003
17259,49325,4878
17203,49279,4798
17150,49232,4721
17098,49175,4642
17073,49146,4603
17074,49152,4606
17073,49155,4603
17068,49151,4592
17087,49176,4618
17128,49226,4678
17157,49259,4720
17175,49276,4746
17209,49317,4796
17251,49375,4860
17271,49405,4892
17278,49415,4903
17301,49440,4935
17325,49467,4972
17324,49459,4969
17308,49432,4945
17306,49426,4939
17305,49424,4930
17279,49388,4884
17245,49340,4826
17228,49316,4789
17209,49289,4740
17163,49226,4647
17113,49156,4548
17084,49116,4479
17056,49082,4415
17009,49026,4326
16965,48975,4244
16941,48953,4194
16913,48925,4138
16861,48866,4049
16812,48808,3967
16783,48775,3912
16748,48733,3844
16698,48667,3750
16659,48614,3671
16635,48587,3618
16597,48549,3550
16541,48491,3455
16499,48452,3378
16479,48439,3328
16450,48411,3261
16412,48364,3175
16392,48338,3116
16388,48333,3083
16366,48307,3028
16328,48261,2950
16305,48235,2897
16292,48225,2862
16256,48186,2795
16203,48125,2706
16163,48085,2638
16130,48054,2577
16077,47993,2485
16018,47920,2381
15982,47877,2308
15959,47852,2252
15919,47806,2176
15879,47759,2100
15862,47746,2057
15852,47741,2022
15821,47706,1959
15788,47669,1895
15775,47661,1862
15762,47655,1831
15725,47620,1765
15683,47579,1695
15656,47558,1647
15617,47522,1581
15547,47447,1473
15477,47370,1362
15426,47316,1273
15373,47255,1172
15307,47173,1046
15247,47113,944
15203,47094,884
15160,47076,835
15121,47046,791
15123,47052,808
15176,47117,908
15255,47204,1050
15356,47307,1230
15509,47468,1496
15713,47686,1845
15925,47910,2218
16137,48127,2598
16373,48372,3013
16622,48635,3445
16847,48870,3837
17048,49076,4191
17252,49293,4551
17453,49516,4903
17623,49698,5199
17767,49849,5448
17908,50008,5693
18040,50162,5918
18137,50271,6082
18214,50352,6209
18297,50444,6339
18370,50526,6452
18405,50562,6511
18421,50577,6542
18448,50609,6582
18469,50633,6603
18463,50617,6576
18451,50588,6533
18455,50584,6509
18450,50572,6477
18418,50527,6411
18383,50478,6344
18358,50450,6296
18321,50413,6234
18262,50349,6141
18213,50294,6056
18188,50267,5997
18154,50227,5924
18097,50158,5823
18046,50096,5733
18010,50055,5662
17961,49998,5566
17894,49915,5438
17836,49847,5324
17788,49799,5230
17719,49731,5115
17630,49638,4977
17556,49565,4862
17501,49516,4771
17437,49451,4662
17369,49374,4546
17327,49331,4473
17308,49318,4439
17282,49292,4397
17260,49263,4357
17272,49271,4363
17301,49303,4396
17317,49318,4410
17329,49328,4420
17364,49370,4466
17413,49425,4529
17445,49450,4566
17465,49461,4595
17498,49499,4653
17531,49541,4716
17540,49548,4745
17545,49547,4767
17568,49570,4814
17587,49588,4852
17583,49570,4848
17580,49550,4837
17595,49558,4849
17604,49558,4848
17594,49532,4815
17592,49518,4795
17608,49531,4808
17609,49531,4806
17583,49498,4763
17558,49468,4721
17545,49456,4697
17516,49423,4646
17463,49359,4555
17413,49304,4469
17373,49265,4400
17312,49206,4308
17231,49122,4189
17164,49055,4087
17114,49007,4005
17052,48940,3900
16976,48854,3776
16916,48793,3677
16871,48752,3606
16815,48689,3516
16751,48610,3407
16709,48559,3324
16678,48528,3263
16626,48478,3180
16563,48417,3087
16521,48383,3026
16489,48357,2981
16444,48305,2905
16396,48244,2815
16366,48211,2754
16340,48188,2704
16291,48138,2624
16236,48075,2534
16200,48035,2467
16165,48000,2401
16112,47942,2311
16062,47886,2222
16037,47860,2164
16014,47837,2106
15975,47790,2021
15941,47749,1944
15927,47738,1899
15909,47720,1850
15873,47674,1777
15844,47635,1718
15835,47623,1688
15818,47604,1647
15783,47559,1587
15760,47528,1548
15760,47527,1545
15757,47522,1543
15754,47511,1543
15787,47545,1605
15862,47633,1740
15952,47735,1902
16055,47846,2090
16200,48007,2351
16385,48215,2676
16573,48424,3008
16760,48625,3345
16967,48855,3721
17183,49104,4118
17373,49322,4477
17544,49514,4804
17729,49722,5138
17917,49933,5464
18075,50104,5732
18207,50246,5954
18342,50396,6172
18470,50535,6370
18561,50623,6509
18627,50683,6612
18696,50752,6719
18753,50808,6809
18776,50821,6846
18782,50816,6858
18796,50826,6877
18800,50827,6882
18777,50794,6843
18749,50755,6796
18732,50734,6767
18703,50701,6721
18651,50636,6638
18607,50577,6558
18584,50544,6503
18552,50504,6439
18498,50442,6351
18451,50392,6277
18423,50368,6226
18386,50331,6152
18334,50270,6045
18297,50222,5955
18276,50195,5888
18233,50144,5798
18165,50063,5678
18103,49996,5569
18051,49947,5474
17980,49871,5349
17895,49773,5203
17830,49697,5086
17783,49641,4995
17719,49566,4885
17644,49479,4766
17595,49424,4683
17566,49391,4630
17528,49342,4565
17491,49295,4504
17485,49291,4492
17496,49311,4507
17493,49313,4504
17491,49311,4497
17515,49341,4528
17548,49383,4575
17562,49400,4595
17575,49413,4614
17611,49451,4667
17649,49487,4723
17660,49492,4744
17666,49491,4760
17685,49510,4797
17698,49524,4820
17687,49510,4801
17672,49498,4782
17669,49505,4787
17657,49494,4777
17624,49443,4729
17597,49395,4684
17585,49372,4656
17559,49339,4607
17507,49284,4522
17459,49241,4446
17421,49218,4390
17367,49172,4311
17297,49097,4199
17241,49037,4102
17203,49002,4030
17158,48953,3943
17103,48886,3841
17068,48841,3767
17048,48814,3716
17012,48765,3642
16966,48702,3550
16936,48668,3485
16915,48652,3436
16872,48611,3357
16816,48554,3263
16780,48518,3195
16754,48496,3141
16709,48448,3059
16655,48387,2969
16621,48351,2909
16591,48317,2853
16539,48250,2764
16481,48175,2667
16445,48134,2599
16413,48100,2535
16359,48039,2439
16306,47974,2345
16279,47940,2286
16252,47906,2227
16202,47845,2136
16155,47791,2053
16131,47773,2005
16102,47752,1949
16054,47703,1862
16013,47659,1789
15997,47647,1753
15981,47629,1713
15955,47591,1653
15950,47577,1626
15981,47609,1655
16021,47650,1708
16065,47695,1784
16149,47785,1933
16279,47932,2165
16425,48097,2432
16582,48270,2723
16777,48487,3072
17005,48744,3472
17224,48991,3863
17429,49219,4237
17646,49464,4631
17871,49718,5035
18072,49940,5395
18251,50132,5716
18435,50335,6039
18617,50539,6348
18764,50696,6594
18883,50819,6790
19002,50944,6982
19112,51061,7157
19187,51132,7273
19240,51180,7351
19300,51243,7432
19355,51300,7499
19381,51316,7520
19393,51312,7520
19412,51323,7536
19425,51325,7539
19415,51292,7499
19401,51253,7453
19399,51237,7433
19387,51216,7404
19353,51167,7343
19319,51124,7290
19299,51108,7264
19269,51082,7225
19220,51028,7156
19181,50983,7093
19160,50962,7052
19128,50925,6993
19077,50860,6903
19034,50809,6823
19004,50779,6759
18957,50730,6671
18893,50657,6557
18841,50599,6465
18806,50563,6398
18757,50510,6313
18695,50437,6210
18652,50387,6134
18627,50362,6085
18592,50322,6016
18553,50275,5937
18538,50259,5895
18538,50259,5878
18522,50233,5839
18500,50196,5795
18500,50193,5787
18511,50207,5797
18508,50199,5785
18504,50189,5774
18526,50214,5802
18553,50250,5842
18559,50254,5852
18560,50249,5855
18584,50273,5886
18611,50301,5922
18620,50302,5929
18631,50302,5935
18660,50333,5968
18683,50360,5994
18679,50355,5983
18675,50351,5971
18688,50372,5983
18691,50380,5979
18670,50354,5941
18651,50332,5907
18648,50336,5894
18630,50325,5863
18588,50283,5801
18558,50249,5750
18551,50240,5727
18536,50217,5686
18504,50171,5617
18482,50142,5568
18474,50135,5547
18451,50107,5503
18412,50056,5433
18388,50025,5381
18384,50011,5348
18362,49968,5285
18320,49903,5203
18291,49866,5149
18273,49852,5114
18232,49812,5048
18176,49749,4962
18140,49706,4901
18119,49679,4855
18082,49626,4777
18030,49561,4683
17991,49522,4615
17957,49491,4553
17899,49429,4459
17834,49356,4356
17792,49315,4285
17757,49287,4223
17704,49235,4136
17653,49183,4051
17628,49162,4000
17610,49147,3951
17575,49107,3873
17542,49069,3804
17533,49058,3769
17519,49040,3728
17482,48991,3653
17446,48947,3585
17428,48930,3548
17406,48906,3502
17367,48859,3429
17338,48829,3376
17336,48832,3370
17338,48839,3381
17346,48846,3410
17394,48900,3511
17487,49013,3696
17600,49146,3918
17730,49290,4165
17905,49480,4473
18114,49713,4835
18321,49935,5198
18520,50141,5548
18735,50369,5922
18955,50612,6309
19146,50824,6658
19315,51008,6969
19490,51202,7281
19661,51395,7578
19797,51546,7817
19909,51663,8012
20026,51787,8205
20139,51910,8384
20222,51992,8511
20287,52048,8608
20358,52114,8712
20415,52172,8801
20435,52186,8845
20445,52184,8866
20473,52204,8895
20500,52221,8913
20500,52203,8896
20490,52182,8877
20494,52187,8883
20490,52186,8879
20458,52155,8834
20428,52125,8787
20419,52119,8763
20402,52101,8724
20362,52053,8649
20326,52012,8579
20304,51992,8530
20265,51948,8457
20200,51865,8345
20140,51787,8241
20098,51736,8160
20044,51671,8063
19967,51582,7939
19903,51512,7833
19859,51468,7754
19802,51409,7658
19729,51333,7542
19680,51285,7460
19659,51263,7413
19632,51220,7348
19595,51164,7269
19579,51140,7225
19577,51141,7211
19559,51123,7184
19533,51096,7150
19532,51100,7149
19543,51118,7162
19538,51111,7147
19528,51094,7123
19538,51105,7132
19556,51128,7155
19557,51127,7156
19558,51122,7158
19580,51148,7196
19606,51177,7238
19612,51177,7247
19618,51175,7250
19647,51200,7279
19677,51224,7305
19686,51219,7301
19690,51213,7296
19707,51229,7314
19713,51232,7317
19692,51200,7281
19670,51168,7244
19660,51160,7231
19640,51139,7204
19600,51088,7144
19567,51046,7093
19549,51027,7058
19516,50990,7000
19462,50928,6913
19417,50882,6839
19388,50859,6787
19344,50817,6711
19283,50749,6610
19238,50701,6532
19212,50679,6479
19169,50636,6402
19113,50570,6303
19077,50529,6229
19056,50508,6177
19016,50459,6098
18961,50390,6000
18923,50347,5931
18893,50318,5876
18838,50260,5787
18771,50186,5682
18725,50141,5611
18691,50111,5555
18641,50055,5470
18589,49992,5377
18563,49962,5314
18541,49942,5258
18500,49896,5176
18457,49848,5095
18437,49830,5047
18421,49815,5002
18385,49774,4931
18347,49732,4863
18325,49715,4822
18295,49687,4769
18239,49621,4678
18188,49558,4591
18161,49524,4532
18129,49479,4462
18075,49405,4364
18033,49351,4286
18023,49340,4252
18022,49335,4230
18021,49327,4218
18053,49361,4261
18124,49448,4378
18207,49550,4529
18301,49658,4706
18435,49811,4950
18607,50009,5257
18782,50208,5578
18954,50398,5903
19150,50612,6263
19364,50843,6641
19561,51050,6986
19746,51238,7305
19946,51449,7641
20146,51670,7978
20308,51853,8262
20441,52004,8503
20578,52161,8749
20710,52310,8982
20810,52413,9160
20894,52489,9299
20985,52579,9442
21061,52658,9565
21100,52690,9628
21119,52698,9658
21145,52722,9696
21163,52738,9723
21154,52716,9711
21137,52685,9689
21135,52681,9689
21129,52674,9676
21101,52634,9622
21072,52594,9567
21059,52581,9539
21038,52561,9497
20998,52514,9420
20959,52474,9348
20935,52457,9301
20903,52424,9240
20852,52362,9148
20808,52310,9064
20781,52279,9003
20741,52228,8923
20678,52149,8809
20624,52085,8709
20585,52046,8634
20530,51988,8540
20454,51906,8421
20395,51844,8321
20353,51806,8245
20300,51749,8151
20238,51678,8048
20198,51639,7986
20176,51624,7953
20139,51587,7901
20095,51534,7838
20075,51510,7809
20072,51508,7804
20059,51489,7783
20043,51465,7760
20052,51473,7773
20070,51496,7799
20068,51494,7798
20061,51486,7796
20075,51506,7828
20093,51530,7862
20088,51519,7859
20080,51502,7851
20093,51514,7872
20109,51527,7889
20105,51513,7870
20098,51500,7849
20104,51511,7854
20103,51516,7850
20084,51491,7813
20069,51470,7779
20068,51468,7770
20054,51454,7745
20015,51410,7689
19981,51374,7639
19964,51360,7609
19931,51331,7559
19873,51273,7480
19826,51225,7410
19794,51195,7356
19746,51143,7275
19680,51066,7168
19628,51006,7081
19590,50967,7017
19535,50904,6928
19466,50819,6818
19415,50757,6734
19380,50717,6669
19328,50657,6578
19267,50584,6475
19228,50544,6412
19207,50526,6372
19170,50486,6304
19124,50435,6220
19097,50414,6166
19078,50409,6119
19040,50378,6035
18997,50334,5940
18975,50312,5875
18959,50296,5825
18920,50247,5748
18878,50191,5668
18856,50163,5618
18833,50136,5574
18790,50080,5500
18747,50023,5426
18725,49996,5383
18701,49968,5334
18655,49915,5253
18610,49866,5177
18583,49846,5133
18545,49817,5078
18484,49754,4985
18429,49694,4898
18396,49659,4838
18352,49613,4761
18287,49544,4653
18232,49488,4562
18199,49458,4502
18162,49418,4438
18127,49368,4371
18124,49355,4354
18153,49385,4401
18186,49423,4471
18230,49470,4564
18320,49569,4725
18452,49722,4958
18595,49885,5221
18750,50054,5510
18940,50265,5857
19149,50504,6241
19344,50723,6605
19530,50925,6951
19734,51148,7317
19943,51379,7683
20123,51576,8002
20282,51748,8287
20448,51933,8578
20608,52111,8851
20730,52239,9061
20827,52336,9229
20925,52442,9398
21006,52532,9540
21047,52570,9619
21067,52584,9665
21092,52608,9717
21106,52621,9749
21094,52598,9734
21075,52567,9708
21069,52554,9702
21060,52530,9681
21032,52477,9621
21008,52431,9563
21001,52417,9529
20983,52397,9478
20940,52349,9395
20901,52308,9322
20872,52288,9269
20827,52251,9194
20761,52185,9087
20702,52125,8992
20654,52079,8911
20586,52009,8802
20498,51909,8662
20422,51823,8541
20363,51758,8443
20285,51674,8320
20191,51571,8170
20117,51493,8044
20062,51439,7944
19999,51366,7829
19933,51283,7710
19898,51237,7635
19882,51222,7597
19855,51191,7548
19824,51153,7497
19819,51150,7486
19831,51166,7502
19831,51166,7502
19830,51165,7503
19850,51198,7542
19880,51242,7595
19892,51260,7624
19903,51274,7653
19938,51318,7711
19972,51365,7765
19981,51381,7781
19989,51391,7793
20017,51424,7835
20039,51449,7867
20034,51439,7858
20029,51430,7847
20038,51446,7860
20036,51447,7860
20012,51415,7826
19989,51384,7795
19977,51374,7782
19954,51349,7748
19913,51294,7683
19883,51251,7627
19872,51234,7589
19846,51202,7529
19794,51142,7441
19749,51096,7368
19719,51072,7317
19676,51026,7242
19612,50950,7137
19555,50888,7050
19506,50839,6981
19441,50766,6883
19368,50678,6765
19316,50620,6673
19278,50581,6601
19220,50519,6505
19153,50445,6396
19108,50402,6321
19079,50378,6266
19032,50330,6183
18972,50269,6085
18929,50232,6017
18894,50205,5961
18839,50151,5879
18781,50090,5790
18746,50054,5732
18715,50018,5676
18662,49950,5585
18605,49877,5483
18564,49833,5401
18521,49790,5318
18456,49716,5208
18390,49643,5101
18348,49599,5024
18304,49550,4942
18241,49474,4833
18185,49409,4736
18147,49378,4675
18100,49339,4607
18035,49274,4508
17983,49222,4421
17951,49197,4365
17910,49163,4296
17856,49111,4210
17820,49083,4156
17816,49091,4150
17821,49099,4158
17835,49107,4183
17888,49163,4276
17982,49273,4441
18087,49393,4634
18205,49524,4856
18365,49705,5146
18560,49925,5490
18751,50131,5834
18938,50330,6178
19146,50559,6555
19361,50801,6941
19546,51005,7284
19711,51180,7593
19887,51366,7906
20061,51549,8204
20199,51689,8441
20311,51804,8640
20430,51930,8842
20538,52048,9019
20608,52119,9133
20655,52166,9217
20706,52224,9310
20744,52268,9380
20747,52268,9394
20736,52253,9387
20735,52256,9394
20729,52250,9381
20703,52209,9325
20680,52168,9269
20673,52155,9237
20652,52131,9185
20603,52071,9093
20560,52015,9007
20535,51985,8946
20497,51942,8868
20436,51871,8762
20381,51811,8667
20339,51772,8592
20281,51712,8490
20204,51620,8354
20141,51538,8230
20092,51481,8125
20027,51409,8000
19952,51322,7859
19902,51262,7748
19867,51228,7665
19818,51181,7570
19764,51125,7471
19740,51101,7414
19740,51102,7396
19732,51084,7369
19721,51059,7339
19733,51066,7344
19755,51089,7367
19754,51087,7368
19748,51079,7363
19765,51105,7391
19787,51142,7432
19788,51149,7447
19789,51150,7459
19815,51179,7503
19849,51213,7553
19865,51217,7570
19881,51221,7587
19917,51255,7636
19949,51285,7682
19955,51279,7692
19958,51273,7703
19979,51290,7740
19994,51296,7766
19985,51272,7753
19981,51257,7741
19994,51270,7749
19993,51269,7732
19962,51235,7671
19934,51208,7614
19921,51205,7583
19892,51182,7533
19839,51126,7451
19798,51082,7383
19775,51060,7337
19736,51017,7270
19676,50942,7172
19630,50882,7089
19599,50845,7030
19556,50792,6953
19502,50723,6855
19462,50681,6782
19432,50661,6729
19390,50619,6649
19344,50565,6555
19320,50539,6495
19310,50529,6461
19284,50493,6405
19243,50443,6333
19213,50422,6283
19184,50411,6240
19138,50366,6165
19089,50306,6077
19060,50270,6014
19033,50239,5955
18984,50180,5869
18930,50113,5781
18895,50072,5716
18865,50034,5648
18816,49968,5552
18765,49903,5462
18734,49867,5401
18698,49830,5328
18639,49769,5223
18587,49719,5129
18558,49697,5076
18527,49668,5020
18482,49614,4937
18452,49576,4876
18447,49577,4855
18438,49575,4836
18424,49561,4814
18447,49584,4849
18515,49663,4959
18598,49756,5101
18687,49856,5268
18813,50002,5508
18982,50200,5814
19162,50398,6128
19343,50590,6443
19550,50812,6798
19774,51056,7187
19979,51274,7551
20163,51470,7887
20353,51681,8232
20543,51899,8572
20701,52079,8860
20836,52226,9108
20978,52376,9355
21113,52514,9582
21214,52602,9746
21290,52666,9870
21374,52746,9999
21453,52823,10112
21501,52860,10172
21533,52878,10205
21569,52909,10247
21590,52931,10273
21576,52913,10252
21550,52882,10215
21537,52868,10194
21517,52845,10160
21475,52789,10087
21433,52737,10013
21408,52708,9964
21378,52669,9903
21327,52601,9813
21284,52542,9733
21263,52516,9676
21227,52476,9597
21163,52402,9479
21103,52335,9371
21062,52291,9287
21008,52229,9185
20933,52144,9057
20872,52079,8950
20831,52038,8874
20784,51982,8782
20723,51907,8672
20678,51856,8590
20655,51835,8542
20622,51802,8482
20580,51757,8413
20561,51743,8378
20560,51754,8368
20547,51746,8337
20529,51724,8296
20535,51730,8294
20557,51754,8315
20560,51756,8312
20550,51745,8299
20555,51762,8322
20570,51790,8360
20572,51793,8369
20578,51791,8373
20608,51819,8408
20635,51850,8442
20630,51848,8442
20620,51842,8441
20631,51862,8471
20644,51880,8494
20635,51864,8478
20624,51844,8460
20629,51844,8467
20625,51829,8459
20597,51781,8411
20573,51740,8365
20570,51730,8345
20558,51711,8306
20521,51662,8229
20488,51624,8163
20471,51614,8126
20445,51595,8078
20406,51557,8007
20376,51534,7953
20358,51529,7919
20327,51500,7860
20282,51445,7775
20249,51406,7709
20232,51388,7665
20202,51349,7601
20157,51287,7515
20126,51243,7451
20100,51213,7400
20050,51155,7320
19982,51078,7221
19931,51024,7149
19889,50985,7091
19825,50917,7001
19751,50834,6890
19700,50780,6804
19658,50740,6729
19593,50670,6622
19522,50594,6505
19476,50552,6424
19437,50519,6354
19382,50457,6255
19329,50392,6156
19303,50361,6091
19286,50340,6036
19255,50296,5959
19227,50255,5888
19221,50241,5848
19212,50222,5803
19182,50177,5728
19154,50137,5660
19141,50128,5629
19118,50114,5598
19077,50079,5553
19056,50066,5540
19074,50102,5584
19109,50153,5654
19153,50208,5747
19235,50304,5909
19363,50449,6150
19507,50602,6426
19662,50757,6717
19849,50953,7052
20067,51190,7429
20282,51421,7795
20484,51637,8141
20697,51871,8504
20910,52114,8875
21091,52315,9200
21242,52478,9480
21396,52648,9759
21545,52819,10023
21655,52941,10229
21735,53023,10392
21820,53110,10557
21903,53200,10710
21959,53257,10809
22000,53298,10875
22049,53356,10954
22093,53409,11021
22106,53420,11038
22104,53411,11031
22115,53420,11041
22121,53424,11043
22098,53390,11003
22066,53345,10947
22049,53322,10909
22027,53294,10859
21981,53238,10774
21935,53183,10691
21905,53151,10636
21866,53108,10570
21801,53030,10467
21740,52956,10366
21693,52911,10285
21631,52854,10183
21543,52765,10044
21463,52684,9914
21401,52626,9814
21324,52553,9699
21229,52452,9554
21153,52371,9430
21106,52323,9341
21055,52264,9241
20993,52184,9128
20952,52128,9052
20930,52103,9016
20900,52070,8966
20867,52031,8903
20860,52025,8875
20870,52044,8877
20865,52043,8861
20847,52028,8833
20851,52041,8844
20873,52072,8883
20885,52080,8898
20896,52081,8902
20930,52113,8938
20970,52154,8986
20985,52164,9002
20987,52164,9007
21005,52190,9039
21022,52219,9070
21014,52213,9063
20999,52195,9044
21004,52201,9050
21007,52205,9053
20986,52174,9019
20960,52140,8980
20952,52133,8968
20936,52118,8943
20894,52068,8881
20856,52023,8821
20841,52007,8788
20818,51981,8738
20772,51924,8656
20731,51876,8584
20709,51856,8540
20676,51822,8478
20620,51757,8385
20567,51700,8302
20522,51661,8240
20461,51601,8155
20382,51516,8040
20317,51448,7945
20276,51409,7876
20229,51359,7791
20174,51295,7688
20139,51256,7614
20119,51239,7561
20079,51195,7477
20021,51126,7370
19979,51082,7292
19946,51057,7233
19887,51004,7143
19812,50928,7034
19754,50872,6953
19704,50826,6880
19635,50746,6773
19560,50654,6653
19505,50592,6568
19454,50544,6495
19385,50470,6394
19315,50388,6283
19272,50337,6204
19236,50300,6135
19184,50244,6044
19134,50194,5959
19107,50176,5909
19081,50158,5858
19034,50109,5777
18990,50061,5703
18970,50043,5667
18951,50030,5638
18921,50002,5600
18912,50002,5600
18945,50053,5667
18996,50120,5769
19056,50190,5892
19156,50305,6082
19304,50480,6354
19462,50669,6654
19618,50847,6958
19805,51054,7303
20024,51296,7689
20238,51525,8064
20438,51728,8417
20653,51945,8789
20877,52177,9171
21074,52378,9504
21238,52543,9788
21402,52717,10071
21562,52894,10350
21685,53034,10576
21777,53138,10750
21866,53243,10913
21942,53338,11054
21982,53385,11133
21998,53399,11169
22020,53422,11206
22032,53441,11230
22009,53416,11204
21969,53371,11152
21942,53345,11114
21918,53320,11073
21876,53268,10999
21836,53217,10922
21821,53197,10878
21806,53178,10837
21766,53129,10768
21723,53079,10703
21698,53054,10666
21670,53025,10617
21622,52967,10530
21573,52908,10444
21540,52869,10380
21492,52813,10295
21416,52721,10170
21346,52636,10048
21294,52580,9950
21230,52516,9838
21148,52427,9701
21084,52358,9585
21045,52321,9506
20997,52273,9416
20930,52202,9309
20882,52157,9234
20861,52146,9194
20834,52124,9143
20796,52085,9080
20778,52076,9053
20781,52094,9057
20772,52092,9046
20756,52074,9023
20765,52087,9038
20788,52119,9077
20793,52120,9092
20789,52102,9095
20808,52111,9131
20838,52135,9176
20847,52129,9183
20846,52108,9175
20861,52116,9195
20875,52134,9218
20865,52121,9204
20849,52102,9177
20852,52110,9174
20854,52122,9170
20832,52107,9133
20807,52089,9091
20797,52091,9075
20781,52084,9053
20740,52041,8994
20697,51994,8933
20675,51964,8894
20649,51923,8840
20593,51857,8743
20532,51800,8644
20484,51768,8571
20429,51722,8486
20356,51647,8373
20294,51584,8277
20253,51548,8215
20202,51497,8139
20133,51418,8034
20077,51355,7947
20041,51318,7886
19995,51260,7805
19937,51180,7699
19894,51123,7616
19865,51088,7555
19814,51029,7463
19741,50948,7348
19683,50893,7263
19638,50859,7201
19577,50802,7114
19507,50725,7009
19459,50674,6929
19424,50640,6861
19368,50579,6766
19302,50506,6660
19257,50460,6586
19223,50426,6526
19171,50365,6437
19114,50296,6339
19074,50254,6268
19032,50216,6199
18964,50148,6100
18894,50078,6002
18848,50041,5939
18804,50005,5870
18738,49937,5762
18674,49867,5653
18633,49828,5582
18590,49787,5512
18529,49721,5422
18479,49672,5356
18462,49668,5345
18456,49678,5352
18454,49683,5363
18494,49729,5437
18591,49838,5600
18707,49967,5806
18827,50100,6032
18980,50276,6320
19175,50500,6669
19375,50724,7027
19566,50932,7380
19775,51163,7764
20000,51414,8173
20202,51637,8549
20378,51827,8883
20557,52027,9217
20739,52234,9542
20891,52399,9805
21015,52522,10017
21137,52648,10226
21249,52769,10418
21318,52843,10547
21357,52881,10629
21402,52928,10710
21440,52968,10777
21440,52965,10787
21423,52941,10769
21420,52936,10766
21415,52932,10756
21378,52891,10704
21327,52838,10636
21290,52809,10590
21253,52783,10538
21196,52727,10450
21140,52668,10357
21104,52636,10294
21063,52598,10224
20994,52525,10115
20922,52446,10000
20865,52387,9905
20799,52315,9792
20714,52211,9639
20636,52112,9483
20575,52036,9348
20498,51948,9198
20396,51831,9027
20306,51731,8877
20240,51664,8764
20174,51592,8645
20099,51511,8515
20044,51459,8421
20014,51437,8368
19980,51404,8310
19942,51359,8249
19930,51344,8231
19939,51359,8250
19937,51359,8258
19928,51348,8257
19939,51367,8287
19963,51407,8337
19971,51424,8363
19969,51425,8374
19987,51452,8413
20015,51497,8467
20023,51518,8497
20024,51529,8517
20047,51567,8565
20077,51609,8614
20088,51616,8624
20097,51611,8621
20126,51632,8642
20150,51652,8658
20144,51635,8634
20131,51609,8598
20136,51608,8582
20133,51602,8556
20100,51557,8491
20061,51511,8426
20040,51495,8388
20009,51471,8340
19951,51414,8259
19897,51361,8185
19861,51330,8142
19818,51285,8084
19754,51210,7992
19701,51146,7908
19670,51112,7852
19627,51063,7779
19560,50986,7674
19500,50919,7580
19455,50876,7508
19397,50817,7415
19320,50736,7298
19259,50675,7206
19219,50639,7142
19166,50584,7058
19094,50508,6950
19036,50453,6864
18990,50418,6798
18930,50361,6704
18863,50290,6592
18822,50249,6512
18798,50228,6455
18756,50183,6376
18706,50122,6285
18679,50086,6226
18662,50066,6180
18622,50021,6103
18573,49967,6016
18547,49942,5963
18525,49925,5920
18481,49876,5847
18431,49818,5768
18399,49787,5718
18367,49758,5668
18316,49702,5585
18268,49649,5503
18247,49629,5455
18226,49607,5410
18186,49558,5345
18157,49524,5301
18159,49534,5307
18173,49558,5333
18193,49576,5371
18246,49629,5468
18340,49735,5639
18448,49858,5842
18560,49982,6062
18708,50142,6339
18893,50346,6677
19081,50551,7023
19260,50745,7362
19455,50964,7728
19663,51206,8113
19852,51426,8467
20025,51617,8782
20207,51818,9100
20390,52024,9416
20540,52190,9683
20658,52316,9902
20774,52445,10114
20881,52568,10307
20952,52646,10436
21000,52693,10522
21056,52755,10611
21105,52814,10690
21117,52824,10711
21106,52801,10693
21103,52790,10686
21098,52782,10674
21066,52744,10619
21024,52693,10547
20999,52666,10497
20972,52637,10443
20919,52572,10351
20860,52499,10255
20820,52450,10184
20776,52400,10106
20707,52325,9992
20637,52249,9876
20583,52196,9780
20523,52132,9669
20441,52035,9522
20364,51946,9379
20310,51886,9266
20251,51820,9147
20173,51731,9008
20105,51657,8889
20057,51612,8800
20003,51557,8702
19942,51482,8588
19902,51431,8501
19884,51409,8452
19859,51379,8400
19824,51338,8343
19810,51326,8321
19816,51344,8334
19814,51352,8337
19806,51344,8328
19823,51364,8355
19859,51409,8412
19877,51434,8449
19884,51444,8469
19907,51477,8513
19936,51519,8567
19943,51531,8589
19940,51527,8598
19958,51547,8635
19983,51573,8680
19984,51568,8688
19973,51548,8677
19978,51552,8688
19982,51557,8698
19961,51528,8665
19931,51490,8622
19918,51477,8603
19901,51463,8575
19860,51416,8506
19814,51363,8433
19782,51333,8385
19747,51300,8332
19693,51241,8247
19646,51186,8164
19622,51159,8107
19592,51122,8040
19538,51053,7945
19490,50994,7861
19462,50964,7799
19421,50921,7720
19359,50849,7615
19310,50793,7531
19280,50764,7476
19236,50717,7400
19170,50644,7298
19118,50590,7215
19087,50562,7157
19043,50516,7078
18982,50447,6979
18937,50401,6906
18905,50375,6853
18852,50325,6773
18780,50253,6669
18727,50203,6590
18691,50167,6528
18639,50101,6437
18580,50019,6331
18542,49966,6257
18512,49934,6197
18464,49881,6109
18413,49821,6013
18383,49788,5948
18356,49763,5892
18303,49711,5804
18240,49652,5708
18196,49620,5642
18156,49592,5583
18102,49536,5499
18049,49480,5416
18018,49454,5363
17987,49430,5310
17939,49383,5235
17904,49350,5184
17906,49362,5192
17924,49390,5231
17947,49420,5287
18011,49491,5405
18128,49622,5608
18265,49773,5856
18406,49924,6127
18579,50114,6453
18791,50355,6840
19006,50596,7230
19208,50818,7601
19424,51055,7992
19651,51310,8406
19855,51538,8787
20032,51729,9119
20207,51921,9440
20377,52113,9750
20513,52259,10003
20618,52362,10199
20718,52464,10383
20808,52565,10548
20859,52624,10654
20884,52649,10717
20919,52684,10783
20957,52722,10840
20966,52724,10848
20955,52705,10829
20954,52705,10826
20952,52707,10819
20923,52676,10770
20886,52633,10702
20870,52618,10658
20856,52609,10615
20816,52567,10541
20768,52517,10464
20737,52492,10414
20705,52466,10361
20653,52405,10271
20601,52341,10178
20567,52303,10110
20527,52257,10029
20462,52179,9911
20397,52101,9797
20345,52045,9709
20284,51978,9608
20208,51886,9476
20145,51810,9355
20104,51768,9264
20054,51720,9166
19989,51652,9052
19943,51602,8968
19922,51586,8923
19895,51564,8875
19861,51528,8818
19850,51520,8796
19861,51544,8811
19862,51553,8814
19853,51541,8805
19866,51555,8829
19898,51596,8876
19913,51617,8900
19917,51619,8912
19944,51645,8955
19984,51690,9017
20003,51704,9047
20005,51696,9054
20019,51710,9081
20038,51737,9111
20033,51732,9101
20016,51707,9073
20013,51703,9066
20010,51700,9059
19979,51663,9012
19940,51617,8955
19922,51600,8926
19905,51585,8895
19864,51538,8828
19819,51483,8755
19794,51455,8712
19767,51427,8665
19717,51370,8583
19669,51321,8506
19644,51305,8464
19614,51279,8414
19559,51217,8328
19510,51160,8249
19482,51132,8197
19447,51097,8131
19394,51038,8034
19351,50993,7951
19324,50974,7893
19282,50937,7814
19220,50871,7705
19165,50816,7613
19123,50776,7545
19066,50713,7455
18993,50628,7341
18934,50563,7246
18888,50512,7166
18825,50439,7056
18751,50352,6928
18696,50295,6831
18656,50256,6758
18600,50192,6663
18537,50114,6555
18497,50066,6482
18470,50038,6430
18423,49986,6351
18369,49921,6260
18341,49882,6197
18322,49850,6146
18279,49790,6068
18227,49723,5981
18191,49690,5920
18155,49668,5864
18099,49619,5778
18039,49565,5689
18001,49536,5631
17962,49506,5573
17901,49449,5488
17849,49399,5419
17829,49394,5398
17820,49402,5395
17813,49403,5397
17841,49439,5449
17917,49537,5582
18016,49660,5760
18128,49790,5967
18280,49960,6241
18477,50184,6594
18688,50416,6974
18898,50635,7353
19129,50876,7763
19378,51147,8201
19609,51396,8610
19814,51611,8976
20023,51831,9339
20235,52059,9702
20416,52254,10016
20563,52409,10276
20707,52564,10525
20845,52714,10758
20943,52815,10929
21003,52878,11048
21061,52947,11163
21116,53014,11265
21136,53035,11310
21134,53023,11314
21140,53024,11323
21142,53028,11324
21115,52996,11280
21075,52948,11217
21050,52923,11178
21027,52904,11143
20983,52854,11075
20936,52797,11002
20910,52770,10958
20890,52750,10917
20852,52703,10845
20813,52651,10770
20792,52623,10720
20764,52588,10657
20708,52516,10551
20650,52440,10437
20606,52387,10343
20546,52321,10235
20456,52222,10094
20367,52130,9960
20298,52066,9853
20221,51993,9733
20133,51900,9590
20066,51827,9474
20030,51789,9401
19988,51745,9325
19933,51684,9234
19900,51647,9174
19895,51644,9151
19884,51631,9118
19864,51601,9069
19865,51599,9053
19887,51626,9069
19894,51634,9068
19883,51624,9056
19888,51638,9078
19905,51670,9123
19905,51678,9142
19897,51670,9145
19911,51690,9174
19933,51722,9210
19933,51724,9209
19923,51709,9192
19929,51716,9203
19942,51732,9223
19935,51719,9210
19921,51694,9183
19922,51693,9179
19921,51692,9173
19896,51656,9126
19867,51612,9065
19855,51593,9025
19836,51572,8979
19791,51521,8901
19746,51470,8827
19719,51445,8783
19686,51412,8733
19634,51349,8648
19588,51296,8567
19561,51273,8511
19520,51235,8436
19453,51161,8322
19389,51091,8215
19337,51044,8135
19272,50981,8037
19187,50892,7911
19112,50817,7802
19057,50768,7719
18991,50699,7613
18910,50601,7477
18842,50520,7363
18792,50465,7275
18731,50394,7168
18657,50306,7041
18599,50242,6938
18555,50198,6857
18491,50131,6749
18415,50051,6628
18361,50001,6545
18322,49972,6489
18264,49918,6409
18194,49848,6314
18142,49803,6245
18099,49772,6189
18041,49713,6107
17982,49644,6017
17945,49605,5956
17915,49576,5902
17868,49520,5820
17819,49461,5734
17789,49431,5674
17760,49402,5611
17711,49342,5515
17659,49279,5416
17628,49244,5346
17592,49204,5274
17529,49131,5171
17467,49060,5073
17422,49014,5007
17369,48962,4934
17298,48889,4832
17236,48833,4744
17197,48811,4695
17155,48786,4645
17109,48748,4590
17097,48742,4586
17132,48788,4654
17190,48852,4760
17264,48930,4903
17384,49063,5128
17553,49258,5434
17737,49466,5769
17924,49674,6123
18140,49921,6531
18382,50199,6977
18614,50460,7403
18832,50698,7809
19063,50953,8228
19292,51210,8644
19487,51423,9002
19655,51602,9314
19826,51792,9624
19991,51976,9912
20116,52109,10133
20209,52202,10303
20298,52297,10466
20372,52378,10600
20405,52404,10669
20418,52405,10699
20438,52422,10733
20451,52432,10747
20430,52401,10714
20394,52361,10667
20370,52348,10639
20344,52333,10601
20296,52285,10526
20253,52237,10458
20233,52220,10423
20206,52198,10377
20160,52149,10297
20126,52108,10226
20116,52092,10184
20092,52060,10124
20043,51996,10026
19999,51942,9934
19972,51912,9863
19925,51857,9766
19851,51768,9632
19785,51692,9512
19735,51637,9414
19668,51562,9294
19581,51461,9149
19509,51382,9032
19460,51335,8949
19404,51280,8853
19336,51212,8747
19281,51168,8677
19239,51147,8639
19185,51109,8587
19132,51059,8529
19111,51044,8506
19112,51054,8505
19098,51040,8479
19081,51014,8445
19092,51017,8450
19118,51034,8475
19129,51029,8478
19137,51020,8478
19166,51047,8515
19195,51082,8560
19196,51087,8572
19192,51081,8574
19207,51101,8604
19223,51119,8634
19218,51106,8631
19211,51089,8622
19217,51098,8629
19212,51096,8620
19179,51056,8571
19142,51017,8516
19120,51005,8483
19090,50984,8431
19036,50928,8341
18984,50874,8259
18946,50839,8200
18890,50784,8119
18811,50700,8004
18741,50628,7899
18691,50583,7818
18632,50521,7719
18559,50435,7599
18501,50366,7500
18461,50319,7423
18407,50256,7322
18340,50177,7198
18292,50122,7100
18261,50092,7025
18212,50041,6929
18148,49970,6816
18099,49924,6735
18057,49892,6675
17991,49828,6585
17917,49746,6476
17865,49691,6393
17822,49648,6321
17753,49573,6216
17674,49487,6099
17617,49431,6013
17571,49387,5937
17508,49317,5829
17443,49244,5716
17401,49204,5638
17365,49173,5567
17309,49113,5466
17252,49051,5365
17218,49017,5296
17186,48984,5232
17139,48927,5146
17097,48877,5066
17073,48856,5020
17038,48829,4969
16981,48771,4885
16931,48722,4807
16901,48701,4756
16865,48668,4693
16813,48605,4604
16769,48550,4526
16738,48517,4469
16693,48469,4396
16637,48404,4306
16603,48370,4254
16600,48378,4258
16604,48390,4282
16617,48408,4330
16673,48480,4452
16773,48605,4648
16888,48740,4872
17019,48885,5128
17192,49080,5454
17393,49315,5835
17587,49538,6209
17780,49749,6575
17997,49986,6969
18224,50236,7378
18425,50453,7746
18609,50646,8080
18803,50854,8417
18987,51056,8730
19131,51205,8976
19252,51318,9177
19374,51441,9376
19483,51554,9549
19552,51623,9661
19600,51670,9742
19650,51729,9833
19683,51770,9898
19677,51765,9903
19662,51748,9887
19663,51751,9886
19659,51744,9865
19632,51702,9803
19606,51665,9741
19594,51654,9704
19567,51629,9649
19511,51568,9554
19455,51511,9464
19415,51475,9400
19364,51420,9315
19296,51330,9193
19238,51248,9073
19194,51189,8968
19132,51112,8836
19049,51008,8673
18975,50917,8524
18912,50847,8397
18832,50757,8250
18736,50650,8087
18659,50570,7957
18601,50516,7859
18532,50448,7748
18460,50373,7633
18414,50331,7559
18385,50309,7512
18341,50266,7445
18297,50217,7373
18288,50205,7345
18296,50216,7345
18288,50211,7335
18277,50203,7331
18295,50227,7369
18327,50264,7425
18341,50272,7454
18354,50273,7480
18394,50307,7542
18436,50348,7608
18451,50359,7641
18457,50367,7666
18477,50399,7715
18490,50422,7752
18476,50411,7748
18463,50399,7736
18467,50410,7743
18462,50411,7732
18435,50381,7682
18412,50354,7638
18408,50352,7622
18396,50337,7589
18364,50292,7523
18336,50252,7464
18319,50228,7424
18284,50184,7360
18227,50114,7263
18179,50058,7177
18144,50024,7114
18090,49971,7030
18019,49897,6920
17965,49845,6831
17927,49814,6762
17873,49762,6667
17805,49693,6555
17758,49650,6477
17728,49629,6423
17681,49582,6344
17623,49515,6248
17588,49476,6181
17568,49456,6131
17531,49411,6051
17488,49353,5960
17462,49321,5899
17435,49293,5848
17382,49230,5762
17324,49156,5666
17289,49115,5604
17265,49088,5550
17222,49038,5468
17175,48985,5387
17149,48961,5338
17125,48935,5283
17078,48879,5193
17031,48827,5106
17006,48808,5054
16977,48785,4999
16923,48732,4913
16876,48687,4837
16849,48670,4793
16815,48643,4736
16763,48585,4647
16721,48536,4568
16698,48514,4520
16667,48483,4464
16617,48432,4386
16581,48404,4330
16575,48411,4317
16571,48412,4313
16567,48401,4312
16596,48428,4369
16665,48507,4501
16748,48600,4666
16848,48706,4859
16997,48863,5125
17184,49067,5455
17372,49269,5793
17561,49472,6138
17775,49713,6530
18002,49974,6945
18210,50206,7329
18406,50417,7690
18615,50647,8065
18823,50875,8433
18995,51059,8745
19143,51212,9016
19297,51374,9282
19437,51523,9522
19535,51619,9695
19608,51685,9828
19683,51762,9962
19743,51824,10065
19766,51837,10106
19776,51834,10123
19799,51851,10151
19811,51860,10157
19793,51829,10113
19770,51796,10062
19763,51791,10039
19747,51776,10002
19705,51726,9926
19669,51683,9857
19653,51671,9821
19626,51648,9772
19572,51591,9689
19525,51542,9615
19498,51518,9565
19458,51477,9493
19393,51400,9385
19337,51332,9286
19296,51283,9200
19237,51212,9083
19158,51116,8935
19096,51042,8811
19051,50996,8716
18989,50935,8600
18914,50857,8469
18862,50806,8374
18829,50778,8306
18782,50727,8217
18726,50661,8121
18695,50624,8067
18681,50606,8044
18654,50563,8005
18622,50522,7967
18618,50530,7974
18630,50562,8004
18630,50569,8010
18633,50571,8017
18665,50607,8064
18704,50649,8122
18721,50661,8148
18737,50666,8169
18771,50698,8218
18805,50732,8265
18817,50735,8280
18825,50734,8292
18843,50755,8323
18851,50767,8336
18834,50747,8310
18819,50732,8287
18822,50741,8289
18811,50733,8271
18773,50688,8214
18739,50650,8160
18725,50637,8129
18701,50606,8078
18657,50546,7995
18625,50505,7928
18613,50492,7889
18586,50461,7829
18536,50402,7738
18497,50360,7661
18472,50342,7606
18431,50302,7528
18375,50238,7429
18333,50191,7351
18300,50158,7287
18244,50096,7196
18174,50016,7087
18122,49963,7008
18079,49929,6945
18015,49867,6852
17944,49793,6744
17899,49751,6669
17870,49727,6611
17827,49679,6526
17783,49622,6435
17760,49593,6377
17738,49569,6325
17691,49514,6240
17637,49452,6151
17606,49419,6092
17578,49388,6032
17526,49324,5934
17471,49255,5835
17437,49215,5767
17400,49173,5693
17335,49102,5585
17272,49040,5486
17235,49013,5425
17195,48978,5359
17134,48912,5264
17082,48858,5183
17053,48834,5138
17016,48799,5081
16963,48739,4994
16920,48694,4925
16897,48674,4884
16862,48639,4830
16814,48586,4760
16790,48568,4732
16804,48598,4760
16828,48639,4810
16865,48688,4890
16952,48792,5049
17083,48946,5283
17226,49107,5540
17384,49273,5823
17584,49486,6176
17814,49735,6581
18034,49973,6980
18244,50200,7369
18472,50452,7787
18709,50716,8211
18919,50942,8587
19109,51140,8925
19306,51352,9267
19494,51557,9587
19639,51710,9843
19759,51831,10057
19881,51960,10266
19989,52076,10445
20058,52142,10560
20102,52183,10639
20150,52235,10716
20184,52275,10764
20189,52275,10761
20187,52268,10748
20198,52280,10754
20195,52271,10738
20156,52220,10676
20115,52168,10610
20093,52142,10569
20065,52104,10514
20015,52038,10431
19973,51986,10364
19951,51963,10323
19918,51928,10263
19864,51864,10168
19819,51812,10085
19786,51782,10024
19734,51729,9937
19660,51644,9815
19595,51573,9704
19544,51523,9612
19479,51451,9497
19399,51358,9357
19335,51286,9242
19286,51238,9153
19220,51170,9048
19148,51090,8933
19104,51044,8855
19078,51025,8800
19035,50986,8722
18989,50938,8640
18975,50926,8602
18975,50935,8591
18955,50923,8563
18933,50903,8536
18940,50913,8549
18954,50931,8575
18946,50917,8573
18935,50897,8569
18950,50909,8595
18969,50928,8621
18964,50916,8611
18955,50908,8602
18969,50933,8629
18980,50955,8651
18969,50942,8636
18966,50931,8626
18985,50950,8645
18997,50965,8653
18989,50948,8631
18984,50932,8620
18991,50940,8633
18987,50933,8622
18967,50893,8569
18955,50859,8522
18957,50852,8499
18939,50826,8454
18895,50772,8373
18861,50732,8305
18842,50715,8257
18805,50679,8185
18750,50616,8089
18710,50571,8018
18684,50547,7968
18641,50498,7888
18583,50425,7779
18541,50373,7697
18508,50338,7637
18453,50277,7553
18388,50201,7453
18343,50157,7380
18307,50130,7319
18252,50076,7228
18189,50010,7123
18148,49974,7049
18117,49949,6987
18070,49898,6897
18019,49841,6804
17987,49815,6744
17956,49789,6686
17899,49728,6593
17840,49661,6497
17802,49622,6435
17766,49585,6374
17715,49521,6282
17673,49466,6197
17654,49446,6148
17629,49421,6095
17581,49365,6009
17537,49313,5931
17509,49287,5882
17476,49253,5824
17427,49197,5742
17390,49156,5676
17370,49140,5633
17336,49105,5568
17282,49040,5470
17238,48987,5389
17210,48957,5335
17165,48911,5264
17107,48847,5171
17072,48809,5108
17061,48802,5085
17043,48787,5064
17029,48773,5056
17056,48812,5118
17126,48901,5254
17208,48998,5417
17308,49112,5614
17457,49285,5889
17642,49500,6226
17827,49707,6572
18014,49913,6930
18231,50153,7333
18463,50406,7755
18673,50628,8146
18868,50834,8517
19073,51062,8898
19272,51285,9260
19437,51460,9559
19581,51614,9822
19727,51779,10082
19854,51926,10307
19939,52015,10463
20002,52078,10586
20068,52146,10711
20115,52191,10802
20129,52193,10833
20134,52191,10851
20151,52210,10883
20152,52213,10887
20125,52177,10841
20106,52145,10796
20110,52140,10776
20101,52122,10736
20065,52077,10661
20034,52042,10600
20017,52032,10565
19986,52002,10511
19936,51944,10427
19899,51901,10356
19876,51880,10304
19834,51832,10219
19770,51758,10102
19718,51703,10004
19674,51664,9926
19607,51595,9816
19521,51497,9680
19450,51419,9568
19394,51360,9474
19326,51278,9352
19254,51184,9219
19205,51126,9122
19168,51089,9045
19112,51028,8947
19051,50957,8849
19014,50920,8794
18993,50903,8762
18959,50866,8710
18926,50828,8659
18920,50823,8645
18919,50827,8639
18897,50806,8609
18875,50789,8583
18877,50806,8592
18883,50824,8600
18873,50815,8581
18868,50812,8579
18887,50840,8618
18902,50863,8655
18898,50860,8660
18900,50865,8670
18917,50894,8700
18923,50906,8707
18909,50883,8677
18903,50866,8657
18912,50869,8656
18905,50853,8629
18872,50808,8567
18846,50776,8519
18834,50763,8490
18805,50727,8435
18759,50666,8352
18727,50624,8293
18704,50603,8251
18656,50556,8179
18588,50486,8085
18537,50440,8016
18501,50414,7965
18444,50363,7884
18375,50295,7779
18324,50253,7699
18282,50222,7634
18219,50161,7541
18154,50084,7436
18115,50037,7361
18086,50005,7296
18038,49948,7202
17985,49881,7102
17953,49843,7035
17926,49811,6973
17875,49753,6880
17822,49692,6786
17790,49661,6726
17758,49634,6668
17705,49580,6580
17654,49525,6494
17621,49493,6436
17580,49452,6366
17516,49378,6262
17456,49308,6164
17416,49267,6096
17372,49221,6019
17312,49150,5915
17265,49092,5831
17242,49066,5781
17213,49033,5722
17164,48977,5638
17126,48937,5574
17107,48924,5537
17077,48892,5481
17029,48834,5397
16989,48793,5332
16958,48774,5285
16907,48731,5208
16837,48663,5105
16786,48615,5025
16752,48585,4968
16703,48533,4887
16646,48467,4793
16616,48438,4745
16612,48441,4741
16605,48436,4741
16610,48442,4770
16666,48509,4879
16763,48622,5055
16869,48740,5256
16996,48875,5498
17170,49067,5812
17367,49288,6168
17555,49491,6514
17749,49698,6872
17972,49941,7270
18194,50187,7668
18386,50395,8020
18567,50587,8355
18758,50794,8699
18932,50986,9012
19065,51133,9259
19185,51263,9473
19315,51401,9683
19420,51509,9851
19479,51565,9956
19524,51615,10043
19573,51683,10136
19602,51729,10190
19602,51730,10189
19600,51728,10182
19604,51739,10185
19586,51722,10152
19540,51664,10075
19497,51613,10008
19467,51580,9960
19423,51525,9886
19364,51444,9785
19318,51380,9703
19282,51337,9637
19222,51271,9541
19142,51181,9416
19075,51113,9305
19017,51060,9205
18935,50977,9067
18837,50869,8899
18752,50782,8753
18672,50710,8622
18569,50613,8463
18462,50505,8293
18384,50430,8160
18321,50375,8048
18241,50293,7916
18160,50205,7787
18107,50149,7701
18064,50102,7630
18001,50029,7535
17941,49955,7448
17909,49917,7403
17879,49887,7368
17829,49836,7312
17788,49794,7269
17781,49791,7271
17783,49798,7279
17780,49787,7268
17795,49794,7278
17836,49842,7336
17867,49886,7391
17878,49898,7416
17899,49923,7450
17940,49975,7510
17969,50011,7551
17974,50013,7556
17987,50022,7571
18014,50051,7605
18020,50054,7609
17996,50019,7574
17981,49999,7551
17979,50002,7546
17956,49980,7513
17912,49930,7450
17882,49903,7407
17868,49899,7383
17839,49872,7328
17796,49827,7250
17774,49811,7204
17768,49814,7176
17743,49788,7117
17704,49741,7039
17687,49717,6990
17680,49704,6952
17648,49658,6878
17605,49598,6790
17576,49566,6727
17546,49542,6672
17490,49488,6586
17429,49427,6493
17391,49395,6428
17359,49369,6368
17309,49312,6280
17263,49251,6190
17242,49220,6132
17223,49192,6077
17183,49138,5995
17147,49087,5921
17127,49063,5876
17094,49030,5823
17035,48964,5739
16980,48899,5659
16944,48859,5601
16895,48810,5525
16822,48734,5415
16755,48665,5315
16706,48619,5239
16644,48558,5142
16564,48473,5017
16500,48404,4912
16454,48360,4832
16391,48295,4727
16309,48209,4596
16240,48144,4489
16183,48098,4405
16106,48027,4296
16017,47938,4173
15952,47881,4084
15908,47849,4023
15855,47799,3951
15810,47749,3889
15812,47752,3894
15856,47803,3953
15908,47854,4024
15979,47923,4131
16098,48052,4322
16253,48223,4577
16413,48388,4849
16591,48563,5156
16805,48785,5530
17027,49024,5930
17227,49238,6307
17423,49450,6683
17638,49691,7085
17850,49931,7477
18033,50135,7823
18205,50330,8154
18388,50540,8487
18555,50727,8780
18688,50863,9008
18810,50986,9209
18934,51119,9406
19031,51222,9562
19087,51280,9660
19131,51329,9742
19177,51387,9824
19199,51417,9862
19192,51409,9847
19184,51404,9828
19187,51414,9820
19176,51400,9782
19148,51358,9716
19130,51331,9668
19124,51322,9639
19100,51286,9579
19058,51222,9490
19029,51175,9418
19010,51147,9360
18969,51093,9270
18911,51018,9158
18868,50966,9069
18830,50926,8987
18762,50856,8867
18679,50768,8726
18613,50705,8612
18557,50654,8511
18482,50574,8379
18404,50487,8244
18358,50437,8149
18325,50403,8070
18277,50343,7967
18233,50284,7869
18217,50264,7820
18213,50261,7794
18194,50239,7756
18184,50227,7736
18204,50254,7762
18229,50285,7797
18236,50287,7810
18251,50294,7836
18293,50336,7900
18333,50374,7959
18352,50381,7988
18377,50398,8024
18425,50444,8088
18458,50475,8135
18463,50477,8148
18473,50494,8174
18503,50539,8230
18519,50563,8266
18510,50552,8265
18512,50553,8275
18531,50576,8301
18533,50576,8294
18513,50548,8253
18506,50540,8232
18514,50553,8230
18500,50535,8194
18465,50489,8130
18444,50462,8086
18432,50449,8051
18397,50400,7976
18348,50327,7877
18316,50282,7804
18290,50251,7746
18232,50189,7656
18159,50112,7553
18109,50067,7481
18065,50031,7421
17993,49959,7331
17918,49879,7231
17876,49835,7158
17842,49798,7087
17783,49728,6982
17718,49651,6869
17675,49605,6785
17633,49561,6702
17566,49490,6593
17501,49427,6494
17459,49397,6433
17417,49361,6369
17355,49295,6270
17302,49238,6181
17272,49215,6125
17237,49185,6059
17183,49128,5967
17145,49087,5894
17137,49075,5857
17117,49047,5806
17070,48988,5717
17034,48948,5637
17022,48937,5587
16995,48906,5522
16947,48847,5433
16915,48807,5369
16901,48790,5332
16868,48751,5269
16815,48690,5183
16780,48655,5122
16759,48638,5080
16718,48593,5010
16667,48531,4927
16646,48506,4893
16653,48517,4902
16657,48522,4912
16671,48536,4945
16734,48613,5056
16835,48736,5233
16943,48863,5430
17071,49009,5668
17247,49210,5983
17448,49439,6346
17640,49651,6708
17836,49863,7086
18059,50110,7505
18286,50360,7922
18488,50576,8292
18682,50784,8644
18885,51011,9005
19069,51218,9333
19215,51376,9600
19348,51521,9845
19484,51673,10090
19597,51793,10291
19672,51861,10422
19743,51921,10533
19826,51996,10648
19881,52044,10721
19897,52047,10733
19910,52051,10738
19934,52070,10751
19934,52059,10729
19905,52012,10668
19884,51980,10622
19878,51972,10601
19857,51946,10554
19817,51898,10481
19791,51873,10432
19782,51872,10408
19753,51844,10352
19705,51789,10265
19675,51755,10199
19654,51735,10147
19605,51682,10059
19536,51605,9946
19484,51551,9851
19434,51506,9760
19354,51426,9633
19264,51333,9496
19203,51275,9393
19157,51233,9304
19093,51164,9188
19031,51090,9074
19002,51054,9003
18982,51026,8947
18942,50970,8867
18902,50920,8796
18887,50911,8772
18879,50913,8758
18853,50892,8722
18837,50879,8702
18852,50900,8727
18865,50917,8751
18857,50906,8746
18859,50902,8753
18888,50930,8797
18911,50952,8833
18912,50945,8837
18920,50948,8852
18945,50977,8892
18955,50991,8911
18942,50974,8892
18938,50969,8882
18953,50992,8897
18952,50996,8893
18929,50969,8860
18915,50953,8843
18912,50954,8843
18893,50933,8813
18857,50889,8756
18837,50863,8723
18829,50852,8705
18799,50811,8652
18748,50747,8569
18710,50705,8502
18678,50677,8444
18623,50619,8351
18559,50545,8241
18517,50497,8158
18483,50460,8081
18425,50393,7968
18357,50313,7840
18311,50261,7746
18272,50220,7664
18216,50153,7557
18158,50081,7453
18121,50038,7388
18080,49994,7325
18013,49918,7227
17943,49841,7127
17895,49794,7055
17848,49746,6978
17783,49674,6874
17725,49613,6780
17690,49586,6715
17651,49552,6638
17592,49488,6530
17544,49434,6440
17522,49408,6386
17490,49371,6322
17435,49308,6231
17391,49261,6158
17367,49240,6115
17325,49199,6054
17263,49129,5965
17219,49078,5897
17199,49055,5854
17161,49010,5785
17103,48938,5691
17061,48891,5622
17034,48869,5573
16988,48825,5495
16931,48764,5397
16897,48731,5330
16877,48720,5286
16836,48683,5219
16783,48633,5140
16757,48618,5098
16750,48624,5082
16734,48609,5054
16729,48599,5044
16774,48644,5108
16856,48731,5232
16944,48822,5379
17054,48942,5574
17214,49126,5855
17401,49342,6188
17583,49547,6527
17778,49766,6897
18006,50027,7319
18240,50292,7750
18449,50525,8150
18653,50755,8545
18873,51005,8953
19079,51232,9328
19251,51406,9638
19413,51569,9926
19578,51744,10211
19713,51889,10449
19805,51983,10622
19887,52069,10773
19976,52164,10920
20037,52226,11019
20064,52244,11066
20092,52266,11109
20128,52305,11159
20142,52317,11173
20133,52301,11147
20136,52300,11132
20154,52317,11131
20150,52302,11095
20118,52258,11029
20099,52235,10988
20092,52230,10968
20059,52193,10916
20011,52134,10840
19988,52100,10786
19977,52077,10741
19937,52016,10658
19880,51936,10554
19837,51884,10476
19797,51842,10402
19729,51768,10289
19649,51679,10160
19590,51617,10063
19536,51561,9971
19457,51473,9846
19376,51386,9721
19325,51341,9635
19281,51305,9558
19221,51242,9458
19169,51182,9368
19144,51160,9316
19119,51140,9263
19076,51093,9184
19048,51056,9125
19051,51057,9112
19051,51055,9101
19029,51029,9066
19014,51018,9050
19021,51038,9072
19021,51044,9081
19001,51018,9058
18995,51006,9052
19012,51024,9077
19015,51029,9085
18996,51009,9065
18989,51007,9063
19001,51030,9087
19000,51033,9086
18984,51013,9059
18987,51016,9054
19006,51038,9067
19004,51032,9048
18981,51000,9002
18969,50984,8978
18963,50982,8965
18934,50951,8916
18892,50900,8847
18871,50876,8808
18856,50863,8780
18809,50813,8712
18749,50744,8624
18712,50700,8561
18682,50665,8503
18628,50599,8410
18569,50526,8308
18532,50486,8235
18495,50448,8160
18430,50374,8050
18361,50296,7933
18310,50248,7843
18256,50200,7748
18178,50123,7623
18103,50047,7507
18050,49996,7424
17990,49938,7332
17907,49850,7206
17832,49769,7087
17781,49714,6996
17722,49649,6892
17640,49557,6762
17568,49480,6653
17517,49435,6576
17458,49378,6486
17387,49300,6374
17334,49244,6284
17303,49216,6221
17261,49171,6140
17205,49105,6039
17166,49063,5965
17141,49042,5916
17093,48996,5839
17027,48927,5742
16983,48883,5675
16960,48859,5630
16923,48811,5562
16875,48750,5483
16849,48722,5436
16835,48713,5406
16798,48679,5350
16753,48633,5279
16730,48616,5237
16717,48609,5206
16686,48574,5142
16646,48528,5068
16621,48506,5023
16593,48488,4981
16542,48438,4903
16494,48384,4828
16482,48371,4802
16491,48380,4808
16499,48384,4824
16533,48421,4894
16621,48524,5051
16739,48659,5257
16865,48797,5486
17026,48972,5778
17232,49205,6148
17445,49446,6539
17643,49664,6917
17854,49896,7315
18085,50157,7746
18302,50398,8152
18492,50597,8509
18684,50793,8856
18880,50998,9199
19044,51169,9490
19171,51291,9721
19292,51411,9936
19411,51540,10141
19496,51635,10291
19546,51689,10388
19597,51747,10483
19644,51811,10575
19658,51839,10614
19650,51836,10611
19653,51846,10616
19662,51863,10623
19644,51843,10588
19606,51797,10525
19584,51772,10482
19568,51758,10445
19529,51716,10373
19479,51663,10290
19449,51642,10237
19427,51626,10191
19385,51577,10112
19341,51518,10026
19320,51485,9968
19298,51455,9905
19247,51391,9801
19186,51322,9690
19143,51279,9605
19092,51225,9508
19010,51132,9370
18926,51040,9235
18867,50980,9136
18807,50917,9033
18730,50827,8902
18664,50753,8789
18625,50717,8717
18587,50680,8644
18539,50626,8557
18511,50594,8501
18509,50595,8489
18501,50589,8473
18479,50565,8441
18474,50562,8435
18486,50583,8454
18485,50581,8448
18469,50554,8420
18471,50550,8422
18488,50572,8453
18485,50574,8460
18467,50555,8445
18466,50559,8453
18474,50575,8477
18458,50560,8470
18429,50528,8440
18420,50525,8434
18418,50530,8435
18389,50499,8396
18345,50450,8336
18323,50430,8301
18308,50417,8274
18268,50369,8211
18215,50306,8131
18179,50270,8076
18145,50236,8019
18084,50166,7921
18016,50087,7815
17968,50035,7738
17919,49982,7654
17844,49893,7532
17769,49804,7412
17716,49744,7322
17659,49676,7220
17577,49576,7080
17500,49486,6950
17444,49429,6855
17381,49370,6751
17297,49288,6617
17225,49221,6499
17176,49184,6413
17117,49136,6314
17039,49063,6191
16974,49005,6088
16928,48968,6013
16867,48908,5918
16787,48821,5796
16724,48753,5696
16680,48708,5624
16619,48639,5531
16545,48547,5419
16491,48480,5336
16455,48437,5272
16404,48374,5177
16343,48298,5065
16303,48253,4989
16275,48230,4934
16222,48182,4847
16153,48120,4741
16106,48088,4668
16073,48071,4615
16025,48025,4534
15974,47967,4445
15947,47940,4389
15927,47922,4339
15882,47870,4252
15830,47808,4159
15799,47776,4098
15769,47747,4038
15714,47682,3944
15657,47614,3854
15621,47581,3801
15585,47550,3744
15532,47492,3650
15489,47444,3569
15477,47438,3539
15471,47438,3524
15462,47424,3509
15485,47448,3552
15559,47538,3682
15660,47653,3860
15773,47775,4065
15926,47945,4341
16124,48174,4699
16331,48410,5086
16534,48634,5478
16761,48883,5909
17011,49162,6372
17245,49422,6807
17453,49650,7199
17664,49887,7589
17879,50134,7975
18062,50341,8304
18211,50507,8576
18361,50676,8841
18507,50838,9089
18613,50942,9269
18685,51003,9392
18758,51070,9508
18820,51135,9608
18837,51150,9647
18827,51131,9644
18826,51122,9649
18818,51112,9642
18774,51065,9582
18718,51006,9500
18686,50976,9443
18661,50954,9391
18614,50902,9304
18566,50844,9214
18541,50816,9155
18514,50786,9090
18461,50720,8985
18408,50653,8880
18370,50613,8807
18319,50561,8723
18236,50473,8595
18154,50390,8463
18087,50332,8351
18007,50260,8219
17906,50155,8052
17818,50059,7895
17758,49993,7770
17694,49919,7634
17613,49821,7479
17548,49745,7357
17508,49703,7280
17463,49653,7204
17411,49588,7118
17379,49550,7070
17369,49546,7061
17354,49535,7045
17336,49513,7022
17340,49519,7037
17364,49550,7083
17377,49564,7110
17385,49564,7123
17415,49593,7168
17459,49639,7232
17483,49656,7265
17494,49657,7283
17524,49690,7331
17561,49734,7385
17572,49747,7401
17571,49746,7400
17584,49768,7425
17591,49788,7449
17567,49769,7435
17538,49738,7407
17533,49735,7403
17531,49737,7397
17502,49705,7351
17471,49665,7298
17460,49651,7270
17443,49627,7229
17398,49566,7143
17347,49507,7054
17310,49475,6991
17264,49437,6912
17194,49368,6796
17129,49307,6685
17085,49272,6600
17032,49222,6500
16959,49141,6373
16897,49070,6266
16851,49024,6187
16794,48961,6093
16721,48873,5977
16664,48806,5884
16628,48767,5822
16578,48708,5740
16511,48628,5635
16464,48576,5556
16438,48550,5502
16397,48500,5420
16339,48431,5315
16302,48392,5238
16277,48373,5177
16229,48321,5082
16165,48245,4969
16125,48197,4888
16101,48170,4827
16056,48118,4740
15999,48051,4641
15957,48009,4575
15919,47976,4518
15859,47911,4424
15792,47837,4319
15747,47794,4244
15705,47757,4174
15642,47692,4070
15576,47622,3965
15530,47580,3895
15486,47536,3824
15423,47466,3725
15365,47402,3636
15334,47372,3587
15306,47345,3537
15264,47299,3468
15241,47279,3434
15263,47316,3471
15311,47378,3547
15372,47446,3651
15473,47566,3833
15624,47752,4107
15794,47954,4420
15972,48153,4750
16184,48386,5133
16430,48656,5567
16669,48916,5995
16891,49155,6400
17127,49409,6824
17372,49674,7254
17588,49897,7631
17770,50080,7955
17954,50272,8274
18134,50466,8582
18272,50611,8826
18374,50714,9017
18475,50822,9204
18570,50928,9372
18626,50989,9475
18657,51020,9533
18700,51064,9600
18743,51104,9658
18750,51102,9661
18737,51076,9633
18737,51072,9620
18739,51074,9603
18717,51046,9548
18688,51008,9490
18676,50997,9466
18663,50986,9438
18622,50942,9365
18578,50894,9282
18553,50869,9219
18522,50835,9147
18466,50764,9036
18409,50694,8923
18370,50650,8831
18319,50593,8720
18239,50501,8569
18161,50417,8423
18099,50360,8308
18026,50285,8180
17929,50173,8026
17848,50073,7896
17796,50009,7804
17734,49938,7699
17655,49848,7574
17600,49790,7485
17578,49769,7438
17550,49735,7380
17514,49685,7305
17501,49668,7269
17514,49687,7275
17517,49692,7274
17511,49688,7268
17529,49717,7304
17564,49767,7366
17583,49788,7405
17594,49790,7429
17632,49821,7482
17683,49868,7550
17711,49883,7581
17727,49879,7592
17757,49901,7631
17787,49929,7677
17786,49922,7684
17772,49901,7674
17773,49907,7683
17770,49916,7687
17741,49893,7653
17706,49860,7611
17692,49850,7594
17673,49835,7565
17629,49785,7494
17582,49734,7418
17555,49712,7363
17522,49680,7293
17463,49613,7186
17407,49549,7085
17365,49512,7012
17309,49462,6920
17230,49378,6793
17162,49306,6679
17119,49266,6599
17070,49216,6508
17004,49142,6394
16955,49088,6304
16926,49064,6245
16883,49023,6169
16825,48958,6070
16787,48914,5996
16768,48895,5947
16727,48853,5871
16667,48786,5773
16626,48747,5704
16604,48730,5655
16563,48683,5574
16506,48613,5467
16465,48570,5387
16438,48543,5325
16394,48486,5231
16339,48416,5123
16305,48378,5053
16278,48352,5000
16224,48296,4915
16158,48229,4819
16111,48194,4755
16075,48172,4702
16026,48124,4622
15977,48070,4541
15951,48045,4493
15928,48022,4442
15884,47969,4357
15843,47916,4274
15827,47893,4226
15811,47872,4180
15775,47827,4114
15753,47798,4078
15768,47821,4107
15801,47867,4170
15844,47919,4256
15931,48021,4419
16078,48192,4678
16247,48385,4983
16421,48580,5310
16627,48815,5697
16868,49093,6140
17106,49363,6577
17333,49610,6991
17578,49875,7424
17834,50162,7873
18060,50415,8281
18251,50623,8640
18445,50835,8996
18642,51050,9345
18804,51218,9631
18931,51342,9858
19057,51471,10072
19177,51600,10266
19259,51679,10390
19310,51721,10461
19370,51778,10537
19430,51835,10605
19453,51846,10618
19449,51831,10601
19448,51833,10600
19441,51833,10596
19402,51791,10546
19353,51733,10480
19327,51700,10438
19305,51669,10392
19262,51607,10307
19219,51544,10219
19202,51519,10168
19187,51502,10120
19148,51457,10043
19111,51414,9971
19091,51397,9927
19059,51365,9867
18995,51292,9761
18931,51219,9650
18883,51169,9558
18823,51101,9445
18740,50995,9291
18664,50902,9150
18609,50846,9045
18544,50782,8931
18462,50693,8794
18400,50623,8686
18364,50589,8616
18318,50543,8537
18254,50478,8445
18209,50439,8390
18191,50430,8375
18165,50408,8345
18135,50373,8303
18136,50373,8300
18161,50401,8333
18173,50409,8347
18176,50403,8349
18202,50430,8388
18241,50477,8450
18259,50495,8484
18266,50498,8502
18295,50527,8551
18330,50562,8604
18336,50561,8612
18327,50545,8594
18331,50554,8597
18335,50565,8599
18314,50544,8566
18285,50513,8523
18272,50506,8507
18257,50494,8486
18217,50447,8425
18174,50397,8356
18154,50376,8315
18132,50352,8267
18090,50298,8183
18052,50244,8102
18034,50217,8047
18007,50182,7976
17953,50117,7871
17903,50062,7776
17877,50039,7712
17839,50002,7635
17772,49932,7530
17713,49873,7443
17678,49844,7384
17632,49799,7303
17568,49726,7191
17518,49668,7101
17489,49635,7037
17439,49580,6949
17366,49496,6833
17307,49431,6739
17264,49388,6664
17202,49319,6558
17125,49231,6431
17070,49173,6335
17030,49135,6260
16966,49067,6156
16891,48980,6033
16842,48925,5944
16807,48890,5874
16749,48830,5779
16682,48767,5679
16645,48745,5618
16621,48738,5574
16578,48704,5502
16530,48662,5424
16506,48649,5379
16489,48638,5338
16452,48594,5264
16416,48545,5188
16404,48527,5142
16392,48506,5093
16354,48452,5012
16317,48399,4943
16304,48384,4917
16297,48379,4903
16284,48369,4891
16298,48395,4934
16360,48482,5063
16452,48592,5240
16557,48706,5447
16702,48864,5719
16893,49077,6069
17092,49296,6442
17283,49505,6814
17495,49743,7216
17731,50009,7648
17955,50254,8057
18161,50465,8426
18377,50685,8796
18598,50917,9165
18785,51113,9486
18934,51265,9755
19076,51417,10014
19210,51568,10255
19306,51674,10432
19371,51743,10555
19440,51819,10675
19502,51891,10782
19528,51918,10832
19538,51919,10846
19567,51941,10872
19598,51968,10895
19596,51960,10875
19576,51935,10833
19571,51931,10812
19562,51928,10786
19521,51889,10717
19470,51838,10640
19443,51812,10594
19418,51785,10547
19371,51722,10464
19323,51656,10380
19292,51623,10329
19254,51583,10267
19186,51507,10161
19116,51434,10053
19064,51392,9968
18999,51339,9864
18905,51248,9718
18820,51163,9581
18757,51104,9475
18685,51032,9356
18595,50928,9205
18525,50842,9071
18482,50789,8975
18429,50727,8872
18362,50645,8754
18313,50589,8668
18290,50570,8625
18265,50545,8579
18239,50510,8527
18239,50504,8515
18259,50528,8540
18265,50534,8551
18257,50523,8547
18270,50540,8575
18300,50578,8627
18311,50590,8651
18307,50581,8656
18320,50594,8682
18338,50618,8715
18331,50613,8713
18315,50591,8696
18321,50596,8704
18331,50610,8719
18313,50592,8699
18288,50563,8666
18285,50564,8656
18283,50568,8642
18251,50535,8586
18212,50494,8524
18191,50481,8491
18163,50465,8453
18108,50410,8373
18050,50351,8285
18012,50321,8223
17968,50282,8149
17902,50209,8039
17840,50149,7938
17799,50128,7866
17751,50094,7783
17684,50023,7671
17630,49957,7573
17600,49916,7506
17558,49862,7425
17493,49780,7316
17442,49716,7227
17413,49683,7162
17367,49635,7071
17296,49559,6951
17238,49500,6851
17198,49460,6770
17140,49392,6657
17062,49298,6521
17002,49230,6414
16954,49183,6332
16886,49111,6224
16802,49019,6099
16738,48959,6008
16691,48924,5938
16632,48864,5841
16570,48791,5736
16535,48751,5668
16506,48726,5617
16453,48668,5534
16393,48598,5434
16357,48557,5358
16329,48525,5286
16277,48461,5183
16215,48389,5072
16169,48345,4988
16120,48303,4907
16048,48228,4795
15976,48154,4686
15926,48111,4607
15873,48065,4521
15798,47992,4411
15729,47935,4326
15697,47922,4298
15682,47920,4295
15671,47912,4306
15701,47944,4387
15793,48044,4565
15921,48175,4795
16067,48320,5059
16254,48515,5394
16479,48764,5796
16703,49015,6209
16917,49251,6613
17151,49510,7045
17404,49794,7502
17637,50053,7923
17843,50279,8298
18054,50516,8670
18265,50755,9035
18440,50951,9345
18581,51105,9603
18726,51259,9849
18865,51403,10074
18956,51495,10230
19008,51547,10331
19059,51606,10424
19102,51660,10496
19106,51668,10508
19086,51646,10485
19075,51640,10472
19063,51632,10449
19020,51582,10377
18965,51518,10287
18930,51484,10223
18901,51462,10163
18850,51416,10070
18799,51370,9975
18771,51354,9916
18742,51334,9853
18688,51272,9748
18631,51203,9638
18591,51157,9553
18538,51094,9446
18450,50990,9291
18359,50885,9135
18285,50803,9007
18199,50704,8859
18086,50571,8671
17983,50453,8495
17904,50370,8353
17818,50283,8200
17718,50181,8031
17645,50107,7898
17604,50071,7813
17562,50027,7730
17510,49971,7643
17484,49952,7600
17491,49970,7604
17492,49975,7601
17482,49962,7591
17493,49979,7622
17527,50024,7685
17545,50044,7726
17549,50046,7752
17576,50076,7812
17620,50122,7888
17645,50140,7928
17661,50144,7948
17696,50176,7995
17736,50218,8051
17743,50223,8068
17734,50210,8065
17738,50222,8083
17740,50236,8095
17713,50213,8063
17677,50176,8018
17657,50162,7997
17630,50145,7964
17568,50092,7881
17499,50031,7787
17449,49994,7723
17396,49947,7653
17323,49862,7543
17252,49780,7430
17201,49728,7345
17145,49665,7252
17067,49571,7128
17003,49493,7018
16971,49452,6942
16933,49401,6854
16875,49325,6740
16829,49269,6647
16805,49245,6586
16771,49207,6508
16720,49145,6407
16684,49101,6333
16665,49084,6290
16632,49052,6225
16582,48997,6135
16547,48962,6069
16524,48945,6024
16482,48903,5948
16421,48835,5845
16379,48789,5765
16351,48759,5701
16302,48698,5607
16234,48616,5496
16177,48556,5409
16121,48507,5330
16041,48429,5215
15955,48346,5085
15895,48295,4985
15845,48252,4896
15776,48177,4775
15699,48090,4649
15640,48031,4553
15583,47974,4457
15500,47883,4323
15419,47788,4185
15364,47726,4086
15315,47672,3998
15256,47601,3900
15219,47554,3837
15225,47567,3852
15256,47612,3919
15303,47670,4026
15400,47780,4217
15558,47962,4506
15742,48170,4843
15937,48379,5201
16163,48622,5610
16419,48905,6069
16668,49177,6518
16896,49421,6933
17131,49675,7350
17373,49941,7770
17585,50169,8140
17760,50354,8455
17929,50535,8758
18092,50715,9046
18219,50851,9273
18315,50947,9443
18411,51053,9611
18506,51164,9771
18562,51232,9874
18585,51264,9926
18613,51306,9976
18642,51350,10018
18638,51351,10009
18615,51326,9974
18610,51319,9958
18609,51311,9937
18579,51262,9872
18532,51199,9783
18497,51161,9714
18459,51123,9640
18394,51045,9521
18322,50956,9387
18267,50892,9273
18205,50821,9147
18108,50710,8979
18000,50587,8805
17908,50486,8650
17811,50381,8482
17690,50247,8281
17573,50123,8091
17482,50036,7940
17390,49945,7786
17282,49831,7614
17193,49737,7468
17137,49683,7366
17086,49633,7270
17028,49570,7169
16994,49535,7107
16991,49539,7095
16990,49541,7086
16984,49534,7072
17001,49557,7097
17044,49609,7161
17079,49643,7209
17103,49657,7240
17147,49696,7297
17208,49758,7380
17252,49800,7442
17280,49825,7489
17325,49873,7563
17380,49929,7647
17406,49948,7691
17411,49947,7709
17430,49974,7747
17453,50008,7787
17447,50004,7785
17426,49980,7761
17425,49980,7762
17432,49986,7764
17415,49957,7724
17389,49917,7673
17382,49906,7654
17372,49893,7633
17332,49840,7570
17287,49781,7500
17262,49752,7457
17235,49724,7406
17185,49665,7314
17138,49610,7223
17112,49586,7162
17076,49555,7089
17016,49492,6980
16964,49439,6882
16936,49416,6821
16902,49385,6752
16845,49325,6657
16798,49275,6577
16772,49243,6521
16738,49193,6443
16689,49117,6337
16650,49059,6249
16624,49025,6186
16576,48972,6101
16506,48894,5991
16451,48837,5904
16414,48803,5838
16362,48747,5746
16295,48672,5630
16248,48623,5542
16218,48591,5471
16169,48533,5371
16105,48460,5256
16063,48419,5175
16036,48398,5112
15988,48349,5018
15931,48287,4916
15899,48257,4851
15875,48241,4804
15830,48197,4733
15784,48152,4667
15774,48153,4655
15791,48180,4686
15811,48200,4730
15858,48248,4830
15962,48369,5029
16102,48532,5294
16253,48699,5584
16436,48898,5926
16668,49155,6339
16911,49426,6772
17140,49674,7184
17377,49931,7604
17635,50214,8050
17881,50478,8471
18095,50697,8839
18306,50913,9198
18521,51145,9566
18702,51345,9884
18835,51490,10134
18960,51624,10362
19088,51768,10582
19187,51878,10748
19252,51943,10855
19315,52007,10953
19378,52080,11047
19410,52117,11090
19409,52111,11082
19412,52109,11075
19420,52113,11072
19401,52083,11030
19361,52030,10961
19337,52004,10914
19325,51994,10880
19291,51951,10811
19244,51888,10721
19216,51852,10656
19193,51824,10600
19141,51759,10506
19075,51667,10392
19026,51593,10302
18977,51528,10209
18895,51434,10067
18799,51327,9904
18717,51248,9767
18632,51170,9631
18522,51056,9459
18416,50942,9291
18345,50867,9164
18283,50798,9044
18207,50708,8904
18141,50635,8788
18103,50605,8723
18068,50579,8665
18021,50531,8589
17995,50502,8544
18006,50513,8550
18024,50523,8556
18030,50510,8541
18048,50516,8551
18083,50555,8597
18106,50582,8631
18110,50583,8640
18127,50600,8669
18161,50641,8727
18180,50664,8768
18180,50661,8783
18194,50675,8815
18223,50711,8865
18233,50723,8881
18224,50708,8864
18231,50712,8866
18250,50733,8885
18245,50726,8873
18223,50697,8837
18216,50692,8820
18213,50695,8807
18183,50661,8757
18140,50609,8689
18116,50584,8646
18097,50570,8610
18053,50522,8540
17998,50461,8454
17963,50426,8393
17934,50398,8332
17882,50342,8237
17829,50284,8140
17801,50258,8080
17772,50231,8020
17717,50169,7926
17662,50106,7833
17628,50075,7770
17592,50044,7704
17535,49983,7609
17484,49927,7526
17457,49902,7476
17422,49871,7411
17361,49809,7309
17306,49753,7214
17273,49724,7145
17229,49682,7059
17162,49607,6944
17104,49542,6847
17064,49499,6777
17007,49437,6683
16928,49346,6559
16866,49276,6456
16826,49234,6379
16772,49175,6280
16702,49095,6159
16650,49040,6070
16615,49011,6011
16565,48958,5930
16507,48888,5840
16483,48858,5801
16490,48869,5815
16495,48878,5839
16512,48904,5893
16585,48996,6031
16704,49139,6241
16834,49285,6477
16986,49452,6758
17184,49677,7115
17408,49929,7516
17623,50163,7905
17839,50393,8296
18077,50653,8716
18314,50914,9133
18523,51138,9506
18719,51346,9859
18920,51568,10214
19102,51769,10530
19241,51917,10774
19362,52045,10985
19486,52179,11194
19585,52285,11365
19640,52341,11470
19684,52385,11552
19733,52439,11634
19758,52467,11678
19747,52453,11671
19738,52440,11661
19744,52444,11663
19730,52422,11634
19687,52364,11565
19653,52317,11506
19637,52296,11469
19605,52255,11406
19553,52186,11312
19514,52139,11237
19491,52118,11184
19452,52076,11102
19398,52008,10992
19362,51964,10905
19338,51939,10840
19293,51886,10745
19233,51811,10623
19187,51757,10518
19144,51713,10419
19079,51639,10290
19004,51552,10152
18950,51494,10050
18902,51448,9959
18830,51370,9835
18753,51282,9707
18701,51231,9621
18662,51198,9556
18613,51147,9475
18572,51106,9411
18568,51109,9403
18577,51127,9410
18575,51125,9393
18583,51136,9395
18625,51189,9445
18666,51242,9497
18686,51262,9523
18710,51288,9560
18751,51344,9629
18780,51386,9681
18784,51389,9694
18796,51398,9715
18826,51434,9761
18839,51447,9782
18823,51424,9762
18816,51408,9749
18826,51413,9757
18820,51396,9739
18793,51352,9689
18776,51326,9652
18769,51320,9632
18738,51287,9585
18682,51224,9507
18638,51179,9449
18610,51152,9407
18564,51102,9332
18502,51033,9233
18460,50987,9157
18428,50954,9093
18373,50890,8994
18308,50806,8873
18261,50747,8777
18219,50700,8695
18153,50624,8583
18073,50535,8459
18012,50475,8363
17956,50426,8275
17878,50348,8156
17800,50266,8033
17750,50216,7943
17706,50171,7854
17637,50095,7733
17569,50018,7616
17524,49974,7535
17480,49928,7453
17412,49848,7338
17347,49770,7226
17304,49723,7147
17255,49669,7063
17185,49587,6949
17122,49518,6848
17080,49483,6779
17029,49439,6699
16959,49367,6593
16904,49311,6507
16877,49290,6457
16846,49262,6400
16804,49219,6332
16790,49209,6306
16815,49244,6335
16849,49286,6379
16894,49335,6446
16989,49442,6597
17137,49609,6837
17300,49789,7111
17471,49976,7414
17680,50213,7785
17919,50483,8205
18150,50732,8617
18382,50968,9022
18645,51236,9456
18917,51518,9895
19152,51762,10286
19356,51978,10638
19564,52209,10995
19765,52437,11334
19927,52613,11609
20063,52757,11842
20203,52908,12076
20330,53044,12285
20413,53128,12426
20471,53188,12526
20533,53261,12626
20581,53320,12701
20592,53331,12718
20599,53335,12718
20627,53364,12740
20642,53375,12749
20621,53339,12716
20595,53306,12680
20587,53300,12671
20575,53280,12652
20546,53233,12605
20532,53207,12575
20546,53217,12577
20549,53214,12558
20522,53177,12498
20500,53150,12445
20497,53149,12412
20474,53125,12349
20421,53063,12248
20378,53011,12159
20350,52978,12082
20303,52917,11967
20229,52823,11819
20164,52749,11699
20112,52698,11605
20038,52622,11487
19957,52528,11359
19911,52469,11277
19888,52442,11229
19848,52400,11162
19802,52352,11088
19787,52342,11056
19796,52358,11051
19797,52355,11028
19796,52348,11011
19820,52378,11042
19851,52420,11090
19860,52430,11106
19866,52431,11114
19894,52462,11155
19927,52497,11199
19939,52501,11209
19947,52501,11218
19974,52532,11258
19998,52559,11288
19996,52549,11278
19993,52540,11269
20007,52556,11287
20017,52559,11291
20003,52529,11259
19990,52505,11228
19993,52505,11219
19980,52491,11191
19941,52444,11126
19911,52405,11069
19900,52390,11034
19876,52359,10978
19833,52302,10891
19798,52258,10822
19774,52235,10777
19726,52184,10704
19657,52101,10598
19603,52039,10511
19565,52002,10445
19506,51940,10353
19430,51855,10240
19374,51799,10155
19338,51769,10091
19285,51715,10001
19228,51646,9898
19199,51611,9830
19184,51597,9780
19144,51554,9701
19095,51495,9608
19070,51468,9551
19054,51451,9507
19011,51401,9428
18955,51337,9338
18919,51301,9281
18886,51272,9227
18827,51207,9135
18763,51133,9035
18724,51090,8966
18692,51048,8899
18641,50977,8800
18591,50911,8712
18565,50888,8670
18545,50876,8641
18518,50850,8604
18521,50855,8616
18574,50923,8706
18647,51014,8832
18726,51106,8975
18838,51235,9177
18992,51413,9448
19156,51600,9741
19320,51778,10035
19507,51984,10367
19719,52223,10735
19919,52443,11085
20098,52630,11404
20283,52828,11734
20473,53043,12073
20636,53225,12368
20776,53368,12613
20920,53517,12852
21059,53669,13081
21155,53776,13248
21220,53845,13363
21292,53925,13480
21364,54008,13589
21401,54045,13643
21414,54050,13658
21438,54072,13684
21458,54093,13703
21442,54072,13672
21413,54028,13617
21406,54010,13590
21403,54002,13570
21374,53965,13517
21337,53921,13456
21322,53908,13431
21311,53901,13409
21278,53863,13349
21241,53820,13282
21225,53805,13241
21203,53780,13188
21150,53712,13093
21093,53637,12995
21054,53587,12923
21006,53529,12834
20933,53440,12704
20864,53359,12580
20820,53308,12488
20769,53249,12386
20700,53163,12261
20645,53097,12162
20618,53069,12102
20585,53032,12033
20534,52969,11942
20499,52927,11879
20490,52920,11849
20473,52902,11804
20438,52863,11744
20420,52851,11720
20424,52867,11732
20416,52862,11724
20394,52833,11693
20391,52831,11688
20405,52852,11706
20403,52848,11701
20386,52824,11682
20390,52827,11695
20405,52846,11724
20399,52836,11718
20383,52815,11696
20390,52827,11706
20407,52851,11730
20403,52845,11722
20390,52827,11700
20395,52837,11705
20404,52853,11712
20390,52837,11681
20370,52812,11638
20369,52811,11619
20360,52804,11591
20323,52757,11524
20277,52702,11451
20243,52670,11400
20199,52628,11333
20133,52553,11226
20070,52478,11123
20028,52429,11048
19975,52369,10961
19898,52280,10844
19832,52205,10741
19791,52163,10668
19743,52110,10580
19679,52032,10467
19628,51975,10371
19596,51949,10303
19550,51904,10212
19482,51832,10094
19430,51779,10000
19396,51750,9935
19344,51697,9848
19272,51619,9736
19216,51561,9649
19174,51520,9580
19108,51446,9479
19026,51353,9357
18969,51292,9269
18932,51254,9207
18877,51189,9118
18810,51110,9015
18772,51070,8950
18754,51059,8913
18728,51034,8865
18712,51017,8839
18744,51056,8887
18812,51136,8992
18884,51217,9113
18978,51318,9276
19122,51480,9519
19293,51676,9811
19461,51866,10109
19642,52071,10435
19858,52318,10811
20077,52568,11190
20274,52785,11535
20474,53001,11880
20689,53236,12246
20883,53448,12586
21043,53611,12868
21201,53768,13132
21366,53940,13395
21503,54084,13612
21597,54178,13765
21680,54264,13901
21765,54357,14035
21827,54418,14126
21855,54437,14168
21882,54461,14211
21914,54502,14265
21920,54518,14282
21899,54503,14261
21889,54502,14256
21894,54515,14269
21884,54499,14249
21860,54459,14202
21850,54439,14177
21849,54434,14166
21824,54399,14117
21786,54347,14043
21768,54323,13992
21762,54311,13954
21736,54267,13878
21695,54202,13779
21665,54158,13704
21631,54117,13631
21565,54039,13517
21485,53945,13385
21419,53877,13279
21359,53818,13179
21286,53734,13054
21220,53655,12939
21182,53616,12862
21149,53583,12790
21095,53522,12691
21046,53466,12604
21027,53447,12559
21010,53429,12520
20974,53389,12462
20945,53361,12421
20939,53367,12419
20932,53370,12413
20909,53347,12387
20902,53339,12382
20921,53367,12414
20933,53385,12435
20923,53375,12428
20924,53381,12439
20949,53413,12476
20965,53425,12490
20962,53410,12470
20968,53412,12469
20988,53435,12492
20987,53430,12487
20964,53396,12452
20956,53384,12436
20962,53393,12437
20950,53376,12406
20922,53336,12355
20913,53319,12336
20916,53318,12332
20894,53287,12291
20855,53234,12223
20835,53206,12178
20821,53188,12143
20777,53134,12071
20721,53066,11981
20685,53032,11919
20656,53007,11861
20602,52950,11767
20541,52880,11665
20499,52837,11591
20458,52797,11519
20396,52726,11414
20334,52655,11312
20300,52620,11247
20269,52586,11183
20217,52522,11085
20167,52462,10995
20141,52435,10942
20112,52401,10884
20057,52337,10795
20004,52284,10714
19971,52260,10659
19931,52227,10589
19876,52165,10490
19833,52116,10408
19806,52093,10354
19767,52050,10284
19705,51978,10185
19652,51921,10105
19615,51890,10050
19565,51841,9977
19502,51771,9887
19460,51729,9827
19440,51714,9793
19402,51674,9735
19347,51608,9651
19313,51565,9591
19297,51542,9550
19260,51495,9479
19208,51431,9389
19183,51402,9338
19177,51401,9323
19161,51388,9305
19153,51387,9311
19194,51450,9400
19276,51561,9558
19369,51676,9739
19484,51811,9961
19649,52004,10260
19847,52226,10600
20040,52434,10933
20238,52647,11281
20460,52895,11670
20680,53142,12058
20869,53350,12397
21048,53547,12719
21240,53760,13050
21420,53954,13350
21562,54103,13588
21694,54244,13805
21832,54396,14024
21948,54520,14203
22023,54591,14321
22087,54649,14426
22155,54713,14529
22195,54745,14586
22198,54735,14589
22201,54731,14592
22212,54745,14610
22199,54733,14597
22157,54687,14544
22126,54652,14503
22113,54636,14482
22088,54597,14439
22052,54541,14375
22038,54514,14335
22037,54512,14315
22014,54485,14262
21973,54433,14184
21949,54406,14132
21938,54399,14096
21906,54360,14024
21857,54298,13929
21821,54259,13856
21787,54227,13785
21727,54161,13674
21658,54083,13550
21611,54038,13462
21572,54003,13387
21512,53934,13282
21448,53857,13174
21410,53814,13104
21382,53781,13044
21336,53724,12959
21291,53672,12883
21273,53654,12853
21258,53637,12828
21223,53595,12775
21195,53563,12737
21196,53568,12742
21198,53575,12751
21183,53556,12737
21183,53546,12742
21214,53567,12781
21242,53578,12800
21246,53557,12784
21252,53550,12780
21274,53575,12808
21278,53587,12819
21258,53572,12801
21249,53571,12798
21254,53592,12816
21242,53591,12807
21214,53564,12765
21203,53555,12739
21205,53564,12732
21183,53544,12696
21142,53497,12635
21117,53468,12596
21105,53453,12568
21069,53410,12502
21012,53344,12411
20970,53302,12346
20935,53273,12294
20873,53214,12204
20797,53136,12095
20744,53086,12017
20706,53048,11952
20647,52976,11855
20575,52888,11746
20523,52832,11670
20482,52790,11602
20424,52723,11504
20369,52656,11408
20342,52624,11351
20318,52594,11298
20269,52530,11216
20221,52469,11138
20193,52437,11090
20163,52401,11030
20113,52336,10938
20068,52281,10857
20044,52258,10808
20012,52226,10748
19954,52163,10658
19904,52109,10585
19880,52087,10541
19850,52056,10483
19805,52003,10398
19770,51967,10335
19754,51958,10299
19722,51930,10244
19670,51874,10162
19634,51836,10101
19621,51822,10064
19593,51784,10006
19551,51727,9928
19530,51701,9880
19523,51702,9855
19495,51674,9803
19452,51624,9730
19431,51604,9689
19427,51605,9670
19405,51577,9622
19371,51529,9554
19358,51509,9516
19355,51504,9495
19330,51474,9449
19299,51442,9403
19300,51453,9408
19321,51490,9446
19335,51515,9480
19365,51555,9546
19444,51655,9693
19552,51785,9890
19665,51905,10098
19801,52046,10345
19981,52242,10658
20172,52454,10995
20345,52641,11314
20525,52835,11644
20734,53065,12006
20939,53288,12354
21115,53477,12657
21287,53666,12954
21469,53871,13263
21627,54049,13535
21743,54179,13741
21854,54301,13924
21972,54433,14107
22065,54534,14247
22122,54587,14330
22176,54642,14409
22235,54708,14498
22266,54738,14546
22267,54724,14543
22272,54719,14540
22285,54729,14546
22272,54708,14515
22237,54661,14456
22217,54638,14421
22215,54635,14404
22193,54602,14351
22153,54548,14269
22129,54520,14208
22116,54509,14161
22075,54464,14078
22014,54396,13979
21967,54349,13908
21922,54306,13840
21851,54227,13730
21771,54132,13602
21716,54065,13500
21671,54007,13407
21607,53926,13287
21544,53848,13171
21505,53805,13095
21470,53768,13024
21415,53707,12925
21362,53652,12837
21334,53631,12792
21307,53614,12753
21263,53573,12690
21232,53545,12642
21231,53553,12635
21230,53559,12630
21211,53536,12603
21204,53524,12592
21221,53540,12615
21231,53549,12631
21220,53536,12623
21217,53539,12637
21233,53564,12678
21235,53565,12697
21220,53535,12687
21220,53524,12695
21238,53540,12726
21236,53537,12729
21213,53509,12701
21204,53503,12691
21209,53514,12692
21193,53498,12656
21159,53458,12592
21141,53439,12554
21134,53431,12529
21106,53391,12468
21064,53331,12388
21042,53300,12340
21030,53282,12308
20992,53232,12244
20938,53168,12164
20904,53131,12113
20874,53103,12067
20821,53044,11984
20764,52979,11894
20733,52944,11836
20705,52912,11779
20652,52850,11688
20598,52789,11594
20565,52758,11532
20532,52725,11469
20477,52661,11376
20428,52603,11289
20404,52579,11237
20375,52550,11180
20322,52491,11096
20276,52440,11025
20252,52418,10983
20219,52384,10927
20167,52321,10840
20125,52272,10768
20100,52250,10723
20061,52213,10662
20002,52150,10574
19959,52105,10506
19941,52089,10468
19913,52054,10411
19866,51997,10331
19833,51961,10275
19816,51949,10241
19782,51916,10177
19735,51864,10091
19708,51839,10038
19698,51835,10005
19669,51801,9939
19623,51745,9851
19593,51716,9791
19577,51701,9748
19544,51656,9676
19503,51598,9594
19485,51575,9552
19474,51569,9528
19439,51535,9477
19401,51496,9426
19397,51501,9426
19419,51535,9466
19440,51562,9513
19479,51613,9598
19561,51725,9759
19669,51862,9958
19783,51988,10160
19923,52130,10397
20100,52316,10693
20283,52506,11005
20447,52671,11295
20613,52846,11598
20798,53050,11931
20972,53241,12242
21118,53396,12500
21262,53553,12748
21411,53724,13002
21535,53864,13216
21623,53956,13375
21707,54043,13525
21792,54137,13674
21849,54197,13777
21878,54217,13830
21912,54245,13881
21951,54286,13937
21961,54295,13949
21942,54271,13919
21929,54260,13903
21925,54263,13896
21899,54235,13850
21858,54182,13780
21838,54154,13736
21833,54143,13708
21802,54103,13646
21755,54043,13561
21726,54008,13499
21706,53987,13446
21658,53935,13355
21596,53864,13245
21553,53816,13160
21510,53770,13072
21434,53685,12940
21344,53583,12794
21275,53508,12679
21211,53442,12570
21129,53348,12432
21049,53254,12296
21000,53197,12202
20956,53148,12115
20896,53076,12010
20850,53022,11929
20840,53015,11901
20836,53014,11882
20818,52992,11843
20816,52987,11827
20843,53020,11855
20868,53048,11882
20877,53054,11890
20896,53074,11919
20932,53115,11978
20953,53136,12015
20950,53128,12018
20958,53137,12037
20986,53175,12082
20998,53191,12100
20988,53176,12089
20988,53179,12099
21002,53203,12130
20997,53200,12128
20975,53172,12096
20972,53170,12089
20986,53192,12104
20980,53188,12089
20958,53160,12053
20953,53152,12044
20954,53152,12039
20928,53114,11990
20889,53057,11918
20868,53029,11873
20853,53015,11833
20812,52969,11757
20758,52909,11670
20722,52874,11614
20694,52842,11565
20644,52774,11477
20589,52701,11384
20557,52667,11327
20528,52640,11272
20476,52583,11183
20423,52526,11098
20393,52498,11043
20360,52461,10979
20300,52390,10881
20246,52327,10796
20218,52302,10750
20181,52269,10696
20121,52204,10608
20072,52151,10534
20047,52129,10491
20009,52093,10432
19947,52025,10343
19896,51973,10272
19866,51951,10229
19823,51910,10161
19758,51839,10060
19705,51786,9976
19676,51759,9918
19639,51710,9837
19589,51638,9734
19559,51592,9662
19544,51568,9617
19506,51521,9546
19449,51457,9453
19414,51420,9390
19399,51403,9347
19370,51361,9278
19329,51305,9201
19304,51283,9160
19290,51281,9139
19260,51253,9091
19230,51220,9040
19233,51231,9042
19261,51274,9086
19286,51311,9137
19332,51366,9228
19427,51476,9399
19548,51617,9616
19667,51749,9837
19802,51897,10091
19975,52094,10405
20160,52303,10737
20332,52486,11042
20511,52675,11351
20712,52893,11687
20899,53096,12003
21053,53254,12269
21202,53408,12528
21362,53583,12801
21501,53733,13038
21606,53833,13217
21704,53928,13385
21807,54041,13562
21884,54127,13698
21923,54170,13780
21962,54216,13857
22010,54274,13940
22035,54302,13978
22036,54294,13974
22044,54296,13976
22059,54312,13987
22050,54297,13961
22021,54250,13900
22003,54220,13856
21994,54210,13825
21962,54174,13762
21916,54118,13681
21889,54085,13629
21868,54061,13592
21819,54006,13519
21756,53934,13427
21715,53890,13358
21686,53857,13294
21636,53795,13191
21580,53723,13075
21544,53678,12986
21506,53637,12899
21439,53560,12777
21369,53477,12652
21322,53428,12565
21276,53385,12483
21210,53313,12375
21149,53248,12279
21118,53223,12226
21092,53205,12178
21052,53163,12108
21025,53134,12059
21028,53142,12055
21028,53146,12052
21008,53121,12030
20998,53110,12029
21014,53130,12062
21019,53138,12080
21004,53117,12068
21008,53115,12076
21035,53143,12114
21046,53154,12133
21034,53133,12123
21034,53132,12130
21051,53158,12158
21048,53160,12156
21025,53135,12125
21019,53132,12120
21029,53150,12135
21018,53137,12114
20989,53094,12068
20978,53074,12051
20979,53073,12051
20953,53041,12016
20912,52991,11958
20894,52972,11924
20882,52963,11896
20839,52919,11830
20782,52862,11749
20749,52833,11698
20724,52811,11654
20676,52755,11576
20619,52685,11488
20582,52641,11430
20546,52599,11374
20487,52526,11290
20432,52455,11207
20404,52417,11153
20377,52386,11093
20326,52334,11006
20277,52289,10929
20252,52273,10884
20225,52248,10831
20176,52188,10742
20136,52136,10663
20117,52112,10614
20086,52080,10552
20029,52021,10459
19976,51972,10377
19937,51947,10321
19883,51903,10246
19810,51828,10139
19756,51771,10052
19726,51744,9992
19685,51699,9915
19631,51630,9815
19593,51583,9741
19566,51560,9691
19517,51514,9618
19454,51449,9527
19415,51415,9470
19398,51409,9438
19366,51381,9380
19322,51338,9305
19298,51322,9262
19286,51318,9238
19256,51283,9184
19219,51230,9116
19201,51199,9075
19191,51178,9044
19162,51130,8986
19130,51079,8928
19126,51071,8915
19134,51086,8929
19135,51086,8938
19155,51106,8985
19223,51189,9114
19320,51309,9297
19425,51432,9497
19557,51583,9745
19732,51787,10066
19921,52006,10412
20105,52207,10742
20306,52427,11089
20535,52681,11469
20754,52918,11831
20937,53111,12148
21111,53299,12459
21289,53499,12779
21445,53670,13057
21566,53798,13276
21685,53921,13483
21811,54053,13689
21908,54148,13848
21968,54199,13954
22028,54256,14055
22093,54327,14158
22129,54363,14212
22140,54362,14222
22163,54375,14243
22194,54401,14276
22195,54394,14266
22176,54363,14226
22175,54361,14210
22182,54377,14207
22161,54358,14169
22124,54316,14114
22107,54298,14090
22094,54287,14070
22049,54238,14006
21988,54169,13917
21947,54129,13850
21912,54097,13785
21850,54030,13681
21783,53950,13566
21741,53901,13484
21699,53853,13400
21625,53769,13278
21547,53682,13156
21493,53632,13073
21441,53586,12992
21372,53512,12881
21317,53449,12782
21293,53426,12727
21266,53401,12670
21217,53348,12584
21180,53307,12517
21174,53301,12494
21162,53286,12467
21129,53242,12418
21110,53218,12395
21114,53232,12408
21107,53233,12403
21078,53205,12372
21068,53197,12367
21083,53218,12395
21084,53220,12403
21067,53196,12382
21069,53192,12384
21088,53215,12411
21088,53215,12412
21069,53191,12388
21069,53193,12388
21085,53217,12406
21078,53212,12391
21056,53188,12357
21054,53193,12351
21061,53208,12352
21041,53183,12309
21002,53136,12244
20979,53114,12208
20966,53104,12186
20931,53064,12134
20888,53012,12068
20868,52987,12028
20849,52964,11986
20799,52904,11906
20740,52834,11816
20702,52795,11755
20666,52759,11695
20607,52695,11600
20549,52633,11509
20513,52600,11451
20472,52557,11386
20407,52478,11284
20351,52405,11189
20321,52367,11126
20284,52323,11051
20223,52252,10942
20169,52195,10846
20136,52167,10783
20096,52127,10706
20037,52058,10602
19989,52004,10518
19958,51976,10465
19912,51929,10392
19849,51855,10294
19798,51799,10221
19760,51766,10171
19704,51710,10090
19632,51631,9984
19584,51577,9904
19558,51548,9848
19515,51497,9766
19455,51429,9660
19414,51388,9584
19385,51366,9531
19338,51316,9452
19281,51250,9360
19248,51214,9299
19227,51196,9257
19185,51150,9191
19136,51092,9116
19109,51063,9074
19089,51044,9036
19046,50994,8962
19002,50941,8883
18984,50923,8841
18969,50912,8804
18930,50870,8736
18891,50832,8674
18885,50835,8662
18891,50856,8673
18891,50870,8680
18921,50914,8738
19011,51015,8885
19125,51138,9076
19239,51259,9281
19382,51416,9541
19568,51628,9873
19757,51843,10221
19930,52035,10552
20116,52246,10907
20328,52488,11291
20526,52711,11649
20695,52893,11961
20869,53080,12274
21053,53282,12590
21209,53451,12858
21330,53578,13073
21451,53708,13288
21569,53845,13502
21652,53938,13658
21706,53990,13763
21769,54052,13872
21835,54124,13979
21868,54157,14034
21872,54157,14049
21887,54169,14072
21905,54190,14092
21892,54178,14063
21861,54142,14016
21847,54125,14003
21838,54116,13997
21805,54077,13948
21766,54029,13881
21750,54013,13840
21742,54005,13801
21711,53962,13728
21675,53911,13646
21658,53888,13589
21634,53861,13523
21577,53795,13418
21515,53722,13310
21474,53675,13228
21431,53623,13135
21366,53540,13007
21305,53464,12888
21263,53420,12805
21212,53365,12712
21136,53279,12587
21068,53206,12476
21025,53164,12402
20971,53112,12321
20897,53037,12220
20838,52983,12146
20807,52961,12107
20771,52923,12056
20720,52860,11986
20690,52825,11948
20688,52824,11949
20675,52808,11934
20645,52774,11900
20633,52773,11897
20642,52798,11919
20638,52796,11913
20627,52774,11888
20642,52783,11895
20671,52812,11921
20677,52808,11912
20664,52782,11884
20666,52783,11888
20674,52797,11903
20657,52780,11880
20629,52751,11841
20618,52750,11830
20604,52750,11822
20561,52706,11771
20511,52643,11701
20484,52607,11655
20459,52577,11612
20410,52519,11535
20357,52462,11456
20324,52434,11407
20290,52404,11352
20233,52342,11262
20180,52279,11179
20151,52248,11128
20116,52211,11068
20053,52143,10970
19995,52084,10877
19958,52056,10811
19908,52012,10725
19829,51932,10604
19758,51865,10501
19709,51826,10433
19654,51771,10351
19583,51687,10241
19531,51625,10153
19502,51594,10096
19458,51549,10021
19394,51480,9920
19346,51432,9842
19313,51409,9786
19268,51366,9708
19215,51301,9610
19184,51258,9538
19161,51232,9485
19109,51176,9400
19039,51099,9294
18989,51049,9215
18949,51016,9148
18887,50953,9047
18815,50873,8934
18769,50825,8857
18735,50792,8794
18682,50731,8703
18627,50664,8608
18597,50633,8552
18577,50615,8508
18539,50572,8438
18497,50525,8369
18475,50508,8335
18452,50490,8298
18401,50437,8224
18346,50379,8143
18315,50350,8084
18284,50316,8015
18231,50252,7918
18187,50199,7843
18175,50190,7822
18172,50191,7820
18168,50189,7830
18198,50232,7906
18282,50340,8070
18389,50470,8274
18503,50601,8500
18652,50772,8785
18846,50992,9135
19046,51210,9490
19234,51407,9829
19440,51629,10192
19662,51873,10574
19854,52084,10916
20014,52253,11210
20179,52426,11505
20346,52604,11796
20478,52739,12031
20579,52838,12217
20683,52950,12406
20780,53066,12589
20835,53137,12713
20862,53173,12793
20902,53223,12881
20947,53275,12965
20962,53284,12998
20956,53270,13000
20962,53277,13014
20967,53285,13016
20939,53253,12966
20900,53207,12898
20878,53187,12855
20858,53170,12807
20811,53118,12719
20758,53058,12622
20721,53022,12552
20680,52980,12478
20614,52903,12367
20548,52824,12256
20502,52774,12169
20444,52712,12064
20353,52610,11916
20261,52508,11769
20190,52435,11646
20109,52350,11503
20005,52235,11329
19912,52135,11174
19850,52072,11056
19786,52001,10928
19708,51909,10781
19650,51843,10672
19621,51817,10613
19587,51784,10553
19537,51734,10481
19505,51709,10444
19497,51715,10441
19480,51706,10425
19457,51678,10393
19459,51678,10395
19477,51698,10420
19473,51691,10415
19451,51661,10388
19451,51659,10390
19467,51680,10414
19464,51680,10415
19450,51667,10408
19459,51683,10434
19476,51708,10469
19467,51697,10463
19447,51672,10438
19447,51675,10440
19449,51684,10441
19421,51655,10399
19384,51612,10343
19370,51598,10314
19358,51586,10284
19320,51540,10223
19277,51488,10162
19252,51462,10130
19224,51432,10089
19172,51373,10011
19126,51321,9939
19099,51300,9897
19060,51268,9841
18996,51201,9745
18940,51141,9655
18910,51110,9591
18872,51066,9514
18814,50992,9411
18767,50938,9331
18742,50916,9283
18703,50879,9217
18640,50812,9120
18591,50765,9045
18564,50744,8994
18521,50695,8915
18455,50614,8804
18406,50553,8717
18378,50516,8651
18328,50456,8554
18254,50376,8432
18197,50322,8342
18155,50287,8276
18092,50222,8178
18017,50137,8059
17968,50084,7973
17932,50049,7906
17872,49985,7807
17801,49907,7695
17758,49863,7620
17723,49833,7560
17663,49774,7468
17595,49708,7368
17556,49678,7304
17528,49658,7246
17477,49603,7154
17425,49541,7059
17398,49508,6998
17369,49474,6934
17311,49406,6840
17253,49341,6754
17221,49310,6707
17192,49284,6661
17153,49246,6602
17139,49239,6583
17172,49288,6638
17225,49358,6731
17290,49433,6847
17396,49555,7031
17549,49733,7299
17714,49919,7598
17877,50095,7902
18064,50299,8245
18272,50533,8627
18463,50748,8989
18633,50937,9320
18815,51144,9662
19009,51369,10013
19180,51562,10322
19327,51719,10587
19479,51884,10850
19629,52049,11104
19743,52166,11302
19827,52244,11455
19920,52333,11610
20013,52426,11757
20069,52480,11847
20098,52504,11898
20135,52541,11958
20167,52575,12007
20163,52567,12002
20145,52539,11969
20144,52536,11956
20143,52537,11939
20109,52502,11879
20063,52457,11804
20039,52436,11753
20016,52412,11694
19963,52349,11589
19905,52278,11473
19866,52235,11385
19818,52183,11284
19738,52087,11138
19652,51992,10992
19584,51926,10874
19507,51848,10740
19407,51730,10570
19319,51617,10412
19260,51537,10291
19193,51449,10161
19104,51338,10008
19033,51254,9884
18992,51212,9804
18945,51166,9718
18887,51101,9615
18853,51066,9550
18845,51067,9530
18827,51058,9499
18792,51032,9455
18775,51033,9449
18782,51057,9473
18779,51056,9473
18769,51037,9459
18785,51049,9482
18817,51084,9527
18823,51090,9542
18811,51075,9537
18818,51089,9566
18837,51122,9612
18834,51123,9623
18818,51108,9616
18821,51118,9634
18827,51134,9653
18808,51116,9630
18783,51086,9594
18778,51083,9586
18775,51083,9580
18749,51045,9536
18717,50999,9485
18706,50983,9462
18693,50966,9435
18656,50918,9372
18622,50874,9312
18607,50863,9281
18583,50846,9238
18534,50794,9158
18491,50745,9084
18469,50726,9039
18440,50699,8980
18389,50644,8887
18348,50601,8808
18329,50584,8760
18301,50554,8698
18253,50500,8606
18214,50460,8530
18187,50440,8478
18142,50396,8403
18075,50324,8301
18021,50269,8222
17983,50235,8169
17929,50181,8091
17862,50105,7984
17815,50054,7903
17784,50019,7843
17735,49956,7753
17674,49877,7641
17635,49828,7563
17614,49801,7510
17575,49753,7436
17529,49694,7352
17505,49664,7301
17487,49644,7261
17443,49592,7184
17389,49530,7092
17357,49499,7028
17330,49477,6971
17283,49425,6884
17233,49368,6794
17201,49340,6736
17165,49312,6676
17105,49252,6587
17054,49198,6510
17041,49186,6484
17044,49191,6483
17049,49192,6494
17084,49226,6565
17169,49324,6724
17276,49451,6928
17391,49583,7148
17537,49754,7428
17726,49981,7782
17918,50210,8151
18097,50414,8501
18293,50636,8871
18515,50887,9265
18720,51115,9627
18895,51302,9945
19076,51494,10265
19262,51693,10588
19414,51850,10857
19525,51959,11066
19635,52070,11265
19746,52190,11457
19823,52271,11595
19871,52318,11684
19928,52378,11778
19985,52444,11868
20007,52467,11903
20004,52459,11902
20014,52475,11914
20031,52501,11927
20019,52485,11897
19992,52444,11844
19982,52426,11816
19972,52414,11789
19932,52362,11716
19881,52296,11625
19848,52256,11555
19811,52217,11477
19743,52139,11356
19665,52049,11220
19604,51985,11106
19540,51919,10983
19450,51820,10823
19360,51720,10665
19293,51650,10538
19223,51576,10407
19134,51474,10250
19056,51385,10115
19006,51332,10025
18955,51278,9936
18892,51205,9828
18848,51152,9749
18836,51138,9713
18819,51118,9672
18788,51076,9611
18778,51063,9582
18795,51088,9594
18801,51097,9591
18788,51082,9567
18795,51092,9574
18824,51132,9618
18840,51149,9648
18841,51145,9659
18866,51169,9701
18906,51213,9766
18922,51225,9797
18920,51212,9800
18937,51221,9827
18965,51246,9868
18968,51242,9873
18953,51220,9855
18952,51226,9859
18956,51245,9871
18939,51232,9847
18919,51205,9807
18921,51206,9797
18925,51214,9793
18904,51189,9756
18876,51157,9712
18869,51153,9696
18863,51147,9676
18833,51103,9615
18800,51057,9553
18793,51046,9524
18781,51034,9489
18740,50988,9415
18704,50948,9346
18691,50939,9312
18668,50920,9264
18616,50865,9176
18571,50818,9097
18546,50800,9053
18509,50768,8998
18448,50701,8909
18400,50646,8835
18374,50621,8789
18335,50579,8722
18277,50509,8625
18235,50457,8544
18212,50432,8489
18175,50387,8412
18121,50321,8312
18083,50280,8239
18062,50265,8194
18023,50226,8125
17969,50165,8033
17937,50130,7969
17920,50114,7927
17880,50070,7857
17825,50007,7772
17792,49970,7714
17768,49943,7665
17718,49879,7578
17652,49801,7472
17605,49756,7395
17566,49721,7327
17503,49653,7226
17432,49577,7120
17388,49540,7054
17355,49518,7008
17311,49477,6953
17286,49455,6934
17317,49499,6998
17381,49581,7115
17453,49665,7253
17556,49788,7454
17709,49977,7742
17887,50189,8068
18066,50390,8398
18268,50612,8764
18502,50873,9176
18732,51128,9583
18936,51348,9959
19141,51570,10340
19357,51810,10735
19549,52023,11090
19709,52196,11389
19869,52366,11677
20031,52542,11958
20158,52678,12184
20245,52765,12346
20329,52850,12490
20417,52942,12628
20475,52995,12714
20501,53008,12752
20531,53029,12794
20562,53059,12838
20560,53054,12836
20537,53025,12802
20532,53025,12793
20538,53042,12795
20516,53023,12756
20472,52980,12691
20445,52960,12647
20431,52947,12608
20393,52897,12526
20336,52827,12423
20292,52783,12345
20251,52739,12267
20181,52656,12147
20106,52561,12014
20057,52498,11912
20012,52441,11810
19939,52354,11673
19863,52266,11536
19809,52212,11434
19761,52162,11336
19696,52084,11214
19640,52012,11107
19611,51980,11042
19581,51948,10978
19533,51889,10891
19498,51845,10827
19491,51839,10807
19481,51829,10786
19454,51798,10745
19443,51787,10732
19461,51813,10761
19469,51832,10780
19462,51826,10776
19473,51840,10798
19507,51885,10853
19527,51909,10884
19526,51903,10883
19538,51916,10899
19564,51952,10935
19571,51960,10942
19562,51939,10921
19571,51940,10923
19590,51959,10941
19583,51947,10925
19559,51913,10885
19556,51906,10871
19562,51917,10874
19543,51901,10847
19513,51868,10805
19507,51860,10791
19506,51857,10783
19477,51816,10736
19439,51763,10675
19423,51741,10642
19408,51727,10610
19364,51678,10540
19313,51618,10461
19282,51585,10414
19253,51552,10368
19204,51489,10285
19159,51432,10204
19143,51414,10160
19127,51394,10111
19087,51342,10025
19055,51300,9949
19043,51294,9909
19022,51280,9862
18973,51230,9786
18930,51188,9727
18910,51176,9699
18879,51146,9651
18824,51081,9564
18782,51029,9489
18763,51006,9444
18728,50967,9379
18670,50897,9284
18627,50845,9208
18603,50818,9158
18560,50768,9083
18500,50696,8983
18461,50654,8907
18439,50638,8853
18396,50597,8770
18337,50534,8667
18297,50501,8596
18266,50486,8547
18210,50439,8466
18146,50371,8368
18110,50331,8305
18086,50305,8258
18041,50248,8182
17990,50179,8103
17966,50147,8073
17961,50141,8072
17951,50125,8064
17959,50129,8086
18016,50199,8190
18104,50305,8348
18192,50409,8524
18300,50533,8746
18450,50709,9039
18614,50901,9359
18768,51077,9665
18937,51269,9991
19136,51496,10358
19332,51714,10715
19502,51894,11028
19671,52076,11338
19849,52281,11665
20002,52461,11962
20114,52596,12202
20226,52727,12421
20356,52871,12636
20463,52981,12801
20531,53040,12909
20594,53092,13012
20662,53150,13118
20702,53173,13177
20711,53158,13187
20724,53155,13201
20742,53171,13223
20731,53159,13208
20693,53118,13158
20667,53097,13122
20651,53091,13096
20612,53051,13031
20556,52985,12940
20516,52940,12873
20484,52907,12813
20424,52842,12715
20345,52758,12596
20285,52699,12502
20229,52646,12409
20148,52553,12269
20054,52442,12106
19979,52357,11968
19904,52276,11832
19808,52163,11664
19708,52048,11498
19632,51969,11375
19561,51898,11265
19473,51804,11134
19395,51719,11019
19349,51679,10951
19310,51650,10889
19256,51602,10805
19216,51567,10738
19207,51569,10711
19198,51568,10683
19173,51546,10636
19164,51540,10612
19182,51564,10628
19193,51572,10636
19183,51552,10622
19182,51549,10628
19202,51574,10663
19210,51583,10677
19201,51565,10664
19208,51565,10671
19233,51585,10701
19234,51578,10701
19213,51543,10673
19206,51529,10667
19212,51535,10680
19197,51516,10661
19163,51476,10614
19148,51461,10591
19142,51464,10585
19111,51436,10547
19067,51389,10488
19046,51371,10450
19035,51369,10421
19001,51335,10358
18954,51285,10279
18925,51262,10226
18896,51244,10178
18840,51190,10095
18779,51124,10002
18744,51083,9936
18716,51044,9873
18665,50974,9777
18611,50903,9682
18577,50865,9622
18539,50827,9558
18471,50753,9455
18403,50679,9352
18361,50637,9277
18317,50588,9190
18250,50510,9071
18189,50443,8966
18150,50408,8898
18102,50363,8820
18028,50287,8710
17965,50223,8614
17926,50190,8551
17879,50141,8475
17812,50065,8372
17762,50011,8293
17736,49989,8249
17694,49950,8185
17633,49882,8092
17592,49833,8021
17571,49809,7973
17530,49760,7902
17470,49688,7811
17430,49646,7750
17408,49633,7709
17362,49593,7637
17301,49532,7543
17264,49504,7483
17244,49497,7444
17204,49457,7376
17155,49401,7292
17131,49377,7242
17117,49366,7207
17082,49323,7138
17043,49272,7065
17038,49262,7039
17047,49276,7043
17045,49280,7047
17055,49300,7086
17110,49377,7201
17193,49486,7363
17282,49590,7540
17400,49717,7765
17564,49897,8063
17744,50090,8386
17913,50263,8697
18096,50449,9033
18303,50668,9413
18499,50882,9781
18664,51063,10107
18826,51244,10428
18998,51441,10758
19150,51611,11046
19269,51740,11272
19384,51868,11485
19503,52003,11695
19593,52104,11855
19651,52165,11963
19712,52233,12069
19778,52312,12176
19811,52352,12233
19812,52349,12241
19821,52355,12255
19836,52375,12275
19821,52354,12252
19780,52295,12192
19752,52259,12148
19735,52242,12113
19694,52194,12036
19634,52127,11934
19591,52088,11858
19557,52059,11792
19493,51992,11686
19417,51903,11560
19362,51842,11463
19313,51790,11373
19240,51705,11243
19160,51611,11104
19102,51549,10995
19048,51488,10886
18968,51390,10740
18886,51286,10594
18827,51218,10485
18769,51158,10379
18691,51073,10247
18619,51000,10134
18576,50968,10072
18535,50937,10018
18483,50882,9946
18450,50843,9896
18450,50845,9891
18447,50845,9883
18425,50823,9853
18421,50819,9847
18443,50847,9877
18455,50860,9895
18447,50843,9886
18450,50844,9893
18472,50874,9928
18476,50882,9940
18457,50861,9921
18454,50862,9921
18468,50886,9942
18463,50884,9934
18438,50858,9900
18432,50857,9893
18441,50878,9906
18425,50865,9885
18388,50820,9836
18372,50795,9809
18366,50787,9792
18337,50748,9742
18295,50693,9678
18273,50672,9646
18255,50662,9621
18206,50618,9556
18148,50563,9477
18116,50542,9431
18093,50528,9388
18046,50475,9304
17997,50414,9215
17977,50389,9161
17957,50367,9108
17906,50309,9017
17848,50245,8922
17813,50211,8859
17778,50173,8793
17720,50102,8693
17665,50039,8605
17635,50013,8556
17595,49978,8497
17524,49908,8395
17459,49848,8298
17425,49822,8236
17384,49786,8163
17319,49715,8062
17268,49655,7980
17245,49628,7931
17208,49585,7861
17145,49510,7758
17099,49453,7678
17079,49426,7629
17043,49382,7556
16986,49312,7457
16945,49269,7384
16921,49255,7338
16881,49217,7264
16826,49159,7167
16795,49128,7100
16779,49115,7056
16737,49070,6982
16680,49003,6891
16648,48963,6836
16631,48944,6801
16596,48904,6741
16557,48862,6680
16550,48866,6671
16561,48895,6695
16559,48908,6715
16572,48936,6764
16634,49022,6888
16726,49135,7061
16813,49231,7240
16916,49338,7448
17061,49494,7720
17220,49667,8016
17363,49820,8293
17513,49983,8584
17691,50184,8916
17863,50375,9239
18005,50524,9514
18149,50675,9781
18312,50853,10064
18458,51009,10310
18566,51116,10491
18667,51217,10660
18777,51335,10839
18860,51423,10974
18901,51464,11048
18936,51504,11112
18978,51559,11178
18996,51582,11194
18981,51561,11158
18968,51545,11130
18966,51545,11119
18939,51515,11076
18888,51455,11001
18854,51418,10944
18838,51401,10905
18801,51357,10834
18748,51289,10739
18712,51249,10669
18686,51224,10609
18630,51166,10512
18557,51088,10395
18503,51036,10306
18458,50991,10220
18386,50909,10092
18299,50810,9945
18234,50738,9828
18178,50675,9717
18103,50582,9573
18027,50490,9432
17983,50443,9339
17947,50403,9261
17888,50332,9158
17837,50267,9069
17821,50247,9031
17812,50236,9005
17784,50201,8958
17764,50178,8929
17774,50194,8945
17786,50206,8960
17778,50189,8947
17779,50184,8951
17809,50215,8997
17832,50238,9033
17834,50231,9038
17850,50240,9061
17888,50281,9118
17911,50308,9160
17909,50308,9169
17919,50325,9194
17946,50367,9240
17954,50385,9256
17940,50373,9239
17942,50378,9241
17958,50404,9260
17947,50400,9244
17914,50368,9200
17899,50359,9178
17899,50369,9172
17878,50344,9131
17843,50296,9067
17831,50276,9032
17827,50270,9007
17789,50228,8941
17735,50166,8855
17706,50136,8804
17688,50119,8763
17646,50068,8687
17594,50004,8602
17568,49974,8555
17546,49953,8514
17498,49899,8437
17447,49841,8354
17424,49820,8307
17407,49804,8263
17370,49756,8188
17337,49711,8120
17329,49702,8090
17317,49690,8052
17278,49643,7981
17245,49607,7920
17236,49605,7890
17213,49590,7845
17159,49542,7765
17111,49504,7696
17086,49492,7655
17051,49461,7592
16993,49395,7494
16948,49345,7414
16924,49322,7365
16884,49276,7294
16822,49199,7191
16779,49144,7115
16763,49122,7074
16734,49083,7014
16687,49025,6935
16662,49001,6889
16660,49004,6870
16639,48983,6825
16603,48945,6768
16596,48945,6757
16613,48977,6789
16619,48991,6817
16631,49004,6862
16691,49072,6979
16786,49182,7153
16881,49288,7335
16988,49405,7549
17140,49579,7839
17319,49782,8168
17488,49964,8478
17660,50146,8794
17862,50365,9150
18068,50588,9509
18244,50772,9825
18411,50948,10126
18594,51147,10443
18762,51325,10734
18887,51449,10959
18998,51560,11160
19119,51690,11367
19215,51794,11531
19265,51843,11629
19309,51884,11709
19367,51943,11797
19400,51974,11846
19390,51958,11838
19381,51947,11829
19388,51959,11836
19375,51946,11809
19333,51895,11738
19303,51859,11680
19292,51850,11646
19266,51820,11588
19219,51761,11501
19190,51724,11436
19179,51710,11392
19150,51669,11318
19105,51605,11216
19079,51568,11138
19063,51550,11075
19019,51497,10975
18953,51422,10851
18904,51375,10758
18865,51342,10681
18799,51272,10569
18721,51187,10443
18671,51139,10356
18637,51105,10285
18583,51037,10185
18527,50964,10086
18505,50936,10037
18495,50925,10008
18465,50888,9953
18436,50855,9906
18439,50861,9905
18451,50873,9912
18447,50858,9886
18453,50856,9872
18491,50895,9910
18526,50927,9952
18535,50925,9959
18546,50934,9976
18576,50977,10033
18594,51006,10076
18582,50994,10080
18576,50990,10094
18591,51013,10134
18592,51019,10148
18571,50995,10123
18563,50988,10111
18579,51010,10125
18580,51009,10115
18558,50979,10076
18548,50968,10054
18557,50980,10050
18547,50965,10012
18517,50922,9945
18503,50902,9905
18505,50904,9890
18479,50876,9846
18431,50823,9777
18403,50800,9731
18389,50797,9699
18349,50759,9631
18295,50700,9551
18269,50673,9508
18253,50659,9478
18206,50609,9410
18149,50543,9329
18119,50512,9282
18099,50492,9243
18058,50440,9163
18013,50379,9073
17995,50355,9025
17980,50337,8984
17938,50284,8906
17894,50229,8825
17875,50207,8780
17855,50185,8734
17811,50133,8655
17769,50083,8582
17750,50063,8542
17723,50035,8497
17670,49975,8422
17625,49927,8359
17602,49913,8327
17570,49890,8279
17517,49835,8199
17476,49793,8136
17457,49782,8102
17426,49754,8050
17378,49698,7969
17349,49661,7909
17342,49652,7880
17317,49622,7831
17274,49571,7762
17256,49553,7732
17271,49575,7745
17280,49589,7752
17285,49597,7763
17328,49653,7836
17406,49748,7965
17478,49828,8097
17554,49907,8249
17675,50044,8471
17829,50223,8747
17971,50382,9021
18111,50533,9303
18287,50724,9634
18482,50937,9987
18658,51121,10305
18831,51297,10608
19029,51504,10937
19224,51710,11257
19378,51868,11519
19510,52004,11748
19648,52156,11980
19769,52293,12179
19848,52378,12314
19910,52444,12426
19982,52523,12546
20037,52580,12630
20051,52587,12652
20055,52588,12662
20071,52608,12686
20070,52608,12685
20037,52569,12638
20012,52539,12599
20010,52539,12588
19994,52524,12556
19952,52473,12488
19922,52436,12436
19916,52427,12412
19898,52399,12362
19858,52343,12279
19830,52308,12213
19815,52295,12162
19777,52249,12075
19714,52168,11954
19663,52105,11853
19624,52062,11770
19561,51990,11655
19481,51897,11519
19426,51833,11420
19386,51793,11344
19324,51728,11242
19256,51651,11132
19221,51608,11066
19202,51587,11024
19166,51541,10959
19125,51489,10893
19112,51478,10873
19108,51482,10868
19082,51457,10830
19056,51429,10792
19063,51442,10802
19079,51465,10823
19071,51456,10812
19062,51445,10802
19081,51466,10827
19097,51484,10851
19082,51465,10838
19068,51451,10828
19083,51475,10854
19096,51492,10871
19083,51473,10850
19075,51461,10838
19090,51482,10857
19092,51491,10859
19065,51465,10823
19046,51450,10798
19048,51465,10799
19035,51457,10774
18995,51412,10712
18968,51381,10667
18960,51376,10647
18932,51344,10595
18879,51278,10508
18843,51232,10443
18827,51215,10403
18791,51172,10332
18732,51099,10235
18689,51053,10167
18663,51030,10120
18617,50979,10039
18559,50911,9938
18525,50875,9872
18502,50858,9827
18450,50808,9746
18383,50739,9645
18342,50703,9578
18316,50686,9527
18268,50639,9445
18217,50580,9355
18194,50557,9304
18178,50540,9257
18134,50485,9170
18086,50421,9079
18065,50394,9030
18047,50371,8983
18004,50313,8900
17962,50254,8822
17949,50235,8789
17933,50218,8756
17892,50171,8690
17853,50132,8634
17837,50127,8613
17814,50113,8580
17764,50067,8511
17723,50031,8455
17705,50024,8433
17677,50003,8391
17626,49946,8310
17588,49902,8243
17573,49887,8210
17546,49855,8159
17501,49797,8079
17474,49759,8027
17467,49750,8007
17445,49724,7964
17408,49679,7898
17396,49660,7866
17407,49672,7871
17407,49673,7866
17404,49670,7861
17439,49716,7916
17505,49805,8030
17567,49889,8158
17639,49978,8314
17761,50119,8545
17917,50296,8831
18067,50461,9120
18226,50628,9426
18424,50839,9788
18639,51069,10173
18831,51271,10524
19017,51464,10862
19227,51687,11226
19435,51907,11577
19602,52080,11869
19749,52234,12132
19903,52407,12402
20040,52561,12640
20133,52663,12810
20212,52748,12953
20301,52844,13097
20370,52913,13201
20399,52932,13241
20421,52949,13272
20457,52989,13321
20477,53009,13343
20463,52989,13316
20452,52973,13294
20462,52981,13295
20459,52968,13272
20432,52927,13219
20415,52909,13187
20418,52921,13184
20406,52913,13157
20378,52877,13099
20367,52861,13059
20373,52867,13037
20357,52845,12981
20318,52795,12895
20289,52763,12824
20264,52744,12763
20208,52688,12664
20130,52604,12539
20070,52541,12439
20026,52492,12357
19962,52408,12245
19890,52310,12123
19839,52243,12037
19793,52190,11963
19719,52107,11858
19644,52025,11754
19604,51991,11695
19581,51975,11651
19540,51932,11575
19499,51889,11501
19488,51883,11472
19485,51883,11455
19461,51854,11411
19440,51828,11374
19447,51840,11382
19451,51851,11389
19430,51829,11362
19418,51815,11350
19433,51836,11374
19438,51847,11387
19419,51827,11367
19404,51818,11359
19405,51840,11379
19394,51845,11379
19364,51815,11339
19346,51795,11311
19347,51799,11309
19327,51778,11280
19280,51721,11215
19245,51678,11161
19226,51658,11125
19187,51612,11059
19129,51540,10964
19091,51494,10898
19072,51472,10853
19030,51419,10771
18964,51341,10662
18915,51291,10585
18881,51263,10531
18823,51203,10443
18749,51121,10333
18697,51067,10253
18659,51027,10187
18597,50957,10088
18528,50878,9978
18486,50835,9904
18453,50804,9843
18396,50742,9751
18331,50676,9654
18292,50647,9592
18260,50623,9536
18204,50563,9446
18147,50501,9355
18115,50472,9300
18083,50442,9243
18023,50378,9151
17965,50317,9065
17933,50291,9019
17898,50260,8967
17839,50193,8879
17794,50133,8803
17779,50110,8766
17758,50082,8718
17709,50026,8635
17671,49984,8571
17657,49973,8544
17634,49948,8502
17593,49902,8430
17562,49878,8376
17550,49881,8353
17522,49861,8310
17475,49813,8242
17446,49789,8199
17438,49793,8184
17418,49776,8144
17381,49734,8086
17362,49717,8058
