green_channel,red_channel,ir_channel
48922,53808,43683
48903,53794,43650
48881,53779,43617
48858,53761,43582
48831,53738,43544
48804,53715,43506
48779,53694,43468
48760,53678,43431
48743,53667,43395
48724,53658,43356
48705,53649,43314
48688,53637,43272
48668,53623,43231
48647,53607,43192
48625,53587,43153
48599,53563,43110
48570,53537,43065
48539,53510,43020
48510,53484,42977
48480,53458,42933
48447,53429,42887
48411,53399,42839
48379,53372,42790
48349,53346,42743
48322,53319,42698
48296,53293,42655
48276,53271,42616
48261,53254,42578
48247,53240,42540
48234,53230,42506
48225,53224,42481
48222,53222,42471
48226,53226,42476
48240,53243,42502
48271,53275,42554
48321,53326,42641
48396,53399,42771
48507,53501,42959
48656,53638,43217
48845,53815,43545
49072,54025,43938
49337,54267,44388
49639,54538,44890
49968,54831,45432
50309,55135,45996
50653,55444,46559
50992,55747,47106
51314,56034,47623
51612,56302,48099
51884,56544,48528
52124,56759,48909
52331,56946,49243
52506,57106,49527
52656,57241,49762
52778,57350,49951
52868,57436,50096
52932,57496,50201
52975,57534,50272
52998,57556,50314
53002,57562,50334
52993,57552,50329
52972,57529,50305
52939,57498,50266
52897,57458,50212
52847,57411,50142
52796,57358,50060
52743,57298,49967
52689,57235,49868
52632,57171,49765
52574,57109,49659
52511,57047,49550
52438,56982,49434
52358,56912,49312
52276,56840,49188
52191,56764,49058
52097,56684,48920
51996,56600,48770
51891,56511,48606
51782,56416,48431
51672,56317,48252
51564,56218,48076
51462,56124,47907
51365,56035,47744
51276,55954,47590
51198,55883,47450
51132,55821,47328
51080,55769,47229
51041,55726,47152
51014,55696,47095
51001,55679,47060
50999,55675,47048
51008,55681,47059
51029,55699,47093
51061,55730,47147
51103,55773,47221
51151,55822,47310
51205,55876,47407
51264,55933,47509
51325,55993,47618
51389,56052,47729
51453,56110,47841
51515,56165,47950
51571,56214,48052
51622,56256,48142
51669,56291,48214
51707,56320,48267
51731,56342,48303
51741,56352,48321
51742,56352,48324
51733,56341,48312
51715,56323,48284
51689,56299,48243
51659,56271,48190
51621,56238,48124
51574,56197,48045
51523,56149,47954
51472,56096,47856
51415,56037,47752
51349,55971,47644
51277,55904,47533
51200,55835,47416
51117,55765,47295
51031,55695,47171
50948,55628,47041
50871,55563,46909
50794,55500,46778
50714,55435,46649
50637,55371,46521
50562,55306,46396
50489,55244,46274
50418,55186,46158
50350,55132,46047
50286,55078,45941
50226,55025,45840
50171,54974,45742
50121,54927,45650
50077,54886,45567
50039,54850,45488
50004,54815,45411
49973,54781,45339
49943,54751,45275
49914,54722,45220
49887,54693,45166
49864,54665,45115
49844,54640,45066
49821,54617,45018
49796,54594,44973
49772,54571,44930
49747,54548,44889
49719,54523,44847
49687,54495,44803
49658,54465,44760
49630,54437,44722
49603,54415,44684
49580,54398,44646
49565,54386,44613
49554,54378,44583
49545,54370,44555
49540,54364,44528
49536,54360,44502
49529,54358,44478
49519,54354,44458
49507,54347,44437
49495,54337,44418
49478,54323,44399
49455,54305,44379
49429,54285,44356
49403,54263,44331
49377,54241,44303
49351,54218,44275
49326,54197,44248
49305,54178,44218
49285,54160,44183
49264,54141,44147
49247,54124,44111
49235,54110,44075
49224,54098,44039
49212,54089,44006
49204,54081,43974
49195,54077,43947
49184,54071,43922
49172,54063,43900
49159,54052,43874
49142,54040,43844
49120,54027,43810
49096,54015,43775
49073,54003,43740
49050,53987,43705
49028,53968,43670
49004,53946,43633
48978,53922,43594
48949,53894,43551
48917,53861,43506
48887,53827,43460
48861,53798,43416
48836,53773,43375
48811,53751,43333
48789,53731,43289
48771,53711,43246
48758,53691,43205
48743,53669,43161
48726,53647,43113
48704,53628,43067
48679,53612,43025
48653,53594,42985
48628,53576,42945
48604,53558,42904
48577,53539,42863
48545,53516,42819
48511,53490,42768
48478,53463,42713
48441,53432,42659
48403,53398,42605
48369,53369,42553
48340,53346,42509
48319,53331,42483
48309,53327,42478
48319,53342,42500
48355,53379,42561
48424,53441,42671
48530,53534,42840
48681,53667,43078
48878,53840,43397
49118,54053,43797
49398,54304,44270
49717,54589,44806
50062,54901,45391
50421,55228,46004
50783,55558,46623
51141,55882,47226
51484,56194,47800
51804,56488,48335
52095,56757,48821
52359,56996,49252
52594,57207,49627
52794,57386,49943
52963,57534,50204
53107,57657,50420
53225,57757,50597
53318,57834,50734
53388,57888,50834
53436,57923,50903
53462,57942,50945
53470,57949,50962
53465,57943,50957
53450,57926,50936
53430,57900,50902
53404,57868,50858
53370,57833,50805
53329,57797,50746
53283,57758,50680
53229,57714,50606
53170,57663,50526
53108,57605,50439
53043,57545,50350
52975,57486,50258
52911,57429,50164
52852,57374,50068
52793,57315,49971
52732,57251,49870
52669,57183,49763
52605,57116,49651
52535,57051,49532
52459,56985,49408
52381,56919,49280
52299,56851,49151
52215,56782,49024
52133,56714,48898
52055,56647,48775
51981,56582,48661
51911,56524,48562
51853,56476,48478
51811,56440,48411
51785,56415,48363
51769,56399,48332
51761,56389,48318
51761,56384,48321
51770,56388,48340
51786,56401,48374
51813,56422,48423
51851,56449,48484
51897,56483,48559
51946,56522,48643
51998,56567,48731
52051,56615,48818
52107,56667,48903
52163,56717,48984
52218,56762,49056
52269,56801,49121
52314,56835,49178
52349,56862,49223
52370,56882,49255
52381,56896,49274
52380,56905,49280
52370,56906,49273
52354,56897,49251
52334,56881,49216
52305,56857,49169
52267,56825,49108
52223,56783,49035
52172,56734,48951
52113,56678,48859
52045,56619,48760
51975,56557,48656
51906,56494,48547
51833,56427,48431
51755,56356,48308
51676,56284,48180
51595,56213,48052
51512,56141,47923
51431,56068,47789
51354,55995,47651
51278,55924,47514
51202,55855,47381
51127,55787,47251
51055,55723,47126
50987,55662,47009
50919,55603,46899
50854,55546,46795
50795,55491,46695
50739,55439,46600
50687,55390,46511
50641,55345,46425
50598,55306,46342
50554,55270,46262
50509,55234,46186
50466,55197,46115
50425,55162,46047
50382,55126,45982
50337,55090,45919
50295,55055,45856
50257,55025,45797
50219,54999,45743
50182,54976,45696
50149,54951,45650
50118,54921,45601
50086,54889,45550
50055,54857,45498
50029,54828,45445
50007,54802,45392
49982,54775,45339
49953,54746,45285
49924,54718,45234
49895,54694,45188
49864,54673,45146
49835,54654,45108
49810,54636,45070
49786,54619,45032
49761,54598,44992
49735,54574,44948
49711,54551,44903
49688,54532,44859
49664,54516,44815
49638,54498,44771
49609,54475,44725
49577,54445,44678
49540,54411,44628
49502,54374,44574
49465,54338,44520
49427,54304,44467
49386,54271,44416
49345,54239,44363
49308,54209,44311
49274,54183,44262
49240,54161,44214
49211,54137,44165
49187,54113,44117
49166,54087,44073
49146,54060,44032
49130,54036,43990
49118,54014,43948
49105,53993,43908
49089,53972,43868
49070,53950,43823
49051,53927,43775
49028,53904,43728
48999,53879,43679
48966,53853,43628
48930,53825,43576
48891,53794,43523
48852,53763,43467
48814,53733,43405
48777,53703,43344
48739,53669,43284
48700,53632,43220
48662,53593,43152
48626,53551,43086
48587,53507,43021
48547,53464,42956
48510,53425,42893
48476,53392,42831
48440,53360,42770
48401,53328,42707
48364,53299,42642
48330,53270,42580
48297,53240,42524
48268,53212,42472
48243,53187,42427
48221,53167,42390
48200,53153,42363
48188,53147,42353
48190,53151,42365
48208,53171,42408
48246,53210,42486
48312,53278,42610
48410,53378,42791
48543,53510,43039
48717,53677,43359
48937,53881,43749
49203,54124,44208
49505,54399,44727
49833,54695,45288
50179,55006,45871
50529,55323,46457
50870,55634,47025
51193,55929,47559
51494,56202,48050
51771,56449,48493
52021,56670,48888
52238,56859,49232
52423,57017,49522
52578,57150,49760
52704,57260,49950
52803,57345,50096
52877,57409,50203
52930,57455,50279
52963,57485,50328
52977,57497,50350
52976,57492,50348
52965,57475,50327
52942,57447,50289
52903,57410,50233
52852,57365,50160
52791,57311,50074
52720,57251,49976
52642,57186,49868
52561,57118,49754
52480,57046,49635
52398,56971,49513
52314,56893,49386
52232,56811,49257
52148,56729,49125
52059,56644,48984
51964,56557,48832
51865,56467,48674
51763,56376,48512
51659,56284,48346
51557,56191,48175
51458,56100,48003
51360,56010,47835
51263,55925,47677
51170,55846,47529
51085,55772,47390
51008,55704,47262
50942,55646,47150
50889,55600,47056
50850,55566,46984
50821,55537,46934
50802,55513,46906
50796,55503,46899
50802,55509,46909
50820,55528,46938
50850,55558,46985
50893,55598,47049
50949,55650,47130
51008,55709,47222
51067,55769,47321
51128,55824,47422
51189,55878,47522
51248,55932,47623
51303,55981,47720
51354,56025,47807
51400,56060,47882
51435,56086,47945
51460,56105,47992
51473,56117,48023
51477,56121,48037
51472,56116,48033
51459,56102,48013
51439,56079,47976
51411,56047,47922
51372,56008,47855
51324,55964,47777
51274,55916,47689
51219,55865,47592
51159,55811,47489
51096,55753,47379
51031,55692,47264
50963,55630,47146
50890,55564,47027
50815,55493,46905
50741,55423,46782
50669,55356,46658
50594,55290,46532
50517,55224,46408
50443,55155,46289
50372,55086,46177
50302,55019,46067
50238,54957,45960
50178,54900,45856
50119,54846,45755
50061,54794,45655
50004,54742,45554
49949,54692,45455
49894,54647,45359
49839,54609,45268
49788,54574,45183
49742,54541,45105
49700,54507,45034
49663,54474,44968
49633,54442,44905
49607,54412,44846
49581,54383,44788
49551,54355,44733
49519,54327,44682
49486,54301,44636
49452,54277,44596
49421,54256,44558
49398,54238,44524
49377,54222,44494
49358,54206,44467
49340,54190,44440
49326,54176,44415
49315,54162,44391
49302,54151,44368
49290,54143,44345
49280,54134,44321
49269,54125,44295
49253,54115,44268
49237,54101,44240
49222,54085,44213
49205,54068,44189
49185,54049,44166
49163,54030,44142
49145,54013,44114
49130,53999,44083
49120,53989,44054
49111,53978,44026
49104,53968,44003
49098,53960,43982
49089,53953,43963
49081,53947,43943
49075,53943,43922
49071,53938,43903
49065,53934,43884
49058,53932,43865
49047,53929,43845
49034,53921,43821
49020,53907,43797
49009,53892,43773
48998,53876,43748
48982,53857,43719
48960,53833,43686
48935,53807,43650
48909,53782,43612
48880,53755,43572
48852,53731,43529
48827,53711,43483
48804,53693,43436
48779,53671,43389
48753,53647,43341
48731,53625,43290
48714,53606,43238
48695,53589,43188
48676,53573,43140
48660,53558,43095
48645,53542,43052
48628,53526,43012
48613,53511,42975
48601,53498,42942
48591,53488,42918
48587,53485,42911
48593,53492,42923
48613,53512,42958
48652,53549,43026
48711,53607,43137
48803,53691,43298
48934,53808,43523
49107,53963,43817
49323,54157,44184
49585,54388,44621
49886,54655,45118
50219,54950,45662
50570,55265,46234
50927,55588,46814
51282,55910,47381
51624,56222,47921
51943,56512,48426
52236,56778,48887
52500,57017,49300
52731,57226,49661
52929,57404,49971
53093,57550,50230
53225,57666,50442
53326,57757,50609
53401,57826,50732
53456,57873,50814
53490,57899,50864
53503,57909,50887
53500,57905,50889
53487,57891,50873
53465,57868,50845
53432,57839,50806
53390,57803,50752
53344,57760,50686
53294,57714,50608
53238,57664,50520
53181,57611,50426
53127,57561,50329
53072,57512,50229
53014,57458,50122
52952,57397,50007
52889,57330,49885
52820,57260,49755
52741,57182,49613
52652,57098,49456
52555,57008,49287
52452,56913,49114
52342,56814,48935
52231,56712,48752
52125,56615,48571
52025,56524,48400
51930,56438,48241
51842,56359,48098
51766,56290,47974
51700,56230,47868
51645,56179,47782
51606,56141,47717
51584,56116,47677
51576,56106,47663
51578,56109,47672
51595,56124,47703
51626,56154,47758
51667,56195,47834
51718,56244,47928
51779,56303,48037
51851,56369,48155
51926,56437,48279
52001,56505,48405
52074,56570,48528
52147,56632,48645
52215,56688,48750
52275,56736,48843
52329,56776,48923
52374,56810,48989
52406,56838,49038
52427,56860,49068
52442,56874,49081
52450,56879,49079
52446,56870,49062
52431,56852,49031
52407,56825,48985
52373,56791,48925
52329,56750,48851
52278,56703,48768
52223,56651,48677
52162,56597,48579
52092,56540,48474
52018,56479,48358
51943,56415,48236
51865,56347,48113
51785,56278,47989
51707,56207,47861
51632,56137,47729
51558,56067,47597
51483,56000,47466
51411,55935,47341
51343,55873,47223
51273,55813,47108
51203,55754,46999
51137,55694,46895
51075,55635,46794
51016,55577,46696
50959,55523,46603
50906,55476,46513
50857,55435,46427
50810,55396,46346
50760,55356,46266
50712,55318,46187
50669,55281,46109
50629,55244,46032
50592,55209,45955
50558,55176,45881
50526,55144,45813
50491,55111,45750
50455,55080,45691
50422,55051,45637
50393,55026,45586
50365,55002,45537
50339,54978,45489
50315,54956,45441
50291,54935,45395
50264,54913,45352
50237,54891,45314
50213,54867,45278
50191,54845,45244
50168,54822,45211
50146,54800,45179
50128,54781,45150
50113,54766,45123
50097,54752,45097
50079,54738,45070
50063,54724,45041
50046,54710,45009
50025,54694,44978
50005,54678,44948
49991,54667,44919
49982,54658,44894
49972,54648,44871
49963,54638,44850
49956,54627,44829
49948,54614,44807
49937,54601,44779
49927,54591,44749
49918,54583,44719
49907,54574,44689
49896,54561,44657
49884,54547,44622
49870,54528,44585
49850,54506,44549
49826,54480,44509
49798,54453,44465
49768,54425,44419
49732,54397,44371
49695,54368,44317
49659,54340,44261
49627,54314,44205
49592,54286,44153
49556,54255,44100
49521,54223,44046
49488,54194,43992
49455,54168,43941
49423,54145,43891
49392,54123,43842
49359,54100,43792
49328,54077,43744
49305,54058,43707
49295,54046,43689
49298,54045,43695
49315,54062,43733
49357,54103,43817
49436,54173,43957
49553,54280,44165
49710,54424,44448
49914,54611,44811
50166,54841,45250
50461,55109,45754
50791,55409,46305
51146,55730,46887
51516,56061,47483
51887,56389,48071
52243,56705,48633
52576,57003,49160
52883,57279,49643
53158,57527,50077
53395,57742,50456
53599,57924,50779
53771,58075,51049
53909,58196,51270
54020,58293,51449
54110,58371,51590
54178,58431,51699
54222,58472,51778
54249,58497,51826
54264,58507,51850
54271,58504,51855
54267,58491,51844
54252,58470,51820
54231,58443,51783
54203,58411,51734
54165,58374,51674
54121,58334,51606
54072,58293,51534
54021,58252,51458
53968,58210,51379
53914,58166,51299
53858,58119,51214
53797,58070,51125
53731,58017,51030
53666,57962,50932
53602,57899,50829
53534,57827,50717
53459,57748,50593
53380,57663,50458
53298,57575,50314
53210,57487,50168
53118,57400,50020
53027,57317,49875
52943,57242,49738
52865,57176,49612
52795,57120,49499
52737,57073,49404
52691,57037,49326
52656,57013,49268
52629,56996,49230
52615,56986,49211
52613,56983,49210
52621,56987,49226
52637,56998,49259
52667,57017,49307
52708,57046,49369
52753,57084,49443
52798,57127,49523
52847,57176,49607
52900,57230,49697
52954,57286,49788
53007,57342,49875
53060,57396,49955
53109,57444,50029
53147,57481,50093
53177,57511,50145
53202,57534,50186
53222,57549,50214
53233,57554,50229
53236,57547,50230
53230,57531,50219
53215,57510,50195
53186,57484,50158
53149,57454,50107
53110,57423,50047
53066,57388,49978
53016,57346,49899
52963,57298,49813
52906,57241,49718
52845,57177,49613
52779,57109,49496
52708,57042,49375
52632,56974,49251
52552,56906,49126
52468,56836,48995
52383,56762,48861
52299,56688,48730
52213,56614,48604
52127,56541,48480
52044,56471,48355
51964,56403,48230
51887,56336,48106
51811,56268,47983
51739,56200,47861
51675,56137,47741
51615,56076,47624
51559,56016,47513
51507,55958,47412
51459,55907,47317
51414,55863,47228
51368,55823,47141
51322,55785,47060
51280,55751,46989
51240,55720,46926
51204,55689,46868
51174,55659,46814
51147,55631,46762
51121,55607,46713
51096,55585,46668
51070,55565,46629
51039,55544,46589
51005,55521,46547
50971,55496,46503
50940,55469,46454
50910,55444,46405
50883,55423,46358
50859,55404,46314
50839,55387,46275
50818,55372,46237
50795,55355,46197
50772,55332,46160
50752,55308,46123
50732,55285,46083
50712,55263,46041
50690,55241,46000
50667,55219,45961
50645,55200,45923
50620,55181,45884
50596,55159,45847
50572,55135,45812
50550,55111,45779
50527,55089,45747
50507,55070,45715
50491,55053,45684
50478,55038,45651
50464,55025,45616
50449,55012,45579
50433,54997,45540
50411,54978,45500
50387,54959,45457
50360,54939,45411
50331,54916,45363
50298,54889,45310
50263,54861,45256
50230,54831,45203
50198,54802,45150
50164,54772,45095
50127,54739,45039
50090,54703,44980
50055,54668,44918
50019,54632,44853
49987,54599,44787
49959,54571,44725
49929,54546,44666
49894,54522,44610
49854,54495,44556
49814,54468,44502
49776,54441,44449
49742,54414,44396
49713,54389,44346
49693,54369,44307
49679,54357,44285
49677,54353,44287
49694,54363,44318
49735,54394,44390
49802,54453,44516
49903,54547,44705
50050,54678,44962
50248,54852,45298
50494,55070,45713
50782,55327,46196
51108,55618,46733
51462,55936,47307
51825,56267,47898
52187,56598,48484
52541,56921,49051
52881,57230,49587
53192,57515,50081
53468,57774,50524
53710,58000,50913
53921,58192,51248
54102,58352,51529
54255,58485,51762
54382,58594,51953
54485,58682,52106
54564,58750,52222
54623,58801,52304
54666,58835,52359
54689,58850,52391
54693,58848,52400
54683,58835,52389
54663,58813,52363
54634,58782,52321
54592,58742,52265
54543,58694,52196
54489,58643,52119
54432,58588,52041
54372,58530,51960
54314,58476,51878
54258,58424,51796
54204,58371,51712
54152,58317,51626
54097,58261,51537
54036,58200,51443
53967,58135,51341
53892,58068,51229
53812,57996,51105
53728,57918,50969
53639,57837,50828
53547,57758,50685
53457,57680,50542
53370,57603,50399
53284,57526,50262
53201,57450,50133
53124,57379,50014
53058,57318,49908
53003,57271,49819
52963,57235,49749
52939,57210,49698
52930,57194,49666
52928,57186,49656
52933,57190,49667
52947,57206,49695
52971,57229,49741
53005,57261,49802
53046,57299,49874
53093,57345,49955
53146,57396,50041
53197,57449,50133
53249,57502,50225
53302,57554,50315
53353,57601,50397
53394,57639,50468
53425,57669,50526
53451,57692,50568
53469,57705,50597
53478,57710,50611
53477,57707,50611
53471,57699,50599
53459,57685,50576
53440,57667,50545
53414,57644,50505
53381,57615,50453
53337,57579,50390
53284,57536,50317
53227,57486,50232
53167,57430,50136
53103,57367,50031
53034,57297,49916
52961,57223,49794
52884,57147,49669
52807,57073,49542
52727,57002,49412
52647,56931,49279
52567,56857,49143
52484,56781,49004
52395,56701,48860
52307,56623,48712
52219,56549,48567
52130,56479,48427
52044,56412,48291
51966,56347,48159
51895,56285,48034
51827,56225,47917
51763,56167,47804
51705,56112,47694
51648,56060,47590
51588,56009,47489
51528,55958,47390
51473,55908,47295
51418,55860,47205
51360,55812,47119
51304,55761,47035
51257,55713,46958
51218,55667,46885
51182,55625,46814
51148,55587,46745
51118,55554,46682
51090,55522,46623
51059,55492,46567
51029,55467,46517
50999,55443,46471
50968,55419,46429
50935,55395,46388
50903,55370,46344
50871,55347,46298
50838,55323,46252
50802,55300,46206
50771,55280,46161
50747,55263,46118
50726,55247,46078
50706,55230,46041
50688,55210,46008
50672,55190,45973
50655,55168,45933
50635,55144,45887
50612,55117,45837
50583,55089,45785
50548,55057,45734
50510,55024,45681
50476,54992,45626
50444,54961,45571
50415,54934,45518
50384,54909,45469
50352,54886,45422
50319,54862,45375
50283,54835,45325
50245,54803,45270
50207,54770,45214
50173,54741,45161
50138,54713,45109
50104,54685,45058
50073,54658,45007
50045,54634,44959
50018,54609,44914
49993,54586,44870
49973,54566,44825
49956,54548,44780
49940,54534,44737
49925,54520,44696
49910,54509,44654
49894,54499,44615
49878,54490,44575
49862,54476,44533
49844,54460,44488
49824,54443,44444
49802,54427,44403
49781,54414,44363
49763,54403,44325
49747,54394,44290
49731,54385,44258
49717,54376,44226
49706,54366,44196
49697,54357,44166
49689,54347,44133
49683,54337,44100
49674,54329,44067
49662,54323,44036
49651,54317,44005
49645,54311,43978
49643,54308,43958
49647,54311,43953
49662,54326,43972
49701,54359,44026
49772,54419,44124
49884,54511,44276
50042,54643,44495
50252,54817,44792
50508,55032,45170
50802,55283,45628
51129,55567,46157
51485,55879,46736
51861,56212,47344
52245,56553,47961
52626,56892,48571
52996,57219,49159
53344,57528,49710
53660,57814,50214
53946,58072,50665
54202,58302,51061
54423,58500,51401
54609,58666,51689
54764,58802,51927
54889,58914,52117
54984,59002,52266
55052,59067,52375
55097,59110,52450
55120,59134,52499
55122,59139,52527
55108,59127,52535
55082,59102,52525
55051,59069,52497
55014,59032,52457
54971,58992,52407
54927,58950,52348
54883,58908,52283
54836,58863,52211
54786,58814,52136
54733,58766,52056
54679,58717,51967
54621,58663,51867
54559,58601,51757
54491,58531,51637
54414,58453,51507
54323,58367,51366
54221,58274,51212
54113,58174,51045
54001,58067,50868
53886,57957,50688
53772,57850,50510
53666,57749,50336
53566,57656,50171
53473,57570,50018
53390,57492,49882
53321,57425,49768
53263,57370,49675
53216,57326,49603
53186,57295,49550
53173,57278,49522
53176,57276,49521
53191,57289,49543
53219,57313,49586
53263,57349,49650
53318,57398,49730
53379,57457,49821
53447,57523,49921
53524,57593,50032
53606,57665,50150
53693,57739,50269
53781,57815,50387
53870,57892,50499
53950,57963,50600
54017,58025,50691
54074,58077,50768
54122,58124,50832
54157,58160,50880
54182,58184,50914
54198,58196,50932
54204,58200,50932
54197,58199,50916
54178,58190,50884
54150,58172,50837
54117,58145,50779
54075,58108,50712
54025,58063,50635
53971,58011,50549
53914,57955,50454
53851,57896,50347
53784,57832,50231
53715,57767,50111
53646,57706,49994
53574,57647,49878
53501,57586,49761
53429,57526,49641
53357,57466,49521
53284,57405,49403
53213,57344,49287
53147,57286,49175
53086,57230,49067
53027,57174,48959
52971,57119,48854
52918,57071,48757
52866,57027,48666
52814,56981,48578
52764,56937,48494
52715,56897,48413
52667,56859,48337
52620,56824,48268
52573,56788,48204
52531,56752,48142
52491,56716,48084
52453,56682,48030
52418,56650,47976
52387,56622,47925
52358,56598,47877
52326,56576,47832
52297,56555,47792
52272,56535,47755
52249,56515,47717
52226,56496,47678
52207,56481,47639
52196,56469,47604
52188,56458,47574
52181,56447,47546
52174,56438,47518
52166,56428,47486
52156,56414,47452
52147,56398,47417
52137,56381,47385
52125,56367,47358
52110,56359,47336
52097,56356,47318
52089,56355,47308
52086,56356,47303
52086,56361,47300
52091,56372,47299
52104,56391,47303
52124,56415,47313
52148,56442,47328
52179,56468,47344
52217,56494,47365
52258,56522,47392
52296,56550,47420
52330,56574,47449
52361,56594,47476
52388,56610,47502
52410,56622,47521
52427,56631,47531
52439,56636,47532
52443,56635,47524
52442,56631,47508
52436,56622,47480
52425,56611,47442
52408,56596,47398
52385,56577,47349
52361,56554,47297
52332,56528,47241
52293,56496,47181
52244,56455,47114
52190,56410,47040
52135,56362,46962
52081,56312,46883
52031,56263,46806
51986,56220,46732
51946,56182,46665
51912,56150,46612
51890,56129,46582
51888,56125,46587
51913,56148,46640
51970,56203,46750
52064,56295,46926
52203,56429,47173
52385,56603,47490
52604,56810,47871
52854,57045,48303
53130,57297,48769
53421,57561,49256
53716,57828,49748
54006,58091,50233
54285,58346,50700
54547,58589,51139
54787,58816,51543
55005,59020,51904
55200,59198,52221
55369,59351,52495
55509,59478,52729
55625,59583,52927
55722,59669,53087
55802,59736,53210
55861,59785,53301
55899,59814,53366
55917,59826,53406
55917,59818,53421
55901,59795,53415
55873,59761,53389
55833,59719,53346
55780,59669,53289
55714,59610,53218
55639,59543,53134
55558,59470,53038
55472,59394,52933
55384,59316,52824
55297,59238,52713
55212,59160,52595
55124,59081,52472
55035,59000,52347
54950,58919,52222
54867,58840,52096
54781,58761,51968
54691,58680,51834
54600,58598,51695
54506,58514,51549
54407,58425,51397
54305,58334,51240
54205,58244,51083
54110,58155,50929
54014,58066,50780
53918,57979,50639
53828,57896,50509
53746,57819,50394
53674,57752,50298
53617,57698,50220
53579,57657,50161
53556,57631,50128
53543,57620,50116
53542,57620,50122
53552,57631,50144
53572,57648,50180
53595,57669,50226
53622,57695,50278
53655,57725,50334
53690,57758,50393
53724,57789,50451
53757,57817,50508
53787,57842,50562
53810,57862,50611
53824,57874,50650
53832,57880,50677
53837,57881,50692
53838,57879,50697
53835,57874,50693
53829,57865,50678
53819,57853,50655
53802,57839,50622
53780,57824,50584
53753,57807,50540
53716,57783,50487
53664,57748,50422
53599,57700,50338
53527,57642,50239
53453,57580,50130
53378,57516,50015
53301,57450,49896
53221,57384,49773
53138,57318,49646
53048,57248,49513
52956,57177,49376
52863,57104,49240
52774,57030,49103
52686,56954,48966
52598,56874,48828
52510,56793,48693
52426,56711,48564
52342,56632,48441
52262,56558,48322
52189,56488,48203
52121,56423,48088
52056,56362,47977
51996,56305,47870
51943,56253,47772
51894,56208,47686
51847,56168,47613
51805,56134,47547
51768,56104,47483
51734,56078,47420
51699,56055,47357
51663,56032,47294
51629,56007,47231
51596,55982,47172
51565,55956,47119
51539,55932,47070
51517,55912,47027
51495,55891,46987
51470,55868,46946
51444,55846,46905
51421,55827,46866
51398,55809,46828
51376,55789,46788
51357,55768,46747
51341,55748,46710
51322,55731,46678
51302,55715,46647
51285,55700,46616
51270,55684,46585
51253,55668,46554
51234,55651,46525
51219,55635,46498
51206,55619,46472
51189,55601,46449
51170,55584,46422
51150,55570,46394
51133,55557,46365
51114,55545,46338
51095,55534,46313
51076,55523,46286
51056,55510,46257
51038,55495,46229
51022,55479,46201
51008,55461,46170
50992,55439,46136
50972,55411,46098
50948,55379,46056
50921,55344,46012
50891,55310,45966
50857,55276,45916
50824,55244,45859
50793,55215,45799
50761,55188,45736
50725,55162,45670
50689,55132,45603
50652,55100,45534
50610,55066,45466
50568,55034,45400
50531,55006,45336
50501,54981,45276
50471,54955,45221
50442,54932,45175
50419,54914,45142
50402,54904,45126
50395,54904,45134
50409,54919,45176
50454,54958,45265
50533,55027,45413
50650,55130,45627
50810,55273,45912
51016,55457,46265
51262,55679,46681
51541,55932,47154
51845,56208,47670
52163,56498,48210
52486,56796,48754
52801,57086,49284
53101,57360,49787
53384,57616,50253
53646,57852,50678
53878,58063,51056
54079,58248,51381
54252,58411,51659
54403,58552,51896
54529,58668,52090
54631,58758,52242
54712,58828,52360
54775,58876,52446
54815,58903,52504
54833,58912,52533
54831,58909,52538
54812,58895,52523
54778,58870,52490
54738,58837,52443
54696,58798,52385
54653,58756,52317
54606,58710,52243
54558,58659,52165
54511,58607,52083
54461,58553,51997
54405,58496,51907
54347,58438,51814
54287,58383,51717
54220,58329,51612
54144,58271,51497
54063,58207,51370
53978,58137,51236
53888,58060,51095
53795,57979,50946
53702,57897,50790
53612,57813,50630
53521,57728,50468
53432,57644,50309
53349,57563,50155
53271,57487,50010
53199,57417,49878
53134,57358,49765
53083,57310,49674
53047,57275,49606
53022,57253,49558
53010,57240,49531
53010,57233,49525
53019,57233,49539
53033,57242,49569
53056,57266,49613
53092,57301,49671
53141,57346,49747
53201,57400,49839
53270,57460,49942
53343,57525,50054
53415,57593,50173
53482,57655,50289
53546,57715,50396
53606,57773,50495
53659,57827,50582
53704,57874,50656
53743,57912,50717
53778,57944,50767
53804,57965,50801
53818,57977,50820
53824,57981,50825
53825,57981,50818
53817,57975,50799
53797,57961,50761
53763,57933,50705
53718,57895,50634
53661,57847,50550
53594,57789,50452
53519,57722,50343
53440,57648,50223
53354,57569,50097
53263,57484,49965
53170,57395,49824
53075,57305,49676
52977,57215,49521
52880,57126,49363
52789,57041,49207
52702,56959,49055
52618,56884,48906
52534,56815,48762
52455,56750,48627
52378,56688,48497
52303,56625,48373
52234,56562,48252
52169,56503,48138
52104,56447,48033
52038,56393,47932
51972,56341,47833
51911,56292,47735
51855,56246,47640
51800,56202,47548
51750,56161,47461
51707,56124,47381
51665,56086,47305
51621,56043,47231
51578,56001,47157
51535,55962,47083
51490,55925,47011
51444,55886,46943
51402,55848,46879
51364,55811,46820
51332,55779,46766
51300,55750,46714
51270,55724,46665
51243,55699,46617
51218,55674,46572
51192,55652,46529
51167,55633,46491
51145,55617,46456
51123,55601,46420
51101,55584,46385
51081,55568,46351
51062,55553,46317
51043,55536,46282
51021,55516,46248
50997,55496,46212
50972,55476,46177
50948,55457,46143
50924,55436,46108
50904,55417,46073
50885,55400,46038
50865,55383,46003
50848,55367,45971
50837,55353,45941
50829,55338,45913
50818,55323,45883
50807,55308,45852
50798,55292,45817
50789,55276,45781
50775,55260,45742
50758,55244,45701
50742,55227,45658
50725,55209,45614
50704,55192,45571
50678,55174,45528
50650,55156,45488
50620,55139,45451
50590,55122,45413
50561,55104,45372
50531,55086,45330
50502,55065,45289
50473,55040,45247
50447,55014,45205
50425,54991,45164
50406,54973,45126
50390,54957,45096
50379,54948,45077
50381,54949,45078
50398,54963,45110
50436,54998,45179
50505,55061,45294
50610,55157,45468
50752,55289,45709
50934,55460,46021
51157,55668,46402
51418,55909,46849
51709,56180,47349
52020,56471,47887
52344,56774,48446
52674,57081,49008
52999,57381,49558
53310,57667,50077
53603,57934,50557
53873,58179,50993
54117,58399,51381
54336,58592,51718
54527,58757,52007
54689,58893,52254
54825,59009,52465
54939,59108,52639
55033,59193,52778
55108,59260,52885
55167,59310,52963
55209,59345,53016
55239,59369,53046
55258,59384,53058
55266,59390,53056
55264,59384,53041
55251,59370,53012
55229,59350,52969
55198,59323,52913
55162,59292,52849
55123,59260,52781
55083,59227,52710
55040,59188,52634
54998,59142,52553
54956,59091,52467
54906,59036,52374
54845,58979,52272
54775,58917,52156
54698,58849,52029
54616,58777,51894
54528,58700,51751
54437,58618,51600
54344,58530,51445
54250,58440,51289
54157,58356,51139
54072,58282,51004
54000,58216,50886
53939,58159,50785
53890,58114,50704
53859,58088,50645
53844,58082,50612
53843,58092,50607
53858,58112,50628
53890,58141,50674
53935,58177,50739
53985,58218,50820
54041,58264,50911
54104,58317,51010
54168,58374,51115
54231,58432,51224
54291,58491,51335
54346,58546,51445
54396,58595,51550
54440,58639,51643
54480,58676,51720
54519,58709,51785
54553,58738,51837
54579,58760,51875
54598,58773,51897
54609,58780,51901
54609,58780,51891
54596,58771,51866
54574,58753,51824
54543,58722,51765
54505,58682,51693
54460,58635,51612
54410,58585,51523
54355,58533,51426
54295,58479,51322
54229,58421,51213
54161,58362,51104
54091,58302,50993
54020,58242,50881
53950,58184,50768
53883,58126,50654
53817,58068,50541
53753,58010,50430
53689,57954,50320
53626,57901,50211
53564,57850,50102
53503,57799,49993
53446,57750,49887
53393,57704,49786
53343,57657,49689
53291,57608,49592
53238,57559,49495
53189,57512,49403
53141,57465,49319
53092,57419,49239
53044,57375,49161
52997,57333,49088
52952,57296,49016
52906,57261,48944
52865,57230,48874
52827,57200,48809
52791,57171,48748
52753,57141,48688
52717,57112,48629
52681,57084,48571
52642,57056,48517
52603,57026,48468
52570,56996,48419
52543,56966,48369
52518,56939,48320
52497,56914,48274
52480,56893,48231
52464,56876,48191
52451,56862,48155
52439,56850,48120
52426,56836,48085
52407,56819,48047
52383,56798,48007
52354,56774,47966
52326,56748,47928
52299,56724,47891
52272,56704,47856
52244,56685,47820
52216,56664,47780
52189,56644,47738
52159,56622,47697
52131,56598,47655
52106,56575,47609
52084,56555,47560
52061,56534,47509
52039,56512,47457
52020,56492,47409
51999,56471,47366
51970,56448,47324
51937,56423,47278
51907,56395,47228
51878,56367,47174
51849,56336,47114
51820,56303,47051
51791,56270,46985
51757,56236,46917
51719,56202,46849
51681,56169,46783
51645,56136,46722
51607,56103,46663
51566,56070,46601
51528,56039,46540
51497,56016,46485
51473,56001,46445
51458,55991,46422
51456,55989,46419
51475,56003,46445
51514,56040,46516
51581,56101,46640
51684,56192,46825
51828,56323,47083
52013,56497,47418
52239,56709,47827
52508,56955,48298
52806,57227,48814
53121,57515,49356
53442,57811,49905
53766,58106,50448
54083,58391,50972
54385,58659,51464
54665,58909,51916
54920,59139,52324
55147,59344,52686
55342,59521,52998
55506,59671,53258
55641,59794,53471
55749,59891,53642
55832,59965,53775
55894,60021,53876
55939,60061,53950
55965,60085,53997
55975,60095,54021
55974,60090,54025
55966,60071,54012
55948,60042,53984
55918,60005,53939
55881,59965,53881
55841,59923,53813
55796,59877,53738
55746,59827,53657
55691,59774,53571
55635,59717,53483
55576,59659,53398
55513,59603,53309
55449,59544,53213
55387,59485,53112
55324,59425,53006
55255,59363,52893
55182,59300,52774
55109,59234,52650
55031,59162,52520
54948,59085,52385
54862,59006,52246
54777,58926,52107
54691,58847,51968
54608,58771,51836
54531,58701,51713
54464,58638,51603
54406,58582,51510
54358,58536,51434
54324,58501,51377
54301,58477,51343
54287,58462,51328
54285,58460,51329
54297,58472,51347
54319,58497,51382
54348,58530,51432
54383,58568,51498
54426,58610,51575
54475,58658,51660
54524,58708,51752
54574,58759,51843
54624,58809,51930
54672,58858,52014
54717,58903,52092
54760,58942,52158
54800,58975,52213
54832,59000,52259
54854,59016,52291
54869,59026,52310
54875,59028,52313
54866,59022,52303
54849,59009,52279
54826,58988,52244
54796,58960,52200
54758,58925,52145
54711,58883,52076
54661,58835,51997
54610,58784,51911
54555,58729,51818
54497,58669,51715
54435,58609,51605
54369,58552,51492
54301,58493,51379
54231,58428,51264
54161,58358,51145
54093,58288,51023
54020,58219,50898
53945,58148,50770
53870,58078,50641
53796,58011,50514
53720,57945,50391
53645,57880,50272
53576,57818,50157
53515,57758,50048
53455,57699,49942
53394,57641,49838
53333,57586,49737
53273,57534,49640
53213,57481,49547
53155,57428,49454
53103,57379,49366
53055,57332,49282
53006,57287,49198
52960,57245,49114
52918,57207,49037
52881,57173,48970
52845,57141,48909
52812,57111,48851
52783,57084,48795
52756,57059,48742
52726,57034,48690
52697,57011,48638
52670,56989,48589
52644,56968,48541
52620,56949,48495
52598,56933,48452
52580,56918,48413
52560,56902,48375
52538,56886,48339
52519,56867,48304
52501,56845,48273
52481,56821,48242
52458,56797,48210
52438,56773,48177
52423,56752,48142
52406,56732,48107
52386,56713,48070
52367,56695,48033
52350,56679,47997
52333,56665,47964
52312,56653,47934
52292,56640,47906
52272,56627,47878
52250,56614,47850
52227,56597,47821
52204,56576,47790
52180,56551,47754
52155,56525,47711
52129,56500,47662
52102,56474,47608
52074,56447,47551
52045,56419,47493
52013,56390,47434
51978,56360,47375
51940,56330,47315
51898,56297,47251
51854,56262,47180
51813,56224,47103
51769,56186,47025
51724,56150,46947
51679,56116,46873
51638,56080,46802
51599,56042,46734
51561,56005,46671
51528,55972,46617
51502,55947,46578
51484,55931,46556
51477,55926,46557
51489,55937,46590
51528,55974,46668
51604,56043,46803
51720,56149,47007
51880,56294,47286
52084,56482,47643
52329,56711,48072
52612,56976,48561
52926,57267,49092
53258,57572,49646
53597,57881,50205
53931,58183,50751
54252,58473,51270
54552,58745,51755
54823,58995,52196
55065,59218,52589
55280,59415,52936
55469,59586,53236
55628,59730,53488
55759,59847,53699
55866,59940,53871
55948,60014,54006
56010,60069,54106
56056,60105,54175
56087,60124,54221
56104,60131,54247
56106,60126,54253
56097,60113,54240
56082,60094,54208
56058,60070,54161
56021,60038,54100
55977,59998,54031
55929,59952,53957
55877,59904,53880
55821,59854,53803
55764,59803,53723
55709,59754,53639
55652,59703,53552
55588,59648,53458
55521,59588,53355
55449,59525,53242
55369,59458,53120
55285,59387,52988
55198,59311,52850
55106,59229,52707
55009,59140,52558
54908,59044,52403
54806,58947,52246
54709,58855,52093
54618,58771,51949
54537,58695,51815
54468,58629,51694
54410,58572,51591
54359,58520,51508
54317,58476,51444
54288,58441,51397
54274,58422,51372
54272,58417,51368
54281,58424,51386
54302,58440,51423
54336,58465,51475
54377,58500,51540
54425,58546,51615
54480,58599,51697
54539,58653,51781
54593,58706,51862
54640,58756,51939
54682,58801,52012
54718,58838,52076
54742,58863,52124
54755,58876,52155
54756,58880,52173
54749,58877,52179
54735,58866,52171
54716,58848,52149
54692,58822,52115
54662,58792,52070
54624,58758,52012
54580,58721,51941
54530,58680,51859
54474,58632,51767
54411,58576,51664
54341,58511,51550
54265,58442,51429
54182,58373,51300
54091,58299,51166
54001,58221,51029
53913,58142,50890
53822,58059,50751
53731,57973,50607
53643,57887,50460
53557,57803,50315
53471,57720,50172
53386,57639,50030
53307,57564,49887
53233,57492,49746
53162,57423,49611
53091,57356,49481
53021,57292,49358
52952,57230,49240
52882,57168,49125
52811,57107,49010
52742,57048,48899
52676,56990,48791
52611,56932,48685
52548,56877,48577
52489,56825,48473
52431,56776,48373
52374,56725,48276
52319,56672,48182
52265,56621,48095
52209,56574,48015
52154,56530,47937
52104,56491,47859
52058,56457,47784
52013,56424,47716
51971,56390,47654
51933,56355,47593
51899,56320,47532
51863,56286,47473
51824,56251,47413
51785,56216,47349
51749,56177,47285
51715,56137,47229
51682,56102,47182
51649,56073,47139
51621,56050,47095
51596,56031,47051
51572,56014,47007
51550,55996,46964
51531,55980,46924
51511,55961,46886
51488,55938,46845
51465,55915,46801
51443,55894,46757
51418,55872,46715
51389,55846,46676
51361,55820,46637
51333,55795,46599
51302,55771,46562
51273,55748,46524
51249,55727,46486
51230,55709,46448
51210,55689,46408
51190,55667,46365
51169,55643,46321
51145,55616,46277
51113,55584,46230
51077,55550,46178
51038,55516,46122
50998,55480,46064
50956,55442,46006
50914,55404,45946
50872,55367,45882
50830,55330,45814
50787,55292,45745
50744,55255,45675
50703,55219,45608
50661,55183,45541
50618,55145,45470
50576,55105,45396
50533,55063,45320
50489,55021,45244
50447,54981,45169
50408,54944,45094
50375,54911,45024
50341,54880,44958
50307,54850,44895
50275,54822,44834
50246,54796,44779
50217,54775,44734
50193,54759,44698
50181,54748,44674
50180,54746,44666
50189,54756,44682
50215,54782,44728
50263,54831,44815
50343,54910,44957
50461,55024,45167
50623,55176,45457
50833,55371,45831
51088,55608,46286
51379,55877,46805
51695,56168,47369
52027,56476,47957
52365,56792,48553
52701,57107,49140
53030,57413,49707
53347,57705,50245
53646,57983,50743
53919,58239,51189
54164,58467,51582
54378,58662,51923
54561,58829,52213
54710,58968,52456
54831,59079,52654
54926,59163,52807
54999,59224,52921
55047,59265,53001
55076,59289,53051
55089,59298,53076
55088,59294,53081
55074,59279,53065
55051,59256,53030
55018,59226,52979
54971,59184,52918
54914,59131,52843
54852,59074,52754
54788,59016,52657
54720,58957,52551
54646,58896,52436
54568,58831,52316
54488,58762,52190
54398,58686,52056
54301,58602,51910
54204,58514,51751
54106,58420,51583
54004,58322,51410
53900,58222,51235
53797,58123,51058
53695,58024,50879
53592,57927,50697
53492,57832,50521
53400,57746,50357
53319,57672,50212
53248,57612,50089
53190,57564,49989
53150,57531,49914
53129,57515,49865
53123,57517,49844
53132,57534,49849
53156,57565,49881
53195,57607,49938
53244,57654,50021
53301,57704,50126
53366,57757,50242
53437,57810,50363
53511,57865,50485
53588,57927,50608
53664,57995,50735
53739,58065,50861
53806,58129,50984
53866,58187,51098
53919,58237,51198
53964,58278,51281
53998,58308,51344
54024,58331,51389
54045,58348,51419
54060,58360,51434
54068,58365,51433
54068,58363,51417
54063,58354,51389
54050,58337,51346
54028,58310,51291
54001,58272,51225
53964,58231,51148
53915,58185,51063
53855,58132,50970
53791,58074,50872
53724,58013,50765
53652,57949,50647
53578,57879,50524
53510,57808,50397
53441,57737,50269
53363,57665,50139
53281,57593,50008
53201,57521,49876
53124,57452,49747
53050,57385,49621
52978,57317,49502
52913,57253,49391
52852,57195,49288
52794,57144,49190
52740,57097,49093
52690,57053,49000
52640,57009,48912
52590,56964,48827
52542,56920,48745
52497,56879,48668
52454,56844,48597
52414,56814,48532
52377,56786,48467
52341,56757,48405
52304,56725,48345
52265,56692,48287
52230,56661,48229
52200,56631,48169
52172,56603,48111
52146,56577,48057
52122,56553,48008
52102,56532,47963
52084,56513,47920
52065,56494,47876
52048,56477,47835
52036,56465,47802
52028,56452,47777
52019,56439,47754
52008,56426,47729
51993,56414,47703
51973,56399,47676
51952,56385,47648
51932,56371,47620
51914,56356,47591
51896,56338,47560
51877,56320,47529
51858,56304,47501
51841,56291,47474
51821,56277,47445
51801,56260,47415
51782,56241,47383
51761,56222,47348
51738,56201,47310
51714,56179,47269
51691,56158,47225
51667,56134,47183
51639,56109,47143
51608,56084,47101
51583,56060,47057
51559,56037,47013
51536,56014,46972
51511,55991,46929
51485,55965,46882
51456,55936,46829
51424,55906,46771
51391,55877,46715
51358,55852,46660
51322,55827,46608
51285,55800,46554
51250,55770,46495
51215,55736,46433
51176,55700,46372
51134,55662,46311
51093,55624,46249
51053,55584,46187
51011,55547,46125
50972,55515,46067
50939,55489,46015
50915,55470,45973
50900,55461,45945
50900,55466,45934
50918,55484,45949
50959,55518,45998
51025,55576,46095
51122,55667,46252
51260,55791,46478
51440,55954,46779
51661,56156,47156
51922,56398,47605
52221,56676,48118
52548,56980,48678
52890,57298,49264
53239,57620,49856
53586,57940,50437
53921,58246,50993
54233,58527,51511
54520,58783,51980
54776,59013,52395
55000,59216,52759
55193,59387,53070
55357,59530,53331
55497,59649,53546
55613,59746,53721
55703,59820,53857
55769,59871,53960
55816,59904,54035
55845,59921,54085
55860,59928,54112
55864,59929,54116
55861,59924,54100
55847,59911,54070
55825,59890,54028
55798,59861,53972
55768,59826,53905
55728,59788,53830
55680,59744,53748
55626,59694,53659
55568,59639,53568
55506,59580,53474
55444,59521,53373
55379,59460,53265
55309,59394,53147
55231,59322,53019
55144,59240,52881
55051,59149,52734
54957,59053,52579
54857,58955,52419
54752,58854,52254
54644,58755,52091
54539,58657,51934
54439,58565,51786
54351,58482,51648
54276,58412,51524
54212,58353,51417
54160,58306,51329
54123,58271,51261
54102,58251,51216
54096,58243,51195
54104,58246,51199
54127,58263,51227
54167,58296,51278
54216,58343,51347
54271,58397,51435
54330,58456,51538
54395,58519,51649
54461,58581,51766
54524,58639,51884
54587,58696,51998
54650,58752,52105
54708,58804,52203
54759,58851,52291
54804,58893,52368
54844,58929,52434
54878,58957,52487
54904,58975,52523
54925,58988,52545
54938,58995,52553
54941,58994,52545
54934,58987,52521
54924,58974,52483
54906,58954,52435
54877,58923,52374
54834,58882,52298
54783,58836,52209
54727,58786,52113
54664,58731,52014
54595,58671,51911
54527,58611,51807
54460,58549,51705
54391,58484,51604
54321,58416,51501
54253,58351,51397
54185,58289,51290
54116,58230,51178
54044,58171,51057
53973,58112,50932
53905,58053,50809
53837,57989,50687
53774,57922,50567
53717,57860,50451
53662,57804,50341
53602,57756,50237
53543,57711,50140
53486,57666,50050
53429,57621,49968
53373,57573,49887
53321,57526,49807
53274,57482,49729
53231,57440,49656
53190,57402,49588
53154,57369,49520
53120,57340,49451
53086,57309,49383
53051,57276,49316
53018,57243,49254
52989,57212,49199
52963,57184,49148
52938,57157,49101
52916,57131,49055
52896,57105,49013
52879,57082,48975
52861,57060,48937
52842,57041,48897
52819,57026,48858
52794,57013,48819
52768,57000,48781
52748,56985,48744
52730,56972,48710
52711,56959,48680
52691,56946,48650
52672,56930,48621
52655,56915,48594
52639,56899,48569
52626,56881,48545
52617,56862,48523
52607,56846,48501
52595,56832,48478
52586,56821,48454
52581,56813,48429
52576,56805,48401
52569,56795,48370
52559,56783,48336
52546,56772,48300
52530,56759,48263
52507,56745,48223
52481,56729,48179
52452,56710,48135
52417,56688,48089
52377,56660,48040
52338,56629,47987
52303,56598,47932
52269,56570,47878
52233,56540,47820
52195,56510,47759
52157,56477,47696
52118,56442,47631
52081,56407,47564
52047,56374,47497
52016,56340,47429
51987,56308,47358
51957,56275,47287
51929,56242,47215
51904,56211,47148
51877,56181,47085
51847,56151,47021
51817,56122,46960
51789,56096,46907
51760,56074,46864
51740,56063,46840
51737,56069,46844
51758,56098,46888
51804,56150,46983
51885,56230,47139
52011,56348,47370
52186,56508,47684
52407,56714,48081
52675,56965,48556
52986,57254,49098
53330,57570,49682
53692,57900,50287
54060,58237,50892
54424,58570,51480
54776,58889,52037
55103,59182,52555
55399,59446,53026
55663,59680,53445
55893,59887,53812
56090,60065,54131
56256,60215,54403
56395,60340,54632
56506,60442,54820
56591,60524,54968
56655,60587,55082
56704,60633,55166
56738,60662,55223
56759,60677,55257
56769,60677,55270
56772,60667,55264
56766,60648,55239
56751,60621,55201
56732,60588,55152
56705,60552,55094
56672,60517,55030
56633,60480,54963
56592,60438,54891
56549,60393,54815
56499,60346,54735
56444,60295,54649
56390,60242,54558
56337,60193,54468
56281,60144,54376
56221,60092,54277
56156,60035,54169
56083,59973,54052
56000,59902,53925
55913,59820,53789
55826,59734,53652
55740,59651,53518
55656,59573,53387
55577,59501,53259
55505,59434,53138
55439,59372,53032
55381,59318,52942
55332,59274,52868
55298,59242,52814
55277,59224,52779
55267,59218,52762
55269,59224,52764
55282,59238,52786
55306,59258,52826
55339,59282,52881
55384,59314,52949
55439,59356,53032
55498,59404,53124
55556,59456,53218
55616,59512,53311
55676,59569,53403
55731,59623,53490
55780,59671,53568
55822,59710,53635
55858,59744,53691
55884,59771,53734
55899,59790,53765
55906,59800,53783
55909,59804,53788
55904,59798,53780
55892,59783,53758
55874,59760,53725
55850,59730,53679
55817,59693,53622
55776,59650,53556
55732,59602,53485
55685,59550,53413
55633,59497,53337
55574,59445,53253
55513,59394,53162
55450,59342,53065
55381,59285,52960
55308,59221,52848
55235,59155,52728
55163,59087,52602
55086,59017,52470
55006,58945,52335
54928,58873,52202
54850,58800,52071
54771,58726,51941
54688,58651,51809
54607,58576,51677
54527,58502,51544
54449,58429,51414
54376,58360,51288
54308,58296,51168
54243,58236,51057
54180,58179,50952
54123,58129,50853
54071,58085,50760
54023,58045,50673
53974,58009,50590
53930,57976,50511
53889,57944,50434
53844,57908,50360
53794,57865,50285
53743,57819,50208
53691,57773,50131
53637,57729,50052
53583,57688,49974
53535,57648,49896
53493,57608,49822
53453,57568,49753
53416,57530,49689
53382,57497,49630
53346,57465,49573
53306,57431,49514
53265,57394,49453
53226,57354,49389
53187,57314,49323
53144,57273,49257
53104,57232,49192
53068,57192,49127
53030,57155,49064
52988,57119,49003
52946,57082,48944
52907,57045,48888
52870,57011,48832
52834,56979,48773
52797,56948,48710
52760,56915,48648
52723,56879,48584
52684,56840,48521
52643,56801,48457
52603,56765,48391
52560,56731,48322
52516,56697,48250
52474,56662,48179
52435,56625,48110
52397,56586,48039
52355,56545,47965
52311,56503,47890
52263,56459,47814
52213,56412,47737
52158,56362,47659
52099,56310,47580
52039,56255,47501
51979,56201,47422
51916,56148,47340
51856,56095,47257
51797,56043,47174
51737,55992,47090
51679,55943,47004
51626,55897,46916
51573,55850,46830
51516,55802,46748
51456,55753,46666
51397,55704,46584
51342,55656,46503
51288,55611,46423
51235,55568,46342
51185,55524,46262
51140,55479,46182
51096,55434,46103
51051,55392,46024
51007,55354,45946
50966,55318,45869
50931,55283,45796
50898,55251,45728
50866,55222,45667
50833,55195,45612
50800,55167,45564
50771,55139,45523
50749,55117,45493
50735,55104,45479
50736,55107,45490
50762,55136,45542
50820,55196,45653
50914,55291,45831
51046,55423,46083
51224,55597,46413
51450,55814,46822
51722,56072,47309
52035,56364,47861
52383,56683,48462
52752,57020,49091
53129,57362,49726
53502,57700,50349
53861,58025,50941
54196,58333,51494
54503,58619,52001
54779,58878,52452
55023,59106,52847
55234,59302,53188
55411,59463,53471
55554,59589,53696
55665,59686,53869
55746,59758,53999
55799,59807,54091
55828,59831,54149
55838,59835,54176
55834,59826,54176
55817,59807,54154
55790,59778,54113
55754,59744,54058
55710,59703,53989
55657,59653,53909
55597,59596,53818
55532,59533,53719
55461,59464,53614
55382,59392,53503
55297,59322,53387
55212,59253,53262
55125,59181,53130
55038,59106,52992
54952,59024,52844
54862,58936,52686
54766,58841,52520
54663,58742,52346
54557,58642,52166
54451,58542,51984
54344,58443,51804
54236,58344,51626
54133,58248,51452
54040,58158,51291
53958,58075,51147
53886,58001,51021
53826,57939,50912
53776,57889,50823
53735,57853,50755
53705,57833,50712
53691,57831,50693
53694,57845,50701
53715,57871,50733
53753,57907,50790
53806,57956,50871
53873,58016,50975
53949,58084,51097
54032,58158,51232
54121,58237,51375
54215,58322,51524
54306,58409,51673
54392,58494,51821
54475,58574,51963
54552,58646,52093
54619,58707,52202
54676,58755,52288
54722,58792,52353
54756,58824,52403
54780,58845,52436
54797,58854,52453
54808,58853,52453
54809,58845,52438
54800,58832,52412
54783,58813,52375
54761,58789,52326
54731,58758,52266
54691,58721,52196
54643,58680,52115
54589,58634,52022
54530,58582,51918
54467,58524,51808
54404,58464,51696
54343,58404,51583
54279,58344,51470
54209,58281,51355
54140,58216,51240
54075,58153,51126
54012,58091,51015
53948,58032,50903
53881,57974,50790
53814,57918,50678
53745,57862,50572
53678,57806,50470
53617,57751,50373
53566,57698,50285
53518,57650,50205
53468,57606,50128
53419,57567,50055
53374,57531,49986
53330,57497,49922
53288,57462,49862
53250,57429,49802
53214,57397,49742
53178,57364,49683
53144,57331,49625
53113,57298,49567
53082,57263,49511
53050,57227,49456
53017,57194,49401
52987,57165,49347
52962,57139,49297
52939,57113,49251
52917,57089,49206
52896,57070,49162
52875,57052,49120
52856,57036,49080
52841,57022,49042
52828,57011,49006
52814,57003,48975
52798,56995,48950
52786,56989,48926
52777,56984,48902
52770,56980,48876
52763,56976,48850
52754,56969,48826
52743,56959,48804
52729,56947,48779
52714,56934,48753
52699,56920,48728
52681,56903,48699
52659,56884,48664
52633,56863,48625
52605,56841,48583
52576,56816,48538
52545,56787,48489
52511,56753,48433
52480,56716,48373
52451,56682,48314
52419,56653,48258
52385,56627,48204
52349,56601,48148
52313,56576,48090
52277,56551,48030
52241,56525,47970
52208,56498,47908
52177,56472,47846
52147,56442,47786
52118,56410,47723
52090,56378,47659
52059,56346,47592
52021,56311,47524
51982,56273,47453
51943,56235,47382
51902,56200,47314
51859,56166,47246
51819,56132,47179
51786,56098,47117
51759,56068,47063
51736,56045,47023
51722,56030,46999
51721,56031,46999
51737,56049,47034
51777,56089,47117
51851,56159,47259
51968,56269,47471
52128,56422,47760
52329,56617,48129
52575,56852,48572
52862,57120,49078
53175,57411,49628
53502,57715,50201
53837,58025,50776
54170,58329,51340
54493,58621,51882
54799,58896,52388
55082,59153,52850
55339,59387,53264
55569,59595,53634
55769,59775,53955
55943,59926,54228
56094,60055,54458
56218,60161,54648
56314,60244,54796
56387,60305,54904
56436,60346,54977
56463,60369,55018
56471,60376,55032
56466,60370,55023
56449,60354,54996
56418,60325,54952
56377,60285,54896
56331,60236,54829
56278,60178,54751
56217,60112,54662
56152,60042,54563
56084,59970,54453
56011,59897,54334
55933,59821,54208
55850,59744,54074
55762,59666,53931
55670,59583,53778
55569,59492,53612
55461,59394,53435
55350,59289,53251
55237,59182,53061
55123,59074,52867
55010,58969,52672
54900,58867,52483
54793,58770,52303
54691,58678,52134
54602,58593,51976
54526,58518,51836
54462,58456,51716
54409,58408,51623
54374,58374,51557
54355,58356,51518
54350,58353,51504
54357,58363,51516
54377,58385,51556
54410,58420,51625
54454,58465,51716
54508,58517,51821
54575,58581,51937
54650,58652,52064
54728,58728,52198
54805,58805,52329
54883,58880,52457
54958,58949,52580
55029,59013,52697
55093,59068,52804
55149,59113,52894
55194,59150,52967
55227,59177,53021
55247,59195,53054
55255,59207,53065
55251,59209,53057
55234,59199,53032
55211,59180,52993
55183,59154,52942
55149,59121,52882
55111,59083,52817
55068,59040,52741
55023,58991,52656
54973,58939,52564
54917,58882,52467
54858,58823,52365
54798,58763,52259
54735,58702,52150
54668,58638,52034
54595,58573,51911
54520,58508,51784
54445,58441,51658
54370,58373,51534
54297,58307,51409
54229,58244,51285
54163,58186,51164
54099,58128,51049
54038,58073,50936
53981,58022,50829
53924,57973,50728
53862,57923,50632
53802,57870,50540
53747,57815,50450
53695,57761,50360
53642,57710,50269
53591,57661,50180
53542,57615,50094
53495,57574,50014
53452,57537,49936
53414,57503,49861
53378,57470,49791
53341,57440,49723
53308,57414,49657
53280,57387,49596
53253,57360,49541
53222,57332,49488
53191,57305,49433
53160,57278,49380
53130,57252,49329
53099,57225,49280
53070,57197,49233
53046,57173,49190
53022,57152,49152
52996,57131,49116
52969,57111,49081
52945,57089,49046
52922,57066,49010
52902,57045,48973
52883,57026,48936
52863,57008,48900
52838,56989,48862
52810,56971,48822
52786,56953,48783
52767,56934,48749
52751,56914,48720
52736,56894,48690
52720,56871,48658
52702,56848,48622
52681,56823,48581
52660,56797,48539
52641,56774,48500
52621,56752,48463
52597,56730,48421
52571,56707,48374
52545,56683,48325
52518,56658,48276
52489,56633,48225
52460,56610,48174
52434,56587,48125
52408,56563,48075
52382,56537,48024
52356,56508,47969
52332,56479,47915
52309,56452,47863
52282,56425,47810
52251,56399,47752
52219,56375,47691
52185,56348,47630
52148,56317,47570
52108,56283,47508
52069,56246,47440
52030,56209,47373
51991,56177,47312
51958,56149,47254
51931,56125,47201
51911,56105,47160
51895,56091,47135
51889,56087,47134
51904,56101,47166
51945,56139,47245
52020,56210,47384
52141,56321,47594
52311,56479,47883
52530,56684,48257
52791,56928,48711
53092,57207,49232
53426,57515,49807
53781,57844,50416
54146,58184,51038
54513,58524,51653
54870,58854,52245
55208,59167,52801
55522,59456,53309
55808,59718,53764
56064,59953,54166
56287,60157,54516
56475,60329,54814
56633,60471,55063
56762,60584,55267
56861,60671,55429
56932,60734,55549
56979,60775,55633
57007,60801,55685
57018,60812,55709
57016,60807,55708
57005,60790,55687
56985,60765,55650
56954,60730,55599
56914,60686,55536
56868,60635,55463
56816,60582,55385
56762,60528,55300
56707,60477,55209
56652,60427,55111
56591,60374,55006
56522,60314,54894
56448,60249,54777
56372,60179,54655
56294,60102,54525
56211,60017,54385
56124,59930,54239
56034,59842,54086
55937,59748,53928
55837,59650,53767
55739,59552,53604
55648,59463,53445
55563,59384,53295
55482,59311,53157
55412,59246,53034
55355,59189,52926
55307,59141,52836
55268,59100,52766
55242,59068,52715
55229,59051,52687
55227,59050,52684
55234,59063,52701
55253,59087,52737
55282,59122,52793
55320,59163,52864
55366,59210,52948
55424,59262,53043
55487,59318,53146
55549,59373,53250
55607,59426,53349
55664,59477,53446
55721,59529,53544
55772,59578,53637
55814,59619,53718
55851,59650,53784
55880,59675,53835
55899,59695,53872
55912,59707,53892
55920,59713,53899
55920,59711,53895
55912,59700,53879
55895,59682,53851
55872,59661,53811
55839,59634,53758
55797,59599,53690
55749,59557,53609
55699,59507,53517
55645,59453,53418
55585,59397,53316
55522,59337,53211
55458,59276,53105
55389,59218,52998
55316,59156,52886
55242,59090,52767
55171,59023,52645
55101,58957,52520
55029,58891,52393
54955,58829,52264
54883,58770,52138
54811,58709,52017
54742,58646,51902
54680,58586,51792
54623,58530,51690
54567,58475,51591
54513,58421,51491
54459,58367,51395
54407,58313,51307
54356,58260,51224
54310,58211,51146
54267,58167,51071
54223,58126,50997
54176,58087,50926
54131,58051,50858
54093,58019,50794
54060,57991,50733
54028,57965,50676
53997,57939,50620
53972,57915,50567
53951,57892,50517
53931,57870,50469
53912,57850,50422
53896,57833,50377
53879,57817,50335
53863,57801,50294
53847,57784,50251
53832,57769,50210
53815,57755,50172
53795,57738,50133
53774,57720,50094
53755,57702,50056
53736,57682,50021
53715,57661,49988
53693,57641,49956
53672,57622,49928
53651,57605,49902
53633,57586,49879
53621,57567,49857
53611,57548,49834
53596,57530,49809
53575,57511,49782
53552,57493,49753
53528,57476,49721
53501,57457,49685
53473,57436,49646
53449,57414,49606
53426,57394,49567
53401,57370,49527
53372,57339,49480
53343,57306,49429
53313,57275,49375
53279,57245,49321
53245,57215,49265
53212,57186,49206
53177,57158,49145
53136,57130,49083
53094,57099,49020
53054,57066,48954
53017,57032,48885
52982,56999,48809
52945,56963,48729
52906,56925,48648
52866,56886,48569
52823,56846,48492
52780,56805,48417
52737,56765,48341
52696,56728,48267
52655,56690,48196
52615,56649,48128
52580,56610,48064
52547,56574,48008
52518,56546,47962
52500,56530,47937
52499,56532,47942
52519,56557,47988
52567,56608,48085
52650,56693,48248
52776,56818,48483
52948,56983,48796
53166,57190,49186
53432,57437,49649
53736,57718,50174
54063,58023,50743
54402,58342,51333
54747,58667,51922
55089,58991,52493
55417,59299,53030
55724,59585,53525
56006,59845,53977
56261,60075,54382
56482,60272,54733
56672,60441,55033
56834,60583,55287
56969,60701,55499
57078,60797,55671
57165,60873,55804
57233,60929,55905
57281,60966,55977
57311,60985,56024
57326,60992,56049
57329,60987,56052
57320,60969,56034
57299,60939,55998
57266,60902,55942
57223,60859,55869
57172,60811,55786
57114,60755,55695
57052,60694,55598
56986,60629,55494
56914,60559,55383
56836,60483,55265
56753,60405,55141
56669,60325,55012
56583,60243,54880
56492,60156,54741
56400,60066,54590
56307,59975,54427
56209,59880,54253
56104,59785,54076
56001,59694,53903
55903,59607,53735
55809,59523,53575
55720,59443,53424
55639,59371,53286
55566,59307,53165
55503,59253,53066
55453,59209,52993
55421,59180,52944
55408,59164,52921
55408,59161,52922
55422,59170,52945
55450,59193,52989
55491,59226,53051
55540,59267,53129
55595,59315,53222
55660,59372,53328
55730,59436,53444
55800,59501,53564
55868,59564,53683
55933,59625,53798
55992,59683,53903
56046,59736,53995
56096,59782,54074
56141,59820,54137
56176,59853,54185
56199,59881,54219
56211,59899,54235
56215,59903,54235
56209,59896,54223
56192,59880,54199
56167,59854,54165
56134,59822,54120
56091,59781,54063
56038,59735,53996
55981,59683,53919
55923,59627,53829
55861,59565,53731
55793,59502,53628
55724,59439,53519
55659,59378,53406
55595,59319,53288
55532,59260,53166
55470,59200,53043
55406,59140,52921
55341,59080,52801
55276,59021,52683
55209,58963,52566
55140,58908,52450
55070,58854,52336
55000,58797,52223
54933,58740,52111
54869,58685,52004
54808,58629,51904
54749,58573,51810
54699,58522,51719
54654,58474,51629
54612,58425,51542
54571,58378,51458
54529,58336,51377
54490,58297,51299
54453,58260,51229
54418,58226,51165
54385,58195,51107
54352,58163,51052
54319,58129,50994
54285,58095,50934
54254,58062,50878
54223,58032,50826
54192,58004,50776
54159,57975,50727
54124,57952,50680
54092,57935,50635
54062,57917,50594
54037,57900,50554
54017,57884,50514
53997,57867,50476
53975,57851,50440
53956,57834,50405
53936,57816,50368
53911,57795,50330
53884,57769,50292
53861,57746,50255
53842,57725,50218
53824,57708,50184
53805,57690,50154
53787,57673,50123
53771,57657,50090
53757,57643,50053
53744,57630,50019
53733,57615,49987
53724,57601,49959
53714,57590,49932
53698,57579,49904
53679,57566,49874
53655,57551,49839
53628,57534,49800
53600,57512,49760
53571,57490,49716
53539,57469,49669
53503,57445,49617
53467,57414,49558
53433,57379,49494
53398,57345,49428
53359,57309,49362
53320,57272,49297
53281,57232,49232
53237,57189,49163
53190,57147,49090
53147,57106,49014
53106,57063,48933
53061,57017,48849
53011,56968,48763
52961,56918,48678
52915,56871,48594
52869,56826,48512
52825,56784,48430
52783,56749,48351
52743,56721,48280
52706,56698,48218
52673,56677,48165
52648,56661,48126
52633,56652,48105
52630,56652,48109
52645,56669,48149
52690,56709,48233
52769,56779,48375
52886,56888,48591
53049,57042,48890
53263,57240,49272
53527,57481,49731
53833,57757,50252
54165,58057,50815
54514,58371,51398
54870,58692,51986
55220,59012,52567
55557,59322,53124
55875,59614,53646
56168,59884,54126
56430,60127,54561
56660,60341,54943
56862,60525,55268
57036,60680,55542
57178,60807,55768
57292,60906,55950
57385,60983,56094
57455,61041,56205
57500,61078,56284
57526,61097,56333
57538,61103,56355
57537,61100,56356
57524,61091,56341
57502,61075,56311
57473,61051,56264
57435,61019,56199
57385,60974,56119
57328,60920,56027
57269,60859,55927
57206,60797,55824
57140,60734,55713
57070,60666,55596
57000,60593,55472
56927,60518,55344
56847,60439,55209
56761,60357,55068
56671,60271,54920
56576,60176,54758
56476,60073,54585
56377,59966,54405
56275,59859,54224
56166,59754,54045
56056,59655,53871
55952,59561,53708
55856,59475,53558
55774,59403,53428
55707,59348,53325
55660,59313,53251
55631,59295,53207
55619,59292,53190
55624,59301,53199
55644,59322,53232
55678,59353,53286
55724,59395,53363
55779,59448,53459
55842,59510,53573
55908,59576,53697
55976,59646,53822
56045,59716,53943
56117,59783,54057
56187,59847,54166
56254,59909,54270
56318,59969,54365
56376,60019,54448
56428,60057,54519
56468,60087,54575
56498,60107,54614
56521,60120,54637
56533,60125,54647
56533,60122,54643
56526,60111,54625
56511,60094,54592
56488,60071,54545
56453,60042,54486
56413,60006,54415
56367,59965,54335
56313,59915,54248
56251,59858,54152
56186,59800,54048
56118,59742,53942
56045,59679,53835
55970,59610,53721
55896,59537,53601
55825,59466,53482
55756,59394,53364
55687,59324,53246
55620,59259,53129
55551,59196,53014
55479,59133,52902
55408,59070,52793
55342,59010,52687
55280,58954,52582
55219,58900,52481
55158,58849,52384
55101,58799,52293
55049,58755,52205
54997,58714,52119
54951,58677,52035
54914,58642,51957
54885,58613,51886
54857,58587,51822
54832,58562,51764
54810,58539,51711
54788,58520,51660
54766,58503,51613
54743,58485,51568
54721,58468,51523
54699,58450,51479
54675,58430,51432
54648,58407,51384
54621,58385,51339
54595,58363,51298
54570,58340,51262
54549,58318,51229
54529,58297,51197
54504,58275,51164
54476,58249,51129
54449,58222,51092
54426,58193,51052
54404,58164,51009
54381,58138,50967
54357,58117,50929
54332,58101,50894
54307,58085,50860
54282,58067,50824
54261,58048,50789
54242,58031,50754
54223,58014,50716
54205,57996,50675
54190,57978,50634
54178,57959,50596
54163,57939,50562
54145,57918,50528
54126,57895,50493
54106,57874,50458
54079,57851,50417
54048,57826,50371
54015,57800,50321
53980,57775,50272
53939,57751,50222
53897,57724,50168
53857,57693,50107
53815,57659,50042
53770,57620,49973
53725,57579,49901
53681,57537,49826
53637,57495,49749
53592,57452,49670
53544,57408,49586
53496,57365,49497
53445,57322,49405
53391,57276,49309
53335,57228,49209
53279,57179,49106
53220,57126,49001
53159,57069,48899
53099,57013,48798
53042,56959,48698
52985,56903,48599
52926,56845,48504
52870,56790,48417
52821,56744,48343
52783,56710,48288
52759,56693,48261
52757,56699,48271
52783,56731,48328
52840,56794,48444
52932,56890,48629
53067,57024,48891
53246,57198,49228
53462,57408,49634
53713,57647,50100
53995,57910,50614
54297,58190,51156
54605,58476,51703
54907,58758,52237
55202,59031,52745
55483,59289,53220
55743,59526,53654
55973,59737,54035
56173,59922,54361
56345,60083,54636
56487,60219,54868
56602,60330,55056
56693,60418,55204
56761,60481,55315
56807,60519,55392
56831,60538,55437
56839,60539,55453
56828,60525,55442
56797,60494,55406
56751,60449,55347
56698,60395,55268
56640,60332,55174
56573,60260,55065
56499,60181,54941
56418,60096,54806
56327,60007,54666
56226,59914,54517
56120,59818,54360
56009,59718,54195
55893,59614,54017
55770,59507,53827
55646,59395,53625
55520,59282,53415
55391,59167,53201
55260,59050,52979
55134,58932,52750
55016,58816,52525
54902,58701,52307
54795,58590,52100
54696,58489,51906
54608,58401,51733
54532,58328,51582
54469,58270,51454
54420,58228,51353
54386,58198,51279
54363,58179,51232
54353,58171,51213
54355,58174,51221
54371,58190,51255
54401,58218,51314
54443,58261,51393
54496,58315,51492
54555,58377,51605
54616,58444,51729
54684,58516,51861
54759,58589,52001
54838,58663,52149
54917,58738,52300
54997,58810,52447
55073,58877,52584
55141,58938,52707
55197,58991,52810
55240,59032,52892
55276,59063,52957
55302,59082,52999
55315,59090,53016
55315,59091,53010
55307,59086,52990
55291,59073,52962
55265,59054,52923
55233,59027,52871
55195,58993,52807
55150,58952,52732
55101,58908,52646
55051,58858,52548
54993,58803,52439
54926,58744,52321
54851,58679,52194
54776,58610,52064
54701,58539,51933
54625,58467,51802
54551,58398,51670
54482,58331,51541
54415,58266,51414
54344,58198,51286
54271,58130,51160
54203,58065,51040
54141,58006,50927
54083,57950,50823
54029,57897,50725
53980,57849,50634
53937,57806,50551
53897,57767,50473
53860,57732,50397
53829,57701,50326
53800,57672,50261
53770,57645,50202
53742,57620,50149
53716,57595,50101
53691,57573,50057
53666,57555,50012
53643,57537,49965
53622,57518,49922
53604,57498,49885
53590,57479,49851
53579,57464,49817
53570,57454,49787
53562,57447,49759
53551,57440,49733
53542,57437,49709
53535,57436,49691
53529,57435,49676
53521,57432,49660
53513,57429,49646
53502,57424,49636
53489,57413,49628
53473,57400,49620
53456,57391,49610
53441,57383,49597
53428,57376,49581
53416,57368,49565
53405,57361,49550
53398,57354,49536
53391,57347,49522
53382,57338,49504
53373,57328,49482
53363,57316,49458
53351,57299,49431
53335,57278,49399
53318,57256,49364
53300,57233,49327
53280,57211,49292
53260,57188,49259
53242,57167,49226
53222,57148,49192
53196,57131,49153
53167,57115,49111
53138,57096,49066
53107,57073,49016
53070,57047,48962
53032,57021,48905
52998,56996,48845
52964,56967,48783
52924,56929,48716
52884,56886,48645
52848,56843,48572
52812,56803,48499
52775,56762,48426
52740,56723,48355
52707,56691,48288
52676,56666,48229
52650,56648,48185
52637,56640,48159
52641,56645,48160
52662,56665,48195
52706,56707,48276
52782,56779,48412
52895,56883,48616
53048,57026,48896
53243,57211,49255
53485,57437,49689
53767,57701,50188
54076,57997,50730
54401,58311,51297
54739,58631,51871
55079,58949,52442
55407,59255,52996
55715,59544,53518
56003,59811,54001
56265,60053,54433
56496,60268,54811
56693,60452,55134
56858,60603,55400
56990,60723,55613
57092,60818,55779
57170,60889,55909
57229,60937,56006
57267,60965,56073
57285,60976,56112
57286,60971,56126
57275,60954,56117
57254,60927,56088
57224,60893,56042
57185,60851,55977
57140,60802,55894
57089,60747,55795
57030,60685,55687
56965,60620,55572
56896,60552,55452
56821,60479,55324
56743,60401,55186
56658,60321,55039
56565,60235,54882
56461,60141,54717
56349,60041,54541
56233,59936,54351
56114,59827,54150
55993,59716,53942
55869,59603,53730
55749,59490,53521
55632,59380,53321
55522,59276,53129
55422,59179,52952
55339,59093,52796
55269,59018,52664
55212,58957,52559
55173,58912,52482
55152,58888,52438
55145,58882,52425
55150,58891,52442
55171,58912,52488
55209,58948,52560
55260,58999,52654
55319,59062,52765
55384,59133,52891
55458,59208,53028
55537,59287,53173
55620,59369,53322
55703,59451,53470
55784,59534,53613
55861,59614,53748
55930,59687,53870
55992,59749,53972
56045,59798,54054
56086,59833,54115
56113,59855,54158
56129,59868,54184
56136,59872,54193
56132,59868,54185
56116,59857,54159
56092,59839,54115
56059,59812,54060
56019,59776,53996
55974,59729,53924
55925,59676,53841
55872,59618,53749
55814,59558,53652
55752,59498,53549
55687,59436,53438
55619,59371,53319
55545,59302,53192
55469,59229,53061
55395,59154,52930
55324,59081,52802
55252,59008,52676
55179,58935,52548
55107,58865,52417
55034,58798,52287
54959,58734,52157
54886,58674,52030
54816,58619,51909
54748,58568,51796
54685,58516,51689
54626,58465,51585
54571,58417,51482
54516,58370,51387
54462,58322,51298
54408,58272,51211
54357,58222,51124
54307,58174,51039
54256,58128,50959
54207,58085,50881
54161,58042,50804
54116,57998,50729
54070,57953,50654
54026,57907,50582
53984,57866,50514
53944,57831,50451
53907,57801,50392
53875,57776,50339
53852,57758,50295
53837,57745,50260
53825,57732,50233
53817,57722,50211
53815,57718,50193
53814,57718,50176
53810,57719,50158
53803,57716,50139
53794,57708,50117
53781,57696,50092
53762,57679,50063
53740,57657,50030
53718,57632,49993
53693,57605,49954
53668,57576,49915
53644,57548,49874
53622,57524,49832
53598,57503,49789
53576,57481,49746
53557,57461,49705
53541,57442,49664
53521,57424,49623
53496,57407,49583
53468,57389,49542
53437,57370,49499
53404,57346,49454
53372,57320,49407
53342,57293,49358
53310,57265,49305
53273,57231,49245
53234,57193,49180
53193,57154,49109
53152,57112,49035
53112,57071,48961
53072,57033,48887
53031,56998,48815
52994,56966,48748
52963,56940,48692
52942,56920,48652
52934,56913,48637
52943,56927,48659
52977,56968,48730
53049,57043,48864
53169,57158,49073
53336,57316,49369
53548,57515,49751
53803,57755,50211
54096,58032,50735
54417,58337,51304
54752,58655,51895
55091,58978,52492
55428,59296,53080
55749,59600,53641
56049,59882,54164
56330,60140,54639
56588,60375,55067
56817,60588,55445
57017,60774,55771
57190,60935,56046
57337,61068,56273
57457,61173,56458
57548,61250,56603
57615,61305,56712
57662,61342,56790
57690,61363,56840
57701,61370,56862
57698,61365,56862
57685,61350,56846
57661,61326,56812
57626,61294,56759
57586,61252,56694
57536,61204,56620
57477,61150,56536
57410,61093,56440
57342,61031,56336
57273,60963,56226
57203,60891,56110
57134,60816,55991
57067,60742,55872
56998,60669,55749
56922,60593,55618
56840,60515,55480
56754,60433,55336
56661,60347,55187
56564,60257,55032
56466,60166,54872
56372,60075,54713
56281,59986,54558
56191,59897,54408
56109,59814,54265
56035,59741,54135
55969,59678,54023
55912,59626,53932
55870,59587,53862
55845,59563,53816
55833,59552,53795
55834,59554,53798
55851,59567,53821
55882,59594,53865
55922,59634,53929
55967,59682,54008
56017,59737,54101
56074,59798,54205
56134,59862,54315
56197,59927,54428
56263,59992,54538
56329,60052,54642
56392,60106,54737
56447,60155,54823
56495,60199,54898
56535,60236,54962
56564,60263,55013
56584,60278,55050
56596,60287,55073
56599,60290,55085
56592,60286,55083
56580,60276,55069
56563,60261,55044
56540,60242,55005
56509,60214,54951
56467,60177,54882
56418,60131,54802
56362,60074,54710
56297,60007,54608
56225,59934,54496
56152,59859,54379
56079,59787,54257
56004,59715,54131
55930,59644,53999
55855,59577,53865
55778,59511,53731
55698,59444,53598
55621,59376,53466
55545,59306,53338
55469,59237,53213
55393,59169,53088
55321,59099,52963
55252,59031,52841
55184,58967,52722
55117,58905,52605
55052,58845,52491
54992,58787,52382
54934,58730,52278
54879,58677,52177
54828,58628,52082
54780,58583,51992
54730,58541,51906
54680,58498,51823
54635,58456,51742
54596,58414,51669
54559,58375,51603
54524,58337,51538
54494,58304,51477
54468,58277,51418
54442,58252,51361
54418,58227,51310
54398,58203,51264
54380,58182,51223
54362,58163,51186
54344,58147,51150
54328,58133,51117
54309,58120,51088
54286,58106,51063
54264,58094,51039
54244,58083,51012
54220,58071,50982
54194,58055,50948
54170,58039,50918
54152,58024,50890
54133,58008,50864
54109,57989,50835
54082,57968,50799
54055,57942,50753
54026,57912,50703
53995,57877,50652
53962,57842,50600
53929,57810,50548
53897,57781,50499
53865,57753,50452
53836,57726,50403
53808,57701,50352
53781,57677,50298
53754,57652,50242
53727,57626,50186
53699,57599,50131
53666,57574,50074
53630,57549,50015
53595,57523,49957
53560,57495,49899
53525,57464,49839
53490,57431,49774
53454,57396,49703
53413,57359,49628
53365,57320,49550
53313,57280,49471
53262,57237,49394
53217,57193,49319
53178,57152,49250
53147,57118,49193
53127,57097,49153
53122,57092,49140
53139,57107,49165
53187,57149,49243
53279,57230,49392
53415,57354,49623
53595,57524,49941
53823,57741,50342
54096,58000,50821
54404,58293,51362
54731,58605,51943
55070,58926,52542
55412,59248,53141
55747,59561,53722
56066,59859,54270
56365,60139,54777
56636,60396,55236
56874,60624,55642
57080,60822,55994
57260,60988,56291
57413,61125,56539
57538,61236,56745
57639,61322,56912
57720,61386,57042
57781,61434,57139
57825,61468,57206
57854,61489,57246
57874,61502,57266
57885,61506,57268
57882,61500,57251
57864,61482,57215
57836,61456,57163
57801,61421,57100
57759,61378,57026
57712,61329,56944
57663,61276,56858
57606,61220,56766
57540,61159,56668
57470,61093,56565
57400,61022,56456
57329,60949,56341
57255,60874,56219
57179,60794,56087
57099,60712,55948
57013,60627,55803
56918,60538,55652
56819,60449,55498
56720,60360,55342
56625,60272,55187
56534,60186,55036
56448,60108,54893
56372,60040,54763
56306,59984,54651
56250,59940,54559
56208,59905,54485
56178,59880,54432
56158,59861,54400
56148,59848,54387
56150,59844,54394
56166,59854,54422
56190,59876,54471
56220,59906,54533
56257,59941,54604
56297,59982,54681
56341,60026,54765
56389,60074,54854
56445,60126,54946
56503,60180,55039
56560,60234,55132
56613,60288,55221
56663,60343,55302
56709,60394,55372
56747,60434,55426
56775,60465,55468
56793,60485,55499
56802,60494,55515
56804,60494,55518
56799,60488,55510
56788,60474,55489
56770,60452,55454
56743,60420,55404
56708,60381,55343
56669,60336,55273
56623,60289,55194
56568,60240,55106
56508,60186,55008
56446,60127,54900
56380,60064,54788
56309,59999,54672
56236,59935,54553
56163,59871,54433
56089,59807,54310
56012,59737,54184
55935,59664,54053
55860,59591,53922
55783,59518,53791
55706,59441,53661
55631,59364,53531
55556,59289,53403
55480,59216,53276
55405,59146,53149
55333,59082,53026
55265,59023,52907
55201,58969,52794
55139,58922,52691
55084,58879,52595
55033,58837,52503
54982,58791,52413
54928,58741,52323
54873,58691,52236
54819,58641,52151
54765,58589,52069
54713,58538,51991
54668,58490,51919
54630,58448,51851
54596,58411,51784
54563,58378,51716
54532,58347,51644
54502,58318,51573
54468,58288,51507
54431,58258,51446
54394,58229,51389
54359,58201,51336
54324,58174,51283
54293,58149,51231
54264,58127,51181
54239,58106,51138
54216,58086,51099
54196,58068,51062
54178,58051,51027
54155,58032,50992
54128,58010,50952
54103,57987,50906
54079,57964,50856
54051,57940,50805
54019,57913,50752
53987,57886,50700
53961,57864,50653
53939,57844,50613
53918,57826,50576
53897,57808,50538
53875,57790,50501
53850,57771,50462
53822,57750,50417
53795,57726,50368
53765,57698,50314
53731,57667,50256
53693,57633,50193
53654,57596,50123
53611,57555,50048
53562,57509,49967
53508,57460,49882
53455,57411,49795
53406,57364,49709
53357,57318,49627
53309,57273,49544
53264,57228,49460
53222,57185,49379
53181,57143,49303
53142,57105,49228
53106,57070,49157
53069,57038,49091
53028,57009,49030
52990,56983,48977
52965,56965,48937
52953,56958,48918
52954,56965,48929
52978,56994,48985
53038,57056,49105
53141,57155,49301
53292,57297,49582
53493,57482,49948
53740,57711,50396
54026,57982,50915
54344,58284,51484
54683,58605,52082
55032,58935,52691
55382,59266,53292
55722,59588,53871
56046,59894,54414
56345,60177,54911
56611,60430,55352
56842,60649,55737
57040,60834,56066
57206,60989,56341
57340,61114,56562
57445,61213,56736
57526,61287,56870
57586,61338,56967
57623,61366,57028
57638,61373,57056
57638,61364,57057
57630,61344,57037
57613,61316,57000
57587,61284,56949
57554,61247,56886
57511,61205,56814
57460,61158,56734
57404,61104,56646
57345,61043,56548
57280,60976,56442
57204,60901,56328
57122,60821,56202
57036,60734,56067
56944,60643,55920
56843,60547,55763
56735,60449,55597
56627,60348,55421
56516,60244,55237
56401,60138,55045
56287,60030,54845
56175,59922,54645
56065,59817,54445
55957,59718,54248
55856,59626,54062
55766,59542,53897
55686,59469,53755
55619,59411,53639
55569,59367,53550
55538,59336,53489
55523,59319,53455
55522,59311,53448
55531,59312,53465
55550,59324,53504
55577,59347,53565
55614,59383,53647
55662,59431,53745
55721,59490,53857
55785,59555,53978
55851,59623,54103
55921,59693,54229
55993,59765,54353
56061,59835,54471
56125,59903,54579
56184,59966,54674
56238,60020,54755
56283,60063,54820
56319,60094,54869
56344,60115,54903
56357,60125,54923
56357,60123,54928
56345,60110,54917
56324,60088,54889
56295,60058,54842
56256,60018,54778
56209,59973,54702
56158,59923,54615
56103,59870,54519
56042,59812,54412
55979,59749,54295
55915,59685,54174
55849,59620,54052
55777,59555,53924
55702,59486,53792
55626,59415,53658
55548,59343,53524
55466,59268,53389
55383,59190,53252
55302,59111,53115
55223,59033,52978
55144,58954,52841
55066,58875,52704
54990,58798,52570
54912,58723,52440
54835,58653,52313
54761,58588,52190
54692,58528,52073
54628,58471,51963
54568,58418,51858
54516,58368,51760
54472,58322,51672
54431,58282,51590
54392,58246,51511
54355,58214,51434
54316,58184,51361
54277,58155,51288
54237,58126,51215
54201,58098,51146
54167,58068,51084
54129,58038,51029
54090,58008,50978
54054,57976,50929
54020,57943,50881
53988,57914,50836
53961,57891,50795
53941,57875,50755
53925,57859,50715
53904,57840,50674
53881,57819,50631
53858,57801,50589
53836,57782,50548
53814,57760,50509
53793,57737,50470
53771,57710,50431
53747,57682,50394
53719,57654,50357
53692,57630,50320
53666,57610,50283
53640,57593,50246
53616,57575,50209
53592,57554,50169
53569,57531,50125
53544,57507,50082
53521,57488,50040
53501,57472,49999
53484,57457,49960
53468,57442,49923
53449,57427,49885
53428,57411,49844
53405,57395,49805
53380,57378,49767
53352,57358,49729
53326,57335,49687
53300,57309,49641
53270,57279,49591
53237,57246,49537
53202,57210,49478
53164,57171,49417
53122,57128,49351
53078,57082,49281
53034,57037,49207
52990,56995,49131
52943,56955,49054
52898,56917,48975
52860,56879,48898
52825,56841,48825
52789,56803,48754
52751,56765,48682
52714,56728,48608
52677,56693,48533
52640,56660,48457
52603,56626,48382
52566,56592,48309
52527,56561,48238
52484,56531,48171
52439,56500,48104
52399,56468,48042
52363,56440,47989
52335,56419,47950
52320,56410,47929
52324,56418,47937
52350,56447,47988
52409,56503,48095
52507,56595,48273
52649,56726,48534
52839,56901,48887
53076,57124,49330
53358,57394,49853
53680,57701,50440
54027,58032,51068
54386,58376,51715
54750,58721,52360
55109,59058,52984
55449,59375,53573
55762,59668,54118
56047,59932,54608
56304,60166,55037
56527,60370,55405
56714,60542,55713
56871,60684,55966
57001,60801,56170
57103,60893,56328
57179,60960,56448
57233,61004,56534
57263,61029,56588
57269,61035,56610
57257,61024,56604
57232,60998,56573
57194,60957,56522
57140,60905,56449
57075,60844,56352
57006,60775,56235
56930,60697,56102
56844,60608,55957
56749,60512,55802
56647,60411,55640
56542,60307,55473
56437,60203,55302
56333,60100,55126
56229,60000,54947
56120,59899,54767
56004,59793,54581
55882,59683,54386
55758,59569,54181
55633,59450,53969
55508,59331,53753
55387,59215,53536
55272,59103,53325
55161,58998,53124
55054,58900,52938
54957,58809,52770
54872,58726,52622
54796,58653,52494
54733,58592,52390
54685,58548,52310
54652,58518,52255
54633,58502,52227
54627,58499,52223
54636,58509,52245
54659,58534,52292
54692,58569,52360
54733,58612,52444
54786,58659,52540
54848,58711,52647
54914,58767,52759
54979,58826,52872
55045,58887,52985
55106,58945,53096
55159,58999,53201
55204,59048,53293
55245,59088,53370
55279,59119,53432
55304,59142,53481
55318,59157,53513
55326,59166,53528
55325,59165,53526
55313,59151,53505
55292,59125,53465
55260,59089,53410
55215,59045,53341
55163,58995,53258
55106,58941,53160
55045,58883,53049
54978,58823,52931
54905,58760,52805
54828,58694,52673
54746,58624,52537
54657,58548,52397
54563,58467,52248
54468,58379,52092
54372,58288,51930
54272,58194,51767
54172,58102,51606
54077,58015,51446
53990,57932,51291
53909,57851,51143
53832,57772,51000
53759,57695,50862
53690,57624,50730
53624,57558,50603
53560,57496,50479
53499,57435,50361
53435,57376,50247
53367,57318,50135
53299,57261,50024
53232,57202,49912
53165,57142,49801
53096,57085,49693
53026,57031,49588
52962,56982,49489
52903,56937,49397
52845,56893,49311
52793,56851,49230
52752,56814,49152
52716,56778,49078
52684,56741,49008
52657,56705,48943
52633,56672,48882
52609,56642,48827
52585,56614,48776
52559,56589,48726
52532,56570,48681
52503,56554,48640
52473,56535,48598
52443,56510,48554
52413,56481,48509
52380,56448,48462
52342,56412,48414
52304,56372,48365
52268,56332,48317
52234,56299,48271
52204,56274,48230
52181,56255,48193
52164,56242,48158
52149,56230,48124
52135,56218,48090
52121,56206,48055
52107,56194,48020
52092,56183,47988
52076,56173,47959
52060,56160,47932
52041,56141,47904
52016,56115,47875
51986,56086,47840
51955,56057,47800
51925,56029,47759
51892,56001,47712
51857,55972,47659
51821,55941,47604
51787,55911,47549
51752,55882,47495
51715,55852,47439
51678,55825,47384
51646,55800,47333
51617,55776,47282
51590,55751,47231
51564,55723,47179
51536,55696,47127
51505,55668,47072
51473,55638,47014
51442,55605,46952
51410,55568,46886
51375,55527,46815
51336,55485,46740
51294,55442,46660
51248,55397,46580
51201,55355,46506
51158,55319,46435
51119,55287,46368
51079,55257,46303
51039,55228,46241
51003,55202,46184
50976,55180,46138
50956,55162,46107
50942,55149,46092
50943,55147,46099
50960,55163,46138
51000,55205,46220
51072,55279,46360
51186,55388,46570
51343,55541,46862
51545,55743,47242
51792,55988,47705
52082,56270,48241
52409,56582,48837
52759,56914,49472
53122,57255,50122
53486,57596,50767
53841,57930,51390
54179,58248,51979
54497,58545,52526
54788,58816,53022
55046,59054,53462
55266,59257,53838
55450,59426,54150
55603,59565,54401
55726,59677,54600
55817,59761,54751
55880,59818,54860
55920,59855,54928
55940,59871,54961
55938,59872,54959
55921,59858,54928
55888,59829,54877
55836,59784,54806
55769,59724,54714
55692,59652,54600
55609,59572,54466
55517,59482,54318
55419,59386,54160
55318,59284,53993
55216,59181,53817
55109,59076,53637
54999,58967,53450
54889,58855,53258
54778,58740,53059
54664,58621,52854
54544,58502,52639
54423,58382,52414
54303,58263,52186
54182,58148,51958
54062,58038,51735
53947,57933,51519
53841,57837,51319
53744,57749,51139
53659,57671,50982
53589,57605,50849
53533,57555,50743
53490,57518,50664
53459,57495,50613
53445,57485,50590
53446,57492,50596
53464,57514,50629
53499,57549,50690
53551,57601,50781
53615,57664,50902
53689,57735,51044
53772,57816,51202
53862,57905,51371
53955,57999,51547
54048,58094,51721
54142,58187,51889
54235,58276,52049
54322,58356,52198
54401,58426,52334
54473,58486,52451
54535,58536,52549
54586,58576,52627
54623,58605,52684
54648,58625,52721
54663,58638,52742
54666,58644,52745
54657,58637,52733
54641,58618,52705
54620,58594,52662
54590,58564,52606
54550,58527,52537
54504,58485,52459
54452,58439,52376
54393,58389,52285
54331,58336,52186
54270,58282,52078
54208,58225,51961
54138,58164,51836
54063,58097,51707
53986,58024,51576
53907,57946,51443
53825,57866,51306
53745,57787,51169
53671,57713,51032
53601,57644,50897
53531,57575,50765
53462,57507,50641
53400,57444,50523
53345,57387,50413
53292,57336,50310
53242,57290,50215
53198,57250,50125
53157,57214,50039
53114,57180,49954
53072,57149,49874
53033,57119,49802
52991,57088,49732
52946,57056,49662
52904,57025,49595
52866,56994,49531
52830,56963,49472
52794,56931,49414
52758,56899,49357
52725,56868,49302
52692,56837,49249
52659,56805,49195
52629,56774,49144
52603,56747,49095
52579,56723,49047
52556,56701,49000
52537,56682,48952
52522,56666,48910
52508,56652,48874
52497,56642,48842
52491,56634,48813
52485,56625,48788
52476,56611,48763
52464,56596,48738
52450,56582,48713
52432,56567,48687
52408,56548,48660
52380,56525,48631
52355,56504,48601
52334,56489,48572
52314,56476,48543
52292,56461,48511
52271,56443,48473
52249,56423,48430
52226,56399,48385
52205,56371,48337
52185,56341,48288
52163,56312,48236
52138,56285,48187
52110,56260,48140
52083,56237,48090
52055,56212,48037
52022,56186,47982
51988,56159,47926
51954,56130,47873
51919,56099,47822
51884,56067,47771
51852,56038,47721
51828,56015,47678
51813,56000,47650
51812,55999,47645
51834,56019,47679
51886,56070,47766
51973,56158,47920
52101,56285,48152
52273,56455,48466
52492,56668,48863
52755,56919,49336
53053,57199,49871
53379,57503,50450
53721,57822,51053
54069,58147,51663
54412,58467,52259
54738,58773,52827
55043,59061,53355
55321,59324,53834
55573,59560,54261
55798,59770,54636
55992,59952,54962
56154,60107,55241
56288,60234,55472
56399,60337,55658
56490,60419,55802
56558,60480,55906
56603,60522,55979
56634,60547,56021
56648,60551,56035
56642,60534,56019
56615,60500,55972
56572,60455,55903
56518,60399,55820
56458,60336,55726
56394,60270,55623
56329,60204,55513
56260,60136,55394
56185,60063,55267
56106,59988,55134
56028,59912,54997
55950,59835,54859
55871,59757,54720
55789,59678,54579
55702,59599,54430
55610,59517,54270
55510,59426,54096
55403,59325,53911
55287,59218,53717
55165,59107,53516
55043,58992,53311
54929,58877,53107
54824,58768,52915
54726,58669,52742
54640,58583,52589
54566,58512,52457
54507,58460,52350
54460,58423,52271
54427,58399,52219
54411,58387,52198
54410,58386,52206
54419,58395,52238
54438,58414,52289
54470,58446,52358
54513,58486,52447
54565,58531,52550
54624,58585,52662
54691,58647,52779
54761,58716,52900
54828,58787,53018
54895,58854,53131
54959,58916,53237
55019,58971,53334
55068,59018,53417
55107,59056,53483
55138,59087,53533
55159,59107,53566
55164,59114,53581
55158,59110,53580
55143,59098,53562
55119,59079,53530
55085,59052,53482
55042,59016,53418
54992,58972,53340
54933,58919,53251
54868,58855,53148
54799,58783,53033
54732,58707,52911
54665,58630,52786
54597,58554,52658
54528,58479,52525
54459,58406,52390
54387,58334,52253
54311,58263,52114
54236,58195,51975
54161,58128,51840
54085,58062,51706
54010,58001,51571
53939,57941,51441
53869,57880,51319
53797,57817,51203
53724,57753,51091
53655,57691,50980
53588,57630,50871
53522,57570,50763
53455,57511,50654
53392,57455,50546
53332,57403,50445
53275,57355,50348
53223,57310,50255
53179,57269,50167
53138,57230,50085
53098,57190,50009
53062,57149,49937
53034,57111,49872
53011,57078,49816
52988,57049,49768
52964,57027,49721
52940,57009,49677
52915,56994,49639
52890,56980,49604
52868,56964,49568
52850,56949,49533
52829,56932,49497
52807,56916,49461
52786,56901,49421
52766,56884,49379
52746,56864,49337
52727,56844,49295
52712,56828,49256
52700,56816,49220
52688,56806,49187
52674,56796,49157
52661,56786,49126
52649,56778,49091
52633,56769,49049
52616,56756,49007
52599,56741,48969
52579,56722,48932
52555,56698,48896
52526,56672,48861
52494,56647,48824
52459,56623,48784
52425,56598,48738
52391,56569,48683
52356,56535,48622
52320,56498,48558
52282,56460,48496
52244,56424,48434
52209,56390,48375
52175,56358,48315
52141,56328,48255
52110,56298,48196
52079,56270,48139
52047,56241,48083
52014,56213,48031
51983,56190,47983
51961,56174,47944
51949,56161,47920
51946,56155,47917
51959,56167,47948
51999,56205,48025
52072,56275,48165
52184,56384,48380
52346,56539,48681
52561,56739,49069
52826,56986,49544
53130,57274,50090
53465,57594,50688
53822,57934,51314
54188,58282,51948
54552,58624,52574
54907,58953,53174
55244,59263,53736
55552,59545,54252
55823,59797,54713
56057,60016,55114
56258,60201,55455
56429,60354,55739
56565,60474,55967
56670,60566,56143
56750,60635,56273
56806,60682,56364
56839,60711,56420
56857,60722,56449
56864,60720,56457
56858,60705,56441
56840,60680,56401
56815,60647,56344
56780,60609,56278
56734,60567,56205
56679,60521,56123
56620,60471,56035
56556,60414,55937
56487,60353,55828
56417,60289,55712
56348,60223,55593
56276,60151,55470
56197,60076,55344
56115,59998,55211
56031,59916,55066
55943,59826,54909
55847,59729,54741
55747,59626,54564
55644,59521,54382
55537,59419,54193
55431,59321,54003
55329,59226,53818
55232,59135,53646
55137,59050,53490
55051,58974,53355
54981,58909,53239
54927,58857,53144
54885,58817,53067
54851,58789,53008
54831,58773,52974
54828,58773,52967
54840,58786,52986
54864,58811,53028
54901,58847,53091
54954,58895,53173
55016,58953,53273
55085,59017,53386
55159,59082,53506
55232,59146,53627
55297,59207,53746
55356,59264,53859
55416,59320,53963
55473,59371,54060
55517,59411,54143
55549,59444,54211
55571,59470,54261
55586,59486,54297
55593,59493,54318
55594,59496,54327
55591,59495,54321
55581,59487,54300
55559,59472,54262
55530,59449,54209
55498,59418,54144
55462,59377,54069
55418,59326,53982
55365,59270,53883
55301,59209,53778
55228,59145,53666
55149,59074,53547
55066,58999,53418
54982,58919,53282
54897,58838,53141
54809,58753,52993
54721,58668,52841
54635,58586,52691
54553,58506,52544
54476,58429,52402
54404,58357,52267
54337,58294,52141
54271,58237,52021
54205,58179,51906
54140,58120,51794
54074,58063,51682
54006,58006,51571
53936,57948,51462
53871,57890,51354
53811,57834,51249
53754,57781,51149
53702,57731,51054
53658,57685,50966
53620,57645,50885
53582,57610,50812
53542,57577,50742
53506,57548,50673
53471,57519,50607
53438,57493,50544
53408,57469,50482
53381,57442,50422
53351,57410,50363
53315,57376,50308
53280,57345,50257
53251,57317,50209
53227,57292,50164
53203,57269,50122
53178,57248,50083
53155,57229,50047
53136,57211,50013
53120,57193,49982
53105,57180,49953
53096,57171,49925
53089,57162,49898
53080,57152,49873
53070,57144,49850
53063,57138,49830
53056,57135,49810
53044,57129,49789
53028,57120,49765
53011,57108,49739
52991,57092,49712
52970,57072,49681
52947,57047,49646
52924,57017,49603
52899,56985,49554
52873,56954,49502
52849,56928,49449
52826,56905,49394
52801,56882,49337
52772,56857,49278
52745,56832,49217
52717,56808,49156
52684,56784,49096
52647,56757,49035
52607,56727,48972
52565,56692,48908
52520,56653,48841
52477,56613,48774
52435,56576,48708
52392,56538,48642
52346,56496,48577
52304,56451,48513
52273,56412,48453
52251,56385,48403
52237,56370,48367
52234,56371,48352
52250,56390,48369
52293,56431,48435
52366,56502,48563
52477,56608,48760
52636,56755,49038
52838,56948,49403
53080,57185,49853
53361,57464,50375
53676,57772,50949
54011,58094,51551
54348,58419,52155
54681,58740,52748
55004,59049,53318
55308,59334,53851
55589,59593,54335
55845,59826,54770
56074,60034,55155
56275,60214,55490
56448,60369,55777
56595,60498,56017
56715,60604,56213
56808,60687,56366
56875,60748,56479
56922,60792,56559
56952,60820,56608
56962,60832,56629
56955,60825,56623
56934,60800,56594
56901,60762,56547
56855,60713,56482
56801,60657,56401
56745,60601,56311
56687,60547,56214
56627,60491,56110
56565,60430,55996
56501,60364,55873
56435,60296,55746
56363,60227,55613
56286,60155,55475
56205,60080,55332
56119,59997,55184
56024,59905,55029
55923,59805,54865
55820,59704,54692
55713,59602,54509
55604,59498,54322
55498,59395,54138
55400,59297,53960
55309,59206,53795
55228,59125,53646
55160,59058,53518
55107,59007,53412
55068,58972,53331
55042,58953,53280
55032,58948,53258
55036,58961,53263
55050,58986,53291
55072,59019,53341
55107,59059,53414
55151,59102,53501
55199,59148,53597
55249,59197,53701
55302,59250,53812
55361,59308,53927
55421,59368,54041
55480,59428,54154
55541,59488,54262
55600,59546,54362
55653,59598,54449
55699,59643,54521
55739,59678,54579
55771,59703,54622
55791,59718,54649
55800,59722,54657
55801,59716,54648
55795,59701,54623
55777,59675,54585
55752,59641,54535
55720,59602,54472
55679,59560,54398
55627,59512,54310
55567,59459,54211
55504,59401,54105
55435,59339,53994
55358,59275,53878
55279,59209,53755
55200,59138,53624
55119,59063,53487
55030,58984,53350
54942,58904,53212
54859,58826,53074
54777,58750,52936
54694,58675,52794
54609,58599,52647
54528,58525,52497
54447,58452,52347
54365,58377,52202
54286,58303,52066
54217,58233,51937
54153,58164,51815
54092,58100,51700
54034,58042,51593
53980,57991,51494
53929,57947,51405
53881,57910,51321
53837,57876,51240
53797,57843,51165
53759,57811,51095
53722,57779,51030
53688,57746,50965
53654,57711,50901
53618,57675,50840
53581,57641,50784
53545,57606,50730
53511,57571,50674
53476,57538,50616
53443,57506,50559
53415,57475,50504
53390,57446,50450
53363,57418,50400
53338,57391,50353
53318,57368,50310
53299,57348,50271
53279,57328,50234
53259,57310,50199
53243,57296,50167
53230,57284,50141
53216,57271,50116
53201,57259,50090
53188,57250,50065
53176,57242,50040
53164,57232,50014
53152,57218,49984
53140,57201,49950
53125,57183,49917
53108,57163,49883
53089,57140,49847
53064,57115,49805
53033,57090,49760
52998,57063,49712
52965,57036,49661
52933,57009,49608
52900,56979,49554
52866,56946,49499
52835,56914,49439
52805,56884,49378
52776,56853,49318
52746,56824,49259
52716,56798,49200
52685,56775,49143
52649,56752,49088
52611,56726,49032
52577,56700,48975
52547,56675,48916
52514,56645,48855
52478,56611,48788
52442,56577,48716
52405,56542,48643
52365,56505,48569
52325,56469,48497
52287,56436,48431
52251,56409,48373
52216,56385,48322
52189,56364,48287
52178,56356,48278
52186,56366,48306
52221,56400,48379
52293,56469,48511
52410,56584,48720
52576,56742,49018
52792,56944,49404
53053,57188,49870
53355,57472,50405
53690,57787,50996
54045,58121,51620
54407,58462,52256
54765,58801,52884
55107,59129,53484
55429,59435,54043
55729,59715,54554
56000,59964,55009
56240,60182,55405
56445,60370,55745
56619,60529,56030
56763,60659,56266
56874,60761,56455
56957,60839,56600
57024,60895,56706
57074,60934,56780
57104,60957,56829
57118,60965,56855
57119,60960,56858
57105,60941,56839
57077,60908,56798
57037,60866,56738
56991,60820,56663
56939,60768,56576
56877,60712,56477
56806,60648,56364
56730,60575,56236
56650,60497,56099
56566,60411,55955
56478,60320,55802
56391,60230,55644
56302,60140,55487
56204,60044,55326
56099,59945,55156
55991,59843,54976
55880,59738,54788
55764,59632,54593
55647,59526,54393
55533,59420,54192
55423,59319,53999
55318,59225,53817
55227,59142,53653
55154,59071,53513
55096,59013,53399
55052,58968,53313
55021,58937,53258
55003,58917,53231
54998,58910,53233
55007,58922,53259
55033,58953,53311
55080,58999,53389
55143,59055,53489
55217,59120,53607
55299,59196,53739
55387,59280,53883
55476,59365,54034
55562,59446,54184
55643,59525,54326
55721,59597,54459
55791,59660,54580
55854,59714,54687
55907,59757,54778
55951,59791,54850
55983,59815,54898
56001,59828,54926
56006,59831,54934
56000,59823,54927
55984,59806,54904
55960,59782,54867
55933,59754,54816
55903,59722,54754
55863,59682,54681
55814,59635,54598
55760,59587,54507
55702,59536,54409
55637,59479,54304
55570,59419,54193
55503,59357,54076
55435,59293,53952
55360,59224,53827
55284,59150,53702
55207,59072,53576
55130,58996,53446
55050,58922,53315
54970,58851,53182
54891,58779,53048
54813,58707,52914
54736,58634,52784
54661,58563,52659
54589,58494,52539
54519,58427,52424
54455,58369,52316
54397,58321,52215
54346,58282,52120
54299,58243,52029
54255,58203,51941
54215,58162,51858
54178,58122,51780
54141,58081,51706
54103,58041,51634
54067,58003,51565
54031,57966,51497
53990,57931,51434
53947,57897,51372
53906,57864,51311
53868,57836,51252
53834,57811,51198
53804,57787,51145
53778,57763,51092
53754,57743,51042
53731,57725,50997
53708,57707,50958
53689,57692,50928
53671,57680,50898
53651,57664,50865
53628,57644,50831
53607,57622,50796
53585,57599,50761
53561,57572,50723
53538,57542,50682
53518,57513,50642
53501,57491,50603
53486,57471,50566
53472,57449,50532
53459,57428,50496
53443,57409,50459
53422,57393,50422
53402,57379,50386
53386,57366,50348
53369,57350,50308
53347,57332,50266
53320,57312,50222
53291,57289,50181
53261,57263,50140
53228,57237,50099
53195,57213,50055
53160,57189,50006
53125,57161,49953
53088,57128,49897
53054,57095,49836
53022,57063,49770
52992,57029,49701
52961,56993,49629
52928,56956,49554
52892,56919,49476
52850,56880,49395
52806,56839,49308
52762,56798,49219
52717,56757,49134
52667,56713,49052
52618,56670,48970
52573,56628,48889
52530,56587,48808
52485,56543,48730
52439,56499,48661
52398,56459,48602
52367,56429,48556
52348,56412,48531
52348,56412,48537
52374,56438,48584
52434,56499,48687
52533,56598,48861
52678,56740,49119
52873,56926,49470
53115,57157,49913
53401,57432,50437
53721,57739,51022
54065,58069,51641
54418,58409,52272
54766,58747,52894
55106,59074,53490
55432,59383,54049
55734,59666,54561
56004,59920,55019
56244,60145,55423
56454,60338,55770
56631,60499,56062
56776,60629,56298
56894,60731,56484
56990,60806,56626
57062,60858,56727
57109,60891,56795
57138,60911,56836
57150,60919,56853
57145,60913,56847
57127,60896,56822
57101,60870,56781
57067,60834,56724
57021,60789,56651
56966,60735,56563
56902,60674,56465
56833,60607,56360
56758,60536,56250
56678,60462,56134
56594,60389,56011
56508,60314,55881
56422,60237,55740
56337,60159,55588
56252,60082,55428
56162,59999,55260
56067,59908,55080
55969,59809,54889
55869,59705,54691
55767,59599,54494
55663,59496,54303
55559,59394,54120
55454,59297,53947
55354,59208,53788
55262,59130,53649
55183,59060,53534
55123,59002,53448
55080,58958,53392
55052,58932,53366
55040,58929,53369
55046,58944,53401
55067,58972,53458
55102,59010,53536
55154,59056,53629
55221,59112,53737
55295,59172,53857
55375,59237,53985
55460,59307,54116
55544,59380,54248
55620,59450,54374
55687,59517,54491
55749,59581,54598
55803,59636,54692
55845,59678,54770
55873,59708,54828
55892,59728,54865
55902,59736,54883
55901,59732,54883
55887,59716,54865
55859,59690,54829
55820,59653,54778
55772,59607,54716
55718,59553,54641
55661,59492,54552
55600,59428,54450
55532,59362,54336
55460,59291,54213
55386,59218,54085
55311,59144,53955
55234,59069,53820
55153,58993,53680
55073,58917,53536
54993,58839,53390
54910,58762,53244
54827,58686,53096
54745,58608,52945
54659,58527,52793
54568,58442,52638
54480,58358,52484
54397,58278,52337
54318,58199,52197
54239,58123,52062
54166,58052,51935
54099,57987,51818
54036,57927,51713
53976,57870,51618
53921,57820,51529
53874,57777,51447
53834,57736,51371
53796,57699,51302
53763,57667,51239
53733,57638,51177
53702,57610,51115
53669,57582,51054
53640,57555,50992
53614,57528,50932
53587,57503,50873
53562,57478,50815
53542,57453,50757
53525,57431,50706
53508,57408,50661
53489,57385,50620
53470,57361,50582
53449,57337,50546
53426,57314,50511
53403,57294,50477
53383,57277,50444
53365,57262,50414
53345,57248,50388
53329,57237,50367
53316,57225,50348
53302,57212,50329
53284,57197,50309
53266,57181,50288
53253,57168,50270
53241,57156,50254
53230,57144,50235
53222,57132,50216
53215,57120,50198
53206,57105,50177
53191,57087,50153
53171,57069,50125
53151,57050,50092
53131,57029,50060
53109,57005,50026
53089,56980,49990
53069,56954,49949
53047,56927,49906
53023,56896,49860
52998,56864,49814
52973,56836,49768
52947,56811,49723
52920,56788,49676
52897,56765,49625
52873,56741,49575
52842,56712,49520
52808,56680,49458
52774,56645,49388
52738,56608,49318
52696,56568,49247
52654,56526,49174
52614,56486,49101
52573,56446,49029
52528,56406,48957
52483,56366,48888
52443,56331,48825
52407,56302,48770
52373,56276,48721
52344,56256,48684
52330,56250,48670
52339,56263,48694
52378,56301,48767
52456,56374,48905
52576,56488,49121
52740,56644,49417
52946,56840,49792
53194,57075,50240
53479,57346,50752
53790,57642,51308
54118,57952,51886
54456,58267,52466
54793,58579,53031
55116,58877,53567
55415,59155,54064
55691,59410,54520
55940,59639,54930
56158,59839,55290
56343,60012,55598
56499,60158,55856
56629,60277,56069
56729,60368,56238
56803,60434,56363
56854,60478,56448
56885,60502,56496
56894,60508,56512
56884,60495,56501
56864,60468,56470
56834,60431,56422
56793,60388,56358
56746,60341,56282
56700,60294,56196
56652,60245,56101
56601,60192,55997
56548,60134,55889
56492,60075,55778
56432,60013,55666
56361,59946,55552
56281,59873,55430
56195,59792,55293
56099,59701,55139
55990,59596,54967
55873,59483,54778
55749,59365,54575
55617,59242,54358
55477,59114,54128
55335,58982,53889
55199,58850,53648
55068,58721,53412
54945,58601,53189
54836,58490,52992
54745,58394,52826
54669,58317,52694
54610,58263,52597
54570,58227,52535
54548,58207,52506
54541,58203,52507
54548,58211,52535
54569,58231,52590
54603,58264,52669
54649,58312,52766
54707,58372,52879
54776,58440,53005
54854,58519,53141
54937,58603,53284
55020,58689,53429
55102,58773,53570
55181,58852,53701
55250,58920,53818
55307,58975,53919
55354,59017,54002
55389,59046,54064
55410,59063,54102
55421,59070,54119
55425,59067,54116
55419,59058,54097
55400,59041,54060
55371,59013,54005
55335,58974,53938
55293,58926,53865
55244,58869,53784
55192,58809,53694
55139,58751,53595
55083,58694,53488
55024,58634,53375
54963,58572,53258
54900,58510,53138
54829,58444,53013
54748,58373,52882
54662,58298,52743
54574,58219,52599
54481,58136,52450
54383,58052,52298
54288,57966,52145
54200,57881,51993
54116,57796,51844
54035,57709,51697
53957,57625,51552
53885,57542,51408
53818,57463,51268
53752,57390,51136
53687,57327,51015
53625,57269,50905
53564,57213,50801
53505,57158,50702
53451,57106,50610
53400,57056,50523
53349,57006,50441
53297,56958,50361
53246,56910,50281
53196,56867,50202
53149,56828,50126
53106,56795,50053
53070,56767,49984
53039,56742,49918
53008,56718,49856
52976,56696,49798
52947,56676,49741
52921,56657,49688
52897,56639,49639
52874,56621,49593
52853,56606,49551
52834,56589,49512
52811,56568,49474
52784,56545,49436
52755,56523,49396
52729,56501,49356
52704,56480,49316
52682,56459,49276
52664,56440,49237
52646,56418,49197
52623,56389,49155
52601,56358,49112
52579,56330,49066
52554,56302,49017
52524,56275,48968
52493,56251,48919
52465,56230,48871
52437,56209,48827
52409,56189,48786
52386,56172,48747
52365,56156,48707
52342,56137,48667
52314,56113,48622
52283,56085,48574
52250,56056,48525
52218,56027,48474
52184,55995,48417
52150,55960,48354
52114,55922,48286
52076,55883,48216
52033,55842,48144
51992,55802,48071
51950,55763,48000
51903,55724,47927
51853,55684,47851
51803,55643,47771
51756,55601,47690
51707,55558,47607
51656,55514,47523
51609,55469,47446
51567,55426,47375
51527,55386,47310
51495,55354,47259
51479,55335,47229
51483,55335,47232
51509,55360,47281
51568,55416,47388
51668,55512,47563
51811,55649,47816
51995,55830,48151
52223,56052,48567
52495,56313,49057
52798,56603,49607
53123,56912,50197
53460,57232,50804
53801,57552,51409
54135,57862,51998
54451,58157,52557
54747,58437,53077
55020,58698,53550
55266,58934,53970
55478,59144,54339
55662,59326,54655
55820,59482,54919
55954,59612,55134
56062,59713,55303
56145,59789,55428
56206,59845,55516
56245,59880,55569
56263,59894,55589
56262,59889,55581
56244,59865,55545
56208,59824,55484
56153,59769,55403
56088,59704,55308
56013,59631,55198
55926,59549,55067
55832,59457,54917
55731,59363,54756
55624,59266,54588
55508,59164,54409
55390,59057,54219
55273,58944,54018
55155,58826,53806
55030,58702,53583
54899,58573,53348
54768,58444,53102
54636,58317,52856
54506,58192,52615
54382,58074,52382
54264,57963,52164
54151,57860,51962
54044,57767,51778
53948,57685,51613
53869,57615,51471
53805,57557,51356
53753,57512,51267
53716,57479,51206
53694,57462,51174
53686,57460,51170
53691,57473,51192
53711,57500,51240
53748,57539,51312
53797,57588,51404
53853,57647,51513
53919,57716,51638
53996,57792,51778
54079,57872,51926
54161,57951,52080
54241,58025,52230
54317,58093,52372
54386,58155,52504
54448,58210,52622
54503,58257,52720
54547,58296,52798
54572,58324,52853
54581,58340,52887
54582,58343,52902
54576,58337,52898
54560,58318,52873
54536,58290,52827
54503,58255,52761
54463,58212,52681
54414,58161,52591
54357,58104,52490
54295,58043,52381
54229,57981,52264
54155,57915,52140
54075,57844,52011
53992,57767,51874
53907,57687,51729
53821,57607,51582
53737,57531,51438
53659,57458,51295
53580,57383,51157
53497,57307,51024
53417,57233,50893
53345,57164,50765
53279,57100,50641
53216,57041,50523
53157,56989,50406
53104,56943,50293
53052,56900,50187
53003,56859,50089
52957,56822,49999
52913,56785,49913
52869,56745,49832
52821,56702,49754
52773,56659,49678
52728,56616,49605
52685,56577,49538
52642,56544,49476
52602,56516,49420
52568,56492,49366
52537,56470,49309
52508,56448,49252
52482,56426,49195
52461,56404,49145
52442,56383,49103
52425,56364,49069
52415,56350,49041
52408,56340,49017
52399,56332,48993
52389,56321,48969
52380,56306,48943
52368,56287,48915
52352,56266,48888
52333,56245,48861
52315,56226,48833
52298,56211,48808
52281,56199,48786
52268,56188,48765
52261,56176,48744
52256,56164,48719
52249,56148,48688
52240,56133,48653
52230,56122,48618
52218,56113,48584
52203,56106,48550
52185,56099,48513
52165,56091,48473
52143,56080,48432
52119,56065,48389
52098,56046,48347
52076,56023,48306
52050,55998,48266
52020,55973,48223
51992,55949,48175
51966,55925,48124
51940,55899,48074
51915,55874,48028
51893,55851,47986
51874,55831,47948
51860,55815,47917
51850,55803,47895
51847,55797,47884
51850,55800,47891
51865,55817,47922
51905,55859,47992
51979,55930,48114
52088,56031,48299
52234,56166,48557
52420,56340,48892
52646,56556,49302
52909,56807,49782
53200,57088,50315
53511,57392,50884
53837,57708,51470
54166,58022,52055
54482,58318,52620
54782,58596,53152
55064,58856,53647
55322,59096,54099
55552,59311,54498
55755,59497,54843
55931,59653,55135
56079,59782,55375
56197,59887,55562
56291,59970,55702
56361,60032,55803
56408,60075,55872
56434,60097,55912
56445,60105,55926
56442,60100,55916
56423,60080,55883
56390,60043,55828
56347,59991,55756
56292,59930,55667
56224,59861,55564
56144,59789,55450
56061,59715,55330
55973,59638,55198
55881,59557,55052
55785,59470,54895
55686,59375,54727
55580,59272,54545
55466,59161,54350
55344,59043,54145
55219,58923,53933
55093,58805,53716
54966,58689,53498
54841,58569,53278
54718,58448,53060
54599,58330,52855
54488,58221,52665
54392,58125,52493
54312,58047,52341
54249,57987,52213
54199,57943,52111
54162,57914,52035
54139,57899,51988
54130,57894,51970
54135,57903,51981
54160,57927,52017
54202,57967,52080
54257,58017,52166
54320,58072,52275
54389,58133,52402
54466,58203,52544
54551,58282,52699
54637,58365,52861
54725,58449,53020
54813,58536,53174
54893,58618,53316
54962,58690,53445
55023,58749,53558
55074,58799,53651
55114,58839,53725
55143,58868,53781
55164,58887,53817
55175,58896,53832
55170,58893,53828
55153,58879,53803
55131,58857,53761
55104,58829,53706
55070,58797,53638
55026,58756,53557
54974,58706,53464
54918,58647,53360
54856,58581,53247
54788,58513,53126
54718,58445,52999
54645,58375,52871
54567,58304,52743
54488,58234,52616
54410,58166,52489
54331,58099,52364
54251,58032,52236
54174,57964,52106
54101,57897,51979
54032,57827,51857
53961,57758,51739
53891,57689,51622
53824,57623,51508
53760,57559,51395
53696,57497,51281
53633,57439,51168
53576,57384,51061
53524,57334,50959
53473,57288,50863
53422,57243,50769
53373,57199,50679
53327,57157,50594
53284,57117,50512
53243,57080,50433
53207,57047,50359
53172,57014,50292
53135,56982,50231
53097,56950,50174
53064,56924,50122
53036,56905,50077
53013,56889,50038
52997,56877,50005
52985,56868,49974
52975,56860,49944
52963,56851,49915
52952,56841,49885
52940,56829,49854
52926,56813,49823
52909,56797,49792
52896,56784,49763
52883,56771,49737
52867,56757,49716
52848,56741,49694
52825,56723,49666
52799,56703,49632
52772,56682,49593
52744,56662,49549
52719,56642,49503
52698,56622,49459
52675,56597,49417
52651,56569,49374
52629,56546,49330
52608,56526,49287
52586,56507,49242
52565,56487,49196
52547,56468,49147
52528,56446,49093
52501,56419,49031
52470,56390,48965
52436,56359,48899
52399,56327,48835
52361,56295,48774
52327,56265,48717
52299,56239,48671
52277,56219,48642
52262,56210,48633
52261,56219,48654
52284,56248,48715
52339,56303,48831
52434,56394,49015
52576,56529,49277
52771,56713,49625
53016,56944,50057
53305,57214,50563
53631,57516,51127
53983,57840,51725
54344,58175,52336
54702,58508,52940
55048,58832,53523
55377,59142,54073
55676,59428,54578
55941,59682,55029
56173,59906,55424
56377,60100,55769
56553,60261,56065
56702,60392,56315
56825,60499,56522
56922,60585,56686
56994,60652,56811
57048,60701,56900
57087,60730,56957
57109,60741,56986
57110,60736,56989
57096,60719,56968
57073,60693,56930
57043,60658,56879
57002,60618,56816
56954,60574,56742
56901,60528,56658
56843,60479,56566
56783,60425,56466
56719,60365,56356
56654,60303,56239
56582,60235,56113
56503,60158,55979
56418,60074,55837
56328,59984,55689
56233,59888,55536
56132,59784,55371
56028,59677,55195
55923,59569,55014
55815,59461,54831
55708,59353,54648
55606,59249,54469
55508,59150,54300
55415,59062,54147
55333,58986,54012
55266,58924,53899
55214,58875,53813
55177,58840,53751
55153,58823,53711
55146,58823,53693
55157,58834,53699
55179,58856,53729
55214,58890,53782
55262,58937,53857
55319,58995,53950
55379,59058,54054
55447,59126,54165
55519,59195,54281
55592,59261,54399
55660,59325,54519
55726,59390,54636
55789,59452,54745
55846,59509,54844
55893,59555,54927
55929,59590,54993
55959,59618,55043
55981,59636,55079
55992,59643,55097
55994,59640,55098
55989,59628,55080
55973,59607,55045
55944,59581,54995
55906,59550,54930
55863,59511,54857
55810,59461,54773
55747,59402,54674
55679,59336,54563
55606,59265,54442
55525,59191,54316
55442,59115,54185
55362,59038,54049
55284,58963,53910
55203,58888,53769
55120,58813,53626
55040,58741,53483
54962,58670,53343
54883,58599,53208
54802,58528,53078
54727,58458,52948
54655,58388,52820
54584,58319,52697
54514,58251,52576
54448,58186,52457
54385,58126,52341
54326,58069,52231
54268,58012,52123
54214,57955,52018
54161,57901,51916
54107,57848,51819
54051,57795,51725
54000,57746,51633
53954,57702,51544
53913,57659,51460
53876,57617,51383
53846,57580,51315
53816,57547,51255
53785,57518,51200
53758,57494,51148
53737,57476,51100
53717,57462,51057
53694,57448,51015
53671,57433,50973
53652,57417,50932
53632,57398,50894
53612,57378,50856
53592,57358,50822
53575,57343,50794
53557,57331,50772
53536,57321,50750
53513,57310,50724
53491,57297,50693
53469,57277,50659
53446,57255,50623
53426,57234,50586
53407,57214,50547
53385,57193,50510
53363,57168,50472
53343,57140,50434
53321,57113,50397
53295,57086,50358
53266,57058,50314
53235,57030,50265
53204,57003,50211
53170,56977,50153
53134,56948,50092
53100,56919,50026
53065,56888,49957
53027,56856,49884
52989,56822,49811
52951,56786,49738
52911,56750,49665
52869,56714,49593
52829,56678,49518
52792,56641,49444
52755,56602,49373
52719,56564,49308
52686,56533,49253
52658,56509,49210
52639,56497,49186
52635,56498,49189
52656,56519,49230
52707,56568,49324
52797,56649,49487
52934,56772,49731
53118,56939,50060
53349,57150,50469
53620,57404,50953
53924,57694,51496
54253,58008,52078
54595,58338,52677
54938,58673,53275
55272,59000,53857
55593,59312,54405
55895,59601,54907
56171,59862,55360
56420,60092,55765
56639,60293,56117
56828,60466,56415
56984,60607,56660
57109,60719,56858
57208,60803,57014
57282,60862,57131
57335,60901,57213
57370,60923,57260
57389,60928,57279
57391,60920,57276
57377,60900,57252
57352,60872,57209
57321,60839,57149
57282,60801,57078
57233,60756,56998
57174,60704,56905
57111,60644,56803
57043,60580,56698
56971,60513,56588
56898,60442,56475
56826,60368,56357
56755,60292,56235
56677,60212,56106
56594,60127,55965
56506,60035,55811
56411,59939,55646
56309,59839,55473
56203,59736,55292
56094,59635,55109
55983,59538,54928
55875,59442,54752
55775,59350,54585
55685,59264,54430
55604,59186,54290
55532,59118,54169
55473,59062,54070
55429,59020,53995
55398,58991,53946
55378,58976,53923
55374,58973,53924
55387,58983,53945
55414,59004,53985
55455,59035,54046
55511,59079,54129
55580,59136,54230
55655,59201,54344
55732,59271,54465
55810,59343,54585
55887,59418,54705
55958,59491,54823
56023,59561,54936
56083,59625,55040
56138,59676,55130
56181,59715,55203
56212,59743,55260
56231,59760,55298
56239,59766,55318
56233,59761,55319
56216,59746,55300
56191,59723,55262
56157,59690,55208
56115,59646,55143
56068,59598,55067
56017,59552,54980
55960,59506,54884
55901,59457,54779
55840,59405,54671
55778,59348,54560
55716,59287,54445
55652,59222,54327
55586,59154,54207
55517,59085,54084
55445,59013,53958
55370,58941,53830
55296,58870,53700
55224,58802,53570
55149,58737,53441
55070,58674,53313
54994,58611,53184
54922,58545,53059
54852,58478,52939
54782,58413,52821
54714,58351,52703
54649,58290,52583
54581,58229,52466
54515,58165,52353
54456,58104,52249
54404,58048,52156
54355,57996,52072
54309,57950,51991
54268,57913,51915
54231,57884,51846
54197,57858,51784
54164,57833,51725
54132,57807,51666
54102,57780,51608
54074,57753,51551
54049,57727,51496
54030,57704,51442
54011,57684,51394
53988,57667,51352
53962,57650,51313
53938,57631,51272
53913,57609,51230
53883,57581,51186
53853,57551,51140
53824,57524,51093
53796,57499,51050
53766,57476,51010
53737,57453,50970
53710,57431,50929
53687,57412,50889
53669,57394,50854
53657,57377,50821
53649,57359,50790
53639,57338,50756
53625,57316,50719
53609,57295,50683
53596,57279,50649
53581,57264,50620
53561,57251,50591
53538,57237,50560
53514,57220,50525
53489,57201,50484
53463,57176,50438
53434,57147,50388
53402,57114,50336
53365,57081,50279
53323,57045,50216
53282,57008,50148
53241,56971,50077
53196,56934,50002
53148,56896,49922
53098,56857,49839
53051,56819,49757
53007,56782,49679
52967,56746,49604
52932,56710,49533
52900,56675,49464
52869,56642,49396
52835,56607,49327
52798,56569,49256
52756,56528,49185
52710,56488,49114
52667,56452,49045
52631,56423,48981
52599,56396,48928
52575,56376,48892
52569,56371,48886
52586,56392,48924
52632,56446,49015
52714,56535,49167
52843,56664,49395
53022,56838,49712
53251,57055,50121
53526,57319,50618
53843,57623,51186
54193,57955,51802
54557,58300,52443
54923,58647,53085
55282,58987,53708
55625,59313,54297
55943,59613,54840
56229,59880,55327
56485,60113,55757
56709,60313,56127
56897,60482,56440
57052,60621,56698
57182,60732,56908
57288,60822,57074
57368,60892,57200
57426,60941,57288
57468,60970,57343
57493,60982,57373
57501,60981,57383
57494,60968,57371
57478,60944,57339
57452,60911,57289
57414,60869,57223
57367,60823,57146
57314,60775,57059
57252,60724,56963
57185,60668,56856
57114,60606,56737
57040,60539,56611
56960,60464,56478
56875,60385,56339
56788,60301,56193
56699,60211,56037
56604,60114,55872
56503,60012,55697
56399,59910,55511
56293,59806,55316
56180,59699,55119
56061,59589,54926
55944,59479,54737
55835,59377,54554
55733,59282,54383
55638,59195,54230
55556,59120,54096
55490,59057,53984
55439,59010,53898
55407,58981,53840
55391,58970,53814
55391,58973,53819
55406,58990,53849
55434,59020,53903
55477,59061,53977
55531,59112,54069
55594,59169,54178
55664,59231,54299
55740,59297,54426
55816,59364,54556
55889,59428,54685
55958,59491,54807
56024,59553,54919
56081,59611,55021
56125,59657,55108
56158,59693,55176
56182,59721,55223
56196,59741,55249
56200,59749,55258
56196,59745,55250
56185,59732,55227
56166,59712,55190
56140,59683,55142
56110,59650,55084
56078,59613,55014
56040,59571,54932
55992,59525,54841
55938,59473,54740
55879,59415,54630
55810,59355,54514
55734,59291,54392
55652,59223,54262
55567,59149,54124
55480,59067,53981
55391,58981,53833
55301,58897,53684
55214,58818,53537
55130,58743,53393
55049,58670,53250
54970,58596,53107
54894,58522,52964
54818,58447,52821
54744,58372,52683
54672,58299,52551
54601,58232,52426
54529,58168,52305
54459,58103,52186
54398,58041,52073
54344,57982,51965
54294,57926,51861
54245,57871,51759
54195,57820,51660
54143,57773,51566
54089,57727,51480
54037,57682,51399
53987,57636,51324
53937,57592,51254
53888,57549,51188
53845,57511,51125
53812,57476,51065
53779,57441,51005
53743,57407,50948
53709,57376,50895
53682,57351,50843
53659,57330,50790
53635,57311,50740
53611,57295,50696
53589,57283,50658
53566,57273,50623
53544,57262,50590
53522,57249,50555
53502,57235,50518
53479,57218,50477
53450,57195,50434
53412,57165,50388
53368,57130,50339
53322,57092,50285
53280,57053,50230
53246,57018,50177
53215,56983,50127
53183,56949,50075
53148,56916,50021
53115,56886,49968
53085,56860,49918
53057,56835,49867
53027,56810,49817
52999,56785,49767
52971,56760,49716
52942,56733,49664
52911,56702,49607
52878,56668,49548
52841,56631,49488
52799,56591,49425
52750,56550,49356
52701,56507,49283
52652,56463,49208
52602,56418,49131
52555,56374,49052
52512,56333,48974
52471,56294,48899
52431,56255,48823
52388,56213,48744
52343,56168,48660
52297,56125,48573
52247,56086,48486
52196,56046,48400
52142,56004,48317
52088,55960,48236
52034,55917,48154
51983,55874,48071
51938,55833,47988
51898,55790,47908
51860,55747,47832
51822,55706,47761
51787,55672,47696
51756,55641,47639
51730,55614,47594
51714,55593,47567
51715,55587,47566
51734,55602,47602
51779,55644,47687
51858,55722,47836
51979,55840,48063
52145,56003,48378
52360,56213,48783
52626,56467,49271
52935,56762,49832
53275,57087,50450
53636,57430,51100
54008,57783,51761
54381,58132,52414
54740,58467,53037
55078,58781,53617
55389,59069,54144
55665,59325,54610
55901,59547,55014
56100,59735,55356
56263,59890,55638
56391,60013,55863
56487,60105,56038
56557,60171,56168
56607,60215,56259
56636,60238,56314
56646,60241,56335
56643,60232,56329
56630,60215,56297
56608,60186,56247
56572,60146,56182
56525,60098,56098
56467,60039,55996
56397,59967,55876
56314,59881,55741
56222,59790,55595
56125,59695,55439
56020,59595,55273
55908,59491,55096
55790,59384,54906
55669,59275,54705
55542,59161,54494
55410,59042,54276
55275,58918,54050
55140,58792,53818
55002,58664,53580
54860,58534,53339
54724,58409,53107
54602,58292,52891
54493,58185,52693
54396,58093,52514
54314,58013,52357
54245,57947,52225
54184,57896,52120
54134,57858,52041
54100,57835,51989
54082,57824,51964
54076,57822,51965
54080,57830,51988
54098,57852,52033
54131,57887,52099
54176,57934,52186
54234,57989,52291
54303,58050,52411
54380,58117,52540
54462,58187,52675
54548,58259,52812
54633,58333,52950
54712,58403,53081
54778,58465,53198
54830,58518,53302
54870,58560,53389
54900,58593,53455
54918,58616,53500
54926,58628,53526
54925,58627,53534
54913,58615,53520
54890,58594,53487
54858,58565,53439
54819,58531,53375
54772,58487,53295
54717,58434,53200
54658,58373,53094
54594,58306,52978
54524,58237,52853
54450,58169,52723
54375,58102,52590
54299,58036,52458
54220,57969,52327
54140,57900,52194
54066,57828,52058
53993,57756,51920
53915,57682,51781
53835,57607,51642
53757,57533,51505
53682,57464,51369
53608,57398,51233
53536,57332,51098
53467,57266,50965
53398,57201,50838
53329,57139,50717
53264,57082,50601
53206,57032,50493
53153,56987,50396
53099,56945,50311
53048,56903,50232
53004,56864,50158
52967,56824,50088
52930,56784,50020
52894,56748,49951
52859,56716,49884
52826,56688,49821
52796,56662,49763
52770,56637,49712
52746,56613,49665
52721,56590,49620
52693,56568,49574
52669,56549,49531
52650,56535,49496
52633,56525,49470
52618,56515,49447
52605,56508,49426
52592,56500,49405
52580,56493,49381
52568,56485,49354
52557,56475,49328
52549,56463,49304
52540,56450,49282
52529,56437,49263
52519,56424,49247
52509,56412,49232
52496,56398,49216
52481,56383,49192
52470,56370,49166
52462,56360,49141
52453,56349,49116
52438,56339,49088
52422,56329,49058
52403,56315,49025
52378,56301,48992
52350,56286,48956
52325,56271,48921
52299,56255,48884
52272,56233,48847
52248,56207,48807
52228,56179,48766
52205,56153,48723
52179,56126,48675
52150,56100,48624
52127,56077,48569
52103,56055,48512
52075,56030,48457
52046,56002,48400
52019,55973,48341
51991,55946,48279
51959,55916,48215
51924,55883,48150
51888,55848,48089
51850,55810,48034
51810,55773,47981
51775,55741,47930
51750,55717,47888
51738,55704,47859
51736,55704,47848
51752,55719,47864
51790,55753,47919
51851,55814,48026
51939,55909,48195
52065,56040,48438
52238,56208,48764
52456,56415,49168
52718,56661,49645
53023,56944,50191
53361,57255,50787
53716,57581,51407
54077,57915,52028
54431,58247,52635
54772,58567,53215
55089,58871,53756
55379,59150,54249
55642,59400,54687
55872,59616,55069
56067,59796,55395
56227,59946,55666
56357,60065,55884
56458,60157,56053
56530,60221,56177
56576,60260,56259
56599,60277,56304
56602,60276,56320
56589,60261,56311
56564,60236,56277
56532,60204,56223
56493,60161,56152
56443,60107,56062
56384,60045,55955
56319,59980,55837
56244,59912,55708
56162,59837,55568
56074,59753,55415
55982,59662,55253
55882,59565,55085
55776,59463,54908
55667,59357,54721
55556,59248,54525
55442,59135,54322
55324,59018,54110
55204,58898,53891
55081,58777,53665
54954,58655,53436
54826,58535,53212
54705,58422,52998
54591,58316,52800
54484,58219,52623
54387,58134,52468
54306,58065,52338
54248,58016,52237
54211,57985,52166
54192,57968,52124
54191,57967,52111
54207,57983,52129
54237,58013,52177
54281,58056,52253
54340,58109,52357
54413,58170,52484
54490,58237,52628
54570,58314,52781
54652,58396,52938
54733,58479,53099
54811,58560,53256
54891,58638,53408
54976,58714,53552
55058,58788,53684
55129,58852,53799
55182,58902,53891
55220,58938,53959
55243,58962,54004
55252,58974,54027
55250,58976,54030
55237,58966,54013
55214,58944,53976
55181,58914,53920
55141,58879,53847
55096,58838,53762
55045,58791,53667
54988,58741,53563
54927,58687,53451
54862,58628,53332
54792,58565,53208
54718,58500,53077
54645,58430,52940
54573,58359,52802
54500,58286,52662
54422,58210,52520
54344,58134,52376
54267,58060,52233
54188,57986,52091
54108,57913,51952
54031,57842,51816
53960,57772,51685
53891,57703,51557
53821,57636,51433
53755,57572,51315
53692,57510,51201
53630,57450,51094
53571,57392,50993
53516,57339,50898
53466,57291,50806
53415,57247,50718
53367,57206,50632
53327,57170,50550
53292,57137,50472
53255,57105,50397
53217,57072,50324
53178,57036,50254
53137,56998,50186
53093,56959,50121
53051,56920,50059
53016,56884,50000
52983,56853,49945
52951,56825,49893
52925,56802,49846
52905,56783,49802
52887,56766,49764
52870,56753,49730
52857,56742,49696
52847,56735,49663
52837,56729,49632
52823,56721,49600
52809,56712,49568
52797,56704,49536
52782,56694,49504
52762,56681,49472
52743,56668,49439
52725,56654,49408
52705,56638,49379
52680,56618,49350
52657,56597,49320
52637,56575,49292
52617,56553,49263
52595,56529,49232
52577,56507,49197
52560,56488,49162
52541,56471,49128
52521,56454,49093
52502,56438,49055
52483,56420,49015
52458,56399,48973
52432,56376,48927
52406,56352,48878
52379,56327,48828
52350,56298,48776
