green_channel,red_channel,ir_channel
23009,47094,10287
22923,47020,10152
22842,46947,10019
22761,46873,9887
22682,46802,9758
22606,46736,9634
22531,46670,9515
22453,46603,9396
22370,46535,9279
22286,46466,9165
22201,46394,9051
22112,46318,8929
22022,46242,8804
21934,46172,8680
21851,46109,8566
21783,46063,8472
21748,46045,8418
21761,46066,8428
21838,46142,8528
21995,46284,8749
22249,46511,9127
22615,46839,9698
23105,47275,10475
23706,47808,11433
24383,48410,12515
25092,49041,13654
25795,49668,14790
26469,50269,15877
27098,50831,16888
27673,51340,17799
28181,51784,18593
28614,52158,19265
28974,52464,19817
29266,52710,20261
29494,52899,20610
29663,53032,20874
29785,53121,21067
29867,53180,21201
29912,53215,21282
29927,53230,21315
29924,53227,21308
29910,53211,21277
29887,53185,21228
29851,53154,21159
29805,53121,21078
29753,53084,20996
29696,53038,20910
29640,52987,20816
29589,52938,20718
29538,52890,20617
29478,52835,20510
29412,52773,20402
29346,52705,20296
29276,52634,20191
29201,52562,20080
29119,52487,19958
29030,52411,19825
28935,52330,19681
28835,52243,19525
28731,52152,19363
28627,52058,19201
28518,51964,19042
28408,51874,18886
28308,51793,18738
28223,51721,18606
28151,51657,18494
28087,51601,18399
28029,51554,18320
27982,51518,18257
27943,51494,18211
27911,51474,18180
27883,51460,18157
27858,51453,18139
27842,51450,18126
27835,51450,18119
27834,51453,18117
27833,51452,18112
27826,51447,18101
27815,51442,18082
27804,51436,18060
27793,51426,18035
27778,51408,17996
27753,51381,17941
27719,51345,17875
27675,51298,17803
27619,51240,17714
27551,51174,17604
27473,51101,17480
27385,51021,17343
27287,50933,17195
27188,50844,17038
27089,50754,16878
26982,50660,16714
26869,50564,16546
26758,50471,16379
26652,50381,16215
26547,50288,16052
26440,50194,15887
26333,50099,15720
26226,50003,15553
26117,49907,15388
26006,49813,15224
25901,49722,15062
25805,49634,14905
25712,49549,14756
25618,49469,14611
25527,49391,14465
25439,49313,14320
25354,49238,14182
25264,49165,14045
25168,49088,13900
25068,49005,13752
24965,48912,13600
24857,48816,13443
24746,48721,13285
24632,48623,13128
24510,48522,12969
24383,48420,12806
24258,48321,12645
24140,48223,12486
24026,48125,12322
23915,48030,12149
23810,47940,11974
23708,47850,11801
23604,47763,11630
23503,47679,11463
23408,47597,11300
23313,47512,11137
23213,47425,10975
23110,47339,10815
23007,47256,10657
22904,47173,10501
22798,47085,10348
22693,46996,10196
22597,46911,10045
22505,46828,9894
22413,46746,9748
22321,46665,9608
22232,46583,9471
22147,46503,9333
22063,46427,9197
21983,46356,9072
21904,46289,8959
21824,46223,8852
21747,46161,8746
21673,46101,8643
21598,46040,8539
21518,45977,8433
21439,45913,8323
21363,45849,8212
21288,45785,8097
21209,45716,7979
21131,45648,7862
21056,45583,7747
20983,45521,7633
20908,45456,7518
20826,45388,7399
20744,45319,7277
20664,45253,7154
20582,45191,7031
20501,45132,6915
20429,45079,6811
20373,45038,6730
20341,45017,6684
20350,45034,6699
20419,45103,6805
20562,45239,7027
20796,45453,7391
21130,45758,7921
21573,46162,8631
22120,46658,9515
22756,47229,10544
23449,47850,11666
24161,48484,12814
24860,49101,13926
25515,49674,14957
26106,50188,15883
26626,50640,16696
27068,51025,17389
27432,51342,17957
27729,51597,18410
27965,51795,18764
28144,51941,19027
28268,52041,19209
28348,52104,19323
28395,52140,19386
28415,52152,19410
28408,52142,19396
28378,52115,19346
28332,52077,19271
28276,52026,19178
28215,51965,19067
28149,51898,18946
28076,51827,18817
27993,51752,18680
27906,51674,18535
27821,51594,18386
27735,51512,18239
27642,51428,18089
27544,51340,17932
27442,51251,17771
27337,51159,17608
27225,51062,17441
27108,50963,17267
26990,50865,17093
26872,50765,16922
26761,50666,16755
26661,50576,16594
26571,50499,16441
26487,50430,16298
26410,50368,16171
26344,50314,16061
26291,50271,15968
26254,50241,15897
26234,50225,15852
26227,50221,15830
26227,50223,15829
26236,50233,15844
26257,50249,15870
26283,50271,15904
26311,50296,15949
26337,50322,15998
26359,50341,16041
26377,50356,16075
26389,50367,16101
26395,50373,16115
26394,50374,16114
26384,50367,16098
26365,50352,16071
26340,50330,16030
26309,50303,15973
26268,50269,15901
26216,50224,15816
26156,50169,15720
26092,50106,15610
26023,50038,15486
25947,49966,15355
25863,49890,15215
25773,49809,15068
25681,49724,14920
25586,49633,14772
25484,49535,14622
25372,49433,14461
25253,49329,14289
25133,49223,14113
25013,49113,13933
24888,48998,13745
24759,48885,13556
24630,48774,13369
24500,48660,13176
24365,48543,12979
24227,48425,12783
24091,48308,12592
23954,48191,12404
23816,48077,12216
23683,47970,12030
23560,47871,11847
23445,47773,11665
23330,47676,11482
23215,47581,11301
23098,47485,11119
22976,47383,10933
22851,47277,10742
22722,47169,10547
22586,47057,10348
22451,46942,10147
22319,46827,9951
22192,46715,9763
22071,46606,9581
21949,46500,9400
21829,46400,9225
21715,46305,9053
21606,46215,8886
21500,46128,8731
21396,46046,8585
21289,45966,8440
21178,45883,8289
21066,45799,8136
20961,45715,7986
20860,45635,7840
20760,45556,7696
20659,45476,7554
20558,45394,7416
20449,45308,7278
20334,45219,7141
20220,45129,7008
20112,45043,6877
20006,44959,6741
19898,44871,6594
19783,44778,6439
19665,44683,6282
19549,44589,6126
19433,44492,5964
19315,44391,5798
19195,44288,5631
19068,44183,5462
18934,44072,5297
18803,43963,5138
18686,43865,4992
18590,43784,4869
18526,43731,4787
18513,43724,4775
18568,43778,4857
18702,43900,5051
18921,44099,5382
19236,44385,5872
19655,44764,6530
20182,45238,7359
20804,45796,8349
21491,46415,9459
22208,47063,10624
22919,47703,11769
23595,48305,12840
24210,48849,13809
24746,49326,14658
25198,49725,15376
25568,50048,15963
25864,50304,16429
26092,50499,16785
26261,50641,17046
26381,50737,17230
26461,50796,17349
26501,50820,17404
26508,50815,17404
26490,50790,17361
26454,50753,17291
26403,50705,17203
26339,50647,17100
26264,50583,16984
26181,50514,16862
26094,50440,16733
26003,50363,16595
25911,50286,16454
25822,50209,16315
25735,50133,16179
25648,50053,16043
25560,49973,15901
25471,49896,15755
25379,49814,15605
25283,49724,15445
25184,49629,15272
25081,49532,15090
24971,49429,14901
24857,49323,14704
24741,49219,14500
24622,49117,14292
24499,49015,14087
24373,48913,13887
24255,48817,13699
24151,48728,13530
24057,48645,13382
23970,48570,13256
23895,48508,13152
23836,48459,13069
23786,48416,13002
23739,48378,12948
23701,48348,12908
23671,48321,12881
23640,48296,12864
23611,48279,12852
23591,48271,12845
23577,48267,12843
23564,48259,12836
23547,48246,12819
23525,48230,12792
23497,48206,12760
23465,48179,12723
23433,48152,12678
23398,48126,12622
23364,48098,12559
23330,48069,12493
23292,48038,12418
23250,48004,12337
23206,47967,12252
23151,47920,12155
23082,47866,12044
23010,47810,11930
22939,47751,11817
22867,47687,11697
22791,47620,11562
22711,47547,11419
22623,47468,11266
22522,47382,11099
22415,47293,10918
22306,47196,10733
22190,47087,10546
22067,46974,10359
21942,46865,10174
21817,46761,9992
21693,46659,9815
21569,46558,9644
21443,46456,9475
21316,46354,9305
21187,46248,9131
21060,46140,8954
20938,46034,8779
20825,45933,8607
20716,45839,8438
20607,45748,8274
20504,45664,8115
20413,45584,7958
20325,45501,7800
20240,45416,7643
20157,45335,7489
20072,45259,7337
19982,45182,7187
19888,45106,7044
19790,45027,6908
19688,44943,6771
19585,44855,6630
19484,44766,6485
19382,44678,6342
19277,44592,6202
19170,44506,6066
19067,44426,5933
18973,44354,5801
18884,44282,5668
18794,44209,5530
18705,44137,5392
18616,44061,5256
18530,43982,5121
18448,43905,4992
18369,43836,4874
18293,43772,4760
18221,43711,4647
18152,43654,4539
18090,43604,4437
18033,43559,4338
17975,43514,4241
17916,43468,4145
17860,43416,4051
17803,43361,3957
17742,43308,3866
17681,43258,3782
17629,43215,3706
17592,43180,3638
17569,43158,3586
17566,43152,3567
17600,43178,3606
17691,43253,3726
17850,43390,3949
18087,43598,4296
18416,43890,4792
18845,44273,5450
19371,44742,6269
19988,45293,7241
20679,45911,8341
21410,46561,9510
22137,47206,10677
22828,47816,11786
23462,48370,12800
24021,48863,13700
24502,49295,14475
24913,49663,15125
25256,49966,15663
25535,50216,16097
25755,50417,16435
25923,50569,16686
26045,50674,16867
26129,50740,16995
26180,50779,17075
26207,50798,17113
26216,50801,17119
26214,50793,17109
26205,50779,17086
26189,50760,17053
26164,50737,17009
26131,50707,16954
26093,50671,16896
26054,50634,16839
26015,50595,16780
25972,50555,16714
25927,50513,16646
25880,50468,16578
25832,50422,16508
25777,50375,16427
25716,50321,16327
25649,50258,16212
25577,50190,16088
25492,50115,15949
25398,50033,15792
25302,49946,15624
25206,49855,15454
25111,49762,15284
25019,49672,15115
24930,49589,14951
24840,49508,14794
24750,49430,14645
24666,49360,14512
24593,49300,14400
24533,49249,14310
24484,49202,14235
24444,49162,14174
24415,49133,14131
24393,49118,14106
24377,49113,14093
24373,49115,14087
24382,49123,14090
24394,49129,14096
24398,49132,14094
24397,49133,14083
24395,49132,14068
24389,49123,14048
24376,49105,14019
24358,49083,13979
24332,49058,13932
24295,49027,13874
24247,48989,13803
24191,48942,13718
24131,48887,13627
24070,48830,13533
24008,48774,13435
23941,48717,13329
23870,48659,13218
23798,48598,13101
23727,48534,12977
23652,48464,12847
23572,48390,12716
23484,48314,12584
23394,48240,12449
23308,48167,12312
23225,48090,12174
23137,48007,12035
23043,47922,11897
22951,47840,11759
22864,47761,11621
22778,47682,11479
22689,47602,11333
22600,47521,11184
22509,47439,11032
22418,47356,10876
22322,47271,10719
22219,47187,10560
22112,47102,10397
22007,47014,10232
21906,46926,10069
21805,46841,9910
21704,46759,9756
21606,46679,9610
21512,46599,9472
21420,46521,9338
21331,46446,9205
21245,46373,9072
21161,46300,8936
21082,46227,8800
21006,46156,8669
20928,46084,8542
20847,46010,8420
20768,45938,8301
20692,45869,8182
20616,45802,8061
20542,45735,7939
20470,45666,7817
20398,45598,7693
20329,45534,7573
20264,45478,7458
20202,45425,7345
20138,45370,7229
20072,45312,7117
20012,45258,7013
19954,45207,6915
19894,45155,6819
19831,45102,6722
19762,45046,6624
19689,44984,6521
19613,44919,6411
19534,44852,6298
19453,44785,6183
19369,44716,6062
19282,44644,5938
19197,44575,5823
19123,44519,5729
19073,44485,5667
19063,44484,5658
19112,44530,5731
19233,44638,5913
19436,44818,6230
19731,45080,6704
20127,45437,7349
20625,45885,8160
21199,46400,9093
21813,46954,10095
22436,47519,11114
23044,48067,12099
23615,48575,13011
24132,49031,13830
24586,49429,14547
24981,49772,15166
25318,50062,15689
25598,50300,16119
25825,50492,16466
26001,50643,16739
26134,50755,16944
26233,50832,17086
26306,50883,17180
26353,50916,17235
26374,50933,17254
26374,50938,17245
26365,50934,17221
26352,50921,17189
26329,50900,17147
26296,50869,17090
26261,50830,17027
26224,50788,16962
26184,50745,16892
26146,50702,16819
26105,50656,16741
26050,50602,16655
25982,50537,16555
25908,50464,16443
25831,50392,16325
25755,50326,16207
25676,50256,16083
25593,50177,15948
25508,50093,15801
25416,50005,15645
25314,49913,15480
25211,49821,15314
25110,49734,15152
25013,49652,14994
24924,49575,14847
24851,49507,14721
24793,49448,14617
24745,49401,14531
24703,49364,14456
24670,49335,14391
24648,49312,14340
24632,49294,14304
24619,49285,14280
24612,49284,14268
24610,49286,14263
24612,49286,14257
24617,49287,14249
24625,49294,14248
24637,49302,14250
24646,49303,14242
24647,49298,14221
24644,49290,14192
24634,49277,14157
24615,49257,14113
24590,49233,14061
24562,49204,14002
24529,49169,13935
24485,49129,13857
24428,49085,13766
24365,49036,13661
24297,48980,13547
24228,48916,13426
24157,48848,13298
24084,48778,13166
24010,48702,13028
23932,48615,12882
23851,48526,12730
23770,48444,12580
23683,48360,12430
23591,48275,12279
23500,48191,12129
23413,48114,11984
23327,48041,11846
23237,47968,11710
23148,47895,11578
23054,47823,11448
22954,47748,11317
22852,47670,11180
22750,47588,11035
22648,47500,10885
22548,47408,10735
22447,47318,10581
22344,47231,10421
22235,47144,10254
22119,47053,10080
22002,46958,9902
21886,46860,9723
21764,46761,9544
21639,46658,9366
21518,46554,9192
21410,46458,9029
21310,46369,8873
21213,46283,8723
21117,46199,8578
21022,46118,8439
20928,46038,8300
20832,45957,8158
20737,45878,8018
20646,45803,7880
20556,45728,7740
20465,45652,7597
20376,45575,7456
20288,45500,7317
20198,45422,7173
20104,45340,7027
20008,45258,6885
19911,45176,6749
19813,45093,6612
19712,45009,6472
19608,44923,6333
19506,44837,6193
19403,44746,6052
19302,44654,5907
19208,44570,5766
19120,44494,5633
19034,44420,5501
18947,44345,5371
18864,44276,5246
18785,44212,5123
18709,44150,5002
18638,44093,4889
18580,44047,4795
18544,44019,4731
18537,44014,4710
18570,44043,4751
18662,44121,4881
18827,44265,5121
19076,44486,5497
19416,44794,6030
19853,45191,6730
20382,45667,7581
20976,46198,8544
21608,46759,9568
22254,47329,10602
22884,47882,11601
23472,48395,12525
24007,48860,13355
24483,49275,14086
24895,49633,14718
25240,49931,15252
25523,50173,15688
25754,50366,16036
25940,50515,16307
26085,50627,16508
26193,50709,16653
26268,50767,16753
26311,50801,16812
26326,50814,16835
26324,50810,16826
26309,50791,16796
26282,50760,16754
26251,50723,16701
26218,50685,16641
26181,50644,16577
26136,50602,16509
26080,50555,16428
26013,50502,16331
25939,50441,16222
25859,50373,16101
25774,50298,15967
25687,50218,15824
25595,50132,15676
25495,50040,15522
25390,49944,15357
25280,49845,15186
25167,49740,15012
25052,49633,14832
24937,49527,14649
24829,49429,14472
24731,49343,14310
24641,49267,14163
24557,49198,14030
24482,49135,13915
24417,49080,13819
24361,49034,13737
24318,48997,13669
24289,48972,13619
24272,48954,13588
24257,48939,13567
24243,48929,13548
24230,48922,13524
24214,48913,13497
24194,48900,13469
24174,48884,13444
24154,48868,13421
24137,48854,13396
24121,48839,13368
24110,48825,13337
24101,48811,13302
24082,48791,13259
24050,48765,13202
24011,48734,13134
23967,48696,13056
23914,48647,12966
23851,48588,12865
23780,48525,12755
23701,48460,12639
23619,48392,12516
23533,48316,12386
23442,48236,12251
23349,48153,12115
23252,48068,11975
23153,47983,11829
23057,47903,11683
22970,47829,11547
22889,47759,11421
22812,47691,11300
22738,47628,11181
22663,47568,11061
22584,47507,10936
22505,47445,10801
22431,47383,10664
22362,47320,10530
22293,47254,10399
22223,47187,10272
22150,47119,10148
22071,47049,10024
21985,46976,9896
21896,46902,9766
21807,46827,9639
21718,46751,9515
21630,46676,9391
21542,46603,9268
21457,46534,9147
21376,46468,9027
21296,46402,8905
21216,46336,8783
21136,46272,8663
21054,46206,8541
20973,46140,8420
20900,46077,8304
20834,46017,8191
20774,45961,8081
20715,45907,7972
20652,45849,7863
20586,45790,7754
20518,45729,7645
20448,45667,7539
20384,45607,7435
20326,45550,7332
20268,45494,7225
20205,45437,7119
20137,45379,7013
20066,45320,6906
19991,45261,6796
19915,45201,6685
19843,45141,6579
19771,45080,6472
19694,45016,6362
19612,44949,6253
19533,44881,6150
19466,44821,6064
19422,44782,6008
19413,44775,6003
19455,44816,6069
19559,44914,6228
19734,45075,6507
19994,45315,6929
20344,45637,7502
20778,46031,8210
21280,46480,9023
21823,46963,9898
22376,47456,10786
22916,47937,11647
23424,48387,12451
23895,48801,13186
24328,49179,13849
24717,49515,14435
25061,49808,14943
25362,50060,15376
25620,50273,15742
25831,50446,16048
25994,50579,16291
26114,50678,16476
26207,50753,16617
26278,50808,16720
26332,50847,16791
26375,50878,16839
26411,50900,16875
26433,50913,16897
26440,50917,16901
26437,50914,16889
26431,50905,16869
26422,50891,16843
26408,50871,16810
26386,50843,16766
26354,50807,16710
26313,50764,16639
26267,50717,16557
26219,50670,16471
26168,50621,16382
26114,50566,16287
26054,50507,16183
25989,50447,16073
25921,50387,15960
25852,50325,15848
25786,50264,15739
25726,50206,15635
25669,50152,15534
25612,50099,15435
25560,50050,15342
25516,50009,15262
25481,49979,15201
25455,49957,15162
25439,49945,15142
25429,49943,15135
25425,49946,15138
25430,49950,15151
25444,49960,15177
25464,49978,15211
25486,49997,15242
25507,50013,15267
25529,50029,15291
25550,50041,15313
25569,50051,15328
25586,50063,15339
25604,50078,15350
25619,50093,15363
25627,50103,15369
25632,50111,15364
25637,50113,15348
25635,50103,15323
25621,50082,15283
25594,50055,15230
25560,50022,15167
25517,49982,15098
25462,49932,15019
25398,49873,14928
25329,49810,14830
25256,49747,14725
25177,49679,14608
25093,49605,14480
25003,49527,14347
24912,49448,14214
24818,49366,14075
24723,49287,13932
24633,49209,13788
24541,49128,13644
24446,49044,13500
24353,48962,13357
24262,48886,13217
24171,48810,13077
24078,48732,12933
23985,48654,12787
23896,48579,12647
23814,48508,12520
23739,48442,12403
23669,48382,12289
23602,48324,12179
23538,48266,12074
23476,48208,11970
23421,48154,11869
23377,48104,11777
23340,48056,11693
23303,48009,11611
23260,47967,11529
23213,47929,11447
23164,47890,11367
23113,47848,11288
23058,47799,11205
23000,47747,11118
22939,47696,11028
22879,47647,10937
22825,47602,10847
22771,47559,10764
22711,47514,10681
22649,47467,10598
22590,47418,10515
22534,47367,10432
22474,47311,10343
22412,47256,10251
22349,47201,10156
22284,47147,10060
22220,47094,9963
22162,47046,9871
22118,47009,9796
22093,46991,9753
22096,46998,9760
22141,47045,9843
22243,47145,10022
22414,47303,10308
22656,47523,10701
22966,47802,11194
23332,48127,11771
23738,48482,12406
24168,48856,13074
24610,49244,13752
25053,49631,14421
25484,50002,15064
25887,50346,15663
26254,50657,16207
26583,50931,16695
26874,51172,17126
27124,51380,17500
27336,51560,17823
27512,51712,18103
27658,51837,18341
27778,51939,18540
27881,52027,18705
27964,52100,18841
28025,52152,18944
28069,52187,19016
28103,52211,19066
28130,52227,19100
28148,52234,19120
28159,52236,19129
28166,52234,19130
28169,52230,19127
28171,52220,19124
28171,52206,19119
28169,52191,19112
28162,52176,19102
28146,52160,19085
28127,52143,19058
28110,52124,19022
28090,52102,18978
28059,52077,18923
28022,52046,18856
27983,52012,18784
27942,51972,18709
27893,51925,18625
27837,51873,18533
27781,51821,18438
27724,51769,18340
27665,51714,18239
27612,51664,18146
27569,51619,18068
27534,51580,18003
27510,51548,17947
27496,51522,17901
27489,51502,17865
27480,51488,17835
27473,51478,17810
27472,51472,17797
27477,51474,17794
27488,51479,17794
27502,51484,17792
27514,51489,17792
27522,51491,17799
27525,51493,17807
27520,51492,17809
27510,51487,17804
27495,51479,17792
27474,51465,17775
27451,51448,17752
27431,51431,17723
27411,51415,17688
27384,51396,17643
27348,51368,17583
27307,51331,17515
27261,51289,17440
27209,51242,17358
27150,51188,17264
27088,51128,17164
27026,51071,17063
26961,51013,16957
26896,50952,16848
26829,50890,16742
26757,50826,16636
26680,50760,16524
26604,50693,16410
26532,50628,16301
26461,50564,16196
26386,50494,16084
26307,50422,15962
26228,50354,15837
26152,50287,15713
26076,50218,15587
26001,50149,15461
25927,50081,15340
25853,50014,15221
25779,49948,15101
25709,49884,14983
25641,49822,14866
25569,49759,14743
25494,49694,14614
25418,49627,14481
25342,49560,14351
25271,49495,14228
25204,49434,14110
25138,49374,13993
25071,49314,13875
25002,49253,13757
24929,49189,13637
24855,49122,13518
24781,49054,13401
24706,48983,13283
24632,48912,13167
24558,48842,13056
24480,48773,12947
24402,48705,12835
24328,48640,12724
24259,48578,12620
24194,48520,12525
24129,48463,12427
24063,48406,12323
23999,48356,12223
23942,48313,12129
23887,48272,12040
23835,48234,11955
23787,48194,11872
23739,48149,11790
23689,48098,11700
23635,48044,11602
23579,47990,11500
23520,47936,11394
23458,47880,11285
23398,47825,11177
23345,47778,11086
23307,47747,11026
23297,47743,11014
23330,47782,11077
23426,47878,11243
23599,48041,11534
23848,48271,11949
24166,48565,12474
24543,48915,13096
24965,49306,13790
25413,49718,14519
25872,50132,15252
26327,50532,15972
26763,50910,16659
27168,51263,17294
27540,51590,17869
27879,51885,18386
28179,52141,18841
28440,52358,19235
28665,52544,19574
28859,52703,19861
29025,52835,20097
29164,52944,20291
29278,53033,20452
29370,53101,20586
29444,53154,20694
29509,53197,20781
29568,53234,20855
29621,53264,20919
29665,53283,20972
29698,53295,21016
29728,53307,21052
29755,53316,21080
29773,53319,21099
29785,53319,21108
29793,53318,21111
29799,53314,21110
29803,53311,21104
29801,53308,21091
29792,53303,21072
29777,53295,21049
29757,53281,21017
29732,53262,20973
29700,53235,20915
29657,53196,20845
29609,53145,20766
29559,53090,20683
29507,53035,20601
29452,52977,20514
29398,52919,20418
29348,52865,20319
29303,52819,20229
29264,52780,20150
29226,52749,20081
29192,52724,20022
29164,52703,19979
29140,52684,19948
29123,52670,19922
29114,52664,19903
29110,52667,19895
29112,52674,19891
29118,52682,19889
29125,52685,19891
29131,52683,19892
29133,52678,19886
29134,52674,19872
29136,52671,19852
29132,52664,19829
29119,52652,19800
29099,52636,19763
29074,52614,19720
29039,52583,19670
28998,52544,19609
28957,52500,19538
28916,52454,19462
28871,52406,19383
28819,52355,19299
28762,52304,19207
28706,52253,19112
28650,52201,19015
28590,52146,18913
28525,52089,18806
28455,52029,18698
28380,51966,18587
28303,51901,18473
28229,51839,18358
28160,51780,18245
28092,51722,18134
28022,51660,18023
27952,51595,17910
27884,51531,17801
27815,51468,17699
27746,51407,17598
27680,51348,17497
27618,51293,17393
27559,51241,17289
27501,51187,17183
27444,51132,17075
27384,51078,16966
27320,51020,16853
27254,50959,16735
27190,50899,16618
27124,50839,16506
27053,50775,16394
26978,50708,16277
26902,50637,16157
26829,50565,16035
26756,50493,15912
26680,50422,15790
26602,50353,15669
26518,50282,15548
26429,50207,15422
26339,50131,15291
26254,50057,15161
26172,49985,15031
26091,49913,14897
26012,49841,14764
25935,49772,14636
25860,49706,14517
25786,49642,14398
25716,49577,14278
25646,49511,14159
25571,49445,14040
25492,49378,13919
25414,49312,13801
25337,49249,13685
25259,49185,13570
25180,49117,13453
25101,49046,13334
25017,48974,13213
24929,48899,13091
24842,48822,12963
24758,48746,12832
24674,48669,12702
24588,48588,12573
24500,48505,12443
24414,48425,12313
24330,48350,12179
24242,48275,12038
24148,48195,11888
24055,48116,11739
23969,48042,11603
23894,47979,11489
23844,47939,11420
23840,47941,11427
23901,48003,11543
24044,48140,11791
24282,48362,12188
24613,48666,12732
25021,49039,13398
25482,49461,14151
25977,49913,14953
26487,50377,15775
26993,50834,16587
27478,51271,17360
27935,51680,18077
28355,52051,18731
28732,52378,19315
29062,52659,19825
29345,52897,20259
29582,53094,20624
29772,53251,20921
29918,53373,21153
30030,53464,21331
30116,53530,21470
30177,53573,21576
30213,53598,21649
30231,53612,21694
30235,53617,21717
30226,53609,21718
30210,53591,21705
30192,53572,21685
30173,53553,21663
30151,53534,21635
30124,53511,21600
30091,53485,21558
30056,53457,21511
30013,53420,21455
29965,53376,21388
29917,53329,21311
29869,53280,21229
29817,53227,21138
29761,53173,21042
29704,53120,20943
29644,53067,20839
29582,53013,20727
29514,52954,20609
29438,52891,20487
29358,52824,20362
29279,52757,20235
29203,52692,20110
29130,52629,19992
29061,52566,19882
28995,52505,19779
28932,52447,19683
28877,52399,19599
28830,52357,19534
28791,52320,19480
28758,52289,19434
28730,52265,19396
28705,52247,19366
28682,52229,19338
28659,52212,19313
28636,52198,19292
28614,52186,19273
28592,52172,19251
28568,52153,19226
28543,52132,19197
28516,52112,19165
28488,52092,19124
28458,52069,19077
28424,52043,19019
28381,52008,18948
28331,51964,18865
28274,51911,18771
28215,51852,18668
28150,51786,18554
28075,51708,18429
27989,51625,18297
27896,51539,18158
27797,51450,18011
27696,51360,17857
27595,51270,17700
27498,51184,17544
27402,51096,17386
27301,51003,17224
27199,50910,17056
27093,50820,16886
26982,50730,16710
26867,50639,16533
26754,50547,16360
26643,50453,16192
26533,50359,16025
26424,50265,15856
26317,50169,15688
26210,50071,15520
26101,49971,15351
25996,49878,15183
25897,49791,15018
25800,49706,14853
25704,49624,14689
25613,49543,14529
25524,49461,14377
25436,49377,14232
25346,49292,14092
25257,49210,13957
25172,49133,13825
25089,49060,13693
25011,48990,13564
24940,48927,13444
24875,48872,13336
24817,48826,13237
24765,48786,13142
24716,48748,13051
24667,48706,12966
24614,48657,12878
24556,48604,12780
24494,48549,12678
24430,48492,12575
24363,48434,12471
24292,48373,12363
24216,48309,12253
24138,48243,12143
24058,48175,12028
23976,48108,11904
23898,48041,11774
23825,47972,11642
23753,47899,11508
23681,47822,11372
23609,47746,11243
23543,47679,11130
23493,47629,11044
23475,47613,11003
23506,47645,11045
23606,47741,11205
23791,47916,11513
24075,48179,11984
24456,48530,12612
24912,48952,13361
25417,49418,14187
25954,49910,15057
26504,50409,15940
27044,50895,16800
27555,51353,17613
28028,51775,18363
28454,52153,19036
28825,52485,19626
29142,52769,20129
29407,53008,20549
29623,53202,20889
29792,53352,21157
29925,53465,21362
30030,53550,21517
30107,53609,21628
30159,53643,21698
30188,53655,21735
30199,53655,21752
30199,53649,21755
30191,53635,21745
30175,53614,21723
30154,53586,21693
30130,53557,21658
30103,53525,21619
30078,53493,21574
30056,53463,21527
30030,53434,21477
29997,53403,21424
29959,53367,21362
29913,53323,21286
29860,53273,21197
29800,53215,21094
29734,53151,20979
29662,53079,20853
29585,53001,20720
29505,52920,20580
29426,52843,20439
29352,52772,20304
29278,52705,20176
29204,52639,20050
29135,52578,19927
29073,52523,19816
29017,52472,19715
28969,52424,19621
28930,52387,19541
28902,52361,19478
28880,52341,19429
28863,52326,19393
28856,52319,19376
28856,52318,19375
28858,52320,19382
28860,52322,19389
28863,52324,19396
28864,52325,19401
28857,52325,19403
28843,52323,19401
28829,52315,19393
28814,52300,19376
28790,52279,19347
28759,52254,19306
28727,52227,19257
28693,52197,19201
28650,52163,19136
28606,52127,19061
28562,52091,18982
28514,52050,18899
28456,52002,18810
28389,51946,18709
28317,51887,18597
28243,51822,18476
28165,51748,18345
28081,51668,18203
27990,51585,18052
27894,51502,17898
27793,51416,17740
27695,51329,17581
27601,51243,17425
27508,51157,17270
27414,51071,17112
27322,50988,16954
27233,50907,16799
27147,50829,16642
27060,50750,16483
26976,50669,16324
26894,50589,16171
26811,50506,16023
26722,50422,15873
26630,50340,15722
26541,50262,15575
26456,50184,15434
26370,50105,15295
26282,50029,15160
26192,49953,15030
26102,49876,14900
26016,49798,14773
25934,49722,14650
25854,49647,14530
25774,49574,14406
25695,49503,14282
25618,49435,14162
25541,49366,14046
25461,49298,13929
25383,49233,13810
25305,49172,13689
25229,49112,13570
25154,49049,13449
25082,48986,13325
25013,48924,13203
24947,48864,13090
24883,48803,12978
24818,48742,12866
24752,48680,12751
24682,48616,12632
24611,48551,12510
24543,48488,12389
24480,48431,12280
24429,48387,12192
24397,48362,12138
24401,48373,12147
24464,48443,12256
24609,48585,12496
24850,48809,12886
25185,49118,13429
25606,49504,14108
26092,49951,14888
26620,50434,15730
27167,50929,16598
27711,51415,17459
28232,51876,18285
28717,52305,19058
29159,52699,19762
29553,53051,20385
29895,53351,20916
30181,53597,21356
30416,53795,21721
30602,53950,22017
30744,54067,22245
30844,54150,22410
30913,54205,22526
30960,54238,22603
30986,54249,22647
30990,54241,22658
30981,54222,22641
30963,54197,22606
30937,54168,22556
30905,54134,22495
30865,54092,22431
30816,54042,22358
30762,53989,22277
30711,53938,22196
30662,53891,22118
30611,53843,22038
30558,53791,21948
30504,53739,21851
30447,53685,21751
30382,53628,21645
30307,53567,21530
30228,53501,21404
30148,53429,21272
30065,53353,21134
29983,53277,20991
29907,53205,20846
29838,53135,20708
29772,53067,20579
29706,53002,20459
29648,52943,20354
29603,52895,20268
29567,52857,20200
29539,52829,20145
29520,52813,20106
29512,52811,20089
29510,52814,20088
29514,52820,20095
29524,52828,20108
29538,52838,20126
29554,52850,20147
29572,52863,20165
29591,52874,20179
29609,52885,20190
29625,52892,20195
29639,52892,20188
29650,52889,20172
29653,52881,20149
29642,52865,20115
29616,52844,20065
29583,52818,20006
29539,52783,19938
29483,52734,19854
29419,52676,19754
29353,52615,19648
29283,52550,19535
29208,52477,19414
29128,52400,19285
29045,52324,19153
28956,52248,19020
28863,52171,18884
28768,52091,18746
28671,52010,18605
28573,51927,18457
28472,51841,18298
28372,51751,18131
28274,51660,17964
28179,51568,17801
28085,51477,17641
27993,51390,17481
27900,51306,17321
27801,51217,17158
27699,51126,16991
27600,51035,16825
27504,50945,16662
27408,50859,16499
27312,50773,16333
27215,50683,16166
27113,50591,16004
27006,50499,15845
26898,50409,15685
26790,50320,15525
26683,50232,15370
26580,50144,15218
26478,50056,15064
26380,49970,14911
26287,49889,14767
26196,49810,14626
26108,49734,14485
26026,49660,14348
25947,49588,14215
25872,49518,14087
25800,49451,13965
25729,49387,13851
25653,49323,13740
25575,49258,13626
25496,49192,13505
25416,49125,13383
25335,49057,13261
25252,48985,13135
25168,48910,13004
25082,48832,12869
24992,48753,12727
24900,48675,12578
24811,48600,12426
24724,48524,12276
24634,48443,12125
24540,48356,11969
24441,48267,11810
24339,48180,11654
24234,48096,11504
24134,48016,11364
24051,47948,11244
23997,47904,11164
23987,47900,11151
24041,47956,11242
24185,48093,11476
24439,48327,11887
24802,48658,12479
25260,49075,13231
25798,49565,14109
26392,50109,15066
27014,50674,16053
27631,51232,17027
28220,51761,17960
28768,52247,18830
29263,52683,19616
29700,53066,20306
30076,53391,20902
30390,53661,21403
30642,53879,21809
30839,54049,22126
30990,54178,22365
31100,54269,22535
31175,54328,22647
31224,54360,22716
31252,54373,22752
31259,54369,22758
31250,54351,22735
31229,54325,22690
31195,54290,22631
31147,54245,22555
31088,54191,22465
31025,54133,22364
30962,54073,22257
30891,54007,22143
30813,53936,22023
30732,53864,21900
30648,53793,21776
30561,53720,21645
30469,53643,21503
30375,53561,21352
30277,53472,21195
30175,53377,21032
30072,53280,20866
29970,53185,20699
29868,53094,20535
29765,53004,20373
29664,52917,20215
29573,52838,20071
29491,52770,19942
29419,52710,19825
29355,52657,19723
29305,52613,19643
29272,52585,19589
29252,52575,19557
29244,52579,19543
29249,52592,19545
29262,52607,19559
29278,52624,19580
29299,52643,19606
29326,52661,19638
29352,52674,19667
29370,52681,19684
29379,52682,19692
29376,52677,19693
29361,52665,19685
29339,52646,19665
29312,52623,19632
29279,52595,19587
29237,52559,19529
29188,52513,19454
29132,52457,19365
29068,52397,19264
28998,52336,19155
28922,52273,19035
28839,52205,18909
28753,52131,18780
28665,52052,18646
28573,51969,18503
28479,51881,18353
28387,51793,18200
28295,51705,18044
28204,51621,17885
28114,51542,17723
28018,51464,17564
27918,51383,17405
27816,51299,17240
27722,51218,17077
27637,51138,16920
27555,51053,16764
27471,50963,16605
27389,50875,16452
27308,50792,16308
27227,50711,16167
27142,50634,16025
27055,50560,15883
26966,50485,15740
26873,50409,15598
26778,50335,15457
26689,50264,15322
26606,50194,15190
26525,50119,15056
26446,50040,14923
26367,49962,14795
26287,49890,14672
26205,49819,14547
26124,49750,14420
26047,49685,14295
25973,49623,14174
25898,49563,14056
25823,49502,13943
25749,49437,13833
25677,49369,13722
25603,49301,13604
25531,49233,13487
25459,49167,13372
25389,49103,13258
25318,49040,13139
25244,48976,13013
25164,48907,12883
25078,48833,12746
24986,48755,12605
24893,48677,12461
24803,48600,12323
24717,48523,12189
24631,48447,12053
24548,48375,11918
24466,48306,11785
24382,48236,11650
24297,48164,11513
24216,48093,11379
24135,48019,11247
24055,47941,11116
23982,47870,10994
23926,47814,10900
23895,47783,10851
23900,47791,10869
23963,47861,10988
24115,48014,11255
24372,48263,11697
24736,48607,12317
25198,49039,13090
25740,49539,13982
26329,50081,14947
26935,50635,15936
27533,51178,16905
28103,51696,17822
28631,52173,18664
29109,52602,19420
29536,52980,20085
29905,53300,20657
30210,53562,21138
30458,53772,21530
30654,53936,21838
30801,54055,22065
30904,54133,22218
30969,54176,22308
31003,54193,22350
31012,54189,22358
30998,54168,22338
30966,54134,22293
30923,54090,22227
30871,54039,22140
30810,53981,22035
30744,53920,21917
30673,53855,21791
30596,53785,21656
30510,53708,21509
30419,53627,21350
30328,53545,21187
30241,53460,21028
30152,53372,20867
30055,53281,20697
29950,53187,20519
29839,53090,20337
29722,52990,20155
29604,52889,19976
29492,52793,19805
29386,52705,19646
29287,52622,19496
29197,52545,19355
29122,52476,19232
29061,52415,19133
29012,52366,19059
28977,52331,19009
28954,52312,18982
28942,52306,18976
28941,52311,18987
28952,52328,19010
28975,52355,19045
29001,52384,19088
29025,52407,19129
29046,52422,19167
29066,52435,19208
29082,52447,19242
29092,52454,19264
29099,52455,19271
29102,52450,19265
29098,52441,19245
29085,52427,19208
29065,52408,19160
29039,52384,19107
29004,52355,19048
28964,52324,18983
28922,52293,18912
28876,52258,18837
28826,52216,18750
28770,52166,18647
28712,52109,18535
28649,52043,18419
28580,51971,18299
28502,51893,18173
28419,51812,18043
28330,51728,17908
28235,51643,17762
28139,51559,17606
28042,51477,17446
27941,51394,17285
27836,51307,17122
27728,51216,16958
27625,51126,16797
27525,51035,16638
27419,50941,16476
27311,50845,16313
27206,50747,16150
27103,50651,15988
27003,50561,15828
26906,50478,15667
26809,50395,15504
26707,50306,15340
26605,50215,15175
26510,50127,15018
26426,50047,14872
26344,49973,14731
26261,49902,14589
26177,49833,14449
26097,49764,14317
26019,49697,14191
25945,49627,14065
25874,49556,13942
25806,49486,13826
25738,49417,13713
25667,49351,13597
25596,49292,13484
25526,49239,13376
25458,49186,13268
25394,49129,13157
25332,49067,13044
25268,49001,12935
25199,48934,12826
25121,48866,12712
25037,48798,12591
24953,48730,12466
24870,48662,12337
24786,48591,12201
24705,48517,12065
24628,48443,11932
24549,48369,11800
24474,48301,11674
24412,48248,11572
24373,48218,11512
24371,48226,11517
24431,48292,11624
24577,48437,11876
24823,48671,12297
25170,48994,12884
25605,49398,13612
26107,49864,14443
26648,50367,15337
27209,50886,16252
27770,51402,17155
28316,51896,18020
28827,52351,18826
29288,52754,19554
29695,53105,20195
30051,53409,20748
30355,53664,21217
30608,53871,21607
30814,54037,21924
30972,54167,22173
31088,54264,22359
31169,54333,22489
31221,54376,22571
31245,54394,22614
31246,54389,22622
31229,54370,22603
31201,54342,22568
31165,54310,22524
31122,54275,22469
31075,54235,22403
31025,54189,22327
30969,54135,22239
30904,54072,22141
30832,54002,22038
30757,53930,21927
30677,53858,21810
30593,53784,21681
30503,53705,21537
30409,53619,21381
30309,53526,21217
30203,53429,21046
30093,53332,20870
29985,53236,20695
29880,53139,20520
29777,53045,20344
29678,52956,20171
29587,52871,20008
29498,52788,19854
29416,52707,19709
29344,52634,19582
29287,52579,19480
29243,52540,19403
29211,52514,19349
29189,52494,19315
29180,52480,19299
29179,52471,19298
29184,52470,19305
29196,52481,19320
29212,52500,19341
29226,52517,19364
29235,52527,19380
29240,52534,19388
29244,52540,19390
29245,52544,19389
29241,52542,19380
29230,52531,19358
29212,52513,19329
29182,52489,19290
29141,52459,19237
29095,52428,19170
29049,52395,19091
29000,52352,18999
28943,52295,18893
28880,52231,18776
28812,52164,18652
28735,52093,18519
28651,52016,18375
28566,51935,18226
28479,51849,18076
28387,51760,17926
28290,51668,17772
28188,51572,17615
28080,51472,17453
27965,51371,17284
27849,51272,17108
27739,51178,16932
27631,51085,16758
27527,50991,16585
27429,50896,16412
27334,50804,16243
27244,50719,16079
27155,50640,15918
27064,50562,15759
26973,50481,15606
26883,50395,15456
26796,50310,15305
26710,50229,15154
26622,50153,15004
26532,50077,14852
26440,50001,14696
26348,49924,14541
26255,49845,14388
26157,49764,14235
26061,49684,14084
25972,49607,13940
25886,49531,13806
25798,49451,13676
25710,49366,13543
25624,49284,13408
25543,49211,13276
25462,49141,13147
25380,49072,13020
25303,49009,12898
25232,48950,12782
25160,48892,12668
25084,48833,12554
25007,48773,12437
24930,48709,12317
24855,48641,12194
24781,48571,12070
24708,48500,11946
24635,48428,11824
24563,48358,11702
24494,48289,11577
24425,48221,11452
24351,48153,11324
24277,48087,11195
24204,48021,11064
24127,47951,10931
24047,47878,10795
23965,47802,10654
23886,47727,10513
23815,47658,10387
23757,47603,10293
23724,47575,10249
23738,47596,10284
23826,47686,10440
24010,47870,10761
24310,48165,11280
24727,48571,12000
25251,49072,12886
25851,49640,13887
26497,50244,14948
27159,50853,16021
27811,51442,17066
28429,51991,18048
28995,52485,18942
29503,52926,19744
29949,53313,20451
30330,53642,21057
30646,53914,21561
30903,54130,21968
31105,54296,22290
31262,54417,22536
31381,54505,22723
31467,54569,22856
31524,54611,22942
31554,54633,22990
31565,54639,23004
31562,54631,22993
31545,54613,22964
31516,54585,22917
31477,54550,22855
31432,54507,22785
31380,54458,22705
31323,54401,22615
31266,54341,22519
31208,54283,22424
31148,54226,22329
31086,54169,22225
31024,54110,22114
30958,54044,21998
30882,53969,21874
30796,53885,21739
30703,53795,21592
30606,53702,21434
30507,53611,21270
30405,53519,21099
30303,53429,20926
30203,53340,20755
30102,53249,20585
30004,53160,20421
29913,53077,20273
29833,53003,20147
29762,52940,20043
29702,52891,19957
29656,52858,19888
29624,52833,19838
29601,52810,19803
29591,52795,19782
29594,52792,19780
29603,52799,19795
29611,52811,19815
29618,52822,19830
29629,52832,19840
29638,52839,19841
29638,52840,19831
29633,52837,19812
29626,52831,19791
29614,52821,19766
29593,52805,19732
29564,52781,19687
29531,52750,19632
29489,52712,19567
29442,52667,19484
29396,52619,19387
29344,52566,19284
29283,52506,19173
29217,52442,19051
29148,52375,18923
29076,52307,18791
28996,52235,18654
28906,52153,18505
28808,52063,18347
28711,51973,18185
28617,51883,18024
28524,51791,17861
28430,51700,17692
28330,51608,17517
28223,51511,17338
28114,51412,17160
28004,51318,16989
27892,51227,16822
27777,51132,16653
27662,51033,16481
27549,50935,16311
27437,50838,16142
27325,50740,15967
27219,50643,15792
27119,50552,15624
27021,50466,15462
26919,50380,15299
26816,50294,15137
26718,50209,14980
26625,50123,14828
26534,50038,14677
26441,49954,14524
26347,49872,14373
26254,49791,14227
26162,49710,14082
26071,49630,13938
25983,49553,13798
25901,49479,13664
25822,49406,13533
25743,49334,13401
25664,49260,13268
25586,49185,13136
25503,49106,13002
25414,49026,12866
25324,48947,12731
25235,48868,12597
25147,48791,12465
25065,48721,12336
24987,48657,12210
24908,48591,12083
24829,48522,11954
24752,48454,11826
24673,48387,11698
24589,48318,11568
24502,48245,11433
24415,48169,11295
24328,48089,11155
24238,48004,11013
24144,47916,10866
24051,47831,10714
23960,47747,10563
23871,47664,10414
23779,47582,10266
23686,47505,10123
23594,47433,9985
23503,47361,9851
23411,47288,9724
23324,47217,9608
23252,47160,9516
23207,47129,9464
23211,47142,9485
23291,47224,9623
23473,47398,9920
23777,47683,10419
24210,48088,11135
24756,48596,12044
25381,49177,13085
26055,49799,14199
26748,50430,15331
27429,51048,16435
28075,51634,17477
28671,52173,18429
29206,52654,19280
29677,53070,20029
30082,53424,20672
30424,53720,21206
30708,53959,21637
30934,54145,21978
31106,54282,22239
31235,54377,22428
31324,54437,22557
31379,54470,22639
31400,54480,22680
31394,54468,22680
31370,54438,22645
31332,54395,22584
31285,54346,22509
31228,54294,22424
31164,54238,22330
31099,54177,22233
31032,54112,22131
30961,54046,22019
30887,53975,21896
30811,53900,21765
30729,53818,21621
30638,53731,21462
30543,53642,21296
30449,53552,21125
30351,53454,20947
30250,53351,20762
30144,53247,20573
30031,53141,20381
29911,53033,20183
29789,52926,19985
29667,52821,19794
29547,52720,19614
29433,52624,19444
29328,52532,19281
29234,52446,19132
29154,52371,19008
29085,52307,18910
29030,52258,18835
28990,52229,18788
28964,52218,18765
28949,52218,18758
28947,52224,18764
28958,52233,18779
28973,52242,18797
28988,52251,18814
29003,52261,18827
29018,52270,18838
29028,52274,18844
29027,52269,18836
29014,52256,18810
28989,52235,18770
28949,52201,18714
28896,52155,18639
28834,52102,18547
28764,52042,18439
28681,51966,18311
28585,51876,18160
28481,51779,17994
28369,51677,17819
28246,51570,17629
28116,51457,17428
27984,51341,17224
27851,51225,17023
27714,51107,16820
27580,50989,16610
27452,50872,16400
27330,50756,16195
27208,50642,15994
27086,50529,15794
26968,50416,15596
26853,50306,15401
26740,50197,15205
26625,50090,15008
26512,49984,14812
26400,49880,14620
26290,49772,14431
26179,49664,14247
26067,49560,14073
25954,49458,13905
25839,49355,13732
25725,49256,13556
25611,49161,13379
25496,49066,13196
25376,48964,13005
25253,48855,12805
25130,48743,12602
25006,48625,12396
24881,48504,12185
24757,48386,11978
24633,48273,11776
24504,48163,11570
24371,48051,11362
24240,47940,11157
24112,47827,10961
23984,47711,10768
23851,47594,10572
23714,47475,10374
23578,47360,10179
23449,47249,9989
23328,47145,9807
23216,47050,9636
23106,46960,9471
22994,46869,9306
22882,46774,9145
22771,46678,8986
22662,46584,8826
22554,46491,8663
22447,46400,8506
22340,46309,8353
22234,46216,8198
22129,46123,8042
22024,46032,7883
21920,45939,7721
21811,45845,7558
21700,45753,7399
21592,45665,7246
21486,45584,7096
21382,45506,6946
21281,45427,6794
21186,45346,6646
21093,45264,6499
20996,45181,6351
20892,45095,6201
20787,45009,6053
20683,44923,5907
20581,44838,5763
20480,44752,5620
20382,44667,5478
20290,44587,5343
20206,44513,5225
20142,44456,5143
20120,44438,5123
20164,44481,5195
20293,44601,5388
20519,44811,5738
20858,45127,6275
21326,45568,7029
21933,46142,8015
22667,46833,9215
23491,47601,10565
24351,48398,11981
25201,49180,13379
26008,49921,14698
26752,50601,15900
27414,51201,16961
27981,51713,17867
28451,52139,18618
28834,52482,19223
29136,52746,19692
29361,52936,20040
29519,53063,20286
29622,53143,20444
29684,53185,20532
29710,53193,20560
29702,53173,20539
29668,53132,20477
29613,53075,20382
29542,53003,20262
29461,52923,20123
29371,52835,19969
29269,52737,19798
29156,52630,19610
29037,52519,19409
28915,52404,19200
28788,52282,18983
28652,52149,18754
28507,52010,18515
28356,51870,18269
28198,51724,18015
28032,51574,17750
27860,51423,17479
27688,51274,17206
27516,51128,16933
27346,50983,16659
27183,50840,16394
27031,50701,16145
26888,50571,15914
26756,50454,15704
26643,50356,15520
26555,50279,15370
26490,50219,15254
26444,50174,15167
26414,50148,15108
26398,50139,15075
26397,50142,15065
26412,50157,15079
26437,50178,15115
26463,50203,15166
26489,50230,15222
26517,50259,15274
26551,50288,15323
26582,50311,15364
26603,50325,15388
26609,50330,15387
26605,50326,15370
26588,50310,15340
26558,50285,15293
26519,50251,15229
26469,50209,15152
26407,50157,15062
26337,50096,14955
26261,50029,14833
26182,49956,14701
26095,49878,14556
25998,49796,14398
25898,49711,14230
25796,49624,14062
25692,49531,13896
25586,49434,13725
25474,49333,13549
25356,49230,13369
25234,49124,13182
25112,49017,12989
24991,48906,12795
24874,48794,12604
24756,48684,12413
24635,48576,12214
24511,48470,12009
24384,48362,11801
24254,48251,11591
24124,48137,11379
23995,48020,11168
23864,47898,10958
23731,47772,10747
23595,47645,10531
23456,47520,10314
23316,47404,10103
23179,47298,9900
23048,47200,9705
22924,47106,9517
22803,47011,9332
22685,46912,9149
22570,46810,8969
22459,46706,8790
22350,46600,8611
22238,46495,8437
22128,46393,8268
22022,46294,8104
21914,46196,7940
21804,46100,7778
21698,46008,7623
21597,45921,7476
21502,45836,7335
21408,45752,7195
21311,45666,7054
21214,45580,6912
21118,45493,6767
21020,45407,6620
20920,45323,6474
20817,45240,6329
20715,45156,6186
20618,45073,6044
20528,44994,5905
20443,44918,5768
20358,44844,5633
20277,44773,5507
20204,44709,5389
20136,44648,5276
20070,44588,5167
20003,44528,5063
19935,44472,4963
19864,44420,4861
19788,44367,4754
19707,44308,4642
19627,44246,4530
19550,44183,4419
19474,44121,4305
19394,44057,4189
19314,43991,4075
19234,43924,3960
19152,43853,3842
19074,43779,3727
19004,43710,3625
18950,43656,3546
18922,43627,3507
18937,43642,3536
19024,43726,3670
19200,43896,3940
19479,44158,4378
19875,44527,5009
20402,45013,5851
21067,45623,6916
21852,46342,8181
22715,47133,9585
23603,47945,11037
24467,48734,12450
25276,49470,13764
26012,50134,14949
26656,50714,15985
27200,51204,16864
27650,51603,17583
28015,51916,18149
28295,52153,18580
28494,52322,18891
28621,52429,19096
28693,52487,19215
28723,52507,19265
28714,52494,19257
28676,52455,19199
28620,52398,19102
28549,52328,18982
28461,52243,18835
28356,52144,18661
28240,52035,18468
28115,51916,18261
27980,51787,18041
27836,51652,17808
27686,51515,17567
27533,51375,17316
27375,51228,17053
27211,51076,16780
27044,50922,16502
26872,50768,16217
26693,50610,15922
26512,50448,15623
26332,50281,15324
26149,50114,15027
25968,49952,14737
25798,49802,14462
25642,49664,14208
25502,49539,13981
25379,49431,13780
25277,49341,13605
25193,49270,13458
25125,49214,13341
25072,49173,13257
25040,49149,13208
25029,49143,13192
25033,49150,13203
25047,49166,13234
25070,49189,13281
25102,49217,13340
25139,49247,13408
25173,49277,13477
25203,49304,13535
25229,49328,13578
25249,49346,13604
25260,49357,13616
25261,49361,13620
25249,49356,13612
25223,49339,13584
25183,49311,13535
25137,49276,13470
25084,49233,13392
25018,49181,13295
24941,49117,13175
24856,49042,13035
24763,48957,12881
24664,48864,12716
24562,48768,12544
24462,48672,12369
24361,48575,12194
24257,48477,12020
24147,48376,11841
24031,48270,11655
23910,48160,11463
23785,48047,11263
23658,47932,11055
23533,47817,10845
23407,47703,10634
23275,47586,10421
23136,47468,10204
22993,47347,9983
22846,47221,9757
22699,47092,9530
22557,46967,9307
22420,46848,9093
22288,46734,8889
22157,46620,8691
22026,46508,8500
21895,46396,8315
21762,46283,8129
21629,46170,7944
21499,46060,7763
21373,45954,7588
21249,45851,7411
21130,45749,7235
21020,45652,7062
20917,45562,6894
20815,45473,6730
20709,45381,6565
20602,45290,6405
20501,45205,6254
20405,45123,6108
20311,45039,5965
20217,44957,5823
20123,44880,5681
20027,44803,5540
19936,44728,5404
19853,44657,5275
19771,44586,5148
19686,44515,5021
19599,44444,4896
19513,44374,4772
19428,44304,4648
19342,44233,4526
19255,44162,4406
19173,44093,4288
19089,44024,4168
19002,43953,4046
18915,43883,3928
18833,43814,3813
18753,43747,3698
18674,43681,3580
18594,43613,3463
18514,43542,3348
18437,43471,3234
18362,43405,3119
18293,43343,3007
18228,43286,2897
18168,43236,2796
18123,43200,2723
18114,43194,2704
18159,43237,2765
18276,43347,2930
18482,43538,3231
18793,43823,3699
19215,44210,4353
19755,44703,5210
20416,45307,6279
21181,46005,7539
22015,46763,8921
22871,47536,10336
23705,48290,11711
24487,48995,12991
25194,49628,14143
25809,50176,15147
26331,50639,15992
26764,51023,16682
27111,51335,17227
27376,51577,17640
27568,51747,17933
27694,51857,18124
27766,51915,18224
27793,51931,18251
27783,51912,18226
27743,51867,18160
27681,51802,18060
27599,51721,17929
27501,51626,17769
27390,51518,17583
27268,51398,17378
27135,51271,17157
26999,51140,16921
26862,51007,16676
26719,50870,16422
26569,50726,16152
26410,50576,15873
26242,50421,15588
26067,50261,15298
25886,50101,15005
25702,49941,14709
25517,49781,14412
25331,49615,14114
25148,49449,13820
24978,49291,13540
24823,49146,13281
24680,49016,13044
24553,48903,12832
24447,48807,12651
24360,48730,12508
24290,48665,12400
24235,48611,12322
24202,48576,12274
24190,48561,12255
24188,48560,12259
24189,48568,12278
24195,48581,12311
24206,48596,12358
24223,48617,12414
24245,48642,12469
24268,48671,12522
24291,48699,12568
24315,48722,12605
24332,48739,12632
24340,48748,12644
24341,48746,12640
24331,48733,12617
24308,48710,12577
24275,48677,12521
24231,48635,12450
24178,48586,12361
24118,48532,12259
24052,48473,12145
23979,48410,12021
23897,48341,11882
23804,48264,11731
23706,48181,11573
23605,48090,11406
23497,47989,11229
23383,47883,11042
23263,47776,10851
23135,47666,10650
23005,47551,10439
22877,47436,10227
22753,47324,10020
22635,47217,9817
22515,47113,9617
22385,47006,9421
22250,46894,9226
22114,46779,9028
21981,46666,8832
21853,46558,8638
21729,46450,8439
21602,46339,8233
21472,46229,8028
21346,46125,7826
21226,46022,7622
21107,45919,7420
20990,45814,7228
20876,45712,7052
20768,45613,6884
20663,45518,6720
20560,45424,6562
20458,45331,6407
20355,45238,6252
20251,45144,6100
20150,45053,5949
20052,44969,5803
19958,44886,5657
19868,44801,5509
19778,44717,5363
19688,44636,5219
19601,44556,5082
19517,44478,4951
19436,44406,4826
19352,44337,4704
19261,44266,4579
19166,44192,4455
19073,44121,4336
18990,44052,4219
18914,43985,4100
18837,43919,3986
18760,43852,3875
18679,43784,3764
18598,43717,3654
18517,43649,3546
18440,43582,3436
18368,43521,3324
18302,43467,3218
18250,43425,3136
18226,43404,3094
18246,43422,3115
18326,43496,3233
18487,43647,3481
18743,43889,3886
19103,44228,4469
19579,44672,5249
20175,45219,6233
20877,45858,7393
21649,46556,8670
22444,47272,9981
23222,47971,11259
23958,48631,12462
24628,49234,13552
25221,49766,14510
25732,50225,15326
26159,50606,16000
26502,50908,16536
26767,51138,16944
26962,51307,17242
27101,51423,17452
27195,51498,17587
27253,51539,17654
27279,51552,17669
27281,51546,17645
27260,51520,17589
27217,51475,17504
27157,51414,17398
27082,51337,17275
26991,51249,17139
26885,51152,16987
26772,51051,16827
26658,50950,16663
26544,50849,16491
26427,50744,16303
26303,50632,16097
26172,50516,15882
26035,50397,15665
25894,50274,15443
25750,50147,15213
25603,50015,14974
25453,49882,14729
25302,49749,14481
25150,49611,14234
25002,49474,13989
24859,49341,13751
24725,49215,13521
24599,49097,13306
24481,48987,13109
24377,48890,12931
24289,48810,12774
24217,48743,12643
24160,48691,12544
24115,48655,12471
24079,48633,12418
24053,48622,12388
24040,48621,12381
24038,48625,12388
24044,48630,12402
24056,48637,12422
24071,48643,12442
24079,48644,12461
24079,48643,12474
24075,48639,12480
24064,48629,12476
24043,48612,12461
24018,48593,12433
23988,48570,12392
23948,48543,12337
23900,48513,12268
23847,48479,12183
23783,48432,12081
23707,48365,11963
23622,48283,11830
23533,48197,11684
23441,48110,11529
23339,48018,11364
23230,47921,11189
23118,47820,11009
23003,47717,10822
22881,47608,10621
22754,47494,10411
22621,47380,10197
22485,47266,9980
22349,47150,9758
22213,47031,9536
22077,46911,9316
21938,46792,9098
21797,46675,8880
21657,46558,8665
21520,46439,8451
21384,46317,8232
21244,46190,8009
21099,46064,7786
20957,45944,7569
20820,45828,7364
20685,45715,7169
20556,45603,6982
20438,45494,6798
20328,45389,6613
20222,45284,6429
20119,45179,6248
20019,45078,6069
19918,44981,5888
19817,44888,5712
19719,44796,5548
19621,44709,5393
19520,44624,5243
19413,44542,5095
19308,44464,4952
19210,44389,4813
19111,44310,4674
19012,44229,4532
18916,44147,4389
18826,44070,4248
18743,43998,4116
18665,43928,3994
18592,43860,3885
18520,43796,3784
18441,43731,3680
18357,43666,3572
18275,43607,3463
18197,43555,3355
18120,43500,3247
18045,43441,3141
17977,43382,3039
17913,43322,2936
17846,43260,2828
17779,43201,2716
17716,43146,2608
17653,43093,2507
17589,43040,2405
17523,42984,2303
17453,42923,2201
17378,42858,2100
17305,42795,2006
17242,42741,1927
17201,42707,1875
17196,42703,1873
17246,42749,1948
17370,42858,2130
17585,43046,2452
17903,43328,2936
18331,43713,3605
18879,44208,4479
19545,44813,5558
20313,45511,6809
21144,46265,8168
21991,47031,9557
22810,47771,10902
23570,48457,12149
24250,49069,13259
24842,49602,14219
25347,50051,15030
25764,50417,15693
26096,50704,16213
26354,50925,16609
26548,51089,16905
26689,51204,17112
26781,51280,17244
26836,51326,17316
26857,51346,17338
26851,51341,17319
26826,51317,17269
26791,51275,17197
26738,51219,17104
26670,51147,16992
26591,51065,16863
26504,50979,16725
26412,50891,16578
26317,50799,16420
26220,50704,16250
26121,50603,16072
26015,50496,15888
25900,50383,15694
25776,50267,15490
25651,50149,15278
25523,50031,15060
25388,49907,14835
25246,49776,14599
25099,49642,14351
24945,49501,14093
24784,49354,13830
24624,49206,13572
24472,49067,13327
24331,48939,13097
24200,48823,12888
24084,48722,12705
23984,48638,12550
23901,48572,12419
23834,48520,12313
23783,48483,12235
23748,48460,12188
23733,48454,12170
23733,48461,12175
23744,48474,12196
23760,48491,12225
23776,48509,12256
23792,48528,12284
23808,48546,12307
23821,48558,12324
23829,48560,12336
23832,48555,12341
23832,48548,12338
23822,48541,12321
23794,48524,12285
23750,48495,12226
23696,48455,12149
23635,48405,12060
23568,48343,11956
23495,48271,11831
23413,48191,11690
23322,48105,11537
23227,48014,11375
23131,47921,11207
23034,47830,11036
22935,47741,10860
22835,47648,10677
22733,47554,10491
22628,47458,10307
22511,47357,10120
22383,47250,9926
22253,47141,9727
22127,47036,9531
22003,46931,9334
21877,46821,9133
21753,46708,8932
21634,46597,8734
21515,46487,8539
21392,46376,8344
21263,46265,8151
21129,46152,7959
20996,46039,7767
20866,45930,7574
20741,45828,7381
20622,45726,7187
20505,45620,6990
20388,45514,6794
20271,45411,6604
20158,45315,6421
20051,45223,6242
19947,45132,6067
19844,45042,5895
19744,44953,5728
19640,44860,5563
19534,44765,5404
19429,44674,5253
19327,44585,5104
19226,44501,4954
19130,44424,4814
19040,44351,4684
18954,44279,4558
18869,44205,4433
18784,44126,4303
18701,44048,4173
18620,43974,4046
18540,43901,3921
18464,43832,3797
18393,43769,3681
18322,43709,3567
18251,43644,3451
18181,43579,3332
18110,43516,3216
18038,43452,3102
17963,43385,2989
17887,43318,2881
17813,43253,2777
17735,43189,2672
17654,43125,2567
17572,43063,2464
17493,43002,2359
17415,42937,2252
17338,42869,2145
17265,42807,2043
17193,42750,1944
17117,42690,1841
17039,42630,1736
16963,42572,1631
16893,42516,1530
16829,42461,1437
16774,42413,1357
16739,42384,1303
16739,42387,1298
16793,42437,1375
16925,42556,1570
17154,42764,1911
17488,43067,2414
17928,43469,3098
18484,43981,3992
19164,44604,5105
19945,45316,6393
20782,46075,7778
21627,46838,9178
22443,47573,10526
23201,48252,11771
23883,48859,12878
24481,49387,13834
24988,49833,14634
25401,50191,15280
25730,50469,15784
25983,50679,16161
26166,50828,16431
26286,50925,16610
26354,50977,16711
26381,50993,16747
26372,50984,16731
26335,50955,16674
26280,50908,16584
26215,50849,16474
26142,50779,16349
26057,50699,16205
25962,50607,16045
25861,50507,15874
25750,50402,15697
25631,50293,15512
25508,50178,15317
25379,50060,15115
25249,49938,14904
25119,49808,14680
24983,49671,14442
24841,49533,14197
24691,49396,13949
24536,49253,13693
24376,49107,13430
24215,48967,13167
24063,48837,12912
23919,48715,12665
23785,48599,12432
23667,48494,12219
23557,48401,12028
23456,48319,11859
23371,48246,11710
23308,48184,11590
23260,48134,11499
23226,48098,11439
23209,48079,11411
23207,48073,11414
23217,48076,11442
23233,48086,11489
23257,48106,11544
23289,48136,11602
23321,48168,11657
23347,48193,11705
23365,48213,11743
23373,48230,11773
23371,48243,11790
23361,48246,11791
23344,48237,11779
23320,48219,11755
23285,48191,11712
23239,48155,11652
23187,48111,11575
23127,48056,11479
23056,47989,11363
22977,47915,11233
22897,47842,11098
22819,47769,10959
22736,47693,10810
22646,47608,10644
22546,47516,10465
22440,47419,10278
22326,47317,10084
22208,47210,9883
22091,47102,9678
21972,46994,9471
21846,46884,9264
21716,46772,9059
21589,46663,8859
21464,46558,8659
21339,46452,8456
21216,46344,8252
21093,46230,8045
20967,46112,7832
20838,45993,7623
20710,45881,7422
20587,45775,7229
20465,45669,7037
20341,45558,6844
20218,45445,6653
20096,45332,6465
19973,45221,6280
19852,45116,6100
19742,45020,5926
19639,44934,5760
19535,44854,5596
19429,44773,5431
19319,44688,5264
19212,44601,5097
19108,44511,4933
19006,44418,4772
18909,44325,4617
18817,44239,4470
18725,44157,4327
18635,44079,4189
18549,44003,4054
18466,43926,3920
18382,43849,3784
18299,43775,3650
18217,43705,3520
18136,43637,3395
18053,43568,3272
17968,43498,3155
17884,43431,3046
17804,43367,2942
17729,43306,2843
17660,43246,2745
17596,43186,2646
17535,43128,2545
17473,43071,2445
17411,43016,2345
17351,42964,2250
17293,42913,2157
17236,42862,2066
17182,42814,1976
17132,42770,1886
17079,42727,1793
17020,42680,1698
16956,42628,1607
16888,42574,1517
16818,42516,1423
16744,42454,1321
16667,42390,1219
16590,42327,1119
16513,42263,1021
16444,42202,933
16398,42163,878
16391,42161,882
16442,42206,969
16570,42317,1171
16790,42510,1513
17114,42798,2011
17548,43188,2686
18095,43685,3555
18758,44290,4626
19521,44983,5869
20341,45729,7217
21174,46487,8590
21986,47222,9919
22745,47907,11153
23426,48519,12254
24017,49046,13206
24516,49487,14005
24927,49849,14655
25255,50135,15161
25508,50349,15539
25695,50501,15808
25823,50599,15988
25895,50649,16087
25921,50658,16119
25915,50640,16099
25884,50602,16036
25833,50549,15939
25770,50484,15818
25696,50408,15679
25609,50321,15527
25504,50219,15358
25386,50107,15172
25262,49996,14974
25133,49882,14766
24999,49760,14544
24858,49629,14308
24709,49492,14058
24550,49346,13795
24387,49196,13526
24224,49049,13255
24063,48905,12981
23902,48761,12703
23739,48613,12426
23574,48465,12152
23410,48319,11885
23249,48177,11628
23098,48043,11386
22968,47922,11169
22858,47817,10984
22760,47726,10827
22672,47652,10700
22604,47599,10605
22561,47567,10542
22540,47553,10509
22537,47553,10503
22545,47562,10517
22567,47583,10554
22606,47618,10613
22653,47661,10684
22702,47707,10758
22748,47752,10831
22789,47790,10899
22819,47820,10960
22839,47844,11011
22851,47863,11047
22857,47871,11061
22854,47868,11055
22841,47860,11036
22816,47847,11006
22782,47823,10955
22737,47786,10882
22684,47740,10792
22626,47687,10688
22556,47622,10570
22473,47544,10438
22384,47457,10294
22290,47367,10137
22190,47275,9971
22087,47184,9802
21981,47091,9628
21869,46994,9445
21753,46893,9259
21637,46788,9072
21522,46679,8881
21403,46564,8679
21280,46442,8473
21154,46322,8270
21028,46206,8072
20901,46095,7874
20773,45984,7671
20643,45874,7464
20514,45766,7257
20391,45660,7054
20276,45562,6856
20169,45471,6665
20063,45380,6476
19956,45285,6287
19849,45190,6101
19746,45101,5923
19645,45016,5751
19545,44929,5585
19447,44839,5428
19350,44750,5278
19256,44664,5130
19165,44581,4982
19077,44500,4836
18991,44419,4693
18904,44337,4553
18812,44253,4409
18717,44169,4266
18622,44091,4128
18528,44015,3991
18441,43941,3851
18360,43870,3713
18280,43801,3582
18203,43732,3458
18128,43664,3336
18055,43598,3218
17983,43533,3100
17911,43468,2981
17836,43400,2861
17759,43331,2743
17681,43266,2629
17602,43202,2517
17523,43136,2406
17446,43070,2294
17370,43006,2186
17291,42944,2080
17209,42877,1977
17123,42807,1877
17035,42735,1777
16948,42663,1671
16869,42593,1560
16799,42532,1453
16738,42478,1347
16683,42427,1241
16627,42379,1136
16569,42331,1035
16510,42284,940
16460,42240,860
16429,42212,812
16426,42215,816
16470,42264,894
16581,42375,1073
16773,42559,1384
17060,42824,1848
17448,43177,2479
17949,43630,3298
18566,44187,4315
19282,44833,5500
20058,45531,6787
20850,46243,8101
21622,46936,9374
22344,47584,10557
22993,48166,11614
23558,48669,12528
24040,49093,13292
24437,49442,13910
24752,49715,14395
24987,49919,14761
25157,50066,15026
25274,50170,15207
25350,50231,15314
25390,50256,15362
25401,50254,15360
25380,50227,15311
25328,50173,15218
25255,50098,15092
25167,50010,14943
25063,49912,14774
24946,49802,14585
24819,49680,14375
24681,49552,14148
24533,49418,13907
24378,49275,13656
24218,49127,13391
24054,48976,13118
23886,48824,12838
23713,48667,12555
23537,48506,12266
23358,48345,11973
23183,48185,11679
23014,48029,11390
22847,47879,11110
22690,47739,10845
22545,47609,10598
22415,47489,10371
22296,47384,10169
22186,47294,9999
22088,47218,9864
22008,47155,9763
21951,47107,9690
21916,47078,9645
21902,47065,9626
21904,47068,9632
21917,47084,9664
21938,47111,9716
21961,47142,9779
21982,47170,9846
22004,47198,9915
22026,47223,9979
22045,47242,10026
22063,47260,10058
22084,47279,10079
22101,47294,10094
22106,47301,10095
22098,47296,10073
22081,47279,10033
22056,47256,9981
22025,47228,9923
21986,47192,9861
21942,47149,9792
21889,47099,9708
21827,47039,9610
21756,46973,9499
21679,46904,9379
21597,46831,9249
21509,46756,9113
21416,46678,8972
21318,46594,8820
21214,46503,8656
21102,46404,8481
20984,46301,8296
20866,46197,8105
20746,46092,7907
20619,45980,7698
20488,45865,7484
20358,45750,7271
20227,45636,7058
20091,45521,6844
19955,45403,6633
19823,45288,6427
19696,45178,6219
19572,45071,6012
19451,44966,5810
19342,44865,5611
19242,44769,5418
19144,44675,5233
19042,44583,5057
18941,44494,4890
18841,44409,4728
18739,44325,4571
18633,44239,4418
18525,44153,4267
18418,44067,4114
18314,43983,3964
18215,43906,3821
18126,43834,3685
18044,43763,3551
17960,43689,3420
17875,43613,3291
17789,43536,3165
17704,43459,3037
17624,43384,2909
17550,43314,2788
17479,43248,2674
17413,43186,2563
17348,43130,2455
17286,43081,2356
17222,43033,2260
17155,42977,2162
17087,42917,2060
17017,42854,1958
16947,42787,1854
16874,42713,1745
16802,42638,1634
16735,42567,1521
16668,42500,1407
16599,42438,1291
16531,42380,1182
16468,42333,1093
16421,42302,1037
16406,42300,1033
16444,42345,1108
16552,42453,1291
16745,42636,1604
17032,42904,2067
17420,43266,2700
17916,43727,3517
18519,44280,4511
19202,44900,5648
19931,45556,6869
20668,46216,8101
21377,46847,9282
22034,47432,10371
22624,47961,11348
23141,48424,12198
23583,48813,12910
23950,49126,13483
24244,49376,13931
24468,49571,14270
24628,49713,14513
24740,49804,14672
24815,49857,14764
24851,49877,14799
24854,49871,14784
24834,49844,14733
24796,49802,14655
24743,49750,14561
24680,49686,14450
24606,49610,14322
24524,49526,14175
24431,49436,14012
24328,49341,13838
24217,49241,13653
24100,49132,13453
23971,49013,13233
23832,48882,12995
23683,48742,12742
23525,48594,12475
23359,48437,12198
23188,48274,11910
23017,48112,11618
22850,47959,11330
22683,47810,11048
22516,47663,10773
22357,47520,10511
22209,47389,10266
22075,47267,10047
21957,47158,9855
21857,47069,9697
21782,47002,9579
21727,46954,9493
21685,46918,9434
21651,46892,9402
21624,46877,9393
21609,46875,9406
21606,46885,9436
21614,46908,9478
21633,46937,9523
21658,46967,9563
21683,46994,9602
21706,47015,9636
21724,47026,9659
21734,47027,9668
21733,47017,9662
21718,46998,9639
21692,46970,9598
21657,46934,9537
21614,46892,9463
21565,46846,9380
21511,46799,9288
21445,46747,9188
21369,46687,9083
21287,46623,8976
21201,46554,8861
21106,46479,8732
21006,46400,8590
20903,46321,8435
20799,46239,8264
20691,46150,8078
20583,46054,7885
20477,45955,7691
20368,45854,7497
20257,45748,7301
20142,45638,7098
20022,45524,6888
19898,45407,6675
19772,45291,6461
19648,45179,6251
19525,45069,6047
19402,44958,5842
19280,44848,5637
19160,44741,5438
19041,44634,5243
18921,44528,5048
18804,44423,4849
18691,44321,4650
18580,44219,4454
18470,44121,4270
18360,44028,4099
18248,43936,3939
18139,43844,3782
18036,43753,3623
17936,43664,3463
17839,43580,3308
17742,43500,3156
17642,43419,3006
17540,43338,2863
17438,43260,2728
17340,43182,2597
17247,43103,2464
17160,43026,2335
17080,42955,2214
17000,42885,2095
16918,42813,1971
16841,42743,1847
16771,42675,1727
16704,42612,1612
16636,42555,1499
16569,42505,1392
16505,42458,1289
16440,42409,1185
16371,42354,1082
16298,42295,982
16221,42235,886
16144,42176,790
16067,42117,699
15994,42059,610
15929,42005,531
15874,41955,463
15839,41915,414
15844,41906,410
15900,41950,481
16024,42060,652
16231,42248,954
16538,42526,1418
16951,42904,2066
17476,43384,2912
18117,43962,3957
18853,44622,5163
19643,45330,6461
20444,46048,7772
21222,46741,9035
21946,47386,10208
22594,47964,11261
23157,48463,12176
23633,48881,12943
24024,49218,13562
24333,49481,14044
24571,49679,14405
24752,49825,14664
24886,49927,14839
24968,49987,14944
25003,50008,14990
25004,49999,14987
24981,49969,14947
24941,49924,14878
24887,49868,14787
24818,49802,14676
24742,49730,14551
24659,49654,14419
24566,49571,14273
24463,49481,14112
24357,49385,13943
24248,49282,13766
24134,49175,13577
24016,49068,13384
23895,48961,13190
23771,48850,12988
23643,48732,12769
23512,48610,12537
23374,48484,12297
23228,48353,12051
23078,48218,11801
22929,48078,11551
22778,47938,11306
22624,47804,11073
22478,47676,10850
22347,47557,10641
22232,47453,10454
22133,47365,10294
22052,47293,10162
21991,47237,10059
21951,47199,9989
21931,47182,9955
21926,47181,9953
21936,47189,9973
21953,47204,10002
21969,47220,10030
21985,47237,10054
22004,47258,10084
22020,47280,10117
22029,47299,10142
22035,47316,10157
22041,47332,10171
22046,47341,10183
22042,47340,10182
22031,47330,10162
22018,47314,10128
21996,47291,10081
21958,47255,10014
21907,47211,9929
21849,47161,9832
21784,47102,9726
21708,47031,9615
21625,46955,9495
21542,46880,9367
21456,46803,9232
21365,46722,9087
21273,46640,8925
21180,46553,8748
21080,46458,8562
20975,46358,8375
20867,46259,8190
20758,46162,8008
20644,46065,7824
20524,45964,7634
20404,45859,7438
20288,45754,7241
20168,45651,7042
20049,45548,6841
19937,45450,6640
19829,45356,6442
19719,45260,6245
19606,45161,6052
19495,45062,5866
19385,44965,5684
19279,44869,5505
19175,44775,5332
19069,44682,5167
18959,44590,5008
18848,44495,4851
18736,44399,4691
18625,44306,4533
18514,44214,4376
18402,44123,4218
18294,44033,4061
18198,43949,3910
18111,43869,3766
18027,43792,3629
17938,43717,3494
17846,43639,3357
17755,43562,3216
17668,43487,3076
17587,43414,2939
17510,43344,2808
17433,43275,2679
17354,43205,2550
17277,43138,2424
17202,43074,2303
17129,43012,2187
17057,42952,2074
16988,42892,1966
16919,42831,1861
16850,42767,1755
16779,42702,1650
16707,42639,1552
16639,42578,1457
16573,42519,1361
16507,42459,1264
16441,42398,1164
16372,42338,1061
16300,42279,962
16231,42224,870
16174,42180,793
16143,42153,743
16148,42157,745
16201,42208,827
16319,42323,1019
16524,42517,1350
16835,42804,1852
17267,43197,2547
17826,43703,3451
18493,44304,4547
19230,44963,5773
19998,45645,7055
20757,46321,8325
21478,46966,9530
22142,47561,10632
22738,48090,11607
23259,48549,12446
23700,48935,13147
24059,49247,13711
24347,49492,14148
24575,49681,14474
24749,49819,14707
24873,49911,14864
24958,49964,14963
25008,49990,15013
25025,49996,15021
25011,49984,14989
24977,49955,14920
24932,49911,14826
24875,49851,14717
24803,49777,14592
24718,49695,14450
24622,49609,14295
24524,49521,14133
24425,49431,13967
24322,49337,13796
24210,49235,13614
24085,49121,13416
23949,49000,13203
23806,48874,12979
23661,48744,12753
23511,48610,12523
23357,48473,12284
23205,48339,12040
23059,48208,11796
22914,48078,11557
22772,47951,11323
22634,47829,11099
22504,47717,10890
22383,47617,10702
22275,47529,10536
22184,47454,10397
22108,47391,10281
22042,47335,10184
21987,47293,10109
21952,47269,10063
21939,47258,10045
21941,47255,10049
21954,47262,10068
21977,47279,10100
22004,47302,10140
22029,47326,10177
22051,47351,10208
22073,47378,10235
22093,47400,10257
22102,47412,10271
22096,47415,10276
22078,47410,10272
22051,47396,10252
22018,47373,10213
21983,47340,10154
21944,47298,10078
21894,47245,9988
21830,47184,9888
21758,47121,9781
21681,47053,9666
21598,46979,9538
21508,46900,9402
21415,46823,9262
21321,46743,9115
21222,46653,8953
21116,46555,8779
21009,46456,8600
20905,46359,8420
20798,46259,8234
20682,46152,8039
20561,46040,7840
20440,45928,7641
20318,45817,7440
20196,45706,7237
20077,45596,7036
19959,45490,6839
19839,45387,6643
19718,45286,6448
19596,45189,6257
19477,45093,6069
19362,44995,5883
19247,44893,5701
19129,44790,5519
19008,44687,5334
18888,44584,5149
18770,44482,4968
18657,44381,4789
18547,44283,4612
18439,44189,4436
18335,44102,4268
18235,44019,4108
18134,43935,3950
18030,43848,3795
17927,43761,3643
17828,43673,3494
17733,43586,3347
17643,43503,3202
17557,43426,3064
17480,43359,2936
17408,43298,2821
17334,43239,2717
17261,43180,2620
17196,43124,2527
17138,43070,2435
17083,43018,2340
17030,42967,2240
16978,42917,2136
16924,42868,2031
16870,42821,1928
16816,42776,1833
16755,42729,1743
16687,42678,1654
16620,42627,1562
16554,42574,1464
16487,42520,1361
16426,42468,1257
16375,42424,1166
16336,42394,1097
16318,42382,1065
16338,42402,1091
16414,42476,1206
16558,42617,1435
16784,42833,1804
17113,43137,2338
17560,43545,3065
18128,44059,3998
18799,44660,5102
19534,45315,6317
20293,45991,7574
21040,46656,8811
21746,47283,9977
22389,47853,11038
22958,48355,11969
23451,48782,12757
23869,49140,13403
24211,49426,13915
24480,49645,14303
24680,49808,14585
24819,49922,14782
24911,49993,14909
24964,50031,14974
24986,50040,14989
24980,50023,14964
24949,49987,14908
24901,49941,14829
24840,49890,14732
24771,49830,14621
24693,49759,14492
24607,49680,14349
24517,49597,14199
24428,49510,14043
24334,49416,13878
24233,49317,13704
24121,49214,13517
23997,49101,13315
23862,48978,13099
23722,48853,12877
23576,48731,12650
23425,48606,12413
23273,48475,12169
23124,48341,11920
22973,48203,11668
22821,48065,11419
22675,47933,11182
22544,47814,10965
22429,47706,10772
22330,47611,10607
22249,47536,10473
22185,47482,10371
22134,47448,10299
22099,47428,10250
22079,47417,10223
22070,47417,10214
22064,47424,10219
22064,47436,10235
22074,47452,10259
22091,47466,10294
22110,47477,10333
22126,47483,10366
22137,47486,10389
22149,47490,10405
22151,47488,10412
22137,47477,10401
22113,47458,10368
22080,47432,10318
22037,47394,10252
21985,47350,10172
21929,47305,10082
21868,47260,9981
21797,47209,9868
21712,47145,9743
21619,47070,9608
21522,46987,9465
21418,46898,9311
21306,46806,9150
21193,46709,8981
21076,46607,8799
20954,46498,8605
20831,46387,8407
20707,46275,8210
20579,46162,8007
20444,46044,7796
20305,45923,7578
20165,45803,7357
20030,45686,7130
19896,45567,6900
19760,45446,6670
19623,45323,6445
19484,45197,6222
19346,45070,5999
19207,44944,5777
19064,44816,5555
18917,44688,5333
18771,44562,5109
18626,44441,4886
18485,44326,4670
18347,44212,4461
18212,44099,4256
18083,43989,4054
17963,43882,3860
17842,43777,3670
17716,43670,3479
17592,43562,3294
17474,43459,3118
17362,43363,2949
17253,43271,2787
17145,43181,2629
17041,43095,2476
16940,43010,2328
16838,42927,2185
16740,42847,2050
16643,42766,1919
16544,42681,1787
16446,42594,1657
16349,42511,1530
16255,42431,1400
16164,42350,1266
16076,42268,1131
15997,42190,1000
15924,42118,874
15852,42049,750
15776,41984,629
15697,41919,1827
15613,41854,6394
15528,41788,14063
15448,41724,23097
15373,41662,32270
15299,41600,40783
15223,41538,48181
15145,41476,54264
15072,41414,59012
15004,41357,62517
14949,41313,64948
14923,41296,65201
14944,41324,61447
15024,41406,54156
15180,41556,45244
15423,41782,36091
15762,42093,27617
16203,42493,20375
16749,42984,14633
17392,43563,10445
18116,44216,7704
18885,44909,6199
19658,45605,5663
20397,46270,5834
21077,46880,6479
21679,47417,7401
22197,47876,8446
22632,48256,9503
22984,48561,10492
23256,48793,11359
23455,48957,12074
23592,49067,12639
23680,49137,13064
23725,49173,13357
23734,49178,13530
23710,49151,13600
23661,49095,13588
23587,49016,13509
23491,48920,13373
23378,48814,13196
23254,48699,12991
23123,48575,12762
22983,48442,12512
22838,48304,12248
22687,48162,11975
22524,48017,11689
22353,47864,11391
22177,47706,11088
21997,47544,10781
21814,47381,10470
21631,47217,10162
21451,47053,9859
21274,46892,9564
21103,46739,9283
20941,46596,9020
20789,46467,8780
20646,46348,8562
20515,46238,8362
20399,46140,8185
20302,46057,8035
20225,45990,7913
20166,45939,7822
20126,45906,7762
20102,45888,7728
20090,45882,7714
20094,45890,7721
20113,45911,7752
20142,45942,7806
20179,45978,7873
20217,46014,7946
20251,46050,8022
20281,46081,8088
20306,46106,8142
20326,46126,8183
20341,46139,8207
20345,46140,8206
20332,46127,8183
20304,46103,8145
20268,46071,8094
20220,46030,8023
20159,45978,7934
20091,45919,7827
20018,45852,7707
19936,45777,7575
19845,45694,7430
19749,45605,7274
19652,45515,7110
19554,45427,6940
19455,45338,6764
19352,45244,6580
19243,45142,6388
19124,45030,6188
18995,44912,5981
18865,44794,5773
18734,44676,5564
18600,44558,5352
18466,44442,5139
18339,44333,4930
18220,44232,4725
18103,44134,4522
17980,44036,4318
17856,43936,4119
17735,43837,3926
17616,43740,3739
17503,43643,3557
17395,43550,3384
17292,43460,3216
17189,43366,3047
17087,43272,2879
16991,43183,2720
16900,43097,2570
16808,43017,2429
16714,42940,2293
16622,42870,2163
16534,42804,2040
16446,42738,1921
16358,42670,1804
16275,42603,1690
16196,42535,1579
16117,42465,1467
16038,42398,1356
15962,42335,1247
15885,42270,1135
15806,42206,1018
15734,42146,904
15667,42088,797
15606,42032,696
15548,41979,599
15489,41926,503
15432,41876,1722
15375,41829,6311
15315,41778,14003
15250,41724,23058
15181,41666,32251
15104,41605,40781
15023,41544,48191
14946,41483,54279
14879,41427,59032
14826,41382,62553
14793,41353,65010
14795,41354,65290
14845,41396,61558
14951,41487,54287
15125,41638,45397
15383,41863,36263
15731,42172,27803
16173,42568,20565
16719,43060,14820
17362,43641,10622
18078,44286,7857
18827,44960,6308
19573,45628,5717
20280,46260,5825
20925,46834,6401
21498,47340,7261
21996,47777,8262
22417,48144,9291
22763,48442,10261
23039,48676,11118
23251,48852,11838
23407,48975,12417
23512,49056,12860
23577,49099,13175
23611,49110,13375
23617,49099,13480
23597,49075,13509
23553,49034,13477
23500,48980,13398
23438,48918,13288
23362,48850,13155
23271,48774,12997
23172,48687,12819
23067,48591,12632
22956,48487,12436
22839,48375,12229
22719,48263,12011
22596,48151,11784
22470,48031,11553
22341,47904,11323
22208,47780,11093
22071,47658,10860
21931,47537,10629
21794,47419,10401
21665,47309,10181
21546,47206,9973
21437,47110,9782
21335,47019,9608
21244,46937,9455
21164,46864,9329
21095,46802,9229
21043,46755,9162
21010,46727,9125
20990,46718,9116
20984,46724,9131
20987,46739,9160
21002,46759,9201
21023,46784,9248
21046,46810,9297
21070,46834,9346
21095,46856,9393
21117,46876,9433
21135,46892,9464
21146,46905,9487
21153,46914,9501
21153,46915,9497
21141,46903,9474
21121,46882,9437
21093,46854,9386
21055,46816,9321
21008,46769,9238
20954,46717,9140
20892,46658,9033
20820,46593,8914
20742,46523,8785
20660,46450,8651
20573,46372,8508
20481,46290,8356
20384,46204,8195
20283,46115,8027
20178,46026,7855
20065,45932,7677
19945,45832,7491
19822,45729,7304
19703,45626,7114
19583,45519,6919
19461,45411,6724
19340,45303,6532
19219,45197,6341
19096,45090,6149
18973,44984,5958
18852,44880,5770
18735,44779,5584
18623,44682,5398
18511,44584,5210
18400,44485,5025
18294,44390,4844
18190,44298,4668
18089,44206,4497
17991,44117,4330
17895,44031,4166
17798,43950,4000
17699,43872,3840
17604,43798,3687
17511,43721,3538
17420,43645,3394
17333,43574,3259
17249,43505,3130
17167,43429,2998
17088,43353,2867
17014,43283,2745
16946,43218,2635
16878,43153,2529
16807,43089,2422
16736,43028,2314
16662,42968,2205
16584,42905,2094
16503,42838,1978
16425,42772,1866
16356,42712,1761
16294,42651,1656
16233,42589,1548
16169,42526,1438
16102,42466,1326
16034,42409,1213
15963,42353,1102
15897,42303,1006
15846,42265,934
15822,42246,900
15842,42260,928
15924,42328,1048
16081,42463,1281
16320,42677,1651
16654,42980,2190
17099,43385,2920
17657,43891,3842
18301,44476,4914
18997,45106,6076
19713,45750,7263
20416,46379,8413
21078,46968,9484
21683,47502,10451
22219,47976,11300
22682,48382,12027
23068,48716,12631
23381,48983,13114
23626,49193,13491
23812,49351,13776
23952,49464,13986
24060,49544,14136
24140,49599,14234
24190,49628,14286
24215,49639,14305
24223,49638,14300
24219,49627,14279
24202,49606,14245
24173,49577,14196
24140,49544,14133
24104,49508,14061
24057,49464,13980
23999,49408,13886
23933,49344,13780
23866,49282,13669
23800,49218,13554
23731,49148,13434
23659,49073,13310
23577,48997,13181
23481,48919,13039
23374,48834,12879
23263,48744,12707
23152,48648,12531
23044,48548,12355
22942,48450,12179
22845,48360,12008
22752,48276,11843
22665,48198,11687
22588,48126,11542
22524,48062,11416
22469,48007,11311
22421,47963,11226
22383,47929,11156
22356,47903,11105
22340,47882,11072
22329,47867,11052
22322,47858,11040
22319,47860,11040
22319,47868,11050
22322,47879,11061
22326,47894,11069
22333,47909,11078
22336,47919,11080
22331,47922,11070
22324,47916,11051
22312,47899,11025
22291,47868,10994
22261,47829,10953
22225,47789,10903
22189,47749,10845
22147,47707,10777
22097,47660,10694
22041,47610,10598
21980,47558,10490
21911,47499,10371
21833,47432,10238
21746,47359,10093
21649,47278,9940
21545,47189,9782
21437,47097,9624
21333,47006,9471
21236,46916,9322
21142,46827,9171
21047,46738,9021
20951,46652,8872
20854,46569,8722
20758,46487,8569
20662,46405,8415
20569,46321,8268
20480,46238,8123
20392,46154,7975
20302,46068,7825
20212,45983,7678
20124,45898,7530
20033,45812,7377
19940,45727,7220
19843,45644,7060
19740,45560,6897
19633,45473,6730
19527,45387,6563
19425,45308,6401
19326,45233,6243
19227,45159,6086
19130,45085,5936
19036,45011,5796
18945,44936,5656
18853,44855,5511
18764,44776,5370
18679,44700,5231
18595,44624,5093
18513,44548,4958
18438,44479,4829
18368,44417,4701
18300,44357,4571
18231,44296,4444
18162,44235,4320
18098,44177,4201
18037,44120,4086
17975,44063,3977
17913,44006,3871
17850,43949,3765
17782,43888,3659
17714,43826,3554
17651,43772,3455
17591,43722,3362
17529,43669,3268
17462,43612,3170
17391,43552,3069
17320,43493,2969
17247,43435,2864
17172,43375,2755
17095,43316,2648
17014,43255,2542
16932,43189,2437
16857,43126,2343
16803,43079,2275
16784,43063,2253
16817,43096,2303
16924,43196,2463
17124,43379,2772
17433,43659,3259
17859,44043,3948
18396,44528,4834
19025,45095,5873
19709,45708,6997
20407,46329,8136
21091,46934,9243
21739,47506,10289
22332,48029,11241
22859,48492,12078
23316,48889,12794
23701,49219,13396
24012,49485,13891
24253,49696,14284
24443,49861,14586
24594,49990,14813
24709,50085,14983
24794,50152,15107
24851,50197,15194
24886,50226,15248
24906,50240,15274
24912,50240,15274
24908,50227,15253
24896,50203,15214
24876,50170,15163
24850,50132,15104
24821,50090,15040
24787,50045,14965
24746,49998,14881
24700,49946,14789
24651,49889,14692
24597,49826,14591
24535,49760,14485
24467,49692,14371
24396,49624,14251
24318,49552,14127
24227,49475,13996
24129,49395,13857
24036,49316,13713
23954,49237,13567
23877,49156,13419
23804,49076,13274
23733,49007,13141
23664,48947,13024
23597,48892,12920
23536,48845,12825
23483,48807,12745
23443,48774,12684
23415,48750,12639
23396,48735,12606
23387,48730,12586
23384,48729,12579
23387,48729,12580
23396,48736,12585
23410,48750,12596
23423,48765,12610
23431,48773,12622
23434,48776,12627
23435,48774,12627
23432,48767,12619
23422,48755,12598
23406,48740,12563
23386,48719,12515
23354,48686,12453
23307,48641,12374
23249,48588,12280
23182,48528,12178
23105,48459,12066
23018,48381,11940
22929,48301,11805
22843,48224,11663
22759,48147,11515
22677,48070,11365
22597,47993,11218
22513,47915,11073
22426,47834,10922
22337,47751,10767
22250,47667,10614
22163,47586,10463
22071,47507,10310
21975,47424,10151
21878,47341,9994
21779,47258,9841
21676,47172,9690
21574,47084,9542
21474,46999,9402
21378,46916,9265
21285,46835,9125
21197,46757,8988
21109,46679,8855
21019,46601,8719
20927,46523,8580
20839,46449,8446
20757,46379,8316
20675,46305,8182
20587,46226,8043
20499,46147,7903
20413,46070,7761
20328,45996,7616
20237,45922,7470
20146,45848,7324
20062,45776,7181
19980,45703,7038
19894,45628,6899
19809,45552,6766
19728,45480,6636
19649,45410,6503
19569,45342,6368
19488,45277,6236
19404,45210,6103
19317,45140,5967
19229,45065,5828
19144,44992,5691
19065,44923,5556
18987,44857,5423
18910,44791,5293
18836,44730,5170
18763,44669,5051
18687,44605,4932
18611,44536,4813
18535,44466,4697
18457,44395,4578
18376,44322,4456
18297,44253,4336
18223,44190,4220
18149,44130,4102
18069,44070,3983
17989,44010,3861
17910,43949,3740
17830,43884,3618
17748,43814,3492
17667,43745,3366
17590,43679,3244
17517,43612,3125
17453,43549,3024
17413,43507,2960
17408,43500,2951
17453,43543,3025
17568,43652,3216
17781,43847,3565
18110,44146,4106
18558,44551,4853
19114,45051,5784
19749,45620,6844
20421,46223,7961
21093,46825,9075
21741,47405,10142
22343,47947,11133
22892,48438,12027
23381,48869,12808
23804,49236,13471
24163,49543,14024
24463,49795,14480
24709,49998,14846
24906,50159,15131
25057,50284,15343
25170,50376,15490
25248,50435,15581
25298,50467,15632
25330,50484,15655
25347,50490,15659
25350,50482,15642
25332,50459,15604
25302,50424,15552
25266,50383,15490
25221,50337,15418
25170,50288,15339
25117,50238,15257
25060,50183,15168
24997,50119,15067
24930,50050,14961
24863,49982,14852
24797,49915,14739
24727,49846,14619
24653,49776,14493
24576,49706,14362
24493,49634,14222
24402,49558,14073
24307,49475,13917
24208,49384,13760
24106,49289,13609
24010,49200,13468
23929,49125,13340
23861,49063,13225
23802,49010,13123
23757,48967,13037
23727,48935,12974
23706,48913,12932
23694,48903,12905
23687,48903,12888
23687,48909,12882
23698,48920,12889
23717,48933,12905
23739,48946,12929
23758,48959,12956
23767,48966,12974
23764,48965,12976
23754,48960,12966
23744,48952,12952
23733,48939,12933
23710,48917,12897
23676,48887,12845
23634,48851,12782
23585,48807,12706
23530,48755,12615
23473,48699,12513
23417,48643,12408
23355,48586,12302
23283,48528,12186
23207,48469,12060
23132,48411,11933
23059,48350,11807
22982,48286,11675
22902,48218,11537
22821,48147,11398
22738,48071,11257
22650,47986,11113
22558,47899,10965
22465,47814,10816
22368,47728,10665
22269,47640,10513
22173,47554,10360
22081,47472,10208
21987,47392,10057
21893,47311,9905
21803,47233,9755
21718,47156,9608
21635,47081,9464
21552,47005,9320
21467,46932,9182
21379,46860,9048
21290,46786,8914
21197,46708,8779
21104,46630,8643
21011,46553,8508
20917,46474,8371
20823,46394,8232
20731,46317,8094
20643,46244,7956
20553,46170,7818
20461,46094,7681
20370,46016,7544
20280,45938,7402
20187,45858,7255
20095,45779,7108
20006,45703,6964
19920,45627,6821
19841,45555,6683
19771,45489,6554
19703,45428,6432
19637,45369,6314
19573,45313,6200
19512,45261,6089
19453,45211,5982
19389,45160,5878
19324,45111,5775
19265,45064,5673
19209,45014,5569
19150,44956,5462
19086,44897,5353
19020,44840,5245
18952,44783,5137
18882,44727,5028
18811,44670,4922
18743,44615,4819
18679,44560,4715
18615,44507,4605
18550,44451,4492
18488,44396,4383
18429,44342,4277
18374,44288,4172
18324,44234,4073
18280,44188,3985
18248,44154,3915
18233,44137,3875
18245,44145,3882
18301,44194,3961
18414,44300,4139
18605,44481,4455
18892,44748,4946
19283,45109,5627
19772,45559,6476
20334,46078,7446
20940,46634,8484
21561,47199,9536
22168,47747,10557
22738,48257,11508
23262,48718,12363
23731,49128,13114
24138,49480,13758
24479,49770,14299
24762,50003,14741
24999,50192,15099
25192,50345,15382
25338,50462,15595
25439,50544,15746
25504,50597,15846
25541,50620,15902
25554,50617,15919
25547,50596,15903
25526,50565,15864
25491,50527,15809
25447,50480,15743
25397,50431,15667
25339,50381,15582
25275,50327,15487
25204,50265,15382
25130,50195,15270
25056,50124,15156
24981,50055,15042
24905,49988,14921
24828,49916,14791
24747,49839,14656
24658,49759,14514
24563,49676,14362
24468,49588,14202
24373,49496,14037
24272,49396,13869
24166,49292,13696
24059,49193,13521
23954,49097,13350
23852,49005,13188
23757,48922,13039
23671,48852,12907
23593,48792,12788
23526,48738,12685
23470,48693,12599
23427,48657,12529
23393,48631,12477
23367,48612,12442
23348,48601,12420
23337,48598,12410
23331,48599,12410
23333,48603,12414
23340,48610,12418
23347,48618,12415
23352,48622,12408
23354,48620,12393
23351,48614,12368
23337,48600,12332
23308,48579,12286
23265,48547,12224
23210,48505,12146
23150,48452,12058
23088,48389,11959
23019,48319,11844
22942,48243,11714
22859,48167,11578
22770,48089,11440
22678,48007,11297
22583,47926,11144
22485,47845,10986
22383,47763,10826
22280,47679,10665
22179,47598,10506
22080,47516,10348
21980,47430,10191
21879,47343,10035
21781,47257,9881
21686,47173,9730
21592,47088,9586
21500,47004,9449
21411,46923,9316
21323,46841,9183
21234,46757,9048
21147,46676,8912
21064,46598,8772
20980,46520,8622
20893,46440,8466
20802,46357,8308
20706,46273,8150
20607,46189,7988
20507,46107,7823
20411,46027,7661
20318,45946,7503
20222,45861,7342
20121,45773,7176
20020,45682,7010
19915,45593,6841
19804,45502,6670
19692,45412,6499
19584,45324,6336
19482,45244,6178
19384,45170,6025
19290,45094,5875
19199,45016,5728
19111,44938,5582
19020,44859,5434
18931,44778,5288
18847,44700,5146
18768,44625,5011
18688,44553,4880
18609,44485,4753
18532,44420,4629
18456,44357,4507
18375,44292,4386
18290,44224,4266
18204,44150,4144
18115,44075,4020
18027,43998,3893
17943,43921,3767
17860,43846,3644
17777,43776,3521
17695,43710,3402
17616,43648,3289
17543,43592,3186
17485,43547,3095
17446,43518,3031
17441,43517,3016
17483,43557,3076
17587,43652,3239
17769,43816,3530
18048,44068,3981
18437,44418,4616
18934,44865,5438
19518,45389,6414
20155,45960,7484
20813,46547,8586
21461,47123,9662
22072,47665,10669
22632,48160,11585
23137,48603,12396
23575,48987,13090
23941,49308,13662
24237,49569,14125
24473,49778,14494
24658,49943,14778
24797,50068,14982
24896,50154,15117
24959,50203,15195
24991,50222,15227
25000,50218,15227
24993,50201,15205
24969,50172,15165
24930,50131,15106
24880,50083,15032
24824,50031,14948
24761,49972,14858
24691,49907,14753
24618,49839,14635
24547,49770,14510
24478,49698,14380
24406,49621,14241
24332,49538,14092
24250,49451,13935
24157,49359,13772
24052,49263,13600
23944,49164,13418
23836,49066,13232
23727,48966,13045
23617,48866,12856
23505,48768,12669
23393,48673,12488
23288,48582,12317
23194,48500,12164
23116,48432,12036
23055,48376,11935
23007,48332,11859
22965,48301,11802
22933,48284,11759
22919,48280,11735
22923,48285,11733
22939,48297,11745
22961,48311,11762
22984,48325,11780
23004,48338,11800
23021,48352,11824
23036,48367,11849
23050,48382,11870
23057,48388,11883
23054,48384,11881
23041,48369,11864
23019,48347,11830
22986,48319,11780
22944,48284,11716
22894,48242,11640
22836,48194,11554
22771,48141,11458
22696,48082,11347
22616,48019,11223
22535,47952,11092
22450,47881,10951
22364,47801,10803
22281,47720,10657
22195,47642,10517
22102,47562,10375
22007,47482,10225
21915,47401,10070
21824,47319,9912
21735,47237,9756
21648,47158,9607
21561,47081,9469
21471,47001,9336
21378,46918,9203
21282,46830,9071
21182,46740,8939
21080,46650,8799
20975,46558,8647
20871,46467,8492
20770,46380,8337
20674,46299,8178
20579,46218,8017
20486,46138,7856
20394,46060,7698
20300,45980,7541
20201,45897,7387
20102,45814,7238
20011,45733,7091
19926,45655,6949
19846,45582,6813
19769,45511,6679
19691,45441,6545
19609,45371,6413
19526,45305,6287
19449,45244,6167
19376,45184,6048
19302,45120,5926
19225,45052,5801
19144,44980,5671
19060,44903,5538
18973,44827,5401
18891,44757,5269
18818,44694,5145
18747,44632,5022
18675,44568,4896
18604,44504,4770
18535,44442,4649
18465,44382,4533
18392,44319,4416
18318,44253,4298
18244,44190,4184
18173,44129,4074
18104,44071,3968
18045,44022,3879
18005,43990,3822
17998,43989,3818
18042,44032,3890
18157,44139,4074
18359,44326,4404
18658,44607,4902
19054,44977,5573
19537,45422,6399
20086,45924,7337
20673,46456,8329
21272,46992,9326
21859,47513,10294
22414,48003,11203
22919,48450,12027
23368,48844,12752
23757,49185,13373
24090,49471,13890
24371,49704,14313
24605,49891,14653
24793,50043,14923
24934,50161,15130
25034,50246,15276
25100,50301,15369
25144,50331,15422
25173,50347,15451
25188,50349,15460
25191,50336,15449
25190,50316,15423
25186,50292,15390
25172,50261,15349
25147,50226,15297
25111,50187,15234
25066,50148,15161
25014,50105,15078
24959,50062,14986
24905,50020,14890
24848,49974,14790
24785,49918,14682
24713,49849,14565
24634,49773,14437
24548,49696,14301
24453,49614,14154
24354,49529,14003
24257,49444,13851
24163,49365,13703
24069,49288,13557
23979,49211,13414
23895,49133,13277
23819,49058,13151
23752,48989,13037
23696,48931,12939
23649,48885,12857
23611,48846,12793
23582,48814,12746
23565,48793,12718
23555,48784,12702
23550,48787,12692
23546,48794,12682
23541,48798,12673
23537,48801,12664
23534,48801,12653
23529,48798,12633
23519,48789,12609
23505,48772,12583
23484,48749,12554
23460,48727,12519
23439,48709,12483
23421,48693,12447
23399,48674,12407
23371,48648,12356
23340,48619,12293
23306,48585,12218
23265,48542,12129
23215,48487,12026
23157,48425,11916
23092,48359,11799
23020,48291,11678
22944,48220,11558
22869,48150,11437
22791,48079,11314
22709,48004,11183
22625,47927,11046
22542,47853,10905
22455,47779,10762
22363,47702,10613
22270,47622,10461
22181,47544,10309
22095,47469,10160
22010,47395,10012
21922,47320,9864
21833,47247,9721
21747,47175,9585
21662,47106,9455
21581,47040,9333
21508,46978,9217
21436,46918,9102
21361,46857,8987
21288,46795,8876
21217,46733,8765
21148,46667,8648
21081,46599,8529
21017,46533,8411
20953,46470,8295
20886,46407,8177
20815,46340,8056
20741,46275,7935
20667,46213,7816
20593,46151,7694
20522,46090,7575
20454,46031,7462
20387,45976,7352
20319,45920,7242
20251,45863,7134
20184,45802,7028
20115,45740,6920
20044,45677,6810
19974,45616,6700
19908,45562,6593
19844,45510,6487
19778,45454,6373
19705,45392,6251
19629,45328,6124
19551,45264,5995
19471,45199,5867
19392,45133,5744
19320,45073,5631
19261,45023,5540
19222,44992,5487
19224,44997,5503
19290,45059,5620
19440,45196,5873
19685,45420,6291
20029,45732,6882
20468,46129,7626
20978,46591,8483
21531,47089,9404
22102,47600,10347
22673,48105,11277
23221,48588,12163
23726,49038,12978
24185,49448,13708
24598,49810,14351
24957,50117,14906
25256,50370,15371
25499,50576,15751
25697,50741,16057
25857,50872,16299
25988,50976,16489
26093,51058,16635
26178,51119,16749
26244,51164,16835
26294,51195,16895
26331,51218,16933
26357,51234,16958
26374,51239,16969
26383,51235,16967
26389,51229,16957
26389,51221,16940
26384,51208,16915
26375,51189,16882
26362,51166,16846
26343,51141,16809
26317,51113,16769
26283,51080,16720
26243,51042,16662
26193,50997,16590
26134,50943,16500
26071,50884,16397
26004,50820,16289
25930,50753,16173
25852,50683,16047
25776,50613,15915
25709,50548,15788
25650,50491,15670
25594,50439,15554
25540,50388,15440
25491,50339,15341
25448,50292,15256
25410,50250,15182
25378,50220,15124
25350,50200,15083
25323,50180,15053
25300,50160,15031
25286,50149,15018
25279,50147,15013
25279,50150,15012
25289,50157,15014
25306,50169,15021
25324,50182,15033
25340,50194,15049
25353,50204,15063
25362,50209,15073
25363,50208,15077
25353,50200,15066
25335,50183,15038
25310,50158,14998
25279,50126,14950
25243,50091,14898
25202,50056,14841
25160,50021,14778
25115,49982,14705
25068,49939,14619
25016,49894,14522
24963,49844,14421
24907,49788,14316
24848,49728,14207
24787,49668,14094
24732,49614,13981
24680,49559,13868
24626,49501,13755
24569,49444,13640
24511,49388,13527
24451,49332,13415
24390,49272,13300
24327,49207,13184
24262,49140,13066
24187,49070,12942
24104,48994,12811
24018,48916,12675
23933,48838,12540
23847,48759,12407
23762,48683,12272
23679,48611,12136
23595,48542,12002
23509,48471,11867
23424,48399,11729
23345,48326,11596
23269,48252,11468
23192,48176,11341
23113,48101,11210
23035,48029,11081
22957,47960,10958
22880,47895,10837
22804,47833,10716
22732,47776,10601
22664,47722,10493
22596,47669,10389
22536,47617,10289
22484,47566,10192
22432,47515,10096
22377,47461,10001
22320,47408,9906
22265,47356,9815
22209,47306,9726
22149,47255,9637
22086,47201,9545
22019,47144,9451
21949,47083,9350
21879,47023,9246
21811,46964,9144
21745,46904,9042
21679,46843,8935
21610,46782,8822
21539,46719,8706
21467,46656,8590
21394,46593,8477
21323,46531,8369
21256,46474,8271
21207,46434,8197
21187,46423,8171
21209,46455,8226
21296,46551,8395
21468,46726,8704
21731,46982,9164
22081,47311,9765
22504,47703,10483
22983,48142,11278
23498,48604,12110
24025,49070,12947
24543,49525,13761
25032,49951,14528
25484,50342,15233
25894,50693,15867
26264,51007,16430
26591,51284,16923
26874,51522,17347
27113,51719,17702
27311,51877,17995
27472,52003,18230
27598,52098,18414
27692,52170,18555
27765,52223,18663
27823,52260,18746
27870,52286,18811
27906,52307,18862
27931,52324,18904
27946,52337,18938
27956,52346,18962
27967,52350,18977
27981,52353,18990
27994,52355,19001
27999,52350,19003
28000,52340,18996
28001,52332,18987
28003,52323,18974
28000,52311,18950
27992,52295,18916
27978,52275,18873
27957,52247,18818
27926,52209,18751
27885,52162,18674
27838,52110,18589
27786,52055,18501
27728,51996,18407
27668,51936,18310
27610,51878,18215
27553,51823,18126
27500,51773,18041
27451,51727,17961
27406,51688,17889
27366,51657,17828
27330,51633,17778
27304,51615,17740
27291,51605,17716
27286,51602,17699
27284,51601,17684
27287,51602,17675
27295,51601,17673
27300,51598,17675
27303,51595,17678
27303,51595,17679
27300,51597,17673
27293,51594,17658
27283,51586,17635
27272,51572,17606
27261,51554,17571
27244,51530,17527
27224,51503,17476
27201,51473,17420
27172,51438,17358
27137,51398,17284
27098,51358,17204
27056,51317,17120
27004,51273,17032
26943,51223,16935
26876,51167,16830
26809,51108,16721
26740,51044,16610
26667,50972,16496
26592,50898,16378
26514,50827,16259
26435,50756,16141
26354,50685,16024
26276,50617,15908
26202,50555,15793
26132,50495,15676
26065,50436,15555
25993,50374,15433
25914,50310,15309
25831,50244,15181
25746,50173,15047
25662,50096,14909
25578,50014,14772
25494,49933,14636
25411,49857,14499
25333,49786,14364
25261,49718,14232
25195,49650,14105
25130,49582,13977
25065,49518,13851
24997,49456,13728
24924,49395,13607
24851,49334,13486
24785,49274,13369
24722,49213,13252
24656,49148,13133
24588,49081,13011
24521,49015,12892
24455,48951,12778
24388,48885,12667
24319,48817,12558
24251,48750,12449
24184,48683,12341
24119,48618,12233
24057,48559,12126
23994,48503,12019
23926,48446,11910
23857,48389,11800
23793,48333,11694
23734,48281,11596
23679,48229,11503
23624,48177,11410
23570,48126,11320
23518,48073,11231
23460,48017,11140
23397,47957,11046
23332,47899,10951
23271,47846,10857
23210,47795,10759
23145,47740,10654
23076,47680,10542
23002,47613,10424
22921,47539,10298
22835,47463,10162
22752,47388,10024
22672,47316,9892
22595,47253,9776
22534,47207,9697
22508,47192,9679
22539,47228,9755
22648,47337,9956
22850,47532,10310
23150,47816,10821
23537,48178,11466
23992,48597,12212
24500,49057,13027
25042,49540,13880
25590,50026,14739
26123,50496,15567
26624,50934,16342
27085,51332,17054
27502,51688,17695
27868,52001,18255
28186,52268,18735
28459,52488,19143
28684,52664,19484
28861,52802,19762
29000,52911,19984
29112,52998,20165
29200,53065,20313
29267,53116,20428
29323,53157,20516
29374,53188,20584
29420,53210,20638
29458,53227,20678
29492,53239,20707
29524,53249,20733
29552,53257,20755
29575,53265,20772
29595,53277,20785
29614,53292,20797
29628,53301,20805
29638,53301,20805
29640,53293,20797
29635,53276,20780
29620,53250,20751
29594,53215,20708
29561,53177,20654
29524,53137,20592
29486,53094,20521
29444,53045,20440
29398,52990,20353
29350,52932,20261
29298,52872,20162
29245,52814,20060
29191,52759,19960
29141,52707,19868
29097,52659,19783
29061,52618,19708
29035,52589,19649
29017,52574,19606
29005,52571,19577
29001,52572,19557
29004,52574,19547
29013,52579,19544
29025,52584,19544
29039,52594,19547
29057,52608,19556
29075,52622,19567
29091,52632,19575
29104,52637,19577
29115,52640,19574
29118,52637,19563
29112,52628,19543
29102,52613,19516
29089,52593,19483
29068,52568,19436
29043,52539,19375
29017,52505,19307
28987,52465,19234
28947,52418,19154
28897,52364,19064
28840,52307,18967
28776,52250,18866
28708,52190,18761
28638,52130,18654
28569,52071,18548
28503,52015,18444
28438,51958,18339
28378,51899,18232
28326,51840,18127
28280,51782,18025
28231,51722,17922
28178,51662,17817
28123,51605,17715
28068,51550,17614
28012,51496,17508
27954,51441,17397
27896,51389,17292
27840,51339,17192
27783,51286,17090
27726,51228,16982
27669,51171,16875
27611,51117,16773
27547,51060,16672
27480,51000,16568
27414,50944,16466
27347,50890,16365
27278,50834,16261
27208,50776,16157
27138,50719,16053
27070,50658,15944
27002,50594,15823
26937,50527,15697
26873,50460,15571
26807,50392,15447
26738,50321,15320
26669,50250,15192
26598,50181,15062
26524,50111,14932
26448,50044,14806
26375,49978,14687
26305,49912,14574
26241,49849,14462
26182,49791,14346
26125,49736,14229
26070,49683,14113
26015,49629,14001
25961,49577,13894
25911,49530,13797
25861,49484,13703
25808,49433,13608
25754,49380,13510
25700,49327,13414
25644,49271,13320
25583,49211,13227
25514,49145,13127
25439,49075,13020
25360,49003,12907
25279,48928,12788
25199,48854,12664
25121,48784,12539
25046,48720,12418
24971,48657,12302
24894,48592,12186
24816,48525,12067
24738,48457,11942
24659,48386,11812
24582,48314,11683
24507,48242,11557
24437,48177,11441
24381,48126,11343
24351,48100,11283
24364,48114,11295
24437,48182,11411
24589,48323,11661
24832,48544,12059
25168,48845,12605
25581,49218,13282
26051,49644,14051
26560,50106,14876
27086,50585,15724
27608,51058,16563
28109,51514,17368
28582,51948,18127
29020,52348,18827
29417,52701,19454
29768,53005,20000
30074,53265,20470
30333,53481,20870
30546,53653,21204
30719,53785,21475
30855,53887,21692
30959,53964,21863
31032,54019,21990
31084,54056,22080
31124,54079,22147
31153,54095,22200
31176,54103,22241
31195,54104,22272
31211,54102,22293
31222,54100,22302
31232,54098,22304
31241,54095,22301
31247,54089,22294
31248,54081,22282
31244,54072,22268
31237,54063,22255
31227,54053,22237
31213,54038,22208
31193,54014,22164
31168,53982,22106
31139,53944,22038
31103,53897,21961
31058,53844,21871
31011,53789,21773
30962,53733,21673
30908,53677,21572
30852,53621,21467
30794,53567,21362
30737,53517,21266
30684,53472,21183
30638,53431,21112
30602,53396,21053
30576,53370,21009
30557,53355,20979
30547,53351,20956
30547,53356,20942
30556,53367,20939
30568,53376,20938
30580,53381,20938
30595,53388,20942
30611,53398,20950
30624,53407,20954
30635,53414,20950
30642,53414,20941
30645,53405,20932
30642,53389,20917
30635,53369,20893
30622,53348,20861
30601,53321,20816
30574,53289,20759
30545,53255,20693
30515,53221,20624
30477,53185,20554
30431,53145,20477
30384,53103,20393
30337,53060,20307
30288,53017,20218
30235,52969,20122
30181,52921,20023
30129,52876,19927
30079,52829,19833
30027,52777,19740
29977,52725,19648
29926,52673,19554
29870,52617,19455
29807,52554,19347
29745,52490,19234
29686,52429,19120
29628,52369,19007
29567,52307,18893
29499,52245,18776
29425,52181,18658
29349,52112,18535
29270,52038,18410
29190,51964,18284
29111,51891,18159
29034,51822,18034
28958,51757,17908
28885,51696,17786
28814,51633,17668
28743,51569,17552
28672,51503,17433
28603,51437,17315
28539,51372,17194
28477,51306,17068
28417,51241,16938
28358,51179,16812
28299,51117,16689
28234,51054,16566
28168,50992,16442
28103,50929,16321
28035,50865,16204
27965,50801,16089
27898,50741,15976
27831,50681,15863
27762,50616,15752
27692,50548,15644
27623,50484,15541
27556,50426,15437
27488,50369,15329
27422,50315,15218
27359,50262,15109
27296,50209,15005
27233,50157,14902
27170,50103,14798
27110,50047,14695
27050,49991,14593
26987,49933,14485
26921,49873,14373
26852,49811,14261
26781,49747,14150
26711,49682,14040
26641,49617,13929
26572,49553,13816
26501,49488,13699
26428,49420,13580
26351,49347,13454
26274,49270,13325
26197,49191,13196
26123,49115,13073
26059,49052,12960
26015,49008,12873
25999,48996,12837
26024,49027,12877
26112,49115,13027
26278,49276,13311
26529,49516,13737
26859,49828,14295
27257,50202,14962
27713,50625,15715
28207,51078,16524
28709,51536,17346
29200,51982,18147
29671,52405,18911
30112,52795,19625
30513,53144,20275
30870,53454,20854
31185,53725,21362
31456,53956,21804
31685,54148,22175
31876,54304,22480
32031,54429,22725
32152,54526,22915
32241,54597,23056
32309,54651,23158
32362,54689,23231
32400,54713,23282
32425,54725,23310
32442,54731,23323
32453,54730,23328
32459,54726,23327
32458,54717,23319
32450,54703,23303
32435,54682,23283
32415,54656,23253
32393,54627,23213
32369,54600,23167
32346,54575,23120
32320,54548,23069
32286,54515,23006
32241,54475,22929
32188,54430,22842
32128,54380,22744
32066,54322,22635
32006,54260,22522
31948,54199,22408
31890,54139,22295
31834,54082,22187
31784,54028,22087
31739,53978,21999
31698,53933,21923
31663,53897,21859
31637,53872,21807
31623,53854,21769
31617,53843,21740
31621,53842,21724
31633,53850,21724
31645,53863,21736
31655,53874,21755
31665,53883,21777
31677,53894,21799
31688,53907,21822
31697,53918,21840
31709,53927,21852
31724,53935,21857
31736,53940,21849
31740,53940,21830
31735,53937,21804
31726,53931,21773
31710,53921,21735
31686,53903,21688
31657,53875,21631
31623,53836,21563
31581,53788,21484
31533,53732,21396
31482,53675,21303
31429,53619,21206
31370,53561,21102
31303,53497,20988
31232,53429,20870
31158,53358,20752
31082,53285,20633
31004,53208,20509
30928,53132,20381
30852,53056,20251
30776,52981,20118
30701,52907,19983
30627,52833,19849
30553,52761,19718
30476,52689,19587
30399,52619,19458
30325,52547,19332
30249,52471,19206
30169,52393,19078
30088,52316,18947
30008,52242,18815
29926,52168,18684
29845,52095,18554
29765,52024,18426
29687,51956,18300
29609,51889,18171
29535,51825,18043
29465,51763,17918
29397,51701,17797
29328,51637,17676
29256,51569,17553
29182,51500,17428
29110,51434,17309
29040,51371,17198
28973,51312,17092
28912,51259,16992
28854,51211,16896
28796,51164,16799
28738,51115,16699
28684,51066,16601
28632,51018,16506
28578,50968,16410
28520,50915,16307
28459,50859,16201
28395,50802,16096
28327,50744,15993
28257,50685,15888
28191,50629,15786
28129,50570,15685
28066,50507,15579
28000,50440,15466
27931,50372,15348
27862,50304,15231
27790,50238,15113
27719,50176,14997
27653,50116,14887
27591,50060,14787
27536,50012,14699
27494,49978,14627
27474,49968,14587
27492,49989,14602
27560,50054,14699
27694,50175,14902
27898,50362,15226
28174,50616,15674
28516,50933,16235
28914,51302,16886
29352,51708,17602
29811,52130,18348
30274,52552,19097
30728,52963,19826
31165,53351,20524
31576,53713,21178
31951,54042,21777
32286,54334,22314
32580,54588,22791
32831,54809,23208
33041,54998,23565
33218,55157,23867
33365,55287,24122
33484,55387,24330
33577,55462,24492
33653,55519,24617
33715,55563,24717
33765,55593,24795
33803,55610,24849
33829,55621,24885
33846,55627,24909
33855,55628,24919
33859,55624,24917
33854,55617,24910
33841,55608,24898
33820,55587,24879
33794,55555,24848
33766,55519,24809
33737,55483,24764
33705,55445,24710
33667,55404,24642
33622,55358,24561
33571,55308,24469
33513,55255,24367
33455,55198,24256
33394,55139,24140
33328,55078,24023
33260,55014,23906
33193,54950,23793
33126,54891,23684
33059,54836,23580
32996,54784,23482
32943,54738,23395
32902,54700,23327
32872,54671,23278
32853,54651,23239
32843,54641,23209
32837,54640,23192
32833,54641,23186
32833,54640,23183
32838,54641,23184
32848,54646,23190
32860,54654,23200
32871,54662,23210
32882,54672,23216
32897,54681,23215
32910,54685,23210
32918,54684,23201
32920,54680,23187
32917,54672,23170
32907,54660,23145
32889,54643,23110
32866,54622,23065
32837,54594,23015
32799,54556,22956
32754,54513,22887
32705,54469,22808
32652,54423,22720
32593,54370,22621
32526,54309,22514
32453,54243,22401
32376,54174,22284
32294,54100,22157
32209,54021,22025
32125,53939,21892
32043,53858,21757
31958,53779,21619
31871,53698,21477
31788,53620,21334
31708,53545,21193
31629,53472,21056
31552,53401,20922
31476,53333,20788
31402,53264,20650
31327,53190,20509
31252,53116,20372
31179,53045,20241
31105,52975,20109
31028,52901,19972
30947,52823,19833
30866,52743,19695
30783,52661,19554
30694,52574,19408
30604,52489,19263
30515,52406,19123
30426,52327,18982
30337,52249,18836
30250,52169,18691
30169,52090,18551
30091,52013,18414
30016,51941,18276
29946,51874,18137
29881,51811,18004
29820,51751,17882
29760,51695,17768
29698,51641,17658
29635,51588,17551
29570,51531,17445
29502,51467,17334
29434,51403,17220
29365,51339,17105
29293,51273,16987
29223,51210,16867
29154,51150,16749
29086,51088,16634
29017,51026,16521
28944,50964,16410
28871,50906,16303
28805,50855,16204
28755,50819,16128
28737,50809,16098
28768,50842,16145
28860,50934,16298
29021,51094,16574
29260,51328,16980
29576,51632,17514
29957,51992,18155
30386,52390,18869
30846,52810,19623
31317,53238,20392
31779,53659,21149
32218,54059,21870
32626,54431,22542
33000,54768,23155
33333,55063,23702
33622,55318,24180
33871,55537,24597
34080,55717,24956
34250,55864,25254
34388,55983,25495
34497,56080,25683
34581,56156,25830
34644,56211,25942
34691,56250,26029
34729,56278,26094
34758,56298,26142
34779,56309,26176
34793,56312,26196
34802,56313,26209
34806,56314,26217
34806,56308,26216
34803,56297,26207
34799,56283,26193
34794,56265,26175
34783,56246,26151
34767,56226,26119
34746,56203,26076
34720,56171,26020
34687,56130,25951
34647,56081,25873
34602,56028,25790
34553,55972,25699
34498,55913,25598
34438,55855,25488
34375,55794,25373
34308,55728,25253
34237,55660,25130
34165,55593,25011
34098,55532,24900
34037,55477,24795
33983,55430,24700
33938,55392,24620
33902,55364,24559
33874,55343,24511
33851,55324,24468
33831,55308,24430
33815,55296,24400
33802,55288,24377
33792,55282,24359
33786,55276,24345
33783,55271,24334
33784,55266,24323
33785,55261,24308
33783,55252,24290
33776,55239,24267
33761,55222,24235
33741,55200,24194
33716,55175,24147
33687,55147,24095
33652,55113,24035
33612,55072,23966
33567,55029,23890
33515,54983,23809
33458,54931,23717
33399,54874,23616
33340,54817,23510
33277,54755,23404
33209,54690,23295
33139,54623,23177
33066,54555,23052
32987,54484,22923
32903,54409,22786
32819,54335,22647
32736,54259,22511
32655,54182,22375
32575,54105,22234
32499,54027,22087
32424,53948,21941
32350,53869,21801
32277,53790,21662
32202,53712,21520
32125,53637,21378
32044,53563,21235
31960,53491,21090
31876,53421,20946
31794,53349,20807
31712,53275,20671
31626,53198,20532
31536,53118,20390
31445,53039,20247
31351,52955,20103
31257,52867,19957
31167,52779,19810
31081,52694,19662
30994,52607,19511
30910,52523,19360
30830,52446,19214
30754,52375,19075
30678,52308,18939
30602,52242,18805
30527,52174,18673
30447,52103,18539
30364,52027,18407
30284,51953,18277
30211,51883,18150
30145,51816,18028
30082,51751,17912
30021,51689,17801
29964,51634,17700
29911,51584,17603
29859,51538,17505
29808,51497,17406
29758,51458,17306
29708,51416,17208
29657,51373,17110
29602,51327,17011
29547,51280,16915
29491,51230,16821
29432,51174,16721
29371,51115,16614
29309,51054,16505
29242,50990,16394
29171,50923,16283
29097,50859,16176
29026,50800,16075
28967,50750,15984
28930,50714,15915
28925,50709,15897
28966,50751,15962
29071,50858,16142
29257,51044,16458
29532,51314,16917
29891,51661,17515
30320,52071,18228
30799,52522,19020
31308,52996,19859
31829,53475,20713
32346,53943,21551
32842,54389,22352
33307,54807,23104
33736,55188,23799
34121,55524,24424
34460,55816,24973
34756,56068,25454
35009,56286,25868
35219,56469,26218
35387,56620,26509
35522,56742,26752
35628,56836,26953
35710,56908,27112
35775,56962,27234
35830,57004,27330
35874,57038,27404
35904,57061,27456
35922,57077,27489
35935,57086,27508
35944,57088,27515
35948,57083,27509
35951,57074,27498
35954,57064,27486
35953,57049,27466
35944,57027,27436
35933,57002,27399
35916,56975,27358
35890,56943,27310
35856,56904,27249
35817,56861,27178
35773,56814,27100
35722,56764,27013
35665,56709,26915
35604,56650,26811
35540,56584,26702
35472,56516,26587
35401,56448,26468
35333,56385,26348
35269,56325,26233
35206,56271,26127
35145,56222,26031
35094,56182,25948
35060,56148,25878
35034,56121,25820
35012,56098,25772
34998,56081,25735
34990,56071,25708
34987,56065,25690
34985,56063,25677
34981,56062,25670
34975,56061,25667
34967,56058,25664
34959,56055,25658
34951,56051,25648
34942,56040,25630
34929,56021,25602
34910,55996,25562
34884,55967,25508
34852,55931,25443
34810,55886,25367
34764,55837,25280
34714,55788,25187
34658,55736,25089
34597,55679,24983
34530,55619,24872
34461,55555,24757
34389,55488,24639
34314,55416,24515
34241,55342,24390
34166,55269,24268
34087,55198,24142
34002,55122,24009
33916,55043,23869
33832,54963,23730
33748,54883,23590
33664,54801,23445
33581,54720,23297
33500,54637,23151
33416,54551,23003
33322,54465,22848
33224,54381,22687
33125,54297,22526
33027,54212,22365
32929,54127,22202
32832,54044,22042
32736,53961,21887
32640,53879,21732
32545,53795,21575
32452,53710,21420
32364,53628,21271
32281,53549,21124
32200,53472,20976
32121,53396,20832
32043,53320,20692
31967,53242,20551
31892,53162,20411
31816,53085,20273
31737,53014,20138
31660,52947,20005
31589,52883,19872
31517,52819,19741
31442,52750,19612
31364,52680,19481
31283,52608,19345
31201,52533,19209
31116,52455,19080
31033,52380,18956
30957,52313,18833
30889,52249,18709
30823,52186,18582
30755,52122,18455
30687,52059,18333
30620,51997,18218
30555,51937,18110
30492,51878,18004
30430,51823,17901
30369,51770,17798
30308,51714,17695
30245,51657,17589
30180,51602,17482
30113,51548,17375
30045,51493,17269
29980,51436,17165
29919,51378,17063
29857,51318,16961
29789,51255,16854
29714,51185,16737
29636,51112,16614
29560,51039,16486
29488,50970,16358
29426,50914,16245
29389,50882,16174
29392,50886,16178
29454,50949,16291
29598,51093,16546
29841,51329,16959
30176,51650,17528
30592,52044,18229
31073,52495,19030
31601,52986,19899
32149,53492,20796
32695,53992,21684
33221,54470,22534
33719,54919,23335
34176,55332,24072
34583,55699,24730
34938,56017,25306
35240,56286,25804
35491,56508,26229
35697,56684,26582
35864,56821,26870
35995,56928,27104
36094,57009,27288
36162,57066,27423
36207,57104,27519
36238,57125,27584
36254,57135,27626
36258,57135,27647
36255,57130,27654
36249,57120,27651
36238,57106,27638
36221,57090,27616
36199,57072,27586
36175,57052,27549
36150,57024,27504
36125,56991,27454
36095,56956,27397
36059,56921,27332
36017,56882,27257
35970,56836,27169
35922,56786,27072
35870,56729,26970
35813,56665,26858
35751,56596,26737
35684,56523,26609
35612,56451,26483
35535,56380,26357
35461,56313,26231
35394,56252,26111
35336,56199,26000
35286,56151,25899
35247,56111,25810
35218,56079,25739
35195,56052,25687
35177,56035,25651
35165,56028,25627
35161,56029,25617
35166,56034,25619
35176,56040,25623
35190,56050,25627
35207,56063,25633
35219,56072,25636
35225,56073,25633
35225,56068,25626
35220,56059,25614
35208,56046,25592
35188,56027,25556
35159,56004,25508
35124,55977,25453
35082,55941,25390
35035,55899,25317
34987,55858,25237
34936,55813,25152
34877,55761,25058
34811,55702,24951
34740,55640,24838
34671,55575,24724
34602,55509,24610
34532,55443,24490
34463,55379,24367
34392,55313,24243
34313,55239,24111
34231,55160,23969
34145,55080,23825
34056,55001,23683
33965,54920,23538
33877,54841,23390
33794,54766,23243
33717,54691,23100
33641,54613,22960
33567,54535,22823
33497,54460,22689
33427,54389,22554
33350,54318,22417
33267,54246,22276
33179,54170,22136
33087,54087,21994
32992,54000,21847
32897,53913,21695
32805,53830,21540
32714,53745,21380
32619,53655,21215
32519,53562,21048
32417,53468,20880
32310,53371,20712
32203,53273,20543
32098,53177,20378
31995,53082,20218
31893,52991,20063
31791,52906,19911
31691,52826,19760
31594,52746,19609
31496,52660,19459
31400,52572,19310
31310,52489,19163
31226,52413,19020
31142,52342,18880
31060,52268,18742
30981,52193,18610
30905,52121,18484
30827,52050,18359
30752,51980,18236
30684,51915,18118
30617,51854,18005
30549,51792,17892
30480,51730,17778
30411,51671,17666
30342,51611,17555
30271,51548,17440
30196,51484,17322
30122,51422,17205
30045,51361,17090
29965,51298,16974
29888,51234,16857
29814,51170,16742
29743,51104,16629
29671,51036,16513
29598,50964,16391
29523,50886,16263
29440,50800,16126
29350,50708,15981
29260,50618,15832
29169,50529,15682
29077,50442,15534
28987,50363,15393
28913,50305,15277
28875,50279,15212
28892,50297,15230
28981,50379,15366
29164,50548,15661
29454,50818,16142
29848,51190,16800
30328,51647,17600
30869,52164,18499
31447,52713,19455
32035,53268,20426
32613,53809,21374
33160,54320,22271
33664,54787,23098
34119,55206,23842
34521,55572,24493
34868,55883,25054
35159,56142,25531
35393,56350,25925
35575,56508,26240
35712,56624,26487
35809,56706,26674
35870,56759,26803
35901,56788,26885
35910,56795,26931
35902,56785,26945
35879,56761,26929
35847,56729,26894
35810,56692,26851
35768,56652,26800
35723,56609,26737
35677,56567,26663
35631,56523,26584
35582,56475,26500
35527,56419,26406
35466,56358,26303
35402,56294,26198
35331,56228,26088
35250,56156,25966
35162,56080,25831
35071,55996,25686
34975,55904,25529
34871,55800,25359
34761,55690,25177
34651,55581,24992
34543,55478,24806
34440,55384,24625
34347,55304,24458
34266,55235,24312
34198,55174,24188
34142,55121,24086
34099,55081,24010
34066,55054,23957
34043,55037,23919
34027,55027,23894
34019,55024,23882
34018,55027,23883
34023,55033,23892
34030,55041,23902
34036,55048,23914
34040,55050,23921
34040,55044,23919
34036,55035,23905
34028,55021,23883
34013,55004,23856
33993,54982,23822
33969,54957,23777
33939,54926,23721
33900,54888,23655
33854,54843,23576
33801,54792,23486
33742,54736,23387
33677,54676,23279
33604,54609,23160
33523,54536,23028
33435,54460,22892
33343,54382,22750
33245,54299,22598
33141,54210,22438
33034,54119,22273
32926,54025,22107
32817,53930,21940
32708,53835,21769
32600,53738,21593
32493,53639,21413
32386,53541,21232
32283,53446,21056
32177,53352,20884
32067,53256,20710
31960,53161,20534
31859,53067,20361
31762,52974,20190
31664,52880,20016
31564,52782,19836
31465,52685,19658
31368,52590,19488
31269,52496,19324
31166,52403,19165
31064,52313,19010
30965,52228,18859
30867,52143,18709
30767,52059,18558
30671,51977,18411
30579,51899,18266
30490,51820,18121
30402,51736,17976
30319,51654,17838
30239,51576,17706
30158,51498,17575
30081,51423,17444
30007,51351,17316
29930,51279,17187
29847,51204,17052
29763,51129,16913
29681,51056,16778
29600,50984,16648
29519,50909,16518
29441,50836,16387
29366,50767,16260
29293,50701,16137
29219,50632,16009
29142,50561,15877
29064,50491,15743
28987,50426,15606
28908,50361,15467
28824,50290,15329
28737,50216,15196
28650,50142,15064
28561,50065,14930
28470,49987,14795
28379,49907,14657
28288,49826,14512
28199,49745,14363
28115,49666,14214
28032,49589,14066
27947,49513,13916
27861,49437,13769
27784,49369,13636
27725,49318,13535
27693,49292,13485
27706,49310,13513
27794,49395,13662
27982,49571,13978
28280,49852,14485
28685,50236,15175
29181,50709,16023
29741,51245,16982
30336,51813,17997
30942,52387,19020
31537,52945,20013
32100,53471,20949
32622,53955,21805
33095,54389,22569
33512,54766,23237
33869,55085,23806
34167,55348,24278
34409,55560,24657
34600,55723,24952
34738,55842,25176
34831,55921,25334
34892,55969,25434
34930,55993,25489
34945,55996,25509
34937,55979,25494
34912,55949,25451
34873,55910,25389
34820,55862,25315
34751,55805,25225
34673,55741,25119
34594,55673,25005
34515,55601,24884
34440,55529,24760
34367,55457,24637
34287,55381,24508
34197,55297,24369
34104,55209,24220
34007,55119,24064
33907,55025,23902
33803,54929,23734
33698,54830,23557
33595,54731,23374
33495,54634,23191
33394,54538,23009
33293,54442,22830
33194,54347,22659
33099,54255,22499
33014,54172,22355
32938,54100,22233
32871,54043,22134
32817,53999,22058
32777,53964,21998
32753,53940,21958
32745,53932,21937
32748,53934,21932
32758,53942,21939
32770,53959,21958
32787,53983,21990
32804,54007,22026
32819,54028,22058
32830,54047,22083
32835,54060,22098
32833,54059,22098
32826,54048,22084
32818,54032,22061
32809,54012,22032
32791,53986,21991
32759,53950,21933
32719,53903,21859
32668,53848,21769
32606,53788,21665
32534,53726,21550
32454,53659,21428
32370,53586,21298
32283,53505,21155
32193,53421,21002
32099,53335,20845
32002,53244,20687
31903,53153,20530
31802,53062,20369
31704,52970,20204
31606,52879,20038
31508,52788,19871
31409,52694,19696
31311,52600,19519
31209,52506,19343
31104,52412,19167
30996,52319,18989
30893,52229,18814
30797,52140,18644
30699,52048,18477
30596,51955,18306
30492,51865,18137
30390,51777,17971
30289,51685,17806
30189,51589,17640
30091,51496,17477
29995,51406,17321
29899,51319,17169
29806,51235,17021
29714,51155,16881
29622,51080,16744
29531,51003,16604
29442,50925,16463
29359,50850,16328
29283,50776,16202
29212,50704,16081
29145,50637,15965
29081,50573,15853
29012,50508,15738
28936,50441,15615
28858,50372,15488
28784,50304,15363
28714,50239,15244
28648,50174,15129
28585,50111,15017
28523,50050,14908
28456,49989,14795
28381,49926,14675
28302,49861,14550
28221,49798,14426
28137,49730,14299
28053,49660,14168
27969,49588,14033
27884,49513,13894
27793,49434,13748
27699,49351,13597
27602,49268,13446
27508,49187,13299
27421,49112,13163
27347,49049,13045
27297,49007,12965
27287,49001,12952
27337,49049,13040
27470,49170,13266
27702,49382,13663
28036,49694,14242
28463,50097,14983
28965,50574,15844
29516,51098,16780
30089,51640,17751
30661,52178,18716
31212,52694,19642
31731,53175,20507
32203,53610,21285
32617,53986,21960
32973,54307,22534
33279,54580,23017
33536,54805,23417
33744,54982,23737
33907,55116,23984
34031,55215,24164
34115,55281,24285
34162,55320,24353
34176,55335,24382
34169,55331,24385
34145,55312,24363
34110,55281,24318
34067,55241,24255
34013,55191,24178
33946,55129,24085
33871,55057,23977
33795,54981,23858
33719,54902,23735
33636,54817,23605
33545,54728,23465
33447,54635,23314
33345,54541,23154
33243,54442,22987
33138,54340,22812
33029,54234,22628
32916,54125,22438
32797,54013,22242
32674,53900,22041
32554,53791,21840
32439,53686,21646
32328,53584,21461
32224,53489,21290
32130,53405,21138
32051,53333,21005
31985,53271,20887
31933,53221,20789
31895,53186,20718
31872,53163,20669
31861,53147,20637
31861,53140,20627
31868,53144,20638
31881,53157,20665
31893,53174,20697
31905,53193,20729
31917,53213,20760
31924,53231,20788
31927,53244,20805
31930,53251,20814
31929,53254,20812
31922,53248,20797
31907,53234,20766
31886,53211,20723
31859,53183,20673
31823,53149,20614
31778,53107,20544
31726,53056,20461
31668,52997,20368
31602,52928,20262
31530,52857,20143
31454,52784,20016
31375,52708,19886
31289,52626,19748
31199,52540,19600
31108,52454,19446
31016,52365,19290
30918,52270,19125
30819,52175,18953
30722,52081,18781
30623,51986,18610
30519,51886,18434
30417,51783,18254
30317,51679,18074
30215,51574,17894
30111,51471,17714
30007,51375,17538
29904,51284,17364
29799,51195,17191
29694,51106,17018
29594,51020,16848
29498,50938,16685
29401,50857,16530
29307,50777,16383
29219,50700,16239
29134,50624,16098
29049,50548,15958
28963,50470,15818
28876,50388,15677
28789,50305,15538
28706,50222,15403
28625,50142,15274
28548,50066,15146
28472,49993,15019
28396,49920,14893
28320,49847,14767
28246,49778,14636
28171,49710,14501
28092,49638,14367
28013,49565,14235
27937,49491,14105
27863,49418,13976
27789,49342,13843
27709,49263,13703
27624,49185,13563
27539,49109,13425
27451,49034,13286
27363,48957,13137
27279,48880,12986
27198,48802,12840
27123,48725,12704
27059,48659,12586
27016,48614,12500
27003,48604,12468
27037,48644,12520
27140,48755,12694
27339,48954,13029
27642,49248,13543
28044,49631,14224
28532,50088,15037
29077,50592,15940
29649,51116,16889
30225,51641,17842
30786,52152,18765
31315,52635,19636
31799,53080,20436
32231,53475,21146
32611,53818,21759
32943,54113,22281
33224,54362,22719
33456,54567,23078
33643,54732,23366
33790,54860,23592
33899,54951,23761
33974,55010,23879
34022,55041,23955
34050,55056,24000
34063,55059,24020
34067,55054,24020
34065,55042,24002
34055,55021,23971
34035,54992,23927
34007,54951,23868
33968,54901,23800
33919,54844,23723
33864,54783,23634
33809,54720,23537
33757,54659,23436
33705,54598,23333
33648,54537,23227
33583,54471,23113
33514,54403,22991
33443,54331,22863
33370,54253,22724
33293,54169,22575
33211,54083,22418
33125,53998,22258
33035,53912,22099
32946,53829,21948
32860,53748,21807
32779,53667,21673
32705,53585,21549
32642,53509,21437
32589,53444,21343
32544,53389,21266
32509,53344,21201
32489,53314,21154
32482,53296,21126
32478,53288,21114
32475,53286,21110
32476,53290,21112
32482,53298,21121
32491,53309,21130
32500,53323,21134
32507,53336,21133
32512,53344,21126
32512,53342,21110
32503,53330,21082
32488,53309,21041
32466,53280,20989
32435,53238,20923
32396,53184,20843
32352,53127,20754
32301,53066,20658
32241,52999,20549
32173,52924,20427
32101,52848,20298
32027,52772,20166
31948,52694,20029
31865,52614,19888
31780,52532,19741
31696,52449,19589
31613,52366,19434
31533,52284,19278
31459,52203,19123
31387,52124,18970
31315,52045,18815
31243,51966,18658
31171,51885,18505
31095,51803,18355
31017,51721,18206
30939,51639,18056
30860,51555,17906
30777,51467,17752
30688,51372,17592
30592,51274,17427
30495,51177,17262
30402,51083,17101
30311,50991,16943
30222,50899,16789
30139,50812,16647
30064,50734,16513
29995,50662,16383
29928,50597,16256
29865,50538,16137
29805,50479,16024
29748,50420,15916
29699,50364,15814
29653,50311,15718
29608,50259,15627
29560,50208,15534
29514,50159,15440
29470,50109,15346
29427,50056,15248
29381,50000,15147
29335,49946,15048
29289,49895,14951
29239,49841,14853
29181,49780,14749
29119,49718,14640
29058,49657,14529
28995,49594,14413
28929,49532,14293
28864,49470,14172
28800,49408,14051
28736,49341,13928
28671,49271,13805
28605,49202,13686
28536,49136,13573
28468,49074,13464
28410,49021,13369
28373,48990,13308
28374,48993,13312
28434,49052,13421
28576,49187,13670
28813,49411,14085
29145,49720,14660
29555,50099,15363
30028,50534,16161
