green_channel,red_channel,ir_channel
49647,21803,30036
49687,21822,30017
49760,21871,30038
49871,21954,30106
50015,22064,30215
50186,22194,30361
50389,22349,30551
50634,22533,30798
50916,22747,31103
51228,22985,31456
51565,23246,31854
51924,23527,32289
52307,23824,32752
52714,24137,33236
53142,24463,33738
53589,24799,34256
54049,25143,34779
54509,25486,35294
54961,25821,35790
55398,26142,36264
55806,26438,36707
56175,26703,37109
56508,26943,37466
56803,27153,37782
57054,27328,38051
57261,27473,38274
57432,27596,38458
57572,27702,38606
57677,27782,38719
57753,27836,38799
57806,27876,38861
57842,27909,38910
57860,27932,38943
57865,27945,38966
57867,27955,38986
57865,27961,38997
57854,27960,38992
57837,27949,38974
57824,27936,38956
57819,27927,38944
57817,27922,38933
57821,27921,38921
57841,27928,38918
57870,27942,38924
57899,27962,38934
57924,27983,38944
57942,27999,38951
57948,28003,38952
57935,27996,38947
57902,27977,38938
57848,27949,38920
57779,27908,38890
57693,27853,38842
57594,27783,38773
57490,27703,38685
57383,27618,38579
57271,27527,38460
57159,27440,38338
57052,27361,38220
56949,27292,38110
56853,27231,38008
56767,27179,37915
56697,27135,37833
56644,27100,37764
56607,27073,37707
56591,27059,37671
56592,27058,37660
56598,27064,37664
56601,27068,37673
56600,27077,37688
56599,27093,37710
56600,27109,37727
56601,27119,37739
56603,27128,37754
56602,27137,37769
56588,27136,37775
56562,27127,37773
56533,27113,37767
56508,27096,37754
56483,27072,37732
56457,27044,37702
56434,27020,37672
56411,26998,37640
56387,26973,37603
56353,26944,37557
56306,26911,37500
56244,26871,37433
56168,26822,37355
56080,26766,37272
55985,26704,37188
55884,26637,37099
55773,26561,36996
55653,26482,36882
55534,26405,36769
55411,26324,36656
55280,26237,36541
55145,26145,36422
55008,26049,36298
54870,25951,36168
54732,25855,36034
54594,25760,35905
54451,25663,35778
54297,25559,35648
54130,25446,35510
53954,25328,35364
53779,25207,35216
53613,25088,35069
53452,24972,34925
53292,24862,34785
53136,24756,34649
52987,24653,34513
52839,24551,34378
52697,24457,34251
52569,24376,34133
52454,24300,34018
52347,24226,33907
52248,24160,33805
52158,24104,33711
52079,24053,33619
52011,24006,33531
51949,23963,33447
51890,23920,33364
51828,23873,33278
51765,23828,33198
51701,23784,33127
51635,23740,33060
51566,23694,32993
51493,23643,32924
51411,23586,32847
51320,23523,32761
51228,23459,32670
51143,23396,32584
51069,23340,32508
51004,23290,32438
50939,23240,32366
50879,23192,32294
50833,23153,32232
50802,23125,32179
50777,23103,32133
50755,23082,32086
50736,23061,32036
50715,23039,31981
50687,23010,31921
50655,22977,31864
50623,22948,31815
50583,22919,31764
50530,22884,31703
50467,22846,31640
50396,22800,31573
50312,22743,31498
50218,22679,31416
50124,22613,31333
50039,22544,31250
49955,22472,31163
49871,22401,31071
49791,22331,30975
49718,22265,30879
49655,22202,30782
49603,22147,30689
49561,22106,30609
49527,22077,30534
49500,22058,30461
49486,22052,30400
49495,22063,30363
49533,22097,30359
49601,22152,30390
49695,22227,30455
49820,22326,30563
49979,22453,30715
50174,22611,30913
50406,22798,31161
50675,23012,31461
50975,23246,31810
51299,23496,32197
51643,23760,32615
52014,24044,33063
52414,24344,33535
52842,24656,34028
53300,24986,34543
53780,25331,35072
54260,25681,35598
54729,26024,36111
55181,26359,36606
55613,26681,37079
56013,26977,37515
56378,27244,37904
56708,27483,38246
57004,27691,38543
57253,27864,38795
57453,28003,39001
57613,28116,39166
57741,28207,39298
57832,28269,39395
57889,28306,39459
57923,28327,39498
57935,28332,39515
57926,28324,39517
57904,28305,39504
57875,28280,39482
57844,28256,39456
57810,28231,39427
57776,28209,39401
57749,28198,39389
57734,28199,39393
57731,28207,39407
57741,28222,39430
57768,28249,39459
57809,28283,39488
57862,28321,39519
57926,28361,39551
57991,28402,39585
58041,28436,39611
58067,28454,39621
58069,28454,39617
58048,28441,39603
58005,28413,39575
57949,28372,39530
57888,28320,39467
57824,28265,39393
57760,28214,39312
57703,28171,39229
57657,28140,39151
57622,28120,39081
57591,28104,39017
57557,28083,38952
57527,28057,38890
57500,28030,38834
57465,27998,38783
57418,27961,38736
57365,27925,38699
57303,27887,38676
57231,27850,38659
57155,27819,38645
57081,27793,38633
57017,27770,38625
56966,27754,38624
56931,27753,38633
56919,27768,38653
56939,27798,38679
56987,27836,38705
57062,27882,38733
57158,27939,38771
57264,28000,38812
57369,28058,38851
57468,28105,38885
57554,28143,38914
57617,28172,38932
57654,28187,38935
57664,28186,38920
57654,28172,38891
57629,28151,38853
57587,28124,38803
57530,28090,38741
57464,28049,38669
57389,27996,38583
57304,27933,38485
57213,27864,38383
57117,27793,38284
57013,27719,38179
56901,27637,38061
56788,27550,37937
56676,27460,37814
56559,27372,37695
56437,27285,37578
56316,27199,37461
56198,27112,37347
56076,27025,37233
55950,26936,37115
55823,26844,36995
55693,26747,36872
55555,26642,36741
55402,26532,36605
55239,26421,36466
55073,26313,36329
54909,26208,36198
54754,26108,36072
54615,26016,35951
54493,25933,35837
54390,25859,35732
54303,25793,35632
54227,25733,35535
54156,25675,35443
54088,25621,35359
54022,25572,35279
53955,25526,35202
53886,25478,35121
53808,25419,35033
53715,25351,34942
53613,25280,34852
53503,25206,34758
53387,25124,34656
53263,25036,34549
53135,24948,34445
53007,24863,34345
52885,24786,34250
52778,24720,34161
52694,24670,34083
52631,24635,34011
52581,24604,33942
52542,24575,33880
52515,24551,33823
52494,24529,33770
52472,24505,33724
52446,24479,33682
52408,24450,33636
52353,24411,33584
52274,24356,33520
52173,24286,33444
52058,24206,33357
51927,24112,33249
51778,24001,33120
51619,23882,32977
51462,23764,32832
51313,23656,32690
51180,23561,32557
51070,23484,32436
50981,23423,32329
50908,23370,32229
50853,23327,32140
50818,23299,32069
50802,23285,32015
50798,23281,31974
50810,23289,31950
50842,23311,31948
50895,23348,31971
50970,23404,32025
51073,23484,32120
51216,23598,32271
51402,23744,32478
51624,23916,32731
51880,24115,33033
52178,24340,33384
52516,24589,33775
52893,24865,34199
53308,25172,34657
53761,25505,35148
54246,25852,35657
54743,26203,36171
55246,26556,36686
55753,26912,37197
56250,27253,37686
56711,27568,38141
57131,27856,38563
57502,28115,38945
57812,28335,39276
58058,28511,39552
58242,28648,39779
58368,28750,39961
58442,28817,40100
58467,28850,40197
58450,28851,40252
58403,28829,40270
58330,28789,40256
58237,28734,40215
58142,28676,40159
58064,28624,40101
58009,28582,40050
57972,28555,40011
57956,28546,39984
57963,28552,39967
57989,28566,39960
58031,28590,39965
58089,28623,39975
58152,28655,39990
58211,28678,40007
58259,28695,40025
58288,28706,40045
58298,28710,40061
58290,28701,40066
58260,28677,40056
58210,28637,40023
58143,28588,39965
58057,28530,39889
57960,28469,39802
57858,28406,39705
57754,28339,39597
57654,28269,39484
57565,28202,39372
57493,28146,39268
57429,28096,39165
57363,28040,39060
57295,27980,38961
57234,27924,38878
57181,27878,38806
57134,27840,38738
57095,27810,38676
57070,27791,38628
57063,27781,38594
57069,27777,38569
57090,27785,38556
57124,27805,38563
57165,27831,38588
57212,27862,38625
57265,27898,38670
57327,27938,38715
57394,27980,38757
57462,28024,38798
57533,28071,38844
57607,28119,38893
57676,28160,38932
57733,28192,38959
57784,28220,38982
57825,28245,38999
57845,28256,39002
57838,28249,38987
57802,28225,38956
57737,28181,38909
57643,28119,38846
57522,28037,38764
57378,27940,38663
57214,27832,38544
57036,27714,38410
56849,27588,38266
56664,27462,38117
56493,27346,37969
56338,27241,37826
56203,27149,37695
56090,27073,37575
55991,27003,37457
55901,26933,37338
55819,26862,37223
55739,26791,37112
55655,26719,37002
55563,26645,36893
55469,26575,36788
55381,26512,36690
55297,26450,36593
55206,26383,36495
55108,26315,36395
55007,26253,36296
54906,26194,36198
54802,26130,36097
54696,26062,35996
54596,25997,35901
54497,25931,35807
54397,25860,35709
54308,25792,35613
54235,25733,35523
54172,25679,35435
54118,25629,35350
54075,25586,35275
54042,25549,35207
54013,25512,35143
53983,25476,35081
53949,25442,35021
53915,25413,34964
53877,25385,34910
53833,25351,34854
53785,25312,34797
53733,25266,34733
53676,25215,34660
53612,25160,34576
53545,25103,34489
53475,25043,34402
53402,24981,34314
53329,24928,34233
53266,24889,34163
53215,24858,34098
53174,24826,34030
53133,24792,33962
53086,24754,33891
53032,24708,33812
52973,24655,33725
52914,24601,33639
52857,24548,33557
52800,24496,33480
52744,24443,33408
52689,24392,33341
52639,24346,33283
52601,24310,33237
52583,24289,33209
52598,24291,33209
52657,24327,33252
52761,24398,33341
52913,24506,33477
53124,24655,33668
53392,24847,33920
53707,25072,34218
54064,25326,34560
54461,25611,34952
54886,25918,35389
55324,26238,35854
55767,26568,36339
56218,26904,36836
56666,27239,37334
57098,27563,37818
57504,27866,38279
57886,28148,38714
58237,28409,39114
58551,28640,39471
58825,28840,39787
59061,29012,40066
59260,29152,40302
59418,29265,40492
59535,29353,40643
59615,29414,40760
59664,29449,40844
59689,29463,40888
59696,29463,40898
59697,29458,40890
59694,29449,40872
59683,29435,40845
59664,29419,40814
59645,29407,40787
59623,29398,40768
59596,29388,40751
59567,29376,40733
59537,29364,40712
59498,29345,40684
59448,29314,40645
59385,29273,40603
59307,29225,40559
59217,29167,40506
59118,29098,40443
59015,29024,40375
58907,28950,40305
58796,28876,40230
58683,28797,40144
58565,28711,40041
58442,28622,39924
58312,28529,39795
58177,28432,39660
58049,28338,39531
57930,28252,39407
57815,28169,39280
57699,28089,39155
57588,28014,39037
57482,27941,38923
57368,27863,38805
57246,27780,38689
57127,27699,38584
57018,27624,38491
56919,27554,38409
56835,27496,38338
56770,27454,38282
56723,27424,38240
56691,27406,38214
56675,27399,38203
56678,27401,38205
56697,27406,38213
56726,27417,38226
56759,27434,38244
56797,27456,38263
56840,27481,38279
56887,27506,38292
56932,27536,38308
56970,27572,38328
56997,27604,38344
57005,27624,38354
56989,27627,38355
56951,27614,38342
56889,27583,38308
56802,27536,38255
56695,27477,38189
56574,27407,38108
56438,27323,38005
56292,27226,37885
56141,27123,37751
55986,27017,37608
55827,26906,37460
55666,26794,37315
55512,26685,37173
55370,26583,37034
55241,26485,36896
55126,26392,36759
55022,26312,36629
54925,26245,36508
54831,26182,36390
54738,26118,36274
54648,26057,36160
54561,25995,36045
54471,25925,35926
54374,25848,35807
54273,25769,35695
54165,25689,35583
54046,25601,35467
53919,25507,35346
53791,25413,35225
53666,25320,35105
53538,25228,34983
53407,25137,34858
53278,25052,34737
53154,24968,34619
53039,24886,34506
52940,24812,34406
52861,24754,34322
52798,24714,34251
52749,24688,34187
52718,24674,34130
52710,24672,34080
52719,24675,34032
52739,24677,33988
52770,24680,33952
52805,24686,33925
52832,24691,33901
52847,24690,33873
52847,24681,33844
52834,24661,33815
52806,24629,33774
52764,24586,33714
52718,24539,33644
52677,24494,33571
52643,24449,33496
52613,24405,33421
52594,24371,33356
52585,24349,33299
52578,24332,33246
52569,24314,33192
52554,24290,33136
52528,24257,33073
52488,24212,32997
52435,24158,32910
52375,24100,32819
52308,24044,32728
52227,23986,32638
52137,23927,32550
52046,23875,32473
51959,23830,32403
51882,23793,32343
51828,23771,32303
51813,23771,32294
51845,23804,32325
51930,23876,32409
52068,23988,32549
52257,24139,32739
52494,24325,32980
52778,24539,33273
53111,24785,33617
53493,25068,34010
53912,25376,34443
54353,25697,34900
54803,26022,35367
55255,26346,35839
55699,26661,36307
56120,26956,36762
56512,27233,37200
56876,27495,37617
57207,27732,37995
57497,27938,38331
57748,28119,38629
57964,28281,38892
58143,28417,39114
58290,28529,39298
58417,28627,39451
58529,28712,39577
58618,28779,39674
58684,28827,39746
58732,28869,39803
58771,28906,39846
58798,28929,39869
58811,28936,39871
58816,28934,39859
58813,28926,39834
58798,28907,39796
58771,28874,39749
58732,28834,39705
58678,28788,39663
58612,28740,39621
58538,28693,39576
58464,28650,39527
58391,28604,39472
58315,28551,39411
58232,28496,39350
58141,28444,39291
58045,28391,39227
57941,28335,39152
57833,28275,39069
57725,28213,38978
57624,28149,38880
57525,28081,38776
57426,28011,38668
57324,27939,38559
57217,27865,38444
57107,27786,38322
56997,27706,38203
56889,27628,38092
56783,27554,37985
56679,27486,37885
56585,27423,37794
56507,27371,37715
56442,27331,37649
56385,27298,37593
56340,27275,37549
56314,27263,37521
56306,27263,37510
56317,27276,37514
56349,27304,37532
56397,27343,37560
56453,27383,37591
56505,27417,37623
56554,27451,37654
56598,27485,37681
56629,27505,37698
56643,27506,37705
56643,27494,37703
56628,27475,37690
56598,27450,37663
56559,27423,37632
56513,27393,37596
56458,27355,37545
56392,27307,37476
56322,27257,37402
56255,27210,37329
56192,27162,37257
56128,27114,37180
56062,27064,37099
55998,27016,37017
55937,26970,36934
55872,26920,36843
55801,26863,36740
55726,26806,36631
55650,26750,36525
55565,26691,36419
55471,26625,36310
55374,26554,36199
55278,26478,36084
55179,26399,35964
55072,26317,35846
54963,26237,35734
54853,26157,35623
54736,26074,35506
54619,25992,35392
54507,25912,35279
54397,25828,35162
54284,25741,35043
54175,25657,34927
54076,25578,34815
53986,25505,34706
53906,25441,34600
53841,25390,34502
53789,25351,34413
53742,25315,34327
53698,25277,34245
53659,25241,34171
53616,25204,34102
53560,25157,34030
53489,25100,33952
53410,25038,33873
53323,24968,33792
53224,24888,33698
53119,24807,33597
53025,24740,33503
52946,24685,33418
52882,24635,33335
52833,24593,33258
52801,24564,33191
52781,24546,33132
52767,24530,33075
52751,24512,33020
52738,24497,32969
52727,24482,32918
52710,24462,32862
52689,24437,32808
52665,24410,32755
52634,24379,32696
52600,24342,32631
52564,24301,32564
52529,24257,32494
52490,24209,32422
52443,24151,32348
52392,24094,32280
52348,24048,32220
52311,24014,32169
52285,23994,32135
52284,23995,32131
52316,24024,32162
52387,24082,32226
52505,24171,32334
52676,24298,32494
52896,24458,32710
53156,24644,32972
53447,24853,33271
53770,25088,33606
54119,25347,33972
54488,25624,34362
54872,25913,34773
55269,26208,35200
55669,26502,35629
56062,26788,36049
56443,27063,36455
56812,27330,36848
57162,27584,37219
57481,27817,37558
57769,28024,37861
58029,28207,38127
58258,28363,38359
58451,28493,38553
58610,28603,38711
58743,28696,38839
58851,28769,38936
58931,28819,39005
58988,28853,39052
59023,28872,39075
59034,28874,39075
59024,28861,39063
59004,28845,39045
58980,28829,39025
58948,28807,38996
58906,28779,38954
58862,28752,38911
58823,28729,38872
58791,28706,38835
58765,28682,38799
58743,28658,38767
58729,28640,38740
58719,28628,38718
58708,28617,38694
58699,28605,38667
58685,28592,38637
58655,28572,38597
58609,28536,38546
58556,28492,38489
58502,28447,38427
58448,28401,38349
58392,28351,38259
58336,28299,38166
58280,28247,38078
58226,28198,37992
58178,28153,37910
58139,28114,37834
58106,28078,37764
58076,28044,37697
58050,28012,37635
58030,27984,37583
58018,27961,37542
58010,27943,37512
58010,27935,37495
58023,27944,37495
58044,27965,37506
58067,27988,37519
58089,28009,37538
58113,28030,37565
58133,28047,37591
58144,28056,37610
58152,28062,37621
58165,28069,37629
58178,28074,37636
58186,28072,37638
58193,28069,37637
58200,28070,37634
58204,28071,37626
58202,28066,37607
58190,28052,37575
58170,28027,37532
58141,27996,37482
58100,27957,37428
58046,27915,37372
57983,27866,37310
57909,27806,37232
57825,27740,37142
57739,27678,37048
57651,27620,36951
57558,27558,36851
57459,27489,36750
57354,27414,36644
57249,27337,36533
57144,27256,36413
57033,27170,36291
56923,27087,36174
56817,27011,36064
56707,26932,35952
56592,26849,35837
56482,26768,35728
56379,26692,35620
56282,26621,35509
56188,26553,35398
56102,26490,35297
56021,26431,35201
55938,26369,35099
55853,26303,34995
55767,26236,34898
55675,26166,34804
55580,26092,34707
55487,26014,34607
55399,25936,34504
55310,25858,34398
55211,25776,34289
55102,25690,34174
54990,25604,34058
54878,25518,33943
54768,25432,33832
54666,25352,33724
54573,25282,33618
54484,25218,33515
54395,25160,33420
54315,25109,33338
54248,25069,33271
54193,25034,33207
54139,24999,33139
54087,24960,33069
54033,24916,32999
53975,24868,32928
53908,24816,32855
53838,24762,32781
53771,24710,32706
53704,24655,32629
53634,24598,32548
53560,24538,32465
53483,24474,32376
53403,24401,32282
53325,24327,32192
53252,24260,32111
53179,24201,32037
53099,24143,31962
53016,24086,31884
52927,24023,31804
52832,23955,31721
52735,23884,31631
52636,23813,31533
52539,23745,31428
52446,23676,31321
52353,23604,31215
52256,23530,31110
52153,23453,31004
52046,23371,30893
51934,23286,30778
51824,23197,30661
51723,23110,30546
51630,23030,30439
51541,22953,30335
51463,22881,30234
51399,22819,30142
51346,22768,30060
51310,22732,29989
51306,22720,29943
51341,22741,29930
51411,22788,29952
51524,22867,30014
51691,22987,30131
51912,23147,30306
52179,23340,30535
52490,23564,30816
52847,23821,31151
53241,24104,31529
53656,24399,31936
54080,24702,32367
54505,25009,32817
54925,25316,33275
55333,25617,33731
55728,25909,34180
56111,26189,34615
56481,26451,35030
56829,26695,35423
57153,26923,35789
57458,27137,36125
57740,27335,36432
57999,27518,36709
58235,27685,36949
58446,27832,37152
58631,27959,37320
58790,28068,37460
58929,28165,37578
59047,28247,37679
59141,28311,37763
59211,28358,37824
59262,28393,37865
59301,28420,37898
59327,28437,37922
59338,28440,37933
59343,28439,37939
59352,28441,37949
59358,28444,37959
59360,28446,37968
59368,28452,37983
59389,28467,38005
59417,28488,38030
59444,28508,38049
59468,28525,38065
59490,28542,38080
59506,28558,38093
59514,28571,38100
59519,28580,38100
59520,28581,38093
59512,28570,38077
59495,28549,38047
59465,28516,38003
59419,28472,37945
59357,28417,37870
59286,28356,37786
59211,28296,37703
59134,28241,37624
59052,28189,37548
58967,28139,37476
58882,28090,37412
58800,28039,37348
58716,27986,37280
58633,27935,37216
58558,27889,37160
58496,27848,37109
58442,27809,37061
58400,27778,37022
58385,27764,37001
58397,27770,37001
58427,27788,37015
58472,27818,37033
58529,27855,37055
58585,27893,37074
58628,27923,37087
58661,27946,37101
58685,27965,37119
58694,27977,37135
58687,27980,37141
58667,27973,37137
58640,27959,37124
58609,27939,37102
58571,27914,37075
58528,27888,37044
58482,27859,37004
58430,27822,36948
58372,27778,36883
58320,27736,36819
58275,27702,36758
58228,27667,36692
58172,27625,36618
58109,27577,36546
58039,27526,36475
57954,27470,36394
57855,27407,36296
57746,27339,36188
57633,27262,36075
57519,27179,35959
57405,27095,35841
57298,27013,35727
57200,26933,35617
57102,26850,35505
57001,26766,35388
56905,26690,35272
56815,26618,35156
56730,26547,35040
56649,26477,34930
56571,26412,34830
56490,26353,34737
56403,26295,34643
56314,26238,34548
56229,26183,34461
56146,26129,34382
56062,26071,34302
55977,26012,34221
55899,25953,34139
55824,25893,34056
55746,25829,33965
55666,25764,33868
55589,25702,33777
55514,25643,33691
55439,25583,33605
55369,25526,33521
55304,25469,33436
55233,25405,33343
55151,25334,33244
55063,25260,33153
54974,25190,33073
54882,25119,32994
54793,25053,32914
54716,24997,32840
54650,24953,32773
54592,24912,32704
54541,24868,32629
54498,24831,32557
54465,24804,32493
54436,24779,32428
54408,24750,32359
54376,24720,32293
54332,24685,32222
54272,24638,32140
54197,24583,32053
54111,24523,31969
54010,24452,31881
53892,24367,31783
53767,24280,31681
53640,24193,31583
53507,24105,31486
53367,24014,31386
53229,23924,31288
53098,23837,31194
52972,23756,31101
52848,23679,31002
52729,23606,30899
52618,23535,30793
52513,23465,30683
52409,23391,30569
52306,23315,30459
52208,23239,30358
52109,23159,30257
52005,23071,30148
51894,22978,30029
51779,22881,29908
51658,22782,29788
51533,22680,29666
51411,22584,29547
51306,22504,29440
51219,22442,29347
51151,22399,29273
51116,22386,29230
51126,22408,29228
51184,22465,29270
51294,22559,29362
51467,22695,29509
51699,22870,29713
51984,23079,29966
52322,23326,30266
52707,23608,30615
53129,23915,31005
53573,24233,31419
54025,24552,31846
54477,24870,32281
54924,25183,32718
55363,25485,33149
55787,25777,33573
56190,26059,33987
56564,26323,34382
56905,26561,34748
57208,26774,35082
57480,26967,35384
57718,27135,35650
57918,27275,35879
58086,27395,36076
58228,27500,36243
58342,27589,36380
58430,27661,36485
58500,27718,36563
58559,27764,36623
58609,27805,36673
58650,27840,36712
58687,27869,36739
58723,27890,36757
58757,27903,36767
58781,27906,36770
58802,27909,36770
58829,27918,36774
58855,27930,36777
58873,27936,36777
58883,27937,36776
58883,27931,36768
58870,27915,36751
58844,27890,36729
58810,27859,36706
58766,27825,36685
58703,27785,36662
58616,27735,36629
58512,27674,36583
58397,27605,36524
58274,27531,36452
58146,27458,36371
58021,27390,36287
57902,27327,36201
57790,27267,36112
57684,27212,36025
57583,27160,35943
57487,27105,35861
57392,27045,35780
57304,26987,35705
57231,26940,35640
57171,26898,35583
57115,26854,35530
57062,26812,35480
57020,26780,35436
56988,26755,35398
56958,26735,35367
56931,26719,35347
56913,26707,35335
56897,26697,35325
56878,26688,35318
56861,26687,35320
56850,26696,35335
56844,26711,35357
56835,26726,35375
56822,26738,35389
56807,26745,35397
56785,26738,35390
56753,26717,35367
56714,26687,35333
56669,26651,35292
56617,26611,35247
56555,26563,35196
56478,26508,35141
56386,26448,35076
56281,26380,34995
56164,26301,34903
56041,26218,34809
55919,26135,34711
55796,26052,34602
55672,25966,34482
55553,25880,34363
55437,25795,34243
55317,25706,34116
55194,25613,33982
55074,25521,33850
54952,25430,33722
54820,25334,33596
54681,25233,33469
54538,25131,33345
54389,25025,33220
54229,24913,33089
54062,24800,32957
53898,24692,32831
53730,24583,32703
53558,24472,32568
53388,24365,32429
53228,24265,32294
53071,24167,32162
52913,24065,32031
52762,23965,31903
52625,23875,31782
52497,23791,31663
52377,23709,31542
52267,23635,31429
52171,23573,31326
52086,23517,31227
52010,23464,31131
51946,23420,31043
51889,23384,30965
51835,23347,30888
51777,23304,30811
51720,23259,30736
51662,23214,30661
51599,23169,30586
51529,23122,30514
51450,23072,30448
51366,23026,30385
51279,22981,30317
51189,22931,30242
51106,22885,30168
51038,22850,30100
50980,22825,30036
50929,22802,29976
50892,22782,29921
50868,22762,29867
50843,22736,29811
50812,22706,29750
50779,22678,29689
50742,22646,29626
50695,22603,29557
50637,22552,29485
50571,22499,29410
50498,22444,29333
50423,22390,29252
50351,22340,29174
50282,22295,29100
50214,22248,29024
50141,22196,28945
50073,22150,28867
50016,22113,28794
49970,22077,28720
49927,22037,28645
49892,21999,28571
49869,21969,28501
49850,21942,28432
49831,21911,28357
49813,21878,28281
49799,21849,28211
49785,21826,28148
49774,21811,28091
49780,21808,28045
49803,21813,28010
49837,21822,27984
49888,21845,27975
49972,21896,28000
50092,21976,28062
50242,22080,28163
50417,22209,28306
50629,22370,28496
50887,22567,28734
51184,22790,29015
51507,23031,29332
51852,23290,29680
52215,23563,30053
52589,23842,30437
52977,24123,30827
53379,24408,31226
53783,24694,31630
54182,24977,32033
54575,25253,32428
54958,25520,32811
55324,25773,33178
55659,26005,33519
55960,26213,33824
56229,26395,34095
56467,26552,34327
56671,26686,34524
56840,26799,34691
56977,26895,34836
57087,26974,34953
57169,27034,35041
57224,27072,35104
57256,27090,35148
57267,27092,35169
57263,27086,35172
57256,27081,35167
57249,27077,35158
57237,27066,35146
57221,27046,35128
57203,27026,35111
57186,27012,35098
57173,27002,35090
57163,26992,35078
57158,26985,35068
57161,26983,35063
57176,26984,35063
57197,26987,35063
57224,26994,35066
57254,27005,35065
57280,27013,35055
57299,27015,35037
57316,27017,35018
57330,27019,34996
57333,27013,34965
57316,26991,34922
57285,26961,34875
57249,26931,34828
57208,26900,34777
57161,26866,34720
57116,26836,34665
57074,26813,34619
57036,26789,34579
57008,26769,34545
56993,26758,34520
56983,26747,34501
56975,26734,34483
56974,26725,34469
56984,26724,34464
56999,26731,34469
57014,26741,34479
57029,26753,34491
57050,26770,34510
57076,26790,34536
57101,26806,34565
57123,26814,34592
57139,26820,34619
57148,26823,34638
57150,26823,34646
57151,26823,34651
57153,26826,34657
57150,26827,34660
57136,26824,34656
57115,26821,34646
57091,26816,34627
57058,26798,34593
57014,26762,34543
56965,26718,34484
56911,26673,34420
56851,26628,34352
56784,26583,34282
56716,26540,34214
56648,26497,34146
56575,26444,34071
56491,26380,33985
56396,26308,33889
56293,26232,33787
56185,26153,33676
56075,26072,33558
55966,25986,33438
55857,25899,33319
55748,25812,33204
55639,25727,33094
55536,25646,32990
55434,25567,32885
55333,25490,32776
55235,25413,32667
55139,25338,32560
55045,25264,32455
54951,25191,32351
54858,25123,32252
54770,25058,32162
54681,24994,32076
54587,24928,31989
54492,24860,31899
54396,24795,31810
54298,24731,31719
54193,24663,31625
54079,24586,31529
53966,24508,31438
53860,24433,31352
53758,24362,31268
53666,24299,31185
53587,24245,31105
53521,24200,31030
53462,24157,30953
53413,24115,30875
53374,24078,30802
53335,24040,30731
53284,23993,30656
53225,23941,30579
53166,23893,30507
53101,23843,30434
53026,23783,30357
52947,23719,30280
52870,23658,30205
52785,23597,30126
52690,23534,30043
52592,23470,29957
52488,23400,29865
52369,23321,29765
52243,23237,29660
52122,23157,29558
52016,23083,29465
51921,23016,29378
51838,22959,29300
51765,22913,29230
51696,22870,29160
51632,22822,29083
51571,22768,29000
51511,22714,28917
51445,22657,28834
51362,22590,28744
51266,22515,28646
51167,22438,28546
51065,22355,28443
50956,22268,28336
50848,22188,28233
50746,22118,28140
50653,22055,28055
50568,21998,27976
50499,21951,27906
50455,21924,27854
50440,21922,27828
50458,21942,27834
50516,21992,27880
50626,22080,27971
50785,22205,28107
50988,22358,28285
51232,22536,28504
51519,22740,28764
51846,22972,29062
52201,23226,29395
52585,23497,29758
52995,23783,30144
53421,24076,30542
53850,24370,30947
54274,24665,31354
54681,24950,31752
55065,25215,32128
55423,25458,32481
55753,25680,32814
56054,25881,33123
56321,26063,33402
56552,26227,33650
56750,26374,33871
56918,26503,34068
57058,26606,34233
57174,26690,34370
57271,26763,34487
57346,26824,34584
57392,26860,34653
57413,26875,34699
57416,26877,34728
57401,26869,34738
57371,26850,34729
57336,26826,34708
57309,26805,34686
57287,26789,34667
57264,26777,34647
57237,26767,34628
57209,26757,34610
57181,26744,34593
57151,26726,34575
57122,26709,34559
57099,26698,34547
57079,26691,34537
57056,26681,34527
57028,26668,34518
56994,26650,34506
56949,26619,34475
56893,26572,34424
56833,26520,34365
56772,26468,34307
56707,26410,34242
56637,26348,34166
56568,26292,34087
56504,26241,34006
56442,26189,33923
56383,26137,33841
56331,26091,33768
56288,26055,33707
56250,26026,33653
56223,26007,33608
56215,26003,33582
56220,26008,33572
56227,26015,33565
56236,26024,33558
56254,26037,33557
56275,26053,33564
56292,26066,33571
56305,26076,33580
56316,26086,33597
56323,26096,33622
56323,26101,33644
56316,26102,33658
56304,26102,33665
56286,26098,33664
56255,26084,33655
56215,26062,33640
56173,26038,33627
56126,26007,33610
56069,25967,33583
56004,25922,33546
55935,25876,33502
55865,25828,33449
55795,25779,33386
55736,25738,33323
55696,25705,33266
55670,25675,33209
55649,25644,33148
55630,25613,33087
55608,25584,33024
55578,25551,32952
55542,25514,32868
55502,25474,32782
55457,25431,32701
55404,25381,32618
55343,25326,32532
55281,25272,32446
55223,25221,32362
55166,25168,32277
55107,25112,32194
55049,25060,32118
54998,25015,32045
54952,24974,31969
54911,24935,31890
54876,24900,31818
54842,24867,31751
54801,24828,31682
54746,24782,31609
54681,24729,31533
54605,24669,31453
54513,24596,31363
54412,24514,31264
54309,24434,31165
54204,24354,31070
54098,24274,30975
54004,24201,30885
53925,24137,30803
53858,24083,30724
53799,24036,30644
53748,23996,30571
53708,23966,30510
53675,23941,30455
53641,23912,30393
53611,23885,30331
53590,23867,30278
53571,23851,30229
53552,23827,30180
53532,23801,30135
53508,23774,30093
53480,23745,30046
53444,23710,29988
53401,23672,29922
53355,23632,29856
53305,23592,29793
53251,23547,29731
53194,23499,29668
53135,23446,29602
53069,23384,29527
53001,23318,29449
52940,23261,29379
52886,23215,29319
52831,23175,29260
52774,23134,29200
52723,23096,29142
52683,23061,29084
52653,23027,29028
52635,22999,28977
52629,22981,28934
52629,22969,28896
52630,22959,28856
52623,22944,28810
52609,22925,28757
52588,22901,28696
52561,22874,28629
52528,22846,28563
52495,22820,28506
52454,22789,28448
52395,22747,28380
52322,22694,28298
52247,22636,28213
52166,22572,28129
52074,22498,28040
51976,22420,27947
51880,22342,27857
51788,22266,27766
51710,22201,27682
51657,22158,27611
51635,22143,27559
51652,22155,27534
51711,22197,27545
51822,22275,27599
51987,22391,27701
52196,22540,27850
52443,22715,28044
52732,22923,28287
53068,23163,28583
53438,23427,28920
53828,23704,29288
54229,23990,29685
54634,24282,30107
55037,24574,30540
55440,24866,30973
55846,25160,31406
56254,25454,31839
56655,25741,32259
57048,26016,32663
57429,26280,33050
57785,26527,33414
58108,26747,33746
58397,26941,34048
58655,27113,34325
58879,27270,34579
59061,27400,34799
59200,27498,34980
59302,27571,35131
59375,27622,35255
59419,27649,35347
59434,27656,35407
59428,27651,35442
59408,27641,35459
59381,27627,35465
59349,27615,35468
59321,27610,35470
59307,27611,35467
59308,27617,35461
59323,27633,35466
59358,27663,35482
59408,27701,35502
59467,27743,35526
59529,27786,35556
59596,27826,35588
59663,27862,35616
59722,27887,35638
59770,27902,35659
59800,27907,35679
59805,27901,35690
59787,27884,35685
59750,27856,35664
59688,27811,35622
59591,27741,35553
59471,27652,35465
59341,27559,35373
59205,27467,35279
59060,27371,35181
58916,27277,35081
58790,27197,34989
58695,27135,34910
58626,27087,34840
58577,27053,34780
58544,27031,34732
58527,27019,34692
58524,27015,34661
58532,27017,34640
58549,27023,34631
58571,27031,34631
58590,27039,34636
58608,27050,34649
58625,27064,34669
58636,27074,34687
58638,27074,34700
58632,27067,34711
58620,27056,34718
58595,27036,34712
58555,27005,34697
58510,26973,34682
58469,26947,34671
58432,26924,34654
58391,26901,34628
58348,26877,34598
58307,26853,34566
58263,26827,34527
58214,26795,34475
58160,26753,34411
58104,26707,34341
58044,26655,34267
57972,26597,34183
57889,26534,34095
57792,26464,34005
57675,26378,33906
57541,26278,33795
57396,26170,33679
57242,26062,33563
57078,25949,33442
56916,25837,33319
56765,25735,33201
56621,25641,33087
56483,25549,32970
56350,25461,32851
56225,25377,32735
56108,25292,32620
55996,25205,32506
55886,25117,32394
55775,25028,32284
55658,24936,32170
55531,24840,32047
55395,24741,31919
55257,24643,31791
55118,24543,31663
54976,24437,31533
54836,24334,31405
54703,24240,31282
54576,24148,31162
54449,24057,31046
54330,23969,30935
54217,23885,30826
54113,23804,30719
54019,23731,30620
53935,23671,30532
53864,23625,30457
53801,23586,30387
53739,23547,30315
53674,23503,30239
53608,23457,30161
53542,23410,30082
53471,23358,30001
53392,23297,29918
53307,23231,29834
53215,23160,29745
53118,23082,29651
53016,23000,29556
52913,22917,29463
52811,22833,29369
52712,22753,29279
52626,22686,29200
52554,22630,29130
52487,22575,29056
52421,22521,28975
52359,22472,28897
52299,22424,28825
52230,22369,28754
52152,22312,28682
52066,22254,28605
51968,22191,28520
51857,22117,28423
51737,22039,28322
51621,21965,28226
51507,21892,28131
51386,21811,28026
51264,21726,27918
51155,21647,27818
51053,21572,27719
50951,21495,27615
50847,21414,27508
50744,21332,27399
50641,21250,27291
50541,21171,27188
50452,21097,27092
50370,21029,27002
50283,20962,26912
50190,20892,26824
50096,20825,26744
50012,20772,26676
49943,20732,26618
49895,20707,26576
49880,20710,26568
49906,20750,26603
49975,20822,26679
50094,20926,26798
50269,21070,26969
50496,21253,27191
50767,21463,27456
51077,21697,27759
51424,21958,28103
51798,22241,28483
52191,22536,28888
52594,22832,29310
53002,23127,29739
53413,23420,30167
53811,23705,30589
54187,23973,30998
54539,24222,31384
54868,24451,31742
55171,24655,32066
55443,24836,32358
55687,24999,32622
55898,25141,32849
56066,25253,33036
56199,25337,33189
56311,25409,33316
56405,25471,33413
56476,25519,33483
56527,25549,33533
56565,25571,33568
56597,25590,33590
56621,25602,33600
56636,25612,33605
56645,25622,33614
56649,25628,33621
56645,25625,33623
56643,25620,33623
56647,25619,33623
56652,25616,33621
56648,25611,33616
56640,25606,33614
56633,25600,33613
56625,25588,33607
56611,25573,33597
56594,25561,33587
56580,25555,33576
56562,25545,33556
56535,25526,33522
56498,25501,33479
56451,25473,33429
56396,25437,33371
56339,25394,33307
56282,25356,33247
56228,25325,33191
56177,25291,33128
56127,25250,33061
56080,25211,32998
56034,25176,32942
55988,25143,32889
55944,25108,32838
55899,25073,32793
55854,25038,32750
55810,25004,32709
55770,24973,32674
55740,24949,32648
55719,24934,32637
55700,24922,32639
55684,24917,32651
55675,24919,32671
55667,24921,32692
55659,24925,32713
55657,24938,32734
55662,24955,32751
55666,24969,32763
55669,24978,32774
55672,24985,32784
55678,24991,32796
55683,24993,32804
55675,24981,32798
55652,24958,32778
55616,24927,32746
55564,24886,32704
55497,24835,32651
55420,24778,32592
55329,24717,32528
55224,24647,32453
55111,24571,32367
54998,24493,32275
54888,24415,32180
54777,24333,32079
54660,24247,31974
54541,24162,31869
54418,24078,31759
54289,23990,31638
54157,23901,31512
54025,23814,31391
53893,23725,31273
53760,23631,31155
53630,23538,31036
53507,23450,30919
53389,23365,30802
53271,23283,30690
53158,23205,30586
53050,23135,30488
52941,23062,30386
52826,22983,30274
52710,22901,30159
52597,22819,30043
52481,22734,29928
52358,22645,29812
52226,22554,29695
52092,22465,29579
51961,22379,29465
51835,22297,29351
51717,22222,29243
51612,22159,29144
51519,22102,29053
51440,22050,28968
51379,22012,28893
51336,21986,28831
51303,21968,28779
51274,21949,28727
51247,21932,28675
51222,21915,28626
51193,21894,28579
51160,21865,28534
51130,21835,28487
51100,21803,28437
51057,21761,28381
50999,21708,28321
50929,21650,28255
50846,21589,28182
50743,21516,28100
50622,21432,28012
50495,21348,27923
50370,21275,27839
50253,21206,27754
50149,21140,27666
50065,21084,27586
49999,21043,27517
49949,21012,27454
49918,20988,27397
49906,20967,27343
49905,20952,27294
49906,20940,27247
49905,20927,27199
49896,20908,27152
49868,20875,27099
49816,20822,27029
49745,20755,26943
49662,20684,26851
49575,20609,26753
49482,20533,26651
49390,20465,26559
49307,20412,26485
49239,20373,26427
49192,20347,26386
49178,20343,26377
49213,20378,26413
49302,20458,26494
49440,20575,26616
49629,20727,26785
49870,20913,27005
50162,21129,27269
50498,21372,27573
50872,21640,27923
51282,21935,28313
51718,22247,28730
52167,22563,29161
52619,22877,29597
53065,23186,30033
53498,23486,30461
53913,23772,30876
54303,24041,31277
54656,24286,31651
54965,24504,31990
55231,24695,32297
55461,24862,32576
55653,25002,32821
55805,25108,33021
55920,25186,33178
56012,25248,33304
56093,25303,33412
56159,25350,33501
56212,25389,33569
56257,25423,33624
56293,25449,33667
56314,25465,33693
56323,25475,33708
56326,25481,33720
56325,25483,33727
56320,25484,33725
56313,25484,33718
56303,25483,33712
56287,25477,33707
56262,25466,33692
56229,25449,33667
56193,25432,33642
56149,25411,33619
56089,25383,33593
56023,25350,33559
55961,25315,33517
55901,25271,33466
55842,25219,33406
55791,25169,33341
55751,25125,33275
55710,25084,33208
55664,25041,33142
55618,25003,33077
55574,24969,33012
55529,24934,32944
55477,24900,32880
55424,24873,32826
55373,24850,32781
55322,24827,32737
55275,24807,32692
55233,24793,32652
55197,24783,32620
55158,24769,32594
55119,24756,32575
55091,24751,32570
55074,24754,32575
55063,24756,32584
55061,24757,32600
55074,24767,32627
55097,24785,32660
55120,24801,32689
55143,24812,32713
55169,24828,32741
55195,24848,32772
55214,24865,32798
55230,24879,32817
55244,24891,32832
55252,24893,32836
55250,24881,32820
55238,24860,32788
55217,24836,32754
55186,24812,32720
55141,24784,32683
55086,24753,32644
55019,24715,32598
54934,24663,32534
54832,24595,32450
54717,24517,32355
54593,24437,32255
54463,24352,32145
54331,24260,32031
54209,24175,31922
54098,24101,31819
53991,24031,31717
53888,23961,31616
53796,23899,31520
53719,23846,31427
53649,23795,31334
53576,23741,31238
53499,23684,31142
53420,23622,31049
53337,23550,30951
53248,23469,30847
53160,23386,30744
53075,23306,30647
52994,23232,30553
52918,23170,30459
52855,23123,30375
52801,23085,30300
52746,23049,30226
52686,23011,30152
52624,22973,30082
52558,22930,30013
52487,22877,29938
52407,22813,29857
52320,22747,29771
52221,22673,29678
52104,22589,29581
51976,22501,29484
51851,22421,29392
51727,22346,29305
51605,22271,29219
51495,22202,29138
51400,22143,29063
51315,22089,28990
51234,22033,28910
51159,21978,28827
51092,21926,28746
51021,21870,28666
50942,21805,28580
50855,21739,28495
50760,21672,28410
50658,21601,28320
50549,21526,28228
50433,21447,28142
50311,21367,28060
50182,21285,27974
50048,21200,27882
49925,21123,27790
49819,21055,27703
49726,20992,27617
49645,20937,27536
49576,20893,27464
49515,20854,27397
49457,20813,27329
49398,20767,27258
49338,20719,27191
49279,20675,27126
49224,20635,27059
49177,20600,26993
49144,20574,26936
49127,20563,26895
49125,20567,26874
49144,20587,26882
49194,20629,26925
49279,20696,27004
49401,20790,27118
49567,20916,27279
49786,21082,27498
50052,21287,27772
50356,21520,28087
50694,21775,28438
51067,22051,28824
51469,22346,29240
51890,22649,29675
52321,22956,30121
52762,23271,30576
53199,23586,31029
53623,23888,31469
54032,24172,31888
54419,24438,32282
54776,24683,32649
55098,24905,32985
55386,25103,33290
55641,25275,33561
55862,25423,33794
56042,25547,33987
56186,25653,34151
56299,25742,34290
56384,25810,34401
56445,25860,34486
56498,25902,34554
56542,25938,34610
56575,25966,34650
56600,25987,34673
56625,26008,34688
56649,26030,34697
56668,26046,34699
56685,26059,34701
56706,26076,34711
56726,26093,34725
56739,26105,34735
56739,26107,34741
56732,26103,34746
56722,26099,34751
56699,26088,34747
56657,26062,34732
56597,26023,34705
56522,25977,34666
56433,25924,34615
56340,25863,34555
56253,25798,34486
56168,25732,34408
56085,25670,34328
56009,25613,34249
55941,25557,34168
55875,25501,34082
55807,25445,33992
55742,25391,33909
55684,25343,33836
55634,25304,33775
55589,25274,33724
55553,25255,33685
55533,25247,33662
55528,25247,33652
55532,25256,33651
55545,25276,33662
55568,25307,33681
55597,25341,33702
55631,25377,33728
55670,25416,33760
55707,25451,33797
55733,25474,33835
55750,25488,33869
55760,25498,33898
55754,25497,33915
55727,25482,33916
55686,25462,33909
55650,25447,33903
55620,25432,33893
55588,25413,33872
55556,25391,33844
55527,25371,33814
55497,25350,33786
55463,25329,33755
55429,25304,33718
55399,25277,33677
55367,25249,33627
55330,25221,33568
55291,25192,33507
55253,25166,33449
55216,25140,33387
55173,25106,33313
55123,25062,33230
55066,25011,33146
54997,24952,33061
54905,24882,32971
54798,24812,32882
54687,24744,32797
54577,24676,32707
54473,24608,32611
54377,24545,32517
54289,24490,32429
54206,24439,32342
54123,24385,32253
54044,24326,32165
53968,24264,32082
53893,24200,31998
53818,24134,31909
53752,24072,31820
53695,24017,31737
53635,23961,31657
53568,23900,31578
53497,23841,31500
53429,23788,31421
53365,23738,31340
53309,23694,31260
53269,23661,31189
53245,23637,31131
53232,23620,31083
53224,23609,31038
53221,23600,30995
53218,23590,30949
53209,23574,30900
53197,23558,30848
53187,23549,30795
53183,23545,30748
53177,23540,30709
53169,23533,30680
53160,23525,30654
53144,23514,30627
53115,23494,30594
53070,23462,30553
53009,23414,30502
52932,23352,30435
52836,23281,30358
52726,23205,30276
52606,23123,30192
52473,23035,30100
52330,22940,30001
52183,22841,29896
52036,22740,29784
51889,22638,29666
51741,22533,29546
51603,22432,29433
51477,22338,29329
51352,22245,29225
51229,22155,29120
51121,22078,29022
51029,22013,28933
50945,21951,28847
50864,21886,28761
50790,21827,28681
50726,21778,28612
50668,21741,28555
50617,21713,28505
50581,21698,28463
50568,21701,28437
50582,21726,28436
50629,21775,28468
50715,21852,28541
50844,21959,28661
51010,22092,28825
51217,22253,29033
51466,22445,29291
51748,22656,29596
52053,22878,29935
52381,23114,30305
52738,23371,30710
53123,23647,31141
53525,23935,31587
53938,24233,32044
54364,24541,32506
54792,24849,32962
55206,25148,33400
55603,25436,33821
55985,25711,34222
56348,25972,34600
56680,26212,34947
56974,26429,35257
57233,26621,35528
57451,26779,35756
57624,26899,35941
57757,26988,36090
57856,27050,36205
57920,27087,36287
57954,27108,36343
57970,27121,36378
57978,27130,36402
57975,27136,36413
57965,27141,36412
57961,27149,36407
57966,27161,36407
57975,27170,36411
57986,27177,36422
58010,27192,36442
58046,27216,36468
58087,27245,36494
58126,27275,36520
58158,27303,36542
58184,27327,36559
58197,27340,36569
58190,27336,36570
58162,27315,36559
58112,27279,36535
58041,27231,36494
57951,27170,36435
57853,27104,36366
57759,27042,36291
57669,26979,36210
57579,26914,36123
57491,26852,36036
57409,26791,35950
57332,26734,35865
57264,26682,35786
57207,26640,35714
57163,26612,35650
57132,26594,35591
57115,26582,35539
57119,26583,35505
57151,26602,35494
57212,26641,35506
57300,26699,35540
57410,26772,35593
57538,26857,35662
57682,26952,35744
57841,27057,35838
58010,27170,35941
58180,27284,36045
58346,27389,36144
58503,27483,36236
58644,27562,36324
58758,27622,36402
58846,27664,36466
58910,27696,36519
58948,27714,36556
58955,27713,36573
58941,27698,36572
58917,27680,36561
58891,27658,36542
58865,27630,36514
58840,27598,36479
58813,27567,36442
58788,27542,36403
58761,27515,36353
58727,27483,36296
58693,27457,36242
58662,27436,36190
58621,27406,36129
58558,27363,36058
58480,27314,35982
58392,27260,35902
58294,27197,35812
58188,27121,35713
58079,27038,35611
57968,26950,35504
57854,26857,35391
57738,26764,35278
57620,26671,35169
57490,26567,35054
57344,26451,34930
57187,26330,34804
57025,26208,34679
56856,26085,34548
56676,25957,34410
56494,25830,34266
56316,25708,34121
56139,25588,33972
55964,25470,33825
55805,25366,33690
55666,25277,33570
55542,25194,33459
55429,25114,33356
55335,25044,33262
55256,24985,33175
55188,24931,33091
55128,24884,33013
55076,24845,32944
55028,24807,32875
54980,24763,32804
54927,24712,32731
54875,24659,32659
54818,24600,32585
54749,24530,32507
54673,24456,32430
54600,24390,32359
54531,24334,32290
54465,24286,32218
54402,24246,32144
54349,24215,32073
54305,24190,32009
54264,24165,31950
54223,24141,31898
54186,24119,31852
54147,24096,31803
54103,24067,31746
54053,24033,31685
54000,23995,31623
53937,23948,31553
53863,23888,31471
53783,23824,31385
53702,23762,31301
53615,23699,31217
53520,23631,31128
53425,23566,31038
53333,23501,30948
53244,23434,30856
53161,23365,30761
53085,23297,30665
53009,23227,30567
52929,23154,30463
52851,23082,30356
52781,23018,30258
52719,22966,30174
52666,22922,30098
52623,22887,30031
52596,22863,29982
52592,22859,29964
52616,22877,29978
52673,22919,30028
52767,22993,30121
52901,23099,30256
53075,23232,30432
53290,23393,30654
53551,23588,30930
53855,23813,31254
54189,24054,31614
54549,24314,32005
54936,24598,32426
55345,24897,32867
55759,25198,33318
56168,25494,33775
56565,25778,34229
56943,26046,34669
57289,26290,35080
57596,26507,35455
57867,26701,35793
58103,26871,36095
58303,27015,36358
58472,27136,36581
58617,27237,36769
58733,27319,36925
58818,27378,37043
58880,27420,37129
58927,27455,37188
58959,27480,37224
58973,27495,37241
58974,27500,37246
58970,27499,37246
58957,27489,37239
58932,27469,37222
58898,27442,37197
58861,27415,37168
58821,27389,37137
58777,27364,37108
58731,27337,37081
58682,27309,37056
58634,27273,37027
58588,27232,36994
58544,27195,36959
58505,27167,36926
58466,27139,36892
58421,27108,36852
58370,27076,36810
58312,27041,36758
58243,26998,36693
58164,26946,36614
58077,26887,36523
57990,26823,36422
57896,26750,36311
57798,26676,36198
57705,26608,36093
57619,26539,35989
57536,26468,35887
57457,26405,35796
57387,26354,35718
57323,26311,35647
57264,26270,35580
57212,26232,35519
57174,26202,35468
57148,26182,35428
57130,26170,35396
57125,26169,35378
57136,26182,35384
57158,26204,35409
57183,26229,35443
57209,26256,35480
57234,26279,35517
57252,26292,35544
57261,26299,35565
57264,26306,35586
57264,26312,35602
57260,26311,35606
57243,26301,35598
57213,26285,35586
57173,26262,35567
57121,26229,35538
57060,26189,35500
57000,26150,35453
56945,26118,35395
56899,26088,35330
56860,26059,35264
56833,26036,35199
56815,26018,35138
56802,26000,35077
56790,25978,35015
56779,25957,34954
56761,25933,34894
56730,25898,34826
56687,25856,34750
56635,25811,34671
56573,25759,34585
56495,25696,34489
56407,25627,34389
56317,25557,34292
56225,25485,34194
56127,25408,34089
56027,25326,33981
55929,25245,33875
55832,25167,33768
55737,25092,33659
55648,25024,33555
55567,24967,33461
55494,24918,33375
55428,24874,33297
55370,24834,33228
55320,24797,33160
55275,24758,33090
55234,24718,33020
55201,24679,32954
55170,24645,32896
55131,24613,32839
55081,24574,32775
55026,24536,32712
54968,24500,32654
54902,24459,32595
54828,24409,32531
54752,24355,32464
54678,24299,32392
54605,24240,32316
54537,24184,32240
54482,24141,32168
54442,24113,32103
54411,24089,32040
54385,24066,31982
54363,24044,31931
54337,24024,31883
54300,23996,31831
54250,23960,31777
54192,23918,31723
54128,23869,31660
54052,23807,31582
53962,23735,31493
53869,23662,31397
53780,23594,31298
53695,23529,31201
53615,23467,31111
53538,23406,31029
53461,23345,30949
53382,23284,30862
53305,23225,30773
53237,23171,30689
53173,23119,30608
53109,23064,30529
53049,23012,30457
52997,22967,30397
52951,22929,30345
52912,22895,30299
52886,22869,30264
52880,22859,30252
52900,22873,30269
52947,22909,30321
53031,22972,30418
53159,23066,30564
53330,23192,30758
53543,23349,30997
53800,23542,31281
54097,23766,31608
54421,24009,31968
54771,24267,32356
55146,24544,32769
55545,24837,33202
55962,25137,33648
56387,25440,34095
56817,25748,34537
57245,26051,34968
57654,26333,35376
58034,26586,35756
58386,26818,36109
58705,27026,36425
58979,27203,36697
59201,27348,36923
59373,27464,37109
59500,27550,37255
59586,27605,37360
59638,27635,37428
59660,27641,37464
59653,27629,37475
59622,27603,37464
59578,27572,37440
59534,27543,37415
59490,27519,37386
59443,27494,37347
59400,27470,37307
59370,27453,37275
59348,27437,37248
59329,27423,37222
59315,27414,37198
59300,27405,37177
59278,27389,37155
59248,27362,37124
59209,27325,37085
59157,27277,37039
59085,27216,36978
58996,27142,36903
58894,27061,36817
58779,26976,36723
58648,26885,36613
58502,26782,36487
58350,26677,36353
58200,26572,36213
58052,26463,36066
57904,26351,35914
57762,26245,35767
57634,26150,35629
57521,26067,35506
57429,25997,35400
57359,25947,35318
57312,25915,35255
57277,25893,35202
57255,25877,35162
57252,25875,35142
57265,25886,35144
57286,25905,35158
57312,25932,35181
57342,25962,35209
57375,25988,35239
57412,26012,35267
57460,26041,35298
57524,26084,35342
57599,26134,35392
57673,26182,35441
57739,26225,35488
57796,26266,35532
57838,26298,35567
57866,26318,35590
57878,26324,35603
57874,26316,35605
57847,26290,35590
57796,26248,35556
57727,26199,35507
57642,26142,35440
57539,26073,35353
57414,25993,35247
57274,25901,35127
57124,25799,34997
56968,25692,34860
56811,25580,34718
56653,25469,34578
56499,25365,34443
56349,25268,34310
56200,25171,34175
56060,25079,34042
55931,24992,33915
55808,24906,33790
55686,24815,33662
55561,24721,33533
55435,24626,33408
55311,24533,33286
55187,24443,33167
55062,24350,33048
54929,24248,32920
54784,24134,32781
54628,24013,32639
54465,23890,32499
54295,23769,32361
54127,23652,32222
53964,23541,32083
53808,23437,31949
53659,23338,31822
53517,23240,31695
53387,23149,31572
53272,23074,31458
53170,23009,31350
53079,22948,31246
52996,22891,31150
52924,22836,31061
52858,22784,30976
52793,22735,30895
52728,22687,30816
52661,22639,30738
52596,22590,30660
52532,22537,30579
52471,22486,30500
52423,22446,30429
52386,22416,30363
52362,22391,30299
52351,22370,30244
52351,22354,30199
52355,22337,30158
52354,22319,30115
52351,22301,30075
52344,22283,30032
52325,22259,29980
52292,22232,29924
52257,22203,29871
52227,22174,29818
52199,22141,29760
52172,22106,29699
52144,22073,29646
52112,22040,29594
52064,21999,29531
52002,21948,29454
51930,21892,29368
51849,21830,29274
51757,21759,29175
51660,21680,29076
51562,21602,28980
51461,21524,28886
51362,21449,28794
51277,21387,28711
51217,21345,28646
51184,21322,28603
51177,21317,28586
51205,21341,28599
51281,21397,28652
51405,21483,28751
51579,21603,28899
51807,21765,29104
52094,21970,29368
52438,22210,29684
52833,22481,30046
53276,22783,30457
53762,23120,30920
54277,23483,31425
54802,23857,31956
55329,24232,32498
55852,24601,33040
56358,24952,33568
56831,25279,34075
57275,25585,34559
57687,25872,35012
58062,26133,35423
58399,26369,35794
58700,26581,36126
58967,26774,36419
59199,26944,36669
59397,27088,36879
59561,27210,37062
59688,27310,37216
59778,27383,37335
59836,27433,37421
59870,27466,37478
59884,27480,37506
59881,27476,37510
59873,27466,37505
59870,27458,37500
59874,27455,37497
59883,27457,37495
59897,27464,37495
59919,27477,37501
59946,27494,37511
59971,27510,37516
59994,27523,37519
60019,27537,37526
60045,27554,37539
60072,27572,37555
60103,27595,37576
60135,27622,37597
60152,27641,37608
60148,27646,37601
60123,27634,37577
60079,27601,37534
60010,27542,37466
59912,27461,37376
59795,27371,37275
59669,27275,37164
59530,27169,37039
59384,27057,36903
59242,26949,36768
59104,26851,36641
58972,26760,36520
58855,26679,36407
58758,26608,36306
58678,26547,36216
58613,26495,36134
58563,26456,36061
58536,26433,36008
58534,26426,35980
58549,26433,35975
58574,26452,35992
58603,26481,36025
58631,26509,36065
58649,26527,36099
58658,26531,36122
58661,26530,36136
58657,26526,36143
58640,26511,36137
58607,26483,36118
58562,26444,36091
58508,26404,36059
58446,26364,36023
58379,26325,35979
58310,26284,35927
58241,26240,35866
58170,26195,35804
58097,26155,35743
58023,26117,35679
57941,26070,35597
57852,26008,35498
57758,25940,35391
57660,25871,35281
57556,25796,35166
57445,25713,35047
57334,25628,34931
57225,25548,34822
57114,25471,34714
56996,25390,34601
56877,25305,34483
56758,25215,34362
56635,25123,34238
56507,25029,34112
56381,24941,33990
56260,24860,33871
56135,24778,33750
56007,24693,33628
55882,24609,33503
55763,24527,33379
55643,24440,33254
55518,24347,33126
55396,24255,33004
55281,24171,32891
55168,24090,32777
55056,24008,32662
54956,23933,32552
54865,23866,32451
54772,23800,32352
54679,23738,32252
54595,23680,32157
54513,23623,32064
54424,23559,31970
54327,23490,31872
54229,23418,31772
54132,23349,31676
54035,23281,31585
53940,23217,31500
53846,23156,31423
53749,23094,31346
53651,23029,31267
53555,22964,31190
53468,22900,31112
53381,22835,31028
53288,22766,30940
53195,22699,30853
53105,22635,30766
53012,22570,30674
52912,22500,30575
52815,22431,30474
52725,22365,30376
52633,22296,30276
52535,22225,30175
52444,22159,30080
52364,22100,29994
52289,22049,29919
52212,22003,29849
52140,21961,29782
52077,21924,29712
52024,21890,29641
51972,21855,29572
51917,21820,29504
51859,21782,29436
51794,21739,29365
51721,21690,29286
51642,21633,29199
51560,21570,29104
51478,21503,29005
51397,21435,28906
51320,21371,28810
51241,21307,28714
51156,21242,28610
51071,21177,28503
50999,21120,28405
50951,21076,28321
50924,21048,28254
50919,21038,28205
50942,21056,28185
51003,21107,28206
51105,21187,28273
51247,21293,28388
51431,21430,28557
51658,21599,28783
51928,21800,29065
52241,22031,29398
52592,22290,29776
52975,22571,30191
53382,22868,30634
53809,23179,31100
54254,23502,31587
54709,23832,32087
55165,24165,32598
55624,24502,33113
56081,24837,33623
56523,25159,34114
56943,25466,34577
57334,25752,35004
57690,26011,35390
58012,26237,35729
58300,26432,36021
58554,26601,36274
58772,26750,36493
58953,26873,36674
59095,26970,36819
59206,27048,36936
59288,27109,37031
59336,27145,37096
59354,27158,37129
59356,27158,37142
59347,27151,37143
59329,27138,37138
59308,27125,37131
59294,27120,37127
59288,27123,37126
59286,27125,37127
59283,27125,37128
59281,27127,37129
59281,27129,37130
59282,27129,37131
59285,27126,37132
59293,27127,37134
59303,27133,37133
59310,27134,37123
59308,27127,37108
59297,27116,37088
59270,27092,37055
59224,27051,37006
59164,27000,36947
59093,26945,36876
59008,26884,36790
58915,26814,36687
58819,26739,36574
58727,26668,36462
58637,26601,36355
58551,26536,36254
58474,26477,36161
58408,26424,36074
58346,26375,35993
58290,26336,35930
58251,26316,35893
58237,26316,35878
58247,26326,35875
58277,26339,35879
58321,26363,35898
58372,26398,35927
58425,26432,35953
58484,26466,35978
58551,26504,36015
58618,26545,36062
58673,26584,36109
58719,26620,36156
58759,26656,36203
58788,26681,36237
58800,26685,36251
58796,26675,36249
58787,26662,36238
58776,26650,36222
58765,26640,36201
58753,26628,36174
58739,26614,36140
58722,26595,36098
58694,26568,36048
58657,26536,35990
58610,26502,35923
58548,26456,35847
58466,26393,35759
58370,26321,35662
58268,26251,35563
58160,26179,35459
58039,26098,35350
57908,26010,35236
57770,25917,35118
57622,25820,34993
57469,25720,34860
57323,25621,34725
57189,25532,34598
57061,25445,34475
56929,25353,34349
56796,25260,34227
56667,25170,34104
56538,25077,33973
56400,24980,33837
56256,24884,33703
56114,24787,33571
55968,24683,33435
55815,24578,33300
55667,24482,33173
55534,24398,33057
55417,24320,32950
55319,24251,32849
55242,24193,32755
55181,24147,32671
55126,24106,32597
55074,24068,32530
55033,24034,32467
55002,23998,32405
54969,23957,32340
54934,23917,32276
54905,23885,32221
54878,23856,32167
54845,23818,32108
54804,23775,32045
54762,23735,31985
54718,23694,31928
54670,23650,31874
54623,23607,31822
54581,23570,31772
54540,23534,31723
54496,23496,31670
54460,23461,31614
54435,23432,31555
54408,23398,31493
54373,23360,31424
54336,23323,31354
54305,23291,31287
54276,23259,31222
54245,23226,31157
54213,23190,31096
54176,23148,31036
54127,23097,30973
54070,23041,30905
54012,22988,30834
53956,22934,30759
53894,22875,30678
53830,22820,30593
53770,22774,30509
53716,22733,30428
53667,22696,30351
53628,22665,30287
53614,22650,30245
53626,22651,30231
53663,22665,30244
53737,22701,30292
53855,22769,30387
54016,22873,30532
54217,23013,30728
54461,23189,30977
54749,23399,31280
55073,23639,31629
55427,23903,32017
55816,24191,32442
56243,24503,32904
56700,24830,33390
57176,25163,33888
57660,25501,34389
58145,25840,34886
58615,26169,35366
59057,26479,35820
59467,26769,36248
59847,27039,36645
60191,27282,37006
60489,27489,37323
60744,27661,37598
60957,27801,37833
61126,27908,38022
61248,27984,38164
61329,28041,38270
61374,28081,38349
61387,28103,38400
61374,28104,38418
61342,28086,38409
61300,28057,38383
61246,28020,38342
61184,27980,38297
61128,27945,38254
61084,27914,38215
61045,27884,38175
61008,27851,38136
60974,27821,38101
60947,27794,38071
60925,27764,38039
60906,27734,38008
60891,27711,37982
60869,27691,37956
60828,27658,37918
60765,27607,37866
60682,27546,37799
60581,27475,37714
60459,27390,37608
60324,27290,37483
60180,27187,37349
60029,27089,37213
59883,26994,37077
59754,26909,36944
59643,26836,36819
59543,26763,36695
59450,26691,36572
59373,26628,36460
59310,26580,36369
59259,26540,36296
59220,26507,36235
59193,26483,36189
59182,26469,36164
59183,26460,36153
59195,26458,36153
59224,26471,36173
59270,26501,36212
59320,26535,36260
59369,26568,36309
59421,26605,36357
59473,26642,36403
59520,26673,36440
59560,26698,36471
59596,26726,36503
59631,26755,36536
59659,26777,36562
59674,26787,36577
59680,26788,36581
59681,26785,36577
59665,26772,36559
59630,26743,36522
59581,26701,36469
59515,26646,36401
59425,26577,36320
59320,26503,36229
59212,26429,36133
59107,26353,36033
58996,26272,35927
58883,26193,35818
58778,26122,35712
58681,26051,35608
58583,25973,35498
58482,25892,35383
58381,25816,35267
58284,25746,35151
58185,25674,35031
58087,25598,34913
57992,25520,34800
57891,25435,34686
57775,25339,34565
57646,25238,34439
57509,25137,34316
57367,25041,34195
57221,24946,34072
57078,24850,33948
56941,24755,33830
56804,24659,33713
56665,24560,33588
56527,24462,33459
56393,24368,33329
56266,24278,33201
56147,24190,33080
56038,24109,32974
55939,24034,32875
55843,23961,32775
55748,23890,32676
55656,23819,32583
55567,23750,32498
55482,23686,32417
55404,23632,32342
55334,23589,32276
55270,23552,32216
55206,23514,32151
55141,23470,32081
55080,23423,32014
55024,23375,31949
54973,23329,31882
54930,23288,31815
54892,23250,31748
54854,23210,31679
54811,23166,31605
54765,23123,31530
54718,23082,31459
54664,23035,31386
54602,22981,31312
54537,22929,31240
54470,22879,31168
54397,22824,31091
54314,22760,31009
54225,22692,30921
54140,22627,30831
54057,22563,30740
53972,22496,30648
53892,22432,30556
53819,22375,30468
53750,22320,30380
53677,22263,30288
53604,22205,30194
53537,22150,30108
53472,22096,30030
53407,22045,29957
53347,21997,29890
53296,21952,29827
53250,21908,29763
53207,21866,29703
53180,21837,29660
53187,21833,29649
53235,21856,29668
53325,21909,29719
53466,22003,29820
53666,22143,29981
53924,22324,30201
54240,22547,30480
54615,22819,30823
55048,23139,31232
55529,23493,31693
56051,23875,32202
56610,24286,32755
57189,24710,33337
57768,25130,33926
58336,25537,34511
58886,25931,35085
59413,26305,35639
59908,26652,36163
60368,26976,36655
60797,27283,37117
61194,27570,37539
61561,27831,37913
61897,28066,38245
62204,28281,38541
62478,28472,38798
62713,28633,39009
62912,28765,39178
63072,28871,39315
63195,28953,39424
63289,29014,39511
63361,29060,39578
63412,29093,39628
63439,29112,39662
63440,29117,39680
63422,29112,39689
63398,29104,39692
63368,29088,39687
63333,29065,39670
63295,29036,39646
63261,29005,39624
63233,28974,39603
63215,28953,39587
63212,28948,39579
63217,28952,39576
63219,28954,39573
63217,28950,39572
63213,28945,39568
63200,28936,39556
63168,28914,39524
63118,28875,39472
63047,28823,39404
62944,28753,39315
62803,28658,39202
62630,28539,39068
62432,28403,38918
62207,28248,38751
61955,28070,38564
61689,27879,38366
61425,27689,38168
61171,27509,37974
60932,27343,37789
60718,27201,37622
60544,27093,37483
60408,27014,37373
60306,26958,37291
60243,26926,37237
60221,26921,37210
60225,26933,37203
60240,26950,37206
60261,26970,37218
60288,26993,37237
60314,27014,37255
60330,27031,37268
60338,27044,37281
60342,27055,37298
60336,27055,37308
60312,27037,37301
60280,27007,37278
60248,26974,37247
60209,26937,37206
60151,26889,37154
60070,26835,37092
59974,26773,37020
59869,26702,36935
59762,26625,36842
59663,26553,36749
59575,26493,36658
59495,26441,36566
59426,26393,36471
59369,26351,36378
59317,26313,36288
59260,26275,36197
59194,26234,36106
59123,26191,36019
59042,26140,35933
58946,26076,35836
58834,26001,35725
58715,25922,35608
58592,25841,35489
58464,25755,35362
58329,25663,35227
58192,25573,35091
58057,25485,34961
57925,25400,34842
57804,25320,34732
57702,25252,34630
57612,25187,34529
57521,25116,34422
57430,25041,34316
57346,24975,34221
57264,24920,34131
57179,24864,34039
57091,24803,33947
57001,24740,33856
56904,24672,33761
56801,24594,33661
56699,24515,33565
56606,24441,33475
56521,24371,33383
56448,24310,33296
56394,24265,33219
56356,24234,33149
56327,24209,33083
56305,24190,33027
56288,24176,32982
56274,24163,32940
56260,24146,32893
56242,24126,32840
56218,24102,32787
56185,24071,32730
56141,24031,32664
56087,23983,32592
56029,23938,32523
55966,23898,32462
55898,23857,32399
55825,23807,32332
55750,23755,32270
55674,23704,32211
55593,23654,32147
55508,23604,32074
55427,23556,31995
55349,23505,31911
55271,23449,31821
55195,23391,31729
55124,23340,31640
55060,23295,31558
54997,23254,31481
54932,23211,31405
54869,23169,31330
54810,23124,31258
54747,23070,31179
54675,23008,31091
54601,22946,31000
54528,22887,30910
54452,22828,30824
54379,22771,30746
54313,22725,30682
54258,22690,30627
54220,22662,30579
54212,22650,30549
54243,22660,30547
54309,22698,30581
54415,22770,30657
54570,22883,30789
54777,23038,30986
55032,23234,31243
55329,23467,31552
55675,23734,31915
56062,24026,32323
56478,24336,32768
56922,24666,33246
57399,25015,33757
57897,25375,34286
58396,25736,34823
58887,26095,35365
59368,26448,35901
59834,26789,36416
60279,27115,36903
60695,27420,37356
61080,27703,37773
61429,27960,38155
61738,28186,38498
62014,28388,38798
62262,28570,39056
62473,28725,39274
62648,28852,39454
62798,28958,39605
62931,29052,39732
63045,29129,39827
63129,29187,39892
63187,29230,39941
63236,29268,39985
63280,29301,40021
63312,29325,40045
63331,29341,40059
63338,29352,40067
63334,29356,40070
63328,29355,40072
63327,29356,40076
63330,29359,40081
63339,29365,40083
63347,29370,40081
63351,29371,40080
63352,29370,40079
63345,29360,40070
63322,29340,40049
63286,29311,40017
63234,29270,39973
63161,29215,39917
63070,29150,39844
62962,29078,39752
62838,28996,39647
62703,28903,39535
62564,28806,39418
62430,28713,39302
62306,28629,39186
62193,28550,39070
62092,28476,38957
62006,28412,38857
61939,28361,38771
61888,28317,38697
61846,28278,38634
61815,28251,38589
61797,28232,38557
61785,28219,38533
61781,28215,38520
61785,28223,38518
61788,28232,38519
61789,28235,38521
61796,28245,38531
61818,28270,38556
61854,28305,38594
61896,28339,38635
61940,28371,38673
61984,28403,38709
62025,28433,38741
62060,28460,38764
62092,28486,38779
62116,28505,38787
62125,28512,38788
62118,28508,38780
62096,28497,38759
62067,28480,38728
62032,28455,38686
61984,28418,38628
61923,28371,38558
61850,28317,38479
61762,28253,38384
61662,28177,38270
61553,28094,38150
61437,28011,38032
61313,27923,37911
61189,27829,37785
61068,27736,37655
60947,27647,37524
60828,27561,37392
60707,27474,37260
60585,27390,37129
60465,27307,37003
60341,27219,36876
60208,27123,36747
60068,27023,36616
59921,26917,36481
59759,26805,36340
59585,26692,36200
59410,26581,36063
59239,26475,35929
59075,26374,35796
58920,26278,35666
58780,26187,35547
58648,26099,35431
58525,26014,35317
58416,25937,35210
58320,25871,35114
58229,25814,35024
58140,25758,34933
58059,25707,34843
57988,25663,34759
57918,25618,34681
57839,25568,34607
57759,25521,34540
57681,25478,34479
57596,25434,34414
57502,25382,34338
57404,25322,34254
57305,25258,34168
57204,25194,34083
57109,25132,34003
57026,25075,33932
56956,25024,33870
56894,24975,33809
56841,24926,33750
56796,24883,33695
56753,24843,33642
56705,24799,33582
56658,24749,33515
56617,24700,33444
56577,24653,33370
56527,24600,33288
56465,24541,33201
56397,24486,33119
56324,24432,33042
56244,24374,32961
56158,24310,32875
56070,24242,32787
55972,24172,32695
55863,24099,32598
55755,24029,32500
55658,23963,32407
55568,23898,32318
55480,23836,32227
55393,23775,32130
55307,23715,32031
55217,23653,31930
55114,23582,31826
54997,23501,31717
54874,23415,31606
54746,23322,31490
54615,23222,31369
54487,23131,31252
54367,23053,31142
54252,22980,31031
54144,22908,30921
54055,22850,30829
53997,22815,30770
53974,22807,30745
53993,22828,30756
54061,22886,30814
54183,22985,30929
54361,23120,31098
54598,23294,31328
54896,23514,31630
55251,23775,31996
55654,24067,32412
56102,24392,32873
56590,24749,33371
57104,25123,33890
57628,25499,34418
58152,25872,34950
58669,26240,35485
59171,26599,36015
59647,26940,36524
60087,27256,37000
60490,27546,37439
60854,27808,37833
61170,28037,38179
61439,28235,38481
61672,28409,38744
61872,28560,38968
62032,28682,39147
62154,28778,39286
62247,28851,39393
62313,28900,39468
62353,28928,39512
62377,28944,39535
62394,28955,39546
62403,28961,39544
62408,28961,39536
62418,28965,39531
62435,28976,39532
62449,28990,39530
62452,28998,39519
62452,29001,39506
62456,29007,39499
62461,29011,39497
62461,29009,39490
62450,29001,39477
62427,28985,39454
62388,28955,39420
62330,28909,39375
62260,28853,39320
62179,28790,39253
62082,28721,39177
61971,28646,39092
61854,28570,39004
61728,28489,38913
61586,28398,38810
61442,28302,38695
61311,28211,38578
61193,28131,38461
61083,28060,38346
60991,28000,38237
60920,27951,38139
60863,27907,38049
60813,27865,37967
60777,27832,37900
60760,27810,37849
60753,27799,37814
60753,27798,37793
60764,27803,37782
60794,27817,37789
60837,27843,37811
60882,27878,37843
60931,27920,37882
60991,27969,37935
61055,28019,37993
61111,28056,38046
61161,28086,38093
61210,28116,38136
61252,28143,38166
61281,28159,38184
61298,28164,38190
61305,28163,38188
61297,28158,38178
61277,28145,38159
61251,28126,38131
61212,28098,38093
61157,28058,38043
61093,28010,37985
61027,27962,37921
60957,27910,37847
60875,27847,37754
60786,27778,37646
60697,27713,37540
60604,27649,37435
60498,27576,37321
60382,27494,37198
60261,27408,37072
60137,27318,36944
60012,27223,36812
59891,27129,36680
59775,27045,36555
59662,26969,36436
59555,26899,36321
59456,26834,36216
59366,26776,36125
59282,26724,36041
59202,26674,35958
59127,26623,35876
59057,26571,35792
58987,26511,35697
58913,26445,35592
58838,26379,35486
58768,26317,35384
58700,26260,35289
58627,26204,35200
58549,26147,35118
58471,26091,35037
58394,26034,34952
58313,25972,34860
58228,25904,34764
58141,25835,34670
58049,25766,34584
57944,25694,34500
57827,25619,34415
57705,25545,34332
57579,25472,34250
57452,25395,34167
57332,25322,34085
57216,25254,34001
57097,25183,33909
56975,25106,33810
56852,25030,33711
56729,24954,33612
56600,24871,33510
56469,24780,33406
56343,24690,33305
56227,24607,33207
56113,24529,33114
56001,24459,33026
55897,24396,32942
55804,24340,32865
55716,24286,32786
55635,24238,32705
55564,24198,32628
55496,24158,32551
55419,24104,32464
55330,24036,32368
55232,23958,32268
55130,23873,32162
55023,23790,32054
54915,23715,31947
54815,23645,31841
54724,23577,31736
54639,23510,31632
54560,23449,31534
54491,23395,31446
54430,23347,31367
54381,23311,31305
54350,23293,31271
54343,23298,31266
54361,23323,31288
54410,23370,31346
54503,23451,31448
54644,23568,31595
54824,23716,31783
55043,23896,32018
55310,24114,32306
55626,24367,32644
55980,24649,33027
56367,24951,33447
56783,25270,33897
57225,25603,34368
57679,25939,34851
58136,26275,35344
58600,26611,35843
59067,26945,36337
59526,27271,36813
59968,27584,37261
60391,27877,37677
60786,28147,38065
61143,28392,38418
61454,28609,38729
61722,28795,38998
61950,28950,39225
62138,29071,39405
62285,29163,39540
62394,29229,39639
62466,29272,39702
62502,29295,39734
62507,29306,39743
62490,29306,39736
62452,29292,39715
62400,29265,39683
62347,29235,39646
62304,29208,39612
62272,29184,39579
62242,29159,39546
62215,29137,39514
62198,29123,39486
62186,29114,39463
62171,29104,39442
62157,29094,39422
62143,29082,39396
62119,29061,39354
62081,29026,39299
62031,28980,39235
61963,28922,39161
61874,28850,39068
61765,28766,38961
61648,28682,38849
61529,28603,38740
61409,28524,38631
61289,28443,38520
61178,28369,38410
61079,28302,38306
60985,28237,38206
60892,28174,38111
60805,28118,38026
60729,28071,37948
60661,28030,37877
60607,27997,37819
60576,27980,37785
60567,27981,37778
60575,27998,37792
60602,28029,37822
60646,28068,37866
60697,28105,37913
60741,28135,37956
60776,28162,37998
60799,28184,38040
60812,28197,38076
60818,28202,38102
60818,28204,38121
60815,28203,38139
60805,28198,38150
60781,28182,38142
60751,28157,38119
60720,28130,38089
60682,28101,38048
60636,28068,37998
60590,28037,37946
60551,28011,37897
60508,27982,37847
60450,27947,37792
60380,27905,37728
60302,27858,37654
60219,27802,37567
60129,27739,37469
60036,27673,37369
59935,27605,37264
59821,27528,37150
59699,27445,37033
59577,27366,36917
59460,27290,36803
59347,27214,36686
59234,27136,36567
59123,27060,36452
59018,26987,36341
58918,26913,36230
58821,26839,36114
58729,26769,36002
58639,26699,35892
58542,26619,35779
58439,26535,35665
58342,26463,35560
58253,26400,35461
58170,26339,35363
58093,26285,35272
58027,26243,35196
57972,26210,35130
57926,26179,35069
57891,26152,35010
57874,26133,34959
57870,26122,34914
57865,26113,34867
57854,26104,34822
57842,26096,34781
57824,26084,34739
57794,26059,34689
57751,26026,34634
57700,25988,34574
57633,25940,34505
57550,25879,34427
57453,25805,34341
57340,25716,34243
57207,25615,34133
57058,25507,34019
56902,25401,33913
56749,25303,33813
56604,25210,33711
56473,25124,33608
56360,25055,33513
56267,25002,33430
56191,24953,33352
56134,24908,33277
56102,24877,33212
56092,24866,33161
56092,24865,33114
56097,24868,33065
56109,24870,33018
56121,24863,32967
56120,24844,32911
56105,24816,32855
56079,24785,32801
56045,24754,32745
56007,24726,32693
55976,24708,32661
55964,24705,32655
55979,24723,32676
56025,24768,32731
56119,24850,32835
56273,24973,32997
56483,25131,33214
56744,25323,33484
57062,25555,33813
57434,25828,34197
57843,26125,34621
58276,26437,35078
58726,26763,35562
59188,27098,36062
59652,27434,36562
60103,27760,37052
60532,28075,37526
60939,28374,37977
61310,28645,38392
61641,28883,38770
61936,29091,39111
62195,29270,39413
62418,29420,39672
62612,29544,39889
62780,29648,40070
62928,29742,40222
63056,29826,40347
63167,29897,40445
63274,29963,40526
63379,30023,40590
63472,30072,40634
63549,30109,40662
63609,30137,40679
63652,30155,40686
63673,30158,40679
63666,30146,40661
63641,30125,40638
63605,30102,40614
63556,30075,40583
63492,30041,40545
63416,30002,40499
63329,29959,40449
63235,29911,40397
63135,29861,40346
63028,29806,40291
62908,29744,40225
62774,29676,40148
62630,29603,40064
62480,29526,39974
62324,29441,39874
62161,29345,39762
61996,29239,39642
61837,29132,39523
61685,29029,39402
61540,28933,39276
61404,28847,39149
61279,28771,39026
61162,28701,38910
61058,28637,38808
60972,28583,38720
60900,28537,38643
60829,28492,38575
60757,28451,38520
60693,28416,38482
60647,28391,38461
60616,28377,38454
60599,28373,38458
60593,28376,38472
60599,28387,38493
60610,28399,38516
60624,28412,38539
60644,28434,38566
60667,28460,38594
60690,28482,38616
60710,28504,38635
60730,28527,38657
60748,28548,38678
60756,28559,38690
60748,28557,38690
60734,28555,38686
60712,28554,38672
60676,28542,38641
60627,28515,38596
60565,28474,38539
60491,28422,38470
60403,28361,38390
60303,28295,38302
60191,28223,38208
60061,28138,38103
59911,28041,37984
59751,27936,37853
59589,27830,37719
59433,27731,37585
59282,27638,37448
59137,27548,37307
59005,27466,37167
58888,27388,37032
58779,27313,36901
58677,27240,36778
58582,27172,36666
58487,27101,36560
58382,27018,36450
58270,26929,36341
58157,26842,36232
58037,26752,36120
57902,26655,36002
57760,26554,35881
57619,26457,35763
57485,26363,35647
57364,26276,35531
57261,26206,35425
57175,26154,35327
57097,26112,35232
57027,26076,35138
56972,26043,35054
56926,26009,34978
56883,25966,34903
56839,25918,34828
56793,25874,34761
56746,25833,34697
56690,25787,34625
56630,25738,34547
56575,25697,34476
56526,25662,34408
56478,25624,34338
56428,25584,34272
56379,25548,34210
56335,25516,34147
56295,25485,34080
56258,25456,34020
56227,25432,33974
56197,25407,33933
56159,25373,33886
56106,25329,33833
56046,25284,33780
55983,25243,33724
55913,25201,33657
55830,25154,33578
55743,25102,33489
55651,25039,33392
55555,24966,33291
55466,24898,33196
55384,24838,33106
55302,24779,33013
55224,24720,32922
55154,24665,32835
55089,24608,32751
55022,24546,32668
54960,24489,32594
54918,24451,32537
54897,24432,32500
54895,24429,32480
54914,24447,32483
54964,24491,32522
55049,24564,32601
55164,24656,32720
55313,24774,32886
55502,24929,33108
55732,25118,33384
55996,25334,33706
56298,25580,34073
56644,25859,34484
57030,26163,34926
57450,26483,35394
57903,26820,35888
58388,27177,36407
58889,27544,36937
59380,27901,37457
59849,28242,37958
60298,28570,38439
60712,28876,38891
61078,29147,39300
61392,29381,39657
61653,29578,39964
61860,29737,40220
62012,29858,40425
62122,29949,40586
62209,30018,40713
62277,30070,40810
62323,30105,40878
62352,30124,40927
62371,30134,40962
62374,30137,40980
62360,30135,40982
62342,30134,40984
62330,30140,40994
62329,30150,41006
62340,30164,41020
62363,30186,41042
62390,30212,41067
62418,30238,41087
62445,30261,41103
62475,30288,41125
62514,30320,41154
62547,30349,41179
62559,30365,41193
62552,30366,41195
62525,30354,41185
62472,30323,41154
62392,30270,41099
62291,30202,41027
62176,30123,40936
62045,30035,40826
61907,29937,40702
61766,29832,40574
61625,29721,40445
61489,29612,40316
61367,29520,40196
61273,29454,40093
61208,29409,40007
61169,29379,39931
61156,29364,39865
61166,29367,39819
61201,29392,39796
61250,29431,39790
61307,29475,39798
61372,29522,39822
61440,29571,39856
61503,29616,39895
61555,29655,39935
61599,29687,39972
61632,29708,40002
61655,29717,40027
61674,29722,40050
61697,29730,40074
61722,29739,40089
61740,29740,40092
61752,29736,40090
61761,29731,40089
61766,29725,40081
61764,29717,40064
61760,29711,40047
61757,29708,40033
61747,29699,40012
61724,29687,39984
61695,29676,39953
61655,29661,39918
61594,29629,39865
61510,29577,39788
61414,29512,39697
61309,29437,39598
61196,29354,39493
61074,29264,39386
60944,29171,39274
60812,29078,39154
60683,28987,39026
60557,28895,38892
60434,28806,38760
60313,28723,38629
60194,28640,38496
60081,28560,38366
59973,28483,38248
59863,28404,38137
59748,28322,38025
59634,28241,37912
59523,28161,37802
59403,28077,37690
59269,27983,37572
59128,27883,37450
58982,27782,37326
58832,27674,37197
58675,27559,37062
58513,27443,36930
58344,27327,36801
58175,27211,36671
58014,27100,36543
57869,27002,36427
57741,26920,36327
57624,26848,36233
57520,26783,36140
57433,26723,36054
57362,26671,35977
57297,26623,35908
57234,26580,35843
57175,26543,35779
57122,26509,35711
57063,26472,35638
56991,26425,35558
56915,26375,35478
56841,26327,35400
56768,26275,35323
56696,26220,35252
56626,26169,35193
56556,26125,35137
56484,26078,35072
56410,26026,34996
56332,25970,34913
56250,25912,34829
56165,25852,34742
56080,25790,34652
55997,25730,34567
55917,25674,34487
55841,25621,34411
55772,25572,34341
55711,25528,34273
55649,25486,34198
55576,25438,34116
55492,25383,34032
55400,25323,33946
55303,25256,33853
55204,25184,33753
55113,25115,33655
55038,25053,33563
54980,25000,33482
54936,24961,33420
54914,24941,33385
54929,24950,33389
54988,24996,33439
55094,25081,33538
55257,25209,33696
55479,25382,33917
55757,25598,34194
56087,25849,34526
56466,26136,34915
56889,26455,35356
57346,26797,35835
57827,27155,36342
58326,27523,36865
58838,27897,37395
59350,28262,37917
59846,28614,38426
60321,28954,38919
60768,29273,39388
61175,29560,39819
61529,29812,40208
61834,30032,40552
62092,30219,40849
62298,30368,41091
62453,30481,41278
62566,30565,41422
62644,30624,41531
62692,30665,41614
62720,30694,41679
62742,30718,41729
62762,30736,41760
62779,30747,41776
62789,30754,41786
62797,30763,41793
62801,30766,41793
62796,30762,41787
62786,30757,41783
62780,30755,41784
62777,30756,41786
62773,30759,41787
62773,30767,41788
62782,30785,41794
62792,30808,41801
62797,30822,41800
62799,30827,41795
62800,30833,41791
62791,30835,41781
62768,30821,41759
62729,30790,41721
62674,30746,41666
62606,30694,41595
62522,30634,41509
62429,30567,41415
62334,30493,41316
62233,30408,41206
62121,30321,41086
62009,30237,40964
61905,30158,40845
61808,30083,40732
61717,30015,40630
61637,29957,40542
61570,29915,40471
61513,29884,40411
61464,29861,40366
61427,29844,40334
61403,29832,40310
61390,29822,40289
61390,29820,40279
61404,29831,40285
61424,29851,40301
61442,29875,40323
61458,29902,40352
61471,29929,40385
61475,29950,40413
61464,29955,40430
61443,29948,40440
61419,29934,40445
61388,29914,40438
61346,29881,40413
61293,29838,40373
61237,29793,40325
61177,29745,40270
61104,29693,40205
61023,29643,40139
60937,29594,40073
60838,29537,40000
60729,29471,39917
60616,29400,39825
60503,29332,39728
60382,29261,39622
60250,29178,39501
60115,29087,39374
59979,28997,39247
59838,28905,39119
59691,28811,38990
59537,28716,38863
59381,28615,38735
59225,28504,38600
59064,28386,38462
58898,28266,38323
58721,28139,38176
58534,28007,38024
58346,27875,37870
58168,27753,37719
58000,27638,37571
57840,27529,37424
57696,27431,37285
57579,27355,37166
57488,27300,37062
57414,27256,36965
57359,27221,36877
57320,27200,36805
57290,27184,36740
57263,27163,36672
57238,27140,36605
57213,27116,36546
57182,27085,36484
57139,27040,36411
57083,26989,36333
57020,26936,36256
56954,26882,36176
56884,26825,36095
56811,26766,36017
56739,26706,35943
56671,26651,35873
56609,26600,35804
56557,26558,35740
56514,26526,35681
56470,26496,35620
56418,26459,35551
56363,26420,35482
56305,26381,35419
56235,26338,35358
56153,26288,35293
56069,26237,35227
55993,26193,35162
55918,26149,35098
55836,26100,35030
55747,26041,34954
55652,25975,34867
55547,25902,34774
55435,25824,34678
55325,25743,34578
55217,25663,34473
55108,25581,34366
54999,25498,34257
54899,25419,34151
54809,25346,34047
54728,25277,33941
54663,25217,33838
54620,25172,33749
54601,25145,33676
54599,25132,33616
54615,25134,33573
54659,25158,33556
54738,25205,33569
54853,25276,33610
55009,25376,33685
55206,25510,33808
55443,25676,33979
55721,25873,34199
56039,26100,34467
56391,26351,34779
56765,26621,35129
57152,26904,35509
57558,27202,35924
57984,27514,36373
58426,27836,36844
58878,28165,37327
59338,28500,37820
59796,28837,38316
60242,29165,38803
60675,29481,39271
61101,29789,39719
61516,30086,40145
61906,30363,40539
62256,30612,40892
62563,30832,41202
62824,31017,41471
63037,31163,41694
63200,31279,41875
63321,31371,42019
63405,31444,42134
63453,31494,42217
63469,31521,42273
63454,31527,42300
63415,31513,42299
63358,31484,42275
63294,31446,42236
63234,31402,42190
63180,31361,42139
63134,31327,42090
63097,31298,42049
63070,31279,42022
63052,31272,42010
63037,31267,42002
63024,31260,41993
63013,31255,41983
62999,31251,41967
62974,31239,41945
62939,31219,41919
62894,31192,41885
62834,31156,41833
62755,31102,41757
62663,31034,41665
62563,30962,41569
62454,30888,41465
62336,30806,41352
62213,30718,41232
62093,30631,41114
61979,30546,40997
61878,30466,40887
61800,30401,40791
61745,30355,40704
61702,30318,40624
61663,30287,40553
61630,30266,40499
61610,30259,40466
61608,30263,40451
61621,30276,40450
61651,30298,40466
61689,30332,40501
61727,30367,40545
61764,30399,40592
61809,30435,40645
61860,30474,40701
61905,30507,40750
61946,30538,40795
61987,30570,40840
62031,30604,40880
62075,30634,40913
62114,30657,40941
62145,30676,40962
62167,30686,40966
62173,30680,40946
62161,30659,40910
62135,30633,40866
62096,30599,40812
62041,30555,40745
61983,30506,40674
61926,30458,40607
61865,30411,40540
61795,30361,40464
61723,30313,40379
61650,30264,40288
61570,30207,40195
61481,30140,40095
61384,30065,39985
61283,29987,39869
61177,29908,39753
61065,29827,39638
60948,29744,39525
60832,29662,39414
60712,29577,39302
60587,29489,39185
60469,29404,39067
60359,29324,38955
60246,29239,38843
60128,29150,38728
60016,29070,38620
59912,29000,38522
59815,28930,38425
59725,28856,38326
59646,28786,38233
59574,28724,38144
59501,28665,38054
59424,28606,37964
59352,28555,37884
59286,28509,37809
59222,28462,37726
59161,28416,37643
59109,28377,37573
59065,28342,37512
59021,28303,37446
58978,28266,37380
58943,28238,37320
58911,28215,37265
58871,28189,37208
58823,28156,37151
58772,28117,37098
58719,28071,37046
58661,28022,36989
58601,27973,36927
58540,27926,36862
58474,27875,36793
58399,27817,36721
58325,27759,36649
58255,27708,36581
58182,27659,36511
58101,27606,36434
58016,27555,36361
57933,27501,36290
57848,27439,36212
57757,27369,36125
57660,27295,36036
57559,27222,35948
57457,27148,35859
57355,27075,35766
57258,27008,35674
57168,26949,35587
57088,26897,35503
57024,26855,35428
56977,26829,35371
56946,26816,35331
56937,26815,35307
56964,26832,35307
57034,26881,35343
57150,26967,35423
57311,27087,35551
57518,27239,35730
57774,27424,35960
58077,27644,36240
58413,27888,36569
58777,28150,36945
59166,28431,37359
59572,28725,37799
59983,29027,38256
60401,29337,38727
60817,29647,39203
61214,29943,39661
61577,30215,40089
61906,30463,40490
62206,30688,40864
62478,30895,41205
62715,31081,41510
62926,31248,41780
63117,31394,42013
63281,31514,42209
63416,31613,42370
63527,31699,42504
63617,31768,42609
63682,31814,42677
63718,31837,42711
63732,31844,42721
63725,31836,42714
63700,31815,42694
63658,31785,42662
63608,31751,42621
63557,31721,42578
63509,31693,42536
63468,31669,42498
63439,31656,42470
63428,31656,42456
63430,31663,42451
63445,31677,42453
63478,31704,42462
63523,31741,42478
63560,31772,42490
63581,31792,42492
63587,31801,42483
63568,31787,42451
63513,31740,42388
63420,31665,42297
63302,31572,42184
63165,31468,42055
63010,31351,41909
62849,31230,41756
62692,31118,41611
62542,31018,41472
62402,30927,41339
62283,30852,41225
62196,30797,41139
62144,30763,41076
62125,30750,41032
62139,30759,41009
62180,30786,41010
62240,30825,41031
62310,30868,41064
62384,30912,41102
62457,30961,41146
62517,31007,41190
62559,31044,41229
62590,31073,41262
62612,31093,41291
62618,31101,41313
62606,31098,41326
62579,31089,41333
62547,31075,41338
62509,31056,41336
62467,31028,41329
62427,30999,41318
62397,30973,41302
62375,30952,41278
62363,30939,41250
62364,30935,41226
62370,30937,41206
62371,30935,41180
62369,30930,41146
62366,30928,41107
62352,30920,41057
62316,30894,40991
62255,30851,40911
62173,30794,40821
62072,30720,40723
61946,30624,40612
61796,30513,40486
61631,30396,40349
61456,30275,40203
61276,30149,40048
61102,30027,39895
60940,29917,39751
60792,29819,39615
60656,29730,39485
60538,29654,39363
60441,29591,39256
60358,29536,39161
60281,29486,39072
60211,29442,38993
60149,29402,38918
60087,29355,38840
60022,29303,38759
59959,29251,38679
59899,29203,38599
59838,29152,38518
59774,29096,38434
59713,29042,38352
59655,28995,38279
59595,28953,38208
59540,28913,38136
59495,28879,38066
59458,28850,38001
59424,28821,37935
59389,28793,37870
59359,28768,37808
59334,28744,37752
59307,28718,37697
59271,28686,37644
59231,28654,37591
59190,28621,37534
59144,28583,37472
59093,28542,37414
59042,28503,37366
58983,28462,37317
58910,28411,37255
58830,28354,37182
58754,28297,37109
58680,28237,37038
58604,28173,36964
58532,28115,36891
58468,28068,36821
58408,28025,36753
58349,27982,36685
58296,27943,36622
58252,27912,36563
58211,27883,36502
58166,27850,36435
58115,27809,36367
58056,27761,36299
57986,27703,36223
57897,27636,36132
57790,27562,36032
57669,27480,35924
57532,27385,35807
57385,27279,35688
57239,27175,35579
57100,27079,35481
56970,26993,35397
56862,26926,35331
56797,26890,35296
56787,26898,35306
56836,26948,35367
56947,27043,35486
57123,27187,35673
57359,27384,35925
57655,27630,36236
58011,27916,36600
58427,28237,37016
58889,28585,37477
59385,28952,37969
59900,29329,38485
60429,29715,39024
60964,30104,39575
61489,30481,40122
61997,30840,40654
62486,31183,41161
62948,31505,41633
63376,31799,42064
63767,32066,42457
64124,32314,42815
64439,32537,43132
63399,32733,43404
58955,32903,43637
51378,33049,43837
42408,33172,44001
33269,33277,44127
24762,33364,44223
17348,33434,44296
11229,33487,44351
6429,33522,44389
2858,33545,44421
362,33562,44456
0,33577,44486
0,33586,44498
0,33591,44502
0,33591,44499
0,33585,44489
0,33578,44484
0,33569,44483
0,33556,44478
0,33543,44467
0,33533,44455
0,33528,44444
0,33529,44434
83,33534,44422
193,33539,44406
270,33542,44383
319,33542,44350
341,33536,44306
336,33521,44254
1626,33492,44196
6266,33447,44128
13984,33385,44045
23052,33314,43948
32253,33239,43844
40784,33158,43735
48185,33070,43620
54260,32978,43506
58988,32890,43399
62463,32806,43298
64846,32725,43206
801,32652,43128
1600,32592,43069
1890,32546,43030
1832,32513,43010
1566,32499,43014
1202,32507,43045
812,32536,43087
439,32575,43127
115,32623,43172
65392,32681,43229
65198,32743,43283
65050,32796,43325
64936,32837,43355
64848,32860,43366
64775,32857,43351
64701,32821,43311
64616,32760,43248
64517,32683,43171
64404,32593,43080
64279,32493,42978
64145,32388,42869
64009,32285,42757
63878,32185,42638
63756,32089,42512
63642,32002,42388
63537,31929,42278
63441,31866,42177
63349,31802,42077
63260,31738,41975
63171,31677,41874
63075,31612,41771
62965,31536,41662
62847,31454,41549
62718,31366,41430
62568,31266,41302
62403,31157,41164
62229,31043,41021
62052,30922,40876
61873,30798,40730
61697,30679,40586
61535,30567,40443
61391,30466,40307
61266,30375,40180
61162,30303,40066
61085,30250,39963
61025,30207,39865
60978,30171,39771
60948,30149,39693
60933,30138,39633
60922,30130,39584
60905,30118,39534
60884,30101,39482
60858,30080,39427
60823,30052,39369
60775,30013,39305
60715,29967,39238
60644,29913,39164
60562,29852,39083
60463,29780,38996
60356,29703,38908
60251,29630,38825
60154,29562,38746
60066,29500,38667
59986,29446,38595
59917,29403,38533
59857,29366,38472
59805,29329,38407
59764,29294,38345
59727,29259,38286
59683,29216,38220
59631,29168,38148
59575,29118,38071
59515,29061,37994
59442,28996,37915
59358,28928,37835
59276,28865,37751
59193,28806,37662
59106,28744,37570
59018,28682,37480
58932,28623,37398
58848,28569,37317
58764,28517,37229
58679,28460,37137
58594,28395,37045
58501,28321,36950
58397,28241,36849
58293,28165,36748
58198,28097,36655
58108,28032,36561
58017,27965,36462
57928,27902,36365
57849,27851,36279
57782,27812,36207
57730,27782,36151
57705,27770,36123
57723,27788,36138
57786,27838,36197
57891,27918,36303
58051,28040,36467
58267,28207,36687
58526,28407,36956
58824,28637,37271
59160,28896,37634
59533,29184,38042
59935,29491,38487
60361,29810,38958
60806,30140,39454
61260,30479,39965
61707,30814,40468
62136,31136,40953
62546,31442,41415
62931,31729,41848
63277,31988,42244
63581,32215,42596
63853,32418,42907
64092,32599,43180
64293,32753,43409
64461,32883,43598
64606,32993,43756
64728,33081,43884
64814,33138,43975
64868,33173,44037
64901,33198,44080
64912,33210,44103
64899,33204,44099
64874,33186,44077
64840,33163,44048
64799,33136,44015
64750,33105,43980
64701,33072,43947
64661,33047,43925
64633,33034,43915
64611,33027,43909
64595,33027,43908
64591,33038,43912
64598,33055,43920
64604,33072,43932
64604,33082,43940
64592,33080,43936
64561,33062,43915
64507,33025,43872
64436,32974,43810
64353,32916,43735
64255,32847,43646
64139,32763,43538
64016,32670,43417
63892,32579,43289
63776,32492,43159
63671,32412,43035
63577,32341,42920
63493,32278,42813
63418,32223,42711
63357,32176,42619
63312,32139,42545
63285,32116,42489
63268,32102,42445
63257,32095,42407
63254,32097,42386
63260,32107,42381
63269,32116,42384
63282,32130,42395
63304,32157,42425
63329,32190,42467
63353,32221,42508
63382,32249,42547
63424,32279,42588
63476,32313,42632
63530,32346,42676
63580,32376,42716
63628,32401,42747
63668,32422,42767
63689,32427,42770
63690,32419,42759
63679,32404,42738
63649,32378,42702
63593,32336,42650
63520,32284,42585
63446,32236,42511
63366,32188,42430
63277,32131,42340
63186,32066,42245
63098,31998,42147
63006,31926,42046
62911,31851,41942
62821,31779,41838
62741,31714,41738
62664,31651,41641
62587,31592,41543
62516,31539,41447
62445,31490,41355
62366,31438,41264
62281,31380,41168
62194,31317,41068
62108,31249,40961
62010,31168,40841
61899,31077,40711
61780,30985,40583
61655,30894,40460
61520,30798,40335
61376,30692,40205
61234,30589,40078
61099,30499,39958
60972,30419,39841
60860,30350,39737
60770,30292,39651
60693,30237,39574
60618,30182,39498
60547,30131,39423
60485,30086,39350
60430,30045,39276
60378,30007,39203
60326,29972,39136
60280,29940,39075
60236,29903,39011
60189,29858,38941
60142,29813,38872
60098,29776,38806
60054,29743,38741
60007,29709,38680
59959,29676,38627
59914,29650,38582
59866,29623,38535
59808,29586,38477
59746,29543,38415
59682,29500,38355
59614,29455,38292
59534,29403,38222
59441,29342,38149
59336,29270,38072
59221,29190,37985
59103,29108,37892
58988,29030,37798
58877,28954,37704
58770,28877,37605
58672,28800,37506
58584,28727,37412
58500,28658,37324
58414,28590,37233
58324,28520,37137
58235,28454,37041
58156,28394,36954
58081,28335,36870
58006,28275,36785
57937,28222,36705
57878,28179,36628
57829,28145,36553
57801,28123,36490
57803,28124,36457
57839,28149,36460
57914,28203,36497
58033,28289,36573
58199,28408,36700
58410,28560,36878
58664,28743,37106
58966,28961,37383
59310,29209,37710
59689,29481,38075
60095,29770,38474
60530,30081,38909
60994,30413,39379
61471,30751,39871
61949,31087,40373
62422,31424,40872
62884,31757,41359
63327,32081,41826
63747,32388,42270
64138,32674,42688
63181,32934,43077
58812,33164,43428
51293,33361,43735
42366,33525,43997
33256,33656,44212
24756,33752,44376
17336,33823,44497
11213,33880,44587
6415,33921,44653
2846,33944,44693
356,33954,44716
0,33965,44736
0,33979,44753
0,33997,44764
0,34021,44772
0,34050,44778
0,34076,44783
0,34096,44786
0,34110,44784
0,34120,44782
0,34130,44783
111,34132,44784
309,34121,44779
443,34099,44771
514,34068,44756
1837,34027,44728
6478,33973,44682
14180,33903,44614
23212,33815,44525
32353,33713,44421
40820,33606,44303
48168,33505,44179
54200,33405,44050
58892,33301,43910
62343,33202,43765
64721,33112,43627
677,33030,43497
1474,32956,43378
1765,32894,43272
1709,32844,43184
1425,32802,43112
1013,32764,43055
555,32737,43015
107,32722,42988
65232,32711,42975
64874,32701,42973
64579,32696,42978
64353,32693,42986
64187,32691,42988
64068,32689,42986
63989,32691,42990
63939,32693,42998
63901,32685,42996
63865,32661,42982
63833,32632,42959
63803,32599,42931
63768,32558,42896
63730,32513,42858
63698,32476,42826
63669,32443,42791
63632,32404,42740
63589,32360,42672
63540,32315,42595
63479,32265,42508
63401,32203,42408
63314,32133,42307
63224,32064,42212
63127,31997,42118
63023,31931,42019
62921,31867,41920
62828,31805,41823
62739,31745,41727
62645,31682,41627
62547,31616,41525
62448,31549,41420
62344,31476,41308
62228,31394,41185
62102,31306,41053
61976,31217,40918
61850,31127,40782
61724,31034,40647
61602,30946,40525
61485,30865,40414
61369,30785,40303
61258,30705,40188
61163,30633,40077
61083,30569,39971
61007,30507,39867
60930,30446,39766
60860,30392,39674
60804,30350,39598
60756,30310,39527
60710,30267,39453
60672,30229,39380
60642,30197,39312
60614,30167,39243
60588,30134,39172
60568,30105,39106
60548,30082,39047
60520,30054,38985
60486,30021,38918
60452,29986,38854
60421,29948,38795
60391,29911,38739
60363,29878,38688
60336,29852,38639
60309,29830,38588
60279,29811,38535
60248,29794,38486
60219,29780,38438
60189,29767,38391
60157,29749,38343
60126,29726,38294
60100,29703,38250
60074,29680,38210
60039,29654,38170
59997,29625,38127
59949,29588,38080
59885,29538,38018
59807,29474,37939
59722,29400,37849
59628,29322,37754
59526,29242,37655
59417,29161,37552
59308,29083,37447
59206,29009,37340
59112,28935,37227
59024,28865,37116
58945,28801,37011
58873,28740,36911
58805,28680,36812
58739,28620,36721
58677,28565,36639
58616,28514,36562
58549,28462,36484
58474,28404,36401
58397,28344,36322
58317,28284,36249
58234,28226,36179
58155,28175,36117
58094,28141,36070
58058,28128,36048
58054,28136,36054
58092,28172,36096
58183,28249,36187
58331,28367,36328
58535,28525,36519
58796,28726,36766
59119,28971,37076
59498,29255,37444
59919,29566,37860
60375,29901,38319
60862,30255,38814
61369,30621,39330
61884,30989,39854
62397,31352,40377
62901,31707,40893
63380,32043,41391
63824,32355,41861
62914,32644,42301
58600,32912,42708
51148,33159,43075
42293,33377,43398
33256,33564,43674
24834,33717,43907
17482,33839,44095
11407,33933,44239
6645,34006,44348
3111,34064,44435
653,34108,44501
0,34136,44548
0,34153,44581
0,34162,44602
0,34159,44610
0,34150,44609
0,34146,44609
0,34145,44609
0,34138,44600
0,34125,44587
0,34118,44580
151,34120,44580
378,34128,44582
559,34142,44590
702,34164,44609
809,34192,44635
881,34214,44656
921,34229,44669
938,34240,44674
937,34242,44666
915,34229,44641
870,34199,44600
808,34156,44544
728,34100,44468
628,34029,44372
516,33953,44267
1714,33871,44159
6274,33780,44044
13923,33680,43919
22932,33579,43786
32082,33480,43653
40580,33382,43522
47970,33287,43398
54056,33206,43294
58815,33141,43210
62337,33088,43136
64784,33052,43077
814,33032,43040
1691,33024,43023
2052,33019,43015
2052,33014,43013
1823,33009,43018
1468,33009,43027
1060,33012,43032
650,33018,43034
274,33026,43038
65481,33029,43043
65203,33025,43041
64973,33012,43030
64791,32997,43019
64649,32979,43002
64530,32948,42966
64425,32903,42909
64331,32851,42840
64242,32793,42763
64145,32722,42671
64042,32642,42569
63938,32562,42466
63832,32485,42364
63717,32404,42260
63594,32319,42152
63472,32234,42037
63350,32146,41914
63225,32055,41788
63103,31966,41663
62991,31885,41546
62885,31807,41428
62780,31725,41308
62677,31647,41193
62577,31576,41086
62476,31507,40980
62370,31433,40872
62259,31350,40759
62145,31264,40643
62024,31176,40525
61895,31088,40406
61758,30997,40284
61615,30900,40158
61465,30792,40025
61312,30680,39890
61167,30575,39761
61035,30483,39644
60912,30404,39532
60801,30337,39425
60706,30280,39327
60617,30225,39239
60529,30167,39149
60440,30107,39059
60353,30046,38969
60270,29985,38875
60186,29920,38775
60101,29853,38675
60019,29789,38583
59941,29729,38498
59869,29673,38419
59801,29621,38344
59736,29573,38275
59671,29524,38206
59602,29472,38131
59533,29421,38055
59473,29378,37985
59414,29336,37915
59347,29288,37844
59276,29238,37774
59201,29186,37704
59120,29129,37627
59034,29068,37544
58943,29000,37455
58848,28925,37364
58746,28845,37270
58630,28756,37169
58510,28669,37065
58399,28590,36966
58295,28513,36866
58195,28435,36770
58107,28366,36684
58029,28306,36601
57951,28246,36514
57866,28185,36422
57779,28125,36331
57695,28067,36242
57614,28013,36156
57532,27962,36071
57445,27911,35988
57351,27855,35904
57241,27785,35811
57118,27699,35705
56992,27607,35594
56866,27513,35480
56733,27414,35362
56598,27316,35243
56472,27228,35130
56361,27151,35023
56269,27086,34925
56206,27041,34847
56181,27022,34797
56196,27036,34784
56253,27085,34811
56359,27170,34883
56524,27297,35011
56740,27460,35196
57002,27653,35431
57317,27883,35718
57681,28155,36061
58079,28455,36452
58495,28767,36876
58923,29084,37324
59360,29407,37793
59798,29731,38271
60229,30046,38750
60652,30352,39227
61065,30652,39695
61462,30940,40142
61836,31211,40558
62191,31466,40946
62527,31705,41305
62838,31924,41627
63118,32119,41914
63368,32295,42173
63587,32452,42398
63767,32579,42583
63903,32674,42728
63999,32741,42838
64059,32782,42910
64084,32798,42949
64073,32796,42960
64033,32780,42948
63970,32751,42921
63889,32704,42881
63798,32645,42832
63707,32586,42787
63614,32531,42745
63514,32478,42699
63411,32429,42651
63316,32390,42605
63236,32358,42567
63168,32328,42535
63113,32301,42512
63072,32283,42504
63036,32266,42500
62994,32244,42488
62941,32216,42464
62876,32180,42426
62796,32129,42367
62700,32059,42284
62584,31974,42181
62454,31881,42066
62315,31786,41945
62167,31687,41814
62018,31585,41679
61875,31489,41552
61743,31400,41435
61624,31320,41323
61521,31256,41224
61434,31208,41140
61364,31172,41066
61309,31145,41002
61269,31129,40950
61248,31123,40913
61246,31127,40889
61260,31139,40878
61287,31160,40881
61322,31188,40899
61357,31214,40928
61390,31237,40961
61424,31262,40994
61454,31285,41020
61476,31297,41032
61493,31300,41038
61509,31304,41045
61523,31310,41050
61528,31310,41047
61527,31305,41036
61526,31299,41026
61523,31293,41016
61508,31279,40999
61482,31260,40971
61450,31240,40934
61406,31216,40891
61346,31183,40838
61275,31144,40780
61198,31103,40719
61110,31055,40647
61009,30995,40563
60906,30931,40473
60804,30865,40379
60697,30790,40273
60577,30703,40155
60450,30610,40029
60322,30519,39903
60193,30431,39778
60067,30345,39653
59950,30266,39532
59841,30191,39414
59742,30115,39298
59656,30042,39183
59585,29980,39076
59529,29933,38984
59481,29892,38901
59433,29847,38818
59387,29802,38736
59339,29763,38657
59285,29726,38579
59225,29690,38499
59164,29654,38419
59104,29614,38340
59036,29565,38257
58956,29505,38170
58874,29442,38089
58796,29384,38015
58718,29330,37942
58641,29282,37870
58571,29240,37803
58509,29200,37737
58454,29162,37667
58407,29128,37600
58368,29097,37542
58330,29063,37482
58287,29022,37416
58243,28979,37351
58200,28935,37288
58153,28888,37222
58098,28839,37157
58036,28792,37097
57975,28751,37042
57915,28709,36988
57850,28661,36930
57782,28612,36868
57720,28569,36805
57664,28529,36738
57610,28490,36670
57563,28452,36609
57523,28419,36553
57488,28388,36496
57451,28355,36432
57410,28319,36364
57363,28282,36296
57306,28240,36224
57236,28188,36147
57155,28127,36068
57064,28060,35982
56965,27988,35886
56863,27916,35787
56764,27847,35695
56665,27781,35609
56564,27717,35522
56460,27650,35429
56357,27580,35329
56259,27507,35226
56167,27438,35126
56093,27385,35038
56048,27355,34978
56034,27346,34952
56049,27359,34959
56100,27401,35000
56200,27479,35085
56354,27599,35224
56559,27756,35414
56811,27949,35652
57110,28171,35939
57448,28417,36271
57814,28682,36643
58204,28966,37050
58622,29269,37486
59061,29584,37943
59511,29905,38410
59964,30228,38880
60411,30545,39343
60842,30847,39783
61243,31123,40195
61612,31378,40580
61952,31614,40939
62256,31824,41260
62513,32001,41537
62724,32149,41769
62894,32271,41961
63024,32367,42116
63112,32438,42238
63164,32481,42326
63186,32503,42386
63182,32507,42419
63160,32497,42427
63133,32480,42421
63109,32465,42412
63086,32453,42400
63065,32444,42386
63054,32442,42373
63053,32448,42359
63052,32453,42345
63059,32461,42339
63083,32478,42345
63115,32500,42359
63141,32521,42372
63158,32536,42380
63166,32545,42384
63163,32543,42384
63141,32528,42372
63099,32502,42343
63039,32466,42298
62962,32414,42237
62868,32342,42153
62759,32260,42054
62644,32177,41949
62523,32094,41837
62393,32002,41712
62260,31904,41580
62130,31808,41450
62006,31720,41326
61889,31641,41209
61784,31571,41105
61695,31512,41016
61617,31460,40931
61549,31412,40852
61500,31379,40790
61477,31366,40752
61477,31367,40730
61491,31378,40723
61517,31402,40731
61559,31437,40753
61607,31475,40784
61652,31507,40814
61693,31536,40843
61728,31564,40870
61756,31587,40891
61773,31604,40907
61780,31616,40924
61781,31622,40945
61771,31622,40964
61747,31617,40976
61712,31606,40978
61671,31584,40961
61616,31546,40922
61544,31493,40866
61463,31436,40802
61382,31380,40731
61301,31321,40651
61219,31259,40562
61137,31197,40468
61055,31134,40371
60967,31068,40270
60870,31001,40168
60767,30934,40067
60659,30861,39962
60547,30781,39852
60435,30702,39741
60332,30630,39634
60234,30562,39529
60136,30494,39421
60036,30425,39314
59940,30357,39209
59851,30290,39105
59766,30226,39000
59682,30164,38895
59602,30104,38793
59522,30043,38693
59435,29971,38589
59342,29892,38485
59248,29815,38386
59151,29739,38285
59050,29660,38177
58949,29580,38069
58853,29504,37967
58761,29436,37869
58675,29374,37776
58593,29320,37692
58515,29269,37611
58444,29217,37530
58379,29164,37448
58319,29113,37369
58265,29072,37298
58212,29034,37231
58161,28996,37167
58115,28963,37108
58071,28936,37049
58018,28900,36983
57956,28851,36911
57892,28795,36839
57825,28739,36770
57751,28682,36699
57673,28623,36625
57596,28567,36551
57522,28513,36473
57452,28461,36392
57387,28414,36312
57324,28368,36234
57262,28321,36154
57198,28270,36068
57132,28213,35984
57061,28156,35908
56985,28097,35832
56904,28035,35749
56819,27973,35665
56734,27914,35590
56643,27853,35516
56546,27784,35431
56452,27713,35343
56359,27649,35259
56262,27584,35174
56162,27515,35083
56067,27447,34989
55979,27380,34898
55891,27310,34804
55800,27237,34705
55712,27167,34608
55625,27099,34516
55535,27030,34420
55435,26959,34319
55331,26887,34221
55230,26815,34128
55129,26743,34037
55035,26680,33956
54965,26636,33897
54924,26613,33862
54915,26612,33851
54949,26641,33876
55038,26709,33949
55179,26821,34080
55371,26975,34269
55618,27168,34511
55921,27397,34808
56272,27657,35159
56655,27939,35550
57061,28236,35972
57488,28547,36420
57929,28867,36884
58368,29187,37354
58793,29501,37822
59200,29805,38281
59586,30089,38718
59941,30344,39123
60262,30575,39496
60548,30782,39836
60792,30961,40134
60994,31108,40384
61162,31229,40594
61302,31331,40770
61419,31415,40918
61520,31490,41041
61616,31563,41144
61704,31631,41226
61778,31686,41288
61837,31731,41331
61894,31773,41363
61947,31812,41387
61990,31842,41400
62024,31862,41404
62055,31880,41406
62083,31896,41411
62100,31907,41417
62105,31911,41423
62112,31920,41433
62124,31934,41446
62139,31950,41460
62156,31964,41476
62179,31980,41495
62201,31997,41513
62208,32002,41515
62198,31993,41499
62181,31974,41471
62150,31941,41429
62098,31891,41371
62027,31832,41300
61942,31770,41223
61846,31706,41139
61740,31634,41041
61632,31557,40937
61530,31488,40840
61440,31428,40751
61356,31372,40661
61279,31321,40571
61210,31277,40491
61154,31237,40421
61105,31201,40353
61064,31169,40291
61026,31144,40241
60985,31120,40202
60941,31095,40169
60903,31072,40144
60883,31062,40132
60879,31067,40127
60882,31076,40125
60894,31088,40132
60918,31106,40149
60949,31128,40171
60983,31146,40191
61019,31164,40211
61056,31186,40235
61084,31207,40257
61096,31222,40271
61098,31229,40277
61089,31227,40274
61066,31212,40260
61031,31188,40234
60988,31158,40196
60937,31120,40146
60867,31066,40079
60778,31001,39996
60682,30931,39905
60580,30856,39806
60468,30773,39702
60349,30690,39596
60234,30616,39491
60127,30553,39392
60026,30494,39295
59936,30441,39203
59864,30397,39125
59808,30361,39053
59761,30325,38979
59723,30292,38904
59696,30266,38835
59676,30245,38768
59654,30221,38698
59630,30192,38628
59609,30166,38564
59590,30142,38505
59568,30117,38443
59547,30094,38380
59526,30072,38317
59501,30049,38252
59464,30016,38179
59422,29975,38104
59378,29932,38034
59326,29883,37959
59264,29830,37877
59201,29779,37797
59140,29729,37716
59078,29676,37632
59011,29623,37550
58940,29574,37473
58865,29524,37400
58780,29466,37324
58680,29393,37241
58568,29312,37154
58455,29230,37068
58346,29149,36981
58245,29072,36899
58154,29006,36825
58072,28949,36755
57994,28894,36685
57915,28836,36615
57841,28784,36553
57772,28740,36498
57700,28694,36439
57626,28644,36368
57562,28594,36295
57502,28543,36219
57437,28485,36136
57364,28421,36049
57282,28355,35964
57187,28283,35872
57076,28200,35771
56954,28113,35672
56832,28030,35580
56711,27951,35489
56588,27869,35389
56469,27786,35283
56355,27704,35177
56241,27620,35073
56127,27533,34972
56019,27452,34875
55920,27382,34781
55823,27314,34691
55717,27238,34602
55606,27160,34514
55497,27084,34423
55390,27004,34323
55277,26922,34211
55166,26846,34100
55064,26777,33994
54965,26708,33892
54861,26635,33791
54764,26565,33700
54688,26510,33630
54638,26472,33585
54614,26452,33565
54624,26459,33582
54680,26501,33647
54781,26575,33754
54921,26681,33906
55107,26831,34118
55342,27022,34385
55623,27245,34699
55942,27494,35054
56294,27770,35446
56674,28063,35862
57078,28367,36290
57496,28677,36730
57920,28992,37179
58336,29300,37622
58729,29587,38041
59096,29853,38434
59439,30101,38802
59751,30322,39134
60027,30509,39423
60271,30667,39674
60486,30801,39892
60664,30912,40075
60799,30998,40217
60899,31067,40328
60982,31130,40422
61050,31185,40501
61102,31229,40562
61143,31265,40608
61183,31298,40645
61222,31325,40670
61254,31346,40687
61280,31364,40698
61298,31375,40705
61308,31380,40712
61314,31382,40723
61319,31388,40736
61324,31397,40748
61324,31400,40749
61318,31394,40741
61310,31384,40730
61299,31379,40721
61275,31372,40704
61233,31353,40674
61181,31320,40632
61121,31281,40582
61043,31233,40517
60948,31172,40438
60846,31102,40352
60733,31026,40261
60605,30943,40158
60470,30854,40047
60337,30763,39935
60203,30670,39819
60066,30573,39696
59928,30471,39571
59793,30371,39451
59659,30273,39339
59519,30175,39233
59384,30081,39136
59255,29997,39049
59125,29918,38966
58998,29840,38882
58885,29772,38805
58788,29719,38742
58701,29675,38690
58622,29635,38642
58559,29603,38600
58517,29582,38567
58485,29567,38538
58454,29555,38509
58427,29548,38486
58402,29539,38469
58375,29524,38451
58340,29503,38433
58295,29478,38416
58244,29451,38398
58186,29417,38366
58114,29372,38318
58027,29323,38264
57931,29268,38202
57826,29204,38126
57713,29129,38035
57601,29050,37939
57492,28971,37839
57386,28893,37735
57289,28820,37632
57202,28756,37533
57124,28694,37432
57049,28631,37329
56978,28574,37231
56913,28526,37140
56850,28481,37047
56781,28432,36948
56706,28379,36847
56630,28325,36752
56550,28269,36660
56463,28203,36564
56369,28130,36463
56273,28057,36360
56171,27981,36253
56057,27895,36137
55933,27807,36016
55806,27721,35898
55681,27636,35783
55561,27554,35672
55448,27481,35568
55345,27417,35468
55245,27355,35363
55145,27288,35255
55049,27218,35150
54961,27150,35052
54879,27085,34958
54803,27026,34869
54739,26978,34794
54691,26946,34735
54652,26917,34682
54611,26885,34626
54569,26851,34570
54525,26815,34510
54475,26778,34444
54422,26743,34379
54371,26711,34319
54312,26675,34262
54241,26631,34202
54163,26583,34140
54089,26533,34075
54012,26481,34008
53928,26425,33935
53840,26363,33860
53753,26301,33788
53668,26242,33717
53583,26183,33641
53497,26125,33565
53412,26069,33495
53324,26014,33424
53236,25954,33351
53144,25888,33276
53049,25823,33202
52942,25753,33121
52817,25666,33022
52678,25564,32908
52531,25455,32787
52377,25341,32654
52217,25224,32514
52056,25111,32378
51898,25003,32251
51737,24894,32123
51573,24778,31986
51415,24661,31845
51271,24551,31707
51137,24443,31571
51004,24335,31431
50874,24231,31290
50750,24132,31151
50628,24034,31014
50507,23933,30880
50386,23837,30757
50266,23752,30647
50149,23678,30544
50040,23619,30455
49958,23587,30398
49914,23589,30384
49914,23627,30408
49970,23701,30474
50089,23814,30587
50269,23964,30753
50497,24150,30969
50766,24370,31234
51075,24621,31541
51417,24894,31884
51777,25179,32253
52149,25470,32648
52532,25768,33066
52915,26065,33492
53288,26347,33909
53651,26610,34314
54005,26865,34708
54341,27110,35087
54649,27336,35439
54931,27541,35762
55193,27730,36056
55433,27901,36319
55646,28051,36548
55832,28179,36744
55989,28288,36907
56113,28378,37039
56208,28450,37145
56278,28509,37231
56328,28558,37301
56361,28595,37349
56374,28614,37373
56371,28620,37379
56359,28620,37374
56338,28615,37360
56312,28605,37343
56290,28600,37332
56272,28603,37329
56254,28604,37324
56238,28601,37317
56233,28602,37317
56242,28612,37323
56257,28624,37328
56274,28634,37333
56295,28646,37339
56315,28656,37341
56324,28656,37331
56315,28641,37303
56291,28615,37262
56254,28580,37211
56201,28532,37144
56136,28474,37065
56069,28417,36987
56005,28368,36914
55940,28323,36839
55880,28282,36764
55835,28250,36698
55803,28224,36635
55779,28203,36578
55758,28193,36532
55746,28194,36500
55745,28201,36478
55751,28208,36458
55757,28214,36443
55760,28221,36433
55763,28225,36424
55764,28225,36418
55767,28230,36420
55770,28241,36427
55771,28250,36439
55767,28254,36456
55762,28260,36478
55759,28270,36504
55756,28276,36529
55752,28274,36552
55751,28271,36578
55756,28274,36606
55766,28278,36627
55776,28281,36639
55789,28290,36649
55806,28305,36654
55818,28320,36642
55817,28324,36614
55802,28317,36578
55773,28299,36532
55727,28267,36473
55672,28225,36406
55613,28180,36334
55548,28130,36256
55470,28072,36170
55379,28006,36080
55280,27938,35992
55177,27868,35901
55065,27793,35804
54944,27715,35703
54823,27635,35601
54700,27552,35495
54569,27465,35381
54436,27378,35265
54311,27298,35155
54194,27223,35047
54079,27148,34938
53971,27079,34837
53869,27019,34746
53774,26964,34656
53683,26911,34568
53601,26862,34486
53524,26815,34409
53446,26763,34328
53361,26702,34237
53273,26637,34147
53187,26576,34062
53102,26516,33971
53018,26457,33875
52944,26405,33786
52882,26366,33709
52826,26330,33637
52770,26293,33564
52721,26258,33495
52686,26232,33435
52660,26206,33378
52633,26182,33322
52611,26162,33272
52599,26146,33230
52588,26132,33193
52574,26121,33159
52556,26109,33123
52534,26090,33084
52497,26062,33039
52445,26025,32983
52388,25982,32920
52331,25938,32857
52275,25893,32794
52222,25850,32732
52177,25811,32674
52133,25770,32612
52086,25722,32545
52041,25678,32482
52008,25648,32428
51980,25626,32379
51946,25601,32327
51909,25575,32274
51876,25553,32222
51845,25533,32169
51812,25506,32110
51774,25472,32047
51735,25437,31982
51691,25397,31912
51641,25353,31838
51594,25313,31768
51558,25285,31713
51529,25264,31672
51502,25246,31644
51492,25241,31637
51513,25262,31656
51567,25312,31701
51658,25392,31779
51792,25503,31900
51968,25644,32068
52182,25813,32280
52435,26001,32527
52726,26211,32814
53048,26442,33139
53390,26687,33488
53752,26943,33858
54132,27213,34251
54514,27485,34656
54886,27748,35055
55242,27997,35439
55579,28233,35805
55895,28453,36149
56185,28652,36468
56449,28828,36758
56690,28989,37018
56906,29134,37249
57088,29258,37448
57241,29365,37623
57373,29462,37775
57480,29546,37900
57556,29608,37992
57605,29648,38057
57640,29676,38108
57666,29698,38146
57687,29710,38163
57707,29719,38168
57728,29730,38169
57748,29743,38169
57766,29753,38168
57787,29762,38162
57813,29773,38157
57840,29791,38157
57860,29809,38163
57874,29822,38171
57882,29831,38182
57876,29834,38186
57850,29825,38177
57800,29801,38156
57731,29760,38120
57648,29702,38063
57556,29627,37987
57461,29547,37903
57362,29467,37814
57262,29389,37718
57167,29314,37620
57086,29246,37526
57016,29184,37439
56949,29124,37351
56887,29068,37265
56832,29023,37184
56779,28985,37110
56721,28949,37041
56659,28911,36980
56593,28868,36926
56521,28816,36870
56442,28752,36811
56359,28686,36758
56277,28630,36717
56196,28583,36681
56116,28543,36647
56041,28513,36618
55978,28495,36599
55926,28483,36586
55882,28468,36573
55853,28454,36563
55840,28448,36562
55829,28448,36563
55814,28445,36556
55795,28443,36545
55781,28443,36530
55763,28434,36508
55732,28408,36476
55690,28370,36436
55642,28326,36389
55580,28273,36327
55501,28206,36252
55413,28134,36171
55323,28062,36088
55224,27987,36004
55113,27909,35916
54996,27831,35822
54880,27754,35724
54766,27679,35624
54649,27607,35518
54536,27542,35410
54426,27483,35300
54313,27417,35182
54197,27341,35059
54086,27264,34942
53985,27191,34834
53890,27117,34728
53798,27043,34625
53716,26979,34528
53644,26926,34438
53579,26879,34351
53522,26835,34271
53477,26800,34200
53440,26771,34138
53404,26741,34077
53366,26711,34014
53328,26681,33951
53289,26647,33886
53241,26607,33815
53183,26561,33739
53121,26513,33660
53052,26463,33579
52968,26403,33494
52873,26336,33406
52777,26271,33320
52680,26206,33234
52583,26140,33143
52496,26080,33053
52434,26040,32977
52394,26015,32915
52368,25997,32864
52352,25986,32826
52339,25976,32795
52318,25958,32761
52286,25931,32716
52247,25900,32665
52202,25867,32615
52146,25829,32561
52082,25788,32502
52023,25752,32448
51970,25721,32401
51912,25687,32351
51845,25650,32296
51781,25614,32241
51727,25582,32189
51678,25550,32136
51627,25515,32078
51577,25478,32018
51529,25444,31957
51481,25412,31892
51435,25381,31826
51399,25355,31766
51369,25331,31712
51333,25300,31654
51288,25264,31593
51238,25227,31534
51182,25183,31474
51118,25130,31407
51050,25071,31333
50979,25012,31258
50908,24956,31187
50841,24907,31119
50786,24867,31062
50746,24842,31029
50724,24830,31022
50730,24838,31047
50774,24878,31112
50859,24953,31221
50988,25062,31375
51161,25201,31569
51378,25370,31805
51646,25576,32086
51967,25819,32413
52335,26089,32778
52735,26381,33172
53161,26688,33591
53604,27005,34028
54053,27323,34472
54504,27639,34917
54950,27951,35353
55376,28249,35768
55770,28524,36155
56132,28776,36515
56457,29000,36840
56734,29190,37121
56961,29345,37361
57145,29469,37563
57290,29565,37729
57394,29635,37858
57459,29682,37950
57494,29710,38016
57507,29725,38059
57501,29726,38080
57486,29721,38091
57478,29723,38107
57482,29736,38128
57501,29757,38148
57533,29782,38165
57578,29811,38182
57632,29843,38202
57691,29872,38221
57753,29901,38242
57817,29934,38274
57879,29968,38312
57929,29995,38345
57967,30015,38376
58001,30037,38410
58023,30054,38439
58018,30056,38448
57989,30044,38436
57944,30023,38410
57886,29993,38370
57817,29949,38311
57746,29896,38240
57679,29841,38166
57609,29788,38093
57536,29736,38017
57471,29691,37941
57416,29652,37866
57365,29613,37794
57307,29571,37724
57243,29525,37659
57176,29478,37598
57109,29433,37539
57045,29390,37484
56991,29353,37442
56948,29321,37410
56915,29291,37377
56895,29268,37346
56893,29260,37330
56909,29265,37329
56938,29277,37336
56977,29294,37349
57024,29324,37373
57078,29365,37409
57130,29409,37451
57177,29452,37497
57225,29497,37547
57264,29533,37593
57281,29550,37620
57274,29549,37627
57249,29534,37618
57207,29507,37595
57143,29466,37555
57066,29415,37501
56984,29362,37441
56899,29303,37376
56809,29236,37302
56718,29170,37225
56629,29110,37150
56539,29048,37067
56446,28978,36966
56353,28903,36857
56264,28833,36750
56177,28765,36644
56085,28695,36533
55991,28620,36421
55899,28547,36316
55802,28474,36214
55691,28395,36110
55567,28310,36002
55437,28222,35892
55302,28131,35779
55161,28031,35663
55021,27931,35547
54890,27840,35438
54769,27759,35334
54658,27688,35232
54560,27624,35137
54474,27562,35045
54400,27501,34954
54340,27447,34873
54289,27401,34800
54240,27358,34729
54186,27314,34656
54128,27272,34582
54066,27232,34510
53999,27187,34436
53921,27129,34356
53835,27063,34270
53751,26999,34184
53673,26940,34101
53600,26885,34021
53532,26834,33944
53470,26785,33870
53413,26736,33799
53352,26683,33728
53292,26631,33660
53236,26587,33599
53180,26545,33540
53122,26504,33478
53066,26466,33416
53018,26432,33354
52976,26397,33291
52933,26357,33225
52889,26319,33160
52847,26288,33098
52808,26260,33040
52767,26230,32984
52724,26195,32930
52671,26147,32870
52600,26086,32798
52514,26019,32720
52423,25954,32642
52326,25888,32565
52223,25819,32484
52115,25747,32398
52010,25678,32310
51915,25615,32221
51828,25554,32130
51752,25497,32042
51688,25447,31961
51630,25402,31885
51571,25356,31805
51510,25307,31725
51442,25251,31645
51366,25190,31563
51280,25120,31477
51188,25044,31385
51095,24969,31290
51001,24894,31191
50905,24818,31087
50814,24745,30987
50740,24685,30908
50688,24647,30855
50664,24631,30823
50678,24643,30818
50742,24692,30854
50859,24779,30932
51027,24904,31053
51250,25074,31228
51532,25290,31466
51864,25544,31758
52231,25825,32092
52626,26125,32467
53043,26438,32880
53470,26747,33311
53900,27051,33749
54325,27354,34196
54740,27653,34646
55131,27936,35083
55491,28192,35494
55826,28426,35885
56139,28641,36250
56420,28832,36581
56668,29000,36879
56892,29153,37154
57096,29295,37402
57273,29416,37610
57424,29519,37781
57561,29616,37927
57687,29710,38050
57796,29793,38145
57890,29862,38217
57978,29925,38280
58058,29980,38338
58124,30021,38385
58173,30048,38420
58212,30068,38447
58238,30080,38464
58249,30085,38473
58249,30090,38482
58250,30096,38492
58249,30102,38498
58244,30101,38498
58238,30093,38496
58234,30082,38495
58231,30073,38496
58227,30065,38498
58223,30060,38499
58220,30058,38500
58212,30052,38496
58193,30034,38484
58163,30007,38462
58119,29970,38432
58052,29918,38383
57964,29853,38311
57867,29782,38226
57769,29710,38135
57671,29636,38035
57570,29560,37928
57466,29485,37820
57361,29411,37711
57256,29337,37597
57155,29264,37487
57071,29202,37395
57004,29153,37327
56947,29111,37275
56900,29077,37240
56872,29061,37224
56863,29061,37221
56871,29071,37227
56895,29096,37245
56935,29135,37273
56982,29179,37306
57028,29219,37338
57070,29252,37370
57115,29284,37408
57159,29314,37448
57190,29337,37477
57206,29352,37493
57209,29359,37499
57197,29359,37494
57166,29344,37476
57119,29314,37445
57067,29278,37412
57012,29243,37376
56945,29199,37327
56864,29143,37265
56775,29081,37196
56680,29015,37123
56579,28947,37042
56478,28881,36959
56382,28822,36878
56288,28759,36788
56192,28690,36687
56103,28619,36585
56022,28550,36485
55946,28483,36384
55873,28414,36281
55802,28349,36182
55734,28291,36093
55666,28239,36007
55595,28186,35914
55529,28136,35818
55463,28086,35723
55384,28026,35626
55290,27954,35529
55195,27883,35435
55099,27819,35343
54996,27752,35249
54886,27676,35150
54771,27596,35051
54651,27509,34948
54526,27416,34841
54404,27326,34739
54296,27247,34647
54203,27176,34559
54117,27111,34470
54040,27056,34385
53977,27011,34305
53925,26973,34226
53876,26935,34147
53832,26898,34071
53795,26864,34001
53763,26828,33934
53726,26789,33866
53683,26749,33799
53634,26710,33731
53579,26672,33659
53513,26627,33579
53433,26570,33492
53345,26504,33404
53250,26429,33317
53152,26347,33228
53056,26263,33139
52964,26183,33053
52878,26108,32973
52802,26038,32895
52737,25972,32821
52681,25916,32755
52630,25870,32693
52585,25832,32634
52548,25803,32577
52515,25781,32525
52476,25754,32467
52425,25713,32397
52362,25665,32323
52288,25613,32248
52199,25555,32168
52099,25490,32082
51991,25421,31995
51882,25347,31904
51766,25263,31804
51647,25175,31700
51532,25093,31602
51424,25019,31508
51320,24947,31414
51222,24878,31318
51135,24817,31225
51064,24762,31135
51005,24709,31044
50953,24658,30954
50904,24613,30873
50855,24569,30795
50797,24517,30712
50727,24456,30621
50646,24391,30527
50553,24321,30428
50443,24241,30317
50320,24153,30204
50188,24061,30094
50046,23962,29982
49900,23859,29866
49753,23756,29748
49607,23654,29630
49459,23551,29508
49309,23444,29380
49168,23341,29255
49054,23255,29146
48970,23191,29053
48919,23152,28984
48910,23146,28952
48950,23177,28962
49039,23242,29014
49180,23347,29114
49376,23492,29266
49619,23670,29468
49895,23867,29715
50198,24084,30001
50529,24327,30331
50889,24595,30705
51268,24873,31105
51656,25155,31518
52056,25444,31948
52468,25742,32393
52884,26039,32839
53293,26323,33271
53695,26599,33688
54081,26869,34093
54438,27121,34475
54761,27348,34824
55059,27550,35139
55330,27727,35420
55570,27879,35665
55777,28011,35876
55951,28123,36054
56090,28214,36200
56191,28285,36317
56257,28336,36406
56299,28369,36472
56321,28387,36517
56323,28388,36543
56308,28377,36556
56284,28361,36559
56256,28346,36554
56224,28329,36540
56199,28315,36525
56188,28312,36520
56190,28321,36523
56207,28342,36534
56239,28375,36554
56288,28414,36582
56346,28453,36611
56410,28489,36636
56475,28527,36661
56535,28563,36685
56575,28583,36701
56591,28584,36706
56584,28568,36702
56552,28537,36683
56491,28487,36639
56407,28424,36572
56312,28360,36493
56211,28295,36407
56107,28223,36314
56000,28145,36218
55897,28066,36128
55796,27989,36042
55696,27918,35955
55604,27857,35873
55531,27814,35803
55477,27789,35751
55439,27775,35713
55415,27768,35688
55408,27769,35676
55415,27778,35674
55431,27794,35680
55455,27818,35695
55489,27846,35720
55528,27879,35752
55566,27910,35784
55601,27935,35815
55633,27953,35844
55656,27966,35865
55672,27972,35873
55685,27976,35876
55699,27981,35882
55709,27981,35884
55706,27970,35874
55697,27955,35860
55689,27942,35846
55682,27930,35833
55673,27918,35819
55663,27907,35804
55646,27895,35783
55619,27875,35748
55585,27853,35703
55547,27831,35654
55502,27803,35598
55440,27755,35527
55358,27686,35442
55266,27608,35351
55168,27529,35260
55059,27446,35162
54938,27356,35054
54817,27265,34937
54702,27180,34819
54590,27096,34702
54477,27010,34583
54371,26929,34467
54277,26860,34359
54195,26802,34256
54122,26752,34160
54059,26712,34074
54005,26680,33995
53953,26646,33915
53908,26611,33836
53875,26578,33764
53843,26540,33694
53804,26496,33623
53764,26452,33556
53725,26412,33495
53681,26371,33431
53627,26324,33362
53563,26273,33288
53488,26217,33209
53402,26154,33123
53311,26086,33035
53223,26018,32952
53144,25955,32873
53067,25892,32790
52988,25828,32702
52914,25769,32619
52851,25717,32543
52789,25664,32469
52729,25614,32398
52676,25569,32335
52629,25526,32276
52581,25482,32216
52529,25437,32152
52479,25399,32093
52427,25364,32042
52369,25323,31984
52308,25278,31922
52254,25237,31863
52200,25199,31803
52139,25153,31734
52076,25100,31658
52018,25047,31584
51960,24995,31511
51894,24944,31441
51821,24896,31371
51757,24850,31301
51704,24803,31229
51657,24755,31156
51612,24709,31084
51566,24666,31017
51516,24623,30952
51462,24582,30886
51409,24545,30820
51362,24514,30759
51316,24481,30698
51263,24437,30628
51204,24383,30550
51145,24325,30474
51081,24262,30397
51002,24189,30312
50903,24107,30218
50791,24022,30122
50671,23935,30024
50542,23844,29916
50406,23750,29801
50268,23659,29689
50129,23566,29583
49991,23467,29473
49862,23371,29362
49750,23286,29257
49649,23206,29152
49559,23129,29045
49484,23060,28941
49421,22998,28841
49364,22939,28742
49310,22881,28641
49261,22830,28544
49210,22783,28451
49148,22733,28359
49080,22682,28272
49020,22637,28200
48975,22602,28141
48943,22576,28096
48930,22565,28066
48940,22574,28055
48971,22600,28065
49026,22642,28101
49113,22713,28172
49248,22822,28293
49428,22968,28461
49645,23138,28673
49901,23331,28932
50207,23553,29245
50553,23802,29604
50921,24065,29990
51307,24342,30400
51713,24637,30839
52132,24943,31293
52549,25244,31745
52957,25535,32189
53352,25815,32621
53725,26077,33028
54068,26317,33403
54387,26543,33754
54679,26753,34077
54933,26933,34358
55146,27079,34599
55330,27200,34810
55489,27304,34992
55623,27386,35143
55727,27447,35261
55808,27493,35355
55874,27532,35429
55933,27566,35483
55988,27593,35523
56042,27617,35553
56090,27639,35574
56128,27655,35582
56161,27669,35586
56192,27683,35595
56220,27695,35603
56237,27696,35597
56238,27689,35580
56234,27683,35564
56227,27680,35554
56210,27669,35543
56179,27648,35527
56142,27619,35510
