green_channel,red_channel,ir_channel
32739,47367,59525
33051,47407,59767
33336,47444,59988
33546,47470,60167
33758,47497,60347
33998,47531,60539
34181,47556,60692
34279,47567,60799
34385,47577,60910
34521,47591,61026
34596,47596,61095
34600,47591,61116
34623,47591,61147
34675,47598,61184
34666,47596,61175
34608,47586,61133
34592,47585,61114
34595,47589,61106
34523,47582,61058
34409,47570,60988
34361,47569,60949
34349,47573,60925
34273,47566,60869
34163,47556,60800
34111,47555,60763
34080,47553,60736
33986,47539,60676
33876,47521,60611
33841,47516,60585
33832,47516,60567
33766,47506,60518
33693,47496,60472
33694,47499,60466
33707,47504,60464
33652,47497,60429
33594,47491,60397
33603,47494,60399
33605,47494,60391
33532,47479,60345
33463,47466,60306
33462,47466,60298
33453,47466,60278
33378,47455,60227
33318,47447,60192
33325,47451,60190
33315,47452,60176
33249,47440,60135
33207,47432,60113
33220,47436,60118
33207,47438,60106
33145,47432,60074
33122,47431,60068
33154,47437,60088
33153,47437,60084
33110,47431,60060
33112,47431,60064
33159,47439,60091
33162,47438,60092
33126,47429,60076
33139,47428,60091
33182,47434,60119
33161,47429,60111
33102,47418,60083
33105,47419,60085
33138,47424,60098
33103,47418,60074
33039,47408,60038
33035,47411,60035
33047,47417,60037
32988,47410,59999
32902,47399,59951
32877,47399,59935
32863,47403,59921
32779,47394,59870
32677,47383,59812
32633,47383,59782
32596,47382,59749
32500,47367,59682
32409,47353,59617
32385,47352,59587
32357,47350,59550
32263,47337,59478
32178,47325,59411
32161,47324,59377
32132,47319,59335
32035,47304,59265
31954,47294,59209
31935,47296,59184
31895,47293,59146
31800,47282,59084
31736,47276,59038
31727,47277,59019
31682,47274,58986
31582,47262,58930
31515,47256,58895
31497,47258,58878
31441,47251,58836
31346,47237,58778
31298,47230,58748
31291,47228,58734
31233,47218,58691
31140,47200,58632
31107,47192,58606
31117,47190,58602
31070,47180,58573
30992,47168,58531
30980,47168,58520
31004,47176,58523
30968,47173,58496
30906,47162,58459
30904,47160,58452
30920,47162,58452
30869,47153,58418
30797,47141,58378
30788,47142,58371
30793,47148,58366
30735,47143,58329
30666,47134,58290
30657,47136,58283
30645,47137,58274
30566,47127,58231
30485,47115,58191
30468,47115,58184
30445,47114,58170
30359,47101,58125
30286,47089,58085
30277,47090,58071
30257,47089,58048
30176,47079,57998
30111,47073,57958
30101,47074,57943
30070,47068,57913
29988,47054,57860
29946,47049,57828
29971,47055,57829
29979,47057,57823
29951,47052,57808
29975,47055,57826
30068,47070,57882
30151,47084,57937
30221,47097,57997
30367,47123,58109
30584,47158,58261
30778,47185,58406
30959,47206,58554
31215,47238,58749
31517,47276,58973
31772,47302,59175
31999,47324,59369
32283,47356,59595
32580,47391,59825
32797,47414,60007
32975,47434,60166
33194,47463,60345
33403,47493,60511
33514,47505,60620
33581,47508,60700
33690,47519,60792
33791,47532,60864
33805,47532,60880
33788,47528,60881
33817,47534,60902
33829,47541,60904
33757,47535,60855
33674,47527,60800
33647,47528,60771
33600,47525,60728
33477,47508,60646
33362,47491,60574
33316,47487,60535
33259,47480,60484
33145,47462,60408
33053,47447,60351
33024,47442,60328
32976,47433,60294
32879,47418,60238
32819,47411,60205
32819,47414,60201
32793,47412,60178
32721,47403,60131
32688,47402,60105
32701,47408,60098
32670,47406,60065
32590,47395,60010
32551,47389,59982
32551,47387,59969
32495,47377,59924
32400,47363,59863
32362,47360,59835
32357,47363,59821
32292,47356,59775
32197,47344,59717
32165,47343,59692
32168,47347,59680
32117,47340,59639
32048,47331,59594
32042,47330,59585
32052,47331,59587
32002,47322,59562
31944,47313,59540
31955,47317,59553
31985,47325,59569
31961,47325,59555
31938,47326,59547
31980,47336,59573
32022,47344,59597
31999,47338,59586
31976,47332,59580
32013,47337,59604
32036,47339,59620
31993,47330,59605
31960,47325,59593
31991,47330,59603
32005,47332,59594
31951,47323,59552
31905,47316,59522
31907,47320,59518
31877,47319,59496
31792,47307,59445
31738,47301,59411
31732,47303,59399
31691,47296,59365
31604,47281,59307
31552,47274,59270
31543,47275,59250
31495,47269,59206
31413,47259,59150
31385,47257,59127
31396,47262,59122
31353,47258,59086
31277,47247,59035
31264,47246,59015
31287,47250,59010
31249,47244,58978
31176,47235,58935
31160,47236,58920
31167,47240,58913
31107,47235,58872
31027,47225,58823
31009,47225,58804
31006,47227,58791
30940,47219,58747
30859,47209,58697
30841,47211,58675
30829,47212,58654
30752,47201,58603
30668,47187,58556
30648,47182,58544
30628,47177,58530
30545,47162,58484
30470,47150,58443
30461,47152,58431
30445,47152,58411
30360,47141,58358
30283,47130,58312
30264,47126,58292
30225,47116,58259
30125,47096,58203
30049,47082,58162
30028,47080,58147
29982,47073,58116
29885,47060,58062
29825,47054,58028
29823,47058,58017
29788,47058,57988
29705,47051,57940
29656,47050,57914
29649,47055,57907
29604,47052,57875
29527,47044,57826
29507,47048,57807
29522,47057,57805
29472,47054,57772
29384,47043,57723
29355,47041,57701
29356,47041,57691
29294,47027,57653
29201,47008,57604
29166,47000,57583
29156,46998,57569
29088,46986,57528
29001,46973,57480
28972,46971,57457
28954,46974,57435
28870,46966,57381
28775,46954,57326
28741,46953,57300
28714,46951,57274
28629,46937,57222
28547,46924,57179
28543,46922,57178
28558,46921,57189
28536,46913,57188
28553,46911,57210
28671,46926,57284
28815,46946,57374
28926,46959,57457
29077,46979,57572
29313,47009,57733
29551,47035,57898
29750,47053,58054
29992,47078,58239
30300,47117,58460
30580,47151,58668
30803,47176,58851
31054,47208,59051
31345,47247,59267
31580,47276,59446
31746,47291,59588
31929,47312,59738
32123,47338,59884
32233,47351,59973
32277,47353,60021
32349,47361,60079
32423,47371,60131
32404,47368,60128
32330,47358,60090
32303,47355,60069
32298,47356,60052
32224,47348,59996
32114,47335,59922
32059,47330,59875
32019,47326,59835
31913,47312,59764
31793,47298,59689
31742,47296,59647
31709,47296,59610
31616,47287,59541
31520,47278,59474
31495,47280,59441
31478,47284,59412
31396,47274,59354
31313,47261,59301
31300,47259,59287
31287,47260,59271
31206,47249,59223
31130,47238,59181
31123,47238,59172
31108,47237,59157
31030,47227,59113
30966,47222,59080
30958,47226,59072
30925,47223,59044
30832,47208,58985
30768,47199,58942
30764,47201,58927
30738,47197,58896
30661,47186,58845
30621,47182,58816
30634,47187,58812
30616,47186,58790
30563,47177,58755
30554,47174,58752
30586,47177,58770
30572,47169,58764
30529,47157,58746
30544,47155,58764
30594,47162,58800
30591,47160,58808
30562,47155,58801
30598,47162,58823
30665,47173,58851
30668,47173,58844
30635,47169,58824
30654,47175,58837
30686,47184,58854
30653,47179,58837
30603,47169,58811
30610,47168,58810
30622,47169,58806
30566,47159,58767
30494,47149,58725
30478,47151,58711
30464,47153,58693
30380,47144,58642
30292,47137,58591
30263,47138,58568
30223,47135,58534
30114,47119,58466
30011,47105,58399
29974,47103,58359
29921,47098,58309
29803,47081,58231
29704,47066,58169
29664,47060,58136
29598,47051,58090
29480,47033,58020
29396,47020,57964
29368,47017,57930
29312,47011,57880
29212,46999,57813
29153,46994,57773
29145,46995,57755
29093,46988,57715
28992,46973,57658
28933,46968,57627
28914,46971,57612
28847,46966,57573
28750,46954,57518
28713,46953,57492
28714,46959,57480
28658,46955,57443
28573,46948,57392
28549,46952,57366
28552,46958,57349
28497,46951,57308
28420,46940,57262
28403,46939,57246
28404,46940,57238
28336,46930,57202
28248,46917,57163
28224,46914,57156
28217,46912,57154
28153,46899,57126
28088,46884,57099
28089,46879,57098
28092,46875,57092
28030,46861,57056
27968,46848,57023
27966,46847,57016
27955,46847,57001
27879,46837,56959
27814,46831,56925
27813,46838,56917
27801,46842,56899
27730,46834,56855
27673,46828,56821
27670,46827,56810
27638,46821,56786
27546,46806,56740
27483,46798,56710
27475,46800,56703
27436,46798,56679
27349,46790,56635
27304,46791,56611
27306,46802,56604
27267,46802,56574
27186,46793,56527
27152,46792,56505
27152,46793,56498
27098,46782,56467
27017,46764,56425
27000,46760,56413
27027,46766,56421
27012,46764,56413
26987,46757,56405
27048,46762,56441
27165,46774,56504
27250,46778,56557
27341,46784,56621
27526,46808,56735
27760,46837,56876
27958,46860,57008
28159,46885,57156
28433,46922,57345
28722,46960,57542
28951,46988,57715
29177,47018,57892
29462,47058,58100
29733,47094,58296
29922,47114,58446
30101,47129,58588
30327,47153,58750
30519,47173,58889
30617,47177,58976
30702,47180,59053
30825,47193,59134
30901,47203,59179
30887,47201,59177
30871,47200,59176
30890,47206,59187
30862,47205,59167
30764,47195,59109
30688,47191,59062
30658,47194,59033
30590,47191,58980
30473,47181,58903
30398,47177,58848
30369,47180,58814
30301,47170,58754
30197,47150,58678
30149,47141,58634
30142,47138,58612
30083,47125,58565
29991,47108,58507
29964,47104,58480
29969,47107,58465
29907,47099,58418
29810,47087,58362
29768,47088,58338
29748,47093,58320
29668,47084,58270
29568,47069,58211
29529,47065,58180
29508,47064,58154
29427,47051,58099
29333,47037,58046
29303,47035,58024
29288,47035,58003
29218,47024,57956
29153,47014,57917
29163,47018,57917
29180,47022,57917
29135,47012,57892
29099,47004,57878
29137,47009,57901
29173,47013,57923
29154,47008,57920
29157,47009,57929
29226,47021,57965
29278,47028,57986
29271,47026,57981
29287,47030,57992
29355,47042,58028
29392,47049,58049
29374,47045,58048
29383,47046,58066
29440,47057,58103
29460,47062,58117
29428,47060,58106
29428,47062,58113
29459,47069,58130
29435,47067,58113
29370,47058,58074
29352,47055,58060
29354,47056,58056
29285,47042,58018
29176,47021,57961
29127,47010,57930
29110,47005,57908
29033,46990,57855
28933,46973,57791
28896,46968,57757
28877,46968,57732
28794,46957,57676
28689,46943,57612
28643,46943,57574
28605,46944,57540
28499,46932,57475
28383,46919,57408
28336,46917,57372
28296,46915,57336
28192,46898,57270
28093,46883,57210
28060,46881,57179
28024,46880,57146
27926,46868,57087
27841,46860,57038
27826,46865,57016
27800,46865,56984
27711,46854,56928
27638,46846,56888
27624,46850,56876
27589,46848,56852
27492,46835,56802
27415,46826,56763
27394,46827,56748
27351,46823,56719
27258,46810,56667
27199,46802,56630
27195,46804,56614
27158,46800,56584
27081,46787,56541
27047,46781,56526
27054,46784,56527
27012,46778,56503
26932,46764,56462
26905,46761,56447
26914,46762,56447
26866,46752,56422
26787,46739,56384
26769,46738,56369
26787,46742,56366
26755,46735,56342
26701,46724,56313
26706,46724,56313
26729,46729,56317
26683,46723,56292
26614,46712,56260
26604,46712,56255
26605,46716,56251
26539,46708,56216
26459,46699,56178
26440,46701,56166
26426,46701,56152
26352,46688,56108
26279,46677,56068
26271,46679,56059
26263,46682,56050
26204,46676,56018
26171,46675,55998
26222,46687,56014
26286,46699,56036
26315,46701,56051
26385,46706,56095
26536,46721,56179
26693,46735,56269
26823,46744,56356
27006,46763,56474
27267,46796,56633
27517,46826,56792
27732,46850,56945
27995,46884,57131
28313,46930,57345
28593,46967,57537
28821,46994,57708
29081,47025,57901
29365,47062,58100
29577,47088,58254
29728,47105,58374
29905,47127,58503
30083,47151,58625
30168,47158,58696
30192,47154,58732
30250,47155,58776
30315,47160,58813
30299,47155,58803
30238,47146,58771
30219,47146,58759
30204,47148,58741
30113,47136,58682
30002,47118,58614
29956,47112,58576
29924,47108,58539
29826,47094,58467
29720,47079,58391
29681,47077,58348
29649,47078,58309
29557,47067,58242
29469,47056,58180
29449,47054,58152
29425,47051,58121
29341,47037,58065
29271,47026,58024
29265,47026,58015
29241,47020,57995
29152,47003,57947
29080,46992,57909
29068,46993,57893
29034,46989,57860
28943,46976,57803
28879,46969,57760
28871,46971,57740
28834,46968,57705
28749,46956,57655
28708,46953,57629
28722,46960,57625
28703,46962,57601
28650,46957,57567
28649,46960,57568
28690,46970,57591
28684,46970,57590
28650,46967,57575
28682,46975,57593
28756,46989,57630
28770,46990,57642
28749,46983,57642
28787,46984,57668
28854,46992,57703
28865,46989,57709
28853,46981,57710
28902,46985,57743
28967,46992,57781
28963,46988,57784
28940,46980,57779
28975,46982,57800
29016,46988,57820
28990,46987,57806
28954,46985,57788
28971,46992,57792
28976,46993,57787
28910,46982,57748
28845,46973,57710
28836,46973,57701
28806,46971,57680
28701,46960,57625
28604,46951,57575
28566,46952,57550
28511,46948,57508
28398,46935,57438
28306,46925,57380
28273,46925,57347
28217,46922,57299
28110,46908,57227
28033,46897,57172
28007,46895,57141
27950,46886,57092
27846,46872,57023
27776,46865,56973
27748,46864,56940
27674,46854,56886
27563,46837,56818
27506,46830,56780
27489,46830,56762
27417,46818,56717
27310,46800,56657
27266,46792,56626
27259,46790,56609
27192,46778,56566
27092,46760,56515
27056,46755,56494
27052,46755,56483
26989,46740,56443
26905,46721,56395
26882,46714,56373
26877,46714,56356
26810,46705,56316
26731,46696,56275
26719,46699,56264
26720,46703,56258
26663,46694,56226
26602,46683,56193
26603,46684,56188
26605,46683,56182
26547,46671,56152
26499,46664,56128
26520,46673,56133
26535,46681,56132
26484,46674,56106
26439,46669,56087
26457,46674,56091
26461,46677,56080
26407,46671,56044
26376,46670,56023
26398,46679,56028
26392,46682,56021
26333,46673,55994
26300,46669,55978
26311,46672,55978
26281,46666,55959
26203,46652,55921
26163,46648,55902
26162,46651,55895
26108,46642,55862
26006,46626,55813
25950,46619,55787
25928,46618,55773
25856,46606,55732
25763,46591,55681
25743,46591,55660
25763,46601,55653
25731,46599,55624
25681,46591,55593
25707,46591,55600
25781,46597,55627
25823,46595,55646
25880,46594,55683
26033,46612,55771
26234,46636,55886
26408,46654,55996
26606,46678,56128
26894,46716,56307
27212,46754,56503
27483,46784,56682
27765,46818,56871
28118,46866,57096
28462,46913,57319
28728,46948,57507
28984,46983,57694
29282,47024,57902
29539,47058,58081
29705,47076,58211
29860,47096,58335
30047,47122,58465
30183,47138,58558
30225,47139,58599
30260,47139,58634
30327,47147,58679
30340,47145,58692
30283,47132,58666
30245,47125,58650
30247,47126,58644
30203,47120,58608
30105,47107,58548
30040,47102,58508
30011,47101,58479
29931,47089,58421
29815,47072,58346
29757,47067,58301
29741,47066,58278
29673,47055,58231
29578,47042,58174
29545,47041,58147
29549,47046,58134
29498,47040,58095
29426,47029,58051
29421,47033,58042
29444,47042,58043
29405,47038,58012
29346,47030,57976
29345,47032,57970
29357,47034,57965
29305,47022,57926
29242,47008,57884
29242,47006,57873
29246,47006,57861
29182,46997,57818
29116,46987,57779
29111,46988,57771
29097,46988,57756
29020,46977,57711
28961,46969,57677
28972,46975,57677
28973,46980,57672
28917,46974,57643
28885,46971,57630
28922,46978,57648
28947,46981,57656
28920,46972,57640
28922,46970,57642
28984,46980,57671
29020,46985,57687
29005,46982,57685
29026,46985,57705
29098,46996,57744
29128,46998,57757
29106,46992,57748
29115,46990,57758
29153,46995,57779
29137,46991,57766
29080,46979,57735
29077,46979,57730
29110,46987,57737
29080,46984,57713
29009,46973,57672
28987,46972,57657
28986,46973,57649
28918,46961,57606
28816,46944,57550
28763,46939,57518
28723,46937,57488
28619,46923,57424
28500,46908,57358
28447,46906,57325
28407,46907,57295
28307,46899,57235
28207,46890,57175
28174,46891,57147
28146,46890,57116
28053,46874,57053
27959,46858,56990
27928,46853,56956
27888,46848,56917
27779,46831,56850
27682,46818,56789
27657,46816,56758
27626,46812,56719
27535,46797,56654
27461,46789,56607
27447,46791,56589
27414,46788,56562
27325,46775,56513
27263,46765,56481
27257,46764,56475
27224,46761,56455
27141,46752,56414
27096,46749,56388
27103,46754,56379
27072,46751,56351
26997,46742,56309
26966,46743,56291
26974,46747,56288
26930,46738,56259
26847,46723,56213
26819,46717,56195
26824,46717,56192
26769,46706,56163
26687,46692,56124
26669,46690,56112
26681,46691,56109
26634,46682,56077
26563,46668,56038
26557,46667,56028
26571,46670,56024
26514,46660,55991
26432,46647,55952
26410,46643,55942
26403,46640,55934
26338,46627,55898
26270,46617,55865
26263,46621,55861
26255,46626,55851
26184,46617,55811
26122,46610,55777
26130,46615,55772
26136,46617,55764
26078,46608,55730
26027,46602,55701
26034,46605,55699
26027,46607,55689
25958,46597,55654
25909,46592,55629
25916,46596,55626
25894,46592,55607
25809,46575,55566
25748,46561,55535
25737,46558,55521
25695,46550,55489
25607,46534,55437
25555,46526,55404
25549,46527,55390
25509,46523,55361
25437,46515,55320
25421,46518,55307
25456,46528,55318
25457,46529,55317
25446,46528,55316
25521,46540,55357
25664,46560,55432
25787,46571,55503
25917,46580,55586
26146,46604,55720
26439,46638,55888
26704,46670,56050
26974,46702,56224
27323,46749,56439
27698,46800,56669
28012,46840,56877
28310,46876,57085
28659,46920,57318
29005,46961,57542
29264,46988,57722
29485,47011,57886
29737,47042,58062
29960,47069,58215
30089,47080,58317
30197,47089,58407
30345,47107,58509
30450,47122,58580
30458,47122,58599
30457,47123,58609
30505,47134,58634
30520,47140,58632
30460,47131,58592
30410,47124,58560
30404,47127,58549
30359,47124,58515
30249,47109,58453
30167,47096,58406
30141,47090,58383
30082,47078,58340
29975,47058,58276
29909,47048,58235
29894,47047,58214
29842,47038,58172
29759,47024,58119
29740,47024,58103
29766,47033,58111
29734,47031,58093
29667,47019,58061
29666,47018,58055
29704,47026,58062
29683,47024,58040
29625,47015,58005
29619,47015,57997
29636,47017,57998
29589,47006,57970
29521,46992,57935
29512,46991,57928
29517,46991,57926
29458,46981,57891
29390,46974,57851
29387,46980,57841
29392,46986,57833
29336,46980,57795
29278,46971,57761
29286,46972,57760
29295,46971,57757
29242,46959,57724
29205,46951,57701
29246,46956,57714
29283,46960,57723
29259,46955,57710
29250,46954,57713
29307,46964,57748
29348,46971,57771
29330,46966,57767
29337,46966,57778
29401,46977,57813
29431,46983,57830
29401,46979,57820
29399,46980,57825
29442,46989,57844
29442,46990,57834
29387,46983,57801
29368,46983,57788
29385,46989,57786
29344,46982,57750
29256,46965,57691
29216,46959,57658
29211,46961,57645
29146,46952,57604
29044,46937,57548
29000,46931,57519
28987,46932,57499
28915,46922,57447
28811,46907,57384
28763,46899,57348
28739,46894,57321
28652,46881,57267
28545,46869,57206
28504,46869,57177
28480,46872,57152
28387,46863,57094
28282,46849,57032
28240,46844,56998
28204,46837,56962
28106,46819,56899
28017,46802,56842
27997,46803,56820
27972,46806,56794
27879,46797,56738
27793,46786,56691
27773,46787,56676
27746,46787,56655
27658,46776,56609
27588,46767,56576
27581,46768,56567
27560,46765,56544
27489,46751,56497
27443,46744,56465
27442,46747,56454
27403,46744,56428
27313,46730,56381
27261,46722,56355
27261,46722,56350
27226,46716,56327
27151,46703,56287
27125,46700,56270
27141,46704,56270
27112,46702,56249
27050,46695,56213
27046,46697,56202
27072,46706,56205
27035,46704,56184
26962,46695,56152
26950,46695,56145
26971,46699,56145
26936,46693,56118
26877,46683,56086
26874,46684,56083
26886,46690,56086
26836,46683,56059
26771,46673,56027
26765,46673,56021
26771,46675,56014
26713,46666,55982
26639,46655,55950
26624,46653,55944
26617,46651,55935
26550,46638,55897
26481,46624,55860
26478,46623,55850
26469,46623,55838
26392,46614,55798
26324,46608,55764
26325,46616,55758
26320,46621,55745
26257,46613,55707
26212,46605,55679
26222,46608,55673
26206,46604,55654
26131,46589,55612
26077,46579,55582
26070,46577,55570
26026,46571,55539
25932,46558,55487
25878,46553,55456
25880,46559,55450
25852,46560,55431
25798,46552,55407
25815,46553,55422
25898,46562,55468
25962,46565,55507
26030,46566,55553
26196,46583,55651
26435,46611,55787
26648,46631,55916
26862,46651,56056
27166,46689,56242
27518,46736,56455
27825,46774,56652
28122,46810,56852
28491,46859,57087
28881,46910,57330
29197,46949,57539
29480,46982,57737
29802,47022,57957
30105,47062,58163
30309,47089,58319
30478,47114,58456
30680,47146,58602
30852,47172,58719
30932,47182,58780
30988,47189,58826
31086,47202,58885
31147,47210,58919
31114,47201,58900
31069,47192,58872
31073,47191,58862
31050,47185,58832
30955,47167,58768
30873,47153,58715
30853,47151,58690
30812,47145,58648
30715,47129,58582
30650,47120,58535
30640,47122,58513
30592,47117,58471
30487,47104,58409
30421,47099,58373
30408,47103,58358
30359,47099,58320
30268,47088,58269
30225,47087,58248
30225,47094,58244
30174,47088,58212
30095,47076,58167
30082,47075,58152
30102,47079,58151
30057,47070,58123
29980,47055,58086
29966,47054,58080
29983,47060,58082
29933,47057,58050
29854,47051,58005
29834,47055,57988
29830,47058,57979
29760,47046,57943
29678,47027,57908
29667,47019,57907
29675,47015,57909
29624,47001,57878
29571,46987,57848
29591,46989,57851
29613,46992,57852
29572,46986,57825
29545,46983,57810
29589,46995,57835
29622,47005,57856
29590,47003,57847
29576,47006,57848
29632,47021,57879
29678,47032,57896
29666,47033,57884
29674,47035,57886
29730,47045,57913
29750,47047,57920
29711,47037,57901
29698,47032,57894
29731,47035,57904
29725,47034,57891
29661,47023,57851
29620,47018,57826
29610,47017,57813
29545,47005,57770
29431,46985,57704
29366,46975,57663
29339,46974,57636
29254,46963,57581
29133,46947,57514
29076,46945,57479
29053,46946,57460
28968,46933,57412
28851,46913,57351
28798,46903,57318
28777,46899,57292
28693,46884,57235
28585,46867,57170
28536,46863,57131
28500,46862,57097
28395,46851,57032
28281,46839,56965
28238,46837,56931
28205,46835,56901
28106,46818,56845
28005,46800,56792
27973,46796,56771
27946,46794,56750
27855,46781,56702
27772,46770,56658
27759,46772,56643
27738,46773,56622
27644,46760,56570
27561,46748,56525
27541,46746,56505
27502,46740,56474
27408,46726,56419
27347,46720,56382
27350,46723,56374
27328,46718,56354
27250,46703,56313
27207,46693,56291
27221,46693,56289
27199,46687,56268
27126,46673,56226
27092,46671,56206
27102,46680,56203
27065,46681,56176
26992,46673,56136
26976,46673,56128
26993,46678,56134
26948,46671,56111
26868,46657,56075
26852,46655,56068
26871,46658,56070
26832,46649,56045
26767,46635,56012
26764,46632,56005
26781,46634,56002
26734,46627,55968
26669,46619,55930
26668,46622,55925
26677,46629,55924
26620,46622,55895
26552,46612,55862
26548,46614,55853
26549,46616,55840
26485,46605,55797
26418,46596,55756
26416,46598,55747
26406,46596,55736
26325,46582,55694
26253,46570,55657
26244,46571,55647
26217,46569,55627
26124,46557,55583
26051,46550,55554
26047,46554,55555
26033,46555,55546
25974,46547,55517
25965,46546,55509
26042,46561,55540
26118,46573,55575
26170,46578,55610
26292,46593,55685
26501,46620,55804
26710,46645,55928
26909,46667,56057
27183,46703,56230
27524,46747,56437
27830,46784,56630
28108,46818,56816
28448,46862,57039
28822,46909,57280
29126,46941,57488
29382,46963,57675
29683,46996,57882
29994,47036,58084
30209,47062,58237
30359,47078,58360
30537,47100,58496
30703,47123,58616
30769,47131,58679
30789,47134,58713
30853,47146,58760
30908,47157,58792
30876,47153,58776
30819,47146,58749
30820,47147,58747
30819,47145,58734
30739,47130,58678
30650,47118,58619
30627,47119,58590
30596,47118,58555
30490,47103,58486
30393,47087,58424
30367,47084,58397
30328,47079,58363
30225,47065,58301
30149,47057,58255
30147,47063,58241
30128,47065,58216
30049,47056,58167
29996,47047,58138
30003,47047,58134
29976,47042,58109
29891,47031,58057
29842,47027,58027
29843,47033,58018
29806,47030,57986
29723,47019,57934
29690,47016,57910
29701,47019,57906
29657,47008,57875
29573,46990,57829
29553,46986,57814
29574,46994,57814
29538,46993,57788
29479,46986,57755
29494,46991,57756
29547,47004,57772
29542,47006,57761
29513,47002,57746
29548,47008,57768
29602,47016,57800
29591,47011,57805
29568,47004,57807
29620,47011,57844
29684,47020,57880
29678,47017,57879
29668,47014,57876
29729,47024,57907
29793,47033,57935
29785,47025,57931
29774,47016,57930
29825,47017,57961
29858,47017,57984
29809,47005,57968
29766,46996,57954
29792,47002,57967
29801,47008,57965
29741,47006,57930
29693,47007,57907
29694,47018,57905
29657,47021,57880
29554,47013,57824
29477,47008,57779
29454,47011,57751
29395,47005,57701
29281,46987,57628
29203,46974,57576
29175,46970,57546
29105,46960,57494
28989,46942,57429
28921,46935,57392
28893,46935,57370
28808,46926,57316
28687,46908,57241
28628,46902,57192
28609,46904,57159
28527,46894,57100
28412,46876,57031
28360,46868,56992
28341,46862,56963
28261,46845,56908
28160,46826,56849
28123,46817,56821
28104,46809,56798
28022,46791,56747
27928,46775,56699
27901,46776,56684
27888,46779,56674
27817,46772,56636
27745,46765,56598
27739,46767,56586
27735,46767,56572
27668,46755,56532
27608,46747,56500
27620,46754,56500
27624,46759,56493
27561,46749,56459
27509,46740,56432
27525,46741,56428
27526,46737,56413
27463,46723,56375
27419,46717,56351
27433,46724,56353
27419,46727,56340
27347,46719,56303
27309,46718,56282
27326,46725,56284
27308,46724,56268
27240,46715,56235
27210,46714,56223
27223,46718,56228
27187,46713,56208
27111,46703,56173
27089,46702,56165
27106,46706,56171
27060,46697,56145
26976,46681,56099
26952,46679,56079
26967,46681,56071
26927,46673,56040
26860,46660,56004
26849,46659,55997
26854,46664,55992
26790,46658,55956
26710,46650,55917
26706,46653,55914
26731,46659,55922
26710,46654,55910
26700,46650,55913
26785,46660,55962
26910,46676,56029
27000,46686,56086
27125,46702,56171
27358,46734,56311
27617,46770,56467
27828,46795,56610
28072,46825,56780
28412,46870,56999
28748,46915,57220
29011,46946,57413
29285,46978,57615
29622,47018,57842
29928,47051,58046
30157,47072,58211
30397,47100,58383
30678,47134,58572
30898,47157,58724
31022,47166,58826
31148,47180,58925
31302,47199,59023
31384,47207,59071
31383,47203,59075
31400,47203,59089
31442,47206,59108
31415,47198,59082
31331,47186,59025
31298,47186,58992
31306,47193,58976
31248,47187,58928
31148,47175,58862
31119,47175,58830
31132,47182,58816
31081,47179,58771
31002,47172,58712
30994,47174,58686
31009,47180,58673
30950,47172,58631
30867,47159,58584
30854,47159,58571
30860,47160,58562
30793,47148,58519
30709,47133,58469
30689,47128,58451
30674,47125,58430
30588,47111,58374
30502,47098,58322
30486,47098,58304
30462,47098,58281
30368,47087,58224
30289,47077,58176
30290,47081,58165
30288,47082,58150
30220,47074,58105
30175,47069,58077
30208,47075,58082
30228,47077,58079
30190,47068,58054
30185,47065,58049
30247,47074,58075
30283,47079,58088
30261,47074,58078
30271,47075,58090
30333,47084,58127
30359,47083,58144
30340,47073,58145
30370,47076,58179
30445,47089,58232
30473,47095,58253
30468,47093,58254
30519,47100,58286
30598,47112,58329
30594,47108,58330
30536,47093,58306
30533,47089,58305
30560,47093,58309
30523,47088,58278
30457,47079,58234
30452,47082,58221
30463,47089,58214
30402,47083,58174
30311,47073,58124
30278,47071,58100
30254,47068,58077
30160,47051,58019
30050,47032,57958
30004,47027,57927
29964,47023,57894
29855,47007,57828
29740,46992,57766
29693,46990,57738
29644,46988,57704
29526,46974,57639
29416,46963,57579
29372,46963,57543
29314,46959,57493
29191,46943,57414
29089,46931,57349
29052,46930,57311
28992,46923,57260
28872,46904,57185
28787,46890,57129
28767,46884,57099
28719,46873,57054
28618,46853,56988
28555,46844,56946
28550,46846,56928
28506,46843,56888
28413,46832,56827
28361,46830,56792
28348,46833,56777
28280,46824,56735
28179,46810,56679
28144,46807,56655
28150,46811,56650
28092,46804,56617
27999,46789,56573
27973,46787,56560
27984,46793,56559
27933,46787,56527
27849,46776,56484
27825,46774,56466
27821,46776,56450
27745,46765,56404
27648,46753,56356
27620,46754,56343
27610,46756,56333
27532,46745,56294
27442,46731,56251
27415,46728,56233
27391,46724,56212
27296,46709,56161
27202,46699,56116
27178,46701,56102
27147,46699,56085
27049,46685,56038
26966,46672,55999
26962,46672,55989
26954,46670,55971
26879,46659,55930
26819,46654,55904
26823,46661,55904
26804,46666,55887
26724,46660,55843
26671,46657,55816
26680,46661,55813
26667,46659,55795
26613,46650,55766
26617,46653,55774
26700,46668,55818
26776,46678,55856
26849,46684,55900
27012,46705,55997
27253,46738,56136
27475,46765,56268
27694,46787,56407
28006,46821,56597
28375,46864,56820
28690,46897,57027
28983,46925,57230
29352,46965,57471
29750,47011,57722
30067,47046,57935
30337,47076,58130
30654,47114,58351
30964,47150,58565
31168,47170,58726
31326,47185,58863
31533,47210,59017
31725,47234,59149
31815,47242,59221
31873,47248,59276
31982,47265,59351
32068,47277,59405
32063,47273,59403
32052,47271,59393
32109,47280,59410
32151,47283,59415
32111,47270,59380
32075,47258,59349
32110,47260,59352
32132,47261,59341
32082,47252,59294
32048,47248,59258
32070,47254,59247
32052,47253,59214
31965,47242,59151
31911,47237,59110
31920,47244,59097
31894,47245,59063
31813,47235,59009
31777,47230,58985
31800,47235,58986
31776,47233,58960
31701,47221,58913
31678,47216,58896
31699,47218,58897
31655,47207,58860
31562,47190,58803
31534,47185,58780
31551,47189,58775
31502,47184,58736
31416,47174,58684
31398,47175,58666
31415,47179,58660
31362,47171,58618
31283,47160,58572
31278,47163,58569
31304,47172,58580
31269,47170,58560
31226,47168,58539
31256,47178,58553
31299,47186,58570
31273,47181,58557
31237,47174,58548
31269,47181,58577
31302,47188,58602
31266,47182,58591
31236,47178,58585
31276,47187,58609
31298,47194,58618
31239,47187,58589
31190,47180,58569
31211,47183,58580
31211,47182,58576
31143,47170,58539
31097,47163,58518
31111,47166,58524
31088,47164,58510
31000,47152,58468
30940,47146,58439
30927,47149,58425
30867,47146,58380
30752,47134,58309
30679,47129,58264
30652,47131,58239
30571,47123,58184
30447,47107,58108
30381,47101,58064
30354,47101,58037
30259,47087,57976
30124,47065,57895
30055,47056,57842
30019,47052,57801
29909,47036,57728
29761,47012,57645
29675,47001,57595
29614,46995,57557
29490,46978,57489
29354,46958,57418
29297,46953,57382
29262,46955,57352
29156,46944,57286
29034,46930,57215
28983,46925,57177
28942,46922,57143
28833,46912,57081
28727,46906,57024
28700,46911,57003
28670,46911,56981
28564,46895,56926
28466,46879,56873
28449,46878,56851
28428,46875,56823
28336,46858,56766
28261,46845,56722
28263,46846,56710
28252,46843,56687
28181,46829,56639
28140,46824,56610
28163,46830,56609
28155,46829,56595
28087,46815,56561
28056,46809,56549
28083,46810,56558
28069,46802,56545
28002,46787,56509
27981,46783,56495
28006,46789,56498
27977,46785,56474
27903,46772,56433
27885,46772,56423
27903,46780,56426
27851,46775,56398
27760,46761,56354
27738,46759,56342
27759,46764,56341
27718,46758,56309
27648,46748,56267
27650,46751,56256
27683,46756,56254
27651,46748,56227
27601,46738,56199
27627,46743,56204
27677,46750,56216
27667,46743,56203
27663,46735,56199
27751,46742,56238
27870,46756,56293
27957,46765,56340
28086,46781,56417
28329,46816,56553
28601,46853,56707
28836,46881,56853
29115,46915,57031
29498,46965,57266
29886,47015,57506
30205,47053,57723
30542,47093,57959
30949,47143,58229
31324,47188,58477
31614,47219,58683
31915,47251,58896
32255,47289,59124
32526,47317,59311
32700,47331,59448
32876,47347,59581
33073,47371,59709
33192,47383,59786
33222,47380,59821
33271,47385,59868
33340,47399,59917
33328,47398,59911
33253,47384,59869
33230,47380,59852
33236,47384,59843
33160,47376,59787
33038,47361,59707
32982,47360,59659
32962,47363,59626
32876,47355,59560
32764,47341,59486
32727,47336,59446
32713,47333,59417
32624,47317,59355
32520,47298,59290
32496,47293,59262
32490,47293,59240
32413,47284,59185
32328,47275,59134
32321,47280,59123
32321,47285,59114
32246,47276,59068
32168,47266,59027
32160,47267,59021
32144,47263,59009
32050,47245,58959
31964,47229,58915
31950,47228,58900
31917,47226,58870
31808,47213,58807
31720,47204,58757
31696,47209,58738
31641,47206,58700
31520,47190,58634
31441,47180,58592
31433,47180,58581
31399,47174,58554
31312,47159,58505
31271,47152,58484
31290,47154,58488
31269,47149,58469
31207,47140,58436
31205,47143,58441
31255,47155,58468
31254,47157,58465
31215,47151,58445
31247,47159,58460
31318,47174,58493
31314,47177,58493
31268,47173,58479
31289,47180,58495
31338,47192,58521
31311,47189,58507
31250,47180,58478
31255,47183,58481
31279,47187,58490
31222,47175,58460
31134,47161,58418
31111,47158,58406
31096,47155,58392
30997,47139,58334
30881,47124,58269
30835,47121,58233
30784,47113,58188
30652,47091,58103
30520,47072,58022
30463,47070,57976
30399,47069,57928
30262,47054,57847
30142,47041,57775
30102,47039,57733
30046,47032,57678
29914,47012,57594
29803,46997,57526
29758,46993,57492
29682,46984,57442
29543,46965,57363
29443,46953,57305
29407,46952,57273
29337,46945,57222
29220,46929,57151
29156,46922,57109
29148,46925,57088
29091,46918,57044
28984,46902,56985
28932,46897,56958
28927,46899,56949
28863,46888,56910
28761,46871,56854
28733,46867,56833
28754,46871,56832
28714,46865,56804
28640,46852,56762
28634,46850,56746
28660,46853,56739
28616,46844,56700
28544,46833,56654
28539,46834,56641
28552,46839,56637
28490,46832,56607
28415,46824,56577
28418,46827,56579
28432,46832,56579
28368,46824,56543
28300,46816,56511
28307,46819,56513
28314,46821,56509
28247,46809,56470
28189,46796,56434
28213,46794,56431
28224,46789,56420
28152,46771,56377
28089,46756,56345
28100,46755,56342
28097,46753,56330
28027,46738,56293
27991,46731,56275
28038,46739,56292
28073,46746,56305
28062,46745,56302
28110,46754,56332
28254,46776,56403
28393,46795,56476
28510,46808,56552
28706,46834,56677
28991,46871,56845
29262,46903,57008
29518,46930,57176
29855,46971,57398
30251,47021,57653
30589,47056,57881
30892,47087,58094
31262,47132,58338
31651,47182,58588
31945,47215,58792
32183,47241,58971
32469,47277,59172
32755,47315,59364
32933,47336,59496
33047,47349,59595
33198,47371,59705
33336,47390,59796
33369,47391,59824
33362,47387,59828
33403,47393,59854
33430,47397,59866
33364,47386,59826
33278,47374,59778
33250,47373,59760
33206,47369,59728
33080,47351,59648
32964,47338,59573
32927,47338,59530
32876,47334,59475
32748,47314,59386
32641,47295,59318
32618,47289,59289
32580,47284,59246
32479,47270,59173
32420,47263,59126
32439,47269,59121
32423,47270,59105
32341,47261,59060
32291,47256,59035
32292,47257,59032
32240,47248,58999
32129,47232,58940
32070,47228,58908
32062,47233,58890
31996,47226,58836
31881,47211,58759
31828,47209,58720
31822,47217,58704
31750,47210,58655
31637,47194,58590
31599,47187,58562
31601,47185,58551
31529,47171,58506
31431,47152,58451
31415,47147,58438
31434,47146,58441
31392,47134,58415
31340,47122,58390
31373,47127,58409
31426,47135,58436
31397,47127,58428
31348,47116,58418
31372,47119,58443
31405,47124,58464
31368,47117,58448
31338,47113,58443
31387,47124,58479
31425,47133,58501
31379,47126,58479
31345,47120,58464
31396,47130,58486
31427,47139,58495
31368,47135,58465
31325,47134,58447
31353,47145,58457
31347,47148,58442
31259,47135,58389
31192,47121,58350
31178,47114,58335
31118,47103,58298
30993,47083,58233
30910,47074,58190
30885,47078,58169
30807,47075,58116
30668,47062,58034
30582,47057,57978
30554,47058,57944
30472,47048,57875
30347,47028,57788
30291,47020,57739
30275,47021,57711
30185,47010,57649
30055,46994,57574
30002,46990,57535
29988,46990,57510
29898,46976,57449
29775,46956,57376
29724,46948,57338
29697,46942,57310
29592,46923,57248
29467,46902,57179
29420,46895,57147
29393,46891,57124
29292,46878,57070
29186,46866,57016
29164,46869,56997
29151,46870,56977
29061,46858,56921
28973,46847,56871
28965,46851,56861
28948,46850,56843
28846,46833,56787
28756,46818,56739
28752,46821,56726
28736,46821,56703
28640,46808,56651
28565,46799,56612
28563,46804,56605
28532,46804,56583
28434,46793,56536
28378,46789,56508
28392,46798,56509
28370,46798,56489
28288,46786,56445
28253,46781,56426
28271,46784,56428
28237,46777,56403
28153,46761,56359
28131,46757,56348
28167,46763,56359
28153,46760,56342
28113,46754,56317
28165,46767,56337
28283,46789,56390
28356,46797,56429
28423,46801,56480
28602,46822,56589
28852,46854,56736
29065,46875,56874
29286,46894,57026
29616,46931,57236
29992,46977,57469
30300,47012,57676
30597,47043,57887
30981,47087,58142
31379,47133,58401
31685,47162,58613
31959,47190,58814
32286,47230,59043
32590,47265,59250
32782,47283,59394
32949,47303,59523
33168,47336,59674
33341,47361,59792
33394,47367,59845
33433,47373,59884
33530,47390,59940
33587,47398,59964
33546,47387,59933
33510,47377,59904
33532,47379,59899
33513,47376,59871
33418,47365,59808
33357,47361,59765
33361,47366,59752
33324,47360,59713
33226,47342,59646
33175,47332,59609
33181,47336,59597
33132,47331,59553
33032,47317,59488
32989,47313,59460
32991,47318,59454
32928,47311,59408
32824,47295,59340
32803,47292,59313
32831,47297,59308
32785,47290,59269
32698,47280,59214
32682,47282,59197
32694,47286,59186
32624,47274,59132
32521,47258,59067
32496,47257,59041
32495,47262,59024
32422,47252,58974
32342,47239,58928
32350,47239,58930
32378,47241,58943
32338,47230,58924
32299,47220,58909
32347,47227,58936
32402,47236,58959
32384,47234,58947
32388,47236,58948
32481,47251,58993
32563,47262,59032
32562,47259,59038
32581,47259,59062
32684,47272,59126
32768,47282,59174
32775,47281,59188
32800,47284,59219
32888,47299,59280
32936,47307,59318
32911,47302,59317
32919,47301,59329
32984,47308,59361
32994,47304,59358
32928,47287,59324
32900,47279,59312
32917,47282,59314
32870,47276,59277
32764,47260,59216
32714,47253,59190
32704,47255,59180
32616,47246,59128
32482,47229,59051
32424,47226,59008
32409,47231,58981
32320,47223,58918
32192,47207,58837
32134,47205,58788
32106,47209,58747
32000,47202,58667
31867,47189,58580
31811,47189,58533
31773,47193,58495
31653,47180,58420
31520,47162,58344
31467,47156,58305
31423,47151,58267
31298,47133,58191
31168,47114,58116
31117,47109,58080
31070,47104,58043
30949,47085,57972
30842,47071,57911
30824,47073,57892
30797,47070,57866
30693,47053,57807
30610,47041,57760
30613,47044,57746
30598,47043,57718
30511,47026,57660
30447,47014,57619
30445,47012,57609
30401,47003,57577
30287,46983,57515
30214,46972,57473
30208,46973,57459
30163,46969,57424
30068,46958,57373
30031,46958,57354
30051,46968,57358
30018,46965,57332
29942,46953,57290
29932,46952,57286
29961,46959,57299
29914,46953,57272
29826,46940,57227
29820,46938,57220
29857,46940,57229
29820,46929,57204
29755,46918,57172
29775,46925,57181
29841,46940,57207
29849,46943,57208
29858,46944,57217
29977,46962,57283
30147,46985,57378
30273,46995,57464
30427,47009,57577
30706,47044,57756
31036,47087,57959
31322,47119,58147
31636,47155,58364
32057,47210,58648
32489,47265,58942
32841,47305,59202
33201,47346,59475
33634,47398,59785
34025,47444,60070
34304,47471,60294
34574,47498,60512
34896,47536,60746
35157,47565,60933
35306,47576,61053
35455,47590,61169
35645,47617,61299
35773,47634,61383
35809,47636,61415
35860,47641,61458
35953,47655,61517
35984,47658,61531
35939,47647,61503
35929,47642,61497
35961,47645,61505
35927,47640,61465
35842,47628,61396
35821,47628,61365
35839,47634,61356
35783,47627,61309
35693,47614,61247
35683,47616,61227
35711,47625,61219
35662,47620,61168
35582,47609,61110
35586,47611,61101
35622,47615,61106
35580,47608,61067
35512,47599,61020
35516,47602,61014
35533,47608,61012
35480,47601,60970
35426,47591,60927
35454,47595,60927
35486,47600,60924
35439,47589,60883
35390,47575,60852
35413,47572,60862
35426,47568,60859
35361,47552,60813
35307,47539,60776
35331,47544,60781
35345,47551,60781
35290,47548,60751
35261,47550,60742
35310,47564,60775
35342,47573,60793
35313,47570,60779
35326,47572,60788
35410,47583,60830
35456,47587,60848
35435,47584,60839
35453,47590,60861
35529,47606,60913
35560,47610,60935
35535,47604,60931
35560,47607,60959
35632,47617,61006
35645,47617,61008
35608,47608,60980
35625,47608,60980
35670,47615,60994
35634,47610,60965
35547,47598,60914
35529,47598,60899
35543,47603,60892
35478,47594,60836
35374,47578,60761
35338,47574,60726
35323,47572,60699
35228,47557,60632
35107,47540,60554
35055,47536,60510
35012,47532,60467
34896,47515,60387
34777,47499,60311
34731,47495,60273
34687,47491,60231
34565,47473,60147
34448,47457,60067
34407,47456,60024
34356,47453,59970
34223,47433,59878
34103,47414,59797
34062,47409,59752
34007,47402,59695
33878,47385,59608
33776,47373,59543
33749,47374,59514
33697,47370,59470
33584,47355,59399
33511,47347,59350
33508,47349,59335
33470,47341,59301
33371,47321,59242
33314,47310,59206
33316,47311,59192
33277,47305,59150
33189,47290,59091
33158,47286,59067
33177,47294,59065
33132,47292,59034
33041,47279,58986
33020,47276,58974
33042,47281,58982
32995,47276,58954
32915,47264,58912
32909,47264,58905
32940,47270,58910
32907,47265,58882
32854,47257,58847
32875,47263,58850
32916,47273,58860
32880,47270,58830
32829,47265,58796
32854,47273,58798
32883,47280,58801
32827,47271,58765
32761,47257,58727
32774,47255,58728
32790,47256,58732
32735,47243,58700
32699,47233,58679
32766,47239,58711
32853,47246,58757
32898,47247,58792
32997,47260,58863
33218,47293,58999
33467,47329,59156
33692,47357,59318
33983,47394,59529
34374,47446,59800
34760,47493,60073
35097,47526,60334
35484,47566,60636
35937,47619,60977
36342,47665,61289
36674,47698,61563
37029,47736,61854
37408,47779,62153
37704,47809,62393
37913,47829,62583
38145,47856,62786
38388,47886,62985
38528,47901,63112
38586,47905,63180
38679,47919,63258
38777,47935,63326
38772,47934,63325
38707,47923,63287
38697,47924,63278
38705,47928,63268
38626,47916,63203
38515,47897,63125
38476,47890,63091
38456,47887,63060
38359,47874,62983
38244,47860,62900
38200,47858,62856
38165,47856,62814
38063,47841,62733
37967,47829,62663
37959,47830,62644
37961,47829,62628
37897,47814,62574
37845,47801,62533
37876,47802,62539
37899,47804,62536
37844,47794,62495
37807,47787,62470
37854,47796,62487
37887,47802,62488
37841,47795,62447
37808,47790,62420
37832,47795,62422
37816,47791,62397
37732,47775,62337
37686,47764,62297
37704,47765,62286
37681,47761,62248
37599,47750,62184
37563,47752,62151
37583,47762,62145
37555,47761,62105
37485,47753,62049
37474,47754,62034
37508,47762,62040
37479,47758,62009
37415,47747,61961
37430,47748,61960
37493,47755,61984
37493,47752,61977
37462,47744,61963
37508,47751,61993
37584,47761,62034
37582,47759,62028
37552,47754,62010
37590,47763,62030
37638,47769,62049
37597,47757,62018
37530,47741,61979
37530,47738,61977
37538,47736,61971
37470,47722,61922
37395,47708,61875
37385,47705,61864
37358,47699,61838
37247,47680,61762
37145,47664,61690
37123,47661,61657
37091,47660,61610
36982,47651,61523
36887,47645,61448
36864,47648,61408
36819,47647,61351
36705,47636,61259
36617,47628,61187
36589,47626,61148
36520,47615,61088
36381,47593,60998
36281,47580,60931
36244,47576,60890
36169,47565,60822
36040,47547,60728
35959,47539,60665
35931,47538,60627
35852,47527,60557
35731,47509,60469
35672,47504,60417
35652,47505,60384
35566,47492,60318
35444,47471,60238
35395,47462,60197
35385,47462,60170
35312,47454,60113
35216,47443,60055
35194,47444,60035
35197,47444,60020
35132,47432,59968
35051,47419,59914
35041,47418,59898
35045,47418,59885
34974,47403,59834
34888,47387,59779
34868,47383,59759
34848,47380,59736
34755,47366,59676
34665,47354,59619
34649,47356,59600
34627,47358,59574
34526,47347,59512
34435,47337,59458
34421,47341,59438
34393,47342,59408
34297,47333,59347
34222,47325,59302
34212,47326,59290
34174,47320,59260
34071,47305,59200
34004,47297,59159
34011,47304,59153
34000,47306,59137
33946,47297,59109
33956,47296,59122
34055,47310,59178
34146,47322,59230
34225,47328,59289
34395,47348,59411
34655,47382,59586
34899,47410,59762
35139,47437,59949
35477,47480,60203
35886,47532,60502
36245,47573,60782
36577,47611,61059
36983,47661,61384
37417,47715,61720
37764,47755,62004
38059,47787,62260
38395,47826,62536
38711,47862,62789
38908,47879,62961
39047,47889,63095
39224,47909,63246
39376,47929,63369
39415,47934,63413
39416,47933,63432
39465,47940,63473
39495,47945,63489
39431,47935,63439
39353,47924,63380
39337,47929,63353
39302,47930,63309
39187,47914,63218
39089,47901,63136
39068,47903,63092
39030,47902,63031
38916,47888,62931
38820,47875,62849
38792,47873,62806
38738,47864,62747
38631,47845,62662
38573,47836,62609
38590,47840,62598
38571,47838,62567
38490,47823,62508
38446,47815,62476
38455,47819,62469
38411,47816,62424
38312,47805,62351
38266,47802,62315
38263,47803,62300
38192,47790,62244
38078,47770,62164
38031,47765,62121
38022,47768,62097
37944,47758,62037
37833,47742,61966
37802,47738,61939
37815,47743,61927
37765,47736,61876
37693,47724,61817
37699,47726,61801
37731,47732,61798
37691,47727,61762
37637,47723,61727
37662,47732,61739
37710,47743,61761
37693,47739,61749
37677,47737,61744
37742,47746,61784
37809,47753,61819
37797,47746,61813
37791,47742,61815
37866,47751,61859
37931,47759,61892
37915,47754,61884
37913,47751,61888
37978,47761,61927
38009,47767,61943
37950,47760,61912
37902,47755,61892
37910,47759,61901
37876,47754,61879
37770,47737,61814
37698,47726,61766
37687,47726,61743
37635,47719,61691
37525,47699,61606
37458,47688,61546
37445,47686,61506
37383,47676,61433
37268,47661,61338
37200,47655,61279
37166,47654,61238
37061,47640,61159
36913,47620,61059
36840,47613,60996
36811,47614,60951
36709,47603,60870
36568,47587,60777
36498,47584,60723
36464,47584,60682
36363,47571,60607
36239,47553,60524
36184,47550,60480
36146,47550,60440
36036,47538,60364
35914,47523,60286
35864,47518,60247
35824,47511,60212
35711,47492,60139
35592,47475,60069
35548,47472,60040
35504,47467,60008
35388,47450,59937
35284,47437,59872
35263,47439,59849
35239,47437,59823
35149,47424,59766
35078,47415,59722
35082,47419,59711
35071,47418,59688
34996,47407,59636
34949,47404,59601
34961,47412,59595
34934,47412,59566
34836,47401,59506
34765,47392,59465
34745,47392,59451
34685,47383,59414
34575,47365,59354
34514,47356,59321
34502,47355,59308
34435,47345,59261
34320,47328,59191
34262,47321,59150
34245,47321,59127
34158,47307,59073
34032,47286,59003
33983,47280,58968
33981,47284,58953
33923,47279,58914
33851,47269,58876
33867,47274,58886
33935,47285,58923
33972,47289,58949
34028,47295,58995
34192,47319,59102
34413,47346,59243
34602,47363,59380
34817,47381,59548
35145,47415,59784
35514,47454,60045
35834,47485,60289
36168,47517,60558
36589,47567,60885
37012,47622,61212
37353,47664,61492
37687,47707,61772
38079,47759,62081
38431,47805,62358
38671,47834,62570
38888,47861,62766
39138,47894,62968
39325,47919,63117
39410,47929,63195
39490,47939,63265
39598,47954,63343
39638,47958,63373
39585,47947,63347
39545,47942,63326
39545,47946,63319
39488,47943,63269
39364,47929,63179
39278,47921,63111
39243,47920,63063
39158,47907,62977
39033,47887,62873
38972,47878,62815
38952,47874,62785
38864,47858,62719
38738,47835,62633
38689,47826,62584
38684,47826,62555
38612,47813,62494
38511,47794,62426
38484,47788,62404
38483,47789,62390
38407,47782,62331
38306,47772,62264
38277,47774,62237
38265,47776,62213
38179,47766,62145
38081,47755,62071
38056,47756,62035
38036,47758,61999
37941,47748,61922
37852,47739,61855
37843,47744,61837
37833,47748,61817
37752,47738,61759
37689,47731,61714
37711,47735,61711
37723,47736,61700
37663,47723,61657
37624,47713,61634
37662,47715,61650
37681,47713,61653
37641,47704,61626
37641,47704,61628
37711,47717,61673
37742,47724,61698
37711,47722,61695
37723,47728,61721
37788,47743,61771
37804,47747,61785
37767,47743,61771
37777,47747,61789
37834,47757,61823
37832,47755,61814
37778,47743,61774
37780,47741,61766
37818,47744,61774
37779,47735,61739
37692,47718,61679
37665,47711,61651
37665,47709,61633
37589,47696,61572
37478,47679,61494
37426,47676,61452
37383,47674,61413
37263,47657,61331
37124,47636,61240
37059,47629,61188
37007,47628,61135
36875,47615,61040
36729,47601,60944
36657,47600,60891
36592,47596,60838
36457,47574,60747
36331,47552,60665
36283,47544,60624
36225,47535,60579
36085,47512,60495
35957,47494,60420
35910,47488,60383
35853,47482,60331
35725,47466,60243
35615,47454,60172
35575,47452,60136
35513,47447,60085
35392,47433,60007
35305,47424,59949
35278,47425,59918
35213,47422,59863
35092,47412,59784
35016,47411,59732
34992,47420,59705
34920,47418,59653
34801,47406,59585
34735,47401,59554
34714,47401,59546
34634,47388,59507
34520,47371,59449
34483,47365,59425
34487,47365,59415
34423,47353,59370
34327,47337,59308
34296,47333,59279
34291,47338,59261
34216,47332,59209
34115,47324,59153
34087,47326,59136
34080,47330,59127
33999,47321,59083
33899,47309,59036
33871,47308,59024
33853,47308,59012
33760,47296,58966
33660,47282,58921
33636,47279,58910
33614,47275,58893
33517,47258,58837
33422,47241,58785
33396,47234,58765
33356,47226,58733
33250,47208,58670
33177,47198,58625
33203,47206,58625
33245,47217,58632
33257,47221,58635
33331,47232,58685
33506,47255,58796
33691,47277,58921
33859,47294,59048
34113,47324,59226
34472,47368,59461
34823,47407,59701
35131,47439,59944
35493,47480,60234
35916,47530,60561
36292,47571,60861
36618,47606,61140
36992,47649,61452
37390,47698,61769
37688,47731,62019
37909,47757,62220
38168,47794,62435
38426,47835,62638
38569,47856,62765
38638,47864,62844
38744,47879,62939
38847,47897,63017
38845,47899,63022
38791,47890,62989
38779,47889,62974
38756,47886,62945
38635,47866,62858
38487,47844,62755
38409,47835,62689
38338,47828,62619
38195,47810,62507
38052,47792,62403
37987,47787,62344
37922,47783,62281
37786,47766,62183
37668,47750,62101
37635,47749,62066
37594,47748,62022
37475,47734,61938
37372,47719,61871
37344,47713,61840
37294,47703,61785
37177,47683,61690
37088,47670,61614
37063,47671,61571
37004,47666,61509
36884,47651,61418
36804,47642,61354
36782,47642,61319
36714,47632,61262
36594,47613,61188
36526,47605,61151
36512,47605,61142
36453,47598,61100
36366,47586,61040
36354,47586,61028
36391,47595,61047
36364,47592,61035
36298,47581,61010
36311,47583,61028
36373,47595,61067
36373,47597,61069
36345,47593,61062
36394,47603,61098
36478,47619,61148
36498,47621,61161
36496,47620,61170
36560,47629,61217
36633,47639,61264
36629,47635,61271
36607,47632,61275
36652,47640,61314
36697,47647,61343
36661,47639,61324
36616,47629,61303
36639,47631,61315
36650,47628,61313
36567,47611,61263
36478,47597,61214
36458,47598,61198
36422,47597,61164
36304,47582,61084
36197,47568,61010
36159,47564,60966
36097,47556,60904
35970,47542,60814
35875,47535,60743
35841,47539,60699
35762,47533,60629
35610,47513,60529
35486,47500,60450
35410,47496,60394
35287,47484,60311
35113,47462,60208
34995,47449,60135
34932,47444,60082
34821,47430,59996
34680,47412,59893
34609,47405,59828
34576,47404,59784
34472,47388,59708
34328,47365,59621
34253,47356,59571
34213,47355,59535
34108,47340,59464
33981,47321,59383
33931,47315,59337
33909,47315,59301
33819,47305,59233
33715,47291,59164
33680,47291,59135
33661,47296,59112
33576,47287,59056
33483,47274,59000
33455,47271,58976
33425,47265,58949
33323,47246,58890
33227,47228,58838
33207,47224,58826
33184,47222,58809
33093,47210,58758
33017,47201,58717
33014,47205,58707
32992,47206,58683
32895,47194,58627
32815,47187,58586
32802,47193,58576
32762,47194,58548
32662,47183,58491
32595,47175,58450
32588,47175,58434
32549,47168,58398
32458,47155,58341
32416,47149,58315
32441,47152,58324
32440,47149,58319
32415,47142,58305
32473,47148,58341
32609,47165,58423
32724,47176,58499
32845,47187,58588
33075,47215,58741
33378,47251,58938
33647,47279,59128
33914,47306,59332
34277,47349,59596
34688,47398,59888
35045,47437,60152
35384,47473,60416
35790,47523,60722
36199,47578,61028
36505,47619,61278
36765,47655,61505
37064,47698,61747
37339,47733,61960
37512,47749,62102
37646,47760,62216
37816,47780,62341
37944,47796,62428
37956,47793,62442
37934,47786,62437
37956,47790,62453
37937,47790,62441
37817,47776,62371
37696,47761,62296
37640,47755,62248
37562,47745,62175
37414,47724,62061
37287,47708,61962
37221,47704,61896
37126,47696,61809
36975,47677,61693
36864,47662,61605
36814,47660,61552
36724,47651,61477
36581,47632,61383
36486,47621,61319
36448,47620,61277
36368,47608,61207
36245,47589,61118
36173,47580,61065
36137,47577,61030
36034,47563,60955
35896,47544,60860
35833,47536,60802
35811,47533,60765
35724,47520,60695
35602,47504,60615
35541,47501,60572
35509,47503,60541
35416,47492,60480
35317,47479,60421
35311,47482,60412
35340,47488,60419
35307,47484,60396
35272,47481,60377
35325,47492,60404
35399,47506,60438
35405,47506,60439
35408,47505,60452
35486,47516,60512
35568,47524,60572
35584,47519,60597
35615,47519,60632
35723,47536,60706
35812,47550,60767
35817,47549,60787
35832,47548,60813
35911,47557,60867
35962,47562,60894
35941,47556,60882
35943,47557,60885
35997,47568,60917
36009,47570,60921
35951,47561,60884
35922,47558,60858
35941,47561,60850
35905,47556,60812
35802,47541,60747
35734,47535,60705
35705,47535,60679
35619,47523,60617
35492,47503,60533
35428,47495,60484
35401,47495,60454
35301,47484,60388
35159,47466,60300
35087,47458,60244
35051,47455,60198
34946,47440,60115
34806,47421,60022
34730,47414,59964
34675,47410,59913
34548,47391,59823
34403,47368,59725
34331,47359,59665
34278,47355,59611
34156,47340,59524
34028,47326,59436
33975,47325,59389
33934,47327,59348
33826,47315,59277
33719,47301,59212
33686,47297,59184
33653,47291,59150
33554,47274,59084
33472,47259,59030
33463,47258,59015
33439,47256,58990
33342,47242,58931
33266,47236,58887
33266,47243,58876
33248,47246,58852
33169,47236,58796
33118,47229,58755
33117,47229,58740
33071,47219,58705
32963,47197,58649
32896,47184,58619
32888,47184,58615
32843,47177,58587
32756,47166,58539
32720,47163,58517
32726,47167,58509
32677,47163,58471
32589,47155,58415
32569,47159,58394
32595,47169,58393
32566,47164,58365
32512,47152,58333
32543,47153,58350
32627,47164,58399
32672,47167,58436
32731,47173,58489
32910,47199,58607
33163,47233,58762
33391,47258,58914
33642,47285,59094
34005,47330,59338
34416,47383,59610
34779,47426,59869
35142,47467,60146
35576,47520,60471
36011,47574,60793
36362,47613,61067
36700,47651,61339
37087,47698,61641
37433,47739,61913
37664,47763,62116
37866,47784,62301
38099,47809,62491
38277,47827,62635
38348,47829,62714
38408,47834,62786
38505,47850,62868
38543,47861,62901
38488,47856,62873
38442,47851,62845
38441,47853,62829
38388,47846,62775
38262,47828,62680
38162,47816,62603
38109,47811,62545
38006,47797,62452
37848,47775,62335
37739,47763,62254
37673,47760,62197
37549,47746,62107
37393,47725,61999
37320,47720,61937
37299,47724,61899
37214,47713,61827
37096,47692,61744
37048,47681,61699
37030,47673,61667
36941,47656,61595
36827,47638,61514
36787,47633,61475
36769,47633,61446
36675,47622,61375
36561,47605,61297
36521,47600,61258
36496,47598,61222
36401,47586,61152
36307,47575,61087
36296,47578,61066
36302,47584,61048
36247,47579,60997
36199,47575,60961
36230,47584,60975
36262,47591,60989
36230,47587,60973
36221,47589,60973
36296,47602,61014
36360,47609,61044
36358,47601,61043
36381,47597,61060
36466,47604,61109
36517,47607,61141
36503,47603,61143
36521,47605,61165
36593,47615,61212
36626,47617,61233
36603,47610,61228
36617,47610,61248
36675,47616,61285
36680,47613,61285
36629,47600,61261
36622,47597,61266
36646,47603,61283
36603,47599,61253
36519,47592,61196
36499,47598,61167
36508,47609,61148
36436,47605,61089
36319,47593,61013
36263,47592,60973
36232,47592,60940
36123,47576,60865
35985,47555,60775
35913,47549,60719
35858,47547,60667
35733,47531,60577
35592,47511,60480
35522,47504,60418
35467,47497,60358
35344,47476,60265
35218,47459,60179
35163,47455,60132
35108,47449,60082
34982,47429,59993
34867,47409,59911
34831,47402,59869
34788,47393,59821
34669,47372,59738
34564,47354,59666
34529,47350,59625
34477,47348,59570
34365,47337,59490
34281,47329,59431
34260,47330,59405
34212,47327,59366
34111,47317,59307
34050,47312,59272
34047,47314,59262
34006,47309,59228
33919,47297,59175
33879,47294,59151
33879,47298,59143
33820,47291,59102
33721,47275,59044
33684,47269,59020
33687,47268,59014
33619,47256,58971
33511,47239,58909
33471,47235,58881
33468,47238,58869
33399,47231,58825
33300,47219,58772
33265,47218,58751
33251,47219,58736
33162,47209,58685
33059,47195,58626
33036,47194,58602
33043,47195,58590
32996,47187,58559
32960,47179,58542
33028,47188,58579
33142,47202,58639
33230,47208,58692
33367,47218,58784
33621,47246,58951
33915,47280,59148
34183,47309,59343
34510,47348,59584
34950,47405,59893
35399,47461,60210
35790,47507,60504
36202,47559,60823
36675,47620,61181
37113,47675,61516
37470,47715,61805
37825,47758,62095
38202,47805,62390
38498,47838,62629
38689,47852,62806
38874,47868,62977
39073,47888,63140
39184,47893,63241
39208,47888,63289
39252,47891,63349
39314,47901,63404
39291,47898,63388
39200,47887,63328
39155,47885,63294
39136,47886,63272
39037,47874,63198
38892,47854,63097
38813,47846,63028
38766,47840,62966
38645,47822,62860
38494,47800,62743
38413,47792,62675
38357,47787,62624
38231,47771,62536
38092,47753,62447
38038,47748,62405
38012,47747,62375
37924,47734,62310
37832,47719,62245
37814,47718,62222
37797,47719,62195
37707,47705,62126
37615,47691,62065
37592,47693,62046
37552,47692,62015
37431,47674,61941
37324,47657,61876
37296,47653,61845
37255,47645,61798
37145,47626,61719
37060,47615,61662
37046,47618,61642
37009,47618,61604
36916,47607,61539
36872,47603,61505
36900,47609,61507
36888,47608,61487
36815,47598,61443
36787,47594,61431
36817,47598,61449
36803,47594,61438
36741,47586,61409
36742,47592,61420
36801,47606,61458
36807,47608,61463
36776,47602,61452
36817,47608,61483
36896,47617,61531
36899,47612,61536
36863,47599,61521
36896,47598,61540
36956,47600,61565
36936,47591,61544
36886,47580,61510
36899,47580,61515
36924,47584,61524
36869,47577,61486
36792,47569,61441
36786,47573,61435
36789,47579,61426
36714,47575,61367
36624,47568,61301
36600,47567,61268
36567,47563,61226
36453,47545,61140
36339,47529,61056
36303,47527,61008
36256,47520,60952
36128,47499,60858
36011,47481,60776
35966,47477,60727
35899,47468,60660
35758,47445,60562
35641,47427,60487
35589,47422,60447
35505,47413,60386
35358,47395,60298
35249,47386,60230
35204,47388,60189
35117,47383,60124
34976,47368,60037
34888,47362,59977
34859,47364,59938
34788,47357,59874
34675,47342,59798
34621,47337,59759
34606,47337,59738
34527,47325,59687
34412,47309,59622
34364,47305,59591
34355,47305,59573
34285,47294,59522
34187,47280,59462
34158,47280,59437
34156,47284,59421
34085,47275,59370
33993,47261,59316
33978,47261,59303
33982,47264,59298
33910,47252,59255
33822,47237,59208
33804,47233,59198
33794,47230,59189
33714,47217,59144
33633,47206,59099
33626,47211,59089
33615,47214,59075
33525,47202,59020
33438,47189,58968
33430,47189,58951
33417,47188,58930
33335,47177,58884
33277,47172,58861
33302,47180,58879
33328,47186,58892
33316,47180,58891
33368,47181,58935
33525,47196,59039
33692,47210,59152
33843,47220,59269
34083,47244,59449
34430,47285,59693
34775,47327,59944
35098,47366,60200
35498,47418,60512
35965,47478,60862
36377,47526,61178
36730,47564,61471
37129,47609,61801
37549,47657,62142
37870,47689,62420
38117,47713,62652
38401,47747,62899
38684,47784,63131
38848,47803,63280
38938,47810,63376
39063,47826,63483
39173,47841,63570
39163,47837,63583
39102,47825,63559
39103,47825,63558
39106,47828,63543
39015,47819,63469
38900,47806,63385
38852,47800,63342
38798,47793,63293
38661,47773,63196
38529,47757,63105
38480,47757,63061
38427,47756,63007
38292,47742,62906
38176,47731,62820
38153,47734,62790
38124,47733,62754
38019,47718,62677
37937,47708,62621
37940,47712,62613
37923,47709,62588
37837,47692,62525
37788,47680,62484
37799,47678,62475
37760,47671,62438
37651,47655,62370
37583,47648,62331
37572,47651,62318
37514,47643,62268
37399,47625,62186
37334,47615,62139
37316,47615,62116
37241,47604,62054
37131,47586,61975
37100,47581,61944
37118,47588,61939
37066,47586,61899
36984,47580,61849
36984,47588,61844
37027,47600,61859
37004,47597,61836
36959,47588,61810
36993,47593,61834
37050,47602,61873
37037,47598,61875
37013,47594,61873
37067,47605,61913
37132,47620,61954
37116,47619,61953
37086,47616,61953
37124,47624,61993
37155,47628,62021
37105,47615,61998
37058,47601,61978
37086,47601,61996
37098,47599,61996
37021,47584,61947
36950,47575,61906
36957,47582,61900
36944,47586,61873
36850,47579,61804
36775,47576,61746
36766,47582,61718
36716,47580,61663
36587,47566,61569
36489,47556,61497
36452,47555,61456
36365,47545,61384
36215,47524,61281
36112,47511,61209
36066,47507,61161
35970,47492,61078
35824,47468,60972
35736,47456,60905
35694,47454,60862
35584,47439,60784
35431,47415,60688
35352,47403,60632
35317,47400,60596
35212,47384,60522
35079,47365,60437
35029,47363,60393
35016,47367,60362
34925,47355,60291
34804,47338,60213
34761,47336,60177
34744,47337,60149
34653,47325,60084
34547,47313,60016
34520,47316,59989
34504,47318,59965
34413,47304,59905
34319,47292,59849
34305,47293,59835
34295,47292,59817
34210,47280,59761
34130,47274,59714
34127,47280,59707
34114,47282,59691
34027,47268,59636
33958,47256,59593
33962,47256,59582
33944,47251,59556
33853,47234,59498
33787,47223,59459
33787,47224,59452
33751,47217,59426
33650,47201,59371
33587,47195,59339
33587,47200,59335
33546,47198,59304
33453,47186,59249
33404,47182,59222
33402,47183,59213
33346,47175,59169
33247,47161,59107
33214,47157,59085
33236,47161,59092
33209,47157,59076
33170,47152,59057
33237,47164,59092
33378,47186,59166
33484,47200,59231
33597,47213,59317
33822,47245,59478
34115,47284,59684
34377,47317,59884
34659,47351,60111
35053,47401,60412
35488,47454,60741
35853,47493,61039
36211,47531,61347
36645,47583,61705
37072,47636,62054
37395,47672,62339
37688,47700,62609
38029,47736,62906
38327,47770,63166
38504,47788,63342
38652,47804,63491
38844,47830,63654
38984,47850,63772
39010,47854,63815
39022,47859,63847
39078,47873,63890
39082,47878,63887
38994,47866,63826
38923,47856,63776
38904,47854,63754
38828,47842,63693
38674,47819,63585
38559,47802,63498
38510,47794,63441
38417,47775,63353
38272,47748,63242
38181,47735,63171
38138,47732,63126
38041,47718,63043
37907,47698,62940
37847,47693,62883
37835,47693,62854
37755,47680,62788
37645,47665,62711
37625,47668,62681
37646,47679,62671
37590,47676,62619
37498,47665,62556
37477,47666,62535
37472,47671,62518
37382,47662,62452
37270,47648,62379
37233,47646,62348
37206,47643,62315
37100,47625,62237
36984,47607,62157
36949,47602,62123
36929,47598,62090
36842,47582,62017
36766,47570,61960
36775,47577,61958
36776,47582,61954
36699,47572,61915
36641,47562,61894
36679,47567,61922
36722,47570,61942
36701,47563,61928
36702,47560,61934
36778,47571,61980
36828,47577,62006
36807,47573,61998
36815,47575,62013
36889,47587,62059
36921,47593,62075
36885,47589,62056
36887,47591,62065
36938,47600,62098
36930,47600,62089
36864,47590,62049
36847,47592,62044
36868,47600,62058
36813,47595,62024
36708,47581,61960
36667,47577,61932
36664,47579,61920
36585,47568,61863
36463,47551,61782
36412,47548,61737
36397,47551,61700
36304,47540,61615
36178,47523,61515
36121,47516,61460
36082,47514,61415
35964,47499,61325
35825,47478,61229
35759,47469,61176
35706,47463,61128
35581,47447,61041
35455,47431,60957
35405,47427,60913
35352,47422,60863
35218,47403,60767
35090,47387,60679
35050,47387,60640
35005,47385,60599
34881,47367,60520
34776,47351,60456
34755,47351,60430
34717,47350,60387
34608,47336,60307
34524,47327,60248
34503,47328,60228
34449,47323,60190
34330,47305,60119
34251,47293,60071
34240,47290,60051
34191,47283,60005
34087,47273,59935
34033,47271,59896
34035,47276,59886
33986,47269,59844
33885,47252,59778
33842,47245,59748
33841,47244,59740
33771,47231,59699
33661,47212,59640
33631,47209,59620
33648,47214,59617
33590,47210,59577
33494,47202,59524
33474,47207,59508
33489,47216,59505
33436,47210,59463
33360,47200,59411
33356,47202,59394
33366,47205,59384
33294,47192,59336
33198,47176,59281
33172,47174,59263
33152,47173,59245
33050,47156,59186
32938,47138,59128
32905,47136,59113
32876,47134,59095
32779,47121,59040
32705,47112,58997
32729,47120,59006
32771,47127,59024
32767,47124,59026
32811,47128,59061
32968,47152,59159
33145,47174,59273
33294,47187,59389
33518,47209,59564
33855,47249,59809
34194,47289,60063
34498,47321,60312
34870,47363,60615
35326,47420,60965
35740,47472,61286
36081,47513,61576
36458,47557,61899
36866,47607,62238
37188,47644,62516
37432,47667,62742
37707,47699,62986
37985,47733,63222
38144,47748,63376
38219,47756,63471
38333,47774,63576
38447,47792,63664
38444,47791,63674
38376,47782,63642
38364,47785,63637
38360,47788,63626
38260,47776,63552
38128,47763,63457
38067,47763,63401
38016,47760,63346
37879,47741,63239
37725,47722,63124
37655,47718,63055
37593,47714,62987
37454,47695,62872
37318,47674,62767
37273,47670,62718
37228,47666,62665
37101,47648,62566
36989,47631,62480
36965,47628,62442
36926,47621,62394
36803,47602,62309
36699,47591,62245
36671,47593,62219
36616,47589,62167
36492,47575,62075
36401,47565,62008
36379,47564,61980
36322,47554,61930
36204,47536,61849
36136,47530,61798
36136,47535,61778
36094,47531,61731
35997,47517,61662
35957,47513,61633
35980,47517,61637
35955,47512,61610
35898,47501,61567
35917,47504,61571
35982,47514,61601
35977,47512,61594
35938,47504,61574
35985,47512,61604
36077,47527,61653
36095,47530,61660
36078,47525,61659
36130,47533,61707
36208,47543,61767
36209,47538,61782
36187,47530,61788
36242,47539,61830
36303,47548,61867
36272,47542,61850
36224,47535,61826
36246,47543,61842
36263,47552,61847
36191,47544,61803
36116,47533,61762
36118,47534,61763
36103,47531,61747
35997,47513,61675
35901,47497,61607
35885,47496,61575
35845,47491,61524
35722,47471,61432
35618,47455,61360
35579,47451,61321
35503,47442,61257
35356,47422,61155
35250,47408,61078
35214,47404,61036
35138,47395,60969
34997,47378,60870
34899,47371,60799
34857,47374,60754
34764,47367,60675
34617,47349,60572
34527,47343,60507
34484,47343,60467
34376,47329,60390
34226,47310,60294
34152,47303,60240
34120,47303,60206
34012,47290,60135
33871,47273,60052
33813,47270,60009
33790,47272,59982
33692,47261,59915
33571,47247,59839
33533,47246,59804
33520,47249,59780
33432,47237,59719
33332,47222,59657
33315,47219,59638
33306,47217,59621
33214,47201,59562
33112,47184,59505
33085,47181,59487
33052,47176,59460
32938,47154,59392
32838,47134,59335
32829,47132,59322
32808,47129,59301
32709,47115,59245
32634,47108,59204
32644,47114,59201
32632,47116,59180
32548,47104,59124
32494,47098,59089
32509,47105,59086
32490,47106,59062
32402,47094,59002
32344,47084,58961
32342,47083,58945
32292,47073,58904
32179,47055,58837
32108,47048,58796
32090,47049,58779
32023,47040,58734
31915,47027,58672
31882,47029,58653
31914,47043,58668
31898,47047,58659
31870,47044,58651
31955,47058,58706
32121,47082,58807
32255,47096,58900
32402,47110,59019
32669,47144,59214
33008,47186,59452
33305,47215,59677
33607,47244,59919
34015,47293,60222
34457,47348,60544
34820,47389,60825
35163,47426,61107
35571,47476,61433
35967,47523,61745
36251,47552,61990
36496,47577,62215
36782,47611,62461
37027,47638,62666
37150,47646,62787
37245,47654,62887
37392,47674,63004
37490,47688,63076
37468,47683,63071
37437,47682,63055
37463,47690,63059
37445,47691,63024
37330,47678,62930
37229,47670,62846
37193,47673,62792
37112,47669,62710
36957,47651,62591
36838,47637,62501
36786,47638,62445
36692,47632,62362
36544,47615,62253
36450,47607,62181
36414,47607,62136
36319,47595,62051
36167,47575,61943
36080,47567,61879
36042,47566,61841
35934,47550,61761
35790,47525,61658
35729,47514,61595
35707,47511,61548
35607,47496,61462
35469,47477,61367
35402,47470,61316
35360,47467,61275
35246,47452,61189
35124,47434,61098
35095,47430,61060
35092,47428,61036
35013,47411,60974
34930,47395,60919
34936,47396,60918
34958,47401,60926
34912,47394,60899
34878,47391,60888
34940,47403,60931
35011,47414,60979
35014,47412,60993
35039,47415,61026
35154,47432,61106
35250,47445,61172
35263,47446,61195
35296,47454,61234
35409,47477,61312
35490,47492,61367
35487,47491,61381
35512,47495,61414
35596,47509,61475
35624,47512,61500
35577,47505,61485
35568,47505,61492
35615,47516,61517
35604,47513,61498
35528,47497,61443
35495,47491,61419
35503,47496,61411
35438,47489,61356
35327,47474,61276
35286,47475,61239
35284,47483,61221
35198,47476,61155
35063,47455,61066
34997,47441,61010
34958,47430,60961
34839,47406,60867
34687,47380,60758
34613,47372,60692
34568,47370,60637
34444,47354,60545
34297,47336,60450
34231,47334,60396
34176,47336,60341
34039,47327,60243
33896,47318,60149
33835,47321,60100
33782,47321,60049
33653,47304,59959
33525,47282,59874
33476,47272,59827
33415,47259,59769
33274,47235,59676
33160,47216,59602
33141,47215,59575
33113,47213,59540
33010,47198,59477
32933,47188,59431
32928,47192,59414
32889,47189,59377
32781,47173,59312
32710,47164,59272
32707,47166,59263
32664,47161,59229
32561,47147,59169
32508,47143,59142
32512,47147,59139
32457,47139,59098
32347,47122,59033
32298,47116,59005
32300,47118,59003
32237,47109,58965
32130,47095,58907
32097,47095,58883
32108,47102,58877
32044,47094,58832
31935,47079,58771
31900,47077,58749
31906,47080,58740
31847,47069,58698
31776,47055,58654
31806,47056,58663
31885,47064,58695
31916,47061,58711
31959,47059,58748
32114,47075,58853
32322,47097,58990
32496,47113,59117
32711,47136,59279
33046,47179,59516
33410,47227,59776
33720,47263,60013
34061,47304,60279
34499,47362,60603
34923,47416,60923
35255,47453,61199
35593,47492,61484
35996,47542,61794
36348,47583,62061
36591,47608,62262
36824,47636,62459
37085,47671,62665
37262,47692,62815
37327,47696,62897
37404,47702,62982
37520,47715,63072
37560,47720,63101
37505,47713,63072
37474,47714,63057
37475,47720,63047
37394,47711,62974
37243,47689,62857
37147,47680,62773
37091,47678,62709
36955,47662,62597
36765,47636,62456
36650,47621,62358
36584,47614,62281
36448,47592,62164
36282,47563,62040
36199,47548,61966
36153,47543,61911
36036,47529,61818
35902,47514,61720
35848,47512,61669
35811,47511,61624
35696,47495,61538
35570,47475,61449
35522,47469,61399
35481,47464,61346
35356,47445,61247
35227,47427,61155
35182,47424,61114
35139,47419,61069
35021,47402,60985
34925,47387,60919
34924,47389,60907
34923,47390,60893
34854,47382,60847
34814,47379,60824
34858,47387,60844
34887,47390,60849
34855,47382,60828
34865,47384,60838
34956,47399,60894
35021,47409,60935
35024,47410,60951
35071,47419,60997
35184,47438,61074
35257,47449,61123
35274,47447,61146
35337,47452,61201
35442,47468,61273
35475,47472,61295
35453,47467,61286
35497,47474,61319
35579,47487,61373
35573,47484,61378
35512,47474,61353
35522,47475,61362
35567,47481,61379
35525,47472,61343
35435,47455,61285
35410,47452,61264
35404,47452,61249
35318,47440,61187
35211,47426,61117
35183,47427,61088
35166,47431,61058
35061,47422,60979
34936,47408,60892
34881,47403,60841
34822,47398,60782
34679,47378,60676
34538,47358,60575
34483,47349,60523
34424,47340,60468
34282,47321,60372
34152,47306,60282
34113,47307,60234
34065,47306,60178
33935,47290,60086
33821,47277,60010
33782,47276,59970
33720,47267,59914
33589,47246,59825
33493,47234,59755
33465,47234,59719
33403,47226,59664
33279,47207,59582
33196,47195,59527
33172,47194,59501
33101,47185,59447
32976,47170,59372
32910,47166,59331
32898,47170,59311
32828,47163,59257
32720,47146,59189
32687,47140,59163
32694,47140,59158
32628,47128,59120
32523,47113,59066
32493,47113,59047
32505,47120,59041
32444,47112,58998
32354,47099,58944
32343,47099,58930
32352,47100,58924
32277,47087,58880
32184,47072,58832
32171,47073,58822
32169,47078,58809
32087,47067,58757
32001,47057,58709
32004,47061,58706
32022,47065,58706
31975,47058,58675
31952,47057,58667
32041,47073,58721
32157,47090,58793
32231,47096,58851
32360,47108,58948
32616,47138,59116
32906,47170,59309
33167,47196,59503
33494,47232,59755
33928,47283,60074
34355,47330,60392
34732,47368,60690
35156,47418,61023
35641,47480,61387
36071,47531,61717
36414,47569,62005
36768,47613,62309
37139,47661,62615
37417,47692,62851
37602,47708,63025
37802,47730,63208
38001,47756,63379
38090,47762,63469
38105,47756,63503
38171,47763,63556
38252,47776,63604
38222,47773,63583
38127,47763,63525
38091,47764,63496
38077,47767,63465
37979,47758,63377
37848,47745,63270
37785,47743,63203
37733,47743,63142
37595,47727,63035
37442,47706,62926
37376,47697,62865
37325,47691,62809
37198,47674,62709
37074,47657,62615
37036,47655,62574
37003,47652,62532
36892,47636,62450
36788,47623,62382
36768,47621,62363
36737,47614,62333
36623,47595,62256
36530,47581,62192
36520,47582,62168
36488,47579,62123
36380,47565,62037
36299,47557,61972
36286,47561,61942
36234,47555,61886
36114,47536,61799
36044,47525,61746
36047,47524,61730
36013,47518,61689
35921,47505,61626
35879,47500,61599
35893,47503,61600
35855,47497,61569
35776,47484,61521
35766,47485,61521
35806,47496,61553
35790,47495,61553
35747,47487,61542
35790,47495,61574
35882,47513,61624
35901,47517,61636
35881,47515,61636
35930,47525,61676
36000,47536,61719
35981,47531,61710
35937,47520,61690
35972,47522,61709
36026,47527,61731
36002,47519,61707
35963,47509,61676
35989,47513,61683
36003,47518,61682
35923,47508,61627
35832,47497,61572
35820,47502,61561
35799,47503,61542
35693,47489,61473
35592,47476,61408
35566,47478,61378
35516,47476,61328
35379,47460,61233
35260,47447,61153
35215,47447,61110
35144,47442,61045
35003,47425,60943
34895,47413,60860
34857,47411,60810
34783,47399,60735
34645,47378,60634
34544,47368,60564
34498,47369,60521
34406,47360,60449
34264,47340,60356
34179,47329,60299
34148,47324,60266
34059,47308,60194
33929,47285,60101
33872,47276,60051
33859,47274,60027
33774,47259,59968
33652,47240,59897
33609,47238,59868
33607,47242,59856
33535,47232,59807
33437,47219,59747
33411,47218,59723
33407,47221,59707
33332,47210,59655
33250,47196,59603
33254,47198,59590
33276,47202,59580
33217,47194,59530
33148,47188,59481
33154,47193,59473
33159,47198,59465
33082,47190,59419
33007,47184,59381
33015,47191,59384
33012,47199,59376
32924,47192,59325
32846,47185,59280
32845,47189,59267
32823,47185,59240
32731,47166,59182
32669,47152,59148
32686,47151,59155
32685,47146,59153
32637,47133,59132
32652,47133,59147
32759,47150,59211
32862,47166,59276
32948,47179,59343
33123,47202,59467
33400,47239,59648
33670,47270,59830
33933,47297,60027
34290,47337,60298
34717,47387,60620
35095,47425,60922
35444,47458,61222
35875,47508,61574
36344,47568,61945
36724,47613,62264
37043,47649,62553
37406,47697,62866
37764,47745,63162
38000,47775,63376
38160,47794,63544
38350,47817,63723
38522,47836,63871
38579,47836,63938
38588,47831,63967
38647,47836,64016
38691,47839,64040
38630,47827,63992
38542,47814,63931
38511,47812,63908
38464,47809,63865
38327,47792,63759
38190,47778,63657
38132,47778,63602
38061,47772,63538
37910,47749,63428
37780,47731,63328
37738,47728,63271
37684,47720,63200
37562,47697,63096
37472,47678,63021
37455,47673,62995
37407,47663,62953
37296,47643,62877
37232,47634,62828
37237,47640,62815
37201,47641,62775
37105,47633,62707
37049,47632,62670
37041,47637,62653
36975,47631,62593
36861,47619,62507
36810,47621,62466
36800,47632,62448
36715,47627,62384
36587,47612,62297
36538,47611,62254
36537,47618,62232
36471,47612,62172
36373,47600,62104
36348,47600,62086
36360,47604,62089
36314,47597,62057
36259,47589,62024
36290,47595,62040
36345,47604,62065
36329,47602,62052
36306,47596,62044
36361,47600,62083
36421,47604,62121
36402,47593,62117
36384,47584,62122
36446,47589,62177
36499,47592,62222
36468,47583,62214
36445,47579,62211
36494,47589,62246
36517,47596,62261
36453,47589,62223
36407,47583,62192
36435,47590,62195
36428,47590,62170
36343,47576,62102
36283,47567,62053
36282,47566,62037
36235,47556,61995
36118,47535,61917
36040,47524,61865
36021,47523,61838
35946,47512,61772
35808,47492,61673
35723,47482,61610
35689,47482,61575
35601,47475,61504
35473,47461,61414
35407,47457,61363
35377,47458,61330
35279,47447,61256
35146,47431,61163
35086,47426,61110
35060,47424,61072
34958,47408,60995
34821,47386,60907
34753,47379,60863
34712,47377,60832
34603,47364,60760
34481,47347,60680
34442,47347,60641
34423,47352,60610
34331,47345,60542
34231,47338,60472
34210,47341,60444
34193,47341,60412
34100,47327,60339
34009,47313,60271
33994,47312,60245
33974,47310,60215
33877,47293,60148
33795,47280,60097
33795,47282,60091
33780,47285,60078
33684,47277,60029
33610,47273,59993
33612,47279,59988
33588,47279,59960
33500,47265,59900
33450,47257,59864
33464,47261,59858
33437,47258,59825
33349,47242,59765
33296,47233,59732
33287,47231,59722
33224,47223,59682
33114,47206,59626
33061,47200,59604
33054,47199,59598
32990,47186,59556
32896,47169,59501
32895,47167,59495
32965,47177,59526
32992,47182,59544
33010,47184,59573
33140,47202,59666
33345,47227,59798
33516,47245,59921
33703,47266,60069
34009,47305,60296
34374,47350,60562
34688,47384,60811
35008,47418,61081
35424,47468,61413
35857,47519,61755
36205,47557,62047
36530,47592,62335
36912,47637,62658
37261,47680,62953
37491,47704,63172
37686,47722,63369
37924,47749,63585
38112,47774,63757
38180,47783,63849
38227,47791,63925
38324,47807,64013
38371,47815,64046
38315,47806,64010
38260,47798,63975
38253,47802,63962
38195,47798,63910
38055,47782,63810
37939,47773,63727
37877,47773,63667
37772,47760,63571
37613,47735,63445
37506,47719,63355
37456,47713,63300
37359,47699,63215
37222,47681,63111
37153,47677,63053
37134,47682,63023
37055,47675,62957
36944,47663,62873
36914,47666,62832
36928,47674,62811
36866,47668,62750
36762,47655,62676
36725,47655,62642
36714,47658,62616
36628,47647,62544
36514,47631,62461
36469,47629,62418
36439,47628,62382
36328,47610,62306
36203,47588,62227
36155,47581,62191
36122,47576,62154
36026,47559,62081
35941,47542,62021
35944,47541,62016
35949,47542,62009
35879,47532,61962
35823,47524,61928
35853,47530,61945
35877,47535,61957
35827,47528,61934
35802,47526,61932
35861,47539,61972
35901,47545,61993
35871,47537,61976
35874,47536,61985
35947,47547,62036
35979,47551,62061
35943,47546,62051
35945,47548,62064
35999,47556,62102
35998,47553,62102
35935,47541,62070
35919,47538,62066
35948,47544,62081
35909,47540,62048
35815,47528,61985
35782,47526,61955
35784,47531,61940
35708,47524,61879
35588,47510,61793
35536,47504,61744
35515,47500,61709
35420,47480,61632
35288,47456,61543
35219,47445,61490
35172,47440,61442
35047,47421,61351
34900,47400,61252
34830,47393,61194
34774,47391,61138
34643,47379,61041
34507,47367,60945
34448,47366,60888
34394,47363,60828
34266,47345,60730
34144,47332,60643
34102,47335,60604
34052,47336,60563
33924,47321,60483
33811,47310,60415
33778,47312,60385
33728,47310,60343
33604,47295,60265
33511,47285,60206
33496,47287,60183
33458,47281,60143
33359,47265,60073
33299,47257,60026
33308,47261,60010
33282,47257,59972
33195,47243,59908
33146,47236,59869
33148,47236,59855
33102,47230,59811
33008,47217,59749
32964,47212,59723
32961,47211,59715
32903,47199,59674
32808,47181,59620
32782,47174,59605
32793,47175,59608
32728,47164,59571
32619,47150,59514
32580,47149,59488
32580,47155,59471
32516,47148,59415
32423,47133,59349
32396,47128,59318
32390,47126,59292
32315,47114,59235
32229,47101,59181
32219,47101,59175
32232,47105,59182
32195,47100,59169
32184,47101,59179
32280,47120,59247
32415,47144,59333
32520,47156,59411
32676,47172,59530
32949,47204,59723
33247,47237,59940
33506,47263,60148
33817,47297,60395
34230,47345,60701
34635,47390,61004
34970,47424,61278
35325,47463,61575
35732,47512,61902
36079,47554,62190
36334,47582,62424
36595,47611,62663
36878,47646,62906
37078,47672,63084
37181,47686,63197
37296,47707,63310
37428,47732,63417
37475,47742,63453
37446,47741,63440
37447,47747,63445
37463,47754,63447
37387,47744,63382
37257,47726,63280
37189,47720,63212
37150,47720,63156
37029,47707,63051
36869,47684,62928
36783,47670,62848
36730,47660,62780
36606,47639,62668
36463,47620,62552
36401,47617,62491
36357,47618,62448
36239,47608,62368
36122,47597,62292
36091,47599,62263
36073,47597,62233
35978,47580,62159
35878,47564,62090
35846,47561,62060
35806,47555,62019
35687,47537,61934
35581,47523,61855
35558,47525,61815
35529,47525,61766
35431,47512,61682
35357,47501,61619
35356,47498,61596
35331,47490,61559
35236,47471,61493
35177,47462,61454
35196,47469,61458
35189,47471,61449
35128,47462,61419
35114,47460,61422
35164,47468,61457
35181,47471,61469
35155,47466,61464
35188,47471,61500
35278,47484,61560
35313,47484,61581
35300,47475,61578
35351,47477,61614
35441,47488,61669
35457,47490,61680
35431,47485,61669
35478,47495,61696
35559,47513,61736
35555,47515,61731
35506,47507,61707
35512,47505,61715
35529,47505,61721
35461,47491,61678
35366,47476,61620
35343,47476,61595
35336,47478,61568
35255,47468,61498
35165,47459,61430
35148,47466,61405
35128,47473,61374
35023,47465,61297
34912,47457,61224
34870,47462,61189
34814,47463,61143
34679,47449,61053
34551,47435,60969
34494,47430,60918
34416,47419,60854
34263,47395,60757
34139,47377,60679
34093,47373,60634
34023,47363,60566
33888,47341,60463
33786,47321,60382
33743,47310,60329
33661,47294,60256
33523,47270,60160
33433,47256,60098
33407,47256,60067
33340,47250,60010
33231,47237,59934
33183,47233,59897
33177,47236,59883
33106,47225,59831
32997,47208,59760
32962,47203,59734
32967,47206,59729
32896,47196,59687
32785,47178,59625
32747,47172,59598
32743,47172,59582
32671,47163,59531
32579,47154,59476
32562,47156,59464
32561,47161,59460
32488,47153,59416
32401,47145,59365
32388,47150,59350
32388,47156,59334
32315,47144,59279
32240,47130,59230
32240,47129,59224
32229,47128,59213
32132,47111,59164
32039,47096,59120
32029,47097,59114
32018,47099,59096
31937,47090,59042
31881,47085,59003
31912,47092,59003
31937,47095,58995
31911,47089,58971
31940,47092,58989
32068,47109,59066
32195,47123,59152
32292,47130,59237
32469,47149,59378
32755,47184,59579
33039,47214,59787
33299,47240,60001
33631,47279,60271
34035,47331,60581
34400,47377,60863
34722,47415,61129
35101,47464,61438
35506,47517,61760
35814,47553,62020
36051,47577,62238
36335,47611,62476
36630,47650,62706
36817,47672,62860
36929,47684,62970
37078,47706,63096
37219,47727,63203
37247,47728,63234
37217,47721,63226
37231,47723,63235
37238,47723,63227
37154,47710,63158
37048,47693,63075
37002,47688,63025
36948,47683,62962
36809,47664,62851
36662,47645,62746
36589,47639,62690
36516,47633,62630
36378,47618,62531
36266,47608,62447
36249,47613,62409
36225,47615,62363
36119,47602,62277
36028,47588,62208
36010,47583,62178
35966,47569,62126
35849,47545,62036
35759,47531,61967
35732,47529,61930
35666,47521,61866
35535,47502,61765
35443,47492,61693
35409,47493,61655
35335,47486,61592
35217,47472,61513
35160,47468,61475
35162,47473,61465
35120,47467,61423
35042,47452,61362
35040,47448,61346
35088,47453,61358
35076,47450,61339
35038,47444,61313
35084,47449,61335
35171,47460,61375
35193,47458,61380
35192,47454,61383
35269,47466,61433
35372,47484,61496
35397,47487,61518
35398,47484,61537
35472,47492,61599
35555,47502,61664
35561,47500,61682
35558,47498,61696
35629,47512,61745
35698,47528,61783
35681,47529,61768
35657,47529,61751
35696,47539,61771
35708,47541,61773
35621,47525,61722
35535,47511,61676
35527,47513,61662
35502,47513,61628
35394,47500,61552
35299,47491,61489
35272,47494,61460
35213,47494,61407
35083,47482,61314
34985,47473,61240
34946,47475,61195
34865,47468,61121
34726,47450,61020
34635,47437,60950
34601,47433,60904
34516,47418,60827
34382,47396,60732
34302,47382,60673
34265,47373,60634
34167,47353,60556
34031,47331,60459
33972,47325,60400
33957,47327,60359
33869,47317,60282
33745,47302,60196
33695,47299,60153
33677,47298,60124
33587,47284,60056
33476,47270,59981
33448,47271,59948
33447,47275,59922
33372,47264,59860
33279,47250,59800
33266,47249,59784
33269,47254,59777
33198,47246,59736
33116,47235,59698
33106,47235,59701
33101,47236,59698
33024,47227,59655
32959,47218,59618
32971,47221,59620
32970,47219,59609
32891,47202,59558
32826,47190,59518
32838,47194,59510
32834,47196,59489
32760,47183,59438
32705,47174,59402
32714,47176,59395
32693,47172,59367
32609,47157,59313
32562,47148,59284
32578,47150,59286
32558,47148,59268
32489,47140,59235
32481,47143,59240
32551,47159,59278
32604,47169,59303
32647,47174,59333
32786,47193,59429
33001,47221,59572
33185,47239,59706
33372,47254,59853
33677,47287,60076
34060,47333,60348
34399,47372,60608
34720,47409,60878
35120,47458,61204
35548,47508,61545
35895,47547,61837
36208,47584,62110
36577,47633,62416
36939,47681,62708
37192,47710,62933
37392,47730,63129
37631,47756,63340
37834,47775,63513
37915,47774,63599
37952,47769,63656
38035,47778,63729
38088,47786,63764
38034,47777,63728
37962,47770,63680
37953,47776,63660
37916,47775,63615
37789,47759,63516
37677,47745,63426
37643,47744,63373
37585,47741,63299
37455,47728,63184
37351,47720,63090
37311,47720,63031
37235,47712,62952
37099,47692,62848
37010,47682,62781
36992,47683,62754
36938,47676,62701
36839,47659,62628
36803,47653,62598
36820,47655,62596
36776,47648,62551
36684,47634,62480
36657,47629,62449
36662,47628,62437
36589,47613,62377
36470,47591,62289
36425,47583,62237
36414,47582,62196
36327,47569,62114
36212,47553,62026
36178,47551,61992
36178,47556,61976
36115,47548,61925
36048,47539,61878
36065,47545,61883
36097,47550,61895
36054,47542,61866
36008,47535,61839
36052,47544,61862
36108,47552,61888
36090,47546,61873
36078,47541,61869
36146,47553,61915
36205,47564,61958
36185,47561,61958
36186,47561,61971
36273,47573,62028
36344,47580,62071
36332,47572,62072
36332,47567,62089
36392,47575,62134
36416,47579,62148
36366,47571,62117
36337,47568,62102
36356,47573,62113
36326,47571,62086
36233,47560,62017
36184,47557,61968
36190,47563,61942
36138,47558,61878
36026,47541,61787
35962,47530,61733
35939,47527,61702
35846,47516,61631
35704,47498,61535
35632,47491,61476
35601,47490,61438
35494,47476,61358
35343,47457,61259
35261,47451,61196
35212,47450,61145
35095,47435,61054
34955,47414,60954
34892,47405,60898
34849,47398,60851
34730,47379,60764
34597,47360,60676
34540,47356,60629
34495,47353,60583
34383,47339,60502
34279,47330,60428
34258,47332,60397
34238,47332,60363
34140,47320,60289
34044,47309,60223
34021,47310,60199
33985,47310,60168
33876,47297,60102
33790,47286,60051
33787,47289,60036
33768,47287,60004
33677,47273,59937
33612,47265,59888
33613,47269,59871
33574,47264,59833
33460,47245,59766
33377,47232,59722
33359,47230,59704
33306,47220,59661
33197,47200,59594
33135,47188,59558
33129,47189,59549
33073,47183,59510
32974,47169,59452
32936,47169,59431
32939,47179,59430
32879,47176,59393
32784,47163,59338
32765,47159,59318
32783,47160,59311
32726,47147,59267
32631,47131,59209
32609,47128,59189
32622,47130,59184
32578,47120,59154
32535,47110,59130
32594,47119,59159
32700,47135,59214
32763,47144,59257
32849,47156,59327
33052,47184,59472
33307,47218,59652
33527,47243,59826
33791,47273,60039
34173,47319,60327
34577,47367,60632
34917,47401,60912
35273,47438,61214
35709,47488,61562
36121,47534,61887
36433,47565,62151
36742,47597,62415
37096,47640,62696
37385,47673,62923
37557,47687,63079
37715,47701,63225
37897,47724,63373
38001,47737,63460
38000,47735,63477
38005,47739,63493
38037,47752,63513
37999,47750,63479
37887,47733,63403
37812,47723,63351
37771,47723,63311
37658,47711,63217
37491,47689,63091
37390,47679,63005
37334,47678,62938
37206,47662,62829
37036,47638,62703
36940,47627,62621
36889,47624,62561
36775,47609,62467
36636,47591,62369
36580,47586,62322
36559,47586,62291
36474,47577,62219
36381,47566,62145
36375,47568,62120
36391,47571,62106
36332,47561,62057
36260,47551,62010
36260,47553,62003
36258,47554,61986
36173,47543,61922
36082,47532,61860
36065,47533,61838
36036,47530,61805
35928,47512,61732
35834,47498,61671
35824,47500,61650
35805,47501,61615
35722,47492,61550
35670,47490,61512
35698,47503,61516
35710,47512,61506
35667,47509,61470
35666,47510,61466
35730,47518,61499
35751,47517,61511
35713,47504,61492
35725,47500,61502
35805,47507,61545
35842,47507,61560
35830,47502,61555
35870,47509,61588
35948,47522,61643
35950,47520,61654
35898,47509,61641
35906,47510,61662
35950,47517,61689
35916,47512,61665
35839,47499,61620
35827,47499,61610
35838,47503,61600
35766,47494,61541
35654,47478,61466
35600,47472,61420
35549,47467,61369
35407,47446,61268
35240,47425,61158
35142,47418,61084
35047,47410,61007
34877,47390,60888
34711,47372,60773
34626,47368,60700
34545,47362,60622
34393,47343,60506
34250,47323,60401
34190,47317,60343
34122,47308,60283
33976,47284,60189
33845,47263,60111
33797,47259,60071
33741,47253,60019
33622,47239,59935
33535,47230,59874
33516,47231,59848
33463,47224,59800
33348,47207,59723
33274,47197,59675
33264,47198,59660
33217,47191,59623
33120,47176,59564
33077,47174,59531
33089,47182,59518
33051,47180,59474
32967,47168,59411
32944,47166,59386
32961,47171,59381
32906,47161,59340
32810,47142,59285
32789,47137,59271
32810,47139,59279
32764,47131,59256
32691,47119,59221
32695,47122,59222
32728,47133,59232
32687,47133,59202
32625,47130,59167
32631,47138,59168
32648,47144,59173
32589,47134,59142
32515,47122,59105
32510,47120,59101
32506,47117,59093
32421,47098,59046
32332,47080,58999
32316,47080,58989
32293,47081,58973
32195,47069,58922
32107,47057,58876
32090,47056,58858
32057,47049,58827
31955,47032,58764
31881,47019,58719
31887,47019,58710
31887,47019,58698
31849,47012,58676
31878,47013,58699
32011,47029,58776
32145,47045,58859
32255,47057,58946
32444,47082,59097
32732,47121,59310
33021,47157,59528
33298,47191,59751
33665,47239,60037
34112,47298,60369
34516,47346,60672
34876,47386,60955
35295,47433,61279
35732,47482,61615
36062,47518,61889
36316,47545,62124
36607,47582,62377
36895,47620,62613
37072,47641,62771
37182,47652,62887
37331,47671,63018
37470,47689,63125
37503,47690,63158
37489,47685,63159
37522,47688,63184
37540,47689,63189
37461,47675,63127
37359,47662,63051
37320,47662,63015
37270,47664,62969
37140,47654,62873
37021,47647,62783
36987,47651,62740
36950,47648,62693
36847,47629,62609
36770,47612,62542
36779,47610,62525
36777,47609,62501
36704,47600,62443
36655,47597,62406
36673,47606,62406
36658,47609,62387
36575,47602,62335
36531,47601,62305
36553,47608,62305
36536,47605,62280
36455,47588,62225
36410,47578,62198
36413,47577,62195
36361,47570,62154
36256,47556,62081
36205,47551,62039
36198,47554,62017
36126,47545,61955
36016,47530,61877
35981,47529,61844
35990,47535,61834
35936,47530,61790
35856,47523,61739
35855,47526,61734
35892,47533,61744
35862,47527,61716
35816,47517,61685
35850,47520,61702
35906,47526,61726
35890,47517,61713
35860,47507,61703
35905,47515,61744
35963,47526,61790
35952,47524,61798
35945,47524,61813
36017,47538,61869
36086,47549,61914
36074,47545,61910
36063,47541,61907
36120,47549,61940
36150,47554,61954
36086,47546,61918
36028,47538,61887
36039,47539,61885
36023,47536,61857
35923,47523,61785
35838,47517,61727
35814,47522,61698
35747,47519,61642
35613,47503,61551
35519,47493,61485
35480,47491,61447
35396,47481,61378
35257,47462,61283
35162,47452,61218
35114,47451,61175
35013,47437,61096
34872,47415,60994
34800,47404,60930
34770,47397,60882
34668,47377,60794
34525,47354,60691
34455,47345,60629
34421,47345,60585
34319,47334,60507
34192,47320,60420
34140,47317,60379
34110,47318,60347
34006,47305,60274
33883,47286,60194
33837,47279,60155
33804,47274,60122
33693,47255,60050
33571,47238,59976
33528,47237,59942
33489,47235,59910
33374,47222,59842
33268,47211,59784
33247,47214,59770
33222,47212,59749
33119,47196,59687
33033,47183,59633
33035,47188,59615
33028,47192,59588
32950,47183,59533
32888,47175,59499
32892,47174,59496
32867,47167,59472
32780,47150,59416
32730,47143,59381
32742,47150,59375
32711,47148,59349
32615,47134,59297
32557,47129,59269
32554,47133,59264
32508,47131,59229
32419,47120,59172
32385,47117,59145
32391,47118,59137
32330,47105,59094
32230,47087,59036
32202,47085,59016
32216,47092,59015
32158,47088,58981
32059,47077,58932
32027,47079,58915
32030,47085,58907
31965,47079,58863
31871,47070,58807
31845,47072,58783
31831,47072,58760
31738,47056,58694
31630,47034,58624
31598,47025,58593
31587,47021,58570
31516,47007,58524
31458,46993,58496
31502,46995,58527
31581,47001,58581
31625,47001,58626
31715,47009,58704
31926,47038,58851
32174,47072,59023
32394,47100,59192
32677,47137,59410
33072,47191,59697
33472,47245,59991
33814,47286,60269
34190,47330,60581
34632,47385,60933
35031,47434,61257
35347,47470,61534
35677,47510,61815
36035,47555,62099
36316,47586,62326
36499,47602,62496
36689,47620,62666
36898,47642,62826
37013,47649,62911
37035,47645,62941
37076,47652,62990
37127,47664,63041
37086,47658,63026
36989,47642,62970
36953,47635,62944
36945,47634,62924
36852,47618,62845
36713,47597,62741
36638,47590,62673
36589,47589,62613
36469,47576,62514
36332,47558,62413
36276,47555,62362
36241,47558,62320
36130,47547,62238
36014,47529,62159
35984,47524,62130
35972,47524,62104
35887,47510,62035
35799,47494,61972
35789,47491,61956
35777,47489,61933
35685,47473,61864
35598,47459,61803
35587,47462,61782
35561,47466,61750
35458,47459,61683
35371,47456,61635
35357,47463,61625
35322,47463,61594
35222,47451,61528
35160,47446,61487
35174,47453,61483
35161,47454,61458
35090,47444,61407
35065,47441,61387
35098,47447,61396
35085,47442,61375
35023,47426,61333
35018,47418,61334
35072,47420,61369
35082,47417,61374
35060,47410,61362
35113,47418,61395
35209,47434,61454
35239,47439,61475
35240,47439,61484
35324,47452,61539
35448,47473,61612
35496,47480,61643
35506,47478,61663
35586,47488,61727
35683,47501,61796
35695,47501,61815
35683,47498,61824
35741,47506,61868
35800,47511,61904
35777,47502,61889
35735,47494,61867
35753,47499,61876
35762,47504,61870
35683,47494,61809
35593,47482,61744
35567,47483,61716
35522,47482,61670
35388,47466,61574
35258,47453,61484
35197,47451,61431
35110,47442,61359
34944,47418,61248
34801,47397,61152
34730,47388,61091
34629,47376,61008
34462,47355,60891
34338,47342,60800
34283,47339,60745
34187,47324,60669
34029,47300,60565
33913,47285,60489
33856,47281,60437
33762,47271,60357
33624,47257,60261
33541,47254,60205
33508,47258,60174
33416,47248,60109
33283,47227,60026
33221,47220,59980
33198,47221,59949
33102,47209,59880
32977,47191,59801
32933,47189,59764
32921,47194,59741
32833,47187,59678
32717,47176,59606
32677,47175,59574
32657,47176,59552
32563,47162,59495
32461,47146,59439
32444,47145,59426
32443,47148,59418
32364,47136,59371
32285,47123,59323
32289,47122,59315
32291,47120,59301
32211,47105,59249
32138,47095,59205
32148,47099,59201
32149,47101,59192
32069,47089,59149
31998,47079,59117
31998,47084,59115
31974,47084,59092
31881,47070,59034
31820,47059,58996
31826,47060,58990
31792,47053,58960
31688,47035,58899
31621,47025,58861
31613,47026,58849
31564,47020,58810
31466,47007,58746
31419,47001,58710
31416,47002,58694
31349,46994,58643
31231,46980,58572
31177,46978,58537
31172,46986,58524
31102,46983,58480
31003,46970,58426
30998,46969,58417
31058,46979,58438
31076,46982,58445
31098,46984,58465
31232,47000,58555
31434,47023,58691
31601,47040,58824
31790,47060,58982
32102,47098,59211
32468,47142,59475
32780,47175,59722
33101,47209,59986
33516,47261,60307
33942,47317,60633
34282,47357,60915
34609,47396,61196
34991,47445,61508
35333,47485,61788
35560,47506,61994
35765,47527,62183
36012,47561,62389
36200,47586,62548
36265,47591,62629
36309,47594,62691
36399,47605,62760
36435,47608,62780
36376,47597,62737
36328,47590,62696
36324,47592,62674
36256,47582,62613
36103,47556,62508
35982,47536,62426
35926,47528,62374
35826,47515,62288
35676,47496,62175
35585,47489,62099
35548,47490,62049
35458,47483,61963
35333,47472,61860
35283,47472,61808
35270,47478,61784
35180,47470,61720
35053,47452,61640
35006,47447,61603
35003,47451,61583
34933,47444,61527
34833,47433,61463
34809,47434,61442
34813,47439,61431
34742,47428,61379
34653,47413,61324
34647,47409,61313
34659,47407,61308
34595,47390,61262
34519,47371,61218
34519,47368,61219
34523,47370,61216
34458,47364,61170
34408,47364,61133
34445,47379,61142
34472,47391,61144
34416,47387,61108
34378,47385,61091
34430,47398,61120
34470,47406,61135
34439,47400,61111
34437,47397,61109
34510,47407,61148
34553,47411,61170
34529,47406,61160
34542,47408,61174
34620,47420,61221
34651,47425,61240
34609,47421,61226
34608,47424,61238
34663,47433,61273
34661,47428,61270
34596,47412,61236
34582,47405,61236
34612,47405,61256
34573,47397,61232
34486,47385,61182
34463,47385,61161
34468,47391,61147
34387,47382,61084
34261,47368,61000
34201,47367,60952
34166,47367,60915
34057,47353,60837
33923,47333,60749
33859,47327,60697
33811,47324,60648
33679,47304,60553
33529,47278,60453
33455,47267,60391
33388,47260,60329
33243,47243,60226
33101,47229,60127
33048,47229,60074
32999,47227,60019
32869,47212,59926
32747,47199,59844
32710,47196,59805
32658,47191,59755
32521,47172,59668
32403,47156,59595
32369,47152,59559
32319,47143,59506
32195,47123,59419
32102,47111,59354
32078,47112,59324
32019,47105,59276
31899,47088,59201
31820,47080,59151
31804,47084,59128
31747,47078,59081
31637,47063,59012
31583,47055,58976
31585,47055,58966
31529,47043,58928
31426,47026,58875
31388,47020,58858
31389,47020,58860
31314,47008,58823
31198,46995,58767
31160,46998,58745
31165,47010,58736
31099,47006,58692
30996,46992,58637
30964,46988,58617
30961,46990,58604
30885,46982,58555
30785,46970,58499
30760,46969,58478
30759,46970,58462
30687,46960,58410
30601,46950,58356
30583,46952,58333
30569,46953,58307
30485,46941,58251
30408,46930,58209
30417,46932,58212
30437,46934,58215
30406,46926,58196
30416,46925,58211
30535,46942,58291
30676,46962,58385
30786,46974,58473
30963,46994,58609
31259,47031,58808
31565,47069,59013
31834,47099,59209
32160,47137,59450
32563,47188,59741
32928,47230,60014
33221,47259,60257
33548,47296,60525
33923,47340,60813
34230,47373,61052
34452,47395,61246
34696,47424,61459
34959,47457,61675
35125,47473,61818
35210,47477,61904
35330,47489,62002
35458,47504,62096
35480,47503,62123
35432,47493,62109
35433,47494,62117
35450,47500,62119
35374,47496,62059
35256,47486,61972
35203,47487,61918
35164,47491,61866
35038,47480,61765
34884,47465,61652
34801,47460,61579
34727,47452,61505
34574,47430,61390
34418,47407,61280
34348,47397,61219
34290,47388,61158
34161,47367,61055
34041,47349,60960
34001,47347,60911
33947,47345,60857
33806,47327,60765
33677,47311,60685
33626,47307,60644
33557,47295,60586
33413,47269,60490
33290,47246,60411
33239,47238,60366
33159,47228,60302
33017,47209,60211
32918,47198,60148
32894,47199,60119
32838,47196,60065
32734,47185,59989
32693,47186,59956
32722,47197,59959
32707,47197,59936
32651,47186,59905
32668,47186,59925
32744,47196,59978
32764,47197,59997
32757,47193,60004
32835,47204,60058
32955,47223,60133
32996,47230,60168
32997,47232,60187
33074,47246,60246
33182,47264,60315
33206,47266,60336
33193,47263,60343
33250,47276,60385
33318,47288,60425
33294,47282,60413
33246,47269,60392
33270,47271,60409
33292,47275,60421
33232,47267,60384
33170,47258,60347
33179,47258,60345
33172,47253,60325
33071,47232,60252
32965,47214,60180
32930,47211,60149
32877,47205,60107
32742,47187,60025
32629,47175,59955
32602,47178,59921
32556,47179,59867
32433,47166,59777
32332,47156,59705
32294,47155,59663
32222,47148,59597
32087,47129,59500
31996,47119,59427
31966,47117,59382
31884,47105,59308
31738,47084,59212
31640,47073,59152
31594,47070,59121
31491,47057,59058
31346,47039,58974
31274,47033,58925
31250,47033,58894
31162,47021,58827
31037,47003,58744
30991,47000,58701
30992,47007,58677
30927,47000,58623
30829,46986,58560
30802,46986,58535
30801,46989,58519
30722,46979,58465
30619,46968,58404
30594,46969,58379
30589,46972,58362
30509,46961,58310
30417,46946,58262
30401,46945,58255
30393,46945,58249
30307,46928,58206
30218,46911,58165
30209,46912,58158
30196,46912,58146
30106,46898,58100
30029,46888,58064
30038,46895,58064
30039,46899,58054
29962,46890,58009
29903,46883,57977
29913,46885,57976
29897,46882,57957
29818,46871,57911
29782,46867,57887
29829,46874,57900
29861,46877,57910
29857,46874,57915
29938,46885,57972
30126,46910,58083
30310,46934,58197
30473,46955,58320
30729,46990,58506
31074,47032,58746
31392,47063,58976
31690,47087,59207
32068,47125,59491
32493,47172,59801
32842,47207,60071
33143,47236,60321
33507,47277,60603
33890,47322,60885
34173,47351,61103
34390,47372,61283
34644,47402,61480
34884,47432,61659
35011,47445,61768
35085,47453,61847
35204,47474,61942
35303,47495,62008
35294,47496,62002
35248,47491,61978
35253,47498,61982
35239,47501,61962
35133,47486,61878
35022,47471,61792
34986,47472,61747
34927,47468,61685
34774,47447,61572
34630,47426,61469
34567,47419,61405
34491,47409,61328
34341,47384,61216
34222,47365,61130
34183,47362,61092
34117,47358,61037
33985,47344,60952
33898,47336,60894
33887,47339,60867
33841,47335,60813
33734,47322,60730
33662,47317,60679
33638,47318,60653
33555,47306,60590
33420,47282,60499
33344,47265,60445
33311,47255,60411
33208,47235,60334
33070,47212,60239
33025,47206,60193
33043,47212,60177
33000,47212,60133
32926,47209,60085
32935,47217,60083
32988,47228,60097
32970,47225,60078
32927,47217,60053
32966,47221,60076
33037,47228,60115
33037,47222,60122
33026,47215,60131
33099,47226,60189
33192,47244,60251
33213,47250,60273
33226,47255,60298
33314,47272,60366
33397,47289,60426
33401,47290,60441
33407,47292,60459
33486,47304,60509
33544,47309,60535
33507,47298,60510
33474,47290,60493
33514,47296,60509
33524,47297,60503
33446,47285,60454
33384,47280,60421
33385,47286,60417
33350,47286,60385
33248,47276,60317
33182,47270,60269
33172,47270,60241
33104,47258,60177
32964,47234,60083
32867,47221,60020
32822,47220,59980
32720,47209,59901
32562,47187,59795
32464,47175,59723
32413,47168,59670
32288,47148,59580
32121,47124,59474
32037,47116,59410
31999,47114,59361
31888,47099,59274
31741,47079,59176
31666,47072,59117
31610,47066,59064
31468,47044,58969
31299,47021,58867
31215,47013,58811
31156,47007,58764
31019,46987,58678
30878,46966,58590
30833,46960,58549
30805,46958,58515
30699,46944,58446
30597,46931,58384
30581,46931,58365
30562,46930,58342
30464,46917,58284
30385,46908,58239
30398,46916,58238
30398,46921,58231
30314,46911,58187
30245,46904,58155
30252,46911,58154
30237,46912,58131
30150,46900,58074
30098,46895,58034
30122,46900,58027
30108,46898,58005
30021,46886,57955
29967,46882,57926
29967,46886,57923
29920,46879,57894
29823,46861,57844
29784,46851,57824
29799,46851,57824
29757,46843,57793
29674,46830,57744
29668,46833,57735
29713,46843,57750
29692,46838,57736
29650,46826,57718
29714,46831,57754
29847,46845,57824
29933,46848,57880
30024,46850,57954
30238,46872,58099
30522,46904,58285
30769,46931,58461
31040,46963,58665
31439,47018,58946
31889,47082,59259
32280,47135,59550
32678,47187,59851
33160,47252,60200
33636,47316,60542
34001,47361,60823
34327,47404,61087
34695,47456,61373
35015,47494,61620
35204,47508,61787
35362,47518,61934
35560,47540,62090
35705,47554,62201
35740,47551,62247
35770,47552,62290
35843,47563,62346
35855,47564,62351
35773,47549,62296
35710,47537,62253
35698,47535,62233
35630,47527,62175
35487,47509,62081
35383,47497,62010
35335,47493,61963
35240,47480,61881
35104,47456,61780
35036,47444,61724
35023,47442,61695
34954,47433,61628
34847,47419,61545
34814,47420,61507
34821,47426,61492
34750,47419,61438
34641,47404,61373
34612,47402,61354
34619,47407,61352
34558,47400,61308
34474,47387,61253
34461,47386,61236
34457,47387,61220
34371,47375,61156
34267,47359,61083
34235,47359,61047
34211,47362,61011
34106,47352,60932
33999,47340,60860
33984,47343,60843
33976,47346,60830
33893,47335,60779
33825,47327,60738
33851,47335,60748
33876,47341,60756
33829,47333,60730
33804,47329,60725
33861,47340,60764
33904,47346,60790
33877,47337,60782
33877,47331,60794
33948,47335,60840
33989,47337,60865
33963,47329,60856
33972,47326,60870
34037,47331,60911
34054,47328,60921
34007,47316,60898
34009,47314,60903
34070,47321,60930
34074,47319,60918
34018,47309,60879
34011,47309,60877
34041,47317,60891
33994,47314,60857
33901,47305,60796
33880,47309,60773
33895,47319,60766
33827,47313,60718
33713,47298,60648
33665,47293,60611
33643,47288,60581
33545,47270,60508
33422,47251,60423
33372,47248,60374
33336,47248,60328
33215,47235,60241
33078,47220,60153
33020,47217,60108
32966,47215,60063
32829,47196,59976
32691,47175,59893
32636,47168,59851
32583,47164,59800
32460,47148,59710
32353,47139,59631
32327,47148,59594
32284,47155,59549
32162,47147,59469
32060,47139,59406
32035,47140,59376
31992,47134,59327
31879,47114,59245
31800,47101,59184
31796,47099,59162
31762,47091,59126
31664,47069,59067
31605,47053,59035
31608,47052,59030
31569,47048,58997
31473,47037,58942
31427,47032,58919
31434,47036,58921
31389,47028,58889
31305,47015,58838
31289,47016,58825
31311,47024,58830
31255,47015,58797
31159,46995,58745
31138,46990,58727
31153,46992,58720
31089,46981,58674
30985,46964,58615
30950,46960,58589
30946,46962,58570
30873,46952,58518
30782,46941,58467
30767,46945,58457
30767,46951,58453
30692,46944,58412
30608,46935,58369
30595,46937,58359
30583,46938,58342
30494,46927,58282
30411,46919,58227
30407,46927,58210
30397,46930,58190
30310,46916,58137
30239,46904,58098
30251,46907,58101
30258,46910,58102
30215,46903,58087
30229,46909,58108
30353,46933,58186
30489,46954,58272
30602,46966,58357
30797,46989,58496
31103,47028,58700
31409,47063,58909
31689,47092,59120
32047,47133,59388
32488,47185,59702
32893,47230,59993
33251,47265,60264
33656,47309,60576
34087,47360,60903
34427,47397,61172
34690,47422,61397
34989,47458,61643
35294,47500,61887
35482,47523,62060
35589,47534,62181
35736,47555,62313
35887,47577,62433
35927,47580,62481
35903,47574,62490
35929,47579,62520
35958,47589,62537
35893,47584,62489
35798,47573,62419
35769,47572,62384
35740,47569,62346
35618,47551,62259
35479,47531,62168
35422,47527,62123
35373,47524,62076
35244,47505,61981
35120,47488,61891
35083,47484,61852
35046,47479,61812
34935,47461,61738
34848,47445,61682
34854,47443,61668
34848,47440,61641
34771,47426,61579
34719,47415,61540
34737,47417,61542
34721,47414,61522
34637,47403,61463
34594,47404,61424
34615,47418,61406
34591,47421,61356
34500,47411,61275
34451,47408,61227
34454,47413,61210
34402,47407,61160
34301,47391,61090
34268,47388,61064
34289,47393,61064
34242,47383,61027
34156,47364,60970
34148,47360,60958
34188,47366,60972
34158,47361,60952
34098,47355,60919
34123,47366,60930
34187,47382,60954
34180,47382,60939
34149,47375,60922
34195,47380,60951
34260,47389,60987
34247,47384,60983
34216,47375,60982
34262,47380,61026
34317,47386,61068
34295,47380,61066
34273,47377,61067
34339,47390,61113
34402,47401,61153
34377,47396,61143
34349,47390,61137
34392,47398,61167
34413,47402,61177
34347,47392,61138
34287,47385,61105
34295,47391,61102
34277,47389,61077
34177,47372,61011
34101,47358,60962
34090,47354,60942
34040,47344,60895
33918,47322,60811
33837,47311,60751
33821,47313,60718
33761,47308,60656
33643,47297,60572
33574,47294,60522
33557,47296,60493
33482,47285,60422
33362,47265,60328
33304,47255,60274
33283,47254,60244
33187,47243,60177
33054,47230,60092
32998,47230,60046
32978,47233,60015
32879,47219,59946
32745,47198,59864
32691,47194,59822
32669,47196,59789
32567,47184,59713
32441,47165,59632
32393,47158,59595
32362,47152,59564
32253,47134,59496
32134,47119,59431
32098,47119,59408
32075,47118,59383
31977,47102,59317
31881,47085,59257
31870,47084,59239
31853,47083,59216
31755,47068,59158
31671,47059,59114
31676,47069,59109
31672,47075,59096
31592,47064,59047
31529,47056,59007
31538,47060,58996
31522,47062,58966
31435,47051,58903
31378,47045,58860
31387,47052,58849
31363,47052,58819
31279,47042,58764
31235,47035,58736
31242,47037,58735
31196,47029,58707
31092,47011,58656
31036,47002,58635
31025,47000,58635
30956,46989,58598
30848,46973,58539
30815,46970,58515
30824,46975,58508
30755,46966,58463
30642,46948,58402
30605,46943,58377
30605,46947,58363
30524,46937,58312
30411,46923,58248
30372,46920,58217
30361,46919,58195
30280,46905,58141
30192,46892,58092
30202,46896,58096
30253,46902,58121
30263,46899,58131
30313,46902,58168
30485,46927,58274
30703,46960,58405
30885,46983,58525
31111,47008,58685
31449,47047,58919
31805,47085,59173
32107,47112,59411
32448,47148,59681
32886,47201,60005
33305,47253,60319
33640,47290,60593
33984,47331,60882
34375,47382,61197
34703,47423,61467
34930,47452,61670
35160,47485,61867
35417,47523,62064
35586,47547,62201
35653,47556,62280
35734,47568,62364
35841,47583,62452
35864,47583,62476
35806,47572,62450
35790,47570,62448
35806,47576,62455
35736,47566,62400
35605,47546,62309
35538,47538,62254
35502,47536,62214
35382,47518,62129
35225,47492,62027
35153,47481,61972
35131,47479,61932
35047,47468,61850
34947,47455,61761
34925,47455,61722
34921,47460,61697
34840,47454,61638
34754,47447,61582
34759,47453,61577
34780,47459,61576
34726,47451,61536
34671,47442,61504
34693,47446,61517
34709,47450,61519
34640,47440,61469
34574,47431,61422
34585,47434,61421
34581,47432,61407
34489,47416,61349
34406,47401,61300
34403,47402,61289
34380,47401,61260
34285,47386,61194
34226,47377,61151
34243,47381,61145
34226,47377,61118
34142,47363,61060
34102,47361,61033
34132,47369,61044
34125,47369,61030
34063,47360,60991
34052,47360,60988
34099,47369,61013
34094,47368,61005
34047,47357,60977
34069,47357,60995
34137,47367,61041
34135,47367,61047
34094,47364,61036
34134,47374,61066
34216,47389,61108
34219,47388,61103
34176,47382,61081
34197,47387,61098
34232,47395,61116
34180,47389,61083
34103,47381,61039
34094,47385,61033
34090,47389,61024
33997,47377,60964
33886,47359,60894
33847,47351,60861
33811,47342,60822
33698,47321,60737
33586,47301,60655
33553,47297,60617
33506,47292,60567
33373,47272,60470
33250,47253,60380
33208,47248,60331
33150,47239,60269
33011,47218,60171
32895,47206,60094
32858,47209,60057
32801,47208,60000
32672,47196,59907
32574,47187,59838
32546,47188,59805
32485,47182,59753
32358,47163,59677
32267,47151,59626
32238,47150,59603
32169,47139,59552
32048,47120,59475
31981,47112,59430
31966,47111,59409
31892,47098,59356
31773,47080,59285
31722,47076,59252
31719,47079,59240
31650,47071,59194
31547,47056,59132
31527,47055,59112
31551,47063,59109
31495,47059,59068
31402,47051,59014
31386,47056,59001
31400,47062,58996
31335,47050,58952
31246,47033,58902
31236,47030,58892
31242,47032,58885
31168,47019,58839
31083,47006,58790
31076,47007,58778
31075,47009,58761
30999,47000,58704
30927,46993,58654
30933,46996,58648
30929,46993,58637
30841,46975,58587
30764,46959,58547
30770,46957,58544
30764,46954,58528
30682,46941,58475
30620,46935,58439
30629,46945,58435
30609,46946,58412
30515,46933,58357
30449,46928,58320
30446,46934,58310
30403,46934,58279
30295,46921,58221
30227,46915,58186
30220,46920,58174
30174,46918,58134
30081,46906,58075
30039,46902,58047
30043,46905,58038
29994,46897,58000
29923,46882,57957
29948,46884,57970
30044,46894,58025
30100,46894,58067
30154,46894,58119
30321,46915,58234
30567,46950,58390
30786,46980,58541
31020,47007,58717
31363,47049,58959
31755,47099,59229
32089,47136,59476
32421,47171,59735
32834,47219,60049
33248,47266,60366
33567,47300,60630
33863,47333,60883
34213,47377,61163
34532,47417,61414
34738,47440,61592
34911,47458,61749
35122,47482,61920
35286,47499,62048
35338,47498,62104
35370,47497,62145
35447,47503,62199
35477,47501,62211
35414,47489,62165
35359,47481,62125
35353,47483,62111
35294,47477,62062
35158,47459,61969
35058,47446,61895
35019,47445,61849
34934,47438,61773
34792,47424,61672
34703,47421,61606
34670,47426,61568
34592,47419,61496
34475,47404,61407
34425,47403,61365
34423,47410,61355
34360,47405,61312
34262,47391,61253
34240,47391,61238
34259,47400,61242
34205,47396,61204
34110,47386,61149
34079,47387,61127
34076,47390,61108
34003,47379,61044
33910,47365,60972
33888,47362,60941
33877,47360,60914
33786,47344,60844
33683,47328,60770
33660,47328,60739
33648,47329,60712
33565,47319,60653
33486,47311,60610
33490,47317,60616
33496,47321,60617
33431,47310,60577
33382,47299,60551
33420,47302,60572
33454,47303,60588
33412,47290,60567
33391,47283,60561
33455,47292,60593
33505,47299,60610
33491,47295,60598
33503,47297,60608
33577,47309,60647
33607,47315,60663
33567,47309,60649
33570,47310,60660
33634,47319,60697
33645,47318,60701
33589,47309,60676
33574,47307,60677
33601,47311,60692
33558,47301,60657
33454,47285,60585
33407,47283,60540
33395,47288,60501
33305,47279,60412
33176,47261,60297
33128,47258,60220
33122,47261,60157
33040,47249,60056
32917,47229,59948
32863,47220,59882
32833,47213,59824
32722,47195,59726
32594,47177,59626
32549,47174,59572
32518,47171,59526
32403,47152,59443
32279,47132,59362
32234,47125,59321
32193,47119,59275
32069,47103,59186
31949,47089,59104
31912,47087,59069
31867,47084,59029
31740,47069,58946
31632,47059,58874
31615,47064,58849
31582,47065,58817
31473,47053,58752
31396,47044,58706
31398,47047,58698
31366,47045,58667
31259,47030,58601
31195,47020,58557
31203,47022,58548
31171,47019,58516
31074,47005,58454
31023,46998,58422
31029,47002,58416
30980,46997,58378
30877,46980,58317
30833,46972,58292
30839,46974,58292
30784,46968,58257
30692,46955,58204
30675,46956,58191
30698,46964,58195
30643,46956,58161
30551,46937,58112
30540,46931,58102
30564,46933,58104
30510,46924,58066
30426,46912,58019
30418,46915,58011
30428,46921,58011
30355,46913,57972
30269,46905,57930
30263,46911,57925
30266,46918,57918
30186,46908,57870
30102,46897,57821
30102,46902,57809
30098,46906,57789
30002,46891,57725
29903,46877,57665
29880,46874,57642
29839,46867,57608
29711,46850,57537
29600,46837,57479
29575,46837,57456
29539,46834,57423
29434,46817,57360
29364,46805,57320
29378,46805,57318
29371,46800,57305
29318,46786,57275
29338,46784,57287
29459,46798,57349
29569,46808,57413
29653,46816,57478
29828,46842,57601
30103,46883,57780
30361,46917,57952
30599,46945,58127
30932,46986,58366
31333,47036,58641
31671,47073,58881
31970,47102,59104
32347,47146,59373
32755,47197,59659
33058,47231,59891
33291,47257,60089
33578,47294,60310
33873,47334,60516
34054,47357,60651
34171,47373,60748
34326,47397,60859
34455,47414,60946
34464,47413,60962
34430,47409,60954
34457,47417,60975
34472,47424,60979
34383,47415,60923
34275,47402,60861
34238,47398,60837
34182,47389,60797
34033,47365,60699
33898,47344,60609
33858,47339,60567
33806,47330,60515
33674,47307,60417
33567,47291,60334
33555,47293,60296
33531,47291,60241
33430,47276,60153
33358,47268,60092
33358,47268,60077
33317,47260,60046
33202,47239,59985
33128,47226,59950
33119,47227,59943
33061,47222,59900
32942,47206,59825
32876,47201,59780
32874,47207,59762
32818,47201,59710
32717,47185,59640
32689,47182,59615
32709,47187,59612
32651,47181,59570
32554,47168,59511
32546,47168,59496
32588,47177,59501
32556,47172,59470
32496,47161,59431
32528,47167,59441
32602,47181,59471
32602,47183,59469
32584,47184,59470
32652,47200,59521
32734,47216,59576
32728,47214,59588
32710,47207,59598
32778,47211,59649
32853,47214,59694
32841,47204,59691
32828,47196,59694
32896,47205,59739
32950,47212,59773
32908,47202,59758
32870,47192,59746
32915,47196,59772
32941,47199,59783
32870,47188,59745
32810,47180,59715
32827,47186,59715
32815,47190,59686
32726,47182,59614
32665,47180,59561
32666,47188,59543
32618,47188,59498
32491,47174,59416
32403,47166,59354
32380,47166,59316
32312,47158,59251
32191,47143,59165
32126,47136,59119
32112,47135,59099
32029,47120,59038
31897,47098,58951
31836,47091,58904
31813,47093,58879
31704,47079,58814
31547,47056,58728
31474,47047,58678
31446,47045,58643
31347,47029,58570
31225,47011,58493
31191,47008,58460
31184,47009,58439
31089,46996,58376
30971,46980,58306
30939,46980,58281
30930,46985,58264
30847,46974,58209
30758,46962,58157
30755,46966,58149
30758,46971,58138
30675,46959,58084
30593,46949,58037
30591,46953,58033
30573,46952,58019
30473,46936,57963
30395,46923,57919
30406,46927,57915
30399,46930,57899
30312,46920,57848
30251,46915,57814
30269,46921,57817
30260,46922,57802
30181,46911,57757
30139,46906,57734
30168,46909,57744
30157,46903,57733
30084,46886,57694
30061,46878,57685
30095,46879,57702
30073,46871,57689
29996,46856,57652
29984,46856,57645
30024,46867,57654
29995,46866,57624
29915,46856,57570
29902,46858,57549
29924,46870,57544
29863,46869,57504
29761,46860,57451
29736,46863,57430
29743,46866,57415
29663,46849,57360
29552,46828,57300
29527,46823,57280
29533,46822,57272
29466,46810,57235
29402,46799,57206
29450,46805,57232
29549,46819,57278
29608,46825,57305
29702,46835,57357
29915,46861,57477
30162,46889,57623
30350,46907,57756
30575,46933,57923
30916,46979,58156
31265,47024,58395
31540,47053,58604
31844,47086,58833
32239,47133,59105
32609,47176,59356
32884,47202,59562
33165,47231,59781
33492,47269,60019
33754,47301,60206
33916,47318,60333
34086,47339,60464
34284,47364,60598
34394,47376,60673
34409,47375,60695
34451,47379,60728
34525,47391,60769
34516,47390,60754
34434,47379,60700
34403,47376,60673
34400,47377,60654
34301,47362,60576
34143,47338,60469
34059,47326,60402
34006,47317,60351
33861,47295,60255
33678,47270,60143
33584,47258,60078
33531,47251,60029
33402,47233,59939
33258,47212,59848
33210,47207,59807
33185,47208,59777
33080,47193,59708
32967,47176,59636
32938,47172,59602
32911,47166,59567
32798,47149,59491
32689,47136,59422
32673,47140,59402
32659,47144,59380
32562,47134,59317
32480,47122,59264
32487,47121,59254
32480,47115,59234
32385,47097,59173
32313,47086,59124
32333,47091,59113
32334,47090,59091
32256,47076,59040
32216,47069,59020
32255,47077,59041
32258,47080,59040
32200,47072,59013
32198,47073,59017
32274,47083,59054
32307,47087,59068
32285,47084,59066
32330,47093,59102
32438,47112,59165
32482,47121,59186
32473,47122,59183
32531,47133,59220
32630,47151,59274
32640,47151,59281
32594,47143,59261
32624,47151,59279
32690,47164,59309
32659,47159,59292
32574,47149,59256
32559,47152,59257
32571,47157,59264
32501,47144,59224
32407,47125,59170
32397,47119,59149
32395,47114,59124
32295,47094,59047
32175,47074,58964
32136,47068,58924
32096,47065,58879
31967,47048,58791
31834,47032,58708
31782,47030,58666
31723,47025,58618
31578,47003,58531
31446,46985,58455
31406,46982,58418
31352,46977,58371
31209,46956,58286
31089,46939,58216
31056,46938,58182
30998,46934,58130
30865,46918,58048
30768,46910,57991
30749,46912,57971
30692,46906,57929
30561,46887,57855
30475,46878,57806
30458,46881,57788
30397,46878,57746
30286,46865,57684
30239,46863,57658
30240,46868,57650
30174,46859,57603
30062,46841,57538
30022,46836,57513
30025,46835,57508
29954,46818,57467
29853,46798,57413
29842,46793,57397
29867,46796,57393
29805,46785,57351
29710,46769,57300
29697,46768,57289
29705,46768,57284
29630,46756,57238
29543,46743,57188
29544,46747,57177
29562,46757,57169
29499,46755,57123
29428,46753,57079
29443,46764,57076
29460,46773,57074
29394,46768,57036
29332,46763,57006
29355,46770,57015
29363,46774,57017
29282,46763,56977
29218,46755,56943
29240,46759,56946
29241,46757,56939
29162,46743,56897
29111,46734,56870
29129,46735,56871
29109,46727,56846
29017,46707,56791
28962,46696,56760
28963,46698,56753
28913,46692,56721
28798,46674,56664
28737,46664,56635
28740,46663,56628
28696,46655,56595
28607,46640,56546
28586,46640,56533
28626,46648,56546
28620,46645,56538
28598,46634,56529
28685,46641,56576
28856,46660,56665
28990,46675,56743
29129,46691,56834
29389,46729,56991
29726,46778,57187
30018,46817,57373
30309,46854,57576
30692,46905,57833
31103,46955,58102
31436,46991,58331
31749,47023,58557
32130,47061,58817
32499,47096,59062
32761,47116,59247
32996,47138,59422
33285,47176,59623
33540,47211,59795
33677,47227,59898
33787,47238,59988
33942,47257,60098
34038,47267,60168
34011,47260,60168
33985,47257,60163
34032,47269,60184
34052,47274,60176
33984,47263,60122
33927,47254,60079
33919,47255,60060
33855,47246,60013
33718,47225,59931
33628,47213,59876
33611,47213,59854
33555,47207,59806
33443,47190,59733
33389,47185,59696
33400,47192,59688
33363,47191,59650
33285,47181,59594
33274,47179,59580
33306,47182,59585
33267,47173,59547
33193,47158,59493
33203,47158,59485
33256,47166,59502
33227,47162,59481
33159,47150,59447
33163,47149,59448
33189,47153,59452
33131,47144,59406
33051,47134,59351
33056,47139,59339
33078,47148,59333
33018,47140,59291
32948,47128,59254
32960,47128,59264
32983,47129,59272
32929,47116,59237
32885,47104,59208
32934,47108,59227
32982,47114,59242
32956,47110,59222
32947,47111,59218
33024,47127,59257
33085,47141,59283
33066,47141,59271
33067,47144,59276
33145,47157,59315
33193,47162,59335
33167,47154,59322
33173,47151,59333
33243,47158,59377
33267,47156,59394
33220,47141,59371
33215,47135,59364
33270,47139,59380
33265,47138,59363
33187,47131,59317
33151,47132,59299
33154,47137,59295
33087,47127,59247
32967,47108,59176
32910,47102,59140
32888,47100,59116
32785,47084,59047
32637,47063,58957
32564,47057,58902
32525,47056,58861
32411,47043,58785
32266,47026,58702
32198,47022,58655
32159,47022,58613
32052,47008,58533
31929,46993,58449
31879,46993,58405
31840,46996,58369
31726,46985,58297
31610,46969,58225
31578,46967,58192
31551,46965,58157
31449,46951,58086
31352,46941,58023
31336,46942,58002
31310,46939,57974
31201,46922,57910
31105,46906,57856
31087,46904,57834
31049,46897,57796
30934,46877,57725
30844,46863,57673
30830,46863,57654
30790,46856,57617
30684,46838,57553
30613,46826,57512
30606,46824,57498
30561,46816,57463
30455,46799,57401
30394,46790,57364
30392,46794,57352
30347,46791,57317
30254,46777,57265
30217,46772,57248
30224,46772,57247
30167,46762,57210
30077,46747,57157
30064,46748,57143
30095,46757,57147
30053,46756,57118
29971,46752,57075
29961,46760,57063
29980,46771,57057
29911,46764,57012
29800,46747,56957
29755,46740,56934
29726,46733,56912
29618,46711,56852
29500,46689,56792
29469,46679,56772
29455,46673,56757
