green_channel,red_channel,ir_channel
30122,56761,5237
30193,56779,5314
30266,56795,5394
30339,56810,5476
30413,56826,5560
30487,56843,5644
30558,56860,5726
30628,56876,5807
30694,56891,5884
30756,56903,5957
30812,56914,6025
30863,56925,6088
30908,56937,6146
30950,56948,6197
30986,56958,6239
31012,56967,6270
31030,56974,6291
31037,56977,6303
31038,56977,6307
31032,56975,6305
31021,56972,6297
31004,56968,6285
30985,56964,6273
30966,56959,6257
30946,56954,6239
30922,56949,6218
30898,56944,6197
30875,56940,6177
30851,56935,6158
30829,56928,6140
30814,56923,6127
30808,56921,6118
30807,56920,6112
30810,56919,6111
30812,56916,6112
30814,56913,6114
30817,56912,6116
30822,56913,6120
30828,56915,6126
30833,56918,6135
30836,56920,6144
30839,56922,6155
30842,56923,6166
30844,56924,6174
30845,56923,6179
30843,56922,6181
30840,56920,6183
30837,56919,6183
30833,56917,6181
30831,56916,6177
30831,56917,6171
30829,56920,6162
30824,56923,6150
30819,56925,6134
30816,56925,6117
30813,56923,6101
30808,56920,6086
30799,56917,6071
30786,56914,6060
30777,56913,6051
30771,56912,6045
30770,56911,6040
30771,56909,6036
30773,56909,6033
30774,56910,6032
30773,56911,6033
30770,56912,6031
30763,56911,6028
30752,56909,6023
30740,56906,6020
30726,56901,6015
30714,56895,6008
30705,56889,6004
30700,56885,6002
30696,56882,6000
30692,56880,5995
30686,56878,5987
30675,56875,5976
30663,56871,5966
30651,56866,5955
30635,56861,5943
30615,56855,5931
30596,56847,5918
30579,56840,5903
30559,56832,5887
30536,56826,5868
30511,56819,5848
30484,56812,5827
30455,56806,5804
30426,56801,5780
30398,56797,5755
30372,56793,5730
30345,56788,5702
30317,56783,5673
30290,56779,5643
30263,56773,5613
30238,56767,5584
30213,56761,5557
30189,56757,5532
30164,56753,5508
30140,56749,5485
30116,56744,5462
30091,56736,5437
30064,56727,5411
30037,56715,5385
30010,56702,5356
29985,56689,5328
29960,56676,5299
29933,56665,5271
29906,56657,5245
29879,56651,5220
29850,56647,5196
29822,56644,5174
29798,56643,5155
29780,56643,5139
29767,56643,5123
29756,56642,5108
29745,56639,5093
29734,56635,5077
29725,56630,5061
29717,56626,5046
29709,56624,5033
29700,56621,5019
29687,56618,5002
29669,56614,4982
29648,56611,4961
29628,56609,4937
29608,56608,4910
29588,56607,4885
29568,56605,4863
29549,56603,4845
29529,56598,4831
29508,56591,4816
29485,56584,4799
29463,56576,4778
29443,56568,4759
29419,56558,4739
29390,56549,4718
29360,56543,4696
29337,56539,4673
29318,56534,4649
29302,56531,4627
29286,56528,4607
29273,56526,4588
29263,56524,4575
29260,56524,4569
29264,56527,4571
29275,56532,4580
29296,56540,4595
29328,56550,4618
29368,56560,4651
29415,56572,4693
29468,56584,4745
29527,56596,4807
29591,56611,4877
29660,56626,4952
29735,56644,5032
29811,56665,5116
29887,56688,5203
29965,56710,5292
30041,56731,5382
30117,56751,5472
30192,56770,5561
30263,56787,5645
30331,56802,5725
30396,56815,5801
30456,56828,5870
30508,56843,5930
30550,56855,5979
30581,56864,6016
30602,56871,6043
30618,56876,6062
30629,56880,6074
30636,56881,6078
30639,56880,6078
30637,56880,6075
30634,56879,6069
30632,56878,6062
30633,56875,6055
30637,56873,6049
30642,56874,6045
30649,56875,6045
30654,56876,6047
30657,56877,6048
30655,56877,6045
30649,56878,6041
30642,56880,6040
30635,56881,6040
30629,56879,6038
30628,56876,6037
30632,56873,6038
30642,56873,6043
30656,56875,6052
30675,56880,6065
30695,56884,6082
30716,56890,6099
30734,56898,6115
30751,56907,6130
30764,56913,6144
30774,56917,6152
30781,56918,6156
30783,56919,6154
30781,56919,6146
30777,56917,6137
30775,56915,6127
30773,56913,6118
30771,56912,6111
30770,56911,6104
30769,56909,6099
30770,56907,6096
30771,56905,6095
30772,56903,6094
30773,56902,6094
30774,56901,6094
30778,56902,6093
30787,56906,6091
30797,56909,6090
30807,56911,6093
30817,56913,6097
30826,56915,6102
30834,56916,6109
30842,56919,6117
30851,56923,6128
30862,56927,6141
30875,56931,6155
30889,56936,6168
30905,56940,6180
30921,56944,6190
30935,56947,6195
30947,56949,6196
30957,56950,6195
30965,56949,6193
30971,56948,6194
30976,56947,6196
30983,56948,6197
30987,56950,6197
30986,56950,6195
30980,56949,6191
30973,56948,6184
30966,56946,6176
30957,56945,6164
30947,56943,6149
30935,56941,6132
30921,56939,6114
30908,56939,6097
30892,56936,6079
30874,56932,6058
30854,56927,6038
30834,56921,6018
30816,56914,5998
30800,56908,5978
30785,56902,5959
30769,56897,5941
30754,56893,5923
30740,56890,5905
30729,56887,5888
30721,56887,5873
30713,56887,5862
30705,56886,5852
30696,56884,5843
30689,56882,5835
30682,56879,5827
30673,56877,5818
30662,56875,5807
30651,56872,5795
30639,56869,5783
30628,56865,5770
30617,56861,5754
30606,56857,5736
30594,56855,5715
30583,56852,5694
30572,56850,5673
30561,56846,5655
30547,56842,5640
30530,56839,5626
30518,56836,5612
30512,56834,5599
30508,56833,5585
30502,56831,5572
30493,56827,5557
30480,56822,5540
30462,56814,5520
30439,56805,5496
30412,56795,5469
30383,56785,5442
30352,56776,5415
30321,56767,5388
30291,56758,5360
30262,56750,5334
30236,56741,5307
30213,56735,5281
30193,56732,5257
30176,56730,5237
30158,56730,5220
30139,56729,5203
30121,56729,5182
30100,56730,5159
30077,56729,5134
30055,56726,5111
30034,56721,5087
30015,56714,5063
29997,56707,5036
29978,56700,5011
29961,56694,4989
29947,56690,4975
29941,56688,4968
29945,56690,4971
29959,56694,4984
29986,56699,5012
30027,56708,5056
30083,56722,5114
30155,56740,5188
30239,56762,5273
30334,56787,5369
30438,56815,5473
30546,56842,5582
30657,56870,5694
30769,56901,5811
30882,56933,5928
30992,56964,6044
31096,56992,6159
31195,57018,6269
31289,57042,6375
31377,57065,6476
31458,57084,6568
31533,57101,6651
31602,57117,6726
31664,57130,6793
31718,57142,6851
31766,57152,6903
31809,57161,6949
31847,57168,6988
31879,57175,7022
31905,57181,7050
31924,57187,7071
31939,57193,7086
31948,57198,7096
31956,57201,7106
31966,57204,7117
31975,57207,7129
31986,57211,7140
32000,57215,7153
32022,57219,7169
32049,57223,7186
32078,57228,7205
32107,57235,7226
32132,57241,7249
32155,57246,7273
32180,57251,7296
32205,57256,7319
32234,57260,7342
32263,57265,7365
32292,57270,7386
32317,57274,7407
32338,57277,7430
32356,57281,7452
32373,57286,7476
32390,57291,7501
32406,57294,7526
32421,57297,7548
32432,57298,7564
32441,57299,7574
32447,57300,7578
32450,57301,7576
32450,57300,7569
32447,57299,7560
32440,57296,7551
32430,57295,7543
32418,57294,7533
32403,57291,7523
32386,57287,7511
32368,57282,7498
32351,57276,7485
32336,57272,7473
32322,57270,7466
32311,57270,7461
32303,57270,7459
32301,57271,7459
32300,57273,7458
32301,57276,7458
32308,57281,7460
32317,57285,7465
32328,57288,7471
32339,57291,7478
32350,57293,7484
32362,57294,7490
32379,57294,7498
32399,57295,7511
32419,57297,7526
32437,57300,7541
32453,57304,7555
32467,57307,7568
32481,57310,7581
32492,57312,7592
32500,57313,7599
32506,57312,7601
32509,57310,7598
32511,57308,7594
32512,57309,7589
32511,57309,7585
32507,57308,7578
32500,57307,7568
32493,57307,7554
32488,57306,7538
32481,57306,7524
32473,57305,7510
32462,57302,7496
32449,57297,7481
32434,57292,7465
32416,57286,7447
32397,57280,7428
32376,57273,7405
32357,57267,7380
32338,57263,7355
32316,57259,7329
32293,57254,7306
32268,57250,7284
32244,57245,7260
32220,57240,7234
32195,57235,7207
32173,57229,7181
32151,57222,7154
32129,57213,7129
32107,57205,7106
32085,57198,7083
32064,57193,7059
32045,57186,7036
32028,57180,7014
32010,57176,6993
31991,57173,6974
31973,57169,6956
31954,57165,6935
31936,57160,6911
31917,57154,6889
31900,57147,6869
31885,57140,6849
31872,57135,6830
31861,57131,6811
31853,57127,6793
31846,57125,6777
31839,57125,6764
31835,57124,6751
31831,57123,6736
31823,57122,6721
31814,57121,6705
31803,57119,6688
31789,57118,6670
31775,57119,6651
31760,57118,6630
31744,57114,6610
31728,57112,6592
31714,57110,6574
31701,57108,6555
31690,57105,6536
31681,57101,6518
31671,57096,6502
31656,57091,6486
31636,57086,6469
31613,57082,6449
31592,57077,6429
31572,57071,6408
31553,57065,6385
31534,57061,6363
31514,57057,6340
31494,57054,6318
31474,57051,6297
31456,57047,6276
31437,57043,6255
31417,57038,6234
31401,57034,6214
31391,57031,6199
31386,57030,6189
31387,57032,6187
31397,57036,6194
31416,57041,6213
31445,57048,6244
31483,57057,6284
31533,57067,6334
31594,57079,6395
31665,57094,6465
31744,57114,6545
31830,57136,6634
31922,57160,6731
32016,57186,6834
32108,57213,6942
32200,57240,7054
32293,57268,7167
32388,57296,7280
32484,57323,7393
32578,57348,7502
32669,57372,7605
32755,57395,7707
32838,57416,7806
32915,57433,7898
32984,57449,7979
33047,57463,8052
33104,57475,8117
33155,57484,8171
33197,57490,8217
33231,57492,8254
33258,57494,8285
33280,57498,8311
33296,57503,8331
33308,57508,8345
33314,57513,8352
33313,57515,8354
33308,57516,8354
33305,57515,8352
33307,57516,8350
33309,57516,8350
33309,57517,8352
33311,57517,8358
33314,57517,8365
33319,57518,8371
33324,57520,8379
33329,57520,8391
33335,57521,8404
33341,57522,8418
33347,57525,8433
33351,57529,8448
33355,57533,8462
33358,57537,8475
33361,57540,8486
33362,57541,8494
33359,57541,8499
33354,57541,8505
33349,57542,8508
33343,57541,8508
33335,57538,8503
33325,57536,8496
33311,57532,8484
33294,57527,8469
33275,57521,8453
33256,57514,8438
33237,57506,8419
33216,57497,8398
33194,57489,8373
33170,57482,8348
33144,57475,8325
33119,57468,8305
33095,57462,8287
33072,57457,8270
33051,57453,8255
33033,57450,8241
33016,57448,8228
33003,57446,8218
32992,57443,8211
32980,57441,8205
32969,57439,8199
32960,57437,8195
32952,57436,8190
32942,57435,8184
32932,57433,8176
32919,57431,8166
32904,57427,8154
32885,57423,8140
32866,57417,8126
32849,57410,8113
32833,57403,8101
32818,57397,8089
32804,57391,8079
32791,57386,8069
32778,57384,8059
32762,57384,8049
32744,57385,8036
32726,57384,8019
32710,57383,7998
32692,57380,7973
32670,57374,7942
32640,57366,7909
32605,57357,7872
32566,57349,7833
32522,57340,7794
32477,57329,7755
32432,57317,7716
32388,57304,7677
32342,57289,7638
32294,57274,7597
32246,57259,7559
32200,57246,7522
32158,57233,7485
32119,57221,7448
32085,57211,7413
32053,57201,7380
32022,57192,7348
31993,57183,7317
31963,57175,7285
31932,57167,7254
31901,57161,7224
31872,57155,7196
31845,57150,7168
31818,57145,7140
31790,57139,7113
31760,57133,7088
31732,57128,7062
31705,57126,7035
31682,57125,7009
31660,57122,6984
31639,57118,6957
31616,57112,6928
31589,57104,6900
31558,57096,6871
31525,57087,6839
31488,57077,6805
31448,57069,6770
31406,57059,6734
31362,57049,6698
31317,57037,6662
31273,57026,6627
31233,57017,6593
31197,57008,6560
31162,56999,6527
31129,56989,6494
31099,56981,6461
31072,56973,6431
31049,56968,6405
31026,56965,6383
31004,56962,6364
30982,56958,6345
30957,56952,6323
30929,56944,6296
30900,56936,6264
30866,56928,6228
30824,56919,6191
30777,56909,6153
30728,56899,6114
30678,56887,6074
30628,56874,6033
30578,56859,5991
30528,56844,5950
30479,56829,5909
30433,56815,5870
30391,56803,5833
30350,56792,5798
30310,56784,5764
30270,56778,5729
30234,56773,5695
30201,56768,5663
30172,56763,5635
30147,56759,5613
30126,56757,5596
30112,56756,5586
30106,56757,5584
30107,56759,5591
30117,56764,5610
30140,56771,5641
30177,56781,5684
30225,56795,5737
30282,56810,5803
30345,56826,5880
30413,56844,5967
30487,56861,6062
30566,56880,6160
30646,56898,6259
30726,56918,6356
30805,56938,6450
30882,56959,6540
30953,56978,6627
31017,56995,6709
31073,57012,6783
31120,57026,6845
31161,57037,6899
31195,57045,6944
31218,57049,6980
31233,57052,7009
31241,57053,7028
31244,57052,7041
31243,57050,7050
31241,57047,7055
31240,57045,7056
31238,57044,7052
31232,57043,7046
31224,57040,7037
31216,57035,7025
31206,57030,7014
31194,57027,7005
31182,57025,6995
31173,57024,6985
31167,57024,6976
31164,57025,6969
31163,57027,6966
31166,57032,6968
31173,57037,6975
31185,57041,6983
31200,57044,6995
31218,57048,7009
31237,57052,7023
31255,57055,7038
31269,57058,7055
31277,57062,7073
31284,57066,7089
31289,57069,7101
31290,57069,7108
31288,57067,7113
31283,57064,7115
31274,57059,7115
31268,57055,7111
31261,57049,7104
31253,57043,7095
31245,57040,7083
31237,57039,7073
31230,57039,7063
31220,57039,7053
31208,57039,7041
31195,57040,7027
31185,57041,7013
31178,57043,6999
31172,57043,6986
31167,57042,6974
31160,57041,6964
31151,57040,6954
31140,57039,6946
31129,57038,6940
31121,57036,6935
31116,57037,6933
31117,57038,6934
31125,57040,6938
31139,57041,6944
31155,57042,6952
31172,57044,6961
31188,57046,6971
31204,57046,6979
31216,57044,6983
31222,57042,6985
31224,57043,6987
31224,57045,6987
31220,57047,6985
31213,57049,6983
31205,57050,6981
31196,57048,6976
31184,57045,6968
31171,57042,6959
31158,57038,6949
31144,57033,6940
31130,57030,6931
31117,57028,6918
31104,57025,6899
31090,57022,6878
31075,57019,6857
31055,57016,6833
31030,57012,6805
30999,57006,6776
30966,57000,6746
30930,56994,6714
30894,56987,6679
30859,56979,6644
30825,56971,6612
30792,56962,6582
30758,56953,6553
30723,56944,6527
30690,56937,6505
30663,56930,6486
30641,56925,6466
30621,56920,6445
30604,56915,6422
30587,56910,6397
30571,56904,6370
30554,56898,6345
30540,56894,6324
30529,56890,6304
30519,56887,6284
30509,56885,6267
30497,56882,6250
30485,56880,6235
30475,56878,6221
30469,56878,6208
30467,56878,6198
30468,56878,6188
30469,56879,6178
30469,56879,6169
30466,56880,6160
30460,56878,6149
30451,56876,6135
30442,56872,6121
30433,56869,6108
30425,56865,6097
30415,56861,6087
30405,56858,6077
30394,56856,6066
30385,56854,6053
30381,56852,6042
30379,56850,6029
30377,56846,6014
30376,56843,6000
30374,56842,5989
30371,56843,5978
30365,56846,5968
30357,56847,5959
30350,56846,5949
30345,56844,5936
30344,56841,5925
30343,56838,5919
30343,56836,5915
30346,56837,5913
30354,56838,5914
30369,56839,5923
30392,56842,5940
30426,56848,5969
30473,56858,6012
30532,56872,6070
30602,56889,6142
30677,56910,6225
30757,56933,6318
30840,56956,6417
30928,56980,6519
31021,57006,6624
31118,57033,6731
31218,57062,6838
31319,57091,6946
31416,57121,7050
31508,57148,7148
31591,57173,7240
31665,57194,7325
31730,57212,7400
31785,57225,7469
31831,57234,7529
31868,57241,7578
31895,57245,7616
31915,57247,7644
31931,57247,7667
31945,57246,7685
31954,57244,7699
31961,57241,7709
31966,57239,7717
31971,57238,7723
31976,57239,7725
31982,57242,7724
31989,57246,7725
31999,57251,7729
32011,57255,7734
32023,57259,7740
32034,57263,7747
32045,57268,7754
32057,57272,7764
32067,57277,7778
32077,57283,7796
32089,57290,7815
32103,57297,7834
32123,57303,7854
32147,57305,7873
32173,57307,7892
32199,57309,7912
32224,57312,7934
32245,57314,7957
32261,57316,7976
32271,57318,7990
32276,57318,7998
32276,57318,8000
32275,57318,7998
32274,57318,7994
32271,57316,7988
32266,57314,7980
32258,57312,7972
32248,57310,7964
32238,57310,7956
32230,57312,7949
32226,57311,7943
32225,57308,7939
32223,57304,7933
32219,57299,7926
32215,57296,7917
32213,57295,7908
32211,57294,7901
32209,57293,7895
32207,57292,7891
32205,57293,7887
32204,57293,7883
32204,57292,7879
32204,57291,7878
32204,57291,7877
32205,57291,7879
32207,57292,7880
32206,57294,7880
32205,57295,7881
32203,57294,7881
32201,57293,7877
32201,57292,7871
32203,57290,7866
32207,57288,7865
32211,57288,7865
32215,57288,7867
32215,57288,7869
32216,57287,7872
32217,57286,7873
32217,57285,7871
32215,57286,7865
32211,57288,7857
32207,57289,7845
32199,57289,7830
32186,57287,7812
32170,57282,7792
32152,57277,7773
32133,57272,7755
32113,57266,7738
32091,57259,7718
32064,57252,7695
32035,57245,7672
32007,57239,7648
31978,57233,7624
31948,57226,7598
31919,57219,7569
31893,57212,7539
31870,57204,7508
31851,57195,7479
31832,57188,7451
31813,57183,7424
31794,57181,7400
31772,57177,7378
31749,57173,7353
31723,57167,7326
31695,57162,7296
31665,57156,7265
31636,57150,7235
31611,57144,7207
31589,57139,7181
31569,57136,7156
31551,57134,7133
31536,57131,7112
31522,57128,7090
31509,57124,7071
31497,57121,7055
31486,57118,7042
31474,57113,7028
31460,57109,7016
31445,57105,7003
31429,57102,6989
31413,57098,6974
31399,57091,6958
31386,57085,6941
31372,57079,6920
31359,57072,6898
31345,57067,6874
31326,57062,6850
31302,57057,6825
31277,57051,6802
31252,57046,6779
31229,57042,6758
31207,57040,6738
31189,57037,6720
31173,57032,6703
31158,57026,6688
31142,57019,6673
31121,57012,6656
31097,57003,6633
31070,56992,6606
31039,56982,6577
31006,56973,6546
30974,56963,6516
30945,56954,6487
30918,56946,6459
30895,56939,6431
30873,56936,6403
30851,56933,6375
30830,56929,6348
30805,56925,6322
30778,56920,6296
30750,56915,6272
30723,56909,6248
30697,56902,6226
30675,56898,6206
30661,56897,6190
30655,56896,6181
30656,56895,6177
30665,56898,6182
30681,56904,6196
30708,56913,6222
30749,56924,6263
30803,56936,6318
30866,56950,6386
30938,56970,6464
31020,56993,6554
31111,57019,6654
31209,57046,6763
31311,57076,6877
31417,57106,6996
31526,57135,7118
31635,57162,7239
31740,57188,7354
31838,57213,7462
31929,57236,7562
32010,57257,7655
32082,57276,7739
32145,57293,7813
32198,57308,7876
32241,57319,7931
32275,57327,7978
32301,57332,8015
32322,57334,8045
32340,57334,8068
32358,57333,8085
32373,57334,8100
32384,57336,8110
32391,57340,8118
32399,57344,8126
32408,57348,8134
32417,57354,8141
32428,57363,8147
32438,57371,8151
32447,57377,8154
32458,57382,8158
32470,57386,8164
32483,57387,8174
32497,57390,8187
32510,57393,8201
32522,57394,8215
32533,57395,8229
32547,57396,8245
32566,57398,8265
32585,57401,8287
32601,57404,8311
32615,57409,8334
32628,57414,8352
32641,57419,8369
32654,57423,8385
32665,57425,8401
32674,57429,8417
32684,57433,8433
32694,57436,8446
32703,57437,8455
32708,57436,8457
32710,57435,8457
32709,57434,8456
32703,57433,8450
32690,57432,8440
32673,57430,8427
32657,57428,8411
32644,57425,8393
32630,57422,8375
32615,57418,8357
32602,57414,8340
32591,57408,8325
32583,57403,8310
32578,57398,8299
32576,57396,8293
32574,57398,8292
32574,57400,8292
32575,57400,8294
32579,57401,8299
32589,57402,8306
32602,57403,8316
32615,57404,8324
32626,57406,8329
32635,57410,8331
32640,57412,8331
32643,57414,8330
32646,57412,8328
32648,57408,8327
32650,57406,8325
32649,57404,8324
32643,57403,8326
32635,57401,8327
32627,57401,8324
32618,57402,8318
32610,57402,8311
32601,57403,8302
32593,57404,8292
32584,57404,8283
32577,57403,8273
32569,57401,8260
32561,57400,8244
32554,57399,8229
32548,57399,8215
32537,57398,8201
32524,57396,8185
32511,57393,8167
32499,57390,8149
32486,57387,8131
32471,57383,8113
32455,57380,8091
32438,57377,8066
32418,57372,8039
32395,57365,8010
32369,57356,7981
32341,57347,7953
32315,57341,7928
32291,57337,7907
32269,57332,7886
32248,57326,7864
32227,57321,7841
32208,57315,7818
32189,57310,7794
32170,57303,7769
32152,57293,7745
32133,57284,7720
32113,57276,7697
32092,57269,7674
32070,57262,7651
32052,57257,7627
32035,57252,7604
32020,57249,7583
32005,57248,7564
31992,57248,7545
31978,57248,7526
31961,57246,7507
31940,57242,7487
31916,57238,7465
31890,57234,7441
31863,57229,7413
31833,57222,7387
31801,57212,7363
31769,57202,7340
31740,57193,7314
31712,57186,7288
31686,57180,7262
31663,57173,7236
31642,57165,7210
31623,57157,7187
31606,57151,7167
31590,57148,7150
31575,57146,7135
31561,57144,7121
31547,57143,7106
31532,57140,7089
31517,57137,7069
31501,57135,7048
31485,57132,7028
31468,57129,7009
31451,57125,6989
31435,57122,6969
31418,57118,6949
31400,57113,6930
31380,57107,6909
31362,57102,6884
31346,57097,6858
31333,57092,6833
31321,57087,6811
31309,57083,6790
31296,57082,6769
31279,57080,6746
31259,57077,6722
31236,57073,6699
31214,57070,6676
31192,57065,6650
31169,57058,6623
31145,57050,6597
31120,57044,6571
31095,57037,6543
31068,57031,6513
31040,57025,6482
31016,57018,6452
30996,57012,6424
30977,57006,6397
30960,57001,6373
30944,56999,6354
30934,56999,6342
30932,57000,6338
30939,57002,6346
30958,57007,6367
30989,57016,6403
31031,57028,6454
31084,57043,6517
31148,57060,6590
31220,57078,6673
31301,57096,6767
31390,57117,6870
31486,57142,6977
31589,57169,7088
31695,57198,7201
31801,57225,7313
31906,57250,7426
32008,57275,7537
32106,57298,7646
32198,57320,7749
32283,57342,7843
32358,57363,7928
32424,57381,8004
32479,57395,8071
32523,57406,8128
32556,57414,8176
32580,57419,8216
32598,57422,8248
32614,57426,8273
32625,57431,8290
32632,57435,8300
32638,57437,8306
32644,57439,8308
32651,57440,8310
32660,57441,8313
32668,57442,8316
32674,57444,8320
32680,57446,8326
32688,57449,8332
32698,57453,8339
32712,57456,8347
32727,57458,8357
32744,57461,8369
32764,57467,8384
32791,57474,8402
32822,57482,8423
32850,57489,8446
32877,57496,8471
32904,57503,8498
32933,57509,8524
32961,57513,8549
32987,57516,8572
33009,57519,8592
33024,57521,8607
33033,57523,8618
33039,57524,8628
33043,57524,8637
33043,57525,8645
33041,57525,8650
33037,57525,8652
33032,57524,8649
33025,57522,8641
33013,57519,8629
32998,57518,8616
32981,57516,8605
32965,57514,8594
32951,57512,8581
32937,57510,8568
32923,57509,8554
32910,57508,8537
32897,57507,8519
32884,57505,8498
32871,57501,8479
32856,57496,8461
32842,57492,8445
32828,57489,8434
32815,57485,8424
32801,57478,8415
32789,57472,8409
32780,57468,8404
32774,57465,8399
32770,57462,8395
32768,57460,8393
32767,57462,8392
32766,57464,8388
32766,57466,8382
32767,57466,8376
32768,57466,8367
32768,57464,8360
32765,57462,8353
32759,57462,8345
32746,57460,8336
32728,57456,8324
32708,57451,8311
32686,57445,8295
32661,57436,8275
32631,57425,8251
32599,57415,8222
32566,57405,8191
32530,57394,8158
32489,57382,8123
32448,57371,8087
32411,57361,8051
32379,57353,8018
32352,57346,7988
32326,57339,7960
32299,57334,7931
32269,57329,7900
32238,57324,7869
32205,57319,7839
32176,57312,7810
32150,57306,7780
32125,57301,7751
32098,57295,7719
32066,57287,7685
32031,57278,7649
31993,57269,7611
31952,57260,7569
31908,57250,7524
31860,57240,7480
31807,57228,7435
31751,57214,7390
31693,57199,7344
31639,57183,7298
31587,57168,7251
31535,57154,7204
31484,57141,7157
31439,57129,7111
31397,57118,7069
31356,57107,7031
31317,57098,6996
31281,57090,6962
31245,57082,6931
31207,57074,6900
31171,57065,6870
31139,57057,6840
31112,57051,6812
31086,57047,6784
31060,57041,6755
31036,57034,6726
31013,57026,6698
30991,57019,6670
30968,57013,6640
30940,57006,6610
30905,56999,6580
30868,56992,6550
30830,56984,6520
30792,56977,6490
30757,56970,6461
30725,56965,6433
30695,56959,6406
30665,56954,6377
30638,56948,6350
30614,56943,6325
30593,56939,6304
30573,56935,6283
30552,56931,6261
30528,56927,6236
30507,56923,6209
30488,56918,6181
30470,56912,6153
30453,56908,6124
30435,56903,6095
30415,56899,6068
30393,56895,6042
30373,56891,6017
30351,56887,5991
30328,56883,5965
30303,56878,5938
30278,56872,5911
30250,56865,5883
30220,56858,5856
30187,56852,5828
30155,56847,5800
30128,56842,5772
30105,56837,5747
30083,56832,5724
30064,56828,5703
30050,56826,5685
30044,56823,5668
30044,56823,5654
30049,56823,5647
30060,56824,5649
30082,56827,5660
30111,56832,5681
30146,56839,5712
30189,56849,5754
30244,56863,5809
30311,56881,5875
30388,56902,5952
30473,56923,6040
30563,56944,6136
30656,56967,6241
30754,56992,6353
30854,57021,6468
30954,57053,6582
31052,57084,6693
31147,57112,6798
31236,57138,6899
31316,57161,6994
31386,57181,7079
31447,57196,7154
31496,57208,7218
31535,57219,7271
31565,57228,7311
31585,57233,7337
31600,57237,7354
31608,57240,7362
31608,57240,7362
31602,57238,7358
31593,57235,7350
31582,57230,7338
31571,57224,7323
31559,57218,7308
31548,57213,7294
31537,57209,7281
31526,57206,7268
31517,57203,7255
31507,57201,7244
31497,57199,7235
31490,57198,7226
31486,57196,7219
31482,57194,7213
31478,57190,7205
31470,57187,7197
31461,57186,7192
31452,57184,7189
31445,57184,7187
31444,57186,7187
31449,57190,7192
31455,57193,7201
31459,57195,7212
31463,57196,7220
31466,57197,7228
31467,57197,7234
31466,57198,7240
31465,57197,7243
31463,57196,7241
31460,57196,7234
31459,57195,7225
31457,57194,7216
31450,57194,7206
31438,57192,7193
31422,57190,7176
31406,57187,7158
31391,57183,7142
31378,57179,7127
31364,57175,7110
31351,57172,7097
31341,57170,7085
31332,57167,7075
31323,57162,7064
31314,57157,7052
31309,57155,7045
31307,57157,7041
31308,57161,7039
31313,57165,7036
31320,57169,7034
31325,57172,7035
31328,57173,7035
31328,57174,7034
31329,57175,7030
31332,57176,7027
31333,57175,7023
31330,57171,7018
31325,57167,7013
31316,57163,7006
31305,57160,7000
31292,57157,6994
31279,57153,6988
31266,57150,6980
31255,57148,6969
31243,57145,6956
31228,57141,6940
31210,57135,6920
31189,57131,6896
31168,57128,6871
31144,57123,6843
31116,57116,6812
31087,57109,6780
31058,57103,6748
31028,57095,6720
30996,57087,6690
30962,57078,6656
30927,57068,6622
30891,57059,6589
30858,57052,6557
30827,57046,6526
30798,57041,6495
30771,57036,6467
30746,57030,6440
30723,57023,6415
30699,57017,6389
30679,57011,6365
30662,57007,6344
30644,57003,6325
30625,56998,6307
30610,56995,6288
30599,56993,6269
30590,56990,6251
30579,56986,6234
30568,56981,6217
30556,56976,6200
30543,56973,6184
30528,56970,6169
30508,56967,6151
30485,56965,6130
30463,56961,6108
30442,56957,6085
30423,56951,6062
30408,56944,6043
30396,56936,6026
30386,56930,6013
30377,56925,6000
30368,56923,5988
30360,56924,5975
30355,56924,5965
30351,56925,5957
30345,56926,5949
30338,56927,5939
30332,56926,5927
30325,56923,5914
30315,56921,5899
30305,56919,5885
30296,56915,5872
30286,56910,5857
30275,56905,5840
30262,56901,5823
30247,56897,5805
30230,56893,5787
30212,56888,5766
30195,56882,5745
30181,56877,5726
30167,56873,5707
30153,56872,5688
30138,56871,5669
30121,56869,5653
30104,56866,5638
30087,56864,5623
30073,56863,5607
30061,56864,5594
30053,56864,5585
30054,56863,5583
30064,56864,5592
30084,56866,5612
30112,56872,5644
30150,56881,5685
30199,56894,5737
30259,56912,5800
30329,56933,5875
30404,56955,5958
30482,56978,6045
30561,57001,6133
30641,57020,6223
30722,57039,6312
30804,57059,6401
30888,57079,6492
30972,57098,6583
31054,57117,6673
31133,57134,6758
31206,57151,6839
31271,57167,6916
31332,57183,6988
31387,57199,7054
31434,57212,7112
31474,57223,7160
31505,57232,7201
31529,57239,7236
31547,57244,7263
31559,57247,7283
31569,57249,7295
31575,57251,7301
31577,57251,7301
31577,57249,7296
31573,57246,7287
31566,57242,7279
31558,57238,7272
31550,57235,7268
31544,57232,7264
31539,57230,7260
31537,57229,7257
31538,57229,7254
31542,57230,7255
31549,57232,7259
31556,57235,7265
31562,57237,7274
31569,57240,7284
31578,57244,7293
31589,57248,7301
31597,57251,7309
31604,57254,7317
31611,57256,7325
31618,57257,7331
31625,57258,7337
31634,57257,7342
31644,57257,7345
31652,57255,7346
31657,57254,7345
31662,57253,7341
31665,57253,7335
31664,57254,7328
31657,57254,7317
31644,57253,7305
31631,57250,7289
31617,57249,7272
31604,57249,7255
31590,57250,7238
31575,57249,7222
31558,57247,7207
31545,57243,7196
31535,57240,7188
31528,57236,7181
31525,57232,7176
31524,57229,7172
31527,57227,7170
31534,57224,7169
31541,57225,7171
31549,57227,7175
31556,57231,7180
31563,57235,7185
31572,57239,7192
31581,57243,7196
31589,57247,7197
31593,57251,7194
31594,57252,7189
31592,57251,7182
31590,57250,7177
31588,57250,7171
31587,57249,7167
31586,57248,7163
31581,57246,7157
31573,57245,7150
31565,57242,7140
31556,57237,7127
31541,57232,7110
31522,57228,7092
31501,57222,7073
31479,57215,7051
31455,57207,7023
31428,57200,6991
31399,57192,6959
31370,57185,6927
31340,57178,6893
31308,57168,6860
31275,57156,6827
31242,57144,6795
31210,57134,6763
31177,57126,6732
31143,57118,6700
31111,57111,6668
31082,57105,6637
31055,57100,6608
31031,57093,6580
31009,57087,6553
30987,57081,6526
30962,57074,6500
30936,57068,6472
30910,57062,6445
30883,57056,6419
30855,57050,6392
30826,57044,6365
30797,57039,6339
30770,57034,6313
30743,57030,6288
30715,57025,6264
30688,57020,6239
30667,57015,6215
30650,57010,6193
30635,57005,6174
30617,57001,6154
30596,56998,6133
30572,56996,6109
30546,56994,6082
30520,56989,6055
30496,56981,6027
30471,56972,5998
30446,56963,5969
30420,56955,5939
30392,56947,5909
30362,56940,5880
30332,56933,5850
30301,56927,5822
30271,56922,5794
30243,56916,5767
30218,56910,5741
30194,56903,5717
30172,56897,5695
30152,56890,5674
30131,56882,5652
30109,56874,5628
30083,56866,5602
30055,56859,5572
30027,56851,5540
29998,56842,5509
29969,56832,5476
29939,56823,5444
29910,56815,5414
29884,56808,5386
29863,56801,5362
29851,56795,5343
29845,56793,5333
29847,56794,5334
29860,56799,5345
29886,56806,5365
29921,56817,5397
29965,56831,5439
30020,56849,5493
30087,56870,5557
30165,56893,5632
30250,56916,5715
30339,56939,5807
30432,56964,5909
30528,56987,6014
30623,57008,6120
30715,57029,6225
30808,57051,6330
30899,57071,6434
30990,57091,6537
31079,57112,6637
31163,57134,6729
31239,57154,6810
31306,57174,6882
31365,57192,6944
31418,57207,6997
31462,57220,7040
31497,57232,7075
31522,57241,7102
31536,57249,7120
31541,57256,7129
31538,57261,7130
31530,57262,7126
31520,57261,7117
31507,57256,7106
31492,57249,7093
31478,57239,7081
31467,57229,7068
31457,57221,7055
31450,57216,7046
31445,57214,7042
31447,57215,7042
31454,57218,7046
31465,57222,7052
31480,57225,7060
31496,57229,7068
31510,57233,7076
31523,57238,7086
31536,57242,7098
31550,57248,7113
31564,57254,7126
31579,57259,7140
31592,57264,7156
31605,57268,7172
31619,57272,7187
31634,57276,7202
31650,57282,7219
31666,57287,7235
31680,57291,7248
31690,57294,7258
31699,57297,7264
31706,57298,7266
31714,57297,7266
31722,57297,7265
31729,57296,7264
31732,57294,7259
31728,57290,7250
31717,57284,7236
31700,57277,7219
31680,57272,7200
31660,57267,7181
31644,57262,7164
31630,57259,7149
31620,57256,7137
31616,57254,7128
31617,57255,7123
31623,57259,7123
31630,57264,7127
31640,57268,7135
31654,57272,7146
31671,57275,7158
31688,57278,7168
31707,57280,7178
31726,57284,7189
31743,57289,7199
31758,57293,7210
31769,57296,7217
31778,57297,7219
31784,57299,7216
31788,57299,7210
31788,57298,7203
31784,57294,7196
31775,57290,7187
31762,57287,7175
31745,57284,7160
31728,57279,7141
31710,57273,7122
31691,57268,7104
31670,57264,7088
31649,57262,7074
31632,57260,7057
31618,57258,7036
31606,57257,7013
31597,57256,6990
31589,57255,6964
31578,57251,6938
31562,57245,6913
31543,57237,6888
31520,57230,6861
31493,57222,6835
31462,57214,6808
31426,57205,6781
31387,57195,6752
31346,57185,6721
31303,57174,6688
31259,57160,6655
31217,57145,6621
31178,57132,6587
31145,57121,6556
31115,57114,6528
31088,57109,6500
31065,57106,6473
31047,57103,6449
31033,57099,6428
31022,57095,6410
31013,57092,6394
31007,57091,6380
31002,57090,6367
30997,57088,6354
30989,57085,6341
30981,57082,6330
30974,57080,6321
30966,57078,6310
30957,57074,6296
30947,57070,6280
30938,57069,6264
30927,57068,6248
30915,57067,6231
30900,57066,6210
30880,57064,6188
30856,57060,6165
30830,57054,6140
30803,57048,6113
30777,57042,6086
30751,57035,6061
30724,57029,6036
30698,57023,6011
30675,57018,5989
30658,57013,5968
30646,57007,5950
30640,57003,5936
30640,57002,5929
30646,57006,5933
30661,57013,5951
30687,57023,5982
30727,57036,6026
30782,57051,6082
30850,57069,6150
30929,57088,6227
31016,57108,6316
31111,57130,6412
31213,57152,6516
31319,57176,6625
31425,57201,6737
31529,57227,6849
31629,57254,6959
31724,57279,7067
31812,57304,7171
31897,57327,7272
31979,57348,7368
32059,57367,7456
32133,57386,7535
32200,57401,7603
32260,57415,7659
32309,57426,7705
32349,57436,7741
32380,57444,7771
32403,57452,7795
32416,57459,7813
32420,57465,7821
32418,57466,7825
32411,57464,7827
32402,57461,7828
32395,57458,7827
32392,57456,7825
32391,57455,7822
32390,57454,7820
32389,57454,7818
32389,57456,7819
32393,57458,7823
32400,57460,7830
32412,57462,7840
32426,57465,7854
32442,57470,7869
32457,57474,7886
32474,57478,7904
32496,57484,7925
32524,57490,7949
32554,57494,7973
32579,57497,7995
32598,57500,8015
32616,57502,8034
32630,57504,8049
32636,57506,8059
32637,57507,8065
32634,57506,8067
32628,57505,8063
32619,57502,8055
32605,57499,8044
32587,57494,8031
32567,57490,8015
32549,57486,7996
32533,57484,7978
32520,57481,7961
32509,57477,7945
32496,57472,7928
32483,57467,7910
32469,57461,7892
32457,57455,7876
32446,57451,7864
32434,57446,7856
32422,57441,7850
32410,57437,7843
32398,57436,7836
32386,57435,7829
32377,57436,7822
32368,57435,7814
32359,57434,7804
32350,57433,7795
32342,57430,7788
32331,57426,7779
32316,57420,7766
32300,57413,7752
32282,57407,7742
32264,57400,7735
32248,57393,7728
32233,57386,7717
32218,57381,7703
32207,57376,7689
32197,57374,7675
32187,57373,7660
32174,57371,7642
32158,57367,7622
32143,57364,7599
32127,57360,7577
32109,57354,7556
32092,57347,7538
32076,57342,7522
32062,57338,7508
32048,57336,7494
32036,57335,7478
32026,57333,7460
32015,57331,7441
32001,57327,7421
31986,57324,7400
31972,57319,7380
31958,57312,7358
31942,57304,7335
31926,57298,7313
31910,57294,7293
31895,57290,7275
31879,57287,7257
31863,57284,7238
31847,57282,7217
31834,57279,7196
31820,57274,7173
31801,57267,7147
31779,57260,7119
31756,57255,7093
31732,57251,7068
31708,57247,7046
31682,57243,7023
31657,57238,7000
31633,57233,6977
31613,57228,6954
31596,57221,6929
31578,57214,6901
31559,57207,6870
31540,57199,6842
31521,57192,6817
31501,57187,6795
31479,57181,6773
31454,57176,6750
31427,57170,6727
31399,57162,6702
31372,57154,6675
31348,57147,6651
31327,57142,6631
31311,57138,6616
31300,57136,6607
31297,57137,6605
31303,57140,6613
31319,57145,6633
31343,57151,6664
31377,57160,6703
31422,57172,6751
31476,57188,6807
31541,57205,6872
31614,57223,6947
31692,57242,7030
31774,57262,7121
31860,57283,7214
31945,57304,7309
32025,57325,7405
32101,57346,7501
32175,57365,7594
32248,57384,7684
32319,57401,7768
32384,57416,7845
32441,57431,7913
32488,57445,7970
32526,57456,8018
32552,57466,8055
32570,57473,8082
32580,57479,8101
32586,57483,8118
32590,57484,8132
32592,57482,8141
32595,57481,8145
32599,57480,8148
32605,57479,8149
32609,57478,8150
32614,57478,8150
32617,57479,8148
32617,57480,8147
32619,57479,8149
32623,57478,8153
32627,57478,8157
32629,57477,8157
32631,57477,8155
32632,57477,8152
32632,57475,8150
32633,57472,8151
32635,57471,8154
32637,57470,8157
32639,57469,8160
32643,57469,8165
32648,57472,8172
32652,57474,8180
32655,57475,8188
32656,57475,8197
32655,57473,8206
32653,57470,8211
32649,57467,8210
32645,57464,8205
32642,57461,8199
32637,57458,8191
32629,57454,8182
32619,57451,8170
32607,57450,8156
32593,57450,8140
32576,57449,8122
32557,57446,8102
32537,57442,8082
32516,57436,8063
32499,57431,8044
32488,57426,8026
32479,57423,8011
32475,57420,7999
32475,57419,7995
32477,57420,7993
32482,57422,7990
32490,57426,7987
32500,57431,7988
32512,57436,7993
32525,57440,8000
32539,57443,8008
32553,57445,8015
32567,57446,8020
32577,57447,8024
32584,57447,8027
32585,57447,8028
32581,57447,8025
32575,57445,8022
32568,57445,8018
32559,57445,8010
32551,57444,8000
32541,57443,7987
32529,57440,7971
32517,57436,7956
32503,57429,7939
32488,57421,7920
32468,57411,7901
32442,57402,7880
32413,57392,7857
32383,57382,7832
32352,57373,7803
32321,57366,7772
32290,57360,7738
32258,57355,7703
32223,57351,7667
32188,57346,7629
32154,57340,7590
32120,57332,7552
32085,57322,7515
32050,57310,7476
32017,57297,7437
31983,57287,7401
31948,57278,7368
31909,57271,7335
31869,57263,7302
31829,57256,7268
31790,57247,7233
31753,57237,7197
31717,57225,7162
31684,57215,7125
31654,57206,7089
31623,57197,7055
31590,57189,7023
31555,57182,6993
31521,57175,6960
31487,57166,6926
31451,57157,6891
31414,57147,6856
31377,57136,6823
31341,57125,6789
31308,57116,6755
31278,57108,6721
31251,57102,6686
31222,57094,6649
31192,57085,6614
31161,57074,6580
31127,57065,6548
31089,57057,6517
31051,57050,6486
31014,57042,6456
30980,57033,6428
30950,57026,6401
30925,57020,6377
30905,57015,6356
30891,57011,6341
30884,57008,6331
30883,57006,6326
30890,57005,6329
30906,57008,6340
30932,57013,6360
30966,57022,6391
31010,57035,6433
31064,57050,6486
31124,57067,6549
31191,57084,6619
31262,57103,6694
31333,57123,6776
31406,57145,6863
31479,57166,6950
31552,57188,7034
31626,57209,7115
31698,57228,7194
31766,57245,7270
31829,57261,7339
31884,57276,7403
31932,57290,7457
31972,57302,7503
32005,57311,7545
32033,57317,7582
32052,57320,7611
32064,57321,7631
32070,57322,7643
32070,57321,7649
32066,57320,7650
32059,57319,7643
32046,57316,7629
32026,57311,7612
32002,57304,7593
31977,57298,7572
31952,57293,7552
31928,57287,7533
31906,57282,7514
31886,57277,7497
31873,57274,7484
31864,57273,7474
31858,57272,7467
31851,57269,7462
31845,57266,7458
31839,57264,7456
31834,57262,7457
31829,57262,7463
31831,57262,7471
31838,57261,7480
31848,57259,7487
31857,57257,7493
31861,57255,7497
31861,57253,7501
31854,57251,7500
31842,57249,7494
31825,57245,7482
31804,57241,7463
31778,57239,7438
31748,57237,7410
31714,57233,7379
31678,57227,7347
31642,57217,7317
31606,57207,7289
31572,57195,7261
31539,57185,7234
31507,57176,7208
31476,57169,7184
31449,57166,7165
31429,57165,7152
31415,57165,7144
31403,57164,7139
31393,57162,7133
31384,57159,7123
31376,57154,7111
31368,57148,7096
31357,57144,7082
31345,57139,7070
31333,57134,7060
31321,57130,7051
31312,57128,7043
31303,57126,7033
31291,57123,7021
31276,57121,7008
31262,57121,6995
31250,57124,6983
31239,57125,6970
31229,57125,6956
31221,57124,6942
31211,57122,6927
31197,57121,6909
31177,57118,6890
31154,57113,6870
31128,57105,6849
31099,57096,6827
31067,57087,6802
31034,57077,6775
30998,57066,6747
30961,57054,6717
30925,57043,6685
30890,57031,6654
30853,57019,6622
30816,57008,6588
30778,56998,6555
30742,56990,6524
30709,56984,6496
30681,56980,6468
30656,56975,6442
30630,56969,6415
30606,56962,6388
30583,56954,6360
30561,56946,6331
30539,56937,6303
30515,56929,6273
30489,56920,6243
30464,56912,6214
30438,56905,6188
30413,56899,6163
30387,56894,6138
30360,56890,6113
30333,56886,6088
30305,56883,6061
30275,56880,6034
30245,56877,6006
30220,56874,5979
30196,56872,5953
30172,56869,5927
30147,56865,5902
30123,56859,5877
30101,56852,5854
30081,56845,5832
30063,56836,5812
30046,56829,5792
30028,56824,5772
30010,56820,5752
29994,56816,5734
29980,56813,5715
29964,56811,5695
29946,56808,5674
29924,56805,5650
29903,56801,5626
29885,56797,5604
29871,56793,5585
29862,56789,5571
29856,56786,5560
29852,56786,5553
29853,56787,5553
29860,56789,5560
29874,56793,5576
29899,56800,5601
29936,56811,5638
29987,56825,5686
30048,56842,5742
30115,56860,5805
30186,56879,5873
30260,56897,5947
30336,56916,6024
30414,56935,6104
30490,56953,6186
30562,56971,6267
30629,56989,6347
30691,57007,6426
30752,57026,6501
30809,57043,6571
30859,57055,6633
30899,57065,6685
30932,57073,6727
30958,57078,6761
30980,57082,6788
30997,57084,6808
31009,57087,6819
31015,57088,6823
31017,57088,6822
31017,57086,6821
31015,57085,6819
31012,57084,6818
31010,57083,6818
31010,57083,6817
31012,57084,6817
31013,57085,6817
31013,57087,6819
31016,57089,6822
31021,57092,6828
31027,57097,6833
31035,57102,6840
31050,57107,6851
31068,57112,6865
31087,57116,6879
31107,57120,6891
31125,57126,6901
31141,57132,6911
31153,57138,6921
31162,57141,6929
31165,57140,6935
31164,57137,6937
31160,57133,6938
31155,57126,6936
31148,57119,6933
31139,57114,6928
31128,57111,6920
31115,57107,6909
31105,57104,6896
31097,57100,6884
31089,57097,6872
31081,57095,6858
31072,57094,6844
31066,57093,6830
31062,57093,6817
31059,57093,6806
31054,57094,6794
31046,57093,6784
31039,57092,6777
31033,57089,6772
31026,57086,6768
31018,57084,6762
31013,57082,6757
31012,57082,6755
31013,57083,6754
31015,57085,6755
31020,57087,6757
31024,57089,6761
31028,57091,6765
31034,57090,6770
31041,57089,6774
31048,57088,6777
31053,57088,6778
31055,57088,6777
31059,57089,6777
31063,57091,6776
31066,57092,6775
31067,57091,6774
31067,57089,6771
31068,57085,6766
31068,57082,6758
31068,57080,6749
31067,57079,6739
31065,57079,6729
31061,57078,6720
31054,57078,6712
31045,57078,6703
31035,57077,6692
31024,57075,6679
31011,57072,6665
30998,57071,6647
30982,57069,6627
30965,57065,6608
30946,57059,6587
30926,57053,6567
30905,57047,6547
30886,57041,6527
30869,57035,6509
30854,57029,6492
30840,57023,6475
30828,57021,6458
30817,57020,6439
30805,57018,6421
30791,57015,6403
30776,57014,6385
30764,57013,6367
30753,57013,6351
30745,57013,6335
30737,57013,6319
30729,57012,6304
30721,57011,6292
30711,57011,6283
30701,57008,6274
30692,57004,6265
30681,56999,6255
30670,56996,6242
30660,56995,6227
30653,56994,6215
30649,56995,6207
30644,56996,6198
30638,56994,6186
30632,56989,6171
30621,56984,6153
30606,56976,6135
30588,56968,6115
30569,56959,6096
30548,56949,6076
30523,56941,6056
30496,56934,6032
30470,56929,6006
30446,56926,5981
30424,56922,5958
30401,56918,5938
30380,56914,5920
30364,56911,5904
30354,56908,5890
30348,56906,5878
30347,56906,5870
30355,56909,5869
30372,56913,5877
30396,56920,5892
30427,56931,5916
30462,56945,5948
30502,56959,5988
30548,56974,6034
30600,56990,6090
30657,57007,6152
30720,57025,6219
30788,57042,6291
30862,57060,6367
30938,57077,6446
31018,57095,6529
31097,57112,6615
31174,57128,6700
31247,57145,6783
31316,57161,6862
31380,57179,6934
31440,57195,6997
31491,57209,7053
31532,57218,7101
31565,57224,7139
31594,57229,7171
31617,57234,7197
31634,57239,7215
31641,57244,7226
31640,57245,7231
31634,57244,7233
31627,57244,7234
31623,57244,7234
31620,57245,7234
31620,57245,7235
31623,57242,7237
31627,57239,7241
31632,57237,7247
31638,57236,7256
31646,57237,7266
31658,57243,7279
31671,57249,7293
31686,57256,7307
31702,57262,7319
31721,57268,7330
31741,57272,7340
31760,57275,7353
31779,57276,7369
31799,57277,7388
31817,57280,7407
31833,57283,7425
31846,57286,7442
31856,57290,7456
31861,57295,7468
31864,57299,7478
31868,57300,7486
31873,57300,7494
31879,57300,7499
31884,57301,7501
31886,57300,7499
31884,57298,7496
31878,57297,7489
31869,57295,7479
31858,57292,7467
31845,57288,7454
31831,57283,7441
31815,57277,7429
31799,57270,7418
31785,57262,7407
31772,57255,7398
31761,57250,7388
31754,57250,7378
31748,57250,7369
31744,57252,7361
31741,57254,7356
31740,57259,7352
31743,57265,7349
31748,57269,7347
31755,57273,7351
31762,57276,7359
31770,57278,7367
31776,57279,7371
31779,57281,7370
31777,57280,7366
31773,57277,7360
31767,57273,7349
31761,57268,7336
31754,57264,7326
31746,57260,7319
31737,57258,7312
31728,57257,7304
31720,57257,7293
31710,57256,7281
31698,57253,7268
31684,57248,7253
31669,57245,7239
31654,57242,7226
31640,57237,7211
31625,57232,7195
31609,57226,7176
31589,57220,7155
31566,57215,7131
31542,57211,7106
31520,57205,7081
31502,57200,7056
31486,57196,7035
31471,57192,7015
31454,57190,6994
31436,57188,6973
31420,57187,6955
31405,57186,6940
31387,57184,6926
31366,57179,6911
31344,57172,6892
31324,57163,6870
31302,57154,6847
31279,57145,6820
31254,57135,6789
31227,57127,6758
31201,57120,6731
31175,57113,6706
31154,57108,6685
31136,57104,6666
31119,57101,6647
31104,57098,6628
31092,57096,6609
31081,57094,6591
31073,57091,6574
31064,57086,6558
31055,57080,6542
31042,57075,6525
31027,57071,6509
31011,57068,6492
30994,57063,6473
30977,57058,6451
30958,57051,6429
30940,57046,6408
30922,57042,6390
30902,57038,6374
30884,57035,6356
30867,57033,6339
30851,57031,6324
30837,57029,6309
30826,57026,6294
30817,57025,6279
30809,57024,6265
30800,57023,6253
30790,57023,6243
30773,57021,6231
30752,57018,6216
30730,57012,6197
30706,57004,6175
30679,56997,6152
30654,56993,6128
30632,56989,6104
30612,56985,6082
30593,56980,6060
30574,56974,6036
30551,56966,6008
30525,56958,5980
30497,56949,5953
30468,56940,5926
30440,56933,5899
30414,56927,5871
30393,56922,5843
30376,56916,5817
30360,56909,5791
30343,56900,5766
30325,56892,5743
30306,56885,5724
30288,56881,5707
30274,56880,5690
30265,56880,5676
30260,56881,5666
30263,56883,5665
30274,56887,5672
30294,56894,5689
30322,56902,5719
30358,56911,5758
30404,56923,5807
30462,56938,5867
30529,56955,5937
30602,56975,6015
30681,56999,6099
30764,57026,6187
30849,57052,6276
30932,57077,6366
31012,57101,6458
31089,57124,6548
31165,57143,6633
31237,57160,6710
31304,57173,6781
31365,57184,6845
31420,57192,6902
31466,57198,6951
31504,57203,6994
31536,57208,7031
31561,57215,7060
31580,57222,7083
31594,57228,7101
31603,57232,7118
31607,57237,7132
31606,57240,7141
31605,57243,7143
31605,57246,7144
31606,57250,7143
31607,57250,7140
31608,57247,7134
31609,57245,7127
31610,57243,7121
31613,57242,7119
31618,57241,7120
31625,57242,7126
31634,57243,7137
31646,57245,7153
31660,57249,7171
31678,57254,7192
31701,57260,7215
31726,57267,7239
31752,57274,7264
31776,57282,7289
31796,57288,7312
31814,57292,7332
31827,57296,7348
31837,57298,7360
31844,57299,7368
31847,57300,7375
31845,57301,7380
31838,57302,7380
31826,57302,7376
31812,57299,7366
31799,57296,7354
31786,57293,7342
31773,57289,7329
31762,57286,7315
31752,57281,7302
31743,57275,7289
31734,57268,7276
31726,57263,7261
31716,57258,7244
31706,57252,7230
31694,57248,7217
31681,57243,7205
31670,57239,7196
31663,57235,7190
31659,57232,7187
31656,57232,7186
31655,57234,7186
31659,57238,7187
31666,57242,7188
31673,57247,7188
31678,57251,7189
31683,57255,7192
31690,57256,7197
31697,57255,7201
31704,57255,7203
31710,57255,7205
31716,57255,7207
31716,57256,7208
31712,57256,7205
31706,57254,7200
31698,57252,7191
31689,57248,7179
31677,57243,7164
31661,57238,7145
31643,57233,7126
31623,57228,7106
31605,57225,7089
31587,57221,7073
31571,57217,7058
31554,57213,7042
31538,57207,7026
31521,57201,7009
31504,57194,6989
31485,57189,6968
31464,57183,6946
31441,57173,6921
31418,57161,6893
31394,57150,6865
31371,57142,6838
31348,57137,6810
31323,57132,6782
31298,57127,6756
31276,57123,6731
31253,57119,6708
31230,57113,6685
31206,57109,6662
31181,57105,6641
31159,57101,6621
31139,57096,6603
31120,57092,6587
31100,57088,6574
31083,57086,6561
31071,57083,6549
31064,57081,6538
31060,57080,6525
31056,57080,6508
31047,57080,6489
31033,57076,6470
31017,57070,6450
31002,57066,6430
30988,57061,6412
30976,57057,6397
30967,57054,6383
30958,57054,6369
30948,57053,6355
30936,57052,6338
30923,57051,6319
30908,57048,6298
30890,57043,6275
30869,57038,6254
30849,57034,6234
30827,57029,6212
30804,57023,6190
30782,57016,6170
30760,57010,6151
30738,57001,6131
30716,56992,6110
30695,56982,6087
30672,56972,6063
30649,56966,6040
30627,56961,6019
30606,56958,5999
30586,56954,5978
30569,56950,5956
30551,56945,5932
30533,56938,5906
30515,56929,5882
30499,56921,5858
30483,56913,5836
30463,56908,5817
30443,56903,5798
30422,56899,5781
30402,56896,5762
30379,56892,5738
30355,56887,5711
30332,56881,5685
30311,56874,5661
30288,56867,5639
30265,56860,5616
30243,56853,5593
30220,56846,5567
30194,56839,5539
30165,56834,5511
30132,56829,5483
30096,56826,5454
30061,56822,5424
30025,56817,5392
29989,56811,5359
29952,56803,5324
29915,56792,5289
29879,56780,5253
29845,56766,5214
29809,56753,5175
29772,56740,5137
29735,56729,5104
29700,56720,5075
29669,56712,5049
29647,56708,5030
29637,56706,5021
29636,56708,5025
29645,56712,5040
29664,56720,5065
29692,56730,5101
29730,56743,5147
29778,56757,5200
29834,56773,5259
29894,56790,5324
29958,56810,5395
30025,56829,5473
30096,56849,5553
30169,56868,5632
30241,56888,5709
30310,56905,5783
30377,56920,5852
30442,56933,5918
30501,56945,5978
30552,56955,6032
30600,56965,6084
30643,56973,6131
30678,56981,6170
30703,56987,6199
30719,56993,6218
30727,56997,6230
30728,56998,6234
30721,56997,6232
30707,56993,6224
30687,56986,6210
30663,56980,6193
30638,56975,6174
30612,56970,6154
30587,56965,6132
30566,56961,6110
30551,56959,6091
30537,56958,6075
30520,56955,6064
30504,56953,6055
30489,56952,6048
30477,56950,6043
30470,56949,6039
30468,56945,6035
30467,56940,6033
30467,56934,6033
30468,56929,6034
30469,56927,6036
30469,56927,6039
30469,56926,6045
30469,56924,6054
30471,56922,6063
30474,56920,6071
30477,56919,6073
30475,56920,6072
30470,56921,6068
30461,56922,6061
30449,56922,6053
30435,56922,6043
30418,56920,6028
30403,56917,6013
30389,56912,5995
30371,56907,5976
30349,56901,5954
30321,56897,5931
30290,56892,5906
30261,56888,5881
30235,56884,5858
30212,56879,5833
30191,56873,5807
30174,56867,5785
30160,56862,5767
30147,56859,5751
30133,56856,5734
30118,56854,5718
30102,56850,5704
30087,56847,5695
30071,56845,5688
30052,56845,5679
30032,56845,5670
30014,56843,5658
29999,56839,5647
29983,56835,5636
29968,56829,5624
29955,56824,5612
29940,56818,5598
29924,56812,5582
29909,56805,5567
29894,56799,5552
29878,56792,5537
29860,56785,5522
29841,56779,5505
29820,56773,5486
29797,56768,5466
29772,56762,5445
29746,56755,5423
29720,56748,5400
29694,56741,5377
29669,56736,5354
29642,56730,5330
29613,56724,5304
29583,56716,5278
29553,56706,5251
29521,56696,5222
29488,56687,5193
29457,56680,5165
29429,56673,5139
29402,56666,5111
29377,56659,5082
29352,56653,5051
29327,56649,5020
29304,56645,4991
29282,56640,4965
29261,56634,4942
29238,56629,4918
29215,56623,4892
29189,56615,4865
29161,56606,4838
29129,56598,4812
29095,56590,4787
29061,56582,4763
29029,56573,4738
28996,56563,4711
28963,56555,4681
28931,56547,4648
28902,56541,4618
28876,56536,4591
28850,56531,4565
28823,56526,4539
28797,56520,4513
28772,56513,4485
28749,56504,4457
28727,56496,4431
28705,56489,4407
28684,56484,4386
28662,56477,4365
28636,56470,4344
28609,56464,4325
28581,56458,4306
28554,56451,4286
28527,56445,4263
28500,56440,4239
28474,56435,4216
28448,56430,4193
28421,56425,4171
28395,56421,4146
28370,56415,4120
28345,56408,4095
28324,56401,4070
28306,56393,4047
28289,56384,4025
28266,56376,4000
28238,56368,3975
28206,56361,3951
28175,56355,3927
28145,56351,3902
28117,56347,3876
28089,56344,3850
28063,56340,3824
28038,56336,3796
28013,56332,3768
27988,56327,3740
27963,56321,3713
27939,56313,3688
27917,56306,3666
27898,56300,3646
27883,56295,3626
27872,56292,3606
27861,56290,3586
27851,56290,3569
27841,56290,3558
27829,56288,3552
27819,56287,3550
27814,56288,3551
27817,56291,3557
27830,56295,3569
27855,56300,3589
27889,56307,3618
27932,56315,3658
27983,56325,3706
28038,56337,3760
28098,56351,3821
28161,56367,3888
28224,56384,3959
28288,56401,4033
28353,56418,4103
28419,56436,4169
28483,56456,4233
28544,56473,4296
28602,56488,4356
28653,56499,4413
28696,56508,4466
28731,56516,4512
28762,56524,4548
28790,56531,4577
28812,56537,4600
28828,56541,4617
28839,56544,4629
28845,56550,4637
28848,56555,4641
28850,56556,4642
28851,56556,4640
28851,56554,4635
28849,56551,4626
28846,56548,4617
28842,56546,4607
28838,56545,4599
28835,56541,4590
28832,56538,4580
28829,56535,4569
28826,56534,4560
28825,56531,4554
28826,56530,4550
28829,56529,4549
28834,56529,4551
28840,56530,4556
28848,56532,4563
28858,56535,4574
28870,56540,4587
28883,56545,4600
28896,56550,4611
28910,56555,4619
28924,56562,4626
28940,56570,4630
28954,56575,4632
28966,56578,4634
28975,56580,4637
28982,56582,4641
28987,56586,4642
28992,56589,4641
28995,56592,4638
28995,56592,4634
28994,56590,4629
28993,56587,4623
28993,56585,4616
28994,56583,4611
28994,56579,4607
28995,56575,4603
28998,56573,4598
29001,56573,4593
29005,56573,4587
29009,56572,4582
29014,56571,4581
29019,56570,4581
29024,56570,4581
29026,56569,4582
29027,56567,4586
29027,56566,4589
29029,56566,4591
29034,56567,4595
29040,56569,4602
29046,56572,4614
29051,56576,4626
29058,56579,4636
29069,56582,4645
29085,56587,4652
29102,56592,4657
29117,56596,4660
29126,56598,4664
29132,56600,4664
29134,56601,4660
29133,56602,4652
29129,56602,4643
29125,56600,4631
29119,56598,4619
29110,56594,4606
29100,56590,4593
29092,56587,4580
29085,56583,4569
29079,56580,4559
29074,56579,4551
29071,56579,4544
29069,56580,4535
29066,56581,4526
29061,56582,4516
29055,56581,4507
29051,56580,4499
29046,56579,4491
29043,56578,4483
29038,56575,4472
29033,56572,4458
29029,56567,4444
29025,56563,4431
29021,56560,4419
29015,56557,4407
29008,56555,4393
28998,56554,4378
28985,56551,4364
28970,56548,4349
28957,56544,4332
28949,56540,4317
28944,56536,4302
28940,56532,4290
28937,56530,4279
28934,56530,4272
28933,56532,4266
28934,56531,4261
28936,56530,4254
28937,56531,4245
28935,56533,4235
28931,56535,4227
28923,56535,4218
28913,56532,4208
28901,56528,4196
28889,56524,4184
28877,56521,4171
28865,56517,4158
28853,56513,4145
28841,56509,4131
28827,56505,4116
28813,56501,4099
28800,56498,4082
28791,56496,4066
28786,56492,4050
28779,56487,4034
28769,56481,4018
28761,56476,4004
28756,56472,3993
28752,56467,3985
28748,56463,3976
28744,56461,3967
28741,56460,3960
28742,56460,3956
28748,56461,3957
28760,56467,3964
28779,56475,3977
28808,56486,3996
28849,56500,4023
28901,56516,4061
28961,56532,4109
29029,56548,4165
29103,56564,4229
29184,56581,4302
29269,56599,4381
29356,56620,4462
29443,56641,4544
29530,56661,4626
29616,56682,4710
29698,56702,4794
29777,56721,4877
29848,56740,4954
29912,56757,5024
29971,56772,5088
30028,56786,5149
30081,56799,5206
30128,56810,5258
30168,56821,5302
30204,56831,5338
30238,56839,5367
30267,56845,5390
30289,56847,5407
30304,56848,5418
30313,56848,5426
30320,56848,5433
30327,56848,5437
30333,56849,5440
30336,56852,5441
30335,56853,5439
30332,56853,5433
30327,56853,5428
30324,56852,5424
30324,56852,5419
30328,56850,5415
30335,56848,5412
30346,56848,5414
30360,56851,5420
30375,56855,5429
30392,56861,5440
30409,56865,5453
30426,56870,5468
30443,56875,5483
30460,56881,5496
30475,56887,5509
30486,56893,5522
30492,56896,5535
30497,56897,5546
30501,56896,5554
30502,56894,5557
30502,56892,5556
30501,56891,5551
30500,56890,5545
30500,56888,5538
30500,56887,5531
30496,56885,5524
30489,56883,5517
30481,56881,5509
30473,56878,5504
30466,56876,5500
30458,56873,5496
30451,56872,5491
30445,56871,5486
30441,56871,5480
30440,56869,5472
30441,56868,5464
30442,56867,5459
30442,56866,5458
30444,56868,5459
30451,56870,5461
30462,56871,5463
30474,56871,5467
30487,56870,5473
30499,56870,5480
30511,56871,5486
30524,56873,5490
30538,56876,5489
30550,56881,5486
30556,56885,5484
30556,56887,5483
30551,56889,5481
30544,56891,5481
30538,56891,5480
30534,56888,5480
30529,56884,5480
30523,56879,5479
30513,56875,5474
30501,56872,5463
30487,56871,5447
30472,56871,5430
30455,56869,5411
30436,56863,5391
30415,56855,5369
30393,56849,5347
30372,56843,5326
30352,56837,5303
30332,56830,5280
30312,56822,5258
30294,56815,5234
30277,56808,5211
30263,56801,5189
30248,56794,5168
30232,56790,5147
30217,56788,5128
30200,56786,5109
30181,56782,5090
30161,56777,5070
30141,56773,5052
30118,56769,5032
30095,56765,5012
30072,56761,4990
30049,56756,4968
30028,56752,4946
30009,56749,4925
29992,56746,4904
29977,56743,4885
29963,56741,4869
29950,56739,4855
29938,56737,4844
29923,56735,4832
29906,56732,4818
29888,56729,4803
29874,56725,4787
29860,56719,4768
29843,56711,4747
29825,56704,4726
29808,56697,4707
29796,56692,4689
29787,56689,4673
29780,56688,4659
29774,56685,4647
29769,56682,4637
29766,56679,4627
29764,56677,4617
29760,56674,4606
29755,56671,4595
29750,56668,4583
29745,56665,4572
29738,56661,4560
29728,56660,4550
29718,56659,4540
29709,56658,4526
29698,56657,4508
29686,56656,4491
29675,56654,4475
29664,56651,4458
29651,56648,4440
29638,56646,4421
29625,56643,4404
29609,56639,4387
29591,56632,4369
29572,56626,4352
29554,56619,4334
29537,56611,4316
29522,56606,4295
29508,56602,4274
29494,56598,4254
29479,56594,4237
29465,56590,4221
29456,56588,4208
29451,56587,4200
29453,56588,4198
29463,56592,4201
29480,56598,4210
29504,56605,4227
29534,56614,4250
29572,56624,4280
29616,56634,4319
29667,56645,4368
29725,56658,4426
29786,56673,4492
29850,56689,4564
29916,56707,4640
29984,56726,4720
30056,56746,4800
30130,56765,4879
30204,56783,4959
30275,56802,5038
30345,56821,5115
30414,56839,5190
30480,56856,5261
30540,56872,5326
30594,56888,5383
30641,56900,5432
30682,56911,5474
30714,56920,5509
30739,56927,5537
30759,56933,5558
30772,56936,5574
30779,56938,5585
30785,56937,5593
30789,56933,5599
30791,56929,5603
30789,56925,5603
30786,56921,5601
30781,56917,5597
30776,56914,5591
30773,56910,5585
30773,56906,5580
30773,56904,5576
30775,56905,5573
30779,56908,5570
30786,56913,5570
30797,56920,5572
30810,56926,5577
30827,56932,5585
30849,56938,5597
30873,56945,5612
30897,56952,5629
30920,56959,5645
30940,56965,5660
30956,56971,5674
30969,56975,5687
30982,56979,5701
30994,56981,5714
31004,56983,5724
31009,56984,5730
31007,56982,5734
30998,56976,5734
30983,56969,5730
30969,56961,5721
30957,56954,5709
30947,56948,5696
30938,56942,5682
30925,56938,5667
30912,56937,5653
30900,56937,5639
30888,56935,5623
30877,56932,5608
30865,56929,5594
30855,56925,5582
30844,56922,5569
30832,56918,5557
30822,56914,5548
30816,56913,5542
30811,56913,5539
30807,56916,5536
30804,56917,5530
30799,56917,5524
30793,56916,5517
30787,56915,5510
30784,56913,5503
30784,56910,5497
30783,56908,5493
30781,56906,5492
30782,56907,5494
30787,56909,5499
30793,56909,5503
30800,56909,5508
30807,56911,5513
30811,56912,5516
30811,56912,5516
30809,56911,5514
30806,56908,5510
30802,56906,5505
30797,56902,5496
30788,56896,5482
30774,56888,5462
30755,56879,5437
30734,56872,5411
30714,56865,5383
30694,56860,5357
30675,56857,5331
30660,56856,5310
30645,56856,5292
30631,56855,5276
30617,56854,5261
30605,56850,5248
30589,56844,5230
30570,56839,5208
30547,56835,5185
30522,56828,5161
30497,56820,5136
30472,56813,5111
30446,56808,5084
30422,56804,5056
30398,56799,5030
30377,56796,5008
30357,56793,4988
30339,56791,4968
30325,56789,4948
30314,56786,4930
30305,56781,4914
30296,56776,4900
30286,56773,4889
30277,56770,4879
30266,56766,4869
30252,56762,4859
30234,56757,4848
30215,56751,4834
30195,56744,4817
30178,56737,4799
30162,56731,4781
30147,56728,4761
30130,56726,4739
30113,56722,4716
30098,56718,4694
30084,56713,4675
30073,56709,4658
30062,56706,4642
30051,56704,4624
30038,56703,4604
30023,56701,4583
30004,56698,4561
29982,56692,4537
29957,56683,4511
29928,56674,4484
29895,56663,4458
29860,56652,4432
29826,56644,4407
29794,56637,4382
29760,56632,4356
29725,56626,4328
29688,56619,4299
29651,56612,4269
29614,56604,4238
29579,56596,4206
29543,56588,4172
29509,56580,4139
29477,56574,4108
29448,56569,4078
29421,56563,4048
29393,56556,4018
29363,56549,3989
29331,56542,3961
29299,56536,3932
29269,56530,3904
29240,56523,3876
29211,56515,3847
29183,56508,3821
29158,56501,3798
29134,56494,3777
29113,56487,3758
29097,56482,3741
29086,56476,3730
29078,56473,3725
29077,56472,3727
29083,56474,3737
29099,56478,3756
29124,56485,3786
29159,56494,3829
29207,56508,3881
29269,56525,3944
29343,56546,4016
29426,56566,4097
29514,56585,4181
29602,56604,4267
29687,56624,4355
29768,56644,4440
29847,56665,4522
29923,56687,4599
29993,56708,4673
30054,56728,4742
30106,56746,4804
30153,56763,4858
30197,56779,4904
30235,56793,4943
30266,56800,4972
30291,56805,4994
30308,56807,5010
30317,56809,5019
30319,56809,5026
30315,56808,5030
30310,56805,5031
30304,56800,5027
30296,56795,5019
30286,56789,5008
30271,56783,4994
30252,56778,4978
30229,56776,4961
30207,56775,4945
30186,56773,4929
30168,56772,4914
30151,56769,4899
30136,56765,4885
30124,56760,4873
30116,56757,4864
30111,56755,4858
30107,56755,4857
30105,56756,4857
30105,56756,4854
30105,56754,4852
30104,56752,4851
30104,56753,4850
30104,56754,4851
30102,56754,4849
30098,56752,4845
30094,56749,4839
30088,56747,4832
30079,56744,4823
30069,56739,4812
30057,56735,4799
30043,56729,4785
30026,56723,4771
30005,56715,4757
29980,56709,4742
29955,56705,4727
29932,56700,4710
29911,56693,4691
29892,56685,4671
29874,56679,4652
29861,56673,4634
29850,56669,4616
29837,56665,4597
29823,56661,4577
29811,56659,4559
29802,56657,4545
29792,56655,4533
29780,56654,4522
29770,56651,4513
29761,56649,4506
29753,56647,4497
29743,56644,4487
29734,56643,4479
29726,56642,4473
29718,56642,4469
29708,56642,4464
29698,56641,4461
29690,56640,4458
29683,56638,4456
29676,56636,4453
29671,56635,4447
29665,56634,4438
29657,56633,4422
29648,56632,4404
29634,56632,4385
29613,56630,4364
29586,56626,4341
29556,56618,4316
29528,56608,4293
29500,56597,4269
29471,56588,4245
29440,56579,4220
29411,56572,4195
29385,56565,4171
29362,56558,4150
29339,56550,4129
29316,56544,4109
29293,56540,4089
29270,56536,4069
29248,56532,4049
29227,56526,4028
29205,56519,4006
29179,56513,3982
29148,56506,3958
29117,56500,3934
29089,56496,3911
29064,56492,3885
29043,56489,3859
29023,56485,3831
29002,56480,3805
28982,56475,3781
28962,56471,3761
28943,56467,3744
28923,56462,3726
28903,56458,3707
28882,56454,3687
28862,56452,3668
28844,56450,3647
28827,56448,3624
28808,56445,3600
28787,56440,3577
28765,56434,3556
28746,56428,3536
28727,56423,3515
28704,56418,3493
28677,56412,3473
28651,56405,3455
28627,56397,3440
28603,56390,3422
28577,56384,3403
28552,56380,3385
28528,56376,3367
28507,56371,3348
28488,56366,3329
28470,56361,3310
28452,56356,3291
28434,56350,3275
28418,56345,3260
28404,56341,3245
28394,56336,3231
28386,56333,3216
28379,56331,3199
28375,56330,3181
28371,56328,3166
28366,56327,3151
28359,56325,3135
28352,56322,3119
28342,56320,3104
28330,56317,3088
28316,56314,3073
28301,56311,3060
28290,56309,3049
28282,56307,3040
28278,56307,3033
28276,56309,3029
28277,56311,3028
28284,56315,3033
28300,56320,3048
28330,56327,3072
28373,56337,3107
28427,56349,3155
28487,56362,3213
28553,56378,3277
28625,56396,3347
28701,56415,3422
28778,56433,3501
28859,56452,3582
28941,56472,3664
29024,56492,3744
29107,56512,3820
29189,56534,3895
29269,56556,3970
29344,56575,4039
29415,56593,4103
29476,56610,4160
29526,56624,4209
29566,56636,4249
29599,56645,4284
29627,56652,4315
29649,56659,4338
29663,56665,4354
29673,56670,4364
29679,56672,4370
29683,56670,4374
29685,56666,4375
29686,56661,4376
29685,56658,4376
29683,56657,4372
29683,56656,4365
29685,56656,4356
29687,56657,4345
29685,56657,4335
29683,56657,4326
29682,56656,4320
29679,56655,4314
29673,56653,4305
29667,56651,4297
29664,56646,4291
29663,56641,4288
29665,56638,4289
29671,56638,4293
29678,56639,4299
29685,56642,4306
29693,56646,4314
29703,56649,4324
29714,56652,4333
29727,56655,4345
29739,56659,4357
29747,56662,4368
29751,56665,4373
29752,56666,4373
29751,56665,4368
29748,56661,4358
29739,56656,4345
29726,56650,4332
29712,56645,4319
29700,56642,4307
29690,56639,4298
29683,56636,4291
29680,56636,4286
29683,56638,4284
29689,56641,4285
29695,56643,4286
29703,56645,4288
29713,56648,4292
29724,56652,4295
29736,56655,4298
29746,56658,4302
29754,56660,4304
29761,56662,4306
29765,56663,4310
29768,56664,4311
29770,56664,4311
29773,56665,4311
29773,56664,4312
29769,56663,4312
29761,56661,4308
29753,56659,4303
29747,56658,4297
29742,56656,4291
29738,56654,4283
29734,56652,4276
29731,56650,4270
29730,56649,4264
29729,56648,4257
29729,56649,4249
29728,56650,4242
29727,56652,4234
29725,56652,4224
29722,56651,4211
29716,56650,4197
29707,56648,4181
29692,56646,4161
29673,56642,4141
29651,56638,4120
29631,56633,4097
29610,56625,4073
29588,56617,4050
29564,56610,4030
29541,56605,4012
29519,56600,3995
29499,56595,3978
29485,56591,3962
29474,56589,3949
29465,56587,3938
29456,56583,3925
29446,56580,3911
29432,56577,3895
29415,56574,3879
29396,56570,3862
29375,56564,3843
29355,56558,3823
29336,56554,3804
29318,56551,3786
29300,56548,3769
29282,56544,3750
29266,56541,3731
29251,56539,3715
29237,56538,3699
29222,56536,3686
29209,56532,3674
29198,56527,3664
29189,56521,3656
29184,56517,3648
29180,56514,3642
29176,56511,3633
29170,56508,3621
29159,56506,3608
29144,56503,3595
29127,56500,3580
29108,56495,3565
29089,56488,3548
29069,56479,3530
29050,56469,3513
29033,56461,3495
29016,56454,3476
28997,56448,3456
28976,56443,3436
28956,56440,3417
28937,56439,3399
28919,56439,3381
28903,56439,3362
28887,56437,3342
28871,56433,3321
28857,56430,3301
28846,56429,3284
28839,56428,3270
28837,56427,3261
28839,56427,3257
28848,56430,3259
28868,56436,3269
28895,56444,3289
28927,56454,3317
28965,56467,3355
29012,56480,3402
29068,56494,3456
29134,56510,3517
29208,56528,3585
29287,56547,3660
29366,56567,3740
29448,56587,3824
29532,56607,3909
29617,56626,3995
29705,56644,4080
29792,56662,4164
29876,56679,4246
29954,56697,4324
30023,56714,4397
30085,56731,4464
30141,56745,4526
30190,56758,4582
30231,56769,4629
30268,56779,4668
30300,56786,4700
30328,56791,4727
30352,56796,4748
30370,56801,4761
30383,56804,4770
30392,56807,4776
30401,56811,4782
30411,56815,4788
30421,56818,4793
30427,56821,4795
30429,56822,4795
30429,56822,4793
30428,56822,4790
30426,56819,4785
30425,56816,4780
30425,56814,4777
30428,56812,4777
30431,56811,4778
30434,56810,4779
30436,56809,4780
30439,56809,4784
30446,56810,4792
30457,56812,4801
30468,56814,4810
30480,56817,4818
30495,56820,4825
30509,56822,4834
30521,56824,4844
30531,56826,4853
30539,56831,4859
30545,56836,4861
30550,56842,4862
30555,56848,4859
30556,56852,4855
30552,56850,4849
30544,56843,4843
30533,56835,4833
30522,56829,4823
30513,56825,4814
30508,56822,4803
30507,56821,4792
30510,56822,4782
30515,56823,4774
30520,56824,4769
30520,56824,4768
30518,56825,4769
30515,56826,4769
30512,56826,4769
30512,56825,4769
30513,56826,4771
30514,56829,4774
30515,56832,4779
30520,56834,4783
30526,56835,4785
30532,56835,4786
30538,56835,4787
30541,56834,4788
30537,56831,4787
30532,56827,4785
30529,56821,4782
30527,56816,4776
30521,56812,4768
30512,56810,4757
30502,56809,4745
30491,56810,4731
30482,56811,4717
30472,56811,4703
30459,56808,4688
30445,56805,4671
30430,56802,4653
30414,56799,4638
30398,56795,4623
30382,56790,4608
30364,56785,4592
30346,56781,4578
30328,56775,4563
30310,56769,4546
30289,56761,4525
30267,56753,4502
30246,56744,4478
30226,56737,4457
30204,56733,4439
30182,56731,4422
30161,56730,4403
30139,56728,4382
30118,56725,4361
30099,56721,4341
30082,56717,4323
30067,56714,4304
30053,56710,4285
30039,56706,4265
30022,56701,4244
30005,56695,4223
29985,56690,4203
29965,56686,4186
29946,56682,4169
29929,56678,4153
29912,56674,4137
29895,56670,4122
29880,56669,4106
29866,56668,4090
29854,56665,4074
29846,56662,4061
29840,56657,4049
29836,56652,4037
29830,56647,4023
29823,56643,4008
29817,56639,3994
29807,56637,3981
29795,56636,3970
29782,56635,3961
29768,56633,3950
29755,56632,3937
29742,56630,3922
29727,56628,3907
29710,56625,3890
29691,56623,3870
29673,56621,3850
29659,56619,3834
29645,56616,3820
29633,56611,3808
29624,56606,3795
29613,56599,3781
29601,56591,3767
29585,56583,3754
29569,56577,3740
29553,56573,3724
29536,56568,3708
29519,56564,3692
29503,56559,3676
29488,56555,3659
29475,56552,3644
29460,56551,3627
29445,56549,3608
29429,56546,3588
29410,56543,3569
29390,56539,3550
29371,56535,3530
29355,56533,3514
29345,56531,3501
29344,56530,3494
29352,56530,3493
29370,56535,3503
29395,56542,3522
29429,56551,3553
29472,56562,3595
29525,56575,3646
29588,56591,3705
29659,56607,3773
29738,56626,3851
29823,56647,3938
29912,56670,4032
30000,56695,4125
30087,56719,4218
30175,56743,4309
30263,56767,4401
30349,56790,4489
30432,56811,4571
30510,56829,4647
30582,56847,4718
30649,56863,4784
30710,56878,4848
30767,56891,4907
30818,56903,4958
30860,56913,5000
30893,56920,5036
30918,56926,5066
30938,56930,5089
30955,56932,5107
30968,56934,5121
30977,56933,5129
30983,56933,5131
30987,56932,5131
30988,56934,5129
30990,56936,5128
30993,56937,5129
30997,56937,5132
31003,56939,5133
31008,56945,5134
31012,56951,5133
31016,56954,5133
31024,56956,5134
31036,56958,5139
31050,56959,5147
31065,56959,5158
31081,56960,5170
31096,56960,5184
31110,56961,5196
31124,56962,5209
31137,56965,5222
31148,56968,5235
31155,56971,5247
31158,56974,5256
31159,56976,5261
31159,56976,5264
31161,56975,5267
31165,56974,5269
31171,56977,5271
31175,56979,5269
31178,56979,5265
31183,56979,5259
31189,56977,5252
31196,56975,5245
31200,56971,5238
31202,56969,5233
31199,56966,5228
31192,56962,5223
31181,56958,5214
31169,56953,5205
31157,56949,5195
31145,56944,5186
31134,56941,5177
31126,56940,5169
31121,56941,5162
31117,56943,5158
31113,56946,5157
31110,56950,5158
31110,56953,5159
31113,56957,5160
31119,56962,5162
31127,56966,5164
31137,56967,5168
31148,56968,5173
31160,56968,5178
31172,56968,5183
31181,56968,5185
31184,56969,5185
31185,56969,5183
31185,56968,5181
31185,56966,5176
31182,56965,5170
31176,56962,5162
31167,56960,5153
31154,56957,5143
31140,56953,5132
31128,56950,5119
31116,56947,5104
31101,56944,5088
31083,56941,5071
31063,56938,5053
31042,56934,5034
31021,56929,5014
30998,56923,4992
30975,56916,4967
30952,56908,4942
30928,56900,4917
30904,56893,4893
30879,56888,4869
30855,56884,4845
30833,56880,4822
30812,56877,4801
30792,56876,4780
30773,56874,4757
30756,56870,4735
30738,56863,4715
30722,56855,4698
30705,56848,4681
30688,56845,4664
30671,56844,4648
30654,56843,4630
30636,56840,4613
30621,56836,4597
30607,56830,4580
30594,56824,4562
30582,56816,4544
30571,56809,4529
30560,56804,4516
30548,56800,4501
30534,56797,4484
30520,56796,4469
30506,56795,4456
30490,56792,4443
30473,56788,4428
30456,56784,4414
30439,56781,4400
30423,56779,4384
30409,56776,4367
30398,56773,4350
30387,56770,4333
30375,56768,4317
30363,56767,4301
30351,56765,4283
30340,56763,4267
30329,56759,4252
30316,56756,4239
30303,56752,4228
30292,56750,4219
30280,56747,4210
30269,56743,4199
30261,56740,4188
30252,56739,4175
30242,56738,4161
30232,56737,4146
30221,56736,4130
30207,56733,4111
30189,56729,4089
30168,56723,4064
30144,56715,4041
30117,56707,4018
30089,56700,3995
30061,56694,3970
30033,56688,3947
30009,56682,3925
29988,56676,3905
29970,56671,3885
29956,56667,3864
29946,56665,3849
29941,56666,3843
29942,56668,3844
29953,56671,3851
29974,56676,3866
30007,56684,3894
30053,56695,3932
30110,56709,3982
30175,56726,4043
30248,56745,4110
30328,56764,4185
30412,56784,4267
30497,56806,4356
30584,56830,4451
30673,56855,4547
30763,56879,4644
30854,56902,4740
30945,56925,4834
31033,56949,4923
31117,56973,5009
31195,56995,5090
31269,57013,5165
31339,57027,5231
31402,57039,5289
31455,57051,5340
31500,57062,5385
31536,57072,5423
31563,57080,5451
31580,57084,5470
31589,57085,5480
31588,57082,5482
31582,57078,5479
31573,57074,5473
31563,57070,5464
31550,57068,5453
31536,57066,5440
31521,57065,5428
31508,57065,5420
31493,57064,5416
31480,57062,5413
31472,57058,5409
31470,57056,5409
31473,57054,5411
31478,57054,5414
31486,57055,5417
31495,57058,5421
31507,57062,5426
31520,57066,5434
31530,57069,5444
31536,57070,5456
31543,57072,5469
31551,57074,5480
31559,57075,5486
31566,57075,5490
31572,57075,5493
31578,57077,5496
31580,57079,5499
31581,57082,5502
31582,57085,5503
31583,57089,5503
31586,57093,5501
31589,57096,5496
31590,57095,5489
31585,57092,5481
31575,57088,5471
31558,57079,5460
31537,57068,5447
31516,57057,5428
31494,57049,5403
31469,57041,5378
31446,57035,5357
31428,57030,5340
31415,57026,5327
31408,57023,5317
31407,57022,5306
31407,57023,5299
31405,57024,5297
31400,57024,5298
31396,57025,5300
31391,57027,5301
31386,57028,5302
31382,57030,5304
31377,57029,5308
31372,57026,5309
31367,57021,5307
31362,57017,5302
31356,57014,5295
31346,57012,5285
31331,57010,5271
31313,57006,5254
31296,57002,5238
31278,56998,5219
31257,56994,5199
31233,56989,5175
31207,56982,5150
31182,56974,5126
31159,56967,5105
31139,56962,5086
31120,56958,5067
31101,56954,5047
31078,56948,5025
31055,56942,5002
31036,56938,4979
31021,56933,4955
31004,56928,4931
30987,56922,4908
30969,56915,4886
30946,56911,4866
30921,56908,4844
30892,56904,4819
30860,56896,4790
30822,56885,4758
30782,56873,4723
30743,56862,4686
30707,56851,4647
30672,56840,4609
30637,56830,4573
30601,56820,4539
30566,56810,4506
30534,56801,4475
30505,56793,4446
30474,56786,4419
30444,56781,4392
30414,56775,4367
30383,56768,4343
30351,56762,4319
30319,56758,4294
30288,56754,4268
30259,56748,4243
30232,56742,4219
30207,56736,4195
30183,56732,4171
30162,56728,4145
30142,56723,4118
30121,56717,4093
30097,56711,4070
30073,56705,4049
30050,56698,4029
30028,56691,4008
30005,56684,3985
29982,56678,3964
29957,56672,3945
29930,56667,3925
29900,56661,3902
29868,56655,3876
29838,56650,3849
29809,56645,3822
29783,56641,3796
29758,56635,3771
29733,56628,3745
29712,56621,3721
29693,56616,3701
29677,56613,3681
29662,56609,3660
29646,56605,3641
29629,56599,3622
29609,56591,3601
29587,56583,3581
29564,56575,3560
29540,56570,3538
29518,56566,3516
29496,56564,3494
29473,56560,3474
29451,56557,3456
29432,56553,3441
29420,56550,3431
29417,56549,3427
29427,56552,3434
29450,56558,3452
29487,56568,3480
29535,56580,3516
29591,56594,3562
29653,56608,3619
29722,56623,3687
29796,56640,3764
29873,56661,3850
29951,56684,3941
30029,56709,4031
30109,56735,4119
30186,56757,4206
30262,56776,4291
30338,56793,4370
30410,56808,4443
30474,56821,4511
30532,56833,4574
30584,56845,4630
30629,56857,4680
30668,56869,4725
30699,56878,4764
30723,56883,4793
30741,56885,4813
30754,56886,4826
30758,56887,4834
30755,56886,4838
30747,56884,4837
30735,56881,4831
30720,56877,4820
30703,56870,4804
30685,56864,4785
30668,56859,4767
30654,56854,4752
30642,56852,4738
30633,56850,4726
30625,56850,4714
30618,56849,4702
30615,56848,4690
30616,56849,4682
30619,56848,4678
30625,56848,4679
30636,56848,4681
30649,56851,4687
30662,56856,4698
30676,56862,4712
30691,56867,4728
30705,56871,4744
30716,56873,4758
30724,56875,4768
30729,56875,4774
30733,56878,4776
30736,56881,4777
30737,56884,4775
30734,56886,4773
30730,56886,4772
30726,56884,4768
30720,56879,4761
30715,56873,4754
30709,56869,4748
30704,56866,4744
30701,56865,4741
30701,56865,4738
30700,56865,4733
30698,56864,4729
30695,56862,4724
30693,56862,4720
30690,56862,4716
30687,56863,4714
30688,56866,4712
30691,56871,4711
30695,56877,4712
30699,56880,4713
30704,56882,4715
30708,56882,4717
30711,56883,4717
30713,56884,4717
30716,56886,4717
30719,56887,4719
30724,56889,4722
30731,56890,4724
30736,56890,4725
30738,56888,4725
30737,56886,4724
30735,56885,4720
30734,56886,4716
30732,56887,4711
30730,56887,4703
30728,56887,4694
30727,56887,4685
30727,56886,4674
30725,56884,4663
30720,56882,4653
30714,56881,4644
30705,56881,4634
30692,56880,4622
30678,56877,4608
30665,56873,4595
30655,56869,4584
30647,56866,4575
30638,56864,4565
30629,56861,4553
30615,56856,4537
30596,56850,4518
30576,56845,4496
30557,56841,4473
30541,56838,4452
30529,56836,4435
30520,56834,4420
30512,56833,4409
30507,56833,4399
30503,56832,4388
30496,56831,4377
30487,56831,4365
30478,56829,4350
30468,56825,4334
30458,56819,4318
30449,56813,4304
30441,56807,4292
30431,56802,4282
30419,56798,4273
30407,56797,4265
30397,56798,4258
30389,56800,4251
30384,56801,4240
30380,56800,4227
30375,56798,4214
30369,56796,4200
30363,56793,4185
30354,56790,4169
30341,56786,4153
30325,56782,4136
30308,56778,4119
30288,56774,4102
30267,56768,4083
30246,56762,4064
30227,56757,4045
30207,56753,4027
30189,56749,4011
30173,56745,3995
30161,56741,3981
30151,56737,3967
30142,56733,3954
30133,56730,3942
30122,56728,3930
30111,56726,3918
30102,56724,3907
30097,56722,3898
30096,56721,3895
30100,56723,3897
30113,56727,3905
30135,56731,3919
30165,56737,3943
30205,56747,3980
30257,56760,4030
30320,56775,4091
30393,56793,4162
30471,56811,4242
30555,56831,4327
30645,56852,4416
30739,56875,4509
30834,56899,4604
30928,56923,4697
31021,56947,4791
31113,56973,4884
31202,57000,4972
31289,57025,5053
31369,57045,5124
31437,57062,5186
31492,57075,5242
31535,57084,5293
31572,57092,5335
31602,57100,5369
31629,57106,5397
31650,57110,5420
31665,57113,5440
31677,57115,5456
31685,57115,5468
31690,57115,5477
31693,57116,5482
31695,57115,5483
31696,57113,5480
31696,57112,5472
31696,57112,5466
31698,57113,5463
31701,57116,5461
31706,57120,5461
31712,57127,5463
31717,57133,5465
31717,57138,5468
31715,57141,5472
31716,57144,5480
31720,57146,5488
31728,57149,5495
31740,57152,5501
31756,57154,5506
31769,57156,5511
31779,57157,5515
31788,57158,5521
31797,57159,5530
31807,57159,5541
31817,57159,5550
31826,57161,5557
31832,57162,5561
31836,57162,5564
31837,57161,5564
31838,57159,5561
31838,57159,5554
31836,57158,5545
31830,57155,5535
31819,57151,5526
31804,57146,5517
31791,57140,5508
31783,57135,5499
31777,57132,5494
31774,57130,5491
31772,57130,5490
31770,57130,5488
31772,57131,5485
31778,57130,5485
31791,57131,5488
31806,57134,5493
31823,57139,5499
31840,57147,5508
31858,57156,5518
31875,57161,5528
31890,57162,5537
31904,57161,5543
31915,57161,5548
31921,57163,5552
31923,57165,5554
31922,57164,5553
31920,57163,5547
31917,57160,5540
31912,57157,5535
31911,57156,5532
31914,57158,5530
31921,57160,5526
31925,57163,5521
31925,57163,5517
31918,57161,5513
31907,57157,5508
31893,57153,5501
31880,57148,5491
31867,57144,5480
31854,57140,5468
31843,57139,5456
31832,57137,5444
31820,57135,5432
31806,57131,5416
31789,57127,5396
31769,57122,5376
31748,57115,5355
31729,57108,5332
31711,57102,5311
31694,57099,5292
31677,57096,5275
31658,57091,5258
31637,57086,5238
31617,57080,5216
31599,57075,5196
31584,57070,5178
31569,57065,5159
31554,57060,5139
31538,57053,5117
31523,57046,5092
31509,57039,5068
31495,57034,5046
31478,57031,5025
31462,57031,5006
31449,57031,4988
31437,57031,4970
31425,57030,4953
31413,57028,4936
31403,57024,4920
31393,57019,4906
31382,57015,4892
31368,57012,4880
31353,57010,4869
31338,57008,4856
31324,57005,4845
31312,57001,4835
31302,56996,4825
31293,56991,4814
31282,56987,4801
31271,56983,4785
31259,56980,4770
31248,56978,4756
31236,56977,4742
31223,56975,4726
31207,56972,4709
31190,56968,4692
31173,56962,4673
31155,56956,4654
31138,56951,4634
31120,56946,4615
31104,56942,4598
31093,56938,4585
31084,56936,4574
31074,56934,4560
31060,56929,4543
31043,56925,4523
31022,56919,4501
30999,56913,4478
30975,56905,4453
30951,56897,4429
30925,56888,4407
30903,56880,4389
30888,56874,4374
30880,56870,4363
30877,56867,4357
30881,56867,4359
30893,56871,4369
30916,56879,4388
30952,56892,4419
30997,56906,4462
31051,56922,4515
31114,56939,4577
31184,56959,4646
31262,56982,4723
31347,57006,4807
31437,57032,4896
31532,57058,4989
31628,57085,5085
31724,57111,5182
31818,57137,5279
31911,57160,5375
32000,57181,5469
32085,57202,5558
32164,57221,5641
32239,57239,5719
32309,57254,5790
32371,57267,5851
32424,57280,5904
32465,57292,5947
32494,57303,5982
32516,57313,6009
32531,57321,6027
32539,57327,6036
32539,57330,6036
32535,57328,6032
32528,57324,6026
32518,57319,6019
32509,57316,6013
32502,57313,6007
32500,57310,6005
32503,57309,6007
32508,57309,6012
32516,57310,6018
32526,57310,6027
32533,57309,6037
32539,57309,6047
32548,57311,6055
32558,57314,6063
32567,57316,6070
32578,57317,6079
32591,57319,6091
32607,57322,6105
32625,57325,6121
32643,57327,6135
32659,57329,6148
32674,57332,6161
32691,57340,6177
32707,57349,6198
32724,57359,6218
32743,57367,6234
32761,57375,6244
32776,57381,6248
32784,57386,6250
32787,57391,6251
32787,57393,6249
32783,57393,6245
32778,57392,6240
32771,57390,6234
32760,57387,6225
32748,57382,6214
32735,57374,6201
32723,57365,6185
32713,57359,6170
32706,57353,6159
32701,57348,6154
32699,57344,6152
32701,57343,6152
32706,57344,6154
32710,57344,6157
32717,57344,6162
32729,57343,6169
32742,57344,6176
32755,57347,6186
32767,57351,6195
32776,57355,6204
32784,57357,6210
32789,57358,6213
32792,57359,6215
32794,57359,6217
32794,57359,6219
32791,57359,6221
32784,57358,6221
32776,57356,6221
32769,57354,6220
32761,57352,6214
32756,57350,6203
32751,57347,6191
32746,57345,6177
32739,57343,6163
32731,57340,6146
32725,57338,6130
32719,57335,6114
32711,57334,6099
32700,57332,6083
32689,57328,6067
32677,57324,6052
32667,57321,6040
32657,57319,6028
32646,57317,6013
32636,57314,5996
32625,57311,5980
32613,57306,5964
32599,57303,5947
32581,57300,5926
32559,57295,5903
32535,57288,5880
32511,57282,5859
32488,57276,5837
32467,57270,5813
32450,57264,5791
32432,57257,5770
32413,57250,5751
32393,57244,5734
32374,57238,5720
32358,57234,5706
32344,57231,5690
32330,57228,5672
32314,57223,5655
32299,57219,5642
32286,57216,5629
32272,57212,5615
32258,57208,5602
32243,57204,5586
32227,57200,5570
32214,57198,5552
32203,57197,5532
32194,57194,5513
32189,57191,5497
32184,57189,5482
32178,57187,5468
32172,57185,5455
32165,57183,5443
32157,57182,5435
32149,57182,5429
32140,57183,5422
32129,57184,5413
32117,57182,5402
32105,57178,5387
32089,57172,5367
32068,57166,5345
32043,57159,5321
32017,57154,5299
31991,57150,5278
31963,57146,5255
31931,57140,5231
31897,57134,5204
31861,57127,5176
31823,57118,5146
31783,57109,5115
31744,57100,5082
31707,57090,5051
31673,57079,5020
31644,57069,4991
31616,57061,4963
31589,57056,4936
31561,57051,4911
31535,57044,4887
31512,57037,4864
31491,57030,4839
31472,57024,4814
31455,57018,4790
31442,57014,4769
31435,57012,4753
31434,57012,4744
31438,57014,4744
31452,57018,4753
31475,57024,4774
31506,57033,4808
31545,57044,4853
31593,57058,4907
31652,57072,4971
31720,57086,5044
31797,57102,5126
31880,57121,5214
31966,57145,5306
32052,57169,5399
32137,57192,5491
32219,57214,5581
32296,57235,5666
32368,57256,5747
32435,57275,5824
32495,57291,5896
32550,57306,5961
32599,57319,6020
32642,57332,6071
32678,57343,6115
32706,57351,6152
32728,57356,6182
32743,57359,6204
32752,57361,6221
32755,57362,6233
32756,57361,6240
32755,57360,6241
32751,57358,6240
32748,57355,6236
32743,57349,6229
32734,57343,6219
32723,57338,6206
32711,57334,6195
32702,57333,6187
32696,57331,6181
32692,57330,6179
32690,57330,6177
32688,57330,6177
32687,57331,6175
32688,57331,6175
32693,57332,6176
32700,57334,6182
32709,57336,6193
32720,57339,6208
32731,57342,6224
32741,57345,6237
32747,57348,6247
32752,57350,6253
32757,57352,6257
32760,57353,6260
32762,57352,6264
32762,57350,6266
32757,57348,6266
32749,57347,6263
32737,57345,6256
32720,57341,6247
32701,57336,6237
32681,57333,6224
32665,57330,6209
32651,57327,6192
32637,57324,6174
32623,57322,6156
32609,57320,6139
32592,57319,6122
32573,57317,6107
32556,57312,6092
32540,57307,6079
32524,57302,6066
32512,57296,6052
32501,57290,6039
32490,57286,6028
32479,57284,6019
32467,57281,6012
32457,57278,6006
32447,57276,6002
32439,57273,5998
32433,57269,5993
32428,57268,5989
32426,57269,5987
32423,57271,5984
32421,57273,5981
32421,57274,5978
32421,57274,5975
32420,57272,5971
32419,57270,5967
32416,57266,5962
32408,57262,5952
32394,57256,5939
32378,57248,5923
32361,57242,5906
32344,57238,5888
32327,57235,5872
32307,57231,5856
32285,57227,5839
32260,57220,5819
32234,57213,5798
32207,57206,5777
32184,57199,5756
32163,57193,5734
32141,57186,5712
32119,57177,5690
32096,57169,5669
32071,57163,5646
32044,57158,5621
32017,57152,5593
31993,57147,5565
31969,57141,5538
31944,57134,5512
31918,57127,5486
31891,57120,5461
31864,57113,5434
31838,57107,5407
31813,57101,5380
31790,57094,5354
31767,57089,5331
31744,57085,5308
31718,57082,5285
31692,57080,5264
31669,57078,5244
31647,57075,5225
31625,57070,5202
31602,57061,5176
31576,57050,5147
31546,57039,5117
31515,57028,5089
31485,57019,5066
31457,57012,5044
31430,57007,5023
31405,57004,5003
31380,57001,4984
31356,56998,4966
31332,56994,4950
31310,56989,4935
31288,56983,4918
31270,56977,4901
31254,56971,4883
31236,56964,4864
31216,56957,4843
31195,56951,4821
31173,56945,4797
31151,56939,4773
31128,56933,4747
31105,56927,4721
31079,56923,4697
31051,56919,4673
31021,56913,4649
30992,56904,4626
30964,56895,4602
30939,56886,4580
30916,56879,4558
30892,56872,4536
30871,56865,4516
30856,56859,4500
30849,56853,4488
30847,56848,4479
30850,56847,4475
30857,56849,4477
30869,56854,4487
30886,56861,4502
30909,56869,4523
30941,56878,4555
30984,56890,4600
31039,56907,4661
31106,56927,4734
31179,56948,4812
31256,56969,4897
31337,56991,4988
31421,57013,5081
31511,57036,5173
31603,57059,5265
31690,57082,5356
31772,57103,5445
31846,57122,5530
31914,57142,5609
31977,57162,5681
32033,57182,5745
32080,57197,5800
32120,57207,5846
32152,57214,5881
32177,57219,5908
32193,57220,5929
32204,57220,5945
32214,57221,5957
32225,57222,5964
32235,57223,5964
32241,57222,5961
32245,57220,5957
32245,57218,5952
32243,57217,5945
32240,57216,5939
32233,57215,5932
32223,57213,5924
32216,57211,5918
32213,57211,5916
32215,57211,5916
32216,57211,5916
32218,57213,5918
32222,57217,5923
32228,57222,5931
32235,57227,5942
32243,57231,5956
32254,57234,5971
32269,57236,5990
32287,57238,6009
32305,57240,6027
32320,57244,6041
32332,57248,6050
32345,57252,6056
32362,57257,6062
32379,57263,6068
32394,57268,6071
32406,57271,6073
32415,57270,6073
32418,57267,6070
32414,57265,6064
32407,57262,6054
32397,57257,6042
32387,57253,6029
32377,57248,6020
32369,57244,6014
32365,57242,6012
32364,57241,6010
32364,57243,6007
32364,57247,6005
32364,57251,6004
32367,57254,6003
32372,57257,6005
32379,57260,6009
32386,57264,6014
32393,57267,6020
32401,57268,6028
32412,57270,6037
32425,57271,6045
32441,57272,6052
32456,57273,6060
32472,57273,6068
32486,57272,6076
32500,57271,6082
32513,57272,6089
32521,57274,6096
32526,57275,6099
32526,57275,6098
32521,57274,6091
32510,57271,6082
32496,57266,6072
32480,57262,6063
32462,57257,6054
32445,57252,6041
32430,57247,6024
32414,57244,6002
32396,57242,5981
32380,57240,5962
32364,57237,5946
32347,57235,5930
32329,57232,5913
32310,57228,5898
32293,57225,5882
32278,57223,5866
32264,57221,5849
32252,57219,5829
32242,57215,5807
32232,57209,5786
32222,57202,5765
32207,57194,5743
32189,57185,5719
32168,57177,5697
32145,57171,5674
32121,57167,5649
32098,57162,5626
32074,57157,5603
32049,57152,5582
32029,57149,5563
32013,57146,5547
31998,57144,5536
31986,57142,5528
31978,57140,5520
31972,57138,5511
31966,57136,5501
31957,57136,5488
31948,57133,5474
31939,57129,5458
31930,57123,5441
31920,57118,5423
31909,57113,5406
31898,57109,5393
31886,57104,5382
31875,57099,5373
31866,57098,5363
31857,57097,5353
31848,57096,5338
31836,57093,5322
31821,57091,5305
31804,57088,5285
31786,57085,5266
31771,57082,5249
31757,57080,5234
31743,57079,5219
31729,57079,5208
31718,57077,5198
31710,57074,5187
31701,57070,5176
31693,57065,5164
31681,57060,5151
31667,57055,5137
31653,57052,5123
31643,57051,5111
31639,57051,5104
31641,57053,5103
31650,57055,5109
31665,57058,5124
31689,57062,5149
31721,57068,5184
31763,57077,5228
31815,57089,5283
31877,57103,5350
31947,57120,5429
32023,57140,5517
32105,57161,5613
32193,57182,5712
32284,57204,5812
32377,57227,5910
32469,57250,6008
32557,57272,6102
32636,57293,6189
32708,57313,6269
32775,57332,6343
32836,57348,6407
32888,57361,6461
32932,57372,6508
32969,57382,6549
32997,57393,6584
33019,57402,6613
33037,57409,6636
33054,57415,6654
33067,57418,6669
33078,57421,6679
33089,57425,6686
33101,57428,6692
33112,57431,6700
33124,57435,6709
33135,57438,6720
33144,57441,6732
33149,57442,6741
33151,57442,6749
33155,57442,6756
33160,57443,6764
33166,57445,6774
33173,57449,6784
33182,57453,6794
33194,57455,6804
33207,57457,6817
33223,57459,6833
33241,57461,6850
33259,57465,6870
33275,57469,6890
33287,57474,6910
33299,57477,6929
33309,57478,6944
33318,57479,6954
33327,57479,6959
33335,57481,6960
33342,57482,6960
33345,57481,6958
33345,57478,6952
33342,57475,6943
33339,57472,6934
33334,57470,6924
33326,57468,6914
33316,57466,6902
33308,57466,6889
33302,57466,6878
33298,57467,6870
33297,57468,6865
33298,57470,6865
33300,57472,6868
33304,57474,6871
33310,57478,6874
33316,57481,6875
33323,57482,6874
33328,57481,6872
33334,57479,6872
33342,57477,6874
33352,57475,6877
33358,57473,6880
33361,57473,6884
33364,57474,6888
33365,57475,6891
33366,57474,6893
33366,57472,6892
33364,57470,6888
33361,57468,6881
33357,57466,6871
33352,57467,6861
33345,57468,6850
33338,57470,6840
33329,57471,6833
33320,57468,6828
33309,57462,6821
33297,57455,6811
33281,57448,6797
33264,57442,6784
33248,57437,6771
33235,57433,6758
33225,57429,6746
33214,57427,6730
33200,57424,6713
33184,57418,6693
33166,57412,6672
33146,57407,6649
33125,57403,6628
33103,57399,6607
33078,57396,6586
33050,57393,6563
33019,57389,6539
32987,57385,6515
32957,57379,6491
32932,57372,6465
32912,57364,6440
32895,57355,6417
32878,57348,6397
32859,57342,6378
32838,57338,6360
32816,57333,6341
32794,57327,6324
32774,57323,6307
32757,57321,6290
32746,57319,6274
32737,57318,6260
32726,57316,6248
32714,57315,6236
32702,57313,6222
32689,57311,6208
32675,57308,6192
32660,57304,6174
32645,57298,6154
32629,57293,6135
32611,57287,6116
32593,57279,6097
32577,57271,6081
32565,57265,6069
32556,57260,6057
32550,57256,6045
32543,57252,6030
32538,57250,6014
32533,57248,5997
32525,57244,5979
32515,57240,5961
32502,57236,5945
32488,57232,5930
32471,57228,5913
32448,57223,5893
32421,57217,5869
32392,57211,5845
32362,57206,5819
32331,57201,5793
32299,57196,5770
32271,57190,5748
32248,57185,5726
32226,57180,5704
32205,57175,5685
32186,57171,5666
32170,57169,5647
32157,57167,5628
32147,57166,5608
32142,57166,5590
32140,57167,5575
32138,57167,5565
32139,57168,5563
32146,57170,5568
32161,57172,5579
32184,57175,5600
32217,57180,5636
32261,57191,5686
32315,57207,5748
32379,57226,5821
32451,57247,5903
32530,57268,5992
32613,57290,6089
32702,57312,6190
32794,57334,6292
32886,57355,6394
32978,57377,6496
33072,57399,6598
33164,57420,6696
33253,57442,6790
33339,57463,6880
33419,57484,6962
33492,57503,7037
33555,57521,7103
33609,57535,7160
33654,57545,7208
33690,57554,7248
33716,57561,7281
33733,57566,7309
33746,57568,7333
33755,57570,7352
33760,57573,7363
33761,57575,7368
33760,57575,7369
33760,57574,7367
33762,57572,7367
33766,57572,7367
33769,57572,7368
33773,57575,7372
33780,57577,7380
33793,57580,7391
33811,57584,7406
33835,57591,7427
33859,57598,7451
33882,57605,7476
33905,57612,7501
33929,57618,7525
33952,57622,7550
33974,57625,7575
33995,57629,7599
34015,57632,7621
34033,57636,7642
34052,57640,7663
34071,57645,7683
34085,57649,7700
34095,57651,7714
34102,57653,7725
34106,57655,7733
34108,57656,7737
34110,57658,7736
34115,57658,7733
34117,57658,7729
34115,57658,7721
34109,57658,7708
34104,57657,7696
34097,57656,7684
34088,57653,7673
34074,57651,7663
34060,57648,7653
34045,57645,7647
34033,57641,7642
34024,57639,7639
34018,57638,7636
34013,57637,7632
34009,57636,7627
34007,57637,7623
34009,57638,7623
34017,57640,7628
34025,57642,7635
34033,57645,7643
34043,57648,7652
34054,57652,7662
34065,57654,7671
34074,57655,7677
34080,57655,7682
34082,57655,7683
34081,57655,7680
34080,57654,7673
34078,57653,7665
34075,57651,7656
34070,57648,7646
34067,57645,7635
34062,57641,7624
34055,57637,7612
34043,57634,7603
34030,57634,7597
34019,57634,7593
34010,57633,7588
34001,57629,7584
33990,57622,7577
33973,57614,7566
33954,57607,7550
33934,57601,7532
33912,57597,7511
33886,57592,7488
33859,57588,7466
33833,57583,7443
33808,57576,7417
33786,57568,7388
33765,57560,7357
33742,57552,7325
33719,57544,7292
33696,57537,7261
33672,57531,7231
33650,57526,7207
33630,57523,7187
33609,57519,7170
33587,57514,7154
33561,57508,7137
33533,57500,7119
33509,57492,7101
33487,57485,7083
33464,57480,7063
33439,57478,7044
33414,57476,7026
33391,57472,7008
33370,57465,6989
33351,57458,6970
33333,57451,6954
33315,57443,6939
33297,57437,6922
33278,57432,6902
33261,57429,6882
33243,57427,6861
33227,57426,6840
33215,57424,6818
33203,57422,6795
33189,57420,6772
33172,57417,6753
33156,57414,6737
33142,57412,6722
33129,57409,6708
33115,57405,6695
33100,57400,6682
33084,57394,6666
33067,57387,6646
33049,57380,6624
33030,57374,6604
33012,57367,6585
32995,57361,6566
32977,57355,6546
32958,57348,6527
32940,57341,6509
32922,57338,6491
32906,57336,6473
32890,57335,6454
32875,57334,6434
32858,57333,6414
32837,57330,6391
32812,57327,6365
32783,57322,6338
32755,57317,6312
32733,57311,6286
32712,57303,6260
32689,57294,6234
32667,57287,6209
32647,57281,6187
32633,57278,6170
32625,57278,6160
32623,57279,6156
32628,57282,6161
32644,57287,6174
32671,57294,6197
32710,57303,6231
32758,57315,6276
32811,57328,6333
32868,57343,6400
32926,57359,6474
32987,57377,6554
33056,57395,6638
33131,57413,6726
33212,57431,6817
33296,57449,6910
33384,57471,7005
33472,57494,7101
33557,57520,7196
33638,57544,7287
33716,57567,7373
33788,57587,7453
33851,57607,7525
33907,57624,7590
33954,57637,7648
33994,57647,7697
34027,57655,7738
34054,57661,7768
34072,57664,7789
34081,57667,7802
34086,57668,7808
34085,57668,7808
34078,57664,7804
34070,57660,7799
34062,57656,7794
34054,57653,7787
34045,57653,7777
34036,57654,7770
34031,57656,7768
34031,57657,7769
34035,57658,7772
34040,57658,7778
34049,57660,7788
34062,57663,7800
34075,57667,7812
34086,57673,7826
34097,57681,7842
34109,57689,7858
34122,57696,7877
34136,57701,7898
34149,57704,7921
34160,57705,7942
34168,57705,7959
34175,57706,7974
34182,57708,7984
34188,57709,7991
34190,57710,7994
34188,57710,7995
34181,57707,7991
34168,57702,7982
34153,57695,7966
34135,57688,7946
34114,57682,7925
34092,57677,7903
34070,57670,7880
34048,57663,7857
34028,57656,7833
34006,57650,7811
33983,57646,7789
33960,57642,7768
33937,57637,7749
33917,57632,7732
33900,57626,7716
33887,57620,7701
33874,57615,7689
33859,57610,7678
33844,57605,7668
33831,57600,7659
33821,57598,7653
33813,57598,7649
33807,57598,7644
33800,57597,7639
33793,57596,7633
33788,57594,7624
33783,57592,7616
33778,57590,7609
33774,57589,7603
33767,57585,7596
33753,57580,7586
33734,57574,7574
33715,57568,7559
33695,57565,7544
33676,57563,7528
33658,57561,7511
33638,57559,7496
33619,57557,7481
33602,57552,7465
33587,57546,7447
33573,57538,7428
33557,57531,7407
33540,57524,7386
33520,57519,7366
33498,57516,7347
33475,57514,7329
33454,57513,7311
33436,57512,7292
33418,57510,7270
33398,57507,7248
33379,57503,7223
33358,57498,7195
33335,57491,7167
33307,57481,7139
33274,57470,7109
33239,57459,7079
33204,57449,7050
33171,57440,7022
33140,57432,6996
33111,57423,6970
33084,57414,6942
33057,57407,6914
33031,57401,6888
33004,57396,6861
32979,57393,6837
32955,57391,6814
32933,57390,6790
32911,57386,6763
32886,57380,6735
32860,57374,6708
32831,57367,6683
32800,57358,6657
32771,57347,6630
32741,57337,6603
32709,57329,6577
32677,57321,6554
32645,57315,6531
32618,57311,6508
32594,57307,6484
32573,57303,6462
32554,57299,6440
32536,57294,6417
32517,57288,6396
32496,57280,6375
32472,57272,6351
32443,57264,6325
32411,57257,6299
32379,57250,6273
32345,57241,6244
32313,57233,6214
32283,57225,6185
32256,57219,6159
32234,57214,6135
32218,57211,6112
32204,57208,6091
32187,57205,6069
32168,57202,6046
32146,57198,6022
32123,57193,5998
32100,57187,5975
32078,57182,5953
32057,57178,5933
32038,57175,5916
32023,57173,5904
32014,57172,5897
32013,57174,5898
32020,57177,5906
32033,57182,5925
32057,57189,5955
32092,57198,5997
32137,57209,6049
32188,57223,6109
32246,57239,6175
32312,57258,6247
32383,57277,6325
32457,57296,6407
32532,57317,6494
32608,57339,6585
32687,57361,6677
32767,57382,6767
32847,57402,6853
32924,57421,6936
32995,57437,7013
33055,57452,7083
33105,57464,7141
33148,57473,7190
33183,57481,7232
33209,57488,7265
33226,57492,7290
33235,57496,7308
33235,57499,7318
33229,57498,7321
33219,57496,7319
33206,57493,7312
33192,57491,7301
33177,57489,7289
33164,57488,7275
33151,57487,7260
33140,57486,7247
33130,57484,7238
33122,57481,7232
33115,57478,7230
33108,57476,7229
33101,57474,7227
33095,57475,7228
33094,57475,7232
33098,57477,7240
33108,57478,7250
33120,57479,7260
33131,57482,7271
33141,57484,7283
33152,57486,7295
33163,57487,7308
33174,57490,7321
33185,57493,7335
33195,57495,7346
33203,57496,7353
33209,57499,7359
33213,57503,7363
33216,57508,7365
33219,57510,7363
33219,57509,7358
33215,57508,7350
33212,57509,7341
33209,57510,7334
33207,57509,7327
33202,57505,7320
33197,57499,7312
33191,57492,7305
33184,57487,7298
33177,57484,7291
33174,57485,7285
33173,57487,7281
33175,57489,7278
33179,57492,7278
33188,57495,7282
33199,57496,7287
33213,57496,7293
33225,57497,7299
33238,57501,7305
33249,57505,7310
33257,57509,7316
33259,57511,7322
33256,57513,7324
33249,57512,7323
33240,57512,7318
33229,57510,7311
33218,57508,7303
33206,57505,7297
33194,57501,7290
33185,57495,7284
33178,57489,7279
33172,57485,7272
33163,57482,7261
33150,57481,7246
33136,57480,7230
33121,57477,7212
33104,57474,7191
33082,57469,7167
33055,57462,7141
33030,57454,7117
33004,57446,7093
32980,57437,7069
32955,57429,7044
32932,57421,7021
32909,57415,6997
32886,57408,6972
32862,57403,6947
32838,57399,6923
32814,57395,6900
32791,57390,6879
32770,57386,6860
32750,57382,6841
32731,57378,6819
32712,57374,6797
32692,57371,6775
32672,57368,6755
32651,57364,6735
32631,57360,6715
32615,57357,6696
32600,57353,6678
32586,57348,6658
32570,57343,6639
32555,57339,6619
32541,57335,6600
32527,57330,6582
32514,57326,6566
32498,57323,6548
32480,57319,6530
32464,57315,6511
32448,57311,6496
32431,57305,6484
32413,57299,6471
32396,57294,6459
32381,57290,6446
32368,57288,6431
32355,57286,6416
32337,57284,6398
32315,57279,6377
32288,57273,6355
32259,57267,6330
32228,57260,6302
32197,57253,6272
32165,57245,6241
32137,57237,6212
32112,57229,6183
32090,57220,6155
32069,57211,6128
32051,57206,6102
32037,57203,6078
32026,57200,6061
32020,57200,6052
32023,57201,6050
32037,57202,6058
32062,57207,6076
32098,57215,6104
32143,57225,6140
32195,57238,6184
32253,57254,6240
32317,57274,6309
32389,57293,6391
32467,57314,6481
32548,57336,6577
32631,57360,6674
32717,57385,6773
32807,57411,6874
32898,57434,6975
32988,57456,7072
33076,57477,7166
33160,57497,7256
33239,57517,7337
33309,57537,7411
33371,57556,7479
33425,57572,7540
33469,57585,7592
33502,57594,7635
33525,57600,7669
33539,57603,7693
33547,57605,7710
33550,57607,7722
33550,57610,7728
33549,57611,7730
33550,57612,7728
33553,57613,7726
33557,57614,7726
33562,57615,7727
33567,57614,7730
33570,57613,7732
33573,57609,7737
33575,57606,7742
33580,57606,7750
33588,57608,7760
33597,57611,7769
33605,57616,7779
33614,57623,7790
33623,57628,7801
33635,57633,7811
33650,57637,7823
33669,57641,7836
33688,57646,7850
33704,57650,7864
33718,57655,7881
33732,57659,7897
33744,57663,7912
33754,57667,7924
33760,57669,7934
33763,57671,7940
33762,57670,7942
33758,57667,7939
33750,57662,7929
33734,57657,7914
33714,57650,7895
33691,57644,7872
33668,57640,7850
33647,57635,7829
33626,57631,7810
33605,57626,7791
33587,57622,7774
33573,57617,7758
33565,57614,7748
33562,57613,7743
33559,57612,7740
33556,57612,7737
33554,57612,7736
33553,57612,7735
33555,57613,7732
33557,57614,7729
33557,57614,7725
33557,57615,7722
33556,57617,7717
33553,57618,7712
33549,57619,7707
33545,57618,7704
33542,57616,7704
33538,57614,7704
33532,57611,7703
33527,57610,7701
33523,57609,7698
33520,57611,7696
33514,57614,7693
33507,57616,7688
33499,57616,7680
33489,57613,7670
33477,57607,7658
33461,57600,7643
33444,57593,7627
33426,57586,7610
33406,57580,7592
33383,57573,7570
33356,57566,7543
33327,57559,7514
33297,57552,7482
33268,57546,7451
33240,57541,7421
33214,57538,7393
33191,57533,7368
33168,57527,7345
33145,57520,7321
33124,57512,7299
33104,57505,7280
33084,57501,7260
33063,57496,7238
33040,57490,7214
33017,57485,7190
32994,57479,7166
32972,57473,7141
32951,57468,7114
32931,57463,7086
32909,57458,7058
32884,57452,7030
32860,57445,7005
32838,57438,6982
32814,57431,6960
32791,57425,6939
32768,57421,6919
32744,57418,6900
32723,57417,6880
32705,57415,6859
32690,57413,6840
32677,57411,6822
32662,57408,6807
32646,57403,6793
32631,57398,6778
32616,57392,6761
32602,57385,6744
32587,57376,6725
32571,57367,6705
32554,57359,6683
32535,57353,6660
32515,57349,6637
32494,57344,6614
32473,57340,6591
32450,57335,6569
32424,57330,6546
32397,57326,6524
32370,57322,6504
32345,57316,6486
32321,57310,6469
32298,57302,6449
32276,57295,6427
32254,57287,6404
32231,57279,6381
32208,57272,6358
32188,57266,6336
32168,57262,6311
32147,57258,6284
32125,57254,6256
32103,57251,6229
32081,57246,6203
32059,57241,6176
32038,57235,6149
32020,57229,6123
32006,57225,6103
31997,57223,6089
31993,57223,6082
31997,57225,6083
32011,57230,6095
32036,57238,6117
32069,57250,6153
32110,57265,6203
32162,57282,6264
32228,57301,6336
32304,57323,6421
32387,57345,6517
32476,57369,6620
32569,57393,6725
32665,57418,6830
32762,57443,6936
32858,57469,7042
32954,57494,7146
33048,57517,7245
33137,57539,7339
33219,57560,7427
33291,57579,7509
33354,57596,7584
33410,57609,7650
33457,57619,7705
33493,57626,7747
33520,57632,7782
33539,57637,7809
33552,57641,7829
33562,57645,7842
33570,57650,7853
33575,57654,7862
33577,57655,7869
33576,57654,7873
33572,57653,7877
33571,57653,7881
33570,57654,7882
33570,57655,7883
33570,57656,7883
33574,57657,7885
33581,57660,7891
33593,57662,7900
33608,57665,7912
33625,57669,7926
33643,57674,7943
33660,57680,7962
33675,57685,7980
33687,57687,7995
33699,57688,8007
33713,57690,8017
33726,57694,8029
33735,57697,8043
33742,57699,8057
33748,57699,8068
33756,57699,8079
33766,57699,8090
33775,57698,8097
33781,57696,8101
33784,57693,8099
33785,57692,8092
33782,57693,8086
33777,57694,8080
33775,57695,8074
33773,57694,8070
33771,57694,8065
33765,57693,8059
33756,57690,8052
33744,57685,8041
33731,57680,8028
33718,57675,8013
33707,57672,7996
33697,57671,7982
33688,57672,7972
33682,57673,7967
33677,57673,7965
33676,57670,7966
33676,57667,7968
33672,57664,7971
33666,57662,7974
33660,57661,7976
33654,57661,7979
33648,57660,7979
33643,57658,7978
33638,57656,7974
33632,57656,7969
33625,57655,7962
33618,57655,7954
33612,57654,7944
33606,57652,7933
33599,57649,7923
33588,57645,7913
33577,57641,7902
33566,57639,7892
33557,57636,7881
33547,57632,7869
33532,57628,7854
33514,57624,7834
33494,57619,7811
33472,57613,7785
33447,57608,7757
33419,57601,7728
33388,57593,7697
33355,57584,7665
33320,57575,7634
33286,57567,7604
33253,57559,7575
33222,57551,7548
33193,57543,7523
33166,57535,7499
33138,57528,7475
33109,57522,7450
33079,57516,7423
33047,57511,7394
33016,57504,7363
32988,57495,7331
32962,57488,7304
32937,57484,7278
32912,57479,7254
32888,57473,7231
32867,57467,7208
32850,57463,7186
32839,57462,7165
32830,57460,7146
32822,57458,7129
32812,57457,7116
32801,57456,7103
32787,57453,7090
32770,57450,7074
32752,57446,7058
32731,57442,7042
32709,57439,7024
32687,57435,7004
32664,57430,6981
32640,57423,6958
32616,57417,6937
32595,57411,6916
32577,57405,6893
32559,57399,6872
32541,57396,6852
32521,57392,6831
32501,57388,6809
32482,57384,6785
32465,57379,6761
32447,57373,6737
32428,57366,6714
32406,57359,6693
32383,57353,6670
32359,57349,6648
32334,57346,6627
32307,57342,6604
32279,57337,6578
32250,57330,6549
32224,57322,6521
32199,57312,6493
32174,57302,6468
32149,57295,6445
32125,57288,6425
32104,57282,6405
32083,57278,6383
32061,57275,6360
32038,57272,6339
32014,57270,6319
31994,57270,6299
31975,57267,6277
31955,57262,6254
31932,57257,6229
31908,57252,6203
31884,57246,6175
31859,57240,6143
31836,57233,6112
31813,57227,6082
31789,57221,6054
31765,57214,6030
31742,57207,6011
31723,57201,5997
31712,57198,5988
31711,57198,5988
31722,57203,6000
31746,57211,6023
31781,57222,6058
31827,57234,6103
31881,57248,6161
31943,57264,6232
32011,57283,6315
32083,57303,6406
32160,57324,6500
32242,57344,6597
32327,57367,6697
32413,57391,6798
32497,57416,6898
32577,57441,6993
32651,57464,7079
32719,57483,7158
32780,57498,7232
32833,57507,7297
32877,57514,7353
32913,57519,7397
32940,57525,7430
32959,57530,7453
32972,57533,7469
32979,57536,7479
32979,57537,7487
32973,57537,7492
32964,57535,7493
32950,57531,7486
32931,57526,7474
32909,57520,7458
32885,57513,7437
32859,57506,7412
32833,57498,7388
32809,57489,7366
32789,57480,7345
32771,57471,7326
32755,57463,7309
32742,57460,7294
32733,57459,7282
32729,57460,7275
32726,57461,7272
32724,57463,7275
32724,57467,7281
32726,57469,7288
32728,57470,7294
32729,57470,7302
32729,57469,7309
32728,57468,7315
32728,57467,7320
32726,57465,7322
32721,57464,7320
32713,57463,7315
32702,57462,7307
32691,57462,7294
32678,57462,7278
32660,57460,7260
32638,57456,7241
32614,57451,7219
32587,57445,7197
32559,57437,7175
32533,57429,7153
32511,57422,7130
32492,57417,7105
32475,57413,7083
32455,57406,7062
32433,57399,7044
32408,57393,7026
32382,57387,7008
32359,57381,6992
32339,57377,6976
32321,57374,6959
32305,57372,6944
32290,57374,6931
32277,57375,6921
32268,57375,6911
32260,57375,6901
32249,57373,6891
32235,57373,6882
32222,57372,6873
32211,57369,6864
32199,57365,6853
32186,57359,6840
32172,57353,6826
32155,57347,6810
32136,57342,6791
32115,57337,6767
32096,57331,6739
32074,57324,6711
32047,57314,6682
32016,57304,6652
31985,57296,6624
31955,57289,6597
31923,57283,6572
31889,57279,6549
31857,57275,6524
31828,57270,6498
31800,57264,6474
31768,57257,6450
31735,57249,6425
31703,57241,6397
31672,57233,6368
31641,57224,6337
31611,57213,6304
31579,57201,6269
31545,57188,6232
31511,57176,6194
31477,57166,6156
31441,57157,6118
31401,57147,6078
31361,57137,6039
31322,57127,6003
31287,57119,5971
31257,57114,5944
31231,57111,5919
31208,57110,5896
31188,57109,5876
31168,57107,5856
31145,57103,5836
31117,57097,5812
31087,57088,5783
31058,57078,5750
31031,57069,5717
31002,57060,5688
30973,57052,5659
30943,57044,5630
30912,57035,5602
30880,57025,5575
30845,57014,5548
30813,57005,5521
30782,56998,5494
30754,56992,5467
30728,56986,5441
30705,56982,5417
30685,56979,5397
30668,56976,5376
30651,56972,5353
30632,56968,5329
30612,56964,5304
30592,56961,5279
30570,56959,5254
30545,56958,5230
30519,56955,5204
30493,56951,5178
30464,56944,5150
30433,56935,5123
30403,56924,5099
30373,56912,5074
30341,56901,5045
30308,56892,5015
30274,56883,4984
30238,56876,4952
30203,56869,4920
30169,56862,4888
30136,56853,4857
30103,56843,4826
30071,56834,4798
30042,56825,4772
30016,56815,4746
29991,56808,4721
29968,56802,4697
29947,56798,4675
29928,56796,4658
29910,56795,4643
29894,56795,4626
29879,56794,4610
29867,56794,4596
29858,56794,4584
29852,56795,4575
29851,56797,4573
29857,56799,4577
29868,56803,4588
29885,56808,4609
29909,56814,4639
29942,56822,4677
29985,56833,4725
30039,56848,4781
30101,56865,4846
30171,56884,4919
30247,56903,4998
30328,56924,5082
30414,56947,5170
30503,56972,5260
30592,56997,5351
30681,57023,5442
30766,57050,5533
30845,57075,5619
30915,57097,5698
30977,57114,5767
31030,57126,5826
31078,57134,5877
31119,57140,5920
31152,57144,5953
31175,57146,5978
31189,57146,5994
31194,57145,6003
31192,57143,6004
31183,57140,5999
31164,57135,5991
31140,57131,5980
31116,57127,5969
31094,57123,5957
31074,57118,5943
31057,57114,5928
31044,57109,5917
31035,57105,5905
31029,57104,5893
31024,57104,5882
31024,57104,5874
31024,57104,5868
31024,57103,5865
31022,57104,5863
31022,57108,5862
31024,57111,5865
31029,57115,5871
31036,57120,5879
31044,57125,5886
31053,57128,5892
31060,57130,5899
31065,57133,5904
31067,57134,5907
31066,57134,5906
31061,57131,5902
31053,57127,5896
31047,57121,5892
31043,57115,5890
31041,57109,5885
31040,57105,5878
31038,57102,5869
31038,57100,5858
31035,57098,5848
31028,57097,5838
31018,57097,5830
31006,57097,5820
30996,57098,5810
30987,57098,5800
30981,57097,5792
30976,57096,5785
30972,57096,5779
30968,57095,5773
30963,57095,5768
30958,57097,5762
30956,57102,5757
30957,57107,5753
30959,57110,5752
30965,57111,5751
30971,57108,5749
30975,57103,5747
30979,57098,5747
30985,57097,5749
30992,57098,5752
30997,57099,5755
30999,57100,5757
31000,57100,5757
31001,57100,5757
31001,57099,5755
31001,57099,5753
31001,57099,5748
31000,57099,5743
30999,57100,5738
30995,57098,5731
30988,57095,5720
30979,57091,5706
30971,57085,5689
30958,57079,5669
30941,57074,5649
30923,57068,5632
30905,57063,5617
30889,57060,5602
30875,57058,5586
30863,57055,5570
30853,57053,5554
30840,57051,5539
30827,57050,5523
30814,57048,5506
30802,57047,5489
30791,57046,5471
30782,57044,5452
30772,57042,5432
30760,57040,5413
30749,57038,5396
30735,57034,5378
30719,57031,5360
30703,57029,5341
30687,57024,5322
30672,57020,5304
30659,57017,5288
30646,57015,5273
30635,57013,5260
30627,57011,5248
30621,57010,5237
30616,57007,5225
30610,57005,5213
30605,57002,5202
30601,57000,5193
30596,56997,5183
30589,56993,5172
30581,56988,5160
30574,56984,5149
30570,56982,5138
30567,56981,5131
30566,56981,5127
30567,56980,5126
30566,56978,5121
30564,56975,5113
30559,56974,5103
30551,56974,5090
30541,56974,5075
30530,56975,5058
30518,56974,5037
30505,56969,5016
30488,56965,4994
30470,56963,4973
30452,56961,4954
30433,56958,4936
30414,56954,4920
30393,56950,4902
30374,56946,4886
30358,56943,4870
30344,56940,4856
30335,56935,4843
30329,56930,4830
30326,56926,4820
30326,56923,4813
30329,56921,4810
30338,56919,4814
30354,56920,4825
30376,56927,4843
30406,56939,4871
30444,56951,4908
30490,56964,4956
30542,56979,5014
30603,56995,5081
30675,57015,5156
30757,57038,5238
30847,57063,5327
30941,57087,5420
31037,57110,5516
31132,57133,5614
31226,57155,5712
31316,57176,5806
31400,57198,5896
31475,57218,5978
31542,57234,6050
31602,57246,6115
31654,57257,6171
31699,57265,6219
31734,57271,6258
31759,57275,6288
31778,57278,6310
31791,57280,6326
31798,57282,6337
31803,57283,6344
31805,57284,6345
31805,57283,6342
31801,57282,6338
31796,57280,6333
31791,57281,6326
31788,57282,6318
31787,57284,6311
31785,57285,6306
31784,57285,6302
31786,57286,6299
31789,57287,6297
31792,57289,6299
31798,57291,6305
31809,57295,6314
31824,57299,6325
31841,57303,6338
31859,57306,6351
31878,57310,6364
31896,57313,6378
31913,57318,6392
31927,57320,6406
31938,57322,6418
31947,57325,6429
31953,57327,6439
31955,57327,6443
31956,57325,6442
31956,57320,6439
31957,57316,6436
31954,57312,6433
31946,57310,6427
31935,57308,6419
31922,57306,6409
31906,57303,6396
31889,57300,6380
31871,57296,6361
31856,57292,6343
31841,57287,6325
31826,57283,6307
31816,57280,6291
31810,57280,6276
31803,57279,6264
31798,57279,6253
31795,57278,6245
31795,57278,6241
31797,57280,6242
31801,57284,6247
31808,57287,6254
31816,57291,6261
31825,57293,6267
31834,57295,6271
31840,57296,6274
31843,57297,6275
31845,57298,6271
31845,57298,6262
31840,57297,6252
31834,57295,6243
31826,57292,6233
31815,57288,6222
31802,57285,6212
31790,57281,6201
31777,57278,6190
31763,57274,6176
31750,57269,6161
31738,57266,6146
31727,57262,6131
31718,57257,6113
31707,57250,6094
31694,57244,6074
31677,57238,6055
31656,57232,6037
31634,57225,6019
31611,57219,5997
31584,57214,5973
31554,57209,5944
31522,57203,5914
31489,57198,5884
31461,57192,5854
31439,57186,5826
31421,57181,5802
31405,57176,5782
31389,57170,5762
31372,57163,5743
31354,57155,5725
31334,57146,5705
31312,57138,5684
31289,57131,5661
31265,57126,5638
31243,57122,5615
31223,57119,5593
31202,57117,5569
31181,57116,5543
31163,57113,5517
31144,57108,5491
31127,57103,5469
31110,57098,5449
31092,57093,5428
31071,57087,5407
31049,57081,5389
31026,57076,5372
31005,57072,5353
30985,57068,5334
30965,57064,5314
30946,57059,5293
30929,57056,5274
30910,57053,5255
30890,57048,5235
30869,57042,5215
30848,57035,5193
30828,57027,5169
30809,57020,5145
30789,57013,5122
30769,57006,5100
30751,56999,5079
30734,56991,5058
30717,56987,5038
30699,56986,5016
30678,56984,4996
30657,56980,4974
30637,56975,4951
30620,56971,4929
30604,56967,4910
30587,56964,4893
30568,56962,4875
30546,56961,4855
30523,56958,4832
30501,56954,4807
30479,56949,4782
30458,56943,4760
30438,56938,4740
30417,56932,4722
30396,56926,4705
30376,56920,4688
30356,56913,4671
30334,56906,4651
30311,56897,4628
30288,56890,4601
30265,56885,4573
30243,56881,4544
30222,56876,4517
30204,56869,4494
30191,56863,4477
30183,56859,4465
30184,56859,4463
30195,56863,4469
30217,56871,4488
30248,56880,4520
30291,56892,4566
30348,56907,4625
30418,56924,4695
30497,56944,4774
30584,56966,4860
30675,56989,4949
30767,57011,5041
30859,57033,5135
30950,57054,5229
31041,57076,5322
31129,57098,5415
31212,57119,5506
31289,57137,5593
31360,57154,5676
31425,57170,5753
31485,57185,5821
31538,57199,5879
31585,57213,5927
31623,57225,5964
31651,57234,5992
31670,57242,6014
31679,57249,6032
31682,57254,6043
31683,57257,6047
31683,57258,6046
31679,57256,6040
31673,57253,6030
31667,57250,6019
31660,57248,6009
31653,57246,5999
31648,57246,5991
31646,57249,5984
31643,57251,5980
31641,57251,5977
31641,57251,5976
31641,57249,5976
31645,57248,5982
31653,57246,5993
31663,57247,6006
31677,57250,6019
31696,57254,6034
31717,57259,6053
31738,57264,6072
31756,57270,6089
31770,57275,6103
31785,57280,6116
31798,57283,6130
31808,57284,6143
31817,57284,6152
31825,57283,6157
31830,57283,6158
31830,57281,6154
31825,57280,6146
31816,57279,6138
31805,57278,6128
31793,57277,6118
31783,57277,6108
31772,57277,6098
31760,57276,6089
31750,57274,6081
31744,57272,6074
31743,57272,6069
31746,57272,6068
31752,57272,6069
31761,57273,6071
31772,57275,6072
31784,57278,6074
31797,57280,6077
31811,57280,6078
31824,57280,6079
31836,57280,6077
31844,57279,6074
31850,57278,6070
31854,57280,6066
31857,57282,6062
31862,57284,6061
31868,57285,6061
31872,57286,6063
31874,57288,6063
31877,57291,6063
31880,57293,6063
31883,57294,6063
31888,57294,6062
31893,57295,6060
31896,57297,6057
31898,57299,6053
31898,57299,6048
31893,57296,6043
31883,57292,6035
31869,57288,6026
31854,57282,6014
31837,57276,6001
31821,57271,5985
31806,57265,5967
31792,57260,5946
31780,57254,5926
31765,57247,5907
31749,57242,5886
31731,57237,5863
31713,57232,5840
31693,57226,5818
31669,57220,5796
31642,57214,5772
31616,57210,5748
31591,57208,5725
31569,57206,5704
31550,57205,5684
31533,57202,5663
31516,57198,5641
31500,57194,5620
31484,57189,5600
31466,57186,5580
31445,57183,5560
31426,57177,5537
31406,57168,5513
31386,57159,5487
31364,57151,5463
31343,57144,5440
31322,57139,5417
31303,57134,5393
31284,57129,5371
31265,57123,5350
31247,57116,5330
31230,57110,5311
31214,57104,5292
31198,57099,5274
31181,57094,5257
31164,57090,5241
31147,57088,5226
31131,57087,5210
31113,57086,5192
31093,57084,5175
31073,57081,5156
31053,57077,5137
31036,57072,5117
31023,57065,5099
31009,57059,5081
30994,57054,5063
30978,57048,5043
30960,57041,5023
30941,57034,5001
30919,57028,4979
30894,57023,4953
30866,57017,4925
30837,57011,4897
30807,57003,4869
30779,56995,4843
30754,56985,4818
30729,56976,4793
30703,56969,4766
30674,56963,4737
30645,56957,4706
30614,56950,4677
30583,56942,4650
30553,56934,4622
30521,56925,4596
30488,56917,4569
30454,56910,4540
30421,56904,4509
30389,56899,4479
30358,56896,4450
30330,56892,4424
30305,56889,4399
30282,56885,4374
30261,56881,4349
30242,56876,4324
30223,56870,4300
30202,56864,4276
30177,56857,4249
30147,56849,4220
30117,56842,4193
30088,56838,4169
30064,56834,4149
30048,56832,4134
30044,56833,4128
30052,56838,4133
30071,56843,4150
30098,56850,4178
30135,56859,4218
30185,56869,4269
30244,56880,4328
30311,56893,4395
30385,56910,4468
30462,56928,4545
30542,56946,4627
30626,56965,4712
30710,56985,4797
30794,57005,4884
30878,57026,4970
30959,57046,5055
31033,57064,5133
31101,57080,5204
31160,57094,5266
31211,57108,5321
31255,57120,5370
31292,57130,5412
31319,57139,5446
31337,57147,5473
31346,57155,5492
31349,57160,5502
31349,57161,5508
31347,57158,5511
31342,57155,5510
31330,57150,5505
31315,57146,5500
31302,57144,5494
31293,57143,5487
31286,57143,5478
31280,57143,5468
31275,57143,5456
31272,57141,5443
31272,57139,5431
31273,57137,5420
31272,57137,5413
31268,57137,5408
31263,57138,5405
31259,57139,5403
31256,57141,5402
31255,57142,5405
31255,57143,5408
31255,57144,5413
31257,57145,5418
31259,57145,5422
31264,57144,5427
31270,57144,5432
31272,57145,5437
31273,57146,5440
31274,57146,5439
31273,57145,5435
31267,57141,5427
31257,57136,5415
31241,57130,5399
31223,57124,5380
31205,57118,5362
31187,57112,5345
31166,57104,5328
31142,57099,5310
31119,57095,5291
31097,57091,5272
31073,57086,5252
31050,57080,5232
31032,57074,5214
31018,57069,5198
31002,57065,5184
30985,57062,5174
30969,57061,5164
30956,57059,5153
30944,57056,5143
30933,57054,5135
30922,57052,5128
30913,57050,5123
30905,57047,5121
30900,57045,5119
30894,57044,5112
30886,57043,5100
30876,57043,5086
30867,57041,5072
30854,57038,5057
30838,57034,5042
30820,57029,5030
30802,57025,5020
30781,57022,5011
30760,57020,4998
30741,57018,4984
30721,57014,4969
30700,57008,4952
30678,57001,4934
30655,56993,4912
30628,56984,4887
30597,56974,4858
30566,56965,4824
30536,56955,4788
30507,56947,4752
30476,56939,4715
30442,56931,4677
30406,56924,4640
30370,56917,4604
30336,56910,4572
30305,56903,4543
30277,56896,4517
30251,56888,4492
30223,56880,4466
30193,56873,4441
30162,56866,4416
30135,56857,4392
30109,56848,4366
30084,56840,4340
30058,56832,4315
30033,56825,4290
30009,56817,4264
29984,56809,4236
29958,56802,4207
29934,56797,4180
29913,56792,4156
29893,56787,4132
29872,56782,4109
29848,56778,4089
29823,56774,4070
29800,56770,4051
29777,56766,4034
29754,56760,4016
29733,56753,3998
29713,56746,3981
29694,56741,3965
29673,56736,3948
29651,56731,3930
29629,56726,3912
29608,56722,3894
29586,56719,3874
29564,56716,3856
29544,56713,3840
29527,56710,3825
29512,56708,3810
29500,56704,3793
29487,56701,3774
29476,56697,3754
29465,56694,3735
29452,56691,3718
29437,56687,3702
29422,56684,3686
29407,56681,3668
29392,56679,3650
29376,56676,3632
29357,56670,3615
29337,56664,3596
29315,56657,3577
29294,56648,3555
29271,56640,3531
29250,56632,3507
29229,56624,3484
29211,56618,3465
29194,56615,3448
29176,56613,3430
29160,56611,3413
29144,56610,3396
29131,56609,3382
29118,56608,3369
29108,56607,3360
29100,56607,3355
29097,56608,3355
29103,56612,3361
29118,56618,3377
29145,56627,3405
29185,56638,3444
29235,56650,3493
29292,56662,3548
29357,56678,3611
29428,56696,3683
29506,56715,3764
29592,56736,3851
29682,56758,3940
29774,56782,4030
29865,56807,4118
29955,56833,4205
30042,56858,4290
30124,56883,4373
30200,56904,4452
30269,56923,4525
30329,56938,4591
30380,56950,4648
30421,56960,4694
30456,56969,4729
30485,56975,4756
30507,56978,4776
30522,56977,4790
30530,56975,4801
30534,56972,4807
30533,56969,4808
30530,56966,4804
30528,56963,4797
30527,56963,4789
30526,56965,4780
30525,56967,4772
30521,56969,4764
30517,56972,4756
30514,56974,4749
30510,56976,4744
30506,56976,4740
30502,56974,4734
30499,56972,4730
30498,56971,4729
30496,56970,4730
30495,56970,4734
30497,56969,4739
30503,56969,4744
30513,56969,4751
30523,56970,4758
30536,56971,4766
30549,56973,4775
30562,56976,4786
30574,56980,4796
30588,56985,4803
30601,56991,4807
30612,56995,4805
30617,56999,4801
30619,57000,4796
30618,56999,4790
30610,56996,4780
30597,56993,4768
30583,56991,4755
30571,56991,4742
30564,56991,4730
30558,56991,4720
30548,56988,4709
30537,56983,4700
30528,56979,4692
30523,56976,4688
30521,56976,4685
30524,56976,4683
30528,56976,4682
30531,56976,4683
30538,56977,4686
30549,56978,4691
30562,56978,4699
30576,56979,4709
30588,56981,4718
30600,56984,4725
30610,56986,4731
30619,56987,4736
30626,56989,4739
30631,56992,4742
30635,56994,4743
30636,56995,4741
30633,56994,4735
30626,56993,4727
30618,56992,4719
30610,56990,4713
30604,56988,4707
30595,56985,4700
30584,56982,4691
30570,56979,4678
30554,56975,4664
30539,56970,4647
30527,56964,4629
30518,56958,4612
30512,56953,4597
30506,56951,4583
30498,56949,4569
30490,56946,4555
30481,56944,4540
30471,56944,4525
30462,56944,4510
30451,56942,4493
30438,56938,4476
30423,56934,4459
30406,56930,4442
30387,56926,4423
30369,56923,4402
30351,56918,4380
30334,56913,4360
30314,56908,4341
30294,56905,4322
30275,56903,4304
30256,56901,4285
30235,56897,4267
30212,56892,4248
30189,56885,4229
30168,56878,4210
30150,56870,4193
30135,56863,4177
30120,56856,4162
30103,56849,4148
30084,56843,4132
30067,56838,4112
30051,56834,4094
30040,56832,4078
30031,56830,4064
30023,56827,4052
30015,56823,4041
30005,56817,4028
29992,56812,4015
29978,56808,4002
29962,56805,3988
29947,56803,3973
29933,56802,3958
29920,56804,3943
29909,56807,3929
29900,56810,3917
29891,56812,3907
29881,56810,3895
29871,56807,3880
29861,56802,3866
29852,56795,3854
29842,56788,3845
29833,56782,3837
29825,56777,3827
29821,56773,3818
29821,56769,3808
29822,56765,3799
29820,56761,3789
29816,56761,3780
29812,56762,3772
29811,56766,3767
29814,56774,3770
29824,56782,3781
29842,56791,3799
29871,56801,3825
29911,56813,3861
29961,56826,3907
30022,56841,3965
30096,56857,4034
30183,56877,4112
30278,56900,4197
30378,56926,4287
30481,56954,4382
30584,56983,4483
30686,57009,4588
30787,57033,4693
30888,57057,4797
30988,57079,4898
31086,57099,4993
31177,57117,5080
31260,57135,5159
31335,57153,5234
31400,57169,5300
31455,57182,5358
31497,57191,5409
31529,57197,5451
31552,57202,5484
31568,57208,5509
31580,57213,5526
31588,57217,5537
31592,57220,5542
31592,57222,5544
31590,57222,5542
31585,57222,5537
31580,57222,5530
31574,57221,5524
31567,57219,5520
31558,57218,5517
31551,57219,5514
31546,57222,5513
31546,57224,5515
31549,57225,5520
31554,57225,5525
31558,57225,5529
31560,57226,5533
31565,57228,5539
31573,57228,5546
31580,57228,5551
31588,57227,5555
31599,57229,5562
31612,57232,5568
31621,57234,5572
31627,57235,5577
31630,57235,5584
31631,57234,5590
31628,57233,5590
31623,57231,5586
31614,57230,5576
31603,57227,5562
31587,57223,5546
31568,57218,5528
31546,57213,5509
31522,57207,5492
31496,57200,5475
31469,57194,5457
31443,57187,5438
31419,57179,5417
31395,57170,5394
31370,57163,5370
31347,57156,5347
31325,57148,5326
31302,57141,5306
31280,57136,5287
31259,57133,5270
31239,57132,5255
31219,57131,5242
31201,57130,5231
31187,57130,5224
31178,57132,5219
31172,57133,5215
31167,57134,5210
31164,57134,5204
31161,57134,5200
31160,57132,5196
31160,57129,5192
31160,57126,5187
31156,57124,5182
31150,57122,5177
31143,57120,5168
31137,57118,5156
31126,57114,5140
31110,57109,5122
31093,57104,5101
31076,57099,5080
31059,57092,5058
31040,57086,5035
31022,57081,5014
31003,57076,4996
30985,57070,4979
30969,57064,4962
30953,57059,4946
30940,57053,4929
30929,57049,4912
30917,57047,4894
30902,57045,4877
30887,57043,4861
30875,57042,4846
30863,57042,4832
30847,57041,4818
30827,57040,4803
30803,57036,4784
30776,57031,4763
30749,57026,4738
30722,57018,4711
