green_channel,red_channel,ir_channel
12590,31644,49508
12560,31611,49455
12526,31576,49400
12486,31537,49342
12445,31500,49278
12403,31465,49210
12358,31426,49136
12309,31380,49053
12255,31328,48966
12198,31273,48879
12136,31213,48792
12072,31149,48704
12008,31080,48614
11944,31006,48519
11874,30925,48416
11800,30842,48307
11725,30764,48197
11649,30692,48086
11573,30623,47977
11498,30554,47869
11425,30486,47763
11353,30415,47658
11283,30342,47557
11214,30270,47463
11150,30206,47379
11090,30144,47298
11030,30083,47217
10970,30026,47135
10914,29976,47056
10866,29929,46982
10821,29885,46914
10777,29840,46848
10731,29795,46786
10681,29749,46722
10628,29702,46653
10573,29655,46579
10521,29611,46502
10469,29565,46422
10420,29519,46342
10376,29475,46265
10335,29433,46193
10294,29392,46123
10252,29351,46051
10208,29308,45980
10166,29264,45915
10129,29221,45854
10094,29179,45796
10060,29137,45739
10024,29096,45685
9982,29051,45627
9935,29005,45560
9887,28960,45490
9838,28914,45416
9785,28864,45336
9734,28817,45260
9693,28781,45201
9671,28762,45172
9675,28769,45187
9718,28817,45265
9818,28920,45421
9980,29084,45661
10204,29305,45988
10481,29576,46391
10804,29889,46855
11159,30234,47363
11535,30598,47897
11924,30974,48447
12315,31352,48995
12692,31712,49522
13038,32042,50008
13346,32335,50445
13616,32589,50827
13846,32801,51150
14034,32970,51412
14180,33104,51616
14290,33205,51769
14364,33272,51876
14408,33307,51940
14432,33319,51968
14438,33313,51966
14427,33293,51940
14403,33259,51894
14366,33211,51834
14321,33155,51764
14270,33093,51689
14215,33031,51615
14163,32976,51540
14119,32930,51468
14080,32891,51402
14048,32857,51345
14024,32830,51304
14010,32812,51277
14005,32805,51262
14011,32805,51257
14023,32810,51264
14038,32821,51278
14055,32835,51293
14071,32850,51308
14083,32860,51320
14088,32860,51326
14083,32848,51318
14069,32825,51293
14045,32792,51249
14010,32751,51193
13967,32702,51129
13916,32647,51053
13862,32592,50971
13808,32536,50886
13754,32476,50798
13697,32417,50713
13641,32363,50632
13589,32311,50555
13546,32262,50484
13510,32219,50421
13480,32179,50365
13453,32141,50315
13428,32108,50269
13407,32079,50229
13388,32058,50198
13370,32039,50172
13352,32021,50152
13335,32006,50137
13319,31993,50125
13305,31980,50114
13294,31969,50105
13285,31964,50098
13278,31962,50089
13273,31957,50077
13270,31953,50066
13267,31949,50057
13260,31939,50043
13247,31921,50020
13229,31894,49987
13211,31864,49951
13190,31835,49909
13160,31805,49860
13118,31772,49807
13073,31734,49747
13029,31695,49680
12989,31653,49606
12949,31610,49529
12905,31564,49450
12857,31513,49372
12805,31458,49291
12754,31399,49210
12700,31335,49129
12639,31263,49043
12568,31185,48946
12493,31106,48844
12414,31029,48742
12330,30953,48632
12244,30872,48515
12157,30788,48396
12067,30707,48277
11974,30626,48158
11880,30546,48038
11788,30466,47920
11698,30388,47806
11611,30311,47696
11529,30238,47591
11456,30169,47488
11390,30102,47387
11326,30034,47287
11262,29967,47188
11197,29903,47090
11135,29840,46996
11076,29781,46905
11018,29724,46814
10962,29667,46728
10908,29612,46651
10855,29556,46575
10801,29499,46495
10749,29443,46416
10697,29387,46338
10642,29331,46257
10583,29277,46174
10527,29228,46096
10476,29181,46021
10425,29135,45944
10375,29088,45868
10327,29041,45794
10280,28990,45719
10233,28937,45642
10185,28879,45564
10133,28822,45487
10078,28769,45411
10023,28717,45338
9969,28665,45264
9915,28615,45190
9863,28568,45122
9814,28527,45064
9777,28496,45024
9758,28483,45013
9767,28497,45043
9818,28552,45136
9926,28661,45309
10097,28831,45571
10330,29062,45920
10619,29346,46343
10954,29673,46822
11317,30030,47337
11695,30402,47870
12080,30777,48413
12461,31149,48954
12831,31508,49478
13179,31842,49971
13496,32143,50420
13776,32407,50814
14012,32626,51149
14205,32800,51422
14356,32932,51634
14464,33025,51791
14530,33082,51895
14564,33108,51954
14574,33109,51976
14563,33093,51969
14535,33065,51939
14494,33025,51887
14442,32975,51815
14384,32918,51731
14321,32857,51640
14256,32792,51545
14190,32728,51452
14127,32670,51367
14070,32617,51289
14020,32569,51221
13981,32526,51166
13952,32492,51126
13931,32468,51097
13919,32450,51076
13914,32435,51065
13913,32425,51062
13911,32419,51064
13908,32414,51065
13904,32409,51060
13896,32403,51050
13881,32393,51033
13855,32375,51003
13822,32349,50959
13781,32314,50902
13734,32267,50835
13677,32207,50760
13608,32138,50675
13530,32063,50580
13447,31982,50477
13363,31901,50366
13283,31822,50254
13208,31745,50143
13140,31670,50037
13077,31598,49939
13020,31536,49853
12971,31484,49782
12928,31441,49723
12892,31406,49676
12863,31381,49642
12840,31362,49620
12822,31346,49602
12810,31331,49587
12806,31321,49575
12803,31316,49565
12799,31312,49557
12793,31307,49551
12786,31302,49544
12776,31297,49535
12765,31290,49521
12754,31283,49503
12744,31271,49481
12729,31255,49458
12709,31235,49432
12684,31212,49400
12658,31186,49363
12628,31157,49318
12594,31123,49266
12554,31082,49208
12510,31035,49141
12461,30981,49065
12407,30921,48981
12348,30859,48892
12284,30794,48797
12216,30724,48693
12145,30650,48582
12072,30577,48467
11997,30504,48353
11916,30427,48237
11832,30347,48119
11746,30265,48000
11657,30179,47878
11563,30088,47751
11469,29997,47622
11377,29907,47495
11286,29817,47371
11197,29725,47247
11110,29635,47125
11024,29549,47006
10937,29467,46889
10848,29387,46771
10761,29310,46650
10677,29236,46529
10597,29160,46411
10519,29078,46294
10441,28993,46181
10365,28914,46078
10293,28842,45984
10225,28776,45896
10163,28717,45816
10109,28663,45741
10060,28614,45670
10015,28572,45600
9972,28536,45532
9931,28500,45470
9890,28461,45411
9848,28418,45350
9803,28370,45286
9756,28317,45218
9704,28264,45150
9647,28209,45080
9588,28156,45006
9526,28105,44931
9465,28053,44853
9407,28000,44773
9356,27954,44695
9309,27911,44615
9259,27867,44533
9205,27818,44451
9149,27767,44370
9096,27717,44291
9042,27662,44208
8984,27600,44120
8923,27535,44026
8857,27470,43928
8791,27406,43830
8728,27346,43739
8679,27298,43672
8658,27274,43650
8678,27290,43692
8753,27362,43823
8898,27506,44064
9117,27728,44417
9403,28021,44867
9746,28372,45395
10133,28766,45979
10546,29183,46596
10970,29606,47223
11392,30021,47840
11799,30418,48428
12184,30787,48974
12543,31126,49474
12870,31435,49923
13160,31708,50317
13405,31935,50654
13604,32115,50930
13761,32251,51145
13879,32350,51304
13959,32416,51410
14002,32452,51469
14015,32461,51486
14005,32449,51471
13977,32419,51432
13933,32370,51371
13878,32312,51294
13821,32254,51212
13766,32195,51128
13713,32139,51046
13663,32090,50967
13621,32048,50897
13586,32010,50838
13558,31977,50793
13540,31952,50763
13533,31939,50749
13537,31938,50748
13553,31944,50758
13575,31956,50775
13599,31971,50792
13621,31984,50808
13638,31992,50818
13651,31997,50821
13656,31993,50814
13647,31977,50794
13624,31949,50759
13596,31917,50716
13564,31878,50664
13524,31830,50597
13476,31775,50516
13419,31712,50424
13354,31645,50325
13283,31575,50220
13210,31504,50114
13138,31433,50014
13068,31365,49924
13004,31303,49844
12949,31249,49775
12902,31204,49715
12857,31165,49662
12816,31128,49615
12777,31095,49570
12744,31070,49533
12717,31056,49504
12696,31048,49482
12680,31044,49472
12671,31044,49471
12671,31050,49476
12682,31060,49487
12694,31070,49501
12703,31078,49513
12704,31075,49511
12699,31060,49494
12691,31036,49468
12676,31006,49436
12653,30974,49396
12626,30940,49349
12597,30902,49293
12563,30862,49232
12522,30819,49165
12472,30774,49096
12415,30728,49022
12354,30676,48942
12292,30617,48858
12230,30554,48773
12167,30492,48688
12098,30430,48598
12024,30362,48498
11946,30286,48388
11862,30206,48271
11775,30125,48150
11687,30044,48026
11600,29962,47901
11512,29878,47772
11422,29793,47639
11328,29703,47503
11228,29610,47364
11126,29513,47228
11022,29416,47095
10920,29320,46963
10820,29225,46829
10721,29133,46693
10624,29043,46562
10528,28952,46438
10434,28863,46319
10343,28778,46203
10253,28698,46092
10167,28620,45986
10089,28546,45886
10018,28479,45792
9951,28420,45703
9886,28363,45617
9823,28310,45538
9768,28260,45466
9720,28214,45396
9676,28172,45332
9636,28135,45273
9598,28098,45213
9557,28060,45152
9513,28019,45089
9466,27977,45028
9419,27933,44970
9374,27888,44908
9326,27840,44840
9276,27792,44772
9225,27747,44705
9176,27703,44635
9127,27658,44564
9078,27612,44493
9026,27565,44422
8971,27515,44345
8910,27458,44263
8848,27399,44177
8784,27340,44087
8718,27277,43993
8650,27212,43894
8583,27146,43792
8513,27077,43686
8438,27000,43575
8359,26921,43459
8275,26846,43342
8187,26771,43225
8097,26694,43108
8010,26624,42999
7934,26567,42907
7881,26528,42848
7862,26518,42840
7896,26557,42910
8001,26664,43082
8189,26848,43369
8460,27107,43774
8805,27434,44287
9206,27819,44883
9643,28244,45532
10100,28693,46211
10563,29150,46894
11012,29595,47552
11433,30013,48166
11822,30396,48729
12181,30745,49241
12505,31056,49698
12784,31322,50093
13018,31542,50419
13207,31720,50681
13352,31855,50882
13457,31946,51027
13523,31998,51119
13553,32020,51163
13556,32021,51168
13537,32002,51139
13503,31967,51084
13460,31921,51014
13412,31865,50933
13358,31799,50845
13302,31732,50756
13246,31670,50674
13191,31614,50597
13141,31563,50524
13106,31520,50462
13085,31485,50414
13070,31461,50378
13061,31448,50354
13063,31444,50340
13073,31443,50333
13084,31442,50332
13091,31440,50334
13097,31439,50338
13097,31437,50342
13090,31431,50339
13071,31415,50328
13039,31390,50305
12999,31358,50266
12956,31313,50210
12908,31259,50139
12851,31198,50058
12783,31131,49967
12707,31056,49865
12628,30978,49756
12545,30899,49645
12461,30822,49536
12380,30751,49432
12309,30692,49339
12251,30646,49262
12207,30611,49203
12174,30586,49161
12155,30570,49135
12148,30563,49123
12148,30559,49120
12150,30557,49120
12158,30562,49125
12176,30575,49134
12198,30591,49149
12220,30609,49169
12249,30634,49192
12281,30663,49214
12310,30687,49236
12333,30703,49254
12355,30717,49268
12375,30732,49279
12391,30741,49284
12400,30741,49279
12405,30736,49265
12403,30724,49243
12392,30702,49216
12376,30676,49183
12355,30650,49145
12332,30625,49100
12307,30598,49049
12282,30566,48994
12259,30530,48938
12237,30492,48880
12212,30453,48818
12183,30411,48749
12153,30370,48679
12121,30330,48611
12087,30289,48541
12051,30249,48470
12012,30208,48398
11967,30163,48322
11916,30113,48240
11864,30064,48155
11811,30013,48069
11758,29960,47979
11703,29901,47885
11649,29842,47792
11599,29785,47705
11549,29729,47623
11494,29672,47540
11435,29613,47455
11370,29554,47368
11298,29494,47279
11225,29431,47187
11154,29365,47093
11080,29297,46996
10998,29225,46896
10912,29147,46794
10826,29068,46690
10741,28988,46588
10657,28910,46487
10576,28835,46384
10502,28766,46281
10433,28702,46180
10367,28641,46084
10303,28582,45992
10241,28523,45899
10177,28462,45807
10113,28399,45716
10050,28335,45626
9988,28268,45537
9925,28197,45446
9863,28126,45355
9802,28060,45267
9741,27999,45180
9683,27942,45094
9625,27883,45006
9568,27821,44919
9514,27765,44836
9468,27719,44759
9428,27681,44689
9392,27647,44626
9359,27616,44568
9328,27588,44519
9303,27569,44484
9293,27563,44471
9309,27584,44492
9362,27642,44566
9460,27745,44708
9608,27896,44931
9812,28099,45245
10069,28357,45644
10373,28660,46109
10711,28997,46621
11069,29354,47163
11436,29716,47709
11802,30071,48243
12158,30416,48758
12497,30745,49245
12813,31051,49694
13104,31329,50100
13364,31572,50460
13585,31776,50768
13764,31939,51021
13903,32065,51220
14007,32156,51367
14077,32214,51465
14118,32241,51522
14134,32244,51545
14131,32231,51541
14115,32207,51512
14088,32171,51463
14051,32122,51397
14003,32067,51319
13946,32007,51233
13884,31943,51146
13820,31877,51063
13758,31815,50984
13703,31760,50912
13657,31711,50849
13621,31672,50797
13601,31648,50757
13595,31638,50733
13598,31639,50724
13613,31649,50726
13635,31668,50735
13661,31691,50750
13692,31711,50768
13725,31729,50786
13750,31744,50798
13766,31749,50797
13768,31740,50777
13752,31717,50741
13722,31681,50691
13682,31635,50629
13628,31580,50556
13560,31516,50471
13485,31446,50376
13408,31372,50273
13335,31299,50170
13266,31232,50072
13202,31171,49983
13142,31115,49903
13092,31066,49833
13056,31028,49777
13034,31005,49738
13020,30993,49710
13010,30985,49688
13005,30979,49672
13002,30975,49664
12997,30972,49662
12992,30970,49663
12989,30966,49664
12986,30959,49661
12977,30948,49651
12965,30935,49636
12953,30920,49621
12938,30901,49603
12918,30878,49577
12891,30853,49545
12862,30828,49508
12836,30804,49465
12814,30779,49417
12791,30749,49367
12762,30716,49314
12728,30683,49258
12691,30646,49196
12651,30603,49127
12606,30554,49047
12553,30497,48959
12491,30430,48863
12420,30358,48761
12345,30284,48658
12265,30206,48553
12180,30122,48441
12091,30037,48321
12007,29957,48205
11928,29883,48095
11853,29811,47988
11778,29740,47883
11705,29669,47781
11634,29596,47678
11564,29520,47573
11494,29444,47467
11422,29369,47362
11348,29295,47257
11275,29220,47150
11203,29149,47042
11128,29078,46936
11049,29005,46830
10974,28933,46728
10904,28861,46626
10838,28794,46521
10773,28731,46418
10708,28669,46321
10647,28612,46234
10592,28561,46157
10545,28514,46088
10507,28471,46024
10474,28436,45968
10445,28409,45923
10421,28386,45885
10398,28364,45850
10375,28341,45815
10354,28321,45780
10337,28301,45745
10318,28278,45708
10295,28253,45669
10272,28230,45632
10250,28208,45600
10224,28187,45568
10196,28165,45533
10166,28141,45492
10131,28112,45440
10088,28078,45379
10044,28041,45310
9998,28001,45236
9948,27955,45160
9893,27904,45083
9836,27851,45000
9776,27795,44911
9716,27735,44815
9654,27672,44715
9593,27609,44612
9532,27544,44507
9469,27477,44405
9405,27408,44305
9342,27342,44211
9285,27284,44128
9243,27240,44067
9228,27226,44049
9253,27256,44099
9332,27341,44231
9476,27489,44462
9691,27707,44797
9970,27991,45226
10302,28326,45730
10674,28696,46286
11067,29087,46872
11462,29483,47469
11849,29872,48052
12221,30241,48607
12575,30581,49127
12902,30892,49604
13197,31174,50031
13455,31424,50405
13677,31637,50726
13863,31814,50990
14013,31952,51196
14127,32049,51344
14205,32112,51439
14252,32146,51492
14273,32153,51511
14271,32136,51500
14246,32101,51465
14205,32053,51410
14154,31997,51338
14096,31938,51255
14038,31879,51171
13982,31821,51093
13930,31765,51017
13883,31715,50945
13843,31673,50884
13812,31642,50841
13791,31621,50814
13779,31611,50797
13772,31609,50788
13772,31613,50787
13780,31622,50793
13798,31638,50804
13819,31655,50817
13840,31668,50828
13859,31673,50835
13873,31674,50839
13878,31673,50839
13871,31664,50829
13856,31642,50806
13836,31614,50772
13810,31582,50726
13777,31540,50665
13733,31488,50592
13680,31427,50508
13619,31362,50417
13548,31291,50321
13470,31215,50225
13391,31140,50130
13314,31071,50036
13240,31007,49948
13177,30950,49871
13129,30907,49811
13097,30879,49768
13078,30861,49738
13069,30849,49716
13069,30847,49703
13076,30856,49698
13090,30868,49698
13107,30879,49703
13131,30891,49713
13156,30906,49728
13178,30919,49744
13194,30930,49754
13203,30939,49758
13203,30944,49754
13195,30940,49739
13176,30928,49711
13155,30909,49676
13131,30883,49636
13104,30847,49588
13069,30803,49533
13026,30756,49476
12980,30709,49415
12932,30662,49349
12883,30614,49278
12827,30562,49205
12765,30506,49126
12697,30443,49038
12628,30373,48945
12557,30300,48851
12482,30226,48753
12408,30149,48649
12334,30069,48540
12259,29988,48428
12180,29905,48311
12098,29821,48192
12015,29737,48070
11931,29652,47945
11846,29566,47819
11761,29483,47697
11679,29407,47584
11600,29335,47477
11523,29265,47374
11450,29200,47274
11380,29140,47180
11311,29081,47090
11241,29021,47001
11171,28958,46910
11104,28898,46817
11038,28838,46724
10973,28776,46631
10908,28714,46539
10844,28657,46451
10781,28603,46368
10719,28545,46287
10659,28490,46209
10607,28443,46139
10562,28400,46077
10521,28355,46017
10483,28310,45959
10446,28268,45905
10406,28228,45849
10366,28187,45786
10328,28145,45722
10286,28099,45656
10240,28047,45583
10189,27992,45503
10134,27941,45421
10078,27893,45338
10020,27840,45257
9960,27784,45174
9898,27730,45089
9838,27678,45006
9777,27622,44922
9715,27560,44834
9656,27501,44746
9598,27444,44657
9541,27389,44566
9482,27332,44475
9422,27273,44387
9362,27214,44297
9300,27152,44207
9237,27090,44122
9183,27039,44048
9144,27005,43998
9130,26996,43990
9154,27027,44051
9235,27117,44203
9384,27277,44457
9605,27509,44814
9893,27809,45268
10242,28167,45801
10636,28564,46386
11055,28981,46995
11480,29401,47605
11895,29813,48201
12292,30204,48770
12666,30567,49304
13009,30892,49795
13311,31175,50227
13570,31415,50593
13784,31612,50895
13954,31767,51137
14080,31883,51320
14167,31962,51447
14217,32007,51522
14237,32023,51555
14233,32017,51554
14207,31991,51522
14165,31946,51464
14113,31889,51389
14060,31832,51311
14008,31776,51233
13955,31721,51153
13905,31669,51074
13859,31620,51005
13816,31576,50942
13780,31537,50883
13754,31507,50834
13737,31484,50797
13726,31465,50769
13719,31452,50748
13717,31447,50738
13722,31448,50737
13727,31451,50737
13728,31448,50734
13727,31439,50727
13721,31421,50715
13706,31396,50696
13684,31369,50668
13653,31338,50629
13613,31298,50578
13564,31254,50515
13507,31203,50441
13445,31142,50357
13378,31072,50266
13307,30995,50171
13232,30918,50072
13160,30847,49976
13090,30781,49886
13026,30721,49804
12970,30670,49732
12923,30631,49670
12888,30600,49619
12862,30573,49576
12841,30553,49544
12826,30539,49518
12815,30530,49495
12805,30522,49477
12799,30520,49465
12797,30522,49460
12798,30527,49459
12801,30535,49461
12805,30545,49465
12807,30552,49470
12801,30552,49470
12791,30546,49462
12778,30535,49448
12758,30516,49425
12733,30487,49391
12703,30452,49348
12668,30415,49300
12627,30376,49245
12582,30331,49183
12534,30285,49117
12485,30241,49050
12434,30197,48977
12384,30148,48897
12334,30098,48813
12278,30046,48727
12220,29992,48635
12161,29936,48542
12100,29876,48449
12036,29811,48355
11970,29743,48256
11902,29674,48151
11835,29603,48043
11769,29532,47938
11699,29463,47834
11623,29394,47732
11543,29325,47628
11464,29257,47525
11387,29190,47426
11317,29126,47330
11258,29069,47240
11208,29018,47157
11166,28972,47080
11129,28929,47008
11094,28888,46940
11058,28850,46879
11024,28815,46826
10992,28784,46775
10962,28756,46724
10932,28728,46672
10902,28700,46621
10870,28671,46567
10834,28637,46510
10795,28600,46453
10756,28562,46398
10715,28521,46340
10672,28478,46281
10632,28435,46221
10596,28395,46160
10560,28357,46099
10520,28317,46035
10479,28274,45972
10441,28231,45910
10404,28186,45849
10367,28138,45786
10330,28092,45724
10291,28048,45660
10249,28004,45593
10207,27958,45525
10168,27911,45456
10133,27866,45389
10102,27824,45327
10066,27787,45269
10027,27755,45213
9991,27725,45160
9967,27702,45120
9962,27699,45108
9983,27723,45144
10046,27786,45249
10165,27904,45439
10346,28084,45719
10587,28328,46089
10883,28627,46535
11226,28968,47041
11601,29336,47589
11991,29720,48157
12386,30108,48724
12780,30489,49283
13162,30856,49821
13519,31199,50321
13842,31509,50769
14123,31778,51159
14358,31999,51489
14546,32175,51756
14690,32310,51959
14796,32407,52107
14871,32471,52208
14917,32506,52266
14938,32515,52282
14939,32501,52266
14921,32469,52223
14889,32427,52161
14845,32378,52087
14796,32326,52009
14745,32272,51930
14690,32213,51854
14634,32148,51781
14580,32090,51719
14535,32044,51671
14500,32007,51632
14476,31979,51599
14464,31963,51576
14462,31957,51562
14468,31954,51553
14478,31953,51552
14493,31957,51553
14510,31962,51553
14523,31963,51550
14534,31959,51549
14542,31952,51546
14540,31941,51537
14528,31924,51516
14507,31897,51484
14479,31860,51441
14440,31818,51385
14389,31770,51312
14329,31713,51225
14268,31650,51130
14206,31586,51032
14141,31524,50938
14074,31464,50849
14008,31407,50767
13945,31350,50690
13889,31296,50620
13841,31251,50559
13801,31215,50507
13771,31183,50459
13747,31156,50418
13727,31134,50386
13711,31118,50362
13697,31104,50345
13685,31092,50335
13677,31083,50334
13669,31076,50339
13664,31073,50344
13664,31070,50347
13667,31067,50351
13670,31063,50353
13665,31058,50349
13655,31050,50336
13645,31038,50317
13635,31022,50292
13622,31003,50264
13606,30983,50229
13585,30965,50188
13558,30942,50138
13524,30908,50079
13481,30861,50013
13433,30806,49939
13381,30748,49859
13324,30691,49777
13263,30636,49695
13199,30579,49609
13129,30519,49516
13057,30457,49418
12992,30397,49322
12934,30333,49228
12875,30266,49133
12809,30197,49035
12738,30128,48935
12669,30060,48833
12602,29995,48734
12538,29928,48637
12478,29863,48546
12423,29797,48456
12364,29730,48364
12302,29669,48270
12238,29613,48176
12171,29556,48082
12105,29496,47987
12043,29434,47892
11982,29369,47801
11919,29302,47710
11852,29237,47616
11784,29178,47526
11721,29127,47446
11663,29079,47370
11611,29029,47294
11564,28981,47221
11522,28937,47153
11479,28893,47090
11439,28853,47028
11402,28819,46965
11366,28786,46902
11328,28747,46841
11290,28707,46780
11253,28667,46717
11216,28630,46651
11174,28591,46581
11124,28544,46505
11073,28490,46427
11025,28436,46352
10976,28382,46278
10923,28328,46200
10869,28275,46117
10814,28223,46034
10757,28167,45950
10697,28107,45863
10637,28044,45776
10577,27982,45687
10512,27918,45593
10446,27852,45497
10384,27789,45406
10333,27738,45325
10290,27699,45260
10258,27672,45214
10251,27668,45205
10288,27706,45253
10380,27800,45380
10536,27958,45603
10763,28181,45930
11055,28465,46352
11398,28798,46850
11776,29170,47404
12178,29566,47993
12594,29975,48597
13008,30380,49200
13408,30768,49780
13786,31132,50322
14132,31463,50813
14438,31753,51244
14701,32000,51612
14924,32206,51921
15108,32370,52169
15251,32493,52359
15353,32576,52496
15419,32625,52586
15454,32646,52633
15464,32645,52646
15453,32626,52630
15426,32592,52591
15390,32546,52531
15348,32492,52457
15303,32438,52378
15257,32385,52298
15212,32329,52220
15167,32275,52146
15127,32227,52083
15092,32185,52032
15059,32149,51992
15029,32125,51961
15004,32110,51936
14987,32098,51917
14979,32092,51906
14981,32090,51904
14993,32095,51912
15010,32104,51928
15026,32113,51946
15039,32121,51961
15050,32125,51967
15052,32123,51961
15042,32109,51940
15020,32082,51903
14990,32048,51857
14952,32009,51805
14902,31959,51742
14841,31901,51671
14774,31840,51592
14709,31784,51505
14650,31732,51414
14594,31680,51325
14546,31628,51242
14505,31577,51163
14465,31528,51092
14426,31481,51030
14393,31444,50978
14366,31415,50938
14340,31391,50906
14319,31372,50882
14302,31358,50864
14287,31344,50847
14272,31331,50832
14258,31321,50821
14249,31318,50817
14244,31321,50817
14242,31324,50814
14241,31327,50809
14242,31330,50806
14243,31332,50802
14243,31329,50793
14244,31321,50780
14244,31307,50763
14236,31287,50737
14217,31260,50701
14189,31229,50657
14153,31193,50603
14111,31151,50541
14059,31101,50471
14001,31046,50394
13940,30989,50314
13876,30926,50231
13808,30859,50146
13741,30795,50061
13679,30737,49975
13625,30684,49888
13577,30633,49804
13531,30586,49723
13484,30542,49644
13432,30494,49564
13375,30436,49484
13315,30370,49401
13256,30304,49313
13191,30238,49220
13118,30168,49123
13042,30096,49018
12966,30023,48908
12889,29949,48799
12815,29874,48695
12744,29800,48597
12678,29731,48501
12616,29669,48403
12557,29613,48306
12505,29561,48216
12457,29511,48133
12407,29458,48051
12351,29402,47970
12294,29347,47893
12237,29296,47819
12180,29246,47745
12125,29200,47673
12076,29157,47606
12030,29118,47542
11990,29078,47480
11954,29037,47423
11922,29001,47371
11890,28967,47323
11860,28932,47278
11834,28900,47236
11807,28871,47189
11776,28841,47134
11744,28809,47075
11713,28776,47015
11683,28743,46956
11648,28708,46893
11603,28666,46824
11554,28614,46747
11503,28556,46664
11448,28495,46575
11389,28434,46485
11333,28375,46396
11276,28317,46307
11219,28260,46219
11166,28204,46133
11123,28156,46051
11084,28111,45974
11044,28066,45897
11000,28019,45817
10953,27970,45737
10903,27919,45657
10847,27865,45578
10791,27814,45509
10750,27783,45468
10745,27787,45479
10788,27835,45562
10889,27939,45732
11057,28112,46001
11295,28358,46372
11597,28664,46831
11952,29018,47359
12349,29409,47937
12768,29821,48546
13195,30236,49161
13617,30642,49763
14019,31029,50340
14390,31387,50872
14717,31701,51341
14994,31969,51742
15223,32190,52078
15406,32363,52346
15543,32488,52544
15637,32568,52679
15693,32610,52760
15714,32619,52793
15705,32601,52785
15674,32566,52746
15631,32521,52686
15585,32468,52610
15538,32410,52526
15489,32349,52439
15438,32290,52355
15385,32234,52274
15336,32185,52197
15291,32142,52125
15248,32102,52061
15206,32066,52007
15173,32037,51962
15154,32017,51932
15146,32006,51917
15143,31998,51910
15140,31991,51906
15137,31990,51901
15136,31988,51894
15136,31980,51886
15136,31972,51879
15139,31965,51873
15134,31954,51863
15118,31934,51839
15095,31908,51802
15066,31878,51759
15028,31841,51709
14984,31796,51650
14937,31746,51581
14890,31693,51508
14840,31637,51431
14787,31580,51351
14727,31521,51267
14667,31462,51187
14609,31407,51113
14551,31357,51042
14495,31310,50975
14447,31267,50916
14407,31232,50864
14376,31206,50823
14356,31186,50790
14342,31172,50763
14332,31160,50739
14327,31149,50718
14325,31141,50703
14326,31135,50693
14322,31127,50683
14313,31116,50672
14303,31102,50661
14293,31089,50652
14280,31076,50642
14265,31060,50628
14251,31043,50611
14238,31025,50590
14223,31006,50563
14205,30987,50534
14184,30968,50504
14161,30948,50473
14132,30922,50434
14094,30888,50383
14048,30847,50322
13996,30799,50251
13940,30744,50174
13879,30682,50092
13813,30618,50005
13741,30551,49910
13664,30473,49808
13585,30386,49702
13509,30304,49596
13435,30230,49492
13367,30161,49389
13305,30098,49289
13245,30041,49195
13182,29984,49101
13114,29922,49005
13039,29854,48906
12961,29787,48803
12882,29717,48697
12802,29644,48587
12722,29570,48473
12643,29499,48361
12566,29428,48249
12493,29354,48138
12424,29277,48028
12354,29203,47924
12281,29135,47825
12207,29070,47725
12132,29003,47626
12060,28935,47531
11992,28871,47441
11930,28810,47355
11874,28758,47276
11825,28711,47204
11782,28667,47132
11739,28622,47059
11693,28574,46986
11639,28524,46910
11576,28469,46826
11507,28408,46733
11436,28342,46637
11362,28270,46534
11284,28191,46426
11201,28109,46314
11114,28029,46198
11028,27952,46082
10945,27876,45970
10863,27801,45863
10785,27730,45756
10712,27663,45651
10638,27596,45544
10560,27530,45434
10482,27465,45324
10409,27401,45214
10340,27337,45109
10274,27276,45009
10213,27220,44917
10160,27169,44834
10121,27129,44775
10109,27112,44760
10138,27139,44815
10224,27225,44958
10377,27382,45204
10601,27613,45561
10896,27916,46020
11253,28279,46565
11657,28687,47167
12092,29124,47802
12542,29571,48450
12988,30009,49090
13414,30426,49700
13807,30811,50267
14158,31157,50776
14461,31455,51217
14718,31697,51586
14926,31887,51887
15084,32029,52119
15194,32128,52285
15265,32189,52391
15304,32216,52448
15314,32216,52464
15297,32193,52446
15260,32153,52400
15211,32103,52332
15153,32044,52248
15087,31974,52151
15016,31898,52049
14943,31825,51949
14868,31756,51851
14794,31688,51753
14725,31625,51663
14666,31570,51584
14617,31524,51518
14576,31485,51462
14545,31456,51417
14528,31439,51385
14523,31431,51364
14526,31427,51353
14536,31429,51348
14550,31434,51349
14563,31438,51350
14569,31434,51347
14567,31420,51338
14558,31398,51318
14538,31370,51284
14508,31337,51239
14468,31299,51185
14419,31251,51119
14357,31193,51039
14284,31128,50950
14204,31058,50856
14127,30990,50761
14057,30925,50668
13997,30867,50584
13944,30820,50512
13900,30782,50451
13865,30751,50397
13840,30726,50349
13823,30706,50314
13815,30692,50290
13813,30682,50272
13817,30679,50263
13827,30685,50266
13840,30700,50275
13853,30717,50285
13865,30732,50296
13878,30742,50308
13889,30748,50318
13893,30749,50321
13883,30744,50314
13865,30737,50302
13846,30731,50286
13828,30723,50269
13810,30709,50248
13790,30689,50221
13766,30661,50186
13733,30624,50141
13694,30578,50087
13651,30529,50026
13603,30473,49957
13550,30409,49878
13488,30338,49789
13416,30263,49688
13334,30187,49576
13247,30107,49456
13161,30028,49333
13078,29951,49212
12996,29875,49092
12913,29798,48968
12831,29721,48844
12754,29645,48722
12680,29565,48603
12603,29481,48483
12520,29395,48360
12434,29311,48238
12347,29230,48116
12259,29150,47994
12174,29072,47872
12093,28993,47754
12013,28912,47639
11937,28832,47529
11866,28757,47424
11798,28686,47321
11728,28615,47214
11653,28544,47104
11576,28479,46998
11502,28419,46898
11433,28363,46804
11372,28309,46716
11321,28259,46638
11271,28211,46568
11221,28158,46495
11170,28104,46416
11119,28053,46336
11069,28004,46259
11020,27954,46180
10967,27898,46099
10911,27839,46015
10853,27777,45924
10795,27714,45824
10735,27652,45723
10675,27591,45623
10613,27527,45526
10553,27462,45429
10493,27397,45331
10435,27336,45233
10377,27278,45137
10319,27222,45042
10261,27166,44947
10202,27110,44853
10146,27056,44762
10093,27005,44680
10043,26955,44610
9999,26914,44555
9974,26889,44522
9979,26892,44533
10023,26938,44609
10117,27042,44774
10279,27214,45043
10521,27464,45420
10840,27788,45899
11218,28173,46462
11642,28599,47085
12092,29047,47741
12551,29501,48407
13004,29948,49061
13440,30377,49688
13848,30778,50272
14221,31142,50799
14553,31462,51260
14838,31730,51649
15073,31943,51965
15260,32107,52216
15399,32225,52406
15490,32299,52536
15541,32334,52609
15560,32342,52636
15555,32329,52627
15531,32296,52592
15498,32247,52534
15458,32186,52457
15410,32118,52368
15354,32049,52275
15298,31983,52181
15246,31924,52092
15200,31873,52008
15165,31830,51934
15140,31797,51876
15126,31775,51835
15117,31760,51804
15109,31751,51779
15101,31746,51762
15097,31743,51755
15096,31737,51751
15092,31730,51749
15087,31723,51748
15085,31717,51746
15083,31710,51740
15079,31701,51728
15071,31690,51711
15057,31674,51688
15031,31649,51654
14995,31615,51610
14951,31574,51556
14901,31527,51494
14846,31471,51421
14788,31409,51341
14730,31347,51256
14673,31285,51170
14617,31221,51086
14561,31157,51002
14508,31099,50922
14460,31049,50855
14419,31009,50802
14388,30979,50760
14365,30959,50725
14347,30944,50693
14332,30930,50664
14323,30918,50645
14319,30909,50634
14317,30904,50627
14316,30900,50619
14313,30898,50613
14313,30900,50613
14317,30903,50615
14320,30899,50612
14321,30892,50604
14320,30885,50590
14315,30875,50570
14304,30858,50545
14292,30842,50516
14277,30828,50484
14257,30812,50446
14235,30791,50404
14209,30763,50357
14177,30727,50305
14141,30684,50244
14099,30634,50174
14055,30585,50100
14011,30542,50028
13963,30499,49953
13910,30450,49870
13856,30395,49782
13800,30334,49690
13740,30267,49594
13676,30197,49498
13612,30127,49404
13547,30057,49307
13474,29982,49205
13398,29905,49097
13325,29828,48989
13255,29756,48881
13190,29685,48774
13130,29616,48669
13072,29553,48569
13016,29495,48475
12957,29441,48384
12898,29390,48296
12841,29340,48213
12785,29289,48132
12729,29237,48050
12675,29184,47969
12623,29130,47888
12570,29073,47806
12514,29014,47721
12458,28954,47634
12405,28895,47547
12351,28837,47461
12296,28779,47377
12242,28723,47293
12190,28670,47214
12136,28616,47137
12078,28562,47058
12020,28510,46977
11966,28460,46894
11909,28407,46806
11848,28347,46708
11784,28282,46604
11720,28216,46499
11654,28145,46393
11587,28068,46285
11516,27991,46175
11449,27917,46070
11386,27846,45971
11327,27777,45875
11269,27710,45783
11214,27650,45697
11164,27602,45624
11124,27566,45569
11106,27551,45548
11124,27574,45580
11191,27645,45687
11316,27775,45888
11509,27971,46194
11770,28234,46596
12090,28556,47076
12457,28922,47615
12855,29317,48196
13271,29730,48802
13689,30149,49410
14098,30555,49998
14482,30937,50551
14831,31282,51057
15139,31583,51503
15405,31836,51884
15630,32042,52199
15811,32202,52449
15949,32321,52631
16046,32405,52757
16109,32460,52839
16141,32486,52883
16145,32482,52890
16125,32453,52864
16085,32405,52811
16029,32341,52735
15965,32269,52644
15905,32201,52548
15852,32139,52454
15805,32083,52368
15764,32036,52292
15729,31995,52228
15700,31960,52175
15676,31929,52129
15660,31908,52094
15650,31900,52069
15648,31897,52054
15654,31895,52049
15666,31896,52055
15680,31900,52069
15689,31906,52084
15691,31910,52095
15690,31912,52098
15683,31908,52096
15667,31894,52084
15643,31870,52058
15613,31838,52019
15576,31799,51968
15534,31755,51908
15488,31707,51845
15441,31658,51775
15393,31608,51698
15339,31556,51615
15283,31503,51529
15231,31452,51444
15187,31402,51363
15148,31356,51288
15111,31312,51219
15076,31274,51159
15043,31240,51105
15012,31208,51053
14984,31175,51007
14960,31147,50971
14941,31124,50947
14929,31107,50932
14926,31098,50923
14933,31099,50921
14951,31111,50931
14974,31127,50949
14997,31144,50970
15018,31157,50989
15032,31166,51000
15036,31167,50998
15032,31157,50981
15021,31140,50956
15007,31119,50928
14986,31094,50894
14953,31060,50852
14912,31021,50803
14866,30980,50749
14814,30936,50688
14762,30889,50622
14711,30845,50554
14659,30801,50483
14602,30752,50404
14543,30697,50320
14488,30638,50235
14435,30576,50144
14380,30510,50047
14323,30441,49949
14262,30371,49849
14194,30300,49746
14119,30230,49635
14041,30160,49520
13959,30087,49401
13874,30011,49283
13787,29931,49166
13701,29848,49048
13617,29763,48930
13536,29678,48809
13457,29594,48688
13381,29515,48572
13309,29441,48462
13236,29368,48355
13160,29294,48251
13085,29222,48148
13014,29154,48048
12947,29087,47950
12880,29020,47849
12813,28954,47747
12742,28887,47643
12670,28817,47536
12596,28746,47429
12521,28674,47323
12447,28603,47220
12376,28536,47125
12308,28474,47034
12243,28416,46947
12181,28361,46861
12120,28306,46774
12063,28248,46685
12008,28186,46594
11951,28123,46501
11891,28063,46405
11829,28004,46308
11766,27944,46211
11700,27881,46115
11627,27812,46012
11547,27740,45902
11463,27667,45788
11375,27592,45675
11285,27515,45561
11200,27440,45447
11121,27371,45332
11046,27303,45221
10973,27231,45116
10906,27166,45021
10855,27118,44948
10829,27092,44910
10840,27101,44928
10900,27166,45030
11024,27296,45233
11225,27500,45547
11501,27778,45967
11839,28119,46476
12225,28506,47051
12642,28926,47669
13074,29363,48310
13509,29801,48955
13937,30228,49587
14344,30628,50181
14715,30990,50723
15044,31305,51205
15327,31574,51620
15564,31797,51961
15757,31973,52229
15908,32108,52430
16019,32204,52571
16088,32259,52657
16116,32279,52692
16115,32273,52685
16092,32249,52648
16055,32209,52588
16005,32155,52514
15949,32091,52430
15892,32023,52341
15835,31953,52248
15778,31882,52156
15723,31817,52069
15677,31759,51993
15637,31708,51925
15602,31667,51864
15572,31636,51813
15546,31610,51777
15528,31590,51757
15520,31576,51750
15518,31572,51751
15520,31575,51756
15521,31578,51758
15515,31578,51757
15507,31575,51753
15499,31568,51745
15485,31553,51730
15465,31531,51705
15436,31504,51668
15397,31469,51619
15349,31425,51559
15298,31377,51492
15247,31327,51422
15192,31269,51346
15133,31207,51264
15075,31145,51181
15020,31089,51098
14970,31038,51017
14927,30992,50942
14892,30951,50873
14861,30914,50811
14835,30884,50759
14815,30858,50716
14801,30838,50683
14790,30825,50660
14779,30819,50645
14771,30817,50634
14768,30813,50622
14771,30805,50612
14776,30796,50606
14780,30787,50602
14784,30781,50602
14782,30777,50600
14776,30770,50593
14766,30759,50580
14754,30744,50566
14735,30727,50550
14710,30709,50529
14682,30688,50499
14655,30668,50463
14627,30647,50424
14593,30622,50380
14553,30589,50329
14511,30548,50267
14465,30498,50194
14412,30439,50113
14355,30376,50025
14295,30315,49931
14233,30255,49831
14166,30192,49728
14098,30126,49622
14032,30060,49517
13966,29996,49415
13899,29933,49316
13834,29871,49217
13770,29809,49119
13703,29743,49020
13634,29671,48921
13568,29599,48825
13506,29528,48729
13442,29458,48626
13376,29388,48522
13311,29318,48420
13245,29246,48323
13177,29177,48228
13109,29114,48139
13046,29057,48057
12986,29004,47979
12930,28956,47905
12878,28914,47831
12833,28873,47757
12792,28831,47683
12751,28786,47608
12707,28738,47530
12662,28689,47451
12616,28638,47370
12564,28585,47286
12502,28526,47196
12434,28465,47102
12363,28399,47004
12290,28326,46903
12215,28249,46799
12139,28174,46693
12062,28103,46584
11983,28028,46471
11905,27950,46359
11828,27874,46254
11752,27805,46154
11678,27740,46054
11611,27679,45957
11550,27624,45867
11493,27575,45783
11440,27530,45708
11396,27492,45647
11365,27469,45608
11355,27465,45598
11381,27491,45634
11457,27566,45740
11590,27700,45933
11782,27895,46218
12034,28151,46598
12342,28462,47061
12696,28816,47589
13080,29200,48156
13481,29603,48742
13891,30013,49336
14299,30415,49924
14688,30795,50484
15047,31142,50998
15367,31449,51451
15643,31713,51840
15875,31928,52166
16062,32098,52426
16209,32226,52625
16320,32317,52765
16397,32371,52853
16439,32390,52894
16449,32382,52899
16434,32355,52873
16397,32313,52822
16345,32258,52751
16288,32193,52671
16229,32124,52588
16168,32049,52498
16103,31975,52404
16040,31907,52314
15983,31848,52232
15937,31799,52159
15902,31763,52100
15876,31738,52057
15860,31723,52032
15855,31716,52022
15860,31718,52024
15870,31728,52038
15884,31743,52059
15901,31758,52081
15924,31774,52100
15952,31789,52118
15977,31802,52132
15993,31809,52138
15997,31809,52135
15991,31800,52121
15976,31781,52091
15950,31749,52045
15916,31712,51986
15879,31670,51917
15837,31625,51838
15793,31578,51758
15745,31531,51684
15698,31486,51616
15655,31443,51553
15619,31403,51497
15590,31368,51450
15566,31339,51412
15547,31316,51385
15533,31298,51366
15524,31287,51351
15519,31281,51339
15516,31276,51327
15514,31269,51315
15513,31259,51306
15516,31251,51304
15520,31249,51307
15520,31249,51308
15516,31250,51307
15511,31250,51301
15506,31244,51289
15497,31233,51272
15481,31217,51252
15462,31196,51227
15438,31172,51194
15409,31145,51152
15376,31115,51104
15341,31085,51051
15304,31054,50995
15263,31019,50940
15217,30977,50883
15166,30924,50818
15110,30865,50743
15049,30803,50662
14985,30739,50573
14916,30671,50476
14841,30595,50372
14760,30516,50262
14672,30434,50149
14578,30349,50032
14486,30265,49912
14403,30185,49797
14326,30111,49690
14252,30040,49587
14183,29973,49488
14121,29911,49391
14061,29849,49296
13998,29786,49198
13938,29727,49101
13882,29671,49011
13824,29616,48923
13764,29557,48836
13702,29496,48749
13644,29438,48665
13590,29383,48583
13533,29325,48504
13470,29265,48423
13404,29202,48339
13338,29138,48252
13271,29075,48162
13204,29011,48066
13140,28943,47966
13079,28877,47867
13022,28815,47771
12966,28756,47674
12909,28694,47571
12851,28625,47463
12788,28551,47354
12717,28476,47248
12642,28402,47141
12569,28330,47033
12497,28263,46925
12427,28199,46821
12361,28137,46725
12300,28081,46638
12248,28030,46556
12202,27984,46483
12161,27946,46423
12134,27919,46386
12132,27914,46384
12167,27945,46435
12247,28027,46559
12383,28169,46767
12579,28374,47065
12833,28639,47453
13136,28953,47916
13476,29304,48433
13848,29681,48983
14242,30072,49552
14644,30461,50125
15041,30841,50684
15425,31207,51215
15783,31548,51704
16106,31849,52137
16381,32102,52504
16606,32308,52804
16785,32468,53041
16923,32585,53221
17022,32665,53349
17087,32712,53430
17123,32732,53468
17132,32728,53468
17120,32705,53441
17093,32669,53399
17056,32626,53345
17010,32578,53281
16963,32531,53210
16920,32486,53139
16881,32441,53073
16843,32397,53011
16806,32356,52956
16771,32318,52908
16741,32283,52868
16718,32251,52837
16701,32226,52813
16692,32212,52797
16692,32207,52784
16695,32207,52773
16699,32208,52767
16706,32213,52769
16714,32220,52776
16721,32225,52782
16724,32224,52783
16722,32217,52775
16712,32202,52756
16691,32178,52723
16660,32143,52677
16620,32099,52619
16571,32044,52553
16512,31983,52477
16448,31916,52392
16380,31845,52300
16309,31771,52204
16237,31693,52105
16167,31615,52007
16101,31543,51916
16040,31481,51833
15986,31428,51757
15940,31383,51691
15909,31350,51641
15888,31328,51604
15869,31313,51578
15854,31304,51559
15842,31297,51544
15832,31288,51530
15822,31277,51516
15809,31265,51502
15794,31253,51485
15777,31236,51467
15753,31216,51447
15727,31194,51423
15702,31171,51394
15680,31144,51358
15654,31112,51319
15624,31079,51279
15592,31046,51238
15560,31012,51195
15525,30976,51148
15486,30942,51098
15445,30905,51042
15397,30861,50978
15344,30813,50908
15288,30763,50831
15228,30708,50748
15158,30645,50659
15081,30579,50566
15003,30511,50470
14925,30439,50369
14843,30364,50265
14757,30291,50161
14671,30222,50056
14588,30156,49952
14508,30089,49849
14435,30023,49751
14368,29961,49658
14304,29897,49567
14240,29833,49476
14178,29772,49388
14118,29718,49305
14062,29669,49226
14009,29621,49148
13961,29573,49073
13919,29532,49000
13878,29494,48926
13835,29451,48851
13796,29403,48778
13759,29357,48711
13719,29311,48646
13674,29263,48575
13626,29216,48499
13581,29173,48424
13536,29132,48354
13488,29086,48285
13439,29035,48217
13389,28982,48149
13337,28931,48082
13284,28880,48012
13232,28828,47939
13186,28777,47867
13146,28730,47797
13109,28683,47725
13072,28639,47650
13036,28599,47577
12999,28560,47506
12958,28520,47434
12914,28481,47362
12874,28447,47297
12840,28414,47240
12813,28383,47193
12796,28363,47162
12794,28361,47155
12813,28381,47185
12866,28435,47265
12962,28536,47413
13112,28692,47639
13320,28900,47944
13581,29156,48323
13886,29455,48763
14224,29786,49246
14585,30137,49758
14960,30497,50286
15335,30856,50816
15696,31203,51330
16032,31527,51808
16334,31818,52242
16600,32071,52626
16828,32283,52952
17014,32453,53217
17158,32583,53418
17267,32673,53562
17343,32731,53656
17384,32762,53707
17396,32771,53721
17392,32762,53708
17374,32736,53675
17342,32698,53623
17303,32653,53557
17263,32606,53483
17222,32558,53408
17179,32508,53333
17137,32461,53263
17097,32420,53203
17059,32383,53152
17026,32355,53112
17004,32336,53081
16992,32323,53059
16987,32312,53047
16984,32303,53040
16982,32298,53039
16985,32298,53044
16994,32297,53052
17006,32298,53059
17021,32305,53067
17041,32313,53073
17063,32319,53076
17080,32322,53073
17089,32325,53065
17086,32323,53043
17074,32308,53005
17060,32285,52956
17039,32253,52902
17010,32215,52843
16977,32175,52783
16948,32139,52722
16925,32110,52664
16906,32084,52607
16887,32057,52554
16866,32030,52504
16844,32005,52455
16825,31981,52409
16810,31960,52369
16803,31946,52339
16802,31938,52318
16803,31931,52302
16804,31924,52290
16807,31919,52283
16813,31918,52280
16817,31917,52280
16817,31914,52280
16812,31909,52274
16801,31895,52262
16783,31871,52244
16758,31840,52220
16727,31807,52188
16687,31772,52147
16641,31731,52095
16592,31684,52032
16542,31633,51963
16490,31580,51890
16434,31525,51814
16374,31472,51736
16313,31421,51658
16252,31368,51579
16189,31308,51494
16121,31246,51406
16052,31184,51315
15983,31123,51222
15918,31062,51128
15856,30999,51034
15798,30936,50944
15740,30872,50854
15678,30807,50759
15608,30738,50656
15529,30658,50548
15440,30565,50431
15344,30465,50304
15246,30367,50170
15147,30273,50035
15049,30179,49904
14951,30085,49777
14860,29995,49654
14777,29910,49534
14698,29832,49423
14624,29764,49321
14558,29704,49225
14496,29648,49132
14437,29595,49045
14388,29549,48966
14348,29509,48893
14310,29469,48825
14267,29423,48756
14218,29370,48681
14166,29313,48603
14110,29255,48526
14050,29197,48446
13988,29140,48365
13924,29084,48283
13855,29025,48194
13778,28961,48095
13699,28894,47988
13621,28827,47880
13546,28760,47776
13472,28690,47674
13403,28618,47566
13333,28543,47451
13259,28467,47333
13182,28389,47215
13104,28312,47099
13023,28233,46985
12940,28151,46866
12856,28069,46744
12776,27988,46625
12703,27915,46517
12639,27852,46421
12583,27800,46340
12537,27760,46281
12509,27741,46255
12510,27751,46272
12555,27801,46348
12659,27905,46504
12826,28071,46756
13058,28301,47103
13348,28591,47532
13685,28928,48028
14052,29296,48570
14430,29675,49133
14805,30050,49696
15172,30416,50246
15528,30770,50774
15868,31104,51270
16182,31410,51723
16462,31680,52124
16703,31907,52468
16900,32090,52748
17052,32230,52961
17165,32331,53116
17241,32396,53222
17279,32424,53278
17286,32418,53286
17268,32387,53252
17231,32339,53190
17178,32277,53107
17110,32200,53007
17031,32118,52899
16950,32039,52791
16870,31965,52685
16794,31896,52587
16723,31833,52498
16660,31776,52417
16609,31725,52341
16573,31682,52275
16550,31651,52224
16537,31630,52188
16532,31619,52164
16532,31616,52154
16536,31617,52154
16538,31619,52159
16538,31619,52161
16537,31617,52156
16535,31610,52144
16527,31595,52126
16513,31574,52097
16492,31550,52057
16464,31518,52006
16425,31475,51942
16376,31424,51871
16318,31371,51796
16255,31318,51717
16191,31261,51630
16127,31204,51541
16063,31149,51458
16008,31099,51381
15961,31053,51311
15921,31011,51248
15888,30977,51196
15862,30952,51155
15843,30931,51117
15831,30911,51081
15826,30894,51055
15823,30880,51040
15813,30863,51030
15795,30847,51022
15774,30839,51015
15756,30840,51009
15746,30844,51001
15742,30846,50988
15737,30844,50974
15727,30836,50958
15715,30823,50939
15702,30806,50919
15685,30784,50894
15664,30758,50858
15637,30723,50810
15608,30683,50755
15572,30641,50695
15530,30596,50628
15482,30546,50552
15430,30492,50468
15372,30433,50380
15305,30371,50289
15235,30309,50193
15168,30249,50095
15104,30188,49996
15039,30125,49896
14972,30060,49795
14903,29992,49689
14836,29921,49580
14766,29847,49472
14689,29769,49362
14606,29691,49249
14519,29613,49135
14431,29533,49023
14345,29452,48911
14261,29373,48798
14177,29293,48683
14091,29210,48566
14005,29128,48451
13924,29049,48339
13847,28972,48231
13771,28898,48127
13698,28829,48028
13635,28769,47938
13579,28716,47855
13527,28667,47779
13479,28623,47709
13437,28584,47646
13397,28548,47586
13353,28509,47526
13308,28467,47463
13265,28425,47400
13219,28379,47335
13165,28326,47261
13105,28268,47178
13040,28204,47088
12971,28132,46995
12897,28057,46897
12821,27983,46796
12745,27913,46693
12670,27846,46588
12599,27781,46485
12533,27715,46387
12472,27649,46292
12413,27584,46196
12356,27521,46100
12301,27463,46009
12246,27408,45927
12190,27356,45849
12138,27308,45774
12096,27268,45706
12064,27240,45656
12045,27225,45633
12048,27231,45648
12087,27276,45720
12179,27378,45873
12335,27543,46119
12556,27770,46459
12840,28056,46885
13174,28390,47385
13546,28756,47936
13941,29147,48517
14346,29551,49107
14749,29952,49691
15140,30336,50257
15514,30697,50790
15863,31029,51280
16176,31328,51714
16448,31585,52087
16678,31797,52395
16866,31966,52640
17008,32092,52822
17110,32177,52943
17179,32222,53013
17215,32233,53043
17214,32215,53034
17183,32174,52992
17132,32120,52922
17069,32054,52831
16993,31975,52722
16908,31889,52602
16824,31809,52484
16748,31739,52378
16682,31678,52286
16627,31623,52206
16582,31576,52133
16545,31535,52068
16513,31500,52016
16488,31471,51975
16471,31450,51945
16458,31435,51924
16446,31420,51906
16431,31403,51885
16418,31382,51862
16408,31359,51839
16393,31331,51812
16366,31293,51774
16327,31249,51720
16280,31202,51654
16226,31152,51578
16168,31096,51495
16112,31039,51411
16059,30986,51332
16008,30936,51251
15955,30885,51170
15898,30834,51093
15842,30786,51024
15789,30741,50961
15742,30701,50907
15705,30670,50866
15681,30647,50838
15667,30633,50815
15658,30621,50791
15654,30613,50770
15655,30607,50757
15661,30607,50754
15672,30615,50761
15684,30628,50775
15692,30636,50790
15695,30641,50802
15700,30647,50815
15707,30654,50826
15710,30655,50830
15705,30646,50820
15692,30628,50793
15670,30605,50753
15642,30576,50702
15608,30539,50639
15569,30494,50569
15524,30446,50495
15475,30396,50418
15419,30343,50338
15358,30285,50255
15292,30224,50171
15222,30159,50080
15149,30092,49980
15076,30024,49876
15008,29956,49770
14941,29889,49661
14874,29820,49547
14807,29752,49433
14742,29683,49325
14679,29613,49225
14612,29541,49130
14545,29469,49039
14478,29401,48948
14408,29334,48851
14334,29266,48747
14263,29200,48647
14197,29137,48552
14133,29075,48457
14071,29013,48366
14013,28954,48281
13957,28897,48199
13902,28839,48119
13844,28782,48037
13785,28727,47952
13727,28675,47866
13672,28623,47780
13617,28569,47691
13560,28513,47600
13502,28458,47507
13441,28401,47412
13377,28343,47318
13312,28284,47228
13247,28224,47138
13183,28165,47048
13123,28107,46959
13066,28048,46873
13009,27984,46787
12949,27917,46695
12886,27851,46596
12822,27787,46497
12757,27722,46401
12693,27656,46307
12632,27597,46218
12578,27548,46142
12530,27511,46084
12494,27489,46045
12485,27490,46041
12515,27526,46095
12595,27609,46223
12736,27749,46441
12942,27954,46756
13209,28224,47162
13531,28550,47642
13893,28914,48176
14282,29302,48744
14688,29704,49327
15098,30108,49905
15497,30500,50461
15876,30866,50983
16221,31197,51464
16525,31488,51895
16784,31733,52263
16997,31933,52567
17167,32088,52807
17291,32200,52984
17372,32271,53100
17418,32305,53166
17438,32312,53191
17435,32296,53181
17411,32259,53139
17373,32209,53071
17323,32147,52986
17261,32076,52889
17192,32001,52784
17123,31926,52680
17059,31857,52577
16996,31795,52477
16937,31737,52383
16882,31682,52298
16833,31628,52224
16790,31581,52163
16752,31545,52115
16719,31518,52080
16692,31499,52054
16674,31483,52033
16663,31471,52018
16659,31463,52009
16659,31459,51998
16655,31449,51979
16645,31432,51954
16626,31409,51926
16601,31382,51895
16572,31352,51855
16538,31315,51806
16500,31274,51747
16458,31227,51681
16411,31175,51607
16361,31121,51528
16308,31065,51446
16251,31002,51355
16189,30935,51259
16128,30874,51168
16073,30824,51089
16025,30781,51020
15986,30744,50960
15958,30712,50912
15937,30688,50875
15924,30674,50845
15922,30671,50825
15929,30678,50821
15940,30690,50831
15950,30701,50846
15956,30708,50856
15960,30716,50865
15961,30725,50874
15959,30730,50879
15956,30730,50878
15954,30726,50874
15953,30717,50865
15951,30705,50852
15949,30692,50838
15944,30678,50820
15928,30658,50793
15899,30631,50753
15866,30597,50702
15831,30556,50645
15794,30513,50584
15751,30466,50516
15703,30415,50444
15651,30364,50370
15598,30312,50295
15544,30260,50214
15488,30206,50125
15429,30150,50032
15365,30088,49938
15296,30021,49844
15221,29951,49753
15142,29882,49664
15064,29814,49572
14990,29747,49475
14922,29682,49380
14861,29622,49292
14802,29566,49205
14749,29512,49120
14703,29460,49044
14662,29412,48977
14623,29369,48918
14582,29331,48859
14542,29295,48802
14504,29257,48745
14466,29218,48689
14426,29175,48628
14383,29131,48563
14336,29084,48494
14286,29031,48416
14233,28978,48330
14176,28924,48241
14110,28863,48150
14036,28798,48053
13961,28731,47953
13890,28663,47856
13824,28596,47764
13756,28532,47674
13687,28469,47584
13619,28408,47496
13556,28350,47411
13498,28294,47327
13446,28239,47243
13401,28192,47162
13362,28151,47083
13322,28109,47006
13284,28070,46940
13250,28039,46887
13221,28018,46846
13202,28006,46822
13206,28013,46834
13246,28058,46902
13334,28150,47041
13483,28299,47263
13696,28509,47574
13965,28775,47966
14285,29085,48421
14642,29425,48922
15022,29790,49455
15417,30167,50004
15811,30543,50551
16189,30906,51083
16541,31245,51583
16860,31547,52036
17138,31806,52426
17370,32018,52748
17558,32188,53006
17704,32317,53207
17810,32413,53353
17884,32481,53453
17933,32522,53514
17959,32534,53541
17962,32520,53534
17945,32488,53498
17914,32445,53443
17872,32394,53375
17818,32337,53293
17759,32276,53200
17699,32214,53107
17638,32151,53019
17577,32091,52937
17522,32039,52864
17475,31999,52802
17438,31964,52750
17411,31931,52702
17393,31904,52664
17384,31884,52638
17382,31871,52620
17386,31866,52611
17394,31867,52609
17399,31868,52609
17393,31866,52604
17376,31856,52591
17351,31838,52572
17320,31814,52546
17283,31783,52510
17244,31743,52462
17205,31694,52404
17160,31638,52337
17108,31578,52263
17052,31516,52181
16992,31454,52096
16927,31394,52011
16863,31342,51928
16810,31298,51851
16769,31261,51781
16734,31233,51718
16704,31209,51666
16681,31189,51626
16667,31174,51595
16661,31166,51570
16659,31162,51553
16660,31157,51547
16662,31154,51549
16667,31152,51556
16674,31151,51567
16683,31150,51579
16692,31147,51591
16698,31143,51600
16699,31136,51604
16698,31131,51598
16696,31125,51584
16688,31115,51564
16671,31099,51539
16647,31080,51509
16615,31055,51474
16574,31019,51428
16524,30976,51371
16471,30929,51303
16415,30877,51225
16351,30819,51139
16281,30755,51047
16208,30685,50947
16131,30606,50839
16049,30524,50730
15966,30444,50623
15889,30370,50518
15818,30299,50415
15751,30225,50311
15684,30147,50204
15616,30070,50100
15552,29999,50001
15488,29932,49899
15417,29864,49794
15342,29795,49686
15264,29724,49577
15183,29649,49468
15100,29567,49356
15014,29482,49242
14927,29397,49127
14844,29313,49013
14771,29237,48906
14706,29169,48808
14644,29107,48717
14587,29048,48632
14533,28995,48553
14484,28951,48479
14441,28916,48412
14404,28883,48348
14369,28852,48285
14334,28820,48223
14293,28786,48160
14245,28748,48094
14196,28708,48023
14146,28663,47945
14088,28609,47856
14019,28544,47758
13947,28474,47654
13878,28406,47551
13813,28337,47448
13752,28267,47345
13695,28196,47244
13640,28125,47150
13583,28053,47059
13523,27984,46967
13463,27921,46876
13406,27866,46789
13354,27818,46707
13304,27774,46631
13255,27734,46561
13208,27702,46501
13174,27681,46464
13166,27681,46468
13202,27719,46529
13292,27808,46666
13444,27960,46892
13657,28175,47212
13929,28448,47617
14253,28768,48091
14615,29122,48612
15001,29499,49161
15402,29888,49725
15804,30275,50291
16192,30647,50837
16561,30996,51352
16906,31318,51824
17216,31603,52241
17482,31847,52598
17699,32048,52897
17870,32209,53138
17999,32332,53319
18093,32420,53444
18157,32476,53522
18193,32503,53559
18203,32505,53561
18193,32485,53531
18166,32448,53479
18126,32401,53411
18076,32344,53330
18019,32278,53239
17957,32205,53143
17896,32131,53049
17834,32063,52961
17774,32003,52879
17722,31950,52806
17681,31910,52747
17651,31879,52701
17627,31854,52664
17613,31838,52636
17608,31832,52617
17610,31830,52601
17618,31832,52589
17628,31837,52584
17635,31841,52580
17640,31839,52571
17642,31832,52556
17642,31819,52537
17628,31795,52508
17596,31756,52464
17551,31705,52405
17500,31650,52334
17442,31592,52256
17379,31530,52172
17311,31465,52082
17239,31400,51991
17166,31336,51900
17096,31272,51810
17031,31207,51723
16974,31147,51644
16923,31093,51575
16876,31047,51513
16837,31009,51459
16809,30981,51416
16792,30961,51385
16780,30948,51364
16771,30936,51348
16765,30925,51338
16756,30914,51329
16744,30902,51317
16730,30890,51304
16718,30880,51292
16707,30870,51274
16694,30857,51249
16678,30839,51220
16658,30815,51187
16634,30789,51152
16604,30760,51113
16572,30728,51068
16539,30694,51016
16504,30658,50959
16462,30616,50898
16410,30568,50831
16354,30513,50758
16291,30452,50677
16222,30388,50591
16150,30325,50503
16076,30261,50407
15998,30192,50303
15918,30120,50191
15835,30042,50075
15749,29957,49955
15661,29867,49834
15573,29775,49713
15486,29686,49592
15395,29596,49470
15301,29507,49348
15209,29421,49225
15120,29337,49099
15036,29254,48972
14955,29172,48847
14878,29094,48727
14801,29019,48609
14718,28942,48487
14630,28863,48364
14545,28790,48249
14465,28719,48139
14385,28647,48030
14306,28573,47922
14229,28500,47818
14154,28430,47715
14081,28361,47615
14013,28294,47517
13949,28225,47423
13887,28154,47333
13826,28083,47244
13762,28011,47153
13693,27938,47059
13620,27865,46961
13546,27792,46857
13469,27716,46742
13389,27638,46621
13307,27562,46500
13229,27489,46380
13156,27418,46263
13082,27344,46147
13005,27268,46036
12924,27191,45926
12842,27110,45811
12761,27030,45695
12681,26952,45581
12605,26879,45472
12535,26812,45372
12474,26756,45289
12425,26720,45234
12398,26709,45213
12407,26732,45241
12467,26805,45345
12595,26944,45551
12798,27153,45865
13074,27425,46284
13409,27758,46796
13793,28140,47378
14208,28554,47999
14637,28980,48631
15064,29402,49255
15477,29811,49854
15870,30199,50422
16245,30564,50954
16594,30898,51440
16902,31192,51863
17160,31441,52217
17368,31645,52504
17528,31799,52727
17643,31903,52887
17718,31964,52987
17757,31990,53034
17763,31984,53034
17738,31950,52993
17693,31894,52926
17636,31826,52842
17567,31750,52749
17488,31665,52644
17403,31576,52529
17320,31491,52411
17241,31416,52296
17168,31349,52188
17107,31287,52090
17060,31233,52008
17028,31189,51945
17005,31160,51901
16987,31140,51871
16976,31130,51854
16970,31128,51846
16967,31129,51839
16965,31130,51829
16963,31130,51818
16961,31126,51806
16953,31111,51786
16934,31086,51756
16902,31049,51714
16860,31003,51660
16806,30949,51593
16740,30886,51512
16671,30818,51423
16600,30746,51329
16526,30672,51229
16451,30601,51128
16377,30534,51031
16303,30469,50938
16230,30406,50847
16163,30349,50761
16107,30300,50683
16065,30260,50616
16034,30227,50565
16017,30203,50531
16011,30188,50511
16009,30175,50496
16002,30164,50480
15988,30154,50462
15966,30141,50443
15938,30120,50421
15903,30094,50395
15864,30067,50365
15827,30038,50327
15794,30014,50286
15765,29995,50248
15738,29977,50213
15714,29960,50180
15691,29940,50147
15668,29915,50112
15637,29882,50070
15595,29840,50018
15547,29792,49957
15499,29744,49892
15452,29695,49822
15400,29645,49743
15342,29590,49654
15280,29530,49556
15211,29463,49453
15131,29387,49342
15037,29299,49220
14934,29203,49086
14828,29099,48943
14722,28992,48796
14616,28883,48648
14510,28778,48500
14408,28682,48355
14314,28596,48219
14232,28519,48094
14159,28449,47976
14091,28384,47865
14022,28319,47755
13950,28251,47646
13877,28183,47539
13803,28115,47433
13723,28045,47323
13637,27968,47210
13547,27882,47098
13457,27793,46986
13366,27707,46872
13276,27625,46754
13192,27550,46636
13119,27479,46523
13053,27409,46415
12989,27339,46310
12927,27276,46210
12869,27220,46117
12810,27166,46027
12749,27109,45940
12689,27054,45854
12635,27002,45770
12589,26952,45690
12548,26903,45619
12512,26859,45556
12474,26818,45494
12428,26779,45427
12376,26739,45354
12325,26698,45276
12273,26651,45192
12217,26600,45106
12164,26550,45022
12116,26508,44946
12077,26473,44885
12055,26451,44848
12061,26455,44854
12102,26498,44927
12188,26588,45078
12332,26737,45320
12547,26957,45665
12837,27248,46114
13191,27601,46652
13595,28002,47258
14038,28436,47905
14499,28883,48565
14956,29322,49212
15395,29742,49827
15809,30136,50401
16196,30497,50930
16545,30817,51405
16851,31095,51817
17111,31330,52165
17318,31520,52449
17472,31663,52670
17582,31765,52826
17655,31830,52923
17693,31855,52968
17696,31849,52968
17669,31820,52931
17621,31775,52865
17565,31720,52782
17503,31656,52685
17437,31584,52578
17370,31507,52468
17302,31431,52358
17234,31359,52254
17171,31293,52160
17116,31234,52074
17069,31179,51996
17028,31127,51925
16994,31082,51866
16971,31047,51825
16957,31023,51801
16948,31008,51788
16944,30998,51783
16941,30993,51781
16936,30987,51777
16924,30976,51764
16907,30959,51741
16885,30937,51707
16853,30904,51658
16813,30864,51596
16768,30821,51522
16717,30773,51438
16659,30718,51347
16598,30657,51252
16539,30597,51160
16487,30543,51077
16440,30494,51003
16398,30449,50935
16361,30406,50874
16328,30369,50823
16298,30340,50782
16267,30318,50748
16239,30300,50716
16219,30285,50685
16204,30268,50659
16197,30252,50640
16196,30242,50627
16196,30233,50617
16197,30226,50608
16199,30223,50602
16202,30222,50596
16202,30224,50591
16197,30225,50584
16188,30223,50576
16179,30217,50568
16170,30210,50557
16157,30199,50542
16140,30181,50521
16118,30158,50495
16089,30130,50458
16052,30098,50410
16010,30059,50352
15964,30010,50283
15911,29952,50200
15849,29884,50106
15783,29810,50004
15715,29735,49900
15643,29661,49791
15567,29583,49674
15484,29498,49550
15400,29410,49422
15313,29320,49294
15224,29228,49163
15134,29137,49033
15047,29052,48908
14964,28972,48788
14885,28897,48675
14812,28828,48570
14744,28766,48473
14676,28708,48379
14611,28653,48285
14555,28604,48196
14503,28559,48110
14450,28512,48024
14398,28465,47936
14345,28416,47847
14290,28361,47757
14231,28297,47665
14170,28228,47572
14105,28153,47478
14035,28073,47378
13959,27990,47275
13878,27912,47168
13794,27836,47055
13705,27760,46935
13615,27680,46808
13529,27598,46683
13451,27519,46565
13376,27440,46450
13304,27363,46337
13236,27292,46229
13170,27228,46122
13100,27164,46017
13028,27098,45913
12957,27032,45808
12890,26970,45708
12832,26917,45625
12790,26882,45569
12773,26872,45551
12795,26899,45590
12868,26975,45701
13004,27111,45905
13208,27315,46213
13480,27587,46622
13813,27918,47115
14192,28293,47674
14600,28697,48278
15023,29110,48899
15447,29520,49514
15859,29917,50110
16248,30293,50671
16606,30639,51188
16928,30946,51649
17212,31208,52050
17455,31431,52388
17657,31619,52666
17817,31768,52884
17936,31879,53040
18018,31954,53141
18065,31996,53194
18085,32009,53207
18083,32000,53187
18060,31968,53142
18019,31917,53075
17961,31853,52992
17890,31780,52895
17814,31702,52790
17736,31623,52681
17661,31547,52574
17593,31476,52475
17534,31412,52386
17488,31354,52314
17454,31305,52256
17427,31264,52208
17407,31238,52171
17397,31229,52145
17394,31229,52127
17392,31232,52117
17391,31231,52111
17390,31225,52102
17388,31217,52086
17380,31206,52063
17367,31187,52036
17344,31158,52004
17309,31120,51960
17265,31075,51903
17212,31022,51835
17151,30958,51754
17083,30888,51665
17013,30817,51573
16949,30749,51478
16893,30685,51386
16844,30628,51303
16801,30580,51228
16761,30541,51160
16722,30506,51098
16686,30473,51040
16656,30443,50988
16633,30418,50944
16614,30397,50906
16598,30380,50872
16587,30371,50849
16580,30368,50837
16575,30363,50833
16571,30356,50832
16569,30352,50836
16571,30352,50842
16575,30354,50846
16576,30353,50846
16567,30344,50840
16549,30329,50827
16525,30307,50802
16499,30281,50769
16471,30252,50732
16435,30217,50689
16391,30175,50634
16338,30124,50565
16278,30066,50481
16212,30002,50388
16142,29931,50288
16070,29854,50182
15994,29775,50071
15911,29694,49956
15823,29610,49836
15736,29525,49714
15651,29441,49592
15565,29355,49469
15478,29268,49341
15392,29182,49210
15310,29100,49079
15231,29019,48950
15149,28935,48824
15064,28851,48699
14976,28770,48575
14888,28693,48451
14804,28619,48333
14726,28549,48225
14652,28481,48125
14579,28411,48024
14501,28335,47917
14423,28257,47809
14349,28182,47705
14277,28110,47602
14200,28038,47500
14122,27966,47397
14045,27895,47292
13972,27823,47185
13902,27750,47075
13830,27675,46960
13755,27597,46845
13678,27518,46732
13601,27441,46618
13525,27366,46505
13451,27294,46393
13378,27227,46285
13307,27165,46181
13238,27106,46082
13169,27046,45982
13098,26983,45880
13026,26916,45781
12955,26848,45683
12885,26779,45586
12819,26715,45492
12764,26660,45403
12717,26613,45325
12682,26578,45271
12670,26569,45259
12702,26604,45311
12790,26694,45450
12942,26848,45689
13164,27071,46035
13456,27366,46482
13807,27722,47014
14203,28119,47605
14630,28535,48230
15068,28956,48865
15499,29376,49489
15913,29788,50087
16306,30176,50650
16672,30528,51169
17002,30842,51639
17291,31115,52050
17537,31344,52394
17742,31527,52671
17905,31668,52885
18026,31769,53039
18107,31830,53139
18152,31857,53194
18166,31863,53208
18159,31851,53186
18137,31824,53134
18101,31781,53059
18052,31727,52973
17989,31664,52881
17919,31593,52786
17851,31520,52692
17788,31450,52603
17733,31387,52521
17686,31334,52447
17645,31292,52384
17611,31259,52336
17587,31236,52302
17573,31221,52280
17568,31214,52267
17568,31208,52260
17567,31198,52252
17564,31188,52240
17557,31182,52227
17546,31176,52212
17532,31165,52193
17517,31149,52168
17497,31121,52138
17469,31082,52100
17433,31036,52051
17394,30989,51992
17354,30944,51924
17310,30895,51848
17258,30840,51763
17201,30784,51673
17142,30726,51579
17083,30664,51485
17025,30604,51399
16971,30551,51323
16924,30509,51258
16883,30478,51203
16849,30456,51160
16824,30438,51127
16806,30420,51101
16792,30406,51078
16781,30397,51060
16777,30393,51047
16779,30391,51039
16781,30388,51035
16780,30381,51032
16775,30369,51023
16765,30352,51007
16749,30334,50985
16730,30314,50961
16710,30292,50937
16685,30263,50907
16652,30229,50867
16613,30194,50818
16572,30158,50764
16526,30118,50704
16477,30074,50639
16433,30031,50570
16391,29986,50502
16345,29934,50428
16290,29873,50344
16228,29806,50249
16163,29737,50152
16097,29663,50052
16028,29584,49949
15955,29503,49842
15877,29425,49734
15797,29348,49623
15718,29271,49511
15638,29195,49401
15560,29122,49294
15487,29051,49185
15417,28979,49074
15344,28907,48962
15272,28840,48851
15202,28777,48739
15132,28712,48628
15064,28645,48521
14998,28578,48421
14931,28516,48324
14865,28456,48227
14801,28398,48135
14740,28341,48049
14677,28281,47961
14613,28217,47869
14553,28155,47774
14493,28096,47683
14430,28037,47593
14363,27978,47500
14299,27919,47406
14235,27858,47311
14168,27792,47213
14093,27721,47110
14012,27645,47001
13926,27567,46887
13834,27487,46770
13737,27404,46653
13644,27321,46539
13557,27240,46427
13473,27157,46314
13389,27071,46200
13302,26986,46086
13212,26903,45970
13124,26823,45854
13050,26753,45748
12990,26694,45657
12938,26644,45583
12894,26606,45521
12867,26587,45478
12866,26592,45474
12902,26631,45527
12988,26716,45656
13135,26863,45878
13349,27079,46206
13630,27361,46634
13969,27702,47147
14355,28089,47727
14771,28503,48343
15201,28922,48964
15625,29331,49571
16032,29724,50155
16414,30095,50706
16765,30434,51211
17075,30731,51660
17344,30989,52048
17572,31206,52374
17754,31377,52636
17890,31506,52835
17983,31597,52972
18037,31653,53057
18060,31678,53100
18063,31676,53107
18050,31657,53087
18022,31626,53044
17984,31585,52980
17941,31535,52900
17892,31476,52814
17835,31407,52720
17775,31334,52624
17719,31267,52535
17669,31207,52454
17622,31151,52379
17575,31101,52311
17531,31061,52254
17499,31036,52212
17479,31020,52185
17469,31010,52171
17464,31008,52164
17463,31009,52162
17468,31009,52159
17475,31008,52156
17482,31006,52150
17483,30999,52140
17472,30983,52120
17448,30956,52088
17416,30920,52046
17375,30877,51989
17324,30828,51917
17268,30773,51835
17208,30712,51748
17144,30643,51655
17079,30571,51555
17013,30498,51454
16947,30429,51359
16884,30372,51274
16829,30322,51200
16782,30277,51136
16741,30237,51084
16708,30206,51043
16681,30183,51014
16660,30166,50992
16641,30153,50975
16629,30145,50968
16627,30146,50973
16633,30153,50987
16643,30165,51004
16653,30177,51017
16657,30184,51022
16657,30185,51020
16654,30181,51010
16648,30171,50995
16633,30156,50972
16611,30135,50942
16589,30110,50902
16567,30080,50853
16540,30044,50799
16505,30004,50739
16464,29964,50675
16421,29922,50608
16381,29879,50538
16343,29834,50466
16306,29787,50396
16265,29737,50326
16218,29686,50253
16165,29634,50177
16103,29579,50091
16029,29513,49991
15946,29441,49880
15864,29367,49767
15785,29293,49658
15711,29218,49553
15636,29142,49448
15554,29063,49338
15469,28984,49224
15389,28909,49113
15315,28837,49005
15249,28773,48906
15187,28719,48818
15130,28668,48733
15074,28617,48648
15018,28562,48565
14964,28507,48485
14915,28454,48408
14868,28401,48330
14822,28348,48252
14772,28296,48174
14717,28241,48092
14657,28180,48004
14594,28117,47916
14525,28053,47825
14452,27988,47730
14380,27923,47634
14312,27859,47538
14246,27794,47440
14182,27729,47343
14119,27666,47249
14058,27603,47156
13996,27541,47063
13934,27483,46975
13875,27429,46895
13821,27380,46824
13774,27337,46758
13734,27301,46692
13701,27269,46627
13673,27241,46570
13649,27218,46523
13631,27205,46495
13632,27212,46500
13667,27253,46562
13751,27344,46699
13890,27491,46919
14090,27699,47228
14348,27967,47624
14661,28283,48097
15018,28637,48620
15404,29015,49171
15803,29405,49735
16200,29791,50299
16590,30165,50850
16967,30523,51375
17319,30857,51861
17635,31158,52294
17910,31417,52672
18140,31630,52994
18321,31795,53252
18457,31916,53443
18555,32000,53575
18618,32051,53657
18649,32073,53694
18656,32068,53691
18644,32045,53659
18616,32004,53606
18574,31951,53539
18526,31893,53468
18480,31835,53399
18436,31780,53331
18394,31730,53264
18353,31689,53198
18319,31655,53142
18298,31626,53100
18286,31603,53067
18277,31585,53043
18274,31580,53031
18280,31586,53031
18293,31597,53038
18307,31612,53051
18322,31629,53068
18338,31648,53084
18351,31660,53094
18357,31663,53094
18352,31656,53086
18336,31637,53067
18311,31606,53029
18280,31568,52978
18246,31523,52916
18204,31468,52845
18154,31408,52764
18098,31346,52678
18044,31288,52593
17997,31233,52517
17957,31188,52451
17924,31153,52395
17897,31127,52348
17878,31105,52308
17863,31084,52277
17848,31069,52255
17837,31062,52240
17830,31061,52230
17830,31062,52225
17833,31066,52226
17840,31078,52230
17850,31094,52236
17862,31106,52242
17872,31113,52250
17879,31120,52259
17886,31128,52268
17893,31135,52274
17901,31139,52275
17904,31136,52266
17897,31126,52250
17882,31108,52230
17865,31087,52206
17847,31068,52179
17828,31047,52147
17805,31018,52108
17774,30983,52063
17740,30945,52015
17705,30903,51962
17667,30855,51899
17625,30805,51827
17580,30753,51750
17530,30700,51673
17474,30644,51595
17415,30586,51517
17352,30529,51439
17286,30469,51360
17216,30405,51278
17148,30341,51196
17085,30278,51114
17027,30220,51030
16977,30165,50948
16933,30116,50870
16894,30072,50799
16860,30029,50733
16830,29987,50673
16803,29947,50620
16776,29910,50568
16749,29875,50513
16723,29841,50459
16694,29806,50405
16663,29770,50351
16632,29732,50294
16597,29690,50233
16560,29648,50169
16518,29603,50099
16471,29550,50022
16417,29495,49943
16361,29441,49866
16304,29385,49787
16248,29325,49704
16192,29264,49622
16133,29204,49541
16074,29143,49458
16016,29079,49373
15958,29019,49289
15902,28970,49211
15850,28922,49135
15801,28873,49065
15759,28827,49002
15722,28790,48947
15696,28763,48901
15684,28749,48876
15695,28753,48884
15736,28786,48937
15814,28861,49043
15934,28983,49212
16107,29156,49453
16331,29377,49764
16596,29638,50138
16897,29932,50564
17224,30250,51032
17562,30582,51523
17899,30916,52013
18226,31238,52482
18534,31535,52916
18811,31799,53306
19048,32028,53644
19250,32225,53933
19419,32388,54173
19556,32514,54361
19657,32606,54499
19724,32664,54592
19762,32693,54647
19775,32697,54668
19773,32683,54665
19765,32657,54645
19750,32618,54613
19728,32570,54565
19699,32521,54506
19667,32474,54443
19634,32430,54387
19599,32389,54336
19566,32355,54293
19544,32330,54260
19533,32314,54240
19530,32306,54229
19534,32300,54226
19549,32300,54229
19571,32309,54239
19591,32323,54251
19608,32335,54264
19623,32349,54280
19639,32363,54293
19652,32370,54297
19659,32371,54292
19661,32366,54281
19655,32352,54257
19637,32330,54220
19612,32302,54170
19582,32268,54111
19547,32225,54046
19503,32171,53972
19453,32110,53893
19402,32046,53812
19354,31983,53733
19309,31923,53659
19264,31871,53592
19224,31827,53532
19187,31789,53478
19154,31754,53430
19131,31724,53391
19119,31704,53364
19109,31695,53349
19099,31689,53339
19092,31687,53335
19091,31686,53337
19093,31684,53341
19095,31680,53343
19098,31679,53344
19103,31682,53350
19111,31690,53359
19120,31697,53365
19128,31699,53364
19135,31699,53357
19139,31698,53346
19142,31694,53331
19138,31682,53313
19126,31663,53290
19106,31641,53260
19082,31615,53222
19053,31583,53180
19020,31545,53134
18985,31501,53082
18944,31451,53020
18900,31398,52949
18854,31343,52873
18807,31287,52795
18758,31228,52717
18705,31172,52637
18650,31119,52557
18600,31073,52480
18557,31030,52405
18519,30989,52336
18481,30949,52274
18447,30912,52216
18415,30876,52160
18382,30840,52106
18347,30803,52051
18312,30766,51997
18277,30729,51945
18241,30691,51893
18203,30650,51840
18163,30608,51789
18123,30567,51737
18083,30529,51685
18046,30493,51634
18014,30457,51583
17983,30417,51529
17953,30375,51472
17925,30330,51415
17895,30283,51357
17861,30239,51298
17825,30198,51238
17786,30153,51174
17743,30104,51106
17699,30057,51034
17656,30018,50963
17612,29980,50890
17564,29937,50815
17515,29890,50741
17469,29848,50678
17424,29810,50622
17380,29771,50570
17343,29735,50522
17314,29704,50475
17291,29676,50427
17276,29649,50380
17262,29626,50342
17250,29611,50319
17250,29612,50318
17275,29637,50347
17330,29692,50418
17418,29781,50540
17546,29911,50723
17723,30083,50971
17947,30298,51282
18210,30556,51650
18501,30845,52056
18808,31149,52485
19116,31453,52920
19412,31746,53344
19693,32018,53745
19956,32264,54116
20194,32482,54450
20405,32672,54741
20588,32832,54987
20741,32961,55192
20860,33063,55355
20947,33134,55473
21005,33176,55551
21038,33195,55596
21050,33198,55615
21046,33188,55613
21034,33167,55595
21013,33139,55562
20987,33106,55517
20958,33070,55466
20929,33031,55410
20899,32992,55356
20871,32962,55309
20850,32938,55273
20833,32917,55245
20823,32902,55228
20825,32897,55222
20840,32901,55224
20860,32909,55232
20881,32919,55243
20902,32932,55255
20919,32942,55264
20937,32947,55273
20954,32949,55284
20966,32945,55290
20968,32933,55285
20958,32916,55270
20940,32892,55247
20918,32864,55211
20887,32828,55159
20848,32786,55095
20807,32743,55026
20763,32696,54954
20716,32645,54877
20671,32595,54801
20627,32545,54728
20584,32497,54660
20546,32453,54598
20519,32418,54543
20499,32391,54495
20483,32367,54452
20469,32344,54418
20459,32325,54393
20449,32310,54372
20442,32301,54355
20440,32297,54346
20439,32298,54340
20436,32301,54333
20429,32301,54326
20419,32294,54316
20408,32283,54303
20396,32274,54294
20383,32266,54286
20370,32256,54275
20357,32243,54260
20343,32226,54241
20331,32204,54220
20319,32181,54195
20304,32159,54165
20283,32138,54131
20260,32110,54092
20236,32076,54047
20212,32039,54001
20186,32001,53952
20154,31958,53897
20111,31909,53836
20064,31860,53770
20015,31809,53698
19965,31756,53624
19914,31702,53551
19866,31651,53479
19820,31603,53409
19772,31552,53341
19723,31498,53274
19669,31441,53204
19613,31384,53129
19557,31330,53052
19503,31281,52977
19451,31234,52906
19401,31188,52835
19349,31141,52762
19296,31096,52689
19247,31051,52622
19203,31005,52564
19169,30960,52512
19138,30920,52462
19103,30885,52413
19064,30851,52362
19024,30813,52309
18990,30777,52257
18966,30746,52210
18943,30721,52169
18919,30697,52128
18898,30674,52089
18882,30653,52053
18866,30630,52019
18845,30603,51986
18821,30577,51954
18796,30557,51925
18772,30539,51894
18751,30515,51859
18735,30491,51824
18724,30469,51789
18712,30447,51746
18697,30422,51698
18680,30396,51649
18660,30370,51600
18633,30343,51552
18598,30313,51503
18559,30279,51450
18515,30244,51394
18470,30207,51336
18420,30167,51274
18368,30123,51205
18315,30074,51130
18262,30020,51048
18209,29964,50968
18154,29913,50893
18101,29865,50825
18050,29818,50759
18006,29776,50696
17970,29743,50641
17945,29722,50603
17937,29719,50599
17956,29743,50641
18018,29809,50742
18133,29927,50915
18304,30099,51166
18530,30324,51493
18799,30594,51880
19102,30895,52310
19426,31214,52768
19761,31538,53238
20094,31854,53701
20410,32156,54142
20698,32432,54548
20951,32672,54912
21165,32872,55225
21339,33032,55484
21476,33155,55691
21580,33244,55849
21651,33302,55960
21691,33332,56025
21702,33340,56053
21693,33330,56051
21670,33307,56027
21640,33273,55988
21605,33232,55935
21567,33187,55876
21525,33142,55811
21482,33099,55742
21446,33061,55678
21419,33027,55622
21402,32994,55577
21395,32967,55545
21396,32948,55526
21401,32939,55518
21407,32941,55516
21415,32952,55521
21426,32968,55528
21440,32985,55537
21455,33000,55546
21468,33009,55555
21480,33011,55564
21490,33011,55575
21497,33008,55582
21494,32998,55575
21481,32980,55552
21456,32954,55515
21424,32921,55466
21391,32882,55409
21358,32840,55346
21321,32794,55278
21278,32746,55204
21232,32694,55128
21184,32643,55055
21137,32595,54990
21095,32553,54929
21058,32516,54874
21030,32485,54828
21011,32459,54790
20995,32434,54759
20981,32415,54731
20974,32404,54711
20975,32401,54701
20980,32399,54695
20982,32398,54691
20981,32400,54690
20982,32404,54691
20986,32407,54691
20995,32411,54693
21003,32413,54698
21004,32414,54700
20999,32412,54694
20992,32407,54684
20985,32401,54675
20975,32390,54664
20960,32374,54647
20943,32355,54624
20922,32335,54594
20897,32313,54557
20871,32287,54512
20847,32257,54463
20824,32224,54414
20796,32188,54362
20767,32148,54305
20736,32110,54245
20699,32071,54181
20654,32030,54114
20609,31988,54046
20565,31945,53981
20521,31903,53920
20478,31860,53859
20439,31818,53796
20405,31779,53732
20371,31741,53669
20336,31700,53609
20301,31657,53552
20265,31617,53496
20228,31577,53439
20190,31537,53379
20154,31498,53319
20116,31459,53262
20077,31423,53209
20033,31387,53156
19986,31350,53100
19939,31316,53044
19900,31286,52992
19872,31256,52946
19849,31225,52907
19831,31197,52878
19819,31178,52856
19810,31166,52839
19805,31159,52824
19807,31158,52814
19810,31160,52804
19812,31158,52789
19816,31155,52770
19821,31152,52750
19823,31148,52730
19817,31141,52707
19803,31126,52678
19780,31105,52643
19752,31081,52605
19723,31054,52563
19697,31025,52522
19672,30997,52481
19646,30970,52438
19617,30942,52391
19585,30911,52341
19551,30874,52287
19517,30834,52232
19485,30796,52180
19454,30759,52130
19421,30723,52079
19384,30687,52027
19344,30649,51971
19307,30610,51911
19276,30573,51853
19248,30538,51803
19222,30507,51761
19201,30485,51728
19188,30479,51712
19190,30494,51725
19223,30540,51781
19299,30630,51899
19422,30767,52084
19591,30950,52332
19802,31170,52637
20047,31422,52991
20318,31695,53380
20602,31978,53789
20889,32259,54203
21171,32532,54606
21436,32786,54988
21677,33014,55342
21889,33213,55661
22076,33382,55939
22236,33523,56179
22363,33638,56377
22461,33729,56529
22532,33794,56634
22578,33832,56699
22603,33847,56732
22612,33842,56741
22606,33820,56728
22588,33784,56694
22559,33741,56644
22523,33695,56580
22486,33652,56510
22450,33609,56443
22419,33567,56385
22388,33528,56336
22358,33497,56298
22334,33477,56268
22320,33466,56244
22318,33461,56228
22324,33460,56223
22334,33464,56228
22345,33473,56235
22358,33483,56245
22373,33495,56259
22387,33509,56276
22398,33522,56291
22405,33529,56299
22405,33524,56295
22395,33506,56276
22375,33476,56242
22345,33435,56193
22303,33385,56130
22250,33333,56058
22194,33283,55984
22140,33236,55911
22081,33187,55837
22019,33134,55761
21962,33082,55685
21917,33038,55616
21885,33000,55558
21861,32962,55509
21844,32929,55467
21832,32904,55433
21823,32885,55408
21812,32869,55392
21803,32859,55384
21802,32858,55384
21807,32863,55387
21814,32869,55386
21824,32875,55388
21835,32879,55396
21843,32881,55402
21847,32882,55403
21843,32878,55397
21834,32870,55382
21820,32858,55358
21805,32847,55327
21789,32833,55293
21773,32816,55259
21758,32795,55227
21739,32769,55194
21715,32737,55158
21686,32700,55119
21651,32662,55074
21615,32624,55025
21583,32588,54975
21553,32551,54924
21520,32511,54870
21478,32467,54811
21431,32420,54744
21381,32371,54671
21331,32321,54597
21284,32275,54528
21239,32238,54466
21196,32204,54409
21153,32166,54354
21110,32125,54295
21068,32084,54233
21028,32045,54166
20990,32007,54097
20956,31969,54028
20927,31931,53964
20899,31893,53905
20866,31855,53848
20829,31817,53792
20788,31782,53738
20743,31745,53684
20701,31708,53633
20663,31675,53588
20629,31645,53548
20596,31613,53504
20563,31577,53453
20532,31542,53400
20506,31512,53354
20480,31484,53314
20452,31457,53277
20421,31430,53241
20391,31406,53205
20367,31384,53170
20351,31366,53135
20342,31349,53104
20336,31337,53077
20326,31321,53048
20311,31302,53012
20295,31284,52975
20278,31267,52940
20258,31245,52903
20238,31221,52864
20219,31199,52827
20201,31181,52791
20183,31165,52758
20163,31149,52724
20142,31130,52685
20116,31109,52643
20085,31081,52597
20054,31049,52545
20023,31012,52487
19989,30970,52427
19950,30925,52365
19905,30877,52300
19858,30828,52228
19808,30779,52149
19755,30729,52067
19703,30682,51988
19658,30637,51918
19620,30597,51864
19590,30567,51830
19578,30562,51828
19599,30594,51870
19663,30669,51971
19779,30794,52149
19947,30973,52410
20169,31205,52746
20438,31476,53138
20739,31774,53570
21058,32088,54024
21379,32407,54486
21692,32717,54937
21989,33008,55365
22265,33274,55763
22516,33511,56124
22736,33718,56444
22921,33893,56717
23073,34035,56942
23195,34144,57118
23285,34222,57244
23343,34270,57328
23376,34294,57375
23386,34299,57392
23373,34285,57378
23345,34255,57339
23310,34214,57282
23270,34165,57214
23231,34111,57143
23192,34056,57074
23151,34005,57009
23109,33963,56952
23072,33929,56903
23041,33905,56861
23014,33885,56823
22991,33866,56787
22972,33848,56757
22959,33831,56734
22954,33816,56722
22958,33806,56722
22967,33803,56729
22979,33806,56739
22995,33813,56748
23009,33821,56756
23013,33822,56756
23009,33818,56745
22996,33810,56723
22970,33790,56686
22932,33753,56633
22885,33701,56566
22834,33642,56493
22777,33577,56412
22713,33509,56323
22646,33442,56231
22583,33379,56141
22527,33324,56056
22481,33275,55981
22441,33229,55917
22405,33187,55866
22372,33152,55824
22339,33124,55787
22308,33104,55752
22281,33090,55724
22260,33078,55702
22245,33064,55685
22234,33052,55674
22225,33042,55671
22218,33035,55671
22213,33031,55670
22211,33028,55669
22213,33026,55668
22221,33024,55664
22231,33018,55655
22236,33008,55644
22237,32999,55633
22232,32987,55618
22219,32970,55594
22198,32950,55561
22168,32929,55521
22132,32905,55475
22095,32876,55424
22057,32841,55370
22015,32801,55314
21971,32757,55252
21922,32710,55183
21872,32662,55112
21822,32615,55042
21771,32564,54972
21718,32509,54899
21661,32450,54820
21602,32388,54732
21543,32324,54640
21485,32261,54549
21424,32199,54462
21363,32139,54379
21308,32085,54301
21260,32036,54227
21217,31987,54157
21171,31935,54086
21120,31882,54014
21069,31831,53943
21019,31784,53872
20972,31739,53800
20922,31695,53726
20869,31654,53649
20815,31614,53573
20760,31575,53500
20711,31534,53431
20668,31491,53367
20633,31450,53306
20601,31410,53251
20570,31372,53203
20541,31337,53163
20511,31305,53124
20479,31274,53082
20442,31245,53036
20405,31221,52992
20371,31202,52950
20342,31182,52911
20314,31159,52869
20288,31135,52829
20266,31111,52792
20246,31084,52754
20228,31059,52718
20209,31037,52685
20186,31014,52648
20158,30987,52607
20130,30957,52565
20103,30928,52524
20073,30903,52479
20042,30874,52429
20009,30841,52378
19972,30806,52324
19928,30768,52266
19874,30725,52200
19813,30677,52125
19749,30622,52041
19682,30559,51952
19615,30491,51860
19547,30418,51763
19475,30344,51661
19400,30268,51553
19324,30190,51441
19252,30115,51335
19190,30053,51240
19142,30005,51162
19107,29969,51105
19092,29960,51083
19110,29986,51109
19170,30055,51200
19283,30177,51372
19458,30363,51634
19695,30610,51988
19987,30913,52420
20319,31255,52907
20676,31622,53426
21043,31999,53960
21407,32368,54489
21755,32718,54997
22080,33043,55472
22374,33331,55900
22631,33577,56274
22850,33782,56593
23030,33946,56857
23170,34071,57062
23276,34159,57211
23351,34216,57312
23399,34248,57373
23418,34252,57394
23408,34231,57375
23375,34192,57327
23326,34140,57263
23266,34079,57187
23199,34014,57101
23132,33950,57010
23068,33887,56923
23010,33825,56843
22960,33766,56772
22920,33716,56714
22888,33677,56667
22862,33647,56629
22847,33626,56600
22846,33613,56583
22853,33608,56578
22859,33605,56580
22863,33606,56583
22868,33613,56588
22877,33624,56592
22887,33636,56594
22897,33642,56592
22903,33646,56586
22901,33645,56574
22886,33633,56546
22862,33605,56502
22835,33566,56447
22801,33520,56385
22758,33470,56318
22710,33420,56246
22661,33369,56172
22611,33314,56095
22557,33253,56019
22501,33190,55944
22447,33131,55872
22395,33079,55805
22348,33033,55744
22310,32995,55691
22287,32969,55651
22278,32956,55629
22277,32953,55620
22282,32958,55622
22292,32971,55636
22306,32988,55656
22321,33006,55676
22336,33021,55696
22353,33034,55716
22365,33041,55732
22366,33039,55736
22358,33031,55728
22346,33020,55710
22330,33003,55684
22307,32979,55651
22281,32952,55614
22251,32926,55575
22219,32899,55531
22186,32872,55481
22153,32843,55428
22117,32809,55373
22076,32767,55315
22028,32717,55249
21976,32665,55180
21923,32614,55110
21869,32565,55039
21817,32515,54964
21766,32462,54887
21717,32406,54815
21669,32349,54745
21622,32295,54671
21570,32243,54590
21512,32189,54502
21449,32131,54411
21387,32067,54319
21328,32003,54229
21273,31942,54143
21223,31885,54062
21178,31826,53984
21135,31771,53909
21092,31722,53839
21046,31676,53771
20996,31628,53701
20945,31579,53629
20897,31531,53559
20853,31483,53487
20815,31441,53418
20778,31405,53357
20740,31371,53301
20700,31338,53243
20661,31306,53184
20626,31275,53129
20598,31247,53083
20577,31223,53044
20558,31203,53009
20543,31185,52977
20530,31166,52947
20517,31145,52919
20503,31125,52895
20488,31107,52871
20472,31086,52838
20454,31060,52797
20433,31030,52752
20406,31000,52706
20375,30968,52653
20338,30933,52596
20299,30896,52534
20260,30856,52469
20221,30811,52405
20181,30764,52344
20141,30717,52284
20101,30674,52225
20060,30630,52163
20016,30584,52095
19969,30535,52026
19923,30484,51959
19872,30429,51892
19819,30372,51823
19770,30318,51753
19725,30267,51684
19681,30218,51613
19641,30178,51547
19614,30156,51501
19617,30166,51496
19665,30220,51551
19766,30327,51685
19928,30497,51913
20154,30732,52238
20436,31025,52645
20762,31362,53117
21115,31730,53633
21477,32109,54172
21836,32479,54708
22183,32827,55222
22511,33145,55698
22812,33427,56128
23080,33672,56508
23312,33885,56834
23506,34063,57107
23663,34204,57324
23781,34303,57484
23860,34367,57594
23908,34402,57658
23931,34407,57681
23930,34386,57669
23911,34349,57633
23879,34303,57581
23835,34248,57513
23781,34185,57433
23721,34120,57346
23656,34057,57259
23592,33994,57173
23534,33931,57091
23488,33874,57017
23448,33825,56957
23414,33784,56909
23390,33754,56874
23381,33737,56856
23381,33731,56851
23386,33732,56852
23395,33742,56857
23408,33759,56867
23423,33775,56881
23436,33785,56893
23446,33786,56897
23447,33778,56890
23436,33758,56870
23410,33726,56838
23377,33686,56793
23337,33641,56737
23292,33595,56669
23242,33545,56592
23188,33492,56511
23131,33436,56427
23072,33374,56341
23013,33310,56254
22958,33248,56173
22907,33190,56096
22860,33135,56024
22817,33088,55960
22783,33048,55909
22758,33016,55867
22738,32991,55833
22723,32979,55808
22714,32977,55795
22712,32978,55794
22714,32979,55797
22720,32980,55801
22732,32986,55807
22746,32995,55816
22759,33006,55825
22770,33014,55830
22779,33018,55831
22788,33017,55825
22792,33011,55814
22789,33002,55800
22779,32991,55778
22762,32976,55748
22743,32958,55713
22726,32939,55677
22708,32916,55641
22685,32885,55599
22654,32844,55549
22617,32799,55493
22575,32751,55435
22529,32701,55375
22480,32647,55309
22432,32591,55241
22385,32537,55173
22335,32487,55106
22284,32437,55035
22236,32385,54957
22188,32328,54873
22142,32270,54787
22092,32212,54699
22035,32157,54611
21974,32104,54525
21913,32052,54443
21853,32001,54366
21794,31951,54294
21735,31901,54223
21677,31851,54149
21625,31803,54074
21580,31758,54002
21541,31714,53936
21502,31668,53872
21464,31620,53808
21426,31574,53743
21388,31532,53678
21348,31490,53607
21304,31443,53530
21258,31392,53453
21214,31342,53382
21177,31297,53316
21146,31261,53261
21123,31236,53216
21105,31217,53180
21089,31199,53149
21075,31182,53119
21066,31173,53093
21060,31167,53068
21053,31162,53042
21040,31150,53013
21019,31130,52979
20993,31102,52938
20959,31065,52888
20920,31022,52832
20877,30977,52770
20830,30929,52705
20784,30878,52639
20738,30826,52570
20691,30774,52500
20644,30722,52429
20598,30670,52357
20554,30618,52283
20512,30567,52207
20470,30521,52129
20430,30480,52053
20393,30439,51977
20353,30398,51903
20309,30356,51835
20271,30321,51783
20250,30306,51760
20257,30321,51780
20300,30375,51856
20396,30480,52001
20555,30648,52233
20778,30879,52556
21054,31160,52955
21372,31481,53414
21716,31831,53915
22072,32193,54434
22425,32549,54946
22764,32883,55431
23082,33187,55882
23371,33459,56292
23625,33695,56651
23838,33893,56957
24014,34053,57207
24152,34176,57401
24254,34261,57542
24316,34309,57634
24345,34328,57681
24348,34322,57688
24330,34296,57660
24299,34253,57605
24261,34198,57533
24214,34136,57450
24162,34070,57361
24106,34005,57270
24047,33943,57180
23987,33885,57093
23930,33829,57011
23877,33777,56935
23831,33733,56868
23795,33697,56813
23770,33669,56769
23756,33648,56739
23750,33633,56721
23747,33625,56713
23745,33623,56711
23746,33624,56711
23749,33627,56713
23752,33630,56715
23754,33631,56713
23751,33625,56703
23743,33614,56683
23730,33596,56651
23708,33568,56606
23673,33524,56548
23624,33468,56478
23564,33406,56400
23500,33343,56318
23436,33282,56232
23372,33221,56141
23302,33155,56047
23232,33086,55950
23164,33017,55855
23100,32948,55769
23045,32884,55695
23001,32829,55634
22966,32788,55585
22938,32759,55546
22916,32740,55515
22903,32728,55491
22899,32722,55478
22904,32723,55479
22916,32731,55489
22928,32744,55503
22939,32758,55514
22947,32770,55523
22953,32778,55529
22957,32782,55532
22962,32784,55529
22964,32781,55518
22961,32770,55504
22955,32754,55487
22943,32734,55464
22922,32708,55429
22895,32675,55383
22863,32638,55334
22823,32598,55284
22774,32552,55227
22715,32498,55164
22652,32440,55094
22589,32381,55018
22526,32325,54937
22463,32268,54851
22403,32211,54768
22348,32159,54691
22297,32111,54614
22249,32061,54530
22203,32007,54443
22159,31952,54360
22113,31897,54277
22062,31839,54192
22008,31781,54108
21956,31726,54029
21900,31668,53947
21838,31606,53861
21771,31540,53770
21701,31474,53678
21631,31410,53590
21565,31351,53507
21506,31300,53426
21452,31254,53345
21401,31209,53266
21356,31168,53191
21319,31129,53120
21283,31090,53053
21244,31051,52991
21205,31014,52934
21168,30979,52879
21135,30942,52826
21105,30905,52774
21075,30872,52722
21045,30841,52671
21014,30810,52623
20982,30778,52574
20947,30746,52522
20911,30713,52470
20874,30678,52418
20832,30639,52362
20786,30596,52303
20740,30554,52243
20696,30510,52181
20652,30463,52117
20608,30418,52055
20564,30376,51995
20521,30335,51938
20478,30292,51878
20431,30246,51811
20379,30197,51738
20324,30143,51662
20267,30090,51584
20210,30041,51504
20153,29992,51422
20098,29940,51339
20048,29888,51260
20006,29844,51194
19978,29816,51151
19972,29814,51144
20002,29847,51192
20080,29931,51318
20219,30081,51538
20425,30305,51859
20695,30594,52270
21015,30932,52748
21367,31295,53265
21733,31667,53798
22096,32034,54326
22443,32387,54831
22766,32716,55301
23058,33010,55727
23316,33265,56102
23537,33482,56424
23720,33655,56691
23859,33784,56901
23956,33870,57053
24015,33920,57148
24043,33937,57193
24044,33925,57198
24022,33890,57170
23980,33839,57114
23923,33778,57037
23857,33711,56944
23784,33634,56839
23710,33553,56730
23638,33473,56619
23569,33395,56510
23502,33322,56408
23439,33257,56316
23386,33202,56237
23347,33160,56172
23321,33131,56122
23304,33113,56087
23295,33101,56065
23293,33093,56048
23293,33091,56040
23296,33096,56043
23301,33104,56049
23306,33107,56053
23312,33107,56059
23315,33102,56059
23308,33091,56048
23291,33070,56019
23263,33040,55978
23229,33003,55928
23190,32957,55868
23144,32901,55798
23094,32843,55725
23042,32786,55651
22984,32728,55575
22927,32672,55495
22881,32624,55417
22843,32582,55346
22810,32544,55283
22780,32511,55230
22753,32485,55186
22729,32464,55147
22710,32447,55111
22703,32438,55084
22703,32436,55069
22705,32437,55063
22703,32439,55065
22703,32444,55071
22703,32453,55080
22701,32462,55086
22698,32468,55089
22699,32474,55096
22702,32476,55106
22703,32475,55116
22702,32473,55120
22697,32468,55115
22692,32461,55098
22683,32449,55073
22670,32431,55044
22654,32407,55009
22634,32378,54971
22612,32348,54928
22585,32313,54880
22553,32274,54825
22518,32234,54767
22479,32190,54707
22436,32144,54645
22384,32094,54580
22326,32041,54513
22264,31985,54441
22206,31926,54362
22150,31865,54275
22091,31799,54181
22027,31732,54083
21963,31667,53990
21898,31606,53905
21836,31552,53824
21781,31501,53745
21732,31453,53670
21688,31407,53600
21646,31362,53532
21604,31316,53463
21559,31272,53393
21513,31232,53325
21472,31195,53259
21435,31156,53192
21399,31116,53125
21364,31080,53062
21333,31046,53002
21306,31013,52942
21277,30982,52886
21247,30954,52834
21217,30927,52784
21191,30901,52735
21167,30874,52690
21141,30844,52645
21110,30811,52598
21077,30775,52548
21045,30736,52496
21009,30693,52442
20967,30649,52386
20923,30606,52330
20882,30568,52273
20843,30534,52214
20801,30497,52154
20758,30454,52095
20715,30411,52035
20670,30366,51969
20623,30317,51897
20574,30268,51822
20525,30222,51749
20479,30181,51680
20436,30141,51613
20399,30102,51557
20371,30075,51518
20355,30065,51504
20364,30083,51527
20412,30143,51601
20514,30256,51744
20675,30426,51969
20893,30652,52277
21166,30933,52666
21485,31257,53121
21832,31608,53619
22187,31969,54135
22538,32325,54647
22879,32664,55139
23199,32976,55597
23487,33252,56009
23737,33487,56367
23951,33684,56671
24130,33845,56919
24274,33973,57110
24385,34064,57251
24462,34119,57347
24508,34143,57401
24523,34143,57417
24512,34126,57402
24484,34095,57362
24446,34050,57302
24396,33993,57229
24339,33927,57146
24283,33862,57059
24228,33802,56969
24176,33742,56879
24130,33686,56798
24091,33637,56730
24056,33594,56671
24026,33561,56621
24002,33537,56581
23985,33517,56551
23975,33507,56533
23975,33509,56532
23982,33518,56543
23993,33529,56557
24007,33540,56572
24025,33555,56594
24045,33573,56624
24062,33589,56649
24069,33595,56657
24063,33584,56645
24045,33558,56617
24017,33523,56572
23979,33478,56512
23936,33428,56443
23891,33377,56370
23843,33324,56291
23789,33269,56208
23730,33214,56120
23672,33159,56030
23614,33101,55940
23556,33043,55855
23502,32990,55780
23451,32943,55717
23403,32900,55663
23360,32859,55616
23326,32819,55576
23301,32784,55543
23281,32756,55515
23267,32736,55493
23263,32728,55479
23270,32732,55477
23282,32745,55485
23295,32763,55496
23306,32779,55504
23312,32791,55508
23315,32800,55509
23311,32804,55505
23302,32801,55495
23292,32792,55484
23276,32775,55464
23255,32754,55434
23232,32730,55398
23202,32703,55356
23167,32673,55309
23131,32637,55257
23096,32598,55204
23060,32558,55149
23018,32516,55090
22972,32469,55024
22925,32417,54954
22876,32366,54887
22824,32315,54821
22771,32263,54754
22720,32209,54682
22667,32152,54605
22608,32090,54523
22545,32027,54433
22486,31969,54342
22432,31915,54252
22377,31859,54164
22322,31800,54077
22269,31740,53993
22216,31679,53910
22166,31618,53830
22122,31566,53756
22084,31525,53688
22050,31489,53627
22018,31454,53570
21990,31422,53517
21965,31399,53471
21942,31382,53428
21923,31364,53390
21907,31343,53357
21890,31319,53324
21867,31292,53282
21840,31260,53233
21810,31225,53182
21775,31188,53128
21732,31148,53068
21685,31106,53003
21638,31063,52941
21596,31025,52887
21558,30995,52836
21526,30966,52783
21497,30938,52729
21468,30913,52678
21438,30891,52630
21409,30869,52584
21380,30847,52542
21351,30823,52500
21319,30792,52451
21282,30756,52394
21242,30717,52328
21201,30672,52254
21155,30619,52174
21103,30559,52092
21046,30497,52008
20991,30436,51924
20944,30381,51847
20912,30340,51791
20899,30329,51774
20920,30360,51810
20990,30444,51920
21120,30588,52116
21315,30801,52404
21571,31079,52780
21872,31400,53223
22201,31745,53710
22544,32098,54218
22891,32447,54726
23227,32783,55219
23544,33094,55683
23836,33373,56107
24096,33616,56481
24322,33822,56798
24513,33990,57063
24666,34124,57275
24782,34225,57436
24862,34294,57548
24908,34331,57615
24932,34343,57644
24938,34332,57637
24926,34299,57602
24895,34251,57546
24849,34195,57475
24793,34133,57393
24733,34069,57307
24672,34007,57223
24610,33948,57144
24556,33892,57069
24512,33845,57001
24477,33809,56944
24449,33778,56899
24425,33754,56866
24406,33734,56844
24394,33718,56831
24389,33710,56825
24389,33708,56819
24392,33707,56814
24398,33707,56811
24405,33708,56811
24409,33710,56810
24410,33710,56807
24414,33708,56800
24416,33700,56789
24406,33687,56770
24384,33668,56740
24352,33644,56695
24314,33608,56635
24268,33560,56562
24218,33505,56480
24160,33445,56389
24100,33386,56296
24039,33328,56207
23977,33266,56123
23916,33205,56046
23860,33148,55973
23810,33100,55908
23768,33063,55857
23733,33031,55819
23704,33004,55789
23684,32985,55765
23675,32976,55750
23674,32973,55742
23679,32976,55738
23693,32987,55738
23709,33002,55745
23724,33018,55755
23736,33032,55760
23747,33043,55763
23759,33052,55770
23767,33057,55775
23768,33053,55767
23765,33042,55748
23757,33027,55722
23741,33008,55693
23716,32980,55658
23683,32946,55619
23645,32908,55576
23609,32869,55527
23575,32828,55473
23540,32786,55418
23501,32743,55358
23456,32696,55289
23407,32644,55215
23358,32591,55142
23311,32541,55073
23265,32497,55006
23218,32454,54937
23171,32408,54867
23126,32360,54797
23079,32310,54726
23033,32261,54653
22989,32214,54581
22947,32167,54508
22905,32118,54432
22862,32064,54355
22816,32010,54280
22766,31956,54206
22713,31903,54133
22661,31854,54061
22610,31809,53992
22564,31768,53924
22525,31731,53857
22491,31699,53793
22460,31667,53734
22427,31633,53680
22389,31596,53624
22350,31556,53566
22310,31517,53507
22270,31476,53446
22231,31434,53384
22190,31389,53321
22148,31342,53256
22105,31292,53191
22059,31243,53129
22014,31199,53071
21974,31160,53015
21937,31121,52958
21903,31081,52899
21875,31046,52846
21851,31019,52800
21827,31000,52760
21807,30983,52725
21790,30968,52697
21773,30954,52671
21754,30940,52645
21735,30927,52616
21716,30916,52585
21702,30904,52556
21688,30891,52526
21670,30876,52491
21645,30854,52450
21614,30822,52401
21572,30777,52338
21520,30722,52262
21463,30660,52178
21405,30593,52091
21343,30523,52005
21273,30454,51917
21195,30383,51828
21115,30313,51735
21040,30241,51635
20967,30164,51533
20894,30086,51428
20814,30004,51316
20728,29917,51195
20643,29832,51070
20568,29756,50954
20500,29692,50857
20445,29648,50789
20419,29640,50767
20440,29684,50814
20521,29793,50953
20672,29972,51197
20898,30225,51550
21192,30544,52004
21538,30912,52534
21918,31309,53111
22315,31715,53705
22713,32112,54290
23099,32488,54846
23458,32833,55355
23780,33135,55809
24059,33390,56205
24292,33597,56537
24479,33759,56804
24625,33882,57009
24732,33966,57156
24801,34012,57245
24836,34026,57284
24843,34017,57283
24825,33989,57253
24789,33948,57198
24741,33897,57126
24683,33837,57042
24618,33772,56946
24551,33706,56844
24487,33644,56743
24430,33588,56648
24381,33534,56562
24337,33481,56486
24300,33437,56423
24273,33404,56377
24255,33380,56345
24243,33362,56323
24233,33351,56308
24228,33349,56302
24227,33350,56303
24229,33349,56308
24233,33349,56318
24239,33349,56332
24245,33351,56341
24245,33351,56339
24240,33343,56325
24225,33327,56304
24196,33303,56274
24153,33268,56228
24099,33226,56166
24040,33177,56093
23979,33120,56011
23919,33055,55922
23859,32986,55829
23800,32919,55741
23742,32853,55657
23685,32794,55579
23631,32745,55508
23582,32707,55446
23540,32674,55390
23503,32644,55340
23476,32617,55298
23459,32597,55265
23451,32584,55242
23451,32578,55235
23456,32580,55239
23461,32587,55248
23463,32597,55255
23460,32608,55259
23458,32618,55266
23460,32623,55274
23463,32621,55276
23461,32613,55268
23453,32600,55252
23439,32583,55229
23420,32561,55202
23399,32535,55174
23377,32507,55145
23351,32480,55112
23320,32453,55071
23283,32419,55019
23239,32379,54959
23185,32330,54892
23123,32271,54818
23060,32207,54741
22998,32147,54661
22936,32090,54576
22875,32034,54493
22814,31979,54415
22755,31924,54338
22696,31869,54256
22634,31811,54171
22574,31750,54087
22519,31692,54009
22465,31634,53936
22408,31577,53861
22352,31524,53786
22301,31478,53714
22256,31434,53648
22213,31393,53586
22171,31356,53527
22131,31323,53471
22093,31294,53418
22055,31266,53369
22016,31240,53320
21976,31214,53271
21936,31186,53220
21901,31156,53166
21870,31125,53113
21839,31091,53059
21801,31049,52998
21758,31002,52936
21713,30953,52877
21668,30904,52817
21625,30857,52753
21584,30816,52683
21547,30779,52608
21514,30742,52535
21483,30703,52468
21451,30663,52408
21417,30626,52353
21380,30593,52298
21343,30562,52244
21307,30529,52194
21271,30494,52147
21235,30456,52097
21196,30417,52044
21157,30378,51986
21116,30341,51927
21072,30302,51867
21026,30257,51807
20984,30215,51756
20956,30186,51727
20951,30176,51729
20977,30198,51770
21044,30266,51866
21162,30390,52036
21334,30574,52289
21559,30809,52621
21827,31088,53017
22124,31397,53458
22433,31722,53923
22746,32049,54390
23057,32366,54848
23360,32669,55288
23644,32949,55694
23901,33197,56058
24130,33411,56378
24325,33591,56650
24485,33735,56869
24610,33845,57038
24702,33920,57159
24761,33964,57237
24792,33979,57275
24796,33970,57281
24777,33943,57259
24742,33905,57211
24697,33856,57142
24645,33799,57060
24586,33734,56971
24523,33665,56879
24459,33594,56785
24398,33528,56693
24342,33468,56610
24292,33418,56538
24250,33376,56475
24219,33342,56423
24198,33313,56382
24184,33291,56358
24172,33276,56344
24168,33270,56336
24174,33273,56335
24183,33278,56342
24193,33283,56353
24203,33287,56363
24206,33288,56367
24202,33285,56360
24190,33279,56344
24170,33263,56315
24137,33233,56274
24093,33192,56220
24041,33144,56152
23984,33091,56073
23925,33034,55990
23867,32976,55904
23805,32916,55815
23741,32854,55729
23681,32794,55652
23628,32739,55585
23582,32690,55523
23548,32650,55469
23525,32624,55424
23506,32607,55389
23489,32593,55361
23480,32584,55341
23480,32583,55333
23485,32588,55335
23492,32597,55343
23500,32612,55352
23507,32628,55361
23514,32643,55370
23523,32657,55378
23532,32668,55386
23536,32671,55388
23536,32665,55383
23535,32653,55375
23531,32640,55364
23523,32627,55348
23509,32610,55322
23490,32586,55289
23466,32556,55253
23439,32523,55210
23407,32483,55159
23371,32435,55097
23332,32387,55031
23289,32338,54961
23243,32288,54888
23196,32237,54813
23144,32186,54738
23086,32134,54662
23026,32080,54579
22964,32026,54495
22900,31971,54415
22834,31916,54338
22768,31862,54262
22705,31808,54184
22647,31755,54110
22591,31705,54042
22540,31658,53980
22497,31619,53923
22458,31587,53867
22425,31556,53811
22400,31526,53756
22384,31498,53707
22370,31468,53666
22354,31438,53630
22334,31409,53596
22310,31378,53558
22284,31347,53515
22253,31315,53464
22217,31279,53407
22177,31237,53346
22133,31193,53282
22086,31146,53215
22035,31098,53147
21978,31050,53077
21922,31002,53004
21872,30956,52935
21824,30912,52869
21779,30870,52805
21739,30832,52741
21704,30794,52676
21671,30757,52610
21644,30725,52551
21617,30694,52499
21586,30660,52449
21553,30626,52398
21521,30593,52348
21491,30563,52302
21467,30537,52261
21452,30520,52227
21448,30516,52208
21456,30529,52211
21482,30564,52248
21542,30632,52336
21648,30747,52490
21803,30912,52718
22007,31123,53020
22256,31375,53389
22541,31663,53808
22848,31973,54253
23163,32288,54705
23478,32596,55153
23786,32891,55591
24076,33169,56004
24338,33424,56378
24567,33650,56710
24764,33842,56995
24925,33994,57228
25044,34100,57406
25126,34167,57532
25178,34204,57617
25204,34215,57664
25204,34205,57678
25181,34179,57662
25145,34139,57623
25104,34087,57563
25059,34029,57486
25007,33969,57398
24952,33904,57306
24897,33839,57217
24846,33785,57133
24802,33741,57058
24766,33699,56990
24739,33661,56932
24720,33635,56885
24712,33620,56852
24709,33611,56834
24708,33610,56827
24712,33621,56829
24721,33637,56837
24730,33650,56849
24735,33656,56860
24738,33661,56870
24744,33667,56876
24748,33668,56876
24745,33661,56864
24737,33647,56839
24724,33625,56802
24703,33592,56753
24669,33549,56691
24622,33496,56616
24571,33437,56536
24520,33376,56455
24469,33313,56375
24414,33251,56297
24356,33193,56221
24297,33144,56148
24245,33102,56081
24203,33068,56024
24170,33041,55978
24141,33019,55938
24113,33000,55904
24090,32984,55880
24075,32974,55866
24066,32968,55856
24063,32964,55847
24068,32964,55841
24078,32966,55839
24086,32967,55839
24091,32967,55838
24094,32969,55837
24097,32972,55837
24097,32972,55837
24094,32971,55836
24091,32970,55833
24083,32970,55828
24069,32966,55814
24053,32954,55787
24035,32936,55750
24013,32908,55706
23986,32869,55655
23953,32826,55599
23916,32783,55538
23875,32734,55474
23830,32681,55408
23785,32630,55342
23739,32587,55278
23693,32547,55215
23649,32508,55150
23610,32468,55084
23577,32428,55024
23543,32387,54965
23504,32343,54902
23464,32300,54838
23424,32258,54775
23382,32211,54713
23338,32160,54649
23296,32112,54587
23254,32067,54526
23208,32021,54461
23162,31977,54395
23124,31942,54334
23093,31913,54278
23064,31885,54222
23034,31852,54166
23006,31819,54113
22981,31792,54063
22959,31769,54016
22941,31748,53975
22926,31731,53941
22911,31714,53909
22892,31689,53874
22873,31658,53841
22858,31630,53812
22846,31606,53781
22832,31586,53746
22817,31570,53711
22802,31557,53676
22785,31551,53643
22766,31542,53611
22751,31529,53579
22736,31511,53547
22714,31490,53513
22685,31463,53471
22653,31432,53423
22617,31398,53376
22580,31364,53328
22545,31332,53279
22507,31300,53228
22466,31265,53173
22423,31224,53114
22383,31177,53052
22347,31130,52993
22312,31088,52940
22278,31051,52891
22248,31020,52847
22228,30999,52812
22225,30994,52800
22246,31018,52828
22299,31082,52911
22396,31194,53061
22548,31359,53283
22753,31573,53574
23002,31824,53925
23280,32104,54320
23577,32403,54743
23880,32710,55177
24182,33010,55611
24471,33292,56033
24738,33548,56429
24977,33775,56788
25191,33972,57103
25375,34141,57373
25527,34279,57595
25644,34381,57763
25729,34448,57879
25789,34486,57955
25820,34499,57993
25824,34487,57992
25807,34456,57961
25775,34416,57910
25734,34370,57842
25682,34318,57763
25625,34262,57679
25568,34209,57600
25514,34161,57527
25468,34116,57459
25431,34077,57399
25400,34043,57354
25374,34014,57320
25353,33990,57293
25338,33973,57277
25329,33964,57269
25322,33961,57266
25318,33963,57264
25322,33969,57263
25334,33980,57264
25344,33988,57263
25349,33987,57257
25348,33978,57248
25342,33965,57235
25326,33943,57215
25299,33909,57181
25262,33864,57133
25216,33812,57073
25163,33754,57001
25106,33692,56923
25047,33631,56837
24987,33574,56750
24928,33519,56664
24874,33464,56582
24822,33409,56507
24773,33360,56440
24724,33315,56377
24676,33275,56317
24633,33242,56262
24597,33216,56217
24568,33195,56181
24547,33180,56154
24531,33171,56137
24522,33167,56130
24518,33164,56128
24517,33159,56129
24520,33158,56134
24526,33161,56141
24530,33165,56148
24529,33168,56153
24527,33171,56152
24525,33173,56142
24520,33167,56121
24510,33153,56092
24501,33132,56060
24489,33108,56029
24469,33078,55994
24438,33043,55951
24394,33006,55899
24346,32965,55841
24300,32922,55782
24252,32876,55724
24202,32827,55662
24150,32778,55594
24096,32725,55524
24041,32670,55453
23989,32615,55384
23941,32559,55315
23895,32505,55244
23850,32457,55176
23804,32413,55110
23755,32370,55041
23707,32326,54968
23663,32287,54899
23621,32249,54834
23580,32211,54774
23541,32174,54720
23504,32139,54670
23467,32102,54619
23425,32056,54561
23377,32008,54497
23327,31959,54432
23276,31908,54364
23225,31854,54291
23181,31800,54218
23141,31749,54149
23101,31699,54082
23059,31650,54015
23016,31604,53946
22972,31564,53876
22930,31524,53805
22892,31484,53736
22859,31447,53675
22828,31411,53620
22792,31375,53567
22756,31340,53515
22727,31311,53470
22701,31287,53434
22674,31265,53403
22644,31244,53373
22615,31225,53345
22591,31210,53320
22572,31197,53296
22557,31184,53274
22546,31169,53255
22535,31152,53232
22517,31135,53203
22494,31119,53169
22468,31102,53132
22441,31083,53092
22416,31060,53052
22391,31035,53011
22362,31006,52970
22329,30973,52928
22291,30934,52879
22249,30891,52822
22207,30845,52761
22160,30794,52692
22109,30737,52615
22055,30675,52532
22001,30614,52447
21948,30556,52359
21895,30496,52263
21836,30435,52165
21774,30377,52070
21713,30322,51981
21656,30269,51897
21603,30223,51825
21557,30190,51771
21531,30177,51748
21543,30198,51777
21606,30269,51878
21730,30403,52064
21917,30606,52342
22162,30868,52705
22454,31177,53136
22783,31517,53618
23133,31871,54127
23491,32222,54639
23838,32560,55136
24161,32876,55606
24456,33160,56036
24719,33407,56421
24948,33619,56756
25139,33795,57038
25290,33930,57264
25400,34023,57433
25472,34077,57544
25512,34101,57605
25520,34098,57624
25503,34071,57610
25471,34028,57570
25432,33977,57512
25382,33917,57438
25320,33853,57352
25251,33788,57258
25181,33724,57162
25110,33659,57066
25041,33593,56972
24977,33532,56885
24924,33480,56810
24885,33440,56745
24859,33411,56693
24841,33392,56657
24829,33380,56637
24824,33377,56629
24824,33378,56629
24831,33387,56636
24842,33400,56647
24848,33407,56655
24845,33406,56658
24835,33399,56657
24818,33386,56649
24797,33366,56630
24771,33341,56601
24739,33312,56562
24698,33274,56505
24647,33222,56430
24590,33158,56345
24530,33087,56258
24466,33016,56168
24402,32949,56076
24342,32885,55988
24289,32827,55911
24238,32777,55844
24192,32735,55789
24155,32701,55750
24128,32676,55723
24108,32663,55707
24092,32659,55696
24082,32661,55691
24078,32664,55688
24076,32665,55683
24075,32665,55675
24073,32669,55669
24072,32673,55662
24073,32676,55653
24073,32673,55645
24069,32661,55636
24062,32646,55625
24049,32630,55609
24028,32611,55588
24004,32593,55563
23980,32575,55533
23950,32552,55496
23918,32523,55452
23886,32489,55406
23850,32449,55357
23809,32406,55307
23764,32364,55253
23717,32321,55191
23671,32276,55122
23627,32228,55051
23584,32178,54982
23537,32128,54913
23486,32075,54839
23433,32020,54758
23380,31966,54675
23322,31908,54592
23257,31844,54508
23189,31779,54420
23122,31719,54332
23057,31662,54244
22988,31603,54156
22921,31544,54071
22860,31486,53991
22803,31433,53916
22752,31383,53846
22702,31335,53778
22650,31286,53709
22599,31238,53640
22553,31196,53572
22515,31161,53507
22483,31132,53448
22454,31106,53395
22426,31085,53346
22396,31067,53305
22369,31050,53271
22347,31032,53237
22326,31008,53201
22305,30983,53164
22286,30960,53128
22269,30939,53094
22250,30914,53059
22231,30888,53024
22207,30861,52989
22177,30833,52952
22144,30808,52913
22111,30785,52873
22077,30760,52830
22046,30728,52785
22018,30693,52740
21988,30658,52696
21953,30622,52647
21910,30584,52589
21863,30544,52523
21819,30504,52455
21780,30464,52392
21745,30429,52335
21713,30399,52282
21683,30373,52230
21655,30347,52177
21628,30319,52127
21600,30289,52082
21573,30258,52041
21548,30229,52004
21525,30205,51971
21511,30192,51950
21515,30200,51956
21545,30234,52001
21611,30305,52100
21725,30425,52271
21894,30602,52525
22118,30835,52856
22389,31113,53251
22693,31424,53690
23016,31748,54151
23344,32073,54618
23665,32387,55074
23970,32684,55505
24253,32957,55903
24504,33199,56263
24719,33405,56579
24901,33580,56847
25051,33723,57063
25167,33829,57228
25250,33896,57342
25301,33932,57411
25322,33942,57442
25315,33927,57439
25289,33894,57407
25249,33845,57352
25200,33788,57282
25139,33725,57202
25069,33657,57115
25001,33589,57025
24940,33524,56938
24884,33459,56853
24834,33398,56771
24791,33344,56698
24754,33301,56639
24724,33271,56593
24707,33254,56564
24703,33250,56551
24704,33252,56546
24709,33258,56547
24721,33265,56552
24738,33275,56557
24754,33284,56560
24766,33286,56558
24772,33279,56554
24769,33266,56547
24758,33245,56530
24736,33214,56500
24705,33177,56455
24667,33140,56397
24623,33102,56329
24573,33057,56254
24519,33003,56172
24463,32944,56087
24407,32888,56003
24355,32837,55924
24312,32793,55853
24278,32759,55795
24251,32735,55749
24231,32718,55716
24221,32706,55693
24221,32697,55681
24226,32693,55676
24231,32691,55672
24233,32691,55670
24237,32699,55673
24245,32712,55682
24257,32726,55692
24272,32738,55703
24286,32745,55716
24295,32750,55725
24295,32749,55730
24290,32747,55729
24286,32745,55721
24283,32745,55707
24282,32744,55692
24278,32739,55676
24268,32727,55654
24253,32709,55626
24233,32687,55590
24209,32659,55547
24182,32628,55500
24150,32588,55447
24112,32539,55384
24064,32485,55314
24008,32426,55242
23944,32365,55165
23879,32306,55087
23817,32253,55011
23758,32200,54939
23700,32146,54866
23641,32091,54787
23585,32036,54708
23532,31986,54634
23484,31938,54561
23442,31895,54487
23406,31856,54418
23372,31817,54351
23344,31777,54291
23320,31743,54239
23297,31715,54192
23269,31688,54144
23238,31660,54093
23209,31632,54042
23182,31603,53992
23154,31569,53943
23125,31531,53896
23095,31497,53852
23064,31471,53812
23032,31448,53773
23002,31425,53732
22980,31406,53694
22967,31393,53665
22962,31383,53641
22957,31373,53615
22950,31360,53587
22946,31345,53558
22943,31329,53532
22934,31311,53504
22920,31291,53470
22901,31271,53432
22877,31251,53392
22849,31228,53347
22818,31200,53297
22783,31163,53243
22745,31118,53187
22704,31074,53130
22663,31035,53074
22623,30999,53018
22580,30961,52958
22535,30919,52892
22494,30873,52824
22455,30827,52763
22414,30784,52708
22374,30750,52663
22345,30731,52633
22336,30732,52631
22356,30756,52668
22417,30816,52757
22527,30927,52910
22690,31095,53133
22902,31317,53428
23154,31577,53786
23436,31866,54194
23735,32170,54626
24040,32479,55064
24341,32780,55496
24631,33065,55912
24906,33323,56301
25153,33549,56654
25366,33740,56963
25542,33898,57226
25677,34021,57437
25773,34108,57590
25833,34162,57690
25864,34186,57745
25870,34183,57764
25857,34159,57753
25830,34123,57720
25794,34082,57670
25749,34034,57603
25693,33976,57521
25634,33911,57432
25580,33848,57346
25534,33794,57267
25495,33749,57194
25462,33712,57133
25436,33686,57087
25421,33674,57053
25420,33673,57031
25429,33679,57021
25443,33687,57018
25459,33692,57020
25473,33696,57026
25489,33699,57036
25505,33703,57048
25521,33710,57059
25535,33719,57067
25545,33729,57071
25551,33734,57067
25548,33729,57054
25535,33715,57031
25511,33692,56998
25481,33659,56951
25451,33618,56893
25422,33572,56829
25388,33525,56759
25344,33472,56679
25294,33416,56593
25243,33359,56510
25194,33306,56435
25147,33260,56369
25104,33220,56307
25064,33182,56246
25029,33147,56191
24997,33117,56150
24968,33094,56121
24948,33083,56104
24940,33080,56094
24938,33078,56086
24932,33075,56076
24923,33071,56066
24918,33067,56057
24915,33064,56048
24911,33062,56036
24908,33060,56025
24906,33056,56018
24900,33047,56010
24888,33031,55994
24870,33010,55971
24849,32987,55945
24823,32962,55911
24795,32930,55869
24763,32894,55825
24726,32857,55783
24688,32820,55739
24651,32782,55688
24615,32743,55633
24578,32701,55573
24538,32656,55509
24496,32608,55443
24455,32561,55381
24414,32516,55321
24372,32470,55257
24327,32422,55188
24277,32372,55118
24222,32325,55046
24170,32277,54972
24125,32227,54896
24082,32180,54822
24038,32135,54750
23993,32088,54678
23951,32039,54607
23910,31992,54540
23866,31952,54478
23821,31913,54415
23776,31870,54349
23731,31824,54283
23684,31776,54217
23634,31727,54152
23586,31679,54087
23540,31633,54026
23496,31591,53964
23452,31551,53897
23408,31513,53830
23366,31475,53766
23323,31436,53703
23281,31395,53643
23243,31355,53584
23208,31317,53527
23175,31281,53475
23146,31248,53427
23121,31220,53388
23101,31195,53358
23082,31171,53331
23066,31149,53304
23054,31130,53277
23043,31116,53253
23030,31106,53229
23017,31096,53205
23005,31086,53183
22990,31076,53160
22972,31063,53129
22953,31046,53089
22929,31025,53047
22900,31001,53005
22869,30972,52963
22835,30938,52918
22800,30899,52869
22763,30856,52814
22718,30807,52754
22664,30755,52686
22607,30702,52614
22550,30648,52538
22492,30594,52458
22434,30540,52377
22379,30486,52296
22324,30429,52214
22271,30371,52134
22224,30321,52061
22187,30285,52002
22166,30267,51964
22169,30272,51957
22205,30312,52002
22287,30402,52113
22421,30547,52303
22611,30747,52576
22856,31000,52926
23144,31294,53340
23456,31614,53799
23781,31947,54282
24108,32278,54768
24427,32598,55245
24727,32900,55699
25006,33176,56120
25260,33421,56498
25484,33631,56824
25675,33805,57098
25833,33944,57319
25954,34045,57486
26034,34108,57601
26075,34137,57668
26089,34136,57695
26080,34112,57684
26053,34071,57640
26015,34022,57573
25969,33968,57495
25915,33907,57409
25854,33841,57315
25790,33774,57218
25728,33710,57124
25670,33652,57037
25613,33599,56957
25564,33551,56888
25526,33512,56831
25498,33481,56788
25478,33459,56758
25467,33447,56738
25464,33443,56729
25469,33445,56731
25477,33454,56742
25488,33470,56758
25502,33490,56775
25516,33504,56787
25527,33509,56791
25532,33506,56784
25528,33492,56762
25514,33470,56727
25490,33439,56681
25455,33399,56624
25408,33351,56557
25349,33297,56480
25284,33238,56393
25222,33175,56304
25164,33112,56218
25107,33052,56136
25046,32990,56053
24983,32930,55973
24922,32877,55899
24867,32829,55835
24816,32783,55777
24766,32738,55727
24721,32700,55685
24687,32674,55654
24664,32658,55632
24649,32648,55618
24642,32642,55613
24640,32639,55613
24639,32634,55607
24633,32623,55596
24625,32607,55584
24613,32587,55570
24592,32564,55552
24567,32538,55529
24539,32511,55501
24505,32483,55468
24465,32458,55431
24426,32435,55393
24388,32416,55354
24352,32395,55318
24319,32368,55275
24285,32335,55225
24251,32300,55172
24218,32263,55121
24186,32225,55065
24155,32185,55003
24123,32146,54940
24090,32106,54881
24052,32063,54817
24008,32017,54747
23960,31971,54674
23906,31918,54596
23847,31861,54513
23787,31803,54429
23725,31742,54343
23663,31678,54257
23602,31617,54173
23543,31564,54091
23487,31515,54011
23434,31464,53932
23381,31406,53853
23330,31346,53777
23280,31289,53702
23229,31236,53626
23178,31188,53551
23131,31145,53481
23087,31103,53417
23042,31058,53353
22995,31012,53290
22949,30968,53230
22903,30925,53172
22859,30882,53112
22817,30839,53056
22775,30794,53001
22732,30748,52945
22687,30703,52884
22641,30661,52819
22594,30619,52753
22546,30576,52688
22501,30533,52625
22459,30490,52566
22418,30449,52514
22378,30413,52465
22339,30381,52412
22302,30351,52355
22269,30320,52298
22235,30282,52240
22199,30242,52182
22161,30200,52120
22119,30158,52053
22072,30117,51983
22019,30075,51907
21965,30027,51829
21912,29974,51749
21857,29914,51668
21798,29850,51588
21737,29784,51511
21674,29720,51434
21614,29662,51361
21565,29620,51302
21538,29603,51275
21546,29621,51298
21596,29683,51387
21697,29796,51551
21856,29970,51800
22075,30203,52134
22347,30488,52540
22661,30813,53001
22999,31160,53495
23346,31513,54003
23687,31858,54504
24014,32184,54981
24318,32481,55421
24589,32743,55814
24822,32965,56153
25019,33145,56435
25181,33283,56663
25303,33382,56836
25385,33445,56954
25436,33482,57024
25460,33498,57056
25458,33490,57056
25436,33461,57027
25398,33417,56973
25347,33362,56899
25284,33297,56809
25212,33221,56708
25137,33140,56604
25065,33062,56502
24997,32992,56406
24932,32931,56315
24874,32878,56230
24820,32831,56153
24770,32787,56086
24728,32749,56030
24696,32723,55987
24673,32710,55960
24658,32706,55945
24649,32707,55938
24646,32708,55939
24642,32704,55941
24637,32696,55934
24630,32687,55921
24625,32678,55905
24615,32664,55881
24593,32639,55845
24556,32604,55794
24507,32560,55728
24454,32506,55652
24395,32444,55566
24334,32378,55474
24271,32312,55383
24210,32248,55295
24151,32188,55211
24096,32132,55132
24052,32083,55065
24021,32044,55014
24000,32019,54978
23987,32005,54950
23981,31998,54929
23980,31993,54915
23983,31993,54912
23988,31996,54917
23995,32003,54925
24002,32015,54934
24010,32031,54946
24020,32048,54961
24033,32063,54976
24046,32073,54988
24056,32078,54998
24064,32080,55002
24064,32083,55003
24054,32083,55001
24036,32078,54992
24015,32069,54973
23994,32053,54947
23975,32028,54910
23951,31997,54863
23923,31962,54808
23889,31922,54747
23849,31877,54679
23804,31830,54607
23757,31782,54533
23704,31730,54454
23649,31673,54374
23602,31619,54297
23559,31568,54225
23513,31515,54157
23461,31460,54088
23410,31410,54018
23361,31366,53947
23315,31323,53877
23271,31278,53806
23227,31230,53734
23179,31180,53659
23124,31128,53580
23061,31073,53498
22996,31016,53414
22933,30958,53330
22871,30898,53248
22811,30839,53168
22755,30784,53090
22704,30732,53015
22656,30683,52941
22609,30634,52869
22563,30583,52800
22520,30533,52735
22481,30487,52675
22445,30446,52616
22414,30413,52562
22391,30387,52515
22374,30364,52470
22360,30337,52426
22344,30307,52383
22325,30279,52338
22306,30256,52292
22288,30238,52246
22270,30219,52200
22253,30197,52156
22235,30174,52113
22211,30146,52072
22182,30117,52033
22153,30090,51993
22120,30062,51948
22082,30029,51897
22042,29997,51844
22001,29967,51791
21960,29936,51739
21919,29903,51692
21881,29867,51646
21844,29828,51595
21804,29783,51535
21763,29736,51467
21722,29693,51396
21681,29654,51324
21641,29614,51250
21604,29574,51180
21572,29539,51121
21549,29514,51078
21542,29507,51062
21562,29532,51092
21624,29600,51183
21735,29718,51344
21899,29891,51584
22119,30118,51910
22397,30401,52317
22718,30727,52789
23066,31080,53298
23426,31444,53822
23780,31807,54341
24119,32152,54836
24436,32468,55296
24723,32748,55713
24977,32989,56083
25194,33190,56399
25368,33352,56658
25502,33476,56858
25605,33566,57004
25680,33626,57102
25727,33660,57156
25749,33673,57176
25750,33663,57165
25731,33631,57128
25699,33583,57070
25656,33527,56999
25603,33465,56918
25544,33400,56831
25487,33338,56744
25435,33281,56660
25385,33228,56583
25339,33179,56512
25296,33134,56446
25259,33095,56385
25231,33068,56335
25215,33053,56300
25207,33042,56278
25202,33033,56262
25199,33025,56249
25195,33019,56238
25195,33017,56231
25198,33020,56227
25196,33019,56222
25186,33012,56209
25172,32999,56191
25156,32980,56168
25137,32956,56136
25111,32922,56091
25077,32878,56031
25036,32830,55962
24987,32778,55889
24930,32722,55811
24872,32666,55733
24817,32611,55660
24766,32558,55590
24718,32509,55525
24670,32464,55466
24618,32420,55409
24571,32379,55355
24535,32345,55309
24511,32318,55273
24498,32300,55249
24491,32289,55233
24487,32282,55222
24483,32275,55212
24479,32270,55208
24475,32267,55211
24474,32266,55215
24477,32267,55218
24483,32270,55221
24486,32271,55217
24483,32270,55206
24470,32261,55186
24453,32246,55158
24437,32227,55127
