green_channel,red_channel,ir_channel
4614,60092,26415
4698,60159,26518
4757,60207,26586
4795,60238,26622
4815,60250,26633
4816,60243,26616
4797,60222,26574
4768,60193,26517
4734,60156,26452
4687,60111,26377
4626,60056,26293
4556,59994,26201
4491,59934,26108
4432,59881,26022
4377,59834,25941
4322,59787,25863
4269,59740,25786
4221,59697,25717
4174,59658,25659
4129,59619,25604
4089,59578,25548
4053,59541,25494
4020,59505,25438
3984,59467,25379
3943,59425,25317
3896,59384,25252
3849,59346,25186
3804,59309,25123
3763,59274,25065
3722,59238,25010
3678,59199,24957
3637,59161,24910
3608,59134,24876
3590,59119,24854
3577,59110,24836
3570,59106,24823
3573,59111,24821
3581,59127,24831
3593,59144,24848
3610,59161,24869
3632,59181,24897
3660,59206,24937
3690,59231,24983
3721,59255,25027
3753,59276,25070
3786,59299,25110
3820,59323,25147
3853,59347,25181
3881,59366,25209
3898,59379,25227
3910,59389,25235
3921,59397,25239
3926,59401,25236
3918,59395,25224
3899,59383,25197
3874,59366,25161
3843,59341,25116
3804,59307,25063
3760,59266,25004
3716,59225,24941
3668,59182,24874
3612,59133,24800
3550,59077,24718
3485,59018,24629
3420,58960,24541
3352,58905,24454
3282,58852,24364
3212,58795,24272
3143,58737,24181
3073,58678,24086
3001,58614,23989
2927,58549,23894
2856,58489,23801
2787,58431,23708
2719,58371,23615
2651,58313,23522
2585,58259,23431
2521,58207,23341
2460,58156,23256
2401,58109,23176
2344,58066,23101
2291,58025,23029
2242,57984,22961
2194,57943,22897
2146,57903,22837
2097,57865,22774
2049,57826,22709
2004,57790,22650
1962,57760,22601
1918,57727,22550
1874,57691,22496
1838,57661,22446
1806,57638,22402
1776,57613,22358
1745,57587,22313
1718,57562,22271
1688,57538,22225
1655,57511,22180
1622,57482,22141
1593,57454,22107
1565,57428,22073
1537,57405,22036
1506,57382,21997
1475,57361,21958
1440,57337,21916
1402,57309,21866
1364,57281,21816
1327,57253,21771
1287,57222,21725
1242,57188,21671
1197,57153,21612
1157,57122,21555
1118,57093,21498
1077,57061,21438
1035,57029,21377
996,57001,21319
960,56974,21265
921,56946,21212
878,56914,21157
837,56879,21102
800,56844,21056
770,56813,21025
754,56795,21015
759,56799,21037
792,56830,21103
861,56895,21222
971,57000,21406
1125,57149,21657
1330,57338,21970
1588,57562,22342
1889,57823,22770
2224,58113,23238
2578,58415,23722
2943,58721,24207
3307,59025,24683
3656,59318,25135
3974,59586,25549
4256,59823,25919
4504,60030,26244
4718,60210,26522
4896,60359,26752
5038,60475,26936
5150,60564,27079
5233,60629,27183
5292,60671,27252
5331,60691,27290
5348,60696,27300
5348,60686,27286
5333,60662,27249
5304,60627,27197
5261,60586,27134
5210,60540,27064
5158,60492,26989
5109,60447,26917
5061,60405,26850
5010,60362,26784
4964,60322,26720
4927,60292,26660
4898,60270,26607
4870,60250,26557
4847,60230,26510
4833,60214,26472
4823,60201,26443
4811,60188,26417
4795,60169,26389
4778,60147,26357
4759,60125,26321
4735,60101,26281
4708,60073,26239
4680,60044,26196
4647,60016,26152
4611,59988,26105
4577,59961,26059
4548,59936,26020
4522,59914,25986
4497,59893,25953
4477,59876,25930
4465,59868,25918
4459,59866,25911
4460,59866,25906
4470,59873,25907
4489,59887,25917
4509,59905,25935
4534,59924,25957
4562,59946,25986
4593,59975,26021
4625,60006,26059
4655,60030,26093
4684,60049,26122
4713,60072,26150
4740,60097,26176
4764,60116,26197
4785,60130,26210
4803,60142,26220
4817,60150,26224
4828,60151,26220
4831,60148,26212
4826,60140,26199
4811,60124,26177
4788,60098,26145
4762,60071,26107
4731,60045,26066
4692,60012,26014
4649,59972,25950
4604,59934,25884
4555,59898,25816
4499,59856,25741
4441,59807,25662
4386,59757,25585
4332,59708,25511
4279,59656,25435
4229,59604,25362
4180,59558,25292
4127,59515,25219
4070,59471,25144
4015,59429,25074
3959,59389,25007
3900,59347,24937
3840,59302,24863
3786,59255,24788
3739,59213,24716
3695,59175,24649
3651,59136,24582
3607,59096,24517
3563,59061,24459
3520,59031,24406
3479,59000,24354
3441,58966,24303
3404,58934,24253
3367,58903,24204
3330,58871,24157
3295,58840,24112
3264,58808,24072
3237,58776,24035
3211,58747,23999
3187,58722,23965
3160,58700,23933
3131,58679,23900
3102,58660,23870
3077,58648,23846
3053,58640,23822
3026,58627,23790
2995,58605,23752
2968,58583,23713
2944,58563,23676
2918,58542,23637
2887,58516,23592
2851,58484,23541
2808,58448,23485
2763,58410,23429
2721,58374,23375
2678,58337,23318
2632,58295,23256
2583,58252,23191
2535,58212,23127
2490,58175,23067
2444,58138,23009
2396,58094,22946
2346,58046,22876
2297,58000,22805
2247,57956,22730
2193,57908,22647
2138,57859,22565
2084,57814,22492
2031,57773,22428
1982,57739,22372
1948,57718,22333
1937,57718,22326
1954,57741,22362
2006,57793,22446
2103,57883,22595
2253,58019,22817
2454,58197,23112
2701,58410,23463
2986,58650,23858
3299,58913,24282
3626,59184,24719
3953,59451,25149
4270,59711,25564
4573,59962,25959
4853,60199,26329
5105,60413,26665
5324,60602,26966
5509,60764,27227
5660,60899,27442
5783,61004,27612
5884,61088,27746
5962,61154,27850
6014,61199,27922
6044,61221,27963
6059,61230,27980
6063,61232,27977
6054,61222,27957
6039,61200,27922
6016,61171,27876
5981,61134,27816
5939,61092,27748
5897,61053,27679
5852,61016,27611
5803,60977,27544
5752,60938,27477
5705,60903,27416
5667,60875,27364
5640,60855,27321
5623,60838,27287
5612,60821,27258
5604,60805,27231
5595,60792,27203
5584,60779,27174
5567,60763,27141
5546,60746,27105
5518,60724,27064
5484,60692,27017
5448,60657,26968
5411,60625,26923
5373,60594,26881
5332,60560,26836
5289,60525,26790
5249,60492,26746
5214,60466,26707
5184,60443,26674
5162,60423,26645
5148,60409,26623
5143,60401,26608
5149,60401,26600
5163,60408,26606
5179,60423,26629
5192,60438,26657
5209,60452,26686
5233,60470,26720
5260,60492,26757
5285,60514,26795
5310,60533,26830
5333,60552,26862
5350,60570,26887
5363,60586,26906
5376,60601,26920
5387,60613,26930
5388,60620,26931
5376,60616,26920
5357,60603,26898
5337,60588,26870
5318,60572,26839
5293,60549,26799
5262,60516,26748
5226,60479,26694
5186,60440,26639
5143,60396,26577
5098,60349,26508
5053,60306,26437
5007,60267,26365
4954,60223,26286
4897,60176,26204
4839,60133,26128
4781,60093,26056
4724,60050,25984
4667,60006,25913
4610,59961,25839
4552,59915,25761
4495,59866,25682
4441,59818,25605
4386,59771,25530
4327,59725,25454
4267,59677,25378
4212,59635,25307
4162,59597,25239
4114,59557,25171
4069,59512,25107
4027,59467,25047
3987,59427,24986
3951,59391,24928
3917,59361,24877
3883,59334,24833
3847,59308,24792
3812,59282,24749
3782,59256,24707
3756,59232,24672
3732,59212,24640
3705,59190,24603
3676,59167,24560
3651,59152,24520
3627,59141,24488
3599,59125,24455
3569,59102,24420
3538,59075,24384
3506,59045,24345
3473,59012,24303
3442,58979,24263
3412,58952,24227
3382,58926,24189
3350,58894,24144
3315,58862,24095
3280,58836,24050
3246,58812,24004
3210,58785,23951
3170,58753,23891
3127,58720,23831
3083,58687,23774
3038,58656,23717
2992,58626,23660
2943,58591,23602
2891,58551,23540
2840,58506,23479
2798,58462,23424
2763,58428,23380
2738,58407,23349
2727,58398,23343
2743,58413,23379
2793,58461,23469
2885,58545,23617
3024,58667,23830
3212,58828,24105
3443,59024,24429
3706,59251,24792
3995,59500,25182
4296,59755,25584
4594,60008,25982
4882,60253,26364
5156,60486,26724
5415,60706,27060
5651,60910,27369
5863,61091,27646
6048,61244,27886
6204,61375,28091
6331,61484,28260
6430,61569,28392
6506,61631,28491
6563,61676,28561
6604,61707,28605
6626,61721,28622
6631,61723,28618
6622,61716,28600
6601,61699,28572
6576,61674,28530
6548,61644,28480
6514,61615,28425
6473,61581,28365
6428,61542,28303
6387,61504,28243
6351,61470,28190
6315,61439,28142
6281,61410,28097
6251,61389,28059
6229,61379,28030
6211,61373,28005
6197,61364,27979
6187,61352,27950
6178,61336,27920
6168,61317,27889
6152,61292,27856
6127,61263,27818
6096,61230,27776
6062,61195,27733
6028,61161,27689
5992,61124,27645
5951,61083,27596
5912,61041,27541
5880,61004,27486
5856,60976,27440
5839,60957,27404
5829,60946,27378
5824,60940,27361
5824,60943,27355
5831,60952,27358
5841,60963,27367
5853,60974,27383
5870,60989,27410
5890,61007,27443
5914,61026,27477
5940,61047,27509
5965,61072,27540
5983,61092,27571
5998,61106,27595
6012,61119,27612
6027,61134,27626
6041,61148,27637
6050,61155,27642
6052,61152,27639
6050,61145,27631
6046,61137,27618
6036,61123,27599
6019,61104,27575
5995,61079,27543
5962,61049,27498
5924,61013,27441
5882,60976,27379
5837,60938,27313
5786,60895,27237
5733,60848,27155
5682,60803,27075
5631,60760,27001
5573,60715,26926
5509,60668,26850
5447,60623,26778
5389,60578,26710
5333,60529,26640
5278,60479,26571
5227,60432,26504
5173,60386,26434
5122,60341,26363
5076,60299,26293
5033,60261,26225
4986,60222,26156
4934,60181,26085
4882,60140,26017
4835,60103,25958
4792,60069,25905
4748,60035,25851
4704,60000,25797
4663,59968,25744
4624,59935,25692
4588,59902,25640
4553,59870,25591
4518,59842,25547
4481,59814,25503
4442,59784,25456
4407,59754,25411
4378,59727,25372
4351,59699,25338
4320,59669,25303
4288,59642,25268
4262,59624,25236
4240,59613,25209
4219,59600,25182
4195,59584,25155
4169,59566,25127
4142,59545,25097
4118,59525,25066
4095,59507,25036
4071,59488,25004
4041,59464,24962
4007,59435,24911
3973,59403,24858
3939,59371,24804
3902,59336,24748
3866,59303,24693
3831,59272,24640
3793,59238,24583
3750,59200,24520
3708,59162,24456
3666,59125,24393
3620,59086,24328
3569,59044,24259
3517,59002,24188
3469,58962,24120
3426,58926,24057
3383,58888,23997
3342,58854,23941
3307,58826,23895
3282,58808,23867
3273,58801,23869
3287,58814,23910
3332,58857,24001
3417,58935,24147
3546,59049,24352
3727,59204,24616
3958,59402,24937
4227,59632,25307
4520,59880,25703
4824,60139,26109
5133,60400,26520
5437,60659,26922
5726,60905,27300
5992,61132,27649
6234,61343,27968
6454,61536,28254
6649,61708,28505
6819,61857,28722
6960,61983,28907
7073,62082,29056
7160,62155,29170
7227,62211,29256
7275,62251,29317
7301,62270,29349
7314,62271,29358
7314,62263,29349
7300,62246,29321
7273,62222,29279
7240,62192,29231
7202,62158,29182
7159,62119,29129
7117,62074,29069
7079,62029,29005
7047,61989,28948
7021,61961,28902
6998,61939,28864
6979,61923,28833
6969,61916,28810
6962,61913,28794
6954,61906,28781
6946,61896,28769
6936,61885,28755
6921,61872,28734
6903,61852,28704
6884,61828,28667
6865,61803,28632
6843,61775,28593
6812,61739,28548
6780,61700,28499
6750,61664,28454
6722,61633,28412
6694,61604,28371
6671,61580,28332
6651,61565,28297
6637,61558,28269
6626,61553,28247
6619,61548,28234
6615,61546,28226
6614,61544,28223
6617,61545,28224
6628,61553,28235
6645,61569,28258
6662,61586,28282
6680,61605,28305
6703,61629,28331
6729,61653,28358
6754,61673,28383
6778,61693,28404
6799,61713,28422
6813,61726,28430
6822,61735,28433
6831,61740,28439
6837,61741,28444
6834,61738,28441
6821,61727,28426
6803,61707,28398
6781,61683,28366
6754,61659,28333
6721,61630,28293
6680,61594,28243
6635,61555,28185
6591,61512,28122
6548,61466,28056
6503,61420,27988
6449,61370,27919
6389,61316,27847
6326,61258,27770
6264,61202,27693
6204,61151,27621
6145,61103,27549
6086,61054,27473
6032,61008,27396
5987,60967,27326
5945,60929,27258
5901,60889,27191
5852,60847,27127
5801,60806,27064
5752,60766,27003
5707,60726,26940
5660,60684,26877
5612,60642,26812
5562,60596,26743
5513,60548,26673
5466,60507,26612
5422,60474,26563
5380,60442,26517
5341,60411,26471
5306,60385,26429
5274,60361,26385
5241,60335,26339
5210,60310,26295
5178,60285,26255
5142,60257,26217
5104,60228,26178
5072,60203,26137
5044,60181,26099
5018,60160,26059
4992,60135,26014
4966,60105,25967
4941,60079,25924
4917,60059,25885
4887,60040,25846
4852,60016,25808
4818,59990,25776
4788,59964,25743
4762,59939,25706
4738,59913,25667
4711,59883,25626
4679,59849,25582
4639,59810,25532
4595,59770,25475
4551,59736,25420
4508,59703,25366
4462,59667,25307
4411,59626,25241
4359,59583,25170
4308,59539,25095
4255,59492,25018
4199,59447,24940
4142,59404,24862
4083,59359,24781
4024,59312,24699
3969,59266,24620
3917,59223,24545
3861,59176,24469
3804,59127,24394
3749,59079,24320
3700,59036,24250
3661,59000,24191
3638,58978,24157
3633,58976,24160
3655,58998,24206
3715,59051,24304
3821,59139,24463
3979,59271,24691
4189,59446,24985
4443,59658,25335
4729,59901,25730
5040,60165,26156
5363,60440,26595
5684,60713,27029
5995,60976,27449
6291,61226,27844
6563,61457,28205
6805,61666,28526
7019,61851,28808
7208,62012,29051
7365,62146,29255
7489,62252,29417
7583,62332,29542
7655,62393,29638
7707,62435,29705
7739,62458,29739
7755,62466,29747
7759,62464,29733
7752,62452,29706
7736,62432,29670
7708,62410,29631
7673,62384,29585
7634,62352,29529
7597,62315,29466
7564,62279,29403
7534,62245,29346
7501,62209,29293
7468,62171,29241
7439,62143,29196
7414,62121,29155
7389,62101,29117
7372,62084,29087
7363,62071,29065
7353,62056,29042
7338,62039,29019
7322,62025,29000
7307,62011,28983
7289,61995,28961
7268,61973,28927
7244,61945,28883
7220,61921,28842
7197,61902,28806
7173,61883,28769
7148,61860,28731
7123,61838,28698
7101,61818,28672
7086,61802,28654
7077,61792,28644
7076,61791,28641
7077,61794,28639
7083,61800,28639
7096,61812,28644
7116,61831,28658
7141,61852,28678
7162,61870,28701
7179,61888,28727
7199,61911,28759
7223,61936,28795
7247,61955,28828
7269,61971,28856
7287,61984,28878
7306,61995,28897
7326,62005,28913
7343,62011,28924
7352,62015,28931
7354,62014,28929
7351,62005,28914
7345,61993,28896
7336,61983,28877
7319,61965,28848
7290,61936,28806
7256,61902,28755
7216,61867,28702
7172,61828,28642
7125,61783,28577
7076,61736,28512
7027,61690,28443
6978,61642,28371
6931,61593,28299
6882,61546,28229
6828,61504,28159
6775,61462,28090
6727,61421,28021
6677,61384,27953
6619,61343,27884
6559,61298,27811
6502,61253,27739
6448,61212,27670
6394,61172,27603
6339,61128,27536
6288,61085,27470
6244,61047,27409
6203,61015,27357
6165,60986,27312
6128,60958,27269
6092,60930,27228
6057,60905,27186
6025,60879,27145
5995,60855,27109
5966,60833,27075
5939,60811,27038
5917,60785,26996
5899,60761,26960
5880,60741,26929
5856,60721,26896
5832,60700,26861
5814,60686,26832
5798,60679,26810
5777,60667,26784
5750,60646,26749
5725,60626,26711
5701,60609,26673
5672,60585,26632
5640,60553,26588
5612,60523,26548
5585,60496,26511
5554,60464,26472
5520,60428,26433
5489,60396,26396
5462,60369,26358
5434,60342,26315
5403,60313,26267
5369,60282,26219
5328,60248,26169
5283,60211,26112
5238,60174,26050
5194,60142,25987
5148,60111,25921
5101,60079,25855
5056,60048,25794
5012,60018,25736
4967,59986,25680
4920,59949,25620
4873,59914,25560
4835,59887,25512
4810,59871,25484
4805,59870,25483
4832,59892,25521
4899,59949,25616
5009,60044,25773
5159,60174,25987
5346,60337,26253
5562,60529,26561
5803,60742,26899
6063,60966,27253
6332,61192,27612
6600,61417,27967
6859,61639,28313
7106,61854,28643
7333,62054,28947
7532,62232,29219
7710,62388,29461
7870,62523,29673
8008,62637,29856
8122,62731,30008
8212,62806,30126
8278,62860,30210
8323,62897,30268
8348,62916,30301
8357,62918,30312
8355,62909,30302
8344,62893,30275
8324,62874,30234
8297,62846,30181
8262,62811,30121
8223,62773,30062
8178,62734,30004
8134,62694,29946
8092,62655,29889
8055,62623,29838
8024,62596,29794
8000,62571,29754
7979,62549,29719
7959,62528,29688
7941,62509,29657
7925,62493,29625
7908,62476,29596
7886,62458,29567
7860,62439,29532
7834,62416,29489
7811,62392,29442
7788,62366,29392
7758,62335,29337
7722,62301,29280
7687,62269,29229
7655,62241,29187
7622,62211,29146
7589,62179,29108
7562,62153,29077
7544,62136,29056
7533,62127,29045
7529,62123,29043
7534,62123,29050
7545,62128,29062
7557,62134,29073
7574,62143,29088
7598,62159,29105
7622,62177,29122
7641,62193,29140
7660,62213,29161
7678,62235,29184
7696,62254,29203
7711,62264,29218
7723,62268,29230
7730,62271,29237
7733,62273,29240
7731,62268,29236
7726,62259,29227
7716,62248,29214
7701,62232,29193
7679,62209,29160
7654,62182,29120
7631,62157,29078
7607,62136,29035
7574,62111,28982
7535,62081,28922
7491,62052,28861
7440,62020,28802
7385,61978,28741
7328,61931,28678
7274,61885,28617
7223,61841,28558
7170,61794,28493
7113,61743,28421
7053,61691,28343
6994,61641,28262
6939,61594,28182
6884,61546,28102
6827,61498,28022
6772,61451,27945
6723,61404,27869
6672,61356,27793
6617,61306,27717
6564,61257,27644
6518,61213,27579
6475,61177,27520
6429,61144,27465
6382,61110,27410
6340,61075,27355
6303,61044,27304
6268,61017,27258
6234,60986,27210
6199,60950,27156
6166,60915,27104
6133,60885,27057
6098,60858,27013
6062,60834,26972
6027,60812,26933
5994,60791,26895
5963,60770,26858
5931,60748,26820
5895,60723,26781
5859,60695,26739
5827,60667,26701
5802,60644,26668
5779,60623,26635
5754,60597,26597
5730,60569,26552
5709,60545,26512
5687,60526,26479
5660,60508,26443
5629,60487,26403
5603,60468,26363
5580,60449,26322
5552,60426,26278
5519,60399,26229
5485,60370,26177
5452,60341,26123
5413,60309,26067
5368,60273,26009
5318,60234,25949
5266,60190,25882
5216,60145,25810
5165,60103,25738
5110,60059,25665
5049,60010,25587
4984,59960,25506
4922,59909,25425
4862,59861,25345
4803,59813,25265
4744,59763,25184
4688,59712,25104
4637,59670,25035
4593,59638,24981
4559,59616,24945
4543,59610,24933
4555,59631,24965
4606,59684,25053
4698,59774,25202
4836,59902,25415
5023,60073,25697
5260,60283,26040
5539,60523,26430
5848,60784,26851
6169,61057,27286
6495,61331,27721
6816,61602,28144
7126,61862,28548
7410,62106,28923
7663,62327,29262
7888,62522,29564
8087,62696,29828
8259,62846,30052
8398,62966,30232
8508,63059,30375
8596,63134,30488
8664,63194,30577
8710,63235,30634
8734,63255,30664
8746,63265,30674
8747,63262,30670
8734,63243,30646
8711,63213,30607
8683,63180,30560
8649,63146,30504
8608,63106,30440
8564,63066,30376
8522,63030,30317
8479,62995,30260
8438,62960,30203
8407,62932,30154
8383,62910,30117
8359,62889,30092
8340,62869,30073
8329,62856,30059
8322,62850,30047
8316,62846,30036
8311,62838,30022
8307,62828,30004
8303,62819,29984
8296,62810,29964
8282,62795,29938
8260,62774,29901
8231,62750,29857
8198,62722,29809
8162,62687,29756
8124,62646,29701
8087,62606,29648
8054,62569,29599
8026,62536,29557
8001,62509,29521
7979,62490,29493
7960,62475,29473
7949,62463,29461
7946,62456,29455
7948,62454,29454
7955,62456,29453
7966,62463,29452
7980,62475,29460
7995,62494,29480
8010,62514,29502
8027,62534,29520
8049,62557,29540
8072,62582,29565
8088,62599,29585
8099,62610,29600
8113,62624,29613
8126,62638,29622
8130,62639,29619
8124,62632,29606
8111,62621,29587
8089,62604,29557
8058,62578,29517
8021,62548,29471
7983,62517,29423
7945,62486,29370
7902,62449,29310
7856,62406,29245
7808,62359,29178
7755,62310,29107
7697,62257,29033
7638,62202,28961
7580,62150,28892
7520,62096,28819
7457,62038,28739
7392,61980,28657
7328,61929,28579
7264,61880,28501
7200,61829,28422
7140,61778,28343
7082,61732,28267
7024,61687,28191
6967,61643,28115
6914,61602,28043
6866,61563,27975
6817,61523,27907
6766,61480,27839
6721,61442,27776
6681,61412,27718
6642,61382,27663
6601,61347,27606
6564,61310,27549
6530,61274,27494
6495,61239,27440
6461,61204,27387
6426,61171,27338
6388,61138,27291
6349,61103,27244
6312,61070,27197
6277,61042,27149
6240,61014,27096
6201,60981,27041
6165,60947,26988
6132,60916,26937
6095,60886,26887
6055,60857,26839
6020,60831,26795
5987,60806,26754
5951,60778,26713
5912,60747,26669
5873,60714,26624
5839,60688,26583
5807,60664,26541
5773,60637,26494
5738,60606,26446
5704,60575,26402
5668,60544,26358
5625,60507,26308
5578,60468,26252
5533,60431,26196
5490,60396,26140
5444,60356,26082
5394,60309,26015
5345,60260,25941
5297,60211,25860
5245,60159,25776
5187,60106,25691
5125,60052,25605
5064,59999,25521
5004,59946,25437
4942,59894,25354
4876,59845,25269
4809,59794,25183
4742,59738,25092
4671,59679,24998
4596,59617,24903
4521,59553,24804
4449,59486,24702
4378,59420,24606
4308,59357,24519
4242,59297,24441
4184,59246,24378
4146,59213,24345
4135,59210,24353
4163,59243,24409
4239,59317,24527
4371,59443,24728
4564,59625,25016
4813,59853,25379
5113,60120,25806
5455,60422,26279
5826,60744,26777
6209,61068,27279
6582,61384,27768
6936,61685,28232
7265,61963,28661
7565,62214,29047
7828,62436,29389
8050,62628,29689
8233,62791,29943
8385,62928,30154
8512,63042,30325
8610,63130,30453
8678,63186,30537
8723,63217,30584
8750,63233,30606
8758,63236,30604
8749,63223,30579
8728,63194,30534
8699,63159,30478
8660,63120,30419
8610,63072,30349
8551,63013,30271
8491,62954,30193
8432,62900,30118
8374,62849,30043
8320,62800,29971
8272,62756,29904
8227,62715,29843
8186,62677,29789
8152,62642,29745
8126,62614,29711
8104,62588,29683
8085,62560,29653
8071,62533,29622
8057,62508,29587
8038,62478,29547
8010,62443,29502
7978,62410,29451
7943,62378,29398
7905,62343,29344
7865,62308,29286
7826,62275,29227
7789,62251,29176
7752,62231,29132
7717,62213,29092
7691,62198,29058
7676,62190,29038
7670,62187,29032
7668,62184,29032
7673,62183,29037
7687,62191,29052
7708,62208,29078
7730,62227,29106
7754,62247,29135
7782,62272,29166
7813,62300,29202
7848,62328,29242
7883,62355,29278
7916,62379,29311
7946,62402,29342
7973,62424,29371
7991,62444,29392
8002,62457,29407
8004,62462,29408
7999,62456,29395
7989,62443,29375
7973,62426,29346
7945,62398,29304
7907,62358,29248
7863,62316,29192
7814,62273,29137
7756,62225,29075
7693,62169,29004
7628,62113,28926
7564,62059,28844
7496,62001,28756
7426,61938,28664
7357,61878,28572
7289,61823,28482
7220,61767,28396
7153,61709,28310
7085,61653,28222
7015,61595,28131
6945,61535,28039
6880,61477,27950
6820,61425,27866
6764,61375,27784
6707,61321,27700
6652,61268,27619
6597,61215,27541
6538,61159,27462
6477,61104,27381
6419,61058,27307
6365,61021,27241
6311,60983,27176
6259,60943,27108
6213,60908,27046
6171,60878,26991
6128,60846,26935
6086,60815,26878
6052,60791,26831
6023,60776,26792
5991,60761,26757
5959,60742,26724
5936,60723,26693
5918,60704,26662
5898,60684,26630
5874,60662,26600
5847,60638,26569
5815,60609,26531
5782,60576,26487
5751,60546,26443
5718,60515,26401
5677,60479,26358
5634,60439,26310
5595,60399,26258
5558,60364,26205
5514,60327,26147
5465,60286,26083
5418,60244,26017
5372,60206,25955
5325,60172,25895
5276,60137,25830
5229,60101,25764
5185,60065,25698
5142,60028,25635
5094,59988,25570
5042,59944,25502
4986,59899,25431
4925,59852,25357
4858,59799,25276
4787,59740,25193
4717,59684,25115
4652,59632,25041
4592,59581,24963
4537,59533,24883
4487,59489,24806
4444,59450,24740
4417,59424,24699
4412,59420,24694
4437,59445,24738
4500,59506,24840
4612,59609,25010
4780,59762,25260
5002,59964,25587
5271,60203,25971
5579,60466,26395
5914,60750,26849
6263,61048,27318
6607,61341,27777
6935,61620,28211
7247,61887,28622
7537,62140,29005
7796,62364,29347
8024,62559,29645
8222,62730,29903
8386,62876,30114
8513,62990,30284
8608,63073,30419
8678,63133,30521
8727,63174,30589
8756,63196,30624
8766,63198,30629
8757,63183,30612
8732,63153,30572
8696,63113,30513
8657,63069,30446
8616,63023,30375
8570,62975,30301
8521,62922,30222
8474,62871,30143
8427,62822,30065
8377,62773,29986
8326,62725,29908
8281,62688,29840
8244,62662,29783
8209,62641,29734
8171,62620,29689
8135,62598,29651
8103,62575,29619
8069,62547,29584
8032,62516,29540
7994,62485,29490
7955,62452,29437
7915,62416,29380
7876,62374,29323
7836,62328,29264
7793,62280,29198
7754,62236,29132
7719,62196,29072
7687,62159,29021
7656,62127,28979
7633,62104,28944
7621,62091,28920
7617,62088,28907
7615,62089,28901
7618,62091,28900
7628,62097,28909
7650,62109,28929
7677,62124,28958
7702,62140,28989
7726,62156,29018
7755,62175,29047
7784,62198,29079
7809,62222,29110
7829,62241,29136
7847,62258,29158
7861,62275,29179
7865,62288,29193
7863,62294,29197
7853,62291,29192
7833,62280,29173
7807,62265,29144
7779,62246,29110
7747,62223,29070
7706,62191,29019
7660,62149,28959
7612,62102,28894
7558,62053,28827
7498,61999,28753
7434,61938,28668
7369,61876,28578
7299,61812,28483
7224,61744,28382
7147,61675,28276
7073,61609,28173
7001,61546,28076
6927,61482,27979
6854,61415,27879
6784,61353,27780
6716,61295,27683
6642,61234,27584
6564,61170,27485
6489,61113,27390
6421,61061,27298
6352,61007,27204
6280,60949,27110
6210,60891,27018
6143,60836,26928
6075,60781,26838
6007,60727,26750
5946,60676,26671
5893,60632,26599
5846,60591,26530
5801,60552,26463
5754,60513,26397
5705,60475,26329
5657,60435,26258
5613,60392,26188
5574,60351,26125
5533,60312,26066
5488,60270,26009
5444,60230,25957
5402,60197,25910
5358,60168,25865
5313,60139,25819
5271,60112,25776
5235,60090,25735
5202,60068,25691
5169,60043,25644
5137,60020,25599
5105,59999,25557
5068,59974,25510
5027,59942,25458
4988,59908,25408
4951,59878,25360
4913,59848,25310
4870,59815,25260
4827,59782,25210
4784,59749,25156
4738,59713,25098
4692,59676,25037
4647,59639,24976
4601,59600,24911
4554,59557,24844
4508,59513,24777
4462,59471,24709
4411,59428,24639
4356,59380,24566
4300,59333,24493
4242,59289,24421
4179,59239,24345
4114,59182,24263
4048,59124,24175
3984,59069,24088
3916,59014,23998
3843,58953,23902
3769,58889,23803
3698,58830,23710
3631,58778,23627
3568,58728,23549
3520,58688,23491
3496,58670,23469
3501,58681,23490
3541,58720,23559
3625,58795,23690
3766,58921,23900
3969,59101,24192
4232,59331,24564
4554,59608,25011
4927,59930,25524
5332,60283,26081
5749,60644,26652
6162,61000,27212
6560,61345,27745
6933,61666,28243
7277,61960,28696
7583,62221,29098
7846,62446,29445
8066,62634,29737
8247,62789,29979
8391,62914,30172
8501,63006,30321
8583,63069,30427
8641,63109,30496
8674,63131,30531
8683,63134,30535
8673,63117,30511
8653,63087,30470
8625,63051,30418
8585,63010,30355
8532,62962,30279
8473,62907,30192
8410,62849,30104
8346,62791,30017
8281,62729,29932
8219,62669,29853
8163,62618,29782
8114,62578,29722
8072,62542,29668
8038,62510,29619
8010,62487,29577
7986,62469,29543
7966,62452,29511
7950,62434,29480
7936,62418,29454
7922,62406,29427
7904,62388,29394
7879,62365,29355
7851,62338,29312
7819,62310,29266
7779,62275,29216
7735,62235,29159
7692,62197,29099
7653,62164,29045
7621,62134,29000
7592,62107,28962
7568,62080,28926
7551,62057,28895
7541,62042,28874
7536,62036,28860
7536,62037,28850
7546,62047,28847
7565,62061,28855
7587,62077,28871
7603,62091,28891
7614,62104,28916
7625,62119,28944
7638,62136,28978
7647,62150,29011
7652,62160,29036
7660,62169,29052
7669,62178,29066
7670,62184,29077
7665,62183,29078
7659,62178,29070
7650,62170,29056
7634,62157,29036
7608,62130,29001
7570,62091,28953
7527,62050,28900
7480,62008,28841
7428,61963,28775
7371,61915,28704
7315,61870,28630
7259,61827,28552
7197,61776,28462
7130,61717,28364
7062,61655,28266
6990,61592,28169
6913,61522,28065
6831,61449,27956
6751,61381,27843
6670,61314,27728
6586,61244,27612
6502,61173,27498
6416,61105,27385
6328,61037,27273
6242,60968,27164
6161,60901,27060
6083,60838,26956
6006,60776,26853
5933,60716,26751
5863,60656,26652
5794,60598,26557
5724,60539,26466
5656,60481,26379
5594,60425,26300
5536,60370,26225
5481,60313,26151
5430,60260,26080
5381,60213,26012
5329,60168,25945
5275,60124,25877
5223,60084,25813
5176,60046,25754
5131,60011,25697
5087,59975,25639
5044,59940,25584
5001,59907,25532
4957,59873,25481
4913,59837,25427
4874,59805,25375
4839,59781,25331
4804,59758,25289
4768,59729,25243
4733,59699,25197
4703,59675,25155
4675,59654,25116
4647,59630,25077
4620,59605,25035
4595,59583,24995
4567,59558,24953
4530,59529,24905
4488,59496,24850
4443,59465,24795
4394,59434,24740
4342,59398,24682
4295,59360,24624
4252,59324,24567
4209,59286,24505
4165,59245,24440
4117,59202,24371
4064,59157,24298
4005,59106,24219
3942,59050,24135
3878,58995,24049
3811,58943,23959
3739,58888,23867
3667,58832,23776
3598,58779,23690
3529,58725,23602
3462,58672,23512
3403,58622,23426
3353,58580,23354
3311,58547,23300
3280,58529,23270
3275,58534,23277
3304,58572,23337
3378,58650,23463
3504,58771,23661
3691,58938,23937
3944,59158,24297
4257,59427,24735
4619,59732,25235
5016,60062,25773
5435,60411,26333
5858,60767,26894
6264,61112,27430
6644,61434,27929
6993,61732,28388
7304,61998,28802
7574,62225,29162
7802,62415,29465
7995,62574,29713
8157,62706,29915
8286,62807,30070
8381,62878,30178
8443,62923,30246
8482,62951,30285
8501,62966,30301
8501,62969,30293
8482,62958,30262
8453,62934,30213
8415,62900,30151
8368,62857,30080
8313,62802,30000
8255,62742,29913
8198,62684,29826
8142,62630,29745
8088,62579,29668
8039,62530,29594
7996,62488,29523
7956,62451,29461
7919,62415,29407
7885,62383,29359
7856,62353,29317
7832,62327,29280
7810,62305,29248
7787,62283,29214
7764,62260,29179
7740,62238,29143
7711,62212,29105
7678,62182,29062
7645,62150,29018
7614,62123,28976
7586,62102,28933
7558,62080,28893
7529,62059,28858
7507,62043,28834
7494,62034,28820
7492,62033,28815
7498,62036,28819
7509,62046,28832
7525,62063,28854
7547,62086,28884
7571,62112,28917
7596,62140,28951
7624,62169,28986
7655,62199,29022
7688,62226,29058
7721,62252,29091
7755,62279,29125
7790,62304,29160
7818,62326,29196
7840,62344,29234
7857,62357,29263
7868,62363,29276
7875,62365,29280
7873,62363,29278
7859,62354,29264
7836,62338,29238
7811,62321,29206
7785,62306,29168
7752,62283,29117
7712,62249,29057
7672,62211,28994
7630,62169,28928
7584,62121,28858
7532,62070,28785
7476,62019,28708
7417,61967,28624
7357,61912,28535
7295,61851,28443
7229,61789,28352
7164,61727,28262
7102,61668,28176
7044,61616,28095
6985,61569,28017
6923,61522,27936
6860,61474,27853
6803,61429,27774
6748,61385,27701
6694,61341,27631
6644,61298,27566
6598,61261,27509
6548,61230,27455
6492,61197,27396
6439,61163,27335
6396,61134,27280
6360,61109,27233
6325,61081,27188
6293,61050,27139
6266,61023,27093
6242,61000,27048
6215,60976,27003
6186,60948,26963
6162,60924,26931
6144,60905,26905
6127,60883,26878
6107,60858,26848
6085,60833,26816
6060,60812,26781
6031,60789,26744
6001,60765,26711
5974,60746,26682
5948,60729,26650
5919,60706,26614
5888,60680,26573
5855,60655,26529
5818,60629,26481
5780,60596,26428
5744,60564,26375
5707,60536,26329
5669,60509,26286
5627,60479,26240
5584,60446,26192
5540,60413,26142
5494,60378,26089
5447,60345,26033
5404,60312,25977
5360,60280,25920
5314,60246,25861
5269,60208,25798
5229,60174,25736
5197,60151,25685
5168,60134,25643
5145,60122,25615
5140,60125,25614
5162,60152,25653
5215,60209,25740
5307,60297,25883
5447,60425,26092
5636,60592,26363
5867,60792,26687
6131,61021,27055
6422,61274,27458
6730,61540,27875
7042,61806,28289
7347,62066,28692
7641,62314,29077
7913,62542,29431
8157,62746,29750
8375,62926,30038
8566,63084,30290
8727,63216,30501
8859,63326,30673
8966,63418,30814
9048,63490,30924
9111,63539,30999
9157,63569,31040
9188,63582,31055
9203,63582,31051
9202,63572,31032
9185,63550,30996
9157,63522,30946
9119,63491,30888
9073,63455,30825
9020,63413,30761
8964,63367,30693
8911,63325,30626
8861,63286,30562
8815,63247,30502
8775,63208,30449
8742,63176,30404
8716,63153,30367
8694,63131,30331
8672,63110,30294
8652,63094,30259
8635,63083,30225
8616,63068,30187
8590,63045,30141
8553,63012,30089
8511,62973,30034
8469,62933,29978
8426,62894,29923
8385,62858,29870
8349,62826,29819
8322,62797,29773
8298,62771,29733
8276,62747,29698
8259,62728,29670
8250,62716,29647
8249,62710,29633
8254,62708,29626
8261,62708,29622
8272,62710,29620
8286,62715,29622
8299,62722,29630
8310,62729,29642
8324,62734,29655
8346,62743,29672
8372,62758,29696
8399,62774,29724
8427,62792,29754
8453,62816,29789
8472,62842,29826
8485,62864,29859
8495,62881,29881
8505,62898,29896
8510,62915,29903
8508,62923,29897
8497,62919,29877
8479,62907,29848
8453,62886,29810
8421,62854,29762
8383,62815,29706
8341,62771,29646
8296,62723,29583
8248,62673,29515
8195,62623,29444
8137,62575,29371
8078,62525,29297
8021,62473,29218
7961,62420,29138
7899,62368,29062
7836,62316,28985
7776,62260,28907
7718,62207,28832
7658,62159,28760
7595,62111,28682
7531,62062,28598
7475,62016,28516
7424,61974,28443
7373,61931,28374
7323,61887,28308
7281,61849,28247
7243,61818,28191
7205,61787,28135
7165,61754,28083
7129,61726,28035
7099,61702,27992
7072,61681,27954
7049,61665,27922
7029,61651,27895
7008,61635,27865
6987,61614,27833
6966,61589,27797
6943,61564,27758
6921,61541,27719
6902,61519,27680
6886,61500,27647
6873,61486,27622
6859,61473,27598
6842,61459,27572
6823,61447,27552
6806,61441,27539
6786,61436,27524
6767,61428,27501
6753,61423,27478
6743,61419,27458
6727,61409,27431
6701,61386,27396
6672,61358,27358
6642,61331,27320
6609,61303,27276
6574,61272,27227
6540,61244,27180
6508,61217,27134
6474,61185,27086
6439,61146,27037
6402,61104,26982
6358,61061,26920
6310,61017,26851
6265,60976,26781
6219,60935,26712
6166,60892,26639
6110,60847,26564
6055,60805,26491
6002,60769,26426
5951,60738,26372
5912,60712,26331
5894,60700,26315
5907,60713,26342
5955,60758,26425
6043,60837,26565
6177,60954,26764
6359,61114,27026
6582,61313,27342
6838,61544,27699
7123,61798,28086
7425,62065,28487
7732,62335,28891
8033,62599,29289
8324,62849,29670
8594,63083,30027
8840,63297,30356
9063,63490,30653
9264,63659,30919
9442,63805,31154
9593,63926,31350
9717,64023,31510
9817,64104,31638
9897,64171,31738
9953,64214,31810
9988,64235,31855
10007,64243,31880
10012,64243,31889
10002,64234,31878
9981,64215,31849
9956,64193,31808
9931,64169,31759
9904,64140,31704
9875,64106,31648
9843,64071,31599
9809,64038,31554
9776,64006,31510
9751,63980,31469
9729,63959,31432
9706,63941,31399
9688,63925,31369
9681,63915,31345
9680,63906,31324
9678,63898,31305
9677,63890,31288
9675,63881,31272
9670,63869,31256
9656,63851,31237
9634,63828,31210
9612,63804,31178
9591,63783,31147
9566,63761,31114
9535,63729,31071
9499,63693,31021
9465,63665,30973
9433,63642,30931
9400,63617,30892
9367,63592,30853
9339,63569,30821
9317,63551,30797
9298,63536,30781
9284,63522,30770
9281,63514,30766
9287,63516,30768
9301,63522,30775
9316,63528,30784
9331,63537,30797
9349,63552,30817
9368,63568,30836
9383,63582,30853
9396,63594,30866
9407,63606,30876
9417,63620,30885
9421,63631,30895
9419,63636,30901
9410,63634,30894
9396,63627,30875
9383,63617,30848
9370,63603,30817
9349,63580,30779
9318,63549,30731
9285,63516,30683
9252,63484,30638
9216,63449,30588
9174,63407,30532
9129,63362,30469
9081,63315,30401
9027,63264,30327
8967,63207,30248
8903,63149,30168
8838,63094,30088
8772,63037,30005
8707,62980,29921
8646,62926,29839
8588,62877,29758
8536,62831,29680
8488,62784,29606
8440,62737,29535
8392,62690,29463
8346,62644,29391
8300,62602,29321
8251,62562,29255
8199,62521,29188
8147,62480,29121
8097,62442,29060
8049,62406,29005
8001,62368,28948
7957,62328,28889
7919,62294,28837
7882,62264,28793
7843,62232,28747
7806,62197,28699
7776,62170,28658
7750,62151,28624
7722,62132,28592
7690,62109,28557
7661,62090,28521
7635,62076,28488
7609,62061,28456
7582,62042,28423
7557,62025,28389
7534,62007,28356
7509,61984,28320
7482,61958,28282
7457,61932,28244
7433,61908,28208
7407,61883,28171
7379,61860,28134
7349,61836,28096
7315,61806,28053
7278,61772,28003
7239,61737,27953
7198,61705,27905
7156,61673,27854
7112,61635,27797
7066,61595,27738
7021,61560,27684
6977,61525,27631
6930,61486,27569
6883,61444,27501
6837,61405,27436
6791,61365,27371
6739,61319,27301
6682,61269,27226
6623,61220,27148
6561,61173,27071
6497,61123,26994
6430,61066,26917
6361,61011,26840
6300,60966,26772
6254,60933,26719
6224,60914,26688
6220,60919,26692
6254,60957,26746
6335,61034,26861
6465,61153,27048
6643,61314,27306
6866,61513,27623
7127,61741,27987
7414,61991,28384
7718,62252,28799
8029,62513,29218
8338,62769,29628
8637,63019,30022
8916,63255,30393
9169,63468,30729
9393,63651,31024
9587,63808,31278
9751,63941,31491
9885,64049,31667
9991,64134,31808
10071,64201,31916
10127,64249,31995
10165,64275,32046
10190,64285,32073
10200,64281,32077
10191,64263,32059
10167,64236,32024
10139,64204,31982
10106,64171,31934
10069,64135,31876
10032,64098,31805
9996,64064,31731
9959,64032,31661
9918,63997,31594
9880,63961,31533
9849,63930,31483
9824,63908,31447
9801,63887,31416
9780,63863,31387
9768,63844,31367
9760,63834,31354
9751,63824,31343
9742,63811,31332
9730,63797,31320
9714,63780,31301
9689,63755,31269
9661,63727,31224
9634,63698,31175
9605,63669,31123
9572,63636,31071
9541,63605,31024
9513,63578,30982
9487,63552,30942
9463,63528,30904
9444,63512,30876
9433,63503,30857
9425,63497,30844
9418,63492,30835
9416,63492,30834
9422,63498,30842
9436,63511,30857
9454,63527,30876
9477,63545,30900
9503,63567,30928
9532,63594,30959
9561,63621,30987
9590,63645,31015
9619,63668,31045
9643,63688,31070
9663,63702,31088
9681,63713,31102
9699,63726,31118
9713,63738,31131
9721,63744,31137
9726,63747,31138
9729,63747,31135
9722,63740,31122
9705,63724,31097
9686,63705,31065
9666,63684,31027
9640,63660,30984
9609,63632,30936
9577,63605,30885
9541,63580,30830
9501,63554,30774
9463,63525,30718
9423,63491,30661
9375,63451,30602
9326,63409,30541
9281,63369,30484
9237,63331,30428
9187,63291,30369
9138,63250,30308
9097,63211,30246
9056,63174,30185
9012,63134,30125
8970,63090,30065
8936,63048,30008
8904,63014,29959
8871,62985,29915
8836,62957,29869
8804,62929,29823
8773,62905,29781
8740,62883,29739
8704,62859,29697
8671,62835,29657
8643,62816,29622
8620,62798,29593
8595,62777,29563
8569,62751,29529
8543,62727,29494
8518,62704,29458
8492,62679,29420
8465,62654,29384
8442,62634,29354
8424,62617,29326
8406,62599,29295
8384,62579,29261
8357,62558,29223
8326,62538,29184
8297,62517,29147
8267,62494,29109
8237,62470,29068
8208,62445,29026
8179,62418,28982
8146,62387,28938
8106,62351,28892
8066,62314,28844
8029,62279,28795
7989,62244,28746
7942,62208,28698
7893,62170,28647
7846,62130,28590
7799,62094,28535
7752,62063,28485
7701,62029,28430
7651,61992,28371
7606,61959,28314
7568,61933,28263
7539,61914,28225
7527,61910,28214
7542,61927,28238
7587,61970,28304
7665,62042,28420
7781,62144,28589
7938,62281,28809
8131,62449,29073
8350,62638,29374
8587,62843,29702
8836,63057,30043
9089,63276,30385
9341,63494,30719
9583,63702,31039
9811,63898,31338
10021,64079,31613
10206,64242,31862
10364,64383,32082
10500,64506,32273
10618,64611,32433
10718,64696,32557
10794,64758,32649
10848,64801,32713
10886,64827,32752
10908,64835,32767
10910,64825,32761
10895,64801,32739
10875,64773,32706
10852,64745,32664
10821,64714,32615
10782,64680,32557
10743,64642,32494
10706,64602,32427
10665,64562,32363
10621,64521,32305
10579,64481,32250
10547,64448,32201
10523,64425,32163
10501,64407,32130
10477,64385,32094
10452,64358,32054
10426,64330,32016
10402,64303,31981
10378,64278,31944
10354,64255,31905
10327,64234,31864
10294,64209,31821
10256,64178,31770
10218,64142,31716
10183,64109,31668
10153,64080,31626
10125,64052,31582
10100,64025,31540
10081,64005,31506
10068,63992,31481
10059,63981,31464
10053,63975,31453
10052,63973,31452
10059,63977,31460
10069,63985,31473
10083,63993,31488
10100,64002,31506
10122,64016,31531
10146,64035,31558
10168,64053,31582
10187,64072,31609
10208,64091,31635
10230,64106,31658
10245,64114,31675
10250,64118,31683
10248,64117,31681
10246,64113,31673
10242,64107,31663
10231,64098,31652
10217,64084,31634
10201,64067,31612
10180,64050,31587
10153,64029,31559
10122,64000,31518
10087,63967,31462
10052,63934,31399
10012,63897,31331
9964,63851,31253
9906,63800,31169
9847,63749,31088
9787,63701,31011
9728,63652,30937
9669,63598,30861
9608,63543,30788
9548,63488,30713
9492,63437,30636
9440,63389,30559
9387,63342,30484
9331,63298,30412
9277,63255,30344
9227,63215,30279
9179,63174,30215
9129,63138,30152
9082,63105,30092
9040,63074,30037
8999,63047,29987
8956,63020,29934
8915,62991,29879
8875,62961,29827
8835,62931,29779
8796,62896,29731
8758,62860,29683
8728,62828,29642
8702,62803,29605
8676,62775,29564
8648,62736,29518
8621,62700,29477
8596,62673,29443
8570,62650,29408
8543,62628,29370
8518,62611,29337
8495,62598,29307
8469,62579,29273
8440,62555,29235
8413,62536,29198
8388,62519,29163
8361,62497,29127
8336,62472,29089
8311,62444,29049
8285,62415,29008
8256,62383,28964
8223,62347,28920
8186,62313,28871
8146,62281,28815
8104,62246,28755
8064,62213,28694
8026,62182,28631
7984,62148,28566
7937,62108,28499
7892,62067,28438
7850,62030,28384
7807,61993,28330
7763,61953,28271
7723,61914,28210
7683,61879,28151
7637,61841,28093
7589,61801,28039
7551,61768,27997
7532,61753,27979
7538,61761,27991
7575,61793,28045
7651,61857,28151
7772,61959,28316
7934,62098,28542
8135,62271,28824
8368,62472,29151
8622,62695,29509
8891,62934,29883
9168,63179,30261
9441,63421,30634
9701,63656,30993
9943,63877,31334
10169,64084,31655
10374,64273,31950
10555,64439,32213
10715,64581,32443
10861,64705,32640
10989,64813,32806
11092,64903,32938
11171,64973,33035
11231,65024,33104
11273,65056,33150
11294,65070,33172
11299,65068,33169
11296,65055,33146
11289,65036,33115
11274,65012,33079
11251,64983,33033
11221,64950,32982
11190,64914,32934
11156,64877,32890
11120,64839,32843
11087,64806,32798
11064,64788,32764
11052,64782,32741
11045,64780,32727
11039,64779,32721
11037,64781,32721
11039,64786,32725
11045,64788,32729
11046,64786,32730
11037,64778,32725
11023,64765,32713
11008,64746,32689
10988,64718,32652
10962,64685,32608
10934,64650,32559
10909,64619,32510
10886,64593,32460
10861,64575,32413
10836,64560,32370
10812,64545,32333
10792,64529,32306
10776,64516,32287
10761,64505,32272
10749,64496,32258
10744,64492,32252
10746,64494,32252
10756,64502,32259
10772,64513,32272
10793,64529,32292
10816,64546,32315
10836,64562,32338
10855,64576,32358
10872,64588,32377
10886,64598,32391
10897,64606,32400
10910,64614,32407
10920,64622,32418
10922,64624,32424
10915,64619,32420
10904,64612,32410
10891,64605,32399
10873,64595,32380
10850,64577,32348
10825,64553,32309
10797,64528,32266
10764,64499,32219
10725,64464,32165
10680,64425,32103
10635,64385,32038
10593,64347,31973
10550,64307,31905
10503,64261,31830
10449,64209,31750
10395,64156,31671
10343,64099,31592
10285,64036,31514
10220,63973,31435
10157,63914,31356
10101,63859,31278
10048,63804,31200
9993,63750,31126
9938,63693,31055
9884,63639,30985
9835,63594,30921
9788,63557,30859
9740,63520,30794
9688,63479,30729
9638,63439,30669
9592,63402,30609
9550,63365,30551
9511,63326,30498
9477,63288,30447
9444,63256,30398
9412,63225,30350
9383,63195,30307
9354,63168,30272
9326,63142,30239
9300,63114,30203
9277,63087,30165
9256,63064,30129
9234,63045,30097
9205,63025,30064
9174,63007,30031
9149,62995,30001
9129,62984,29973
9105,62968,29944
9078,62944,29909
9051,62918,29874
9030,62896,29843
9012,62877,29813
8989,62855,29779
8959,62834,29741
8927,62815,29705
8898,62792,29666
8866,62764,29626
8828,62730,29583
8787,62690,29534
8743,62645,29476
8700,62603,29415
8656,62565,29353
8608,62527,29286
8556,62486,29212
8504,62444,29139
8450,62401,29070
8395,62353,29001
8339,62304,28931
8289,62260,28864
8242,62218,28799
8196,62175,28734
8148,62132,28667
8101,62097,28603
8059,62068,28544
8020,62042,28493
7989,62023,28459
7975,62020,28455
7989,62040,28489
8038,62089,28568
8128,62173,28702
8261,62292,28896
8437,62445,29145
8652,62628,29440
8897,62837,29776
9160,63064,30138
9432,63301,30513
9709,63541,30890
9983,63780,31262
10244,64013,31620
10481,64228,31952
10697,64423,32249
10897,64601,32518
11076,64764,32760
11228,64904,32968
11354,65021,33138
11458,65118,33278
11538,65196,33393
11596,65253,33476
11638,65289,33526
11673,65315,33556
11703,65337,33576
11719,65349,33579
11720,65347,33566
11717,65338,33543
11710,65322,33514
11695,65299,33477
11673,65270,33435
11655,65247,33400
11643,65235,33372
11633,65227,33346
11623,65218,33322
11618,65211,33309
11619,65206,33303
11623,65201,33302
11631,65199,33304
11642,65202,33310
11650,65204,33318
11651,65201,33317
11648,65195,33307
11641,65187,33291
11629,65173,33268
11614,65152,33236
11599,65127,33200
11583,65102,33164
11562,65077,33125
11537,65049,33081
11511,65020,33037
11487,64993,32997
11464,64966,32959
11445,64941,32926
11433,64927,32903
11431,64924,32888
11430,64924,32875
11427,64923,32864
11429,64926,32860
11436,64933,32865
11442,64939,32875
11449,64941,32886
11464,64945,32900
11485,64954,32919
11503,64962,32937
11519,64965,32954
11535,64970,32972
11553,64977,32991
11569,64984,33009
11585,64991,33026
11598,65000,33039
11603,65004,33041
11597,65000,33034
11588,64990,33022
11579,64976,33003
11562,64956,32973
11538,64929,32930
11510,64900,32880
11478,64868,32825
11440,64829,32762
11396,64783,32691
11350,64737,32615
11300,64689,32540
11246,64637,32463
11190,64578,32381
11135,64516,32299
11082,64459,32223
11029,64409,32152
10974,64361,32082
10921,64318,32015
10873,64279,31955
10826,64240,31901
10777,64196,31845
10729,64149,31785
10686,64106,31728
10648,64069,31674
10610,64035,31622
10574,64003,31566
10540,63977,31511
10509,63953,31460
10476,63928,31414
10442,63899,31370
10409,63871,31330
10380,63849,31295
10355,63829,31261
10333,63809,31231
10312,63791,31204
10294,63777,31181
10285,63765,31164
10279,63754,31152
10272,63744,31141
10265,63736,31129
10262,63732,31117
10257,63729,31107
10243,63720,31091
10226,63706,31069
10212,63693,31047
10197,63686,31029
10180,63678,31011
10161,63665,30988
10143,63647,30961
10123,63625,30932
10097,63601,30901
10065,63572,30860
10029,63537,30814
9992,63503,30768
9955,63468,30721
9915,63428,30669
9872,63387,30611
9829,63349,30555
9785,63312,30500
9738,63270,30439
9689,63227,30374
9640,63188,30311
9596,63151,30250
9553,63110,30188
9511,63065,30124
9472,63023,30060
9432,62984,29999
9389,62946,29942
9343,62909,29886
9300,62875,29834
9267,62852,29795
9247,62838,29772
9240,62836,29769
9253,62854,29795
9297,62900,29864
9378,62976,29983
9494,63082,30152
9641,63215,30365
9817,63373,30613
10016,63552,30887
10225,63742,31176
10433,63933,31473
10640,64120,31769
10847,64304,32058
11051,64485,32335
11241,64652,32595
11413,64801,32829
11569,64933,33036
11707,65050,33219
11825,65149,33378
11919,65226,33508
11992,65284,33607
12050,65329,33681
12091,65359,33731
12115,65373,33756
12124,65373,33760
12125,65366,33748
12121,65356,33726
12112,65338,33692
12101,65314,33649
12085,65287,33603
12064,65259,33557
12037,65230,33510
12010,65201,33465
11985,65177,33425
11963,65158,33389
11945,65139,33357
11927,65120,33328
11908,65101,33302
11894,65085,33280
11883,65071,33260
11870,65057,33239
11858,65044,33218
11851,65032,33194
11848,65021,33165
11838,65002,33132
11816,64976,33095
11793,64947,33052
11773,64916,33004
11751,64883,32952
11721,64847,32901
11689,64813,32852
11663,64783,32811
11641,64758,32781
11620,64737,32756
11603,64718,32731
11592,64702,32710
11585,64692,32698
11584,64691,32692
11585,64692,32688
11591,64692,32686
11602,64698,32691
11616,64707,32701
11628,64714,32709
11640,64718,32716
11654,64726,32726
11670,64739,32739
11686,64753,32750
11699,64768,32759
11711,64783,32769
11719,64796,32776
11720,64801,32776
11717,64799,32768
11710,64793,32758
11702,64784,32748
11690,64770,32730
11676,64750,32700
11659,64730,32663
11641,64708,32625
11619,64678,32582
11592,64642,32532
11560,64602,32478
11525,64561,32421
11486,64516,32360
11442,64467,32293
11392,64419,32222
11343,64374,32155
11298,64330,32093
11252,64283,32032
11202,64235,31969
11154,64191,31906
11112,64153,31847
11072,64119,31790
11028,64083,31729
10985,64046,31665
10949,64013,31604
10916,63984,31547
10879,63957,31494
10842,63928,31438
10807,63896,31381
10773,63865,31327
10735,63835,31277
10698,63802,31228
10663,63764,31179
10632,63729,31137
10604,63697,31101
10575,63665,31064
10545,63636,31027
10519,63610,30994
10498,63587,30961
10475,63560,30922
10453,63533,30881
10435,63514,30846
10422,63503,30818
10408,63490,30790
10394,63473,30759
10380,63458,30728
10363,63444,30698
10343,63427,30666
10320,63407,30631
10298,63387,30597
10276,63368,30563
10251,63345,30526
10219,63317,30485
10185,63287,30444
10155,63258,30405
10132,63233,30365
10107,63206,30323
10077,63178,30280
10046,63148,30237
10013,63116,30192
9975,63080,30142
9932,63039,30088
9886,62999,30033
9843,62963,29981
9804,62929,29934
9764,62896,29887
9721,62861,29834
9681,62826,29778
9643,62794,29721
9603,62762,29664
9561,62726,29604
9521,62688,29544
9485,62652,29487
9449,62617,29428
9413,62580,29366
9378,62541,29304
9343,62506,29249
9307,62476,29203
9273,62448,29168
9249,62429,29147
9246,62426,29146
9266,62444,29174
9309,62484,29236
9381,62551,29340
9487,62649,29492
9625,62775,29686
9787,62918,29911
9967,63075,30156
10161,63242,30415
10359,63416,30679
10556,63587,30945
10747,63752,31205
10933,63914,31456
11110,64069,31694
11273,64210,31912
11418,64336,32106
11545,64448,32275
11652,64543,32418
11740,64617,32537
11813,64677,32631
11871,64724,32699
11913,64759,32746
11939,64783,32776
11954,64798,32792
11958,64801,32791
11951,64789,32775
11942,64767,32748
11934,64746,32720
11925,64728,32690
11912,64708,32657
11897,64690,32625
11880,64672,32596
11863,64650,32566
11846,64626,32533
11833,64602,32501
11819,64583,32473
11806,64569,32449
11798,64556,32428
11797,64545,32413
11797,64535,32403
11795,64524,32394
11790,64512,32383
11782,64503,32372
11771,64495,32360
11758,64484,32341
11744,64465,32311
11729,64443,32277
11713,64421,32245
11692,64396,32213
11670,64370,32176
11653,64349,32138
11638,64332,32101
11619,64310,32061
11604,64282,32018
11595,64258,31979
11591,64242,31947
11584,64229,31921
11578,64217,31899
11579,64212,31887
11585,64212,31883
11588,64213,31883
11587,64214,31886
11590,64220,31896
11598,64232,31909
11606,64242,31918
11615,64248,31925
11629,64257,31933
11645,64266,31943
11654,64270,31951
11657,64270,31958
11659,64271,31962
11660,64273,31964
11658,64268,31959
11653,64260,31947
11645,64251,31927
11629,64237,31899
11604,64214,31862
11574,64186,31820
11541,64159,31775
11508,64130,31727
11474,64099,31671
11441,64065,31612
11408,64029,31555
11372,63989,31496
11332,63943,31433
11290,63898,31369
11250,63860,31310
11209,63823,31250
11169,63783,31187
11129,63745,31126
11085,63711,31069
11033,63676,31015
10981,63636,30957
10934,63598,30899
10896,63562,30846
10860,63525,30793
10826,63486,30738
10792,63447,30684
10760,63412,30634
10726,63378,30584
10689,63343,30534
10654,63308,30483
10620,63277,30429
10585,63249,30375
10552,63223,30325
10523,63199,30280
10494,63171,30237
10463,63138,30192
10435,63108,30148
10406,63081,30106
10372,63053,30065
10338,63023,30022
10307,62996,29981
10278,62973,29944
10246,62953,29912
10217,62930,29879
10193,62907,29845
10170,62886,29812
10148,62864,29778
10126,62841,29742
10104,62817,29706
10080,62794,29673
10055,62773,29639
10027,62752,29598
9998,62728,29553
9968,62707,29513
9937,62686,29475
9904,62659,29433
9871,62627,29386
9841,62598,29340
9808,62570,29294
9770,62538,29243
9726,62501,29189
9681,62462,29134
9638,62424,29080
9595,62385,29024
9549,62343,28966
9502,62297,28905
9453,62251,28841
9403,62202,28774
9351,62151,28701
9293,62100,28626
9235,62051,28550
9181,62003,28472
9127,61953,28395
9070,61904,28319
9010,61854,28239
8952,61802,28159
8897,61754,28086
8845,61711,28019
8792,61668,27954
8743,61628,27892
8705,61599,27842
8678,61584,27809
8664,61579,27796
8669,61589,27812
8701,61622,27867
8765,61680,27964
8859,61762,28100
8979,61865,28269
9126,61993,28473
9293,62142,28706
9474,62304,28959
9663,62472,29222
9851,62639,29486
10033,62797,29739
10204,62942,29976
10364,63076,30196
10507,63202,30396
10634,63314,30575
10744,63412,30733
10839,63497,30870
10918,63568,30982
10980,63621,31064
11029,63659,31121
11069,63683,31160
11094,63693,31182
11100,63689,31184
11093,63673,31167
11077,63651,31136
11052,63623,31094
11017,63589,31040
10977,63550,30977
10939,63512,30915
10904,63480,30860
10870,63447,30807
10836,63412,30755
10806,63382,30708
10779,63356,30667
10752,63328,30626
10727,63302,30586
10711,63284,30557
10702,63272,30540
10696,63258,30527
10692,63246,30513
10690,63238,30501
10686,63231,30486
10677,63220,30467
10667,63205,30443
10654,63185,30414
10634,63161,30381
10604,63129,30343
10567,63093,30302
10526,63057,30259
10480,63022,30214
10436,62986,30166
10399,62955,30118
10368,62930,30075
10343,62909,30034
10324,62888,29993
10308,62871,29955
10296,62859,29924
10285,62849,29898
10277,62843,29879
10276,62843,29869
10280,62852,29871
10284,62859,29879
10285,62862,29885
10289,62863,29892
10296,62867,29901
10303,62872,29913
10309,62874,29921
10315,62875,29924
10320,62876,29923
10317,62871,29917
10308,62858,29904
10296,62840,29886
10279,62821,29862
10257,62800,29829
10231,62779,29789
10203,62760,29746
10171,62739,29701
10136,62712,29653
10100,62679,29604
10066,62642,29554
10029,62601,29500
9986,62557,29441
9941,62513,29379
9891,62466,29315
9833,62415,29248
9772,62363,29180
9714,62311,29114
9659,62263,29050
9606,62215,28986
9553,62167,28919
9503,62122,28853
9456,62082,28787
9407,62042,28720
9357,62000,28651
9309,61961,28583
9262,61926,28519
9215,61894,28457
9168,61858,28391
9124,61821,28328
9081,61788,28272
9040,61755,28221
9001,61718,28166
8967,61683,28113
8940,61653,28065
8913,61623,28020
8884,61592,27975
8853,61562,27932
8822,61533,27891
8791,61505,27851
8758,61473,27811
8722,61438,27765
8684,61403,27716
8646,61372,27668
8610,61347,27625
8573,61323,27586
8533,61298,27544
8495,61272,27500
8462,61248,27460
8434,61226,27421
8406,61202,27377
8378,61177,27331
8355,61154,27287
8330,61133,27249
8298,61109,27210
8262,61082,27169
8228,61050,27125
8192,61016,27080
8154,60980,27031
8117,60942,26976
8082,60904,26922
8047,60871,26872
8012,60843,26826
7973,60812,26776
7931,60782,26722
7890,60756,26670
7846,60729,26617
7800,60696,26557
7751,60658,26492
7706,60622,26430
7662,60589,26372
7613,60550,26308
7558,60506,26240
7503,60463,26174
7449,60419,26110
7399,60371,26048
7356,60326,25991
7320,60293,25943
7292,60270,25908
7273,60255,25886
7263,60249,25879
7270,60258,25896
7299,60287,25942
7354,60339,26024
7434,60414,26145
7541,60513,26304
7677,60635,26497
7837,60777,26714
8006,60931,26948
8176,61091,27191
8348,61249,27434
8524,61402,27673
8696,61547,27901
8857,61681,28114
9002,61801,28306
9129,61906,28475
9241,61997,28624
9337,62073,28753
9413,62133,28859
9471,62178,28944
9514,62213,29009
9544,62239,29054
9561,62252,29077
9565,62254,29082
9557,62248,29070
9538,62235,29042
9512,62214,29000
9479,62186,28950
9444,62155,28896
9407,62119,28838
9373,62082,28779
9344,62051,28726
9317,62026,28678
9287,61999,28629
9254,61969,28581
9222,61943,28539
9192,61920,28502
9164,61898,28469
9141,61876,28437
9127,61856,28411
9115,61839,28386
9097,61818,28351
9072,61793,28308
9045,61770,28268
9015,61750,28232
8979,61724,28193
8941,61693,28149
8908,61665,28107
8878,61643,28067
8845,61620,28025
8812,61594,27983
8787,61572,27949
8767,61555,27924
8747,61540,27902
8730,61527,27883
8723,61522,27871
8721,61523,27862
8719,61525,27853
8718,61527,27847
8720,61531,27850
8725,61536,27858
8733,61541,27869
8744,61546,27883
8753,61553,27899
8758,61561,27914
8763,61567,27925
8770,61573,27936
8776,61580,27947
8778,61585,27953
8778,61585,27952
8777,61582,27944
8774,61576,27933
8766,61566,27917
8754,61552,27895
8740,61537,27870
8722,61523,27842
8696,61502,27805
8663,61470,27756
8626,61433,27698
8587,61397,27638
8542,61359,27576
8489,61317,27511
8434,61273,27444
8383,61231,27377
8336,61194,27309
8290,61156,27243
8241,61116,27175
8191,61075,27106
8144,61036,27038
8102,60996,26974
8059,60955,26914
8012,60914,26855
7967,60873,26797
7926,60834,26744
7886,60797,26695
7844,60762,26647
7801,60728,26597
7761,60692,26543
7722,60662,26486
7683,60636,26428
7643,60607,26369
7604,60573,26313
7568,60537,26263
7534,60506,26218
7500,60476,26176
7468,60447,26136
7439,60422,26099
7414,60400,26065
7387,60377,26033
7361,60354,26003
7336,60333,25973
7309,60312,25941
7281,60287,25903
7253,60263,25863
7222,60241,25824
7191,60219,25785
7162,60196,25749
7133,60174,25714
7103,60155,25677
7073,60140,25644
7042,60123,25611
7007,60101,25574
6970,60078,25534
6938,60057,25496
6912,60038,25458
6886,60014,25418
6857,59983,25373
6826,59950,25323
6794,59917,25270
6757,59881,25212
6716,59845,25149
6677,59807,25087
6641,59769,25029
6603,59731,24976
6559,59691,24924
6513,59651,24869
6468,59613,24812
6427,59580,24756
6388,59550,24707
6350,59518,24657
6311,59485,24606
6275,59456,24555
6241,59432,24508
6207,59407,24462
6177,59385,24424
6156,59373,24402
6150,59374,24400
6162,59392,24425
6195,59429,24484
6254,59487,24583
6340,59568,24720
6456,59672,24893
6599,59798,25100
6762,59940,25332
6937,60094,25581
7118,60256,25839
7306,60425,26099
7496,60595,26356
7677,60754,26601
7843,60895,26829
7995,61020,27038
8133,61134,27227
8251,61234,27392
8348,61317,27530
8427,61384,27643
8491,61438,27730
8536,61476,27792
8563,61497,27831
8576,61505,27851
8580,61505,27856
8578,61501,27852
8569,61491,27837
8548,61471,27809
8516,61440,27766
8476,61405,27715
8437,61368,27664
8397,61327,27613
8353,61281,27559
8308,61237,27503
8272,61201,27450
8242,61174,27399
8212,61150,27351
8184,61125,27303
8166,61105,27260
8153,61092,27226
8139,61084,27198
8121,61073,27168
8100,61059,27138
8079,61045,27109
8060,61030,27079
8037,61008,27044
8008,60980,27003
7975,60951,26961
7942,60921,26919
7910,60890,26878
7882,60863,26839
7855,60843,26805
7826,60824,26766
7799,60801,26724
7776,60783,26688
7755,60770,26659
7738,60758,26631
7727,60750,26605
7725,60748,26590
7730,60750,26585
7731,60748,26585
7727,60742,26588
7729,60735,26598
7739,60735,26615
7750,60735,26631
7760,60732,26643
7775,60734,26660
7789,60743,26680
7797,60751,26696
7797,60757,26706
7798,60766,26714
7798,60777,26717
7794,60781,26708
7787,60781,26692
7779,60779,26675
7764,60771,26653
7738,60755,26624
7708,60732,26592
7679,60707,26555
7649,60678,26511
7615,60645,26460
7575,60611,26406
7531,60577,26351
7482,60540,26294
7431,60500,26232
7382,60461,26168
7332,60423,26102
7277,60379,26034
7218,60328,25963
7160,60277,25892
7106,60233,25829
7060,60197,25769
7015,60161,25708
6974,60126,25646
6935,60094,25589
6894,60062,25533
6850,60027,25479
6804,59992,25426
6759,59961,25374
6718,59934,25320
6679,59906,25264
6637,59876,25205
6596,59843,25147
6558,59807,25091
6524,59770,25037
6490,59733,24984
6454,59701,24934
6416,59671,24885
6380,59640,24835
6345,59611,24789
6308,59584,24748
6266,59555,24703
6224,59521,24654
6182,59490,24608
6142,59466,24568
6103,59444,24528
6068,59425,24487
6039,59411,24449
6016,59401,24418
5992,59385,24390
5964,59364,24360
5939,59342,24332
5920,59324,24305
5904,59306,24275
5887,59285,24243
5863,59260,24212
5831,59232,24180
5796,59202,24142
5760,59172,24102
5724,59141,24060
5687,59109,24013
5647,59071,23956
5605,59030,23890
5563,58994,23826
5519,58959,23765
5469,58922,23702
5420,58883,23636
5374,58845,23571
5330,58806,23507
5284,58762,23441
5234,58716,23375
5186,58673,23310
5139,58632,23245
5093,58591,23181
5044,58552,23123
4994,58518,23072
4945,58486,23024
4901,58455,22981
4869,58431,22949
4852,58420,22939
4852,58426,22953
4873,58453,22999
4928,58511,23091
5021,58601,23232
5147,58715,23411
5300,58849,23624
5481,59008,23871
5682,59185,24144
5894,59369,24437
6111,59557,24740
6326,59746,25041
6535,59926,25327
6735,60093,25597
6922,60249,25849
7091,60392,26081
7239,60522,26290
7365,60635,26469
7471,60727,26616
7559,60801,26736
7628,60858,26829
7679,60897,26896
7711,60924,26937
7729,60942,26959
7733,60947,26963
7719,60933,26950
7692,60907,26920
7658,60874,26880
7619,60840,26831
7576,60803,26774
7531,60762,26708
7486,60719,26638
7439,60677,26569
7391,60634,26501
7340,60593,26437
7290,60556,26376
7244,60522,26319
7205,60495,26269
7174,60473,26226
7147,60457,26191
7121,60439,26158
7092,60415,26119
7063,60392,26083
7033,60369,26050
7000,60341,26013
6964,60306,25968
6928,60272,25921
6896,60244,25875
6862,60217,25830
6829,60191,25788
6798,60167,25752
6769,60146,25717
6741,60124,25682
6715,60106,25651
6695,60095,25627
6678,60088,25605
6664,60078,25587
6654,60067,25577
6648,60062,25574
6643,60060,25577
6642,60062,25585
6648,60068,25596
6658,60080,25612
6670,60091,25627
6681,60094,25632
6690,60094,25632
6698,60096,25635
6706,60102,25640
6713,60107,25643
6718,60112,25642
6724,60119,25641
6721,60121,25636
6707,60113,25623
6685,60097,25602
6661,60078,25573
6637,60056,25538
6611,60025,25496
6578,59985,25446
6533,59942,25387
6483,59899,25324
6432,59855,25258
6378,59805,25189
6320,59752,25116
6260,59701,25043
6200,59654,24970
6137,59609,24901
6070,59563,24833
6003,59515,24764
5941,59468,24694
5883,59424,24624
5828,59383,24556
5774,59339,24483
5722,59292,24407
5674,59248,24338
5628,59209,24277
5580,59170,24214
5532,59127,24145
5488,59087,24077
5443,59052,24013
5395,59015,23950
5345,58974,23887
5295,58935,23826
5245,58895,23765
5197,58854,23703
5150,58815,23642
5104,58779,23584
5060,58745,23529
5017,58713,23476
4982,58685,23429
4950,58662,23386
4918,58639,23345
4887,58615,23307
4859,58592,23272
4832,58571,23238
4803,58549,23202
4778,58527,23163
4755,58505,23126
4730,58485,23089
4697,58460,23045
4662,58428,22996
4631,58394,22951
4599,58362,22911
4560,58329,22868
4516,58290,22820
4479,58253,22775
4449,58224,22735
4417,58195,22691
4377,58162,22643
4337,58131,22597
4301,58105,22551
4263,58076,22498
4224,58043,22439
4187,58016,22383
4148,57993,22329
4100,57962,22271
4048,57922,22207
4001,57882,22145
3962,57842,22085
3919,57802,22023
3873,57761,21962
3828,57724,21901
3785,57693,21842
3745,57665,21791
3715,57645,21757
3702,57640,21748
3714,57654,21772
3753,57692,21837
3824,57762,21953
3931,57866,22121
4074,57999,22336
4253,58159,22592
4462,58339,22884
4691,58534,23199
4930,58738,23526
5173,58944,23855
5409,59147,24175
5631,59343,24477
5837,59524,24755
6025,59683,25006
6188,59821,25229
6328,59942,25423
6448,60044,25586
6548,60124,25719
6624,60183,25823
6678,60226,25899
6716,60258,25951
6740,60278,25981
6745,60280,25988
6731,60265,25971
6705,60238,25936
6670,60204,25888
6629,60165,25832
6581,60123,25768
6527,60078,25698
6476,60032,25624
6426,59987,25547
6372,59941,25467
6314,59894,25387
6262,59847,25311
6213,59803,25244
6161,59762,25181
6109,59723,25119
6063,59686,25060
6023,59651,25005
5982,59617,24950
5937,59581,24892
5892,59544,24835
5849,59510,24785
5806,59479,24737
5761,59445,24684
5718,59408,24629
5679,59375,24581
5644,59345,24538
5610,59316,24494
5585,59294,24454
5570,59282,24425
5563,59278,24408
5557,59276,24398
5556,59280,24395
5561,59293,24402
5569,59311,24413
5579,59327,24427
5593,59345,24445
5610,59362,24466
5631,59379,24491
5655,59395,24518
5681,59411,24543
5704,59428,24566
5724,59441,24590
5743,59453,24615
5760,59468,24639
5774,59482,24659
5786,59495,24673
5798,59505,24682
5807,59512,24683
5810,59511,24673
5803,59502,24656
5790,59489,24636
5770,59472,24613
5741,59450,24581
5702,59420,24538
5660,59384,24488
5617,59343,24434
5571,59299,24376
5520,59251,24314
5468,59203,24250
5417,59162,24188
5366,59126,24125
5316,59091,24059
5267,59057,23993
5219,59026,23929
5170,58990,23861
5116,58944,23786
5064,58896,23709
5013,58853,23636
4962,58813,23565
4907,58770,23492
4855,58726,23416
4805,58684,23344
4753,58642,23275
4697,58597,23206
4644,58555,23144
4597,58521,23092
4550,58490,23044
4502,58456,22996
4456,58419,22949
4414,58383,22904
4377,58355,22864
4346,58335,22833
4321,58317,22805
4297,58298,22774
4271,58277,22738
4244,58255,22704
4214,58236,22670
4182,58219,22636
4151,58201,22599
4127,58184,22562
4105,58169,22526
4079,58151,22487
4052,58129,22443
4026,58104,22395
4003,58081,22349
3977,58058,22307
3950,58032,22271
3928,58006,22237
3907,57985,22204
3882,57966,22170
3853,57945,22131
3821,57919,22089
3791,57894,22047
3764,57871,22007
3733,57848,21964
3699,57821,21920
3663,57796,21876
3624,57770,21835
3584,57743,21793
3546,57716,21750
3508,57688,21702
3469,57660,21651
3434,57637,21606
3412,57627,21579
3403,57635,21578
3409,57657,21607
3442,57695,21669
3511,57759,21777
3614,57853,21936
3746,57970,22139
3907,58105,22377
4097,58262,22646
4305,58438,22937
4520,58622,23239
4738,58809,23543
4960,58996,23842
5180,59178,24131
5387,59345,24404
5580,59501,24660
5759,59649,24899
5919,59784,25111
6057,59901,25294
6173,60001,25450
6264,60081,25579
6328,60139,25678
6367,60177,25746
6387,60195,25785
6393,60199,25801
6385,60190,25796
6366,60169,25771
6340,60141,25730
6310,60113,25680
6275,60082,25622
6230,60042,25556
6178,59997,25486
6125,59954,25418
6073,59912,25351
6025,59870,25287
5978,59830,25229
5933,59795,25178
5891,59767,25131
5855,59741,25087
5826,59718,25047
5799,59698,25008
5768,59676,24964
5734,59651,24914
5701,59623,24860
5664,59593,24804
5619,59556,24743
5569,59512,24676
5520,59469,24614
5471,59430,24556
5422,59389,24499
5378,59347,24444
5342,59315,24397
5316,59294,24357
5295,59278,24324
5280,59266,24302
5271,59259,24287
5265,59255,24277
5261,59252,24273
5265,59254,24278
5276,59260,24291
5287,59265,24307
5297,59269,24322
5314,59278,24342
5338,59295,24364
5362,59315,24387
5384,59332,24410
5404,59348,24434
5421,59364,24455
5430,59375,24470
5434,59381,24478
5434,59383,24480
5430,59384,24479
5422,59384,24478
5409,59377,24471
5394,59365,24455
5376,59354,24433
5351,59340,24406
5316,59318,24366
5274,59291,24315
5227,59266,24256
5183,59240,24193
5143,59208,24129
5102,59171,24065
5056,59128,24001
5003,59080,23931
4951,59028,23856
4899,58976,23783
4843,58928,23713
4781,58877,23640
4718,58822,23568
4660,58768,23500
4606,58716,23433
4551,58666,23365
4495,58619,23296
4443,58580,23230
4394,58542,23165
4347,58501,23096
4300,58458,23026
4250,58415,22957
4195,58373,22888
4143,58334,22820
4098,58301,22754
4059,58274,22695
4018,58248,22640
3974,58218,22582
3928,58183,22524
3885,58150,22470
3845,58121,22423
3807,58092,22378
3772,58063,22336
3740,58040,22300
3711,58022,22270
3686,58002,22240
3662,57981,22211
3636,57959,22180
3609,57935,22143
3582,57907,22103
3552,57877,22067
3520,57848,22034
3486,57820,22002
3457,57795,21970
3436,57776,21939
3416,57758,21906
3390,57738,21867
3361,57714,21826
3330,57691,21787
3297,57667,21747
3255,57635,21700
3209,57595,21648
3166,57556,21596
3126,57525,21543
3087,57495,21486
3047,57461,21422
3007,57430,21358
2970,57403,21298
2931,57374,21235
2889,57340,21170
2845,57305,21106
2803,57270,21047
2765,57237,21002
2737,57212,20977
2722,57201,20973
2724,57206,20992
2749,57233,21044
2810,57292,21146
2912,57391,21305
3052,57524,21518
3227,57683,21777
3433,57865,22074
3664,58068,22401
3910,58281,22745
4161,58496,23094
4414,58707,23439
4665,58914,23775
4903,59111,24094
5119,59289,24390
5309,59447,24655
5473,59591,24888
5615,59718,25088
5736,59822,25254
5835,59907,25387
5912,59975,25491
5967,60027,25569
6004,60062,25621
6029,60082,25652
6041,60089,25663
6036,60079,25651
6016,60055,25615
5989,60024,25568
5956,59991,25516
5913,59952,25455
5865,59908,25384
5819,59868,25314
5776,59829,25248
5728,59787,25182
5678,59740,25117
5634,59697,25060
5592,59661,25010
5549,59627,24962
5509,59593,24918
5475,59566,24879
5442,59543,24844
5409,59518,24808
5378,59491,24771
5349,59465,24734
5318,59436,24694
5285,59404,24648
5255,59372,24596
5227,59341,24541
5193,59310,24486
5156,59279,24433
5122,59251,24385
5089,59226,24345
5056,59202,24309
5026,59178,24271
5003,59158,24236
4988,59149,24214
4982,59147,24205
4979,59143,24202
4981,59141,24208
4991,59148,24226
5003,59159,24250
5012,59167,24270
5021,59175,24287
5037,59192,24309
5058,59216,24336
5078,59237,24362
5093,59255,24383
5104,59274,24398
5113,59293,24409
5120,59307,24416
5123,59315,24414
5122,59318,24405
5116,59314,24393
5103,59302,24372
5080,59282,24341
5051,59253,24304
5019,59219,24263
4985,59183,24219
4947,59146,24174
4907,59109,24124
4867,59070,24067
4826,59027,24005
4781,58982,23941
4730,58934,23875
4674,58882,23801
4622,58831,23724
4574,58786,23650
4527,58743,23578
4479,58698,23503
4427,58650,23428
4375,58606,23358
4324,58565,23295
4270,58519,23229
4220,58470,23162
4174,58429,23096
4133,58397,23035
4093,58368,22978
4052,58341,22925
4011,58317,22877
3972,58294,22832
3934,58271,22788
3896,58245,22741
3854,58215,22694
3810,58185,22649
3770,58156,22608
3736,58131,22565
3702,58108,22522
3668,58083,22475
3637,58057,22425
3610,58031,22377
3583,58005,22334
3556,57979,22294
3532,57953,22256
3510,57934,22224
3484,57920,22195
3452,57904,22162
3415,57880,22123
3377,57849,22086
3339,57819,22050
3300,57788,22009
3258,57752,21960
3219,57719,21911
3186,57688,21865
3152,57654,21817
3115,57618,21767
3083,57588,21722
3057,57564,21683
3030,57538,21645
2998,57509,21608
2964,57479,21568
2928,57448,21522
2888,57411,21470
2845,57369,21413
2799,57327,21353
2752,57287,21292
2705,57248,21231
2660,57212,21172
2620,57181,21118
2587,57158,21073
2569,57145,21047
2570,57150,21054
2593,57182,21101
2645,57244,21194
2732,57334,21336
2860,57450,21530
3027,57596,21772
3221,57764,22049
3439,57949,22352
3679,58150,22677
3931,58360,23016
4181,58565,23354
4424,58764,23681
4658,58959,23994
4875,59143,24283
5069,59308,24541
5238,59451,24770
5387,59576,24970
5514,59679,25141
5616,59760,25279
5696,59821,25385
5756,59865,25462
5797,59895,25515
5823,59912,25544
5836,59918,25554
5832,59913,25543
5809,59894,25509
5772,59860,25456
5731,59819,25394
5687,59779,25331
5635,59739,25268
5581,59698,25204
5535,59659,25141
5494,59625,25082
5450,59594,25024
5408,59564,24966
5370,59534,24913
5336,59506,24867
5303,59476,24822
5271,59445,24775
5242,59414,24728
5214,59388,24688
5183,59364,24649
5147,59339,24606
5110,59314,24560
5077,59294,24517
5046,59275,24477
5012,59249,24435
4978,59219,24392
4947,59195,24357
4926,59180,24330
4913,59167,24308
4901,59157,24288
4889,59151,24273
4881,59148,24264
4880,59146,24263
4885,59148,24270
4893,59155,24285
4904,59165,24302
4922,59176,24320
4943,59190,24344
4964,59207,24374
4986,59223,24402
5007,59236,24423
5030,59253,24444
5053,59273,24469
5069,59286,24492
5077,59292,24513
5088,59300,24535
5101,59312,24554
5109,59319,24567
5111,59322,24575
5109,59322,24575
5099,59315,24563
5081,59300,24537
5060,59280,24504
5038,59258,24466
5010,59234,24423
4976,59204,24370
4936,59173,24313
4894,59141,24256
4848,59107,24197
4800,59065,24132
4753,59021,24065
4705,58978,23999
4653,58934,23932
4598,58883,23859
4544,58832,23787
4492,58788,23720
4441,58746,23652
4387,58706,23577
4334,58667,23501
4284,58633,23433
4238,58599,23372
4192,58566,23313
4149,58536,23255
4111,58510,23204
4077,58486,23159
4045,58459,23113
4011,58427,23065
3975,58393,23018
3938,58359,22968
3902,58325,22914
3863,58292,22860
3823,58260,22812
3788,58234,22770
3762,58215,22737
3735,58200,22710
3702,58183,22682
3669,58165,22648
3642,58148,22616
3619,58133,22589
3595,58118,22563
3570,58101,22534
3547,58082,22500
3528,58065,22467
3511,58048,22433
3491,58027,22395
3469,58003,22356
3447,57980,22318
3425,57959,22280
3401,57938,22242
3376,57916,22207
3349,57895,22172
3321,57874,22134
3292,57853,22095
3264,57833,22056
3234,57811,22014
3202,57785,21972
3168,57757,21931
3134,57730,21895
3102,57709,21865
3077,57692,21843
3066,57684,21836
3074,57692,21853
3101,57722,21901
3153,57772,21987
3238,57846,22114
3359,57948,22291
3511,58076,22511
3683,58225,22761
3875,58389,23032
4087,58567,23322
4311,58758,23623
4535,58948,23924
4750,59131,24220
4957,59310,24507
5154,59479,24778
5336,59634,25028
5501,59775,25255
5648,59899,25458
5769,60004,25631
5866,60090,25771
5946,60162,25882
6010,60218,25971
6055,60258,26034
6082,60278,26068
6094,60283,26077
6095,60277,26066
6082,60260,26039
6060,60235,25999
6029,60203,25951
5990,60166,25900
5947,60127,25844
5901,60087,25781
5854,60047,25714
5809,60012,25648
5769,59979,25588
5733,59947,25535
5700,59916,25491
5670,59888,25452
5641,59863,25416
5613,59840,25378
5585,59818,25341
5557,59796,25304
5526,59773,25265
5492,59747,25220
5455,59718,25171
5414,59686,25121
5371,59654,25068
5330,59620,25012
5293,59588,24960
5256,59561,24915
5219,59535,24870
5182,59505,24823
5153,59478,24786
5132,59459,24762
5119,59444,24745
5112,59433,24734
5116,59432,24734
5130,59443,24746
5144,59456,24764
5157,59471,24783
5172,59489,24804
5186,59508,24831
5199,59525,24858
5213,59538,24881
5229,59554,24901
5247,59572,24921
5263,59586,24936
5274,59592,24946
5282,59597,24952
5286,59603,24955
5285,59605,24952
5282,59603,24943
5277,59594,24930
5268,59579,24911
5253,59560,24885
5233,59539,24853
5207,59517,24817
5175,59491,24775
5142,59461,24729
5109,59430,24682
5073,59394,24629
5029,59355,24567
4982,59312,24498
4934,59269,24429
4882,59226,24360
4826,59181,24289
4772,59133,24218
4725,59091,24152
4679,59053,24090
4629,59011,24022
4578,58962,23945
4530,58916,23869
4485,58872,23797
4437,58827,23723
4389,58778,23644
4343,58733,23573
4299,58696,23513
4255,58663,23456
4210,58628,23399
4169,58597,23348
4131,58573,23305
4091,58550,23262
4050,58522,23217
4012,58496,23174
3974,58472,23131
3931,58441,23083
3887,58402,23031
3849,58363,22981
3815,58327,22935
3780,58290,22888
3744,58252,22842
3710,58218,22799
3678,58186,22758
3648,58158,22715
3620,58135,22671
3593,58114,22630
3564,58096,22591
3531,58077,22554
3500,58057,22517
3472,58037,22478
3443,58014,22438
3414,57989,22396
3388,57966,22354
3362,57944,22313
3333,57920,22269
3303,57893,22225
3273,57866,22181
3237,57838,22134
3194,57804,22079
3149,57768,22020
3106,57736,21966
3064,57706,21916
3024,57676,21860
2987,57645,21802
2957,57621,21754
2934,57606,21721
2922,57601,21706
2928,57610,21715
2959,57642,21764
3024,57704,21864
3121,57794,22012
3251,57910,22209
3414,58056,22455
3611,58229,22744
3832,58420,23061
4067,58620,23397
4312,58827,23744
4558,59038,24094
4795,59241,24430
5019,59432,24747
5230,59614,25045
5423,59785,25319
5598,59937,25565
5753,60069,25780
5891,60187,25969
6009,60292,26131
6105,60378,26265
6180,60445,26371
6235,60495,26450
6271,60528,26501
6290,60545,26524
6295,60550,26527
6289,60546,26513
6273,60534,26483
6251,60515,26442
6225,60492,26397
6196,60466,26351
6166,60438,26304
6134,60406,26256
6100,60374,26209
6066,60344,26166
6035,60318,26129
6008,60294,26098
5981,60274,26067
5958,60261,26039
5942,60254,26020
5931,60249,26008
5920,60241,25993
5904,60227,25971
5887,60210,25943
5872,60194,25912
5853,60176,25877
5827,60152,25836
5799,60124,25792
5773,60096,25749
5748,60070,25709
5720,60044,25668
5692,60018,25626
5670,59996,25588
5658,59981,25558
5654,59971,25534
5652,59965,25513
5653,59963,25498
5658,59965,25491
5668,59972,25489
5687,59982,25494
5713,59997,25509
5741,60023,25534
5772,60051,25566
5809,60074,25594
5850,60099,25622
5893,60130,25659
5927,60159,25699
5951,60177,25736
5972,60192,25769
5993,60211,25801
6010,60230,25828
6024,60244,25846
6039,60254,25855
6051,60263,25858
6052,60266,25851
6042,60263,25836
6028,60261,25819
6013,60257,25803
5992,60246,25781
5967,60225,25750
5939,60201,25713
5904,60175,25668
5861,60143,25609
5816,60101,25542
5772,60056,25474
5729,60011,25410
5682,59964,25341
5634,59917,25268
5588,59877,25198
5546,59844,25134
5503,59808,25069
5456,59764,24997
5410,59720,24929
5363,59678,24867
5314,59634,24802
5263,59587,24736
5218,59545,24676
5180,59510,24622
5142,59475,24568
5102,59439,24515
5060,59405,24462
5020,59373,24409
4978,59338,24353
4932,59300,24297
4885,59264,24243
4836,59226,24189
4786,59184,24133
4736,59141,24077
4693,59105,24025
4655,59071,23974
4619,59036,23921
4584,58999,23870
4553,58967,23826
4527,58939,23788
4502,58912,23752
4472,58885,23715
4438,58860,23681
4407,58837,23646
4378,58814,23611
4348,58792,23573
4315,58771,23536
4281,58747,23498
4250,58721,23460
4216,58693,23421
4178,58664,23379
4139,58634,23331
4101,58601,23279
4065,58569,23226
4030,58540,23175
3997,58510,23124
3968,58481,23075
3943,58454,23032
3918,58430,22991
3891,58405,22946
3865,58378,22895
3839,58354,22844
3810,58330,22790
3778,58303,22732
3741,58271,22673
3704,58239,22618
3669,58209,22571
3637,58182,22533
3614,58163,22513
3608,58164,22521
3626,58190,22565
3673,58243,22650
3755,58324,22781
3872,58435,22960
4023,58573,23185
4206,58732,23450
4413,58909,23746
4636,59100,24063
4864,59294,24388
5097,59489,24713
5331,59688,25037
5556,59884,25355
5763,60066,25655
5952,60232,25928
6128,60385,26175
6289,60525,26394
6425,60641,26580
6533,60734,26733
6617,60808,26856
6683,60865,26952
6731,60903,27019
6758,60922,27060
6768,60926,27080
6764,60919,27081
6747,60900,27061
6723,60871,27026
6695,60838,26981
6659,60803,26924
6618,60766,26859
6576,60727,26793
6537,60692,26734
6500,60659,26682
6464,60628,26636
6430,60604,26595
6399,60586,26555
6369,60568,26514
6343,60548,26478
6323,60529,26446
6305,60511,26418
6286,60493,26390
6265,60474,26362
6246,60456,26332
6228,60439,26302
6203,60419,26266
6173,60395,26220
6143,60371,26168
6115,60353,26119
6088,60337,26076
6060,60317,26036
6036,60297,26000
6019,60282,25974
6010,60271,25958
6004,60256,25945
6001,60247,25937
6005,60249,25933
6011,60256,25934
6017,60258,25939
6026,60258,25950
6036,60261,25966
6048,60269,25987
6064,60281,26014
6085,60297,26043
6107,60317,26070
6126,60339,26096
6143,60364,26122
6156,60387,26145
6165,60405,26161
6174,60418,26170
6186,60426,26178
6193,60429,26181
6189,60423,26176
6178,60411,26162
6164,60396,26141
6145,60378,26117
6117,60357,26084
6084,60330,26041
6052,60300,25990
6019,60271,25935
5983,60237,25875
5939,60191,25809
5888,60136,25741
5838,60083,25675
5787,60034,25609
5732,59987,25538
5676,59939,25467
5624,59894,25398
5574,59852,25329
5522,59809,25258
5468,59764,25185
5415,59721,25112
5365,59682,25040
5318,59646,24968
5273,59610,24898
5228,59576,24833
5186,59542,24770
5144,59504,24708
5102,59466,24643
5060,59430,24580
5020,59395,24520
4986,59359,24464
4952,59323,24415
4914,59293,24373
4875,59269,24336
4841,59248,24300
4808,59227,24271
4777,59208,24246
4747,59189,24219
4720,59167,24187
4693,59145,24157
4665,59124,24129
4638,59100,24093
4608,59075,24049
4580,59051,24006
4552,59027,23967
4523,59001,23927
4495,58974,23882
4467,58951,23839
4437,58928,23800
4405,58903,23761
4377,58879,23721
4355,58860,23687
4334,58846,23656
4308,58826,23621
4276,58798,23579
4242,58770,23534
4206,58743,23490
4166,58713,23441
4124,58679,23386
4080,58645,23324
4035,58611,23259
3993,58575,23195
3953,58539,23139
3910,58508,23090
3867,58480,23043
3828,58453,22999
3801,58432,22966
3785,58424,22953
3783,58431,22966
3805,58458,23015
3861,58512,23110
3953,58597,23256
4076,58708,23447
4229,58842,23674
4415,59003,23937
4625,59187,24227
4844,59381,24531
5068,59575,24841
5297,59773,25156
5527,59973,25468
5746,60163,25765
5947,60333,26040
6133,60486,26294
6299,60621,26523
6437,60734,26720
6549,60828,26888
6645,60908,27029
6726,60977,27140
6789,61032,27223
6834,61071,27280
6868,61099,27317
6888,61116,27334
6896,61121,27335
6893,61116,27321
6881,61102,27295
6855,61079,27257
6821,61045,27207
6783,61006,27151
6740,60966,27094
6695,60929,27035
6651,60894,26974
6613,60863,26918
6579,60839,26868
6545,60820,26822
6513,60798,26780
6484,60778,26742
6458,60761,26706
6433,60743,26671
6410,60726,26637
6390,60710,26608
6368,60690,26577
6337,60662,26537
6301,60628,26487
6262,60591,26432
6221,60552,26374
6179,60515,26313
6140,60478,26254
6102,60444,26202
6066,60413,26159
6038,60391,26127
6021,60378,26105
6010,60371,26090
6003,60368,26083
6001,60367,26081
6006,60368,26085
6015,60373,26096
6024,60384,26112
6038,60401,26131
6059,60424,26156
6083,60449,26184
6102,60470,26208
6117,60485,26229
6129,60497,26247
6137,60511,26263
6141,60523,26276
6145,60529,26284
6152,60529,26291
6157,60526,26297
6157,60520,26296
6150,60507,26283
6136,60490,26261
6117,60472,26236
6091,60448,26203
6056,60418,26160
6019,60387,26109
5982,60358,26057
5942,60328,26003
5897,60292,25942
5852,60251,25876
5807,60209,25806
5758,60163,25729
5707,60111,25645
5661,60064,25563
5620,60024,25488
5575,59987,25418
5526,59947,25347
5476,59907,25280
5428,59870,25216
5379,59829,25149
5327,59783,25079
5277,59739,25008
5232,59699,24942
5189,59660,24880
5145,59620,24822
5099,59581,24764
5051,59545,24704
5001,59511,24645
4954,59475,24591
4909,59439,24538
4861,59402,24482
4814,59365,24423
4772,59329,24368
4734,59293,24317
4695,59256,24266
4654,59219,24212
4618,59186,24158
4588,59158,24108
4557,59136,24062
4525,59114,24017
4495,59096,23975
4468,59083,23937
4441,59070,23901
4413,59051,23865
4387,59032,23831
4363,59018,23801
4338,59005,23769
4310,58985,23733
4280,58961,23696
4255,58939,23665
4235,58921,23637
4216,58902,23606
4196,58884,23569
4176,58869,23528
4155,58855,23487
4129,58834,23445
4097,58806,23398
4066,58777,23348
4036,58753,23297
4005,58726,23246
3967,58696,23194
3925,58664,23141
3879,58628,23086
3830,58589,23030
3782,58551,22979
3736,58514,22931
3689,58474,22874
3642,58429,22809
3597,58388,22743
3553,58349,22678
3505,58304,22608
3450,58257,22532
3397,58215,22461
3351,58181,22399
3314,58155,22349
3296,58146,22323
3302,58160,22334
3334,58198,22389
3399,58263,22492
3505,58361,22653
3652,58493,22878
3836,58658,23162
4053,58849,23488
4296,59061,23846
4557,59291,24228
4826,59530,24621
5097,59768,25012
5365,60000,25393
5627,60224,25757
5872,60435,26102
6091,60621,26418
6282,60783,26699
6447,60923,26946
6590,61046,27158
6713,61151,27333
6813,61237,27473
6891,61304,27580
6948,61356,27656
6988,61392,27703
7009,61415,27727
7011,61423,27728
6999,61417,27707
6977,61396,27670
6951,61369,27626
6919,61339,27578
6879,61304,27525
6834,61263,27466
6792,61225,27412
6756,61191,27364
6720,61155,27315
6686,61123,27266
6664,61103,27227
6651,61093,27197
6641,61085,27170
6633,61076,27144
6626,61069,27128
6617,61061,27117
6608,61051,27102
6600,61039,27082
6590,61024,27055
6570,61003,27021
6541,60975,26980
6507,60943,26932
6467,60911,26882
6423,60879,26830
6374,60843,26777
6328,60805,26725
6286,60770,26678
6248,60739,26633
6212,60711,26593
6182,60689,26560
6158,60674,26535
6142,60665,26516
6131,60657,26500
6123,60655,26489
6121,60662,26487
6130,60676,26496
6143,60694,26511
6159,60713,26529
6175,60731,26549
6193,60748,26569
6215,60762,26591
6234,60772,26610
6246,60782,26623
6254,60790,26630
6262,60794,26631
6269,60798,26632
6270,60800,26636
6262,60792,26634
6250,60774,26621
6236,60756,26604
6216,60739,26580
6187,60715,26545
6152,60682,26498
6114,60648,26446
6073,60614,26389
6023,60577,26326
5968,60538,26256
5913,60498,26183
5858,60455,26107
5805,60409,26029
5756,60363,25950
5707,60318,25873
5655,60270,25796
5601,60218,25712
5546,60163,25624
5487,60111,25540
5421,60056,25456
5353,59995,25365
5291,59934,25272
5233,59878,25187
5175,59824,25106
5116,59767,25027
5062,59710,24951
5015,59661,24884
4970,59621,24823
4922,59585,24761
4873,59549,24698
4829,59520,24638
4790,59495,24584
4750,59469,24533
4709,59441,24485
4668,59416,24439
4629,59391,24393
4591,59365,24348
4558,59341,24306
4527,59320,24265
4497,59297,24221
4468,59269,24174
4440,59241,24130
4415,59217,24092
4389,59192,24052
4360,59163,24012
4333,59138,23973
4310,59118,23935
4284,59094,23895
4253,59069,23852
4223,59045,23808
4191,59021,23763
4153,58993,23713
4112,58962,23658
4069,58928,23602
4022,58889,23544
3974,58845,23482
3926,58801,23418
3880,58759,23355
3831,58719,23293
3781,58675,23227
3731,58629,23159
3684,58582,23090
3636,58535,23019
3587,58484,22946
3538,58435,22874
3491,58392,22803
3442,58350,22730
3385,58302,22651
3322,58250,22567
3261,58201,22486
3201,58156,22410
3139,58113,22336
3084,58073,22266
3040,58044,22213
3012,58030,22186
3003,58031,22191
3023,58054,22235
3080,58108,22331
3183,58200,22487
3329,58331,22708
3515,58498,22987
3734,58694,23314
3985,58914,23680
4259,59151,24072
4544,59399,24480
4829,59648,24887
5110,59889,25282
5384,60121,25658
5639,60338,26008
5863,60531,26322
6058,60701,26598
6231,60850,26838
6383,60983,27046
6510,61095,27220
6609,61183,27357
6684,61247,27459
6734,61290,27530
6759,61313,27572
6765,61316,27584
6757,61304,27570
6741,61287,27541
6718,61265,27501
6687,61233,27452
6648,61195,27395
6606,61155,27332
6561,61118,27266
6515,61081,27198
6472,61044,27130
6428,61009,27064
6384,60974,27001
6345,60940,26946
6312,60910,26904
6285,60886,26873
6257,60864,26841
6232,60842,26807
6211,60826,26775
6189,60814,26746
6161,60799,26712
6129,60778,26669
6096,60754,26625
6061,60729,26581
6020,60699,26531
5978,60666,26476
5942,60631,26421
5908,60598,26368
5875,60567,26321
5847,60540,26282
5822,60517,26249
5798,60498,26218
5779,60483,26190
5772,60475,26172
5772,60471,26162
5775,60470,26158
5783,60469,26161
5799,60473,26172
5822,60486,26193
5844,60503,26220
5866,60520,26248
5888,60537,26276
5909,60557,26303
5924,60576,26327
5936,60587,26343
5943,60592,26354
5947,60593,26364
5948,60592,26372
5943,60585,26374
5931,60575,26365
5914,60561,26347
5892,60542,26320
5870,60520,26287
5845,60496,26248
5813,60468,26199
5775,60433,26141
5732,60396,26078
5689,60361,26015
5644,60329,25949
5596,60292,25876
5545,60249,25796
5494,60207,25717
5444,60165,25643
5388,60118,25565
5330,60065,25484
5278,60016,25407
5231,59973,25339
5179,59930,25269
5122,59882,25194
5067,59834,25119
5013,59791,25047
4955,59747,24974
4894,59704,24905
4840,59666,24842
4793,59635,24781
4746,59603,24715
4697,59567,24647
4650,59532,24581
4604,59499,24519
4558,59466,24458
4513,59433,24400
4469,59400,24343
4426,59365,24284
4382,59330,24226
4341,59294,24171
4302,59259,24118
4262,59225,24067
4226,59190,24017
4194,59156,23970
4162,59124,23927
4125,59093,23883
4086,59062,23834
4050,59032,23784
4015,59007,23740
3975,58983,23696
3931,58952,23648
3889,58917,23597
3850,58885,23549
3810,58853,23501
3767,58818,23448
3727,58783,23390
3694,58754,23332
3664,58727,23274
3632,58693,23215
3597,58654,23153
3562,58617,23093
3529,58582,23033
3493,58544,22975
3453,58505,22915
3409,58468,22852
3361,58430,22787
3310,58390,22720
3258,58347,22653
3202,58302,22586
3148,58261,22524
3104,58231,22474
3074,58214,22442
3058,58209,22434
3060,58220,22460
3088,58252,22525
3152,58314,22640
3255,58409,22811
3397,58537,23035
3578,58698,23309
3797,58895,23630
4045,59122,23990
4307,59362,24372
4575,59603,24761
4846,59841,25148
5114,60071,25523
5371,60287,25874
5608,60489,26197
5820,60674,26489
6005,60836,26744
6163,60973,26962
6297,61090,27145
6402,61187,27294
6477,61257,27404
6528,61303,27481
6565,61331,27534
6589,61350,27566
6598,61355,27574
6593,61348,27558
6579,61334,27527
6559,61316,27488
6531,61291,27438
6498,61257,27378
6460,61219,27311
6418,61180,27244
6370,61139,27174
6316,61094,27102
6261,61047,27029
6208,61003,26955
6162,60963,26885
6124,60924,26820
6086,60882,26760
6046,60839,26702
6007,60799,26648
5975,60766,26598
5944,60737,26550
5907,60708,26497
5865,60673,26434
5821,60633,26365
5777,60594,26299
5730,60556,26236
5681,60518,26170
5637,60479,26107
5601,60446,26053
5573,60423,26009
5549,60407,25971
5528,60393,25942
5515,60385,25924
5509,60383,25918
5506,60384,25919
5509,60389,25928
5520,60402,25948
5538,60421,25973
5560,60442,26000
5585,60465,26033
5609,60489,26069
5629,60509,26103
5649,60527,26134
5667,60545,26165
5680,60564,26194
5687,60578,26214
5693,60586,26228
5700,60594,26239
5704,60601,26244
5699,60600,26237
5688,60590,26216
5675,60574,26189
5658,60557,26156
5629,60532,26113
5589,60498,26060
5547,60460,26002
5502,60421,25939
5448,60377,25869
5388,60330,25793
5325,60279,25714
5260,60224,25629
5194,60163,25537
5131,60105,25442
5065,60050,25352
4995,59997,25265
4925,59943,25175
4858,59887,25082
4790,59830,24990
4716,59767,24894
4640,59699,24792
4567,59631,24687
4498,59566,24587
4435,59509,24493
4373,59455,24403
4314,59404,24316
4260,59359,24235
4209,59320,24159
4163,59284,24087
4118,59248,24020
4076,59216,23959
4039,59186,23898
4004,59153,23834
3967,59116,23770
3927,59081,23709
3884,59048,23648
3840,59013,23585
3799,58976,23529
3760,58938,23479
3718,58898,23430
3676,58857,23380
3638,58826,23337
3605,58804,23299
3573,58784,23263
3541,58764,23228
3512,58750,23197
3486,58742,23170
3459,58733,23143
3435,58724,23114
3411,58714,23084
3386,58699,23052
3358,58679,23016
3329,58661,22979
3300,58642,22940
3265,58617,22895
3223,58585,22845
3179,58548,22793
3133,58508,22742
3081,58464,22686
3028,58420,22623
2981,58379,22557
2936,58340,22490
2887,58295,22418
2836,58244,22340
2787,58192,22260
2736,58145,22185
2684,58100,22114
2632,58054,22045
2584,58013,21983
2543,57985,21937
2515,57970,21911
2501,57967,21914
2508,57985,21959
2549,58038,22055
2636,58126,22210
2772,58245,22426
2953,58402,22702
3172,58600,23033
3431,58834,23413
3725,59095,23828
4043,59374,24265
4370,59658,24710
4692,59934,25145
5003,60195,25563
5298,60443,25958
5570,60675,26324
5808,60883,26649
6013,61063,26932
6192,61221,27179
6344,61356,27389
6466,61465,27557
6563,61549,27688
6643,61612,27787
6702,61655,27852
6741,61679,27887
6764,61688,27899
6772,61689,27894
6764,61681,27873
6745,61666,27838
6725,61648,27795
6701,61626,27747
6669,61599,27693
6627,61566,27631
6584,61530,27566
6543,61494,27502
6505,61460,27440
6470,61425,27384
6441,61393,27334
6416,61367,27294
6390,61340,27258
6359,61305,27220
6328,61270,27179
6298,61240,27136
6268,61213,27090
6236,61183,27038
6201,61151,26981
6163,61121,26926
6123,61091,26875
6082,61057,26824
6043,61018,26773
6005,60980,26723
5968,60944,26673
5931,60908,26621
5891,60873,26570
5852,60840,26524
5824,60812,26484
5807,60791,26452
5794,60774,26428
5781,60762,26413
5775,60754,26404
5777,60747,26399
5784,60746,26403
5793,60751,26419
5802,60758,26437
5814,60764,26454
5831,60774,26473
5850,60788,26497
5863,60798,26516
5869,60801,26527
5874,60802,26534
5879,60805,26536
5879,60801,26530
5874,60792,26516
5868,60783,26497
5860,60773,26475
5845,60757,26444
5823,60738,26408
5793,60717,26368
5757,60689,26325
5714,60653,26273
5668,60613,26216
5621,60573,26155
5569,60530,26086
5508,60478,26004
5443,60425,25915
5381,60377,25827
5320,60332,25741
5254,60280,25650
5183,60222,25554
5113,60164,25459
5046,60105,25365
4978,60042,25271
4912,59982,25179
4846,59931,25090
4784,59883,25006
4727,59833,24925
4670,59782,24846
4611,59732,24767
4549,59678,24680
4492,59619,24589
4441,59564,24504
4393,59517,24424
4341,59472,24345
4286,59427,24264
4234,59384,24189
4184,59346,24116
4130,59303,24040
4070,59254,23963
4013,59206,23890
3959,59159,23823
3906,59113,23760
3857,59069,23703
3813,59033,23656
3770,59003,23613
3728,58974,23570
3691,58947,23529
3659,58926,23491
3624,58908,23453
3586,58888,23414
3547,58860,23372
3508,58829,23332
3469,58795,23290
3429,58759,23243
3391,58721,23194
3358,58687,23148
3327,58655,23100
3294,58618,23045
3257,58577,22982
3222,58543,22919
3186,58514,22860
3149,58485,22802
3111,58452,22741
3070,58419,22678
3028,58388,22614
2985,58355,22552
2939,58320,22488
2891,58285,22422
2844,58251,22353
2800,58216,22286
2757,58178,22223
2715,58142,22169
2679,58113,22131
2655,58096,22119
2653,58102,22147
2680,58137,22223
2739,58203,22346
2838,58300,22520
2985,58436,22750
3180,58616,23040
3416,58831,23384
3684,59072,23776
3980,59336,24201
4290,59610,24640
4600,59882,25077
4905,60144,25499
5198,60398,25903
5469,60635,26278
5714,60848,26616
5931,61033,26915
6118,61194,27176
6276,61334,27398
6407,61451,27579
6514,61546,27722
6600,61620,27830
6663,61673,27906
6703,61703,27951
6724,61715,27971
6730,61718,27972
6723,61711,27954
6702,61690,27916
6669,61656,27861
6629,61618,27797
6585,61576,27728
6539,61527,27654
6492,61477,27578
6447,61431,27503
6402,61388,27430
6357,61344,27364
6311,61301,27304
6267,61263,27252
6229,61229,27203
6196,61200,27155
6163,61174,27109
6127,61149,27064
6090,61121,27013
6050,61085,26954
6008,61045,26891
5961,61002,26826
5906,60954,26756
5849,60902,26679
5798,60853,26607
5755,60811,26545
5714,60771,26486
5676,60735,26435
5647,60709,26398
5627,60690,26372
5613,60676,26355
5607,60670,26346
5610,60672,26347
5623,60683,26358
5641,60698,26375
5664,60717,26397
5690,60741,26424
5717,60765,26452
5744,60785,26481
5773,60804,26513
5801,60826,26550
5823,60848,26590
5841,60865,26626
5857,60877,26654
5874,60889,26676
5892,60902,26695
5907,60912,26709
5915,60918,26717
5918,60920,26722
5916,60915,26719
5906,60899,26702
5889,60880,26677
5869,60864,26645
5844,60847,26608
5812,60825,26562
5773,60795,26508
5726,60759,26445
5675,60720,26376
5621,60678,26300
5562,60634,26220
5498,60588,26137
5432,60539,26050
5369,60487,25960
5311,60437,25874
5257,60391,25793
5201,60344,25711
5145,60298,25629
5091,60254,25553
5041,60213,25485
4990,60170,25416
4936,60126,25344
4885,60088,25276
4843,60053,25212
4802,60010,25148
4759,59962,25083
4717,59917,25023
4676,59877,24966
4630,59835,24909
4583,59793,24852
4538,59753,24798
4497,59719,24746
4460,59689,24694
4426,59658,24642
4392,59625,24592
4359,59594,24541
4330,59566,24492
4303,59542,24448
4275,59519,24406
4244,59492,24363
4213,59465,24319
4188,59442,24278
4165,59422,24240
4137,59400,24200
4108,59373,24157
4080,59345,24113
4051,59315,24068
4016,59282,24018
3975,59245,23963
3931,59208,23907
3885,59172,23851
3837,59135,23792
3787,59093,23728
3738,59051,23667
3692,59013,23612
3650,58978,23560
3614,58949,23515
3589,58932,23483
3579,58929,23468
3589,58942,23479
3627,58981,23532
3697,59048,23638
3795,59138,23794
3924,59253,23997
4088,59402,24245
4283,59583,24535
4502,59786,24858
4741,60000,25200
4995,60219,25551
5253,60441,25905
5501,60660,26252
5737,60866,26581
5960,61058,26886
6164,61236,27168
6343,61393,27420
6498,61524,27636
6629,61631,27818
6739,61719,27975
6830,61791,28104
6899,61843,28201
6951,61879,28267
6991,61907,28311
7015,61925,28336
7018,61927,28338
7010,61918,28320
6998,61903,28287
6980,61884,28243
6955,61860,28191
6925,61832,28135
6889,61802,28080
6852,61771,28026
6816,61742,27971
6779,61716,27918
6740,61692,27869
6702,61665,27820
6671,61636,27770
6647,61610,27723
6627,61590,27683
6603,61566,27641
6576,61531,27591
6552,61492,27538
6527,61453,27481
6491,61410,27416
6446,61364,27351
6404,61323,27292
6364,61287,27236
6320,61246,27178
6272,61201,27120
6231,61163,27070
6202,61135,27030
6181,61114,26999
6166,61099,26977
6160,61095,26966
6162,61100,26966
6171,61111,26974
6184,61124,26987
6199,61138,27006
6217,61155,27030
6241,61174,27058
6271,61200,27094
6303,61233,27139
6335,61268,27185
6368,61303,27234
6404,61337,27284
6436,61369,27328
6461,61394,27359
6483,61416,27378
6504,61438,27395
6519,61457,27412
6524,61464,27418
6521,61460,27411
6512,61449,27396
6495,61433,27375
6471,61411,27345
6443,61381,27306
6415,61349,27263
6384,61319,27217
6349,61285,27162
6310,61240,27097
6266,61188,27027
6215,61137,26959
6159,61085,26887
6101,61031,26807
6048,60980,26730
5998,60935,26662
5947,60890,26594
5897,60847,26523
5851,60809,26458
5807,60774,26401
5764,60740,26342
5723,60706,26282
5686,60679,26226
5650,60656,26173
5618,60633,26118
5590,60610,26064
5565,60589,26018
5540,60569,25977
5510,60544,25935
5476,60517,25890
5443,60492,25849
5411,60468,25810
5382,60441,25771
5351,60413,25728
5317,60385,25681
5279,60355,25631
5239,60322,25580
5199,60290,25531
5166,60260,25485
5138,60230,25440
5110,60195,25392
5080,60158,25345
5044,60122,25296
5003,60087,25245
4958,60054,25195
4916,60021,25146
4876,59985,25094
4838,59948,25039
4802,59909,24984
4766,59872,24932
4729,59838,24885
4698,59808,24848
4675,59784,24820
4664,59773,24810
4671,59783,24823
4699,59812,24864
4752,59859,24939
4835,59935,25061
4950,60040,25233
5091,60168,25449
5260,60314,25698
5454,60477,25978
5668,60657,26283
5889,60846,26599
6110,61035,26913
6329,61225,27223
6543,61412,27525
6741,61588,27814
6920,61747,28080
7082,61887,28316
7225,62007,28519
7349,62110,28692
7458,62198,28840
7549,62271,28964
7618,62329,29059
7665,62367,29124
7693,62388,29167
7709,62399,29197
7714,62400,29207
7706,62387,29195
7690,62364,29165
7671,62339,29123
7648,62314,29075
7621,62285,29021
7590,62255,28965
7563,62228,28913
7539,62205,28867
7514,62181,28824
7486,62154,28784
7456,62126,28745
7430,62103,28711
7410,62086,28680
7393,62069,28652
7372,62048,28624
7350,62020,28593
7330,61988,28557
7308,61957,28518
7282,61927,28478
7254,61895,28431
7224,61860,28379
7191,61828,28330
7158,61800,28286
7126,61770,28243
7098,61740,28200
7076,61718,28162
7062,61704,28129
7050,61690,28097
7041,61673,28067
7037,61663,28049
7037,61663,28043
7040,61667,28045
7047,61673,28055
7058,61685,28071
7070,61700,28092
7083,61715,28113
7100,61729,28135
7121,61745,28157
7142,61760,28177
7162,61770,28193
7182,61778,28210
7200,61784,28228
7213,61790,28243
7225,61795,28252
7239,61800,28256
7248,61806,28257
7247,61807,28250
7235,61797,28229
7216,61780,28199
7192,61762,28168
7161,61738,28133
7126,61705,28089
7091,61668,28040
7056,61629,27986
7016,61588,27928
6973,61546,27867
6927,61503,27805
6880,61460,27739
6835,61417,27675
6795,61377,27614
6759,61339,27553
6721,61301,27489
6680,61260,27428
6641,61220,27374
6606,61182,27324
6569,61144,27272
6531,61105,27218
6493,61065,27163
6454,61025,27109
6410,60982,27053
6363,60939,26994
6318,60899,26938
6275,60862,26886
6234,60827,26833
6189,60792,26778
6144,60758,26730
6104,60729,26689
6068,60704,26650
6031,60679,26609
5993,60651,26563
5956,60625,26517
5921,60601,26471
5884,60573,26421
5844,60538,26365
5804,60502,26308
5767,60467,26252
5731,60430,26194
5697,60392,26133
5665,60355,26074
5636,60320,26022
5608,60286,25976
5584,60257,25938
5564,60229,25908
5545,60199,25880
5527,60168,25851
5514,60145,25832
5511,60139,25836
5520,60148,25864
5551,60177,25921
5613,60233,26022
5708,60318,26168
5827,60420,26348
5966,60537,26556
6127,60675,26798
6308,60837,27071
6499,61009,27359
6694,61187,27654
6897,61371,27953
7103,61553,28245
7298,61721,28522
7479,61875,28778
7650,62019,29013
7807,62149,29222
7944,62262,29403
8060,62354,29556
8157,62430,29684
8231,62489,29783
8283,62529,29854
8318,62552,29904
8337,62563,29939
8344,62560,29952
8341,62544,29941
8331,62517,29913
8318,62487,29879
8301,62458,29842
8278,62423,29794
8254,62383,29742
8231,62347,29693
8206,62314,29646
8179,62279,29594
8152,62244,29540
8131,62213,29492
8114,62190,29453
8097,62170,29418
8080,62146,29385
8062,62123,29353
8043,62100,29324
8023,62075,29291
7998,62046,29252
7967,62014,29209
7938,61980,29159
7911,61944,29099
7881,61905,29034
7845,61861,28967
7805,61814,28899
7766,61768,28835
7728,61726,28781
7692,61689,28737
7656,61655,28696
7628,61627,28659
7612,61607,28633
7605,61595,28620
7604,61587,28612
7604,61579,28606
7609,61572,28605
7614,61570,28612
7620,61570,28625
7628,61573,28642
7640,61583,28663
7655,61597,28687
7669,61608,28712
7678,61614,28732
7683,61617,28752
7685,61616,28767
7685,61610,28776
7689,61605,28781
7694,61601,28784
7695,61594,28781
7691,61580,28767
7684,61565,28746
7670,61548,28718
7644,61523,28679
7608,61491,28629
7573,61456,28574
7538,61419,28517
7494,61373,28451
7442,61318,28378
7390,61261,28304
7343,61205,28230
7295,61148,28155
7245,61089,28080
7192,61028,28001
7137,60967,27918
7082,60905,27834
7029,60846,27750
6976,60791,27668
6922,60737,27585
6866,60685,27506
6814,60638,27437
6764,60595,27376
6716,60551,27316
6671,60508,27256
6632,60467,27199
6596,60430,27147
6561,60394,27099
6527,60357,27052
6496,60321,27004
6467,60285,26957
6436,60249,26907
6402,60209,26851
6365,60168,26787
6327,60126,26718
6291,60082,26648
6258,60033,26580
6220,59982,26515
6173,59930,26455
6118,59877,26394
6064,59823,26329
6019,59775,26266
5985,59740,26213
5957,59713,26164
5929,59681,26111
5901,59646,26054
5874,59613,26001
5843,59579,25948
5808,59539,25888
5768,59495,25825
5728,59453,25765
5690,59416,25710
5654,59382,25658
5620,59349,25611
5590,59323,25579
5572,59305,25564
5573,59300,25572
5603,59323,25617
5661,59377,25706
5744,59453,25834
5855,59549,26000
6002,59671,26210
6180,59819,26460
6377,59983,26738
6587,60158,27033
6807,60342,27339
7028,60528,27644
7243,60708,27940
7453,60883,28225
7652,61051,28493
7832,61202,28736
7989,61330,28949
8126,61439,29134
8245,61531,29295
8345,61610,29428
8423,61669,29530
8480,61709,29600
8522,61738,29644
8553,61756,29670
8573,61762,29679
8581,61753,29675
8574,61731,29656
8555,61696,29620
8530,61656,29572
8504,61619,29521
8480,61590,29472
8456,61561,29422
8427,61525,29366
8398,61486,29311
8372,61448,29261
8348,61411,29215
8327,61373,29172
8306,61335,29128
8286,61300,29085
8267,61271,29044
8249,61244,29000
8229,61217,28954
8203,61189,28909
8172,61157,28858
8140,61121,28799
8111,61086,28741
8084,61053,28682
8051,61011,28619
8014,60960,28554
7981,60914,28501
7955,60879,28460
7930,60847,28423
7908,60818,28390
7892,60797,28365
7879,60785,28346
7872,60778,28333
7878,60777,28328
7894,60781,28330
7913,60786,28338
7932,60790,28351
7957,60794,28367
7986,60805,28390
8014,60824,28414
8039,60841,28432
8062,60855,28447
8083,60872,28467
8103,60885,28490
8117,60890,28508
8127,60890,28524
8134,60890,28538
8141,60891,28547
8143,60886,28545
8140,60873,28531
8131,60860,28508
8117,60844,28476
8098,60822,28436
8075,60795,28388
8053,60766,28336
8032,60734,28284
8009,60696,28232
7979,60650,28175
7941,60603,28113
7901,60560,28047
7862,60516,27978
7820,60470,27909
7775,60422,27843
7728,60375,27779
7684,60330,27717
7640,60287,27655
7596,60245,27591
7551,60204,27523
7510,60165,27457
7473,60132,27398
7441,60104,27346
7412,60076,27300
7386,60047,27258
7363,60020,27220
7343,59994,27183
7318,59964,27143
7290,59932,27102
7262,59905,27064
7236,59878,27028
7210,59847,26985
7185,59812,26936
7161,59780,26884
7136,59751,26833
7110,59723,26786
7084,59693,26740
7055,59661,26695
7023,59627,26649
6992,59593,26602
6967,59563,26561
6943,59536,26523
6916,59508,26479
6886,59478,26431
6860,59452,26381
6838,59430,26331
6813,59406,26279
6784,59378,26227
6760,59352,26180
6742,59330,26137
6725,59305,26094
6705,59275,26052
6683,59251,26014
6660,59238,25982
6642,59233,25960
6632,59231,25952
6635,59235,25963
6651,59249,25995
6689,59279,26055
6754,59331,26152
6845,59409,26289
6958,59511,26461
7093,59634,26665
7253,59779,26898
7433,59944,27158
7626,60119,27433
7827,60294,27713
8033,60467,27989
8232,60636,28258
8415,60795,28516
8579,60941,28757
8730,61074,28978
8867,61196,29179
8990,61307,29356
9097,61398,29503
9188,61469,29621
9260,61523,29711
9314,61561,29777
9352,61586,29820
9375,61599,29844
9389,61602,29852
9397,61597,29841
9398,61583,29816
9395,61564,29784
9386,61541,29747
9373,61513,29703
9358,61484,29658
9345,61461,29619
9332,61446,29586
9318,61431,29550
9304,61413,29514
9297,61401,29483
9291,61394,29458
9278,61383,29430
9261,61365,29399
9245,61348,29370
9229,61329,29343
9205,61304,29308
9176,61272,29267
9147,61238,29224
9122,61205,29178
9095,61170,29126
9067,61134,29071
9040,61101,29020
9014,61071,28972
8990,61044,28927
8972,61023,28889
8961,61009,28859
8953,60999,28837
8947,60992,28819
8948,60989,28808
8953,60994,28804
8961,61003,28808
8972,61015,28816
8989,61029,28827
9009,61046,28846
9031,61064,28869
9053,61077,28888
9076,61090,28907
9101,61102,28928
9123,61112,28948
9139,61114,28959
9149,61113,28965
9158,61115,28976
9170,61125,28994
9185,61137,29011
9204,61148,29024
9225,61159,29033
9243,61167,29036
9256,61167,29031
9264,61162,29017
9264,61152,28991
9256,61137,28959
9242,61117,28923
9221,61092,28884
9191,61064,28841
9156,61031,28791
9122,60997,28736
9090,60965,28681
9056,60934,28625
9020,60898,28563
8982,60858,28497
8946,60823,28439
8911,60792,28387
8873,60757,28332
8832,60716,28272
8794,60676,28212
8758,60635,28154
8724,60592,28098
8694,60552,28048
8667,60520,28008
8640,60495,27973
8614,60470,27938
8591,60450,27903
8570,60435,27867
8550,60424,27832
8528,60406,27794
8505,60382,27753
8483,60357,27716
8460,60336,27680
8434,60314,27643
8409,60290,27608
8387,60267,27573
8367,60245,27539
8348,60222,27504
8333,60201,27473
8318,60183,27444
8303,60165,27412
8288,60146,27378
8276,60132,27349
8264,60121,27325
8247,60103,27298
8224,60078,27262
8200,60053,27227
8180,60031,27194
8159,60005,27160
8132,59971,27120
8103,59938,27078
8075,59911,27039
8046,59890,27001
8016,59868,26959
7984,59842,26914
7951,59815,26866
7917,59788,26816
7882,59762,26768
7846,59732,26719
7806,59695,26667
7768,59657,26614
7733,59622,26563
7699,59593,26518
7669,59569,26478
7647,59549,26446
7640,59541,26429
7649,59551,26439
7676,59579,26481
7726,59625,26555
7808,59696,26668
7921,59798,26828
8061,59929,27032
8224,60081,27271
8407,60246,27539
8607,60423,27829
8819,60607,28135
9033,60795,28448
9244,60983,28759
9445,61167,29059
9633,61338,29339
9806,61497,29595
9968,61645,29832
10115,61779,30048
10242,61891,30234
10349,61980,30385
10441,62052,30509
10516,62114,30610
10573,62161,30687
10612,62189,30739
10641,62205,30769
10660,62213,30782
10667,62211,30777
10661,62198,30756
10651,62182,30729
10637,62162,30698
10616,62136,30662
10594,62106,30624
10577,62081,30588
10568,62064,30555
10563,62050,30527
10560,62038,30505
10561,62030,30488
10563,62024,30476
10565,62017,30465
10570,62012,30459
10578,62015,30459
10580,62016,30459
10574,62010,30451
10563,61998,30436
10550,61987,30414
10534,61972,30385
10512,61950,30346
10489,61922,30300
10464,61890,30253
10437,61857,30203
10407,61816,30146
10377,61772,30088
10346,61732,30034
10315,61697,29985
10286,61664,29940
10267,61636,29901
10257,61618,29873
10251,61606,29854
10247,61595,29840
10249,61592,29837
10259,61599,29846
10269,61610,29858
10280,61618,29866
10295,61625,29877
10311,61634,29892
10321,61643,29909
10325,61646,29921
10330,61650,29928
10338,61659,29935
10342,61668,29936
10340,61672,29925
10335,61675,29912
10324,61678,29902
10307,61674,29888
10285,61663,29865
10263,61646,29837
10238,61621,29804
10210,61593,29767
10182,61568,29729
10151,61546,29694
10113,61519,29653
10075,61482,29601
10043,61442,29542
10015,61401,29478
9983,61354,29410
9947,61300,29341
9910,61244,29276
9870,61192,29216
9827,61145,29157
9785,61099,29091
9746,61054,29020
9708,61012,28951
9668,60970,28884
9623,60928,28814
9578,60885,28746
9538,60847,28685
9503,60813,28630
9468,60779,28580
9431,60747,28532
9395,60717,28484
9360,60689,28437
9329,60658,28390
9296,60624,28344
9261,60591,28299
9225,60559,28251
9190,60531,28201
9158,60507,28155
9126,60486,28108
9094,60463,28057
9060,60433,28002
9029,60402,27949
9000,60372,27901
8966,60339,27856
8930,60304,27812
8897,60269,27768
8868,60240,27725
8840,60214,27683
8811,60192,27646
8782,60171,27611
8751,60148,27574
8718,60118,27534
8684,60084,27492
8652,60051,27453
8619,60021,27414
8586,59992,27370
8552,59963,27322
8518,59936,27274
8483,59907,27226
8442,59873,27174
8397,59832,27115
8352,59789,27054
8307,59747,26991
8258,59703,26924
8206,59655,26852
8152,59607,26780
8097,59561,26707
8042,59513,26628
7987,59465,26550
7934,59420,26476
7879,59375,26404
7823,59325,26329
7770,59276,26253
7722,59234,26183
7681,59196,26122
7648,59161,26072
7627,59138,26046
7628,59140,26066
7663,59177,26141
7737,59250,26273
7848,59359,26458
7994,59503,26693
8176,59677,26969
8389,59873,27275
8621,60081,27601
8859,60295,27940
9093,60505,28276
9318,60706,28601
9536,60901,28916
9742,61089,29219
9929,61259,29494
10092,61409,29738
10235,61545,29957
10360,61666,30147
10465,61767,30303
10552,61847,30428
10623,61911,30524
10677,61958,30593
10718,61986,30635
10746,61998,30655
10757,61997,30656
10747,61986,30641
10723,61961,30607
10695,61928,30558
10663,61890,30503
10629,61852,30448
10595,61815,30393
10565,61781,30342
10537,61752,30297
10509,61725,30254
10480,61695,30209
10453,61667,30166
10430,61645,30132
10413,61627,30104
10405,61607,30077
10403,61590,30054
10400,61578,30033
10390,61567,30010
10377,61553,29981
10363,61535,29947
10343,61511,29909
10311,61479,29862
10274,61441,29807
10239,61406,29751
10207,61376,29700
10174,61347,29650
10142,61320,29600
10114,61295,29553
10092,61274,29515
10076,61260,29488
10064,61252,29474
10054,61246,29468
10046,61241,29465
10043,61239,29468
10050,61244,29478
10063,61256,29497
10081,61273,29520
10103,61291,29545
10126,61312,29567
10150,61341,29593
10174,61375,29626
10194,61404,29655
10208,61421,29673
10220,61436,29690
10231,61447,29707
10237,61450,29718
10238,61449,29722
10238,61448,29720
10235,61443,29711
10228,61430,29692
10216,61411,29663
10196,61388,29624
10170,61361,29577
10136,61327,29523
10099,61292,29469
10060,61258,29416
10015,61218,29358
9961,61170,29291
9908,61121,29220
9857,61077,29155
9805,61033,29093
9748,60985,29024
9691,60933,28949
9640,60886,28876
9594,60846,28807
9553,60808,28739
9510,60765,28669
9464,60720,28596
9419,60678,28524
9375,60638,28455
9329,60599,28388
9281,60563,28326
9232,60528,28265
9185,60492,28204
9143,60455,28148
9104,60421,28099
9064,60385,28053
9022,60347,28004
8986,60314,27957
8955,60289,27911
8924,60263,27865
8893,60233,27817
8867,60205,27771
8842,60180,27728
8815,60154,27684
8787,60127,27637
8758,60100,27591
8728,60075,27547
8697,60052,27502
8666,60034,27458
8635,60019,27419
8607,60005,27382
8580,59986,27343
8553,59964,27303
8527,59943,27269
8501,59923,27236
8472,59901,27197
8443,59878,27156
8416,59859,27118
8389,59840,27082
8358,59815,27043
8325,59783,26997
8290,59751,26947
8256,59719,26894
8222,59684,26839
8188,59647,26784
8151,59608,26726
8109,59570,26659
8065,59532,26588
8022,59496,26523
7979,59465,26465
7935,59433,26406
7891,59401,26343
7851,59373,26287
7815,59350,26245
7781,59332,26215
7755,59325,26203
7753,59335,26222
7782,59369,26282
7848,59432,26390
7959,59530,26555
8112,59666,26777
8299,59833,27047
8513,60021,27352
8749,60226,27684
8993,60443,28033
9235,60661,28385
9469,60871,28725
9692,61072,29049
9904,61266,29356
10103,61449,29640
10280,61611,29897
10436,61752,30124
10573,61875,30323
10690,61982,30492
10786,62070,30629
10865,62139,30735
10926,62189,30814
10966,62220,30864
10989,62236,30889
11002,62242,30899
11005,62242,30898
10996,62231,30880
10976,62209,30843
10951,62181,30797
10926,62156,30752
10901,62131,30707
10873,62101,30654
10842,62069,30597
10810,62037,30539
10779,62008,30486
10750,61980,30435
10721,61953,30387
10691,61931,30344
10664,61910,30306
10640,61887,30267
10612,61859,30226
10578,61829,30183
10546,61799,30134
10517,61770,30079
10484,61738,30021
10446,61703,29960
10402,61663,29896
10355,61619,29828
10311,61577,29763
10273,61540,29706
10237,61505,29653
10202,61472,29605
10175,61452,29569
10158,61439,29546
10148,61427,29531
10142,61416,29523
10139,61410,29522
10140,61408,29528
10147,61408,29536
10159,61412,29548
10175,61423,29565
10191,61438,29584
10210,61456,29606
10233,61478,29633
10260,61504,29664
10287,61532,29691
10311,61557,29712
10332,61581,29732
10348,61603,29749
10352,61616,29755
10344,61616,29747
10330,61608,29730
10312,61599,29711
10289,61584,29687
10257,61557,29652
10221,61522,29606
10184,61487,29554
10144,61450,29495
10099,61406,29430
10049,61358,29359
9995,61310,29287
9944,61264,29215
9896,61219,29139
9847,61173,29065
9797,61124,28993
9747,61073,28920
9699,61021,28845
9652,60972,28771
9602,60927,28700
9548,60881,28629
9491,60833,28558
9438,60789,28492
9388,60751,28429
9337,60711,28361
9285,60666,28291
9238,60624,28226
9197,60587,28163
9156,60546,28096
9113,60504,28026
9069,60465,27958
9023,60428,27891
8976,60387,27822
8928,60344,27751
8883,60302,27685
8837,60263,27622
8794,60227,27562
8758,60197,27511
8727,60172,27466
8693,60145,27420
8654,60115,27373
8616,60087,27327
8584,60066,27285
8554,60046,27238
8526,60020,27183
8502,59994,27127
8480,59976,27078
8460,59961,27038
8438,59943,27003
8415,59922,26968
8390,59902,26928
8363,59881,26891
8332,59856,26858
8295,59827,26825
8251,59798,26790
8205,59770,26749
8160,59739,26704
8113,59708,26658
8062,59675,26611
8010,59638,26557
7958,59596,26493
7909,59554,26426
7864,59513,26360
7819,59469,26293
7773,59423,26224
7726,59380,26152
7679,59337,26079
7629,59291,26002
7576,59241,25920
7520,59186,25837
7461,59130,25756
7402,59074,25673
7342,59023,25591
7281,58979,25515
7221,58940,25449
7169,58903,25390
7133,58880,25350
7121,58883,25343
7137,58914,25384
7188,58973,25476
7283,59068,25629
7425,59207,25852
7613,59383,26139
7841,59587,26478
8101,59815,26857
8385,60063,27265
8680,60321,27684
8977,60579,28096
9264,60830,28494
9534,61069,28872
9783,61293,29225
10009,61497,29543
10209,61679,29826
10382,61840,30076
10526,61975,30285
10644,62082,30453
10739,62167,30588
10812,62234,30695
10859,62276,30765
10879,62292,30800
10885,62294,30810
10878,62288,30802
10858,62270,30775
10829,62245,30733
10797,62218,30682
10758,62185,30622
10713,62147,30551
10666,62107,30474
10618,62065,30397
10567,62017,30318
10515,61967,30240
10467,61917,30166
10427,61870,30103
10390,61826,30049
10355,61782,29996
10323,61739,29946
10292,61702,29901
10258,61669,29857
10224,61638,29808
10190,61608,29756
10156,61580,29706
10118,61549,29654
10073,61509,29592
10025,61465,29525
9979,61424,29463
9934,61386,29405
9890,61351,29346
9849,61318,29287
9818,61293,29235
9798,61274,29195
9781,61257,29165
9767,61244,29144
9760,61236,29134
9758,61232,29132
9761,61231,29134
9768,61231,29139
9779,61235,29149
9796,61245,29166
9815,61257,29189
9828,61270,29212
9833,61284,29229
9834,61298,29243
9838,61311,29256
9842,61324,29270
9842,61333,29282
9844,61338,29288
9850,61344,29290
9852,61348,29290
9843,61348,29284
9828,61339,29268
9812,61321,29244
9795,61297,29213
9773,61269,29172
9743,61231,29119
9707,61187,29055
9666,61146,28987
9618,61108,28919
9563,61065,28848
9505,61018,28775
9450,60971,28701
9396,60924,28624
9340,60873,28541
9280,60818,28453
9216,60764,28360
9150,60710,28263
9086,60655,28166
9022,60599,28068
8954,60542,27974
8884,60485,27881
8814,60430,27786
8747,60379,27694
8678,60328,27603
8602,60273,27511
8525,60212,27417
8451,60152,27327
8379,60096,27243
8308,60043,27160
8239,59988,27075
8179,59938,26995
8126,59895,26920
8074,59851,26844
8022,59804,26770
7973,59761,26704
7928,59724,26642
7886,59688,26579
7849,59653,26516
7814,59622,26463
7776,59592,26416
7734,59560,26370
7694,59530,26322
7657,59502,26277
7619,59473,26230
7579,59443,26182
7543,59414,26137
7513,59388,26094
7483,59365,26050
7447,59337,26001
7407,59303,25945
7368,59268,25885
7330,59232,25823
7289,59193,25759
7243,59150,25695
7195,59106,25631
7144,59062,25561
7090,59019,25490
7039,58980,25425
6989,58941,25365
6937,58894,25300
6881,58840,25227
6824,58788,25155
6772,58743,25085
6720,58698,25014
6665,58648,24935
6608,58595,24850
6549,58544,24766
6491,58495,24682
6432,58443,24595
6370,58390,24504
6307,58342,24416
6250,58302,24340
6204,58272,24283
6172,58254,24251
6159,58254,24255
6179,58281,24310
6248,58343,24429
6372,58451,24627
6551,58611,24904
6776,58814,25248
7041,59052,25647
7342,59321,26091
7668,59609,26562
7997,59897,27036
8318,60176,27494
8627,60447,27932
8920,60704,28342
9186,60938,28712
9422,61144,29039
9626,61323,29322
9795,61476,29560
9931,61603,29753
10040,61705,29903
10122,61786,30017
10181,61845,30097
10218,61882,30143
10238,61903,30161
10243,61911,30156
10229,61903,30132
10199,61875,30086
10159,61832,30023
10115,61788,29950
10068,61744,29873
10017,61696,29789
9964,61643,29701
9913,61595,29613
9866,61551,29529
9818,61503,29443
9765,61450,29360
9712,61401,29284
9663,61360,29218
9620,61322,29158
9579,61282,29102
9537,61246,29049
9497,61212,28997
9456,61177,28941
9411,61139,28884
9361,61099,28823
9307,61053,28753
9250,61005,28679
9197,60959,28608
9150,60919,28543
9106,60882,28482
9069,60847,28426
9040,60820,28379
9019,60801,28342
9006,60788,28314
9003,60784,28300
9007,60792,28302
9015,60807,28312
9023,60822,28326
9036,60838,28342
9057,60857,28367
9085,60877,28401
9114,60897,28439
9143,60918,28478
9171,60942,28520
9199,60967,28566
9228,60990,28611
9256,61013,28652
9278,61037,28684
9293,61055,28704
9306,61065,28712
9320,61072,28717
9334,61082,28725
9341,61089,28724
9336,61084,28708
9322,61072,28683
9303,61060,28655
9281,61045,28622
9256,61022,28580
9222,60992,28528
9181,60961,28467
9137,60929,28403
9090,60894,28340
9039,60853,28277
8986,60809,28210
8931,60762,28135
8874,60711,28051
8821,60660,27965
8768,60611,27881
8709,60557,27793
8641,60498,27702
8575,60443,27614
8510,60393,27527
8443,60345,27439
8380,60300,27353
8320,60256,27271
8261,60206,27189
8202,60153,27106
8146,60101,27027
8091,60052,26953
8035,60004,26881
7980,59955,26806
7930,59909,26729
7886,59868,26656
7843,59829,26588
7797,59791,26523
7751,59751,26457
7705,59711,26392
7660,59670,26328
7615,59631,26267
7572,59594,26208
7528,59561,26147
7479,59524,26081
7425,59482,26013
7375,59442,25948
7329,59408,25891
7281,59378,25837
7233,59349,25783
7190,59324,25733
7153,59303,25690
7118,59282,25648
7083,59254,25601
7048,59221,25545
7011,59185,25483
6971,59145,25417
6929,59099,25349
6882,59050,25280
6831,59000,25209
6782,58955,25137
6737,58916,25066
6688,58878,24998
6631,58839,24930
6572,58795,24860
6522,58752,24793
6482,58716,24740
6454,58694,24708
6439,58683,24699
6444,58689,24720
6480,58725,24786
6553,58801,24908
6668,58914,25093
6827,59067,25343
7035,59261,25658
7287,59489,26027
7573,59741,26433
7877,60006,26860
8187,60278,27294
8489,60546,27720
8776,60803,28123
9048,61044,28502
9300,61268,28856
9523,61468,29176
9714,61637,29455
9877,61777,29691
10020,61899,29890
10142,62002,30053
10243,62084,30180
10318,62144,30273
10368,62184,30336
10392,62202,30368
10400,62201,30370
10395,62189,30352
10376,62168,30321
10343,62136,30274
10304,62098,30211
10265,62060,30143
10224,62023,30074
10179,61981,30000
10131,61931,29921
10084,61879,29841
10035,61831,29764
9983,61788,29692
9933,61749,29626
9885,61713,29562
9836,61676,29496
9788,61637,29429
9745,61601,29364
9706,61569,29301
9670,61537,29240
9634,61501,29174
9599,61461,29104
9563,61422,29037
9524,61385,28974
9482,61346,28910
9439,61303,28847
9401,61264,28788
9372,61231,28735
9351,61205,28688
9338,61184,28648
9329,61170,28622
9323,61161,28607
9321,61156,28598
9322,61158,28600
9328,61171,28616
9339,61187,28645
9352,61201,28681
9366,61216,28720
9386,61238,28765
9411,61264,28815
9435,61286,28863
9460,61305,28903
9489,61326,28936
9519,61349,28964
9543,61370,28987
9559,61388,29003
9566,61403,29011
9568,61414,29010
9566,61416,28999
9559,61412,28985
9548,61403,28969
9527,61387,28941
9497,61361,28898
9465,61331,28849
9427,61298,28796
9377,61254,28734
9319,61204,28664
9259,61152,28589
9196,61100,28509
9132,61046,28426
9070,60990,28340
9007,60932,28252
8942,60872,28161
8875,60810,28062
8810,60749,27959
8747,60690,27858
8677,60627,27760
8600,60557,27656
8521,60484,27546
8443,60413,27438
8365,60345,27333
8285,60276,27229
8206,60207,27126
8132,60144,27028
8064,60091,26937
8001,60044,26851
7944,60002,26768
7887,59960,26685
7831,59916,26603
7782,59873,26524
7741,59837,26454
7704,59806,26394
7663,59774,26334
7619,59735,26271
7578,59697,26213
7543,59665,26163
7509,59634,26116
7472,59599,26068
7431,59565,26018
7390,59535,25969
7353,59508,25920
7317,59480,25869
7274,59448,25815
7224,59412,25759
7172,59373,25696
7125,59331,25627
7082,59291,25561
7037,59254,25501
6986,59213,25440
6932,59171,25377
6886,59134,25320
6845,59103,25266
6805,59069,25206
6764,59032,25144
6722,58995,25082
6676,58955,25020
6628,58912,24957
6583,58868,24892
6539,58826,24826
6490,58782,24759
6438,58736,24688
6386,58689,24614
6337,58647,24545
6292,58613,24487
6255,58586,24446
6234,58574,24432
6235,58584,24453
6271,58622,24521
6350,58693,24649
6477,58806,24849
6652,58967,25125
6873,59168,25468
7133,59401,25863
7426,59663,26298
7743,59947,26757
8071,60240,27223
8393,60529,27681
8700,60806,28116
8989,61065,28523
9255,61303,28893
9494,61516,29222
9701,61698,29508
9875,61853,29754
10020,61982,29960
10138,62085,30123
10228,62163,30248
10294,62222,30339
10335,62261,30398
10355,62278,30425
10363,62282,30432
10361,62274,30422
10345,62251,30389
10313,62211,30336
10270,62167,30273
10223,62121,30203
10171,62069,30125
10115,62009,30038
10057,61948,29948
9998,61885,29857
9937,61823,29764
9879,61765,29675
9827,61713,29597
9775,61664,29527
9723,61615,29459
9676,61569,29391
9634,61528,29328
9594,61489,29268
9551,61449,29206
9505,61409,29145
9459,61368,29083
9411,61328,29017
9363,61288,28945
9316,61247,28873
9269,61207,28806
9223,61169,28743
9182,61132,28685
9154,61104,28639
9134,61085,28607
9118,61070,28582
9106,61057,28561
9101,61053,28551
9103,61058,28554
9112,61069,28567
9125,61081,28591
9140,61092,28620
9156,61105,28652
9175,61125,28685
9198,61149,28716
9223,61178,28750
9247,61208,28789
9269,61231,28825
9290,61246,28856
9313,61260,28886
9335,61275,28912
9349,61287,28930
9358,61293,28938
9364,61292,28938
9363,61284,28929
9354,61269,28912
9339,61252,28887
9320,61234,28855
9293,61210,28814
9259,61176,28760
9217,61136,28699
9169,61093,28634
9114,61048,28565
9054,60999,28485
8994,60947,28401
8933,60895,28323
8870,60839,28247
8805,60776,28167
8738,60711,28079
8667,60645,27986
8595,60576,27891
8524,60508,27796
8455,60439,27701
8385,60372,27604
8313,60310,27502
8242,60252,27397
8177,60199,27296
8114,60150,27198
8041,60096,27099
7963,60037,26998
7891,59980,26903
7826,59928,26815
7764,59876,26726
7703,59819,26636
7645,59763,26549
7590,59714,26467
7541,59669,26391
7496,59624,26319
7447,59578,26247
7392,59529,26173
7338,59483,26099
7288,59439,26030
7239,59397,25967
7190,59354,25908
7141,59309,25849
7093,59265,25788
7049,59227,25729
7007,59195,25675
6965,59160,25618
6922,59120,25556
6879,59081,25496
6835,59041,25437
6788,58998,25374
6738,58954,25311
6689,58912,25249
6639,58871,25184
6587,58827,25115
6532,58781,25041
6478,58737,24970
6421,58694,24899
6360,58648,24827
6303,58601,24755
6257,58564,24690
6219,58535,24633
6189,58510,24587
6169,58492,24559
6163,58490,24557
6180,58510,24592
6229,58562,24678
6322,58653,24830
6462,58786,25048
6643,58960,25324
6866,59169,25655
7129,59409,26040
7422,59672,26465
7727,59945,26907
8034,60217,27347
8333,60483,27772
8620,60739,28177
8892,60980,28554
9148,61203,28900
9378,61402,29209
9574,61573,29477
9738,61716,29705
9874,61835,29895
9982,61935,30055
10067,62016,30185
10131,62074,30280
10175,62110,30341
10204,62133,30378
10220,62144,30396
10222,62142,30389
10209,62128,30358
10185,62106,30310
10153,62077,30249
10114,62038,30175
10072,61995,30096
10027,61951,30017
9978,61905,29940
9926,61853,29860
9874,61798,29781
9820,61748,29707
9765,61699,29633
9711,61646,29556
9659,61592,29480
9610,61543,29413
9559,61501,29349
9509,61459,29284
9461,61419,29219
9418,61384,29157
9380,61351,29097
9344,61314,29033
9305,61272,28967
9265,61231,28902
9229,61192,28845
9202,61156,28798
9182,61125,28761
9163,61100,28734
9145,61081,28713
9134,61069,28697
9133,61070,28694
9141,61082,28705
9152,61097,28725
9167,61112,28754
9189,61132,28791
9215,61157,28834
9243,61183,28879
9277,61213,28929
9315,61249,28986
9351,61285,29040
9387,61320,29089
9426,61353,29134
9462,61385,29174
9490,61411,29205
9509,61426,29221
9521,61433,29228
9526,61438,29232
9523,61441,29232
