green_channel,red_channel,ir_channel
60789,32766,41377
60740,32721,41295
60679,32666,41195
60601,32597,41071
60510,32517,40926
60412,32429,40769
60311,32337,40599
60206,32241,40419
60104,32149,40244
60006,32065,40078
59909,31985,39921
59811,31906,39773
59719,31833,39639
59639,31772,39519
59567,31719,39412
59502,31669,39315
59451,31629,39237
59411,31598,39175
59376,31568,39119
59346,31540,39070
59323,31519,39031
59305,31501,38998
59290,31484,38963
59276,31467,38926
59261,31454,38893
59242,31441,38862
59217,31420,38822
59187,31392,38777
59156,31364,38729
59118,31334,38671
59071,31299,38599
59018,31256,38516
58963,31210,38426
58906,31161,38325
58840,31105,38208
58766,31042,38078
58684,30975,37937
58590,30900,37783
58485,30813,37612
58372,30717,37427
58256,30617,37235
58133,30510,37034
58002,30396,36821
57865,30278,36598
57727,30162,36373
57589,30045,36144
57445,29926,35909
57298,29807,35673
57153,29692,35443
57010,29581,35217
56867,29472,34993
56726,29368,34774
56590,29269,34562
56457,29170,34354
56327,29069,34145
56200,28969,33941
56078,28872,33747
55958,28777,33556
55842,28685,33366
55728,28598,33182
55617,28514,33007
55507,28428,32833
55398,28341,32657
55294,28260,32484
55197,28184,32321
55101,28104,32162
55006,28019,32004
54914,27937,31853
54828,27861,31709
54744,27788,31567
54663,27718,31429
54588,27657,31300
54515,27600,31178
54441,27540,31054
54366,27478,30930
54292,27417,30814
54216,27357,30702
54136,27294,30591
54057,27233,30484
53986,27180,30384
53920,27130,30285
53853,27075,30179
53782,27018,30069
53710,26961,29959
53635,26903,29849
53557,26841,29733
53479,26779,29613
53404,26723,29497
53333,26670,29383
53263,26615,29268
53193,26561,29154
53125,26510,29043
53055,26459,28932
52982,26402,28818
52910,26342,28703
52840,26285,28593
52770,26229,28482
52697,26172,28369
52626,26118,28259
52556,26065,28154
52482,26011,28051
52406,25955,27948
52335,25902,27848
52264,25849,27748
52189,25792,27640
52112,25732,27528
52038,25671,27420
51965,25613,27315
51891,25556,27210
51818,25503,27105
51749,25456,27006
51683,25412,26910
51618,25368,26811
51551,25323,26710
51484,25277,26611
51414,25230,26511
51341,25180,26405
51266,25127,26294
51193,25077,26184
51119,25030,26077
51042,24979,25971
50967,24926,25867
50899,24874,25770
50833,24824,25679
50774,24779,25599
50729,24746,25543
50708,24732,25526
50717,24745,25560
50763,24790,25658
50860,24878,25846
51025,25024,26155
51275,25236,26611
51623,25525,27234
52082,25901,28040
52647,26365,29018
53300,26899,30125
54011,27476,31306
54741,28069,32506
55452,28652,33672
56118,29197,34758
56726,29689,35738
57267,30122,36602
57736,30499,37351
58133,30817,37985
58465,31078,38506
58738,31291,38928
58957,31461,39263
59122,31589,39519
59243,31682,39703
59330,31748,39831
59389,31790,39912
59420,31808,39953
59430,31810,39963
59429,31805,39957
59421,31795,39941
59402,31776,39910
59375,31750,39870
59347,31722,39828
59320,31693,39783
59292,31661,39733
59267,31632,39685
59249,31613,39645
59236,31599,39612
59224,31583,39579
59215,31569,39551
59215,31565,39533
59221,31563,39521
59230,31561,39511
59240,31562,39505
59251,31567,39506
59261,31574,39511
59270,31581,39516
59278,31587,39519
59283,31592,39518
59278,31589,39504
59263,31576,39475
59237,31555,39430
59197,31525,39367
59143,31484,39284
59078,31431,39180
59003,31372,39060
58917,31307,38925
58820,31234,38774
58718,31157,38609
58615,31077,38438
58514,30992,38269
58411,30904,38102
58312,30816,37940
58218,30736,37790
58129,30662,37655
58047,30591,37528
57980,30528,37414
57927,30479,37322
57888,30441,37252
57861,30411,37196
57846,30391,37154
57844,30384,37132
57850,30386,37123
57854,30386,37115
57854,30387,37110
57855,30394,37112
57859,30405,37117
57859,30411,37115
57855,30412,37107
57849,30413,37098
57838,30408,37084
57819,30396,37058
57795,30380,37020
57768,30363,36974
57729,30339,36917
57678,30300,36840
57617,30250,36743
57546,30191,36632
57460,30120,36505
57361,30036,36358
57258,29947,36198
57152,29856,36029
57043,29762,35849
56931,29666,35661
56818,29571,35468
56701,29476,35273
56581,29377,35071
56459,29276,34863
56334,29174,34650
56207,29071,34437
56076,28966,34222
55944,28861,34005
55817,28761,33793
55693,28667,33591
55573,28575,33395
55457,28483,33203
55346,28394,33018
55238,28305,32837
55130,28214,32657
55024,28123,32480
54925,28038,32312
54829,27957,32152
54731,27876,31991
54634,27797,31834
54542,27724,31686
54453,27656,31544
54364,27588,31404
54277,27525,31269
54196,27472,31146
54119,27425,31034
54042,27374,30925
53967,27321,30816
53897,27272,30711
53829,27222,30607
53760,27169,30498
53692,27114,30388
53630,27064,30285
53570,27016,30185
53510,26967,30087
53455,26920,29991
53403,26878,29897
53349,26834,29801
53292,26784,29701
53232,26733,29602
53171,26686,29508
53108,26639,29413
53043,26590,29316
52981,26541,29218
52920,26496,29123
52861,26449,29026
52802,26401,28927
52746,26358,28830
52687,26315,28733
52621,26266,28629
52548,26212,28519
52473,26156,28408
52397,26097,28295
52317,26036,28177
52236,25974,28058
52159,25915,27942
52084,25859,27828
52011,25801,27714
51940,25745,27606
51871,25693,27502
51802,25642,27401
51734,25592,27303
51673,25547,27215
51624,25515,27147
51592,25497,27103
51580,25494,27088
51595,25511,27123
51649,25562,27234
51756,25656,27442
51933,25804,27775
52200,26024,28260
52567,26330,28910
53034,26719,29719
53591,27180,30663
54217,27697,31701
54881,28244,32785
55545,28790,33859
56183,29310,34879
56779,29790,35824
57324,30224,36683
57807,30605,37444
58226,30931,38104
58587,31209,38667
58890,31448,39140
59138,31646,39524
59336,31802,39826
59491,31924,40062
59608,32019,40244
59693,32086,40375
59754,32130,40464
59798,32162,40522
59828,32187,40558
59846,32204,40574
59856,32208,40572
59861,32207,40561
59863,32202,40543
59859,32190,40513
59850,32170,40476
59838,32152,40442
59826,32135,40409
59809,32113,40370
59793,32088,40329
59781,32068,40296
59775,32053,40271
59770,32039,40250
59770,32026,40234
59777,32023,40229
59788,32024,40233
59796,32024,40236
59803,32023,40239
59813,32027,40245
59823,32030,40251
59828,32025,40247
59828,32016,40231
59823,32006,40204
59804,31987,40158
59770,31953,40084
59724,31905,39988
59666,31851,39878
59594,31788,39753
59510,31717,39612
59418,31642,39463
59321,31568,39313
59220,31489,39159
59118,31404,39000
59022,31325,38848
58937,31255,38708
58857,31190,38578
58785,31130,38459
58723,31080,38359
58672,31041,38280
58630,31005,38216
58595,30972,38163
58571,30949,38124
58554,30935,38095
58540,30922,38070
58529,30910,38046
58524,30908,38029
58520,30911,38017
58513,30911,38004
58504,30905,37988
58496,30897,37974
58489,30888,37956
58476,30871,37925
58456,30847,37883
58432,30822,37838
58403,30793,37786
58362,30754,37716
58313,30710,37630
58257,30667,37532
58193,30618,37424
58114,30557,37300
58021,30485,37162
57920,30408,37014
57813,30326,36856
57702,30234,36682
57586,30136,36495
57464,30036,36300
57336,29932,36096
57203,29823,35881
57068,29712,35664
56936,29605,35451
56807,29499,35236
56679,29392,35015
56558,29289,34799
56441,29191,34589
56323,29092,34382
56203,28991,34176
56081,28893,33974
55959,28799,33781
55838,28705,33590
55720,28612,33404
55608,28526,33228
55502,28450,33066
55400,28375,32907
55301,28300,32749
55208,28227,32600
55118,28154,32457
55028,28079,32309
54939,28001,32158
54850,27927,32013
54761,27857,31876
54672,27785,31739
54585,27713,31604
54502,27648,31474
54423,27587,31345
54344,27523,31212
54265,27462,31082
54192,27408,30961
54121,27358,30845
54048,27306,30729
53979,27254,30614
53915,27207,30507
53855,27160,30404
53795,27108,30302
53737,27055,30203
53678,27007,30110
53617,26962,30020
53552,26916,29925
53488,26870,29829
53422,26824,29735
53353,26776,29637
53282,26723,29532
53215,26669,29429
53153,26618,29331
53093,26567,29234
53033,26514,29137
52973,26465,29043
52913,26418,28953
52851,26371,28864
52787,26321,28772
52722,26270,28680
52658,26221,28588
52592,26171,28490
52526,26119,28386
52462,26067,28281
52398,26015,28177
52330,25960,28069
52259,25902,27956
52190,25849,27844
52122,25802,27733
52052,25753,27616
51981,25702,27495
51914,25654,27378
51847,25607,27263
51774,25556,27148
51702,25504,27037
51634,25457,26937
51566,25412,26845
51500,25368,26758
51444,25331,26685
51408,25310,26642
51398,25308,26641
51421,25330,26699
51490,25389,26838
51624,25503,27094
51842,25685,27496
52161,25945,28067
52592,26295,28824
53132,26738,29759
53760,27257,30825
54443,27819,31962
55149,28397,33112
55845,28964,34232
56508,29500,35287
57120,29988,36252
57673,30428,37118
58163,30819,37883
58584,31156,38537
58935,31436,39079
59226,31665,39524
59462,31851,39883
59648,31997,40159
59792,32105,40366
59902,32185,40524
59984,32245,40640
60042,32283,40716
60084,32305,40761
60119,32319,40791
60146,32328,40812
60164,32328,40820
60175,32326,40820
60184,32329,40823
60194,32336,40828
60203,32338,40828
60212,32338,40830
60228,32345,40844
60252,32360,40864
60276,32372,40882
60300,32383,40898
60326,32397,40920
60353,32414,40943
60378,32428,40962
60405,32444,40985
60438,32466,41017
60474,32491,41056
60510,32514,41094
60547,32535,41128
60583,32557,41161
60616,32576,41190
60642,32590,41213
60658,32600,41229
60665,32606,41236
60663,32605,41226
60652,32592,41194
60630,32569,41144
60597,32538,41078
60552,32497,40995
60497,32448,40893
60437,32393,40776
60369,32331,40647
60293,32262,40507
60212,32187,40360
60130,32114,40220
60050,32047,40087
59970,31983,39962
59897,31921,39844
59833,31865,39738
59777,31815,39646
59729,31770,39565
59690,31735,39496
59662,31710,39444
59640,31693,39405
59617,31679,39371
59597,31666,39341
59582,31657,39315
59567,31649,39290
59548,31635,39261
59530,31620,39229
59513,31605,39200
59496,31588,39168
59478,31566,39126
59460,31544,39080
59439,31524,39034
59408,31497,38982
59364,31460,38916
59309,31417,38842
59244,31369,38762
59171,31313,38670
59094,31247,38562
59019,31177,38440
58942,31104,38308
58858,31029,38163
58764,30949,38003
58665,30867,37836
58561,30783,37667
58451,30693,37489
58337,30597,37301
58222,30504,37110
58106,30412,36917
57985,30314,36718
57860,30210,36516
57736,30106,36316
57612,30004,36114
57484,29899,35907
57354,29793,35697
57227,29690,35494
57102,29590,35299
56980,29489,35108
56864,29391,34923
56755,29299,34744
56650,29212,34568
56545,29126,34392
56440,29041,34218
56341,28959,34053
56244,28879,33893
56145,28798,33735
56046,28719,33578
55948,28644,33427
55851,28570,33276
55755,28495,33123
55663,28421,32976
55578,28353,32839
55496,28289,32705
55413,28225,32570
55332,28163,32439
55256,28105,32315
55180,28050,32193
55102,27992,32070
55026,27932,31952
54953,27874,31840
54881,27815,31725
54806,27756,31602
54729,27696,31476
54652,27638,31349
54571,27579,31220
54487,27517,31087
54406,27455,30953
54330,27395,30825
54254,27336,30703
54178,27277,30586
54106,27221,30476
54036,27169,30370
53968,27116,30264
53901,27062,30156
53834,27008,30049
53764,26953,29939
53688,26893,29824
53612,26831,29709
53541,26773,29599
53474,26719,29494
53408,26666,29386
53345,26618,29276
53283,26575,29173
53219,26533,29074
53151,26485,28969
53085,26434,28859
53020,26384,28749
52953,26335,28635
52879,26280,28514
52801,26220,28390
52722,26160,28269
52638,26097,28149
52549,26028,28025
52460,25958,27899
52378,25893,27779
52301,25833,27663
52224,25772,27544
52147,25710,27424
52070,25653,27308
51993,25599,27195
51917,25544,27083
51844,25492,26977
51777,25446,26880
51715,25405,26792
51662,25369,26714
51627,25346,26664
51619,25345,26658
51643,25369,26708
51710,25425,26834
51838,25529,27070
52046,25700,27451
52350,25950,28001
52761,26287,28732
53283,26717,29639
53898,27227,30688
54574,27784,31821
55273,28354,32977
55965,28917,34111
56624,29455,35184
57233,29952,36169
57781,30400,37053
58268,30796,37830
58690,31139,38495
59044,31424,39047
59336,31656,39495
59572,31843,39854
59757,31991,40135
59899,32102,40345
60010,32182,40497
60096,32241,40607
60158,32277,40686
60196,32294,40733
60217,32300,40755
60232,32302,40762
60239,32299,40755
60238,32286,40731
60232,32271,40700
60226,32256,40671
60215,32241,40640
60201,32222,40607
60186,32206,40576
60176,32198,40554
60171,32195,40540
60172,32192,40528
60181,32193,40519
60196,32200,40518
60213,32211,40522
60230,32224,40526
60251,32239,40534
60271,32254,40547
60291,32266,40560
60310,32275,40571
60326,32283,40581
60336,32288,40588
60337,32283,40580
60326,32266,40553
60304,32240,40511
60268,32202,40455
60217,32148,40377
60152,32081,40274
60079,32013,40152
59997,31941,40013
59902,31860,39855
59800,31773,39682
59696,31687,39506
59590,31601,39332
59483,31513,39159
59380,31426,38990
59288,31346,38834
59203,31272,38692
59123,31203,38563
59049,31143,38451
58986,31099,38363
58934,31063,38292
58892,31030,38233
58861,31003,38188
58844,30986,38159
58834,30978,38143
58829,30971,38133
58829,30967,38128
58832,30970,38131
58836,30973,38136
58840,30973,38135
58843,30969,38127
58843,30966,38116
58837,30961,38097
58823,30950,38068
58803,30935,38031
58782,30920,37989
58753,30895,37932
58711,30858,37857
58660,30814,37770
58602,30768,37669
58533,30713,37551
58453,30648,37418
58360,30575,37271
58256,30496,37111
58144,30408,36939
58029,30315,36758
57913,30221,36572
57795,30125,36383
57674,30023,36187
57550,29921,35984
57425,29822,35783
57300,29725,35582
57174,29628,35377
57054,29529,35169
56939,29431,34967
56827,29332,34769
56711,29228,34570
56592,29122,34373
56476,29022,34183
56361,28928,33996
56246,28834,33809
56134,28742,33627
56027,28659,33456
55921,28581,33294
55816,28504,33136
55716,28428,32985
55621,28358,32845
55528,28289,32711
55434,28219,32580
55344,28152,32453
55262,28093,32334
55186,28036,32216
55116,27980,32094
55051,27926,31975
54991,27876,31863
54930,27826,31754
54869,27775,31643
54810,27727,31540
54754,27686,31447
54699,27648,31357
54643,27606,31266
54586,27563,31177
54526,27521,31088
54460,27475,30994
54391,27424,30894
54324,27375,30794
54261,27330,30695
54197,27282,30595
54131,27232,30495
54067,27183,30399
54003,27133,30304
53936,27080,30203
53864,27025,30096
53796,26973,29990
53730,26926,29882
53660,26876,29768
53586,26821,29648
53513,26766,29529
53441,26713,29411
53367,26656,29290
53292,26599,29167
53220,26547,29045
53145,26496,28924
53066,26440,28803
52987,26385,28685
52915,26337,28575
52849,26290,28473
52788,26243,28378
52735,26200,28297
52698,26171,28242
52681,26158,28223
52690,26167,28253
52738,26212,28356
52843,26309,28565
53024,26468,28907
53296,26699,29400
53667,27009,30059
54136,27402,30877
54688,27864,31821
55298,28371,32842
55937,28900,33896
56575,29430,34941
57190,29936,35937
57767,30405,36862
58298,30835,37705
58773,31221,38456
59185,31554,39104
59536,31833,39647
59830,32065,40098
60068,32254,40470
60255,32403,40767
60400,32518,40998
60512,32605,41174
60597,32668,41300
60658,32709,41380
60702,32733,41428
60737,32747,41456
60760,32753,41469
60772,32750,41464
60778,32741,41445
60778,32729,41422
60770,32711,41393
60756,32688,41354
60742,32666,41313
60732,32652,41279
60726,32644,41248
60721,32638,41218
60719,32632,41195
60718,32631,41185
60719,32634,41186
60719,32635,41186
60720,32636,41189
60729,32644,41202
60747,32655,41222
60766,32663,41238
60781,32669,41247
60795,32674,41250
60803,32675,41239
60802,32666,41210
60791,32650,41168
60768,32626,41115
60728,32589,41042
60673,32540,40949
60607,32485,40843
60531,32426,40723
60443,32357,40582
60349,32279,40423
60255,32196,40258
60158,32110,40092
60058,32017,39921
59959,31925,39755
59869,31842,39606
59788,31771,39475
59713,31706,39354
59648,31646,39243
59595,31597,39151
59553,31559,39077
59519,31530,39018
59493,31510,38974
59477,31501,38950
59468,31499,38937
59460,31499,38928
59452,31500,38922
59447,31503,38921
59443,31504,38919
59439,31499,38911
59436,31491,38901
59434,31486,38891
59423,31479,38877
59403,31465,38849
59379,31447,38810
59354,31426,38762
59319,31398,38702
59271,31358,38626
59214,31308,38533
59150,31255,38430
59076,31194,38316
58994,31122,38186
58905,31043,38043
58810,30962,37889
58704,30876,37719
58588,30782,37531
58466,30685,37334
58341,30588,37134
58213,30486,36930
58083,30381,36720
57952,30277,36506
57817,30173,36287
57678,30064,36063
57541,29954,35838
57411,29846,35619
57285,29741,35403
57159,29636,35188
57036,29531,34978
56917,29430,34781
56798,29332,34595
56681,29234,34410
56570,29141,34225
56465,29058,34050
56363,28978,33882
56258,28895,33716
56153,28810,33555
56052,28731,33401
55959,28659,33252
55870,28588,33100
55787,28521,32952
55709,28462,32815
55632,28405,32685
55550,28343,32550
55469,28277,32413
55390,28214,32281
55309,28151,32152
55224,28084,32021
55137,28018,31892
55056,27957,31772
54981,27898,31656
54908,27839,31541
54838,27785,31428
54769,27736,31320
54698,27687,31208
54625,27635,31095
54555,27584,30987
54490,27534,30885
54427,27483,30783
54361,27429,30677
54295,27377,30570
54231,27324,30466
54164,27267,30360
54095,27212,30249
54027,27160,30140
53961,27112,30037
53891,27062,29936
53821,27011,29837
53755,26964,29745
53691,26920,29656
53626,26873,29560
53565,26827,29460
53506,26785,29361
53446,26743,29261
53381,26696,29154
53313,26644,29042
53243,26591,28934
53171,26537,28828
53094,26478,28721
53016,26416,28611
52943,26357,28500
52871,26301,28385
52799,26241,28262
52728,26180,28139
52660,26123,28025
52591,26069,27914
52518,26014,27800
52445,25958,27687
52373,25905,27582
52302,25852,27478
52231,25801,27373
52162,25756,27271
52097,25717,27179
52037,25680,27094
51983,25646,27017
51945,25621,26962
51930,25614,26950
51945,25631,26996
52004,25682,27124
52129,25785,27367
52339,25958,27760
52650,26213,28326
53076,26561,29078
53614,27003,30008
54245,27527,31083
54936,28101,32242
55654,28692,33426
56369,29277,34587
57053,29838,35692
57687,30356,36710
58264,30820,37626
58774,31230,38432
59210,31585,39124
59574,31883,39698
59875,32125,40164
60125,32322,40539
60325,32478,40834
60479,32595,41059
60597,32682,41229
60687,32750,41359
60753,32799,41452
60800,32829,41507
60834,32847,41536
60858,32861,41551
60870,32870,41556
60873,32868,41549
60874,32860,41535
60877,32854,41523
60883,32852,41515
60891,32849,41510
60900,32846,41510
60910,32848,41517
60921,32852,41525
60934,32856,41533
60951,32862,41545
60973,32874,41561
60999,32890,41584
61025,32906,41613
61053,32926,41651
61083,32949,41696
61112,32972,41738
61141,32991,41774
61169,33006,41808
61194,33020,41838
61214,33027,41858
61232,33029,41868
61246,33030,41870
61249,33027,41859
61236,33013,41824
61211,32986,41763
61174,32949,41685
61122,32900,41588
61054,32838,41468
60974,32768,41328
60889,32694,41177
60798,32617,41019
60702,32531,40855
60603,32442,40689
60506,32358,40531
60411,32276,40381
60319,32193,40234
60234,32116,40095
60160,32048,39973
60094,31988,39867
60036,31932,39773
59989,31885,39692
59954,31848,39625
59926,31819,39573
59900,31796,39529
59878,31778,39494
59863,31766,39470
59851,31755,39449
59838,31741,39424
59823,31728,39395
59806,31716,39367
59786,31702,39337
59762,31679,39300
59736,31653,39256
59709,31628,39206
59676,31599,39143
59634,31562,39067
59583,31519,38983
59524,31470,38891
59453,31411,38784
59372,31345,38659
59286,31278,38524
59197,31212,38382
59101,31141,38228
58998,31062,38062
58891,30978,37890
58779,30890,37711
58659,30793,37521
58534,30686,37322
58409,30580,37124
58285,30475,36928
58159,30368,36725
58032,30259,36518
57907,30153,36317
57782,30048,36121
57653,29943,35920
57524,29838,35714
57400,29740,35513
57281,29646,35321
57165,29551,35132
57051,29456,34947
56942,29370,34769
56834,29289,34595
56722,29207,34418
56611,29124,34243
56505,29045,34077
56403,28969,33916
56303,28895,33754
56206,28821,33596
56115,28751,33447
56026,28682,33300
55936,28612,33151
55849,28542,33002
55764,28474,32858
55677,28404,32716
55593,28332,32576
55511,28260,32441
55430,28189,32310
55348,28119,32180
55265,28051,32050
55189,27986,31927
55117,27924,31809
55045,27860,31692
54976,27800,31577
54909,27747,31467
54842,27698,31359
54769,27643,31246
54692,27584,31129
54616,27525,31016
54542,27467,30904
54463,27404,30788
54383,27341,30669
54306,27281,30552
54230,27224,30435
54152,27164,30315
54075,27103,30192
53997,27045,30076
53918,26989,29962
53842,26932,29846
53771,26875,29730
53705,26822,29618
53639,26770,29506
53570,26714,29389
53498,26657,29274
53428,26606,29167
53357,26557,29065
53284,26508,28963
53216,26461,28866
53153,26419,28774
53089,26380,28681
53026,26339,28584
52967,26297,28488
52911,26256,28401
52854,26216,28317
52798,26174,28233
52746,26133,28149
52697,26094,28070
52645,26052,27990
52590,26006,27908
52534,25962,27826
52478,25919,27741
52419,25873,27649
52357,25823,27551
52297,25774,27453
52234,25729,27355
52167,25685,27254
52099,25642,27151
52031,25602,27051
51961,25561,26953
51889,25514,26853
51818,25464,26753
51751,25415,26660
51685,25368,26574
51619,25321,26492
51562,25278,26418
51522,25248,26369
51504,25238,26357
51513,25246,26390
51563,25284,26494
51678,25375,26702
51874,25532,27046
52162,25767,27554
52560,26095,28253
53075,26522,29146
53694,27033,30200
54388,27604,31360
55122,28207,32569
55863,28815,33774
56578,29403,34927
57243,29949,35991
57847,30443,36952
58384,30882,37806
58848,31261,38544
59237,31577,39162
59560,31836,39671
59823,32047,40080
60032,32214,40399
60195,32339,40640
60320,32430,40823
60415,32494,40957
60482,32533,41046
60524,32551,41096
60547,32555,41125
60560,32551,41142
60565,32538,41142
60564,32517,41122
60560,32498,41099
60556,32483,41076
60548,32466,41049
60538,32449,41022
60534,32436,41000
60534,32431,40984
60532,32426,40970
60531,32422,40957
60537,32426,40954
60549,32439,40961
60562,32453,40971
60577,32467,40984
60599,32485,41004
60626,32505,41029
60653,32523,41053
60677,32540,41074
60703,32560,41098
60725,32581,41120
60740,32594,41133
60749,32597,41137
60753,32593,41130
60743,32582,41104
60715,32554,41051
60672,32514,40973
60617,32464,40877
60552,32404,40765
60473,32330,40630
60382,32247,40478
60282,32160,40315
60175,32067,40141
60065,31967,39960
59960,31871,39785
59861,31785,39621
59766,31704,39464
59678,31629,39317
59601,31565,39189
59535,31515,39086
59477,31471,39000
59431,31436,38932
59398,31414,38883
59375,31402,38850
59360,31392,38824
59353,31386,38807
59354,31386,38797
59355,31390,38789
59353,31392,38779
59350,31391,38768
59350,31392,38763
59348,31391,38759
59340,31382,38747
59328,31367,38725
59312,31353,38695
59288,31336,38654
59251,31307,38596
59205,31270,38526
59151,31231,38447
59090,31190,38357
59023,31137,38252
58953,31074,38134
58880,31007,38008
58799,30933,37869
58708,30852,37716
58609,30770,37553
58509,30689,37385
58407,30607,37210
58300,30518,37027
58190,30427,36842
58080,30339,36657
57969,30248,36470
57852,30153,36278
57735,30058,36086
57620,29965,35897
57505,29869,35707
57388,29771,35515
57273,29675,35329
57161,29584,35148
57049,29496,34969
56939,29409,34792
56834,29327,34623
56732,29249,34462
56632,29172,34301
56538,29095,34138
56450,29022,33984
56366,28955,33839
56280,28889,33696
56194,28825,33559
56110,28764,33430
56026,28701,33305
55942,28634,33181
55860,28566,33058
55782,28502,32942
55706,28441,32828
55629,28379,32712
55553,28319,32594
55482,28263,32484
55413,28208,32375
55342,28150,32261
55274,28092,32145
55211,28041,32038
55150,27993,31934
55085,27940,31822
55016,27882,31708
54950,27827,31601
54886,27773,31496
54817,27716,31383
54745,27658,31266
54674,27603,31154
54604,27547,31045
54534,27489,30933
54464,27432,30821
54395,27379,30712
54326,27330,30604
54257,27278,30494
54189,27223,30385
54120,27169,30276
54046,27115,30165
53970,27060,30051
53896,27011,29938
53825,26966,29827
53751,26916,29710
53679,26861,29583
53609,26802,29455
53538,26737,29330
53462,26666,29202
53381,26592,29074
53301,26522,28953
53226,26460,28839
53150,26400,28725
53076,26342,28611
53003,26290,28500
52931,26242,28389
52858,26192,28275
52785,26143,28164
52717,26099,28068
52660,26065,27993
52617,26039,27936
52597,26029,27913
52611,26047,27952
52671,26101,28070
52788,26199,28289
52982,26359,28639
53269,26599,29152
53657,26922,29835
54140,27323,30676
54711,27795,31654
55346,28323,32729
56012,28876,33840
56675,29424,34933
57314,29952,35972
57913,30444,36940
58459,30892,37819
58945,31287,38594
59370,31629,39264
59731,31920,39831
60028,32158,40296
60266,32345,40666
60455,32494,40959
60605,32612,41189
60717,32700,41358
60797,32759,41473
60851,32797,41549
60884,32822,41595
60898,32834,41609
60899,32833,41598
60895,32826,41574
60887,32816,41543
60871,32799,41501
60850,32775,41449
60828,32749,41397
60805,32725,41347
60778,32697,41298
60754,32669,41256
60736,32650,41226
60726,32639,41204
60718,32631,41184
60713,32626,41167
60714,32626,41157
60718,32627,41149
60725,32626,41141
60738,32632,41137
60755,32644,41141
60770,32653,41146
60777,32652,41145
60776,32645,41132
60769,32631,41107
60749,32606,41064
60714,32569,41002
60665,32520,40919
60602,32463,40818
60525,32399,40697
60434,32325,40555
60334,32243,40398
60228,32154,40231
60116,32059,40056
60002,31960,39873
59889,31864,39691
59781,31777,39516
59681,31695,39351
59590,31618,39197
59510,31548,39060
59444,31486,38940
59388,31429,38833
59340,31378,38739
59298,31336,38663
59260,31305,38602
59225,31279,38550
59196,31258,38509
59175,31246,38483
59161,31243,38471
59151,31241,38464
59143,31239,38455
59142,31239,38447
59142,31240,38438
59134,31233,38419
59118,31217,38389
59098,31198,38353
59072,31176,38306
59037,31145,38242
58992,31107,38164
58940,31064,38075
58878,31014,37972
58803,30952,37848
58719,30883,37709
58628,30811,37559
58530,30734,37397
58423,30650,37221
58312,30562,37038
58198,30473,36848
58079,30377,36648
57954,30273,36436
57827,30165,36222
57697,30054,36007
57561,29941,35786
57423,29826,35556
57287,29711,35323
57155,29600,35093
57023,29491,34864
56892,29383,34638
56769,29277,34423
56650,29176,34218
56534,29078,34017
56419,28981,33822
56309,28887,33634
56198,28792,33451
56084,28697,33266
55971,28602,33083
55864,28513,32910
55760,28431,32749
55658,28349,32591
55560,28268,32433
55468,28194,32284
55379,28125,32146
55288,28057,32009
55199,27992,31871
55116,27931,31740
55038,27875,31616
54958,27816,31488
54880,27756,31357
54809,27698,31233
54741,27642,31116
54670,27582,30997
54599,27522,30881
54533,27467,30772
54470,27415,30666
54401,27358,30553
54328,27297,30436
54257,27239,30324
54187,27182,30216
54117,27119,30107
54051,27057,30003
53988,27000,29904
53923,26945,29806
53855,26890,29707
53787,26838,29610
53718,26791,29515
53646,26745,29416
53574,26696,29312
53505,26646,29208
53437,26598,29106
53366,26550,29001
53297,26501,28895
53231,26451,28791
53169,26399,28686
53106,26345,28577
53042,26290,28468
52980,26240,28365
52918,26192,28270
52854,26142,28173
52791,26089,28069
52729,26040,27964
52667,25993,27861
52601,25942,27756
52537,25888,27650
52476,25834,27547
52414,25780,27448
52348,25723,27348
52280,25663,27244
52212,25608,27143
52148,25558,27044
52086,25508,26944
52023,25455,26844
51962,25406,26750
51901,25361,26658
51835,25315,26561
51768,25267,26462
51707,25226,26366
51648,25188,26272
51587,25147,26179
51529,25105,26090
51474,25067,26006
51420,25031,25926
51365,24994,25846
51317,24961,25776
51284,24938,25728
51267,24925,25708
51274,24930,25729
51322,24970,25817
51425,25057,26002
51596,25201,26310
51849,25413,26773
52206,25711,27420
52677,26104,28264
53253,26586,29286
53918,27138,30445
54647,27738,31689
55403,28356,32953
56146,28958,34175
56847,29521,35312
57489,30037,36342
58062,30498,37256
58559,30898,38047
58983,31234,38716
59339,31514,39271
59631,31741,39721
59860,31919,40074
60034,32052,40342
60166,32153,40544
60261,32230,40689
60324,32281,40782
60362,32312,40838
60385,32333,40870
60395,32343,40882
60396,32337,40875
60390,32319,40855
60381,32301,40831
60367,32284,40800
60348,32267,40758
60330,32251,40715
60317,32240,40677
60307,32228,40639
60296,32213,40604
60290,32201,40578
60293,32196,40566
60300,32195,40563
60311,32196,40567
60329,32202,40583
60355,32216,40612
60385,32233,40646
60415,32251,40677
60445,32271,40711
60474,32293,40747
60502,32314,40780
60527,32329,40807
60547,32340,40826
60560,32348,40836
60560,32347,40827
60548,32334,40794
60523,32312,40738
60485,32279,40662
60428,32230,40560
60355,32162,40431
60271,32084,40284
60177,31999,40126
60073,31907,39957
59963,31811,39778
59852,31723,39603
59744,31640,39434
59640,31553,39270
59543,31465,39113
59456,31383,38968
59374,31310,38835
59297,31244,38707
59224,31186,38588
59160,31139,38485
59105,31099,38397
59058,31062,38316
59019,31030,38246
58989,31005,38190
58965,30984,38139
58943,30960,38087
58921,30937,38038
58896,30917,37995
58866,30897,37954
58830,30871,37909
58796,30847,37862
58764,30827,37814
58731,30801,37754
58691,30766,37681
58646,30723,37596
58595,30674,37500
58535,30620,37392
58466,30559,37273
58393,30496,37145
58314,30430,37009
58225,30357,36859
58126,30275,36698
58021,30187,36528
57912,30095,36350
57795,29998,36158
57674,29895,35951
57549,29791,35737
57420,29687,35515
57288,29578,35283
57155,29467,35046
57024,29362,34815
56892,29261,34592
56757,29155,34369
56624,29046,34147
56496,28940,33932
56371,28836,33723
56247,28730,33514
56126,28626,33310
56011,28528,33117
55898,28434,32930
55786,28339,32743
55676,28246,32560
55571,28161,32386
55468,28083,32221
55370,28007,32057
55276,27934,31897
55187,27867,31749
55100,27799,31609
55013,27728,31472
54931,27660,31340
54853,27600,31217
54777,27543,31098
54700,27483,30976
54626,27424,30857
54557,27366,30744
54488,27309,30631
54417,27251,30515
54347,27198,30402
54281,27151,30296
54214,27105,30190
54147,27054,30082
54083,27004,29978
54021,26957,29880
53961,26909,29781
53901,26856,29680
53841,26802,29582
53780,26748,29486
53714,26694,29385
53646,26640,29277
53578,26588,29166
53509,26537,29055
53437,26483,28943
53366,26425,28830
53295,26367,28723
53225,26309,28617
53156,26251,28507
53091,26199,28400
53034,26152,28301
52979,26106,28207
52920,26055,28110
52858,26004,28010
52799,25961,27918
52739,25923,27830
52674,25881,27738
52609,25838,27647
52553,25801,27564
52501,25764,27480
52448,25723,27389
52392,25677,27292
52333,25632,27197
52271,25589,27104
52206,25541,27010
52144,25493,26918
52087,25450,26833
52032,25413,26752
51979,25377,26668
51929,25341,26583
51878,25305,26502
51824,25264,26419
51768,25219,26332
51712,25176,26248
51657,25139,26171
51600,25101,26095
51540,25060,26017
51482,25020,25941
51426,24983,25867
51369,24944,25790
51312,24901,25709
51259,24859,25628
51210,24824,25549
51160,24787,25469
51109,24747,25388
51058,24709,25313
51007,24672,25243
50953,24633,25172
50899,24594,25101
50847,24562,25036
50795,24534,24974
50742,24501,24908
50694,24468,24847
50659,24443,24800
50639,24431,24773
50640,24435,24777
50669,24464,24831
50739,24531,24959
50862,24641,25181
51050,24799,25518
51318,25024,26000
51686,25330,26659
52163,25725,27504
52744,26200,28516
53410,26745,29665
54139,27342,30905
54893,27961,32169
55636,28567,33392
56338,29138,34532
56979,29662,35566
57549,30124,36478
58045,30520,37261
58469,30852,37921
58823,31127,38466
59109,31348,38901
59333,31519,39236
59507,31652,39489
59638,31754,39674
59728,31826,39799
59786,31871,39872
59819,31896,39908
59832,31906,39916
59825,31903,39903
59807,31888,39874
59784,31866,39839
59758,31839,39798
59727,31806,39748
59696,31774,39692
59667,31746,39638
59640,31719,39589
59612,31690,39542
59589,31662,39496
59570,31638,39457
59555,31620,39425
59540,31605,39397
59531,31594,39376
59531,31590,39370
59538,31591,39372
59546,31591,39375
59557,31591,39380
59569,31595,39389
59578,31599,39391
59581,31596,39381
59578,31587,39361
59570,31578,39335
59551,31561,39295
59516,31529,39230
59464,31483,39141
59396,31428,39032
59314,31360,38899
59220,31279,38741
59115,31190,38567
59004,31100,38382
58888,31005,38188
58767,30904,37987
58645,30803,37789
58527,30707,37597
58414,30613,37413
58310,30524,37241
58219,30444,37086
58141,30375,36952
58076,30317,36835
58023,30269,36739
57983,30235,36667
57951,30210,36614
57922,30191,36568
57900,30178,36533
57889,30174,36515
57885,30171,36507
57880,30166,36498
57876,30158,36488
57873,30152,36478
57867,30144,36465
57854,30132,36441
57837,30118,36412
57818,30104,36381
57793,30086,36339
57757,30056,36278
57711,30019,36200
57659,29982,36118
57603,29939,36026
57539,29883,35917
57462,29818,35793
57377,29752,35659
57284,29681,35511
57181,29598,35344
57073,29510,35163
56964,29421,34972
56854,29327,34773
56739,29226,34564
56622,29124,34352
56506,29026,34142
56385,28926,33930
56261,28823,33714
56138,28724,33502
56017,28630,33298
55895,28537,33096
55774,28442,32894
55659,28350,32695
55548,28260,32500
55437,28170,32309
55331,28079,32123
55231,27992,31943
55138,27911,31769
55045,27831,31599
54952,27752,31436
54862,27679,31283
54777,27611,31141
54693,27546,31006
54610,27483,30877
54532,27428,30760
54458,27377,30651
54388,27328,30540
54319,27278,30427
54254,27229,30319
54191,27181,30220
54126,27129,30119
54061,27075,30019
53998,27025,29924
53938,26978,29832
53878,26930,29736
53819,26884,29638
53765,26841,29545
53711,26797,29453
53653,26749,29356
53593,26702,29261
53534,26661,29176
53478,26618,29091
53424,26572,29001
53370,26529,28910
53314,26488,28823
53256,26442,28734
53196,26391,28642
53139,26342,28550
53085,26296,28462
53033,26253,28373
52981,26211,28283
52930,26170,28196
52877,26131,28112
52824,26091,28023
52768,26050,27932
52712,26009,27841
52658,25969,27752
52603,25927,27660
52546,25881,27564
52488,25835,27468
52428,25788,27373
52364,25738,27277
52298,25684,27180
52232,25630,27085
52164,25580,26987
52094,25531,26884
52026,25483,26780
51962,25440,26682
51902,25400,26591
51840,25356,26498
51779,25309,26403
51722,25267,26315
51670,25234,26239
51624,25207,26173
51590,25188,26129
51579,25190,26129
51601,25217,26184
51664,25274,26306
51786,25378,26527
51980,25543,26878
52256,25779,27378
52625,26088,28042
53096,26478,28875
53662,26947,29855
54301,27475,30940
54983,28034,32081
55680,28602,33229
56361,29155,34338
56999,29671,35368
57578,30135,36292
58088,30544,37105
58531,30900,37808
58907,31202,38405
59221,31450,38898
59481,31649,39298
59691,31810,39619
59855,31934,39866
59979,32025,40046
60067,32092,40172
60124,32140,40252
60158,32169,40289
60178,32179,40295
60188,32178,40283
60188,32168,40263
60176,32152,40232
60156,32131,40193
60134,32111,40153
60112,32093,40113
60086,32072,40066
60057,32050,40013
60031,32031,39965
60009,32017,39927
59990,32003,39893
59975,31991,39866
59965,31984,39852
59962,31981,39848
59963,31977,39845
59971,31978,39843
59988,31988,39848
60007,31998,39855
60023,32001,39858
60038,31999,39858
60050,31992,39856
60051,31979,39843
60038,31955,39808
60011,31922,39752
59972,31881,39678
59917,31829,39584
59845,31765,39465
59761,31697,39328
59666,31625,39177
59561,31542,39013
59453,31451,38835
59344,31360,38651
59234,31273,38464
59127,31185,38278
59029,31097,38100
58939,31014,37940
58857,30944,37801
58778,30882,37676
58703,30826,37562
58635,30776,37460
58575,30736,37377
58524,30701,37304
58483,30670,37241
58452,30648,37194
58432,30633,37161
58415,30616,37131
58397,30597,37098
58381,30583,37070
58368,30573,37048
58356,30563,37026
58345,30553,37004
58335,30544,36986
58324,30531,36963
58304,30508,36925
58276,30479,36873
58242,30448,36812
58201,30414,36739
58150,30370,36648
58092,30318,36541
58025,30262,36425
57947,30199,36295
57860,30126,36149
57766,30047,35989
57667,29969,35818
57561,29886,35637
57448,29794,35444
57333,29700,35243
57215,29608,35035
57091,29511,34819
56961,29411,34596
56832,29310,34375
56702,29208,34156
56568,29102,33939
56433,28993,33723
56305,28888,33511
56184,28788,33305
56066,28688,33101
55948,28588,32897
55833,28494,32700
55721,28406,32512
55609,28321,32327
55502,28236,32145
55403,28156,31971
55309,28080,31806
55214,28004,31646
55121,27928,31492
55032,27859,31350
54948,27798,31219
54868,27739,31092
54792,27682,30972
54724,27629,30864
54660,27577,30761
54596,27523,30658
54534,27471,30553
54476,27422,30455
54420,27376,30363
54363,27329,30269
54305,27281,30172
54248,27235,30081
54189,27188,29989
54125,27137,29887
54061,27083,29780
54001,27035,29678
53942,26990,29578
53882,26942,29478
53822,26892,29379
53765,26844,29287
53707,26795,29194
53645,26745,29098
53581,26697,29003
53516,26655,28915
53452,26614,28827
53389,26566,28735
53326,26517,28642
53266,26469,28549
53205,26419,28452
53142,26364,28352
53081,26311,28253
53022,26261,28156
52961,26209,28055
52900,26154,27953
52840,26102,27858
52779,26053,27768
52715,26004,27674
52649,25954,27574
52588,25910,27478
52533,25872,27388
52477,25834,27298
52419,25794,27207
52362,25754,27118
52308,25715,27030
52255,25673,26937
52201,25628,26843
52148,25586,26755
52095,25548,26667
52037,25507,26574
51976,25465,26478
51915,25426,26386
51852,25385,26294
51783,25341,26199
51717,25296,26105
51655,25252,26018
51591,25203,25933
51525,25152,25846
51464,25104,25760
51411,25063,25681
51363,25024,25611
51318,24988,25550
51286,24963,25506
51273,24957,25492
51285,24973,25522
51332,25021,25615
51434,25110,25800
51605,25254,26104
51855,25462,26555
52201,25748,27176
52657,26122,27983
53219,26583,28964
53868,27117,30080
54581,27703,31285
55321,28313,32522
56053,28914,33730
56745,29479,34859
57378,29995,35882
57946,30458,36793
58446,30863,37588
58874,31207,38262
59235,31490,38819
59534,31724,39275
59777,31915,39641
59968,32059,39921
60113,32165,40133
60225,32245,40293
60307,32305,40407
60358,32341,40477
60386,32360,40514
60399,32367,40531
60401,32367,40530
60393,32359,40514
60380,32348,40490
60367,32340,40466
60354,32334,40440
60340,32322,40407
60330,32310,40378
60329,32306,40362
60336,32306,40354
60345,32307,40349
60359,32313,40351
60378,32326,40364
60399,32341,40382
60421,32355,40402
60446,32371,40431
60479,32395,40467
60514,32421,40506
60550,32447,40544
60588,32477,40585
60626,32506,40627
60658,32529,40659
60685,32546,40679
60710,32561,40690
60730,32573,40691
60736,32573,40674
60722,32559,40636
60691,32533,40578
60643,32493,40495
60578,32437,40387
60502,32367,40261
60419,32290,40127
60328,32210,39984
60232,32124,39826
60135,32037,39659
60041,31954,39496
59949,31873,39341
59857,31793,39192
59767,31716,39052
59685,31646,38928
59613,31585,38818
59548,31528,38714
59495,31477,38617
59452,31433,38535
59412,31397,38464
59370,31362,38397
59330,31329,38338
59298,31302,38291
59270,31279,38248
59242,31255,38199
59214,31233,38147
59191,31218,38097
59170,31206,38046
59147,31188,37989
59121,31163,37932
59089,31132,37873
59048,31095,37804
58997,31050,37719
58937,30999,37625
58870,30946,37525
58795,30888,37414
58715,30824,37290
58634,30756,37155
58548,30683,37010
58450,30603,36848
58344,30516,36670
58238,30429,36485
58129,30339,36294
58012,30242,36092
57891,30137,35880
57771,30029,35668
57645,29919,35454
57512,29804,35234
57378,29688,35012
57246,29576,34795
57115,29469,34580
56981,29360,34361
56845,29252,34143
56717,29148,33934
56594,29048,33731
56475,28948,33528
56358,28848,33329
56246,28754,33141
56138,28664,32960
56032,28574,32778
55926,28483,32598
55820,28397,32425
55714,28311,32256
55609,28224,32087
55508,28142,31925
55416,28070,31776
55332,28005,31636
55250,27939,31497
55173,27874,31359
55099,27813,31230
55026,27752,31104
54951,27689,30976
54877,27626,30849
54806,27567,30727
54735,27509,30607
54664,27445,30486
54595,27383,30375
54528,27327,30273
54460,27270,30171
54389,27210,30068
54321,27153,29965
54254,27100,29861
54184,27048,29755
54115,26993,29647
54051,26942,29543
53990,26895,29443
53924,26847,29342
53857,26796,29239
53793,26746,29139
53729,26695,29038
53665,26641,28933
53601,26585,28826
53539,26533,28721
53476,26484,28620
53408,26432,28515
53339,26377,28407
53272,26323,28304
53206,26271,28204
53139,26217,28097
53072,26163,27987
53008,26113,27882
52946,26064,27781
52882,26012,27676
52820,25960,27570
52760,25911,27471
52699,25864,27375
52636,25813,27274
52576,25761,27168
52520,25711,27063
52466,25665,26963
52410,25617,26867
52353,25572,26779
52298,25532,26701
52245,25495,26627
52193,25457,26549
52141,25421,26473
52091,25388,26401
52042,25353,26325
51993,25318,26247
51944,25283,26174
51896,25247,26105
51842,25208,26033
51785,25165,25955
51728,25122,25877
51670,25083,25799
51609,25043,25715
51551,25004,25629
51500,24968,25548
51450,24933,25471
51396,24893,25391
51339,24849,25311
51284,24810,25237
51233,24777,25165
51183,24746,25092
51137,24718,25022
51099,24697,24965
51067,24681,24918
51041,24671,24881
51032,24672,24870
51052,24693,24904
51105,24742,24996
51197,24821,25159
51343,24944,25425
51562,25127,25822
51862,25378,26371
52254,25704,27086
52749,26114,27980
53346,26608,29039
54023,27166,30220
54751,27762,31461
55495,28369,32708
56223,28963,33907
56902,29514,35014
57514,30005,35999
58051,30432,36855
58509,30799,37583
58890,31107,38185
59200,31359,38670
59448,31561,39054
59638,31720,39351
59779,31835,39570
59875,31912,39717
59935,31962,39808
59967,31992,39855
59976,32000,39863
59969,31987,39842
59953,31963,39805
59929,31937,39758
59898,31903,39695
59864,31863,39624
59830,31826,39554
59794,31791,39487
59752,31755,39421
59710,31720,39355
59674,31693,39297
59645,31674,39252
59622,31657,39213
59607,31641,39179
59598,31631,39155
59593,31626,39139
59592,31624,39128
59601,31626,39125
59619,31633,39133
59638,31639,39144
59650,31640,39149
59655,31638,39148
59656,31635,39141
59645,31625,39120
59620,31602,39077
59583,31566,39013
59536,31519,38927
59473,31458,38813
59392,31384,38668
59298,31302,38504
59194,31216,38329
59079,31127,38141
58959,31030,37941
58837,30930,37735
58718,30834,37531
58601,30739,37331
58489,30645,37139
58389,30559,36961
58298,30483,36806
58214,30414,36671
58138,30355,36556
58075,30308,36465
58027,30269,36396
57989,30235,36341
57959,30206,36296
57940,30187,36261
57933,30177,36237
57927,30170,36216
57922,30163,36195
57924,30159,36180
57927,30157,36169
57928,30152,36155
57926,30144,36137
57920,30138,36119
57908,30131,36096
57886,30114,36062
57856,30089,36017
57822,30061,35965
57779,30029,35902
57728,29988,35820
57670,29941,35722
57609,29892,35611
57537,29835,35482
57451,29763,35328
57356,29680,35156
57255,29595,34973
57147,29504,34782
57030,29405,34581
56906,29301,34373
56776,29195,34163
56642,29088,33948
56509,28981,33726
56380,28878,33504
56256,28781,33288
56136,28683,33075
56017,28581,32860
55898,28481,32649
55782,28388,32449
55668,28298,32255
55555,28209,32064
55447,28123,31880
55340,28040,31705
55237,27959,31533
55139,27877,31365
55049,27802,31206
54963,27736,31057
54877,27670,30913
54793,27602,30772
54716,27539,30643
54644,27479,30523
54573,27418,30407
54504,27357,30295
54440,27303,30191
54376,27255,30092
54311,27206,29995
54250,27159,29903
54193,27117,29817
54134,27076,29732
54072,27029,29642
54011,26982,29549
53953,26941,29460
53898,26903,29372
53842,26860,29282
53788,26815,29196
53741,26774,29118
53695,26735,29041
53646,26692,28959
53596,26648,28876
53547,26608,28800
53495,26568,28723
53438,26526,28640
53382,26483,28556
53329,26444,28474
53276,26405,28391
53221,26363,28301
53167,26321,28209
53114,26282,28121
53058,26242,28036
53001,26199,27952
52944,26159,27871
52887,26121,27791
52829,26081,27704
52774,26039,27608
52719,25995,27509
52661,25949,27411
52599,25900,27309
52537,25848,27201
52477,25797,27096
52418,25748,26996
52358,25697,26896
52298,25641,26795
52236,25585,26699
52170,25532,26606
52099,25477,26508
52025,25422,26406
51955,25372,26307
51889,25327,26212
51823,25283,26114
51761,25238,26015
51704,25198,25927
51653,25164,25849
51607,25134,25781
51572,25111,25732
51556,25103,25714
51562,25113,25730
51597,25143,25792
51674,25207,25926
51806,25319,26165
52005,25487,26528
52282,25716,27033
52653,26023,27705
53126,26415,28549
53692,26883,29539
54332,27408,30638
55019,27971,31798
55721,28547,32967
56403,29105,34088
57042,29620,35122
57623,30084,36050
58135,30492,36867
58575,30843,37567
58948,31137,38152
59261,31380,38633
59515,31578,39020
59712,31732,39320
59861,31846,39546
59973,31932,39715
60053,31996,39837
60100,32037,39913
60122,32056,39948
60130,32063,39957
60128,32063,39949
60115,32052,39924
60097,32033,39886
60079,32014,39846
60058,31994,39804
60033,31973,39756
60007,31950,39703
59983,31929,39655
59960,31909,39612
59940,31888,39573
59928,31873,39542
59923,31868,39521
59923,31869,39509
59924,31870,39499
59928,31874,39497
59938,31885,39510
59953,31895,39530
59969,31903,39546
59984,31910,39560
59997,31918,39571
60005,31923,39575
60009,31921,39565
60006,31911,39539
59994,31899,39498
59971,31875,39435
59931,31834,39345
59873,31781,39231
59801,31720,39099
59712,31648,38949
59609,31565,38780
59500,31474,38601
59391,31381,38416
59282,31286,38227
59173,31190,38036
59070,31101,37854
58971,31019,37684
58874,30942,37524
58786,30868,37377
58711,30805,37250
58647,30752,37143
58592,30703,37052
58543,30659,36977
58502,30625,36918
58466,30598,36871
58435,30570,36828
58411,30544,36786
58393,30528,36752
58380,30517,36725
58367,30506,36696
58353,30491,36664
58340,30477,36635
58325,30461,36605
58301,30439,36560
58271,30411,36504
58237,30384,36444
58197,30354,36372
58145,30313,36279
58083,30261,36173
58016,30203,36055
57939,30136,35921
57853,30061,35768
57763,29983,35605
57669,29904,35435
57568,29823,35257
57460,29735,35068
57348,29640,34871
57232,29541,34669
57111,29438,34459
56984,29329,34243
56856,29220,34026
56728,29114,33809
56600,29010,33591
56473,28907,33370
56352,28811,33156
56236,28721,32953
56122,28629,32757
56008,28534,32564
55900,28443,32382
55796,28358,32211
55696,28277,32044
55601,28200,31882
55512,28130,31730
55429,28065,31586
55348,28000,31446
55267,27935,31312
55189,27874,31186
55113,27817,31064
55035,27760,30940
54961,27705,30817
54894,27655,30703
54831,27610,30595
54767,27564,30485
54708,27517,30379
54654,27472,30284
54603,27428,30195
54547,27379,30104
54490,27329,30009
54436,27283,29917
54382,27241,29827
54327,27198,29735
54275,27155,29644
54224,27112,29558
54169,27068,29472
54110,27021,29384
54053,26974,29298
53999,26932,29216
53944,26893,29130
53885,26852,29038
53828,26808,28942
53772,26763,28849
53713,26713,28753
53649,26660,28653
53588,26608,28557
53529,26557,28469
53469,26507,28382
53410,26458,28293
53354,26415,28206
53299,26378,28122
53242,26337,28033
53183,26292,27939
53130,26251,27849
53081,26216,27763
53032,26181,27676
52980,26147,27587
52926,26116,27503
52874,26087,27425
52822,26055,27343
52770,26020,27257
52719,25986,27175
52669,25954,27097
52615,25920,27017
52560,25881,26937
52505,25842,26863
52454,25801,26793
52401,25757,26719
52349,25713,26646
52297,25675,26579
52244,25636,26509
52190,25592,26432
52137,25544,26349
52085,25497,26265
52031,25451,26181
51973,25401,26092
51912,25351,26003
51853,25307,25919
51798,25267,25836
51747,25225,25752
51698,25183,25670
51647,25143,25593
51595,25107,25520
51543,25069,25444
51492,25030,25368
51443,24993,25294
51389,24954,25216
51331,24910,25131
51275,24868,25048
51223,24830,24970
51172,24791,24891
51125,24750,24811
51085,24716,24742
51051,24694,24693
51027,24681,24666
51019,24680,24667
51041,24702,24717
51099,24754,24830
51203,24844,25024
51369,24986,25323
51612,25192,25759
51944,25474,26360
52377,25839,27142
52918,26289,28100
53555,26813,29209
54262,27391,30416
55001,27992,31658
55741,28591,32879
56450,29169,34040
57107,29706,35103
57696,30185,36044
58214,30604,36859
58662,30967,37559
59038,31273,38145
59342,31521,38620
59584,31716,38999
59775,31871,39299
59921,31989,39526
60027,32072,39685
60099,32127,39789
60148,32163,39856
60176,32182,39891
60185,32184,39898
60182,32174,39888
60174,32160,39867
60161,32140,39834
60147,32116,39790
60134,32094,39746
60123,32076,39708
60110,32060,39674
60101,32044,39643
60098,32031,39621
60095,32023,39607
60091,32015,39598
60091,32009,39592
60100,32009,39596
60116,32015,39608
60134,32023,39622
60153,32035,39636
60177,32052,39655
60203,32069,39678
60228,32080,39701
60252,32089,39721
60279,32100,39741
60302,32112,39756
60312,32116,39755
60311,32111,39737
60302,32101,39708
60282,32082,39662
60244,32042,39587
60188,31984,39485
60120,31920,39364
60039,31848,39223
59942,31763,39062
59837,31670,38890
59732,31582,38717
59627,31494,38542
59520,31403,38369
59416,31316,38202
59319,31238,38045
59227,31166,37897
59141,31095,37758
59064,31030,37633
59000,30973,37526
58946,30923,37431
58898,30879,37346
58860,30845,37275
58830,30821,37219
58805,30798,37170
58783,30776,37126
58766,30758,37089
58752,30743,37058
58739,30728,37028
58722,30712,36995
58704,30697,36962
58684,30685,36930
58659,30668,36889
58629,30645,36838
58598,30621,36782
58560,30592,36719
58512,30554,36642
58457,30509,36550
58397,30461,36448
58336,30409,36339
58266,30347,36215
58185,30274,36075
58098,30198,35925
58003,30119,35766
57899,30031,35588
57787,29936,35399
57674,29842,35207
57558,29748,35009
57436,29648,34798
57311,29546,34583
57188,29445,34369
57065,29344,34153
56940,29238,33931
56815,29132,33709
56696,29030,33492
56580,28932,33282
56467,28836,33075
56357,28745,32876
56249,28660,32688
56140,28573,32506
56029,28480,32326
55920,28388,32152
55814,28303,31983
55711,28220,31817
55609,28135,31651
55510,28051,31491
55418,27973,31344
55333,27901,31207
55254,27836,31075
55181,27778,30951
55114,27726,30836
55046,27672,30724
54978,27614,30614
54914,27559,30509
54851,27508,30411
54787,27457,30312
54727,27406,30212
54672,27358,30116
54619,27312,30022
54563,27265,29922
54504,27218,29819
54447,27177,29722
54389,27138,29632
54326,27094,29541
54261,27049,29450
54199,27008,29364
54138,26968,29279
54074,26922,29186
54008,26873,29085
53946,26828,28987
53885,26783,28893
53824,26733,28795
53765,26683,28696
53709,26637,28598
53652,26592,28495
53590,26541,28384
53527,26489,28276
53466,26439,28175
53408,26388,28076
53349,26334,27973
53291,26279,27869
53233,26227,27769
53169,26175,27668
53098,26123,27564
53024,26071,27462
52952,26021,27364
52882,25970,27266
52815,25920,27169
52751,25876,27079
52692,25839,26996
52634,25802,26915
52575,25762,26833
52517,25721,26753
52461,25679,26669
52404,25631,26578
52348,25581,26483
52297,25536,26391
52245,25494,26304
52193,25450,26218
52143,25406,26135
52098,25368,26058
52051,25332,25981
52000,25291,25896
51946,25248,25807
51893,25211,25725
51839,25178,25647
51783,25143,25564
51724,25105,25476
51666,25067,25391
51608,25030,25307
51546,24986,25219
51487,24938,25129
51435,24898,25049
51388,24864,24978
51346,24831,24914
51314,24803,24866
51300,24791,24852
51309,24799,24878
51349,24833,24958
51432,24907,25116
51572,25031,25379
51783,25213,25766
52078,25463,26304
52471,25793,27015
52968,26209,27904
53563,26707,28947
54236,27268,30102
54958,27863,31316
55694,28461,32530
56406,29031,33685
57070,29559,34747
57670,30036,35700
58195,30456,36532
58641,30811,37238
59011,31104,37823
59313,31344,38298
59551,31537,38674
59732,31684,38961
59865,31788,39169
59961,31861,39316
60030,31911,39413
60075,31939,39463
60096,31945,39478
60096,31939,39468
60078,31924,39438
60046,31897,39385
60003,31859,39317
59959,31818,39247
59912,31773,39172
59862,31722,39088
59813,31671,39001
59769,31628,38921
59730,31589,38847
59693,31553,38776
59662,31524,38712
59643,31507,38663
59629,31494,38624
59617,31481,38590
59608,31472,38566
59603,31467,38553
59600,31464,38544
59596,31461,38533
59595,31456,38520
59593,31450,38505
59579,31439,38478
59550,31419,38435
59515,31391,38379
59474,31353,38308
59423,31305,38213
59360,31245,38095
59287,31179,37959
59206,31107,37807
59113,31025,37635
59009,30937,37451
58900,30849,37266
58792,30763,37086
58682,30675,36905
58575,30586,36726
58477,30504,36561
58391,30430,36411
58312,30360,36273
58241,30299,36151
58183,30250,36051
58136,30211,35971
58098,30177,35907
58069,30151,35859
58048,30137,35831
58032,30129,35814
58018,30121,35800
58008,30115,35789
58002,30115,35785
57995,30113,35780
57985,30107,35765
57973,30100,35740
57961,30095,35713
57942,30086,35679
57913,30069,35633
57882,30047,35580
57849,30022,35523
57810,29991,35456
57762,29949,35371
57709,29904,35276
57651,29855,35174
57585,29798,35058
57508,29727,34920
57425,29647,34767
57335,29564,34601
57235,29477,34420
57126,29384,34225
57015,29290,34020
56901,29192,33808
56781,29088,33587
56656,28980,33364
56529,28873,33144
56400,28769,32928
56268,28663,32711
56136,28557,32493
56007,28455,32280
55882,28357,32071
55762,28261,31866
55647,28166,31665
55540,28081,31477
55437,28001,31302
55336,27919,31131
55237,27836,30966
55141,27761,30812
55049,27693,30669
54957,27628,30528
54869,27562,30391
54789,27500,30262
54717,27440,30142
54650,27381,30024
54584,27325,29913
54524,27275,29813
54466,27227,29716
54405,27179,29615
54344,27133,29516
54286,27092,29425
54229,27052,29334
54171,27008,29239
54116,26962,29144
54065,26919,29053
54017,26878,28967
53969,26834,28879
53919,26791,28792
53867,26752,28711
53813,26714,28627
53758,26670,28538
53707,26628,28448
53657,26588,28361
53605,26545,28272
53548,26498,28182
53491,26451,28096
53434,26404,28011
53375,26353,27923
53314,26300,27834
53256,26253,27747
53199,26209,27663
53141,26167,27579
53085,26125,27495
53032,26086,27415
52980,26048,27335
52925,26007,27251
52869,25965,27163
52816,25928,27080
52765,25893,26999
52714,25854,26913
52660,25809,26826
52605,25762,26739
52548,25717,26649
52489,25670,26553
52431,25624,26455
52377,25584,26361
52323,25547,26268
52265,25505,26171
52205,25461,26076
52145,25417,25986
52085,25371,25895
52022,25320,25800
51961,25269,25703
51903,25220,25612
51845,25171,25523
51784,25122,25436
51724,25075,25351
51664,25029,25266
51603,24983,25181
51543,24937,25097
51487,24897,25017
51435,24865,24945
51384,24836,24875
51340,24808,24808
51307,24788,24755
51284,24777,24723
51273,24777,24715
51285,24795,24743
51338,24840,24833
51441,24923,25007
51599,25050,25286
51825,25235,25693
52139,25499,26266
52553,25851,27021
53071,26288,27948
53684,26799,29020
54370,27370,30201
55098,27971,31431
55828,28567,32643
56527,29137,33789
57179,29669,34845
57769,30150,35793
58285,30566,36617
58726,30917,37315
59100,31214,37897
59410,31461,38370
59657,31657,38741
59852,31810,39027
60004,31929,39248
60116,32015,39412
60192,32068,39522
60242,32097,39593
60277,32115,39638
60298,32122,39658
60306,32115,39656
60307,32102,39640
60299,32088,39616
60282,32071,39583
60258,32044,39542
60235,32015,39498
60216,31991,39458
60200,31970,39423
60190,31955,39391
60188,31948,39367
60192,31952,39355
60198,31959,39350
60206,31969,39351
60219,31983,39361
60236,31998,39378
60252,32009,39395
60269,32015,39411
60288,32023,39431
60310,32037,39455
60331,32050,39473
60350,32061,39482
60368,32071,39487
60378,32078,39489
60373,32074,39473
60355,32059,39435
60328,32036,39382
60291,32005,39313
60237,31958,39217
60166,31895,39092
60086,31825,38950
60000,31749,38796
59905,31663,38629
59803,31569,38454
59699,31480,38281
59599,31398,38113
59498,31313,37945
59399,31229,37780
59308,31154,37629
59223,31085,37489
59141,31017,37354
59067,30953,37228
59003,30899,37119
58949,30854,37027
58902,30814,36951
58864,30784,36891
58836,30761,36847
58817,30740,36810
58801,30718,36774
58786,30698,36741
58772,30683,36715
58757,30669,36685
58740,30653,36648
58720,30636,36610
58699,30616,36569
58673,30591,36523
58644,30562,36469
58615,30533,36410
58585,30503,36344
58547,30466,36263
58498,30420,36167
58443,30370,36062
58377,30315,35946
58297,30251,35814
58207,30176,35665
58110,30095,35502
58005,30009,35324
57889,29912,35128
57764,29807,34918
57636,29699,34703
57505,29589,34485
57370,29475,34259
57232,29358,34029
57097,29245,33805
56965,29137,33585
56837,29029,33363
56711,28921,33141
56590,28820,32926
56473,28729,32719
56358,28637,32513
56246,28547,32315
56142,28466,32131
56044,28390,31959
55947,28314,31789
55853,28239,31622
55764,28168,31460
55676,28098,31300
55586,28025,31141
55498,27953,30986
55412,27886,30841
55327,27819,30703
55241,27748,30563
55158,27679,30429
55077,27616,30305
54999,27556,30183
54927,27496,30059
54859,27438,29939
54792,27382,29823
54721,27324,29704
54647,27267,29584
54574,27213,29468
54501,27161,29355
54427,27105,29239
54355,27049,29120
54287,26995,29005
54219,26940,28896
54145,26880,28789
54068,26818,28680
53994,26762,28574
53925,26710,28470
53859,26657,28361
53794,26603,28253
53735,26553,28156
53679,26505,28066
53620,26457,27974
53559,26407,27878
53498,26357,27783
53437,26308,27685
53375,26256,27581
53314,26207,27477
53257,26165,27381
53200,26125,27288
53139,26078,27190
53076,26026,27087
53013,25977,26989
52948,25929,26893
52879,25874,26791
52808,25815,26685
52744,25761,26581
52681,25710,26474
52614,25654,26361
52547,25599,26250
52488,25550,26146
52432,25504,26045
52374,25456,25946
52318,25408,25853
52265,25360,25768
52211,25310,25686
52156,25257,25602
52102,25211,25521
52050,25173,25445
52001,25136,25371
51953,25099,25297
51906,25068,25226
51858,25042,25154
51806,25012,25075
51753,24979,24991
51704,24944,24907
51657,24911,24823
51606,24874,24739
51555,24833,24654
51506,24792,24576
51458,24752,24507
51407,24709,24440
51354,24666,24373
51301,24628,24312
51248,24589,24250
51192,24546,24183
51135,24504,24114
51082,24468,24048
51031,24432,23985
50979,24392,23921
50929,24355,23860
50888,24324,23809
50854,24300,23768
50830,24285,23744
50828,24288,23754
50859,24322,23818
50930,24388,23949
51049,24493,24163
51231,24649,24488
51490,24871,24955
51840,25167,25583
52290,25541,26382
52846,25995,27351
53494,26525,28470
54207,27105,29687
54949,27707,30935
55688,28307,32163
56395,28880,33325
57041,29404,34379
57615,29866,35304
58111,30266,36101
58527,30604,36773
58865,30875,37317
59136,31086,37743
59350,31250,38070
59513,31376,38311
59629,31465,38480
59708,31524,38592
59760,31561,38659
59790,31582,38686
59797,31583,38679
59785,31569,38647
59760,31542,38602
59725,31506,38546
59681,31462,38477
59633,31413,38402
59584,31365,38326
59535,31320,38249
59490,31275,38170
59450,31234,38095
59420,31202,38034
59398,31177,37980
59379,31151,37929
59364,31129,37886
59356,31117,37853
59349,31114,37828
59341,31111,37807
59335,31110,37793
59334,31114,37790
59336,31120,37792
59335,31120,37787
59331,31113,37776
59324,31102,37758
59312,31084,37727
59291,31059,37678
59259,31029,37613
59214,30992,37525
59153,30943,37412
59076,30882,37273
58987,30811,37114
58887,30732,36938
58774,30639,36741
58656,30538,36530
58537,30435,36318
58416,30331,36110
58292,30224,35904
58171,30118,35701
58058,30021,35509
57951,29934,35332
57850,29853,35169
57759,29781,35026
57684,29724,34907
57624,29681,34812
57576,29645,34732
57542,29615,34669
57519,29599,34627
57503,29592,34602
57487,29585,34580
57475,29577,34561
57470,29573,34549
57465,29567,34537
57455,29552,34516
57440,29535,34487
57423,29520,34457
57402,29504,34423
57377,29482,34375
57348,29456,34314
57314,29425,34244
57270,29387,34159
57210,29338,34053
57137,29281,33930
57053,29219,33796
56961,29152,33648
56857,29076,33482
56744,28996,33303
56627,28910,33117
56508,28815,32920
56390,28714,32711
56273,28612,32497
56154,28510,32282
56031,28403,32063
55903,28294,31843
55777,28191,31627
55654,28091,31414
55530,27989,31197
55410,27887,30980
55296,27789,30771
55185,27694,30572
55075,27600,30381
54969,27511,30199
54871,27430,30029
54778,27353,29873
54693,27276,29721
54615,27201,29573
54545,27135,29436
54475,27075,29309
54404,27016,29187
54334,26960,29069
54270,26910,28964
54208,26864,28868
54146,26817,28772
54085,26771,28676
54029,26730,28588
53975,26694,28502
53920,26655,28413
53864,26611,28325
53814,26571,28247
53763,26533,28170
53708,26489,28083
53654,26442,27991
53604,26400,27902
53557,26360,27814
53509,26320,27727
53459,26280,27643
53413,26243,27562
53367,26204,27480
53320,26162,27398
53276,26121,27319
53233,26083,27243
53184,26043,27162
53129,26003,27076
53075,25966,26991
53023,25933,26909
52972,25899,26827
52924,25863,26748
52878,25832,26677
52830,25802,26609
52778,25768,26538
52724,25729,26461
52674,25693,26387
52623,25659,26314
52570,25622,26237
52520,25582,26157
52473,25541,26078
52426,25503,26001
52373,25462,25920
52319,25420,25837
52269,25380,25755
52220,25340,25670
52165,25294,25577
52108,25245,25481
52051,25202,25388
51991,25162,25298
51928,25118,25207
51865,25073,25116
51807,25033,25029
51752,24995,24943
51695,24954,24854
51641,24913,24768
51596,24880,24696
51560,24855,24639
51530,24836,24598
51515,24831,24585
51523,24845,24613
51564,24885,24694
51649,24958,24848
51791,25082,25106
52004,25266,25496
52300,25517,26036
52689,25841,26739
53174,26245,27609
53748,26725,28631
54392,27261,29757
55077,27827,30933
55773,28399,32107
56448,28951,33228
57074,29461,34255
57638,29917,35169
58138,30317,35967
58571,30661,36648
58934,30948,37214
59232,31181,37676
59473,31369,38047
59661,31516,38334
59799,31623,38542
59897,31698,38685
59966,31749,38781
60013,31780,38840
60037,31791,38865
60043,31788,38862
60033,31777,38840
60009,31755,38801
59975,31722,38745
59937,31685,38680
59901,31653,38615
59867,31624,38550
59832,31592,38480
59798,31562,38413
59770,31539,38358
59747,31524,38314
59726,31511,38276
59710,31502,38245
59702,31500,38224
59702,31500,38208
59707,31498,38197
59719,31500,38195
59734,31507,38203
59744,31512,38211
59747,31511,38209
59743,31506,38199
59732,31497,38182
59714,31480,38150
59687,31453,38100
59651,31420,38032
59604,31380,37944
59541,31326,37832
59464,31258,37698
59379,31183,37549
59286,31103,37387
59182,31014,37209
59069,30917,37017
58954,30819,36821
58839,30725,36632
58727,30635,36449
58622,30549,36276
58526,30473,36121
58443,30406,35987
58371,30343,35868
58310,30285,35760
58261,30239,35668
58220,30203,35596
58185,30169,35538
58158,30139,35490
58138,30120,35452
58121,30108,35417
58106,30095,35383
58096,30083,35354
58090,30076,35333
58082,30069,35312
58067,30058,35285
58049,30044,35250
58030,30031,35209
58004,30014,35163
57970,29989,35106
57929,29958,35038
57884,29924,34962
57831,29881,34873
57769,29827,34767
57698,29766,34646
57616,29702,34515
57523,29627,34370
57422,29543,34210
57317,29454,34037
57211,29360,33849
57100,29261,33645
56987,29159,33430
56873,29057,33210
56754,28958,32989
56631,28857,32765
56507,28755,32537
56386,28656,32312
56266,28558,32095
56145,28457,31881
56023,28354,31669
55904,28256,31466
55791,28166,31274
55681,28079,31088
55573,27995,30910
55473,27917,30745
55380,27847,30590
55290,27778,30438
55204,27708,30288
55125,27642,30152
55047,27580,30028
54971,27519,29906
54902,27459,29787
54839,27403,29677
54778,27347,29568
54715,27289,29456
54653,27237,29348
54596,27194,29250
54542,27157,29156
54485,27117,29059
54426,27074,28964
54368,27033,28874
54313,26993,28786
54258,26949,28694
54203,26902,28606
54150,26859,28522
54097,26818,28435
54043,26776,28344
53990,26736,28254
53938,26695,28166
53885,26653,28076
53832,26611,27985
53783,26572,27903
53737,26537,27828
53691,26501,27750
53644,26463,27670
53597,26426,27595
53548,26387,27520
53492,26341,27438
53434,26293,27351
53376,26248,27268
53320,26207,27190
53263,26165,27109
53207,26123,27024
53155,26086,26943
53103,26052,26867
53049,26011,26785
52996,25965,26699
52945,25923,26614
52896,25884,26530
52843,25843,26441
52789,25802,26350
52739,25765,26261
52692,25730,26175
52642,25690,26086
52589,25647,25996
52536,25606,25913
52481,25564,25829
52422,25519,25741
52366,25476,25654
52314,25437,25572
52261,25397,25490
52207,25354,25403
52156,25310,25318
52106,25268,25238
52052,25228,25159
51994,25185,25076
51935,25142,24993
51878,25101,24911
51820,25060,24829
51762,25016,24745
51707,24977,24669
51656,24946,24604
51608,24920,24550
51572,24897,24510
51556,24887,24498
51563,24900,24524
51601,24939,24602
51682,25013,24755
51821,25136,25012
52032,25315,25394
52325,25560,25925
52715,25883,26628
53211,26294,27509
53803,26783,28549
54470,27330,29699
55179,27908,30900
55897,28495,32101
56593,29064,33252
57243,29590,34311
57831,30064,35257
58351,30483,36087
58800,30844,36802
59179,31143,37400
59492,31386,37892
59750,31587,38293
59956,31747,38612
60111,31867,38851
60223,31954,39024
60306,32020,39149
60363,32065,39235
60396,32089,39283
60412,32097,39304
60418,32098,39310
60417,32092,39304
60413,32080,39285
60409,32067,39260
60405,32055,39235
60398,32043,39206
60390,32029,39175
60386,32017,39148
60384,32008,39131
60384,32000,39117
60387,31994,39103
60393,31996,39097
60403,32002,39098
60416,32007,39103
60433,32014,39113
60454,32027,39131
60478,32044,39156
60501,32060,39184
60524,32076,39213
60546,32095,39243
60564,32113,39272
60575,32123,39292
60581,32126,39297
60584,32121,39290
60581,32109,39269
60566,32083,39222
60536,32045,39151
60491,31998,39059
60430,31940,38944
60354,31871,38807
60269,31796,38655
60179,31723,38496
60085,31648,38329
59986,31565,38153
59889,31479,37976
59794,31398,37810
59704,31320,37655
59617,31242,37508
59537,31168,37370
59467,31106,37248
59404,31052,37139
59348,30999,37040
59300,30950,36950
59257,30910,36874
59218,30874,36807
59181,30840,36745
59149,30814,36689
59122,30796,36644
59099,30780,36604
59077,30764,36565
59052,30749,36527
59026,30734,36490
58998,30715,36445
58971,30692,36392
58942,30666,36335
58907,30635,36274
58866,30596,36203
58820,30551,36118
58770,30503,36022
58710,30452,35914
58636,30392,35791
58551,30324,35651
58460,30252,35502
58366,30177,35343
58267,30094,35173
58163,30005,34991
58059,29914,34803
57959,29823,34609
57853,29728,34407
57741,29629,34202
57624,29531,33999
57504,29433,33795
57381,29334,33585
57258,29238,33378
57138,29145,33179
57019,29053,32981
56902,28956,32778
56788,28860,32579
56679,28769,32388
56570,28679,32200
56461,28586,32012
56355,28496,31831
56254,28414,31660
56157,28338,31498
56068,28265,31343
55986,28198,31198
55909,28137,31064
55835,28077,30934
55764,28018,30805
55695,27962,30681
55628,27908,30562
55558,27851,30442
55487,27790,30321
55418,27731,30205
55348,27674,30096
55276,27613,29986
55200,27550,29875
55128,27489,29767
55060,27433,29665
54991,27379,29566
54923,27325,29466
54864,27277,29370
54812,27236,29277
54758,27192,29181
54704,27144,29083
54653,27099,28988
54606,27058,28897
54558,27015,28807
54509,26971,28715
54461,26932,28626
54413,26895,28541
54359,26856,28453
54299,26813,28362
54240,26770,28269
54181,26726,28173
54120,26678,28071
54060,26629,27969
54002,26582,27873
53944,26536,27780
53884,26488,27683
53821,26439,27585
53758,26394,27492
53697,26349,27404
53633,26300,27312
53569,26250,27219
53507,26205,27132
53447,26161,27045
53389,26114,26954
53331,26066,26862
53275,26020,26775
53221,25975,26690
53165,25931,26605
53109,25889,26523
53055,25848,26442
53003,25806,26354
52948,25762,26260
52891,25719,26166
52834,25676,26076
52774,25630,25984
52717,25584,25891
52664,25543,25803
52614,25504,25719
52561,25460,25634
52508,25412,25549
52457,25365,25469
52407,25320,25391
52355,25275,25310
52302,25232,25227
52253,25194,25152
52205,25159,25079
52155,25121,25001
52102,25084,24920
52049,25053,24841
51996,25022,24767
51943,24986,24694
51895,24949,24622
51852,24919,24557
51814,24895,24502
51785,24875,24460
51774,24868,24447
51792,24886,24479
51841,24932,24570
51932,25010,24733
52078,25134,24998
52295,25319,25397
52594,25572,25950
52988,25900,26666
53483,26310,27552
54072,26800,28594
54729,27345,29745
55423,27917,30944
56125,28491,32136
56806,29050,33276
57441,29572,34326
58016,30041,35265
58521,30453,36084
58956,30807,36785
59320,31102,37368
59619,31341,37843
59861,31534,38225
60052,31688,38523
60194,31802,38741
60297,31881,38890
60371,31935,38991
60419,31970,39053
60442,31984,39081
60445,31982,39082
60436,31973,39070
60418,31961,39048
60393,31941,39011
60366,31914,38963
60343,31889,38915
60323,31868,38871
60301,31846,38825
60283,31826,38780
60273,31812,38745
60268,31804,38719
60264,31794,38700
60262,31786,38688
60266,31784,38686
60276,31785,38687
60287,31783,38688
60301,31786,38694
60319,31800,38710
60339,31818,38731
60355,31834,38748
60368,31847,38761
60380,31859,38769
60385,31863,38765
60377,31854,38743
60355,31834,38705
60320,31803,38647
60269,31759,38563
60204,31698,38449
60127,31625,38313
60041,31545,38161
59942,31458,37991
59838,31365,37807
59734,31272,37623
59629,31181,37444
59524,31093,37266
59421,31005,37091
59323,30922,36929
59233,30846,36781
59152,30773,36647
59080,30706,36528
59023,30651,36431
58980,30610,36357
58943,30576,36296
58909,30546,36245
58884,30526,36205
58866,30514,36176
58853,30503,36153
58847,30494,36134
58846,30488,36124
58844,30482,36117
58837,30473,36107
58830,30466,36091
58823,30462,36071
58810,30454,36037
58788,30438,35989
58762,30416,35933
58733,30393,35874
58700,30367,35808
58657,30331,35729
58606,30287,35635
58545,30238,35528
58475,30179,35406
58396,30110,35266
58307,30036,35112
58211,29959,34947
58108,29874,34770
57998,29777,34578
57881,29680,34373
57760,29588,34161
57636,29496,33945
57514,29400,33731
57399,29305,33523
57288,29210,33322
57174,29113,33121
57056,29015,32920
56939,28920,32720
56822,28826,32521
56703,28730,32321
56586,28636,32126
56478,28548,31943
56378,28465,31774
56282,28384,31611
56192,28307,31452
56108,28235,31305
56030,28170,31166
55954,28109,31028
55883,28050,30892
55819,27994,30767
55758,27939,30651
55694,27883,30540
55630,27830,30433
55569,27784,30335
55507,27740,30243
55441,27694,30149
55376,27647,30055
55317,27604,29968
55262,27561,29882
55205,27515,29791
55151,27472,29702
55103,27435,29620
55057,27400,29540
55011,27363,29459
54967,27327,29379
54927,27294,29304
54883,27259,29228
54837,27222,29152
54792,27184,29078
54747,27151,29005
54699,27116,28930
54648,27075,28853
54599,27036,28780
54554,27000,28714
54507,26965,28646
54457,26928,28573
54407,26889,28500
54359,26849,28425
54308,26808,28345
54256,26765,28259
54203,26725,28170
54147,26686,28080
54086,26642,27986
54024,26593,27890
53964,26546,27795
53905,26500,27701
53845,26453,27601
53786,26405,27497
53728,26362,27398
53670,26321,27302
53608,26276,27206
53546,26228,27108
53486,26182,27010
53423,26136,26910
53357,26085,26804
53292,26032,26698
53230,25985,26602
53172,25941,26513
53114,25897,26425
53064,25855,26347
53031,25825,26296
53016,25811,26279
53023,25817,26301
53066,25858,26385
53156,25946,26558
53308,26087,26847
53534,26286,27272
53850,26558,27856
54264,26910,28610
54768,27337,29513
55348,27820,30528
55979,28344,31615
56630,28885,32724
57272,29416,33803
57880,29913,34814
58441,30367,35736
58945,30775,36557
59386,31132,37270
59765,31440,37879
60089,31702,38394
60360,31920,38823
60582,32094,39168
60761,32230,39439
60903,32339,39650
61009,32424,39809
61082,32485,39920
61130,32523,39989
61162,32546,40032
61182,32559,40053
61190,32558,40050
61189,32546,40027
61188,32534,39998
61188,32522,39968
61186,32507,39934
61181,32491,39898
61175,32480,39869
61169,32472,39848
61163,32465,39829
61159,32464,39817
61163,32469,39816
61170,32474,39820
61177,32477,39823
61190,32481,39831
61210,32494,39847
61233,32510,39866
61256,32523,39885
61283,32534,39909
61310,32548,39934
61334,32562,39951
61350,32571,39957
61359,32573,39955
61358,32570,39943
61345,32556,39913
61315,32527,39860
61269,32487,39783
61210,32438,39684
61141,32378,39565
61060,32305,39424
60970,32224,39267
60872,32140,39101
60768,32050,38927
60663,31960,38752
60561,31876,38586
60464,31797,38432
60373,31722,38288
60293,31651,38153
60226,31591,38033
60169,31543,37933
60120,31500,37847
60080,31464,37771
60052,31438,37710
60034,31420,37665
60022,31409,37634
60016,31401,37616
60015,31397,37612
60014,31396,37613
60012,31394,37610
60012,31391,37603
60014,31389,37594
60011,31384,37576
60002,31371,37548
59992,31352,37512
59977,31332,37472
59953,31306,37422
59919,31272,37355
59879,31231,37275
59832,31191,37189
59777,31148,37093
59713,31097,36983
59642,31038,36863
59568,30978,36736
59487,30912,36599
59396,30834,36446
59297,30748,36282
59195,30660,36110
59088,30571,35927
58978,30479,35731
58867,30388,35532
58751,30298,35333
58631,30205,35129
58511,30107,34922
58395,30009,34715
58282,29915,34510
58169,29817,34301
58057,29715,34092
57947,29618,33893
57839,29527,33705
57734,29438,33522
57634,29351,33342
57539,29270,33172
57448,29194,33008
57356,29119,32848
57265,29043,32692
57177,28971,32546
57092,28898,32411
57006,28824,32278
56921,28755,32144
56842,28693,32014
56766,28630,31887
56694,28565,31760
56627,28502,31639
56565,28447,31525
56506,28398,31417
56446,28346,31308
56387,28293,31202
56329,28245,31103
56270,28199,31008
56210,28150,30908
56148,28099,30803
56086,28051,30698
56023,28001,30594
55961,27949,30485
55898,27898,30376
55834,27848,30275
55768,27797,30175
55700,27744,30067
55632,27691,29958
55566,27642,29853
55501,27594,29747
55437,27546,29638
55376,27498,29532
55317,27452,29432
55254,27403,29332
55188,27351,29230
55125,27302,29131
55066,27256,29036
55006,27207,28937
54947,27155,28836
54890,27106,28742
54834,27059,28650
54776,27011,28555
54719,26964,28460
54664,26921,28373
54609,26879,28288
54551,26833,28198
54491,26785,28104
54430,26740,28012
54370,26697,27922
54311,26653,27830
54259,26608,27739
54212,26569,27653
54164,26532,27571
54110,26492,27486
54052,26449,27399
53997,26410,27314
53941,26373,27229
53881,26331,27136
53818,26288,27040
53757,26247,26949
53697,26206,26857
53635,26158,26763
53575,26110,26669
53517,26066,26579
53461,26023,26489
53403,25979,26398
53347,25940,26311
53296,25906,26229
53246,25870,26147
53197,25830,26064
53155,25796,25995
53122,25772,25949
53100,25758,25930
53102,25761,25950
53141,25794,26032
53228,25868,26198
53371,25990,26469
53589,26176,26878
53903,26444,27459
54320,26801,28220
54836,27241,29147
55441,27751,30209
56111,28314,31360
56810,28900,32543
57500,29476,33701
58158,30020,34796
58769,30523,35805
59323,30976,36709
59814,31372,37499
60244,31715,38178
60613,32010,38755
60920,32256,39237
61168,32453,39623
61369,32607,39927
61532,32732,40170
61659,32833,40359
61752,32906,40496
61820,32958,40595
61873,32999,40671
61914,33032,40724
61944,33053,40753
61967,33062,40767
61989,33067,40777
62009,33072,40783
62027,33074,40785
62044,33077,40788
62066,33082,40798
62089,33090,40810
62113,33097,40819
62138,33105,40832
62164,33120,40855
62188,33137,40882
62213,33154,40907
62246,33177,40941
62287,33207,40987
62331,33239,41037
62378,33270,41088
62428,33303,41143
62476,33335,41197
62518,33361,41241
62554,33381,41275
62585,33400,41306
62608,33415,41332
62618,33421,41345
62620,33419,41340
62617,33410,41320
62604,33390,41282
62574,33357,41220
62533,33314,41138
62484,33265,41041
62425,33207,40928
62354,33138,40794
62277,33063,40648
62198,32988,40504
62116,32915,40362
62035,32839,40218
61959,32765,40081
61893,32702,39961
61832,32648,39856
61775,32596,39756
61724,32551,39666
61684,32516,39593
61651,32489,39535
61624,32463,39485
61605,32443,39444
61595,32433,39416
61588,32427,39395
61578,32420,39372
61566,32413,39350
61554,32406,39332
61541,32395,39311
61525,32379,39283
61510,32364,39251
61495,32351,39219
61474,32333,39180
61448,32307,39131
61420,32278,39075
61384,32246,39013
61341,32207,38940
61293,32160,38856
61243,32113,38766
61187,32066,38666
61121,32014,38550
61049,31955,38420
60975,31892,38281
60896,31824,38135
60810,31745,37977
60719,31659,37813
60627,31572,37646
60530,31485,37478
60427,31395,37305
60321,31303,37131
60216,31214,36962
60110,31124,36795
60003,31030,36622
59898,30938,36450
59796,30854,36284
59690,30772,36123
59580,30688,35955
59473,30603,35782
59374,30524,35615
59279,30451,35452
59183,30378,35290
59088,30306,35130
58996,30238,34975
58910,30173,34825
58828,30103,34678
58748,30033,34535
58667,29964,34398
58585,29893,34262
58499,29817,34123
58416,29744,33987
58337,29678,33858
58259,29614,33730
58180,29549,33601
58107,29491,33478
58036,29436,33360
57961,29377,33237
57884,29313,33110
57808,29250,32984
57731,29188,32859
57652,29123,32735
57573,29061,32611
57497,29004,32489
57423,28950,32368
57346,28892,32244
57268,28832,32120
57195,28772,32004
57120,28710,31891
57041,28644,31772
56960,28577,31646
56883,28514,31522
56808,28455,31401
56733,28396,31279
56656,28338,31158
56584,28284,31042
56514,28231,30927
56440,28174,30807
56368,28116,30685
56302,28063,30567
56239,28008,30449
56174,27945,30325
56110,27881,30201
56044,27821,30085
55976,27763,29972
55905,27705,29859
55833,27647,29749
55762,27593,29644
55691,27540,29538
55622,27485,29432
55555,27433,29332
55490,27387,29238
55425,27341,29142
55359,27291,29044
55297,27242,28952
55236,27198,28866
55175,27153,28784
55118,27108,28701
55063,27066,28617
55009,27026,28532
54952,26983,28440
54893,26934,28338
54833,26886,28234
54771,26840,28132
54706,26791,28025
54641,26739,27913
54578,26692,27805
54518,26649,27705
54454,26605,27605
54387,26560,27506
54325,26516,27412
54266,26473,27323
54206,26426,27229
54143,26379,27131
54083,26337,27038
54023,26296,26950
53967,26253,26862
53918,26211,26784
53882,26180,26725
53861,26160,26692
53856,26153,26689
53878,26169,26738
53943,26225,26867
54060,26331,27097
54245,26497,27452
54522,26738,27968
54904,27067,28664
55387,27478,29532
55962,27960,30543
56607,28496,31657
57294,29065,32822
57982,29635,33977
58640,30178,35075
59251,30680,36089
59803,31133,37006
60292,31529,37809
60715,31866,38495
61077,32154,39073
61383,32397,39554
61634,32594,39941
61837,32749,40246
61996,32872,40484
62115,32967,40666
62200,33035,40797
62258,33079,40885
62300,33109,40943
62331,33125,40977
62349,33127,40989
62358,33121,40988
62364,33115,40984
62367,33112,40975
62366,33107,40954
62365,33100,40927
62366,33097,40904
62371,33100,40887
62380,33104,40872
62393,33108,40858
62412,33117,40855
62432,33130,40863
62450,33142,40875
62467,33154,40892
62487,33172,40919
62509,33194,40952
62531,33212,40979
62554,33228,41001
62577,33245,41025
62599,33259,41050
62620,33264,41071
62640,33267,41086
62656,33267,41094
62659,33261,41084
62646,33245,41054
62623,33220,41004
62587,33184,40933
62540,33138,40840
62481,33081,40725
62414,33016,40595
62342,32948,40457
62263,32874,40311
62177,32795,40161
62090,32717,40016
62003,32646,39878
61918,32579,39745
61838,32515,39616
61767,32460,39503
61708,32417,39410
61656,32382,39330
61612,32347,39260
61581,32319,39207
61564,32300,39171
61555,32285,39142
61550,32273,39119
61550,32267,39107
61553,32266,39104
61558,32267,39103
61564,32266,39102
61572,32267,39104
61575,32265,39104
61571,32256,39094
61561,32241,39074
61547,32228,39047
61526,32212,39010
61498,32188,38959
61463,32160,38900
61424,32131,38835
61378,32096,38760
61323,32052,38672
61260,32000,38574
61192,31946,38469
61119,31888,38351
61039,31821,38216
60954,31749,38070
60864,31676,37915
60768,31597,37752
60663,31508,37579
60554,31414,37399
60444,31321,37216
60331,31226,37027
60215,31127,36830
60101,31024,36635
59990,30920,36443
59879,30815,36248
59764,30712,36048
59650,30613,35852
59538,30517,35662
59422,30421,35470
59306,30328,35279
59198,30241,35094
59095,30155,34917
58989,30071,34746
58884,29991,34585
58788,29915,34433
58700,29839,34287
58610,29759,34143
58519,29678,34002
58433,29605,33867
58350,29537,33733
58267,29469,33597
58187,29402,33463
58110,29342,33338
58036,29286,33219
57963,29230,33096
57890,29172,32974
57821,29120,32860
57754,29072,32754
57688,29024,32649
57627,28977,32545
57567,28934,32448
57506,28891,32353
57442,28846,32254
57376,28796,32153
57312,28744,32055
57249,28686,31956
57181,28624,31850
57108,28565,31745
57034,28511,31644
56961,28456,31537
56891,28399,31419
56823,28345,31305
56753,28293,31198
56683,28239,31088
56613,28182,30974
56547,28127,30860
56482,28075,30746
56418,28023,30629
56355,27972,30511
56290,27924,30395
56220,27877,30279
56144,27826,30159
56068,27769,30036
55993,27711,29918
55919,27654,29803
55841,27591,29684
55758,27525,29559
55677,27462,29434
55598,27405,29309
55515,27344,29179
55430,27278,29046
55352,27217,28919
55283,27159,28799
55215,27099,28681
55147,27040,28568
55088,26995,28477
55042,26967,28414
55016,26952,28384
55024,26963,28409
55082,27014,28517
55199,27114,28733
55388,27271,29081
55661,27502,29589
56029,27817,30267
56488,28209,31099
57024,28662,32050
57617,29163,33080
58236,29686,34144
58852,30203,35189
59444,30692,36176
59998,31146,37086
60506,31565,37910
60962,31942,38640
61360,32272,39271
61702,32556,39811
61989,32796,40267
62222,32990,40639
62410,33141,40930
62564,33259,41159
62686,33352,41336
62776,33421,41465
62841,33467,41552
62887,33497,41612
62918,33517,41648
62935,33524,41661
62945,33520,41659
62950,33514,41652
62953,33508,41644
62953,33499,41630
62956,33487,41613
62964,33481,41601
62972,33478,41592
62979,33475,41581
62986,33475,41574
62999,33485,41578
63018,33501,41591
63038,33514,41602
63057,33525,41614
63079,33538,41631
63101,33551,41649
63120,33558,41661
63140,33565,41671
63162,33574,41682
63182,33582,41689
63193,33583,41689
63198,33580,41682
63198,33576,41666
63186,33564,41635
63160,33538,41581
63123,33501,41509
63075,33457,41420
63012,33401,41311
62936,33330,41182
62852,33252,41044
62757,33173,40898
62655,33091,40739
62554,33004,40570
62460,32917,40405
62375,32834,40252
62294,32757,40107
62219,32686,39968
62152,32627,39845
62094,32578,39739
62041,32532,39643
61995,32486,39558
61958,32449,39492
61929,32423,39445
61905,32405,39407
61889,32393,39376
61885,32391,39360
61889,32394,39353
61891,32392,39345
61888,32383,39338
61886,32376,39337
61886,32372,39335
61881,32363,39321
61872,32348,39298
61856,32330,39272
61833,32306,39239
61801,32272,39187
61759,32234,39117
61709,32196,39037
61646,32152,38945
61569,32094,38835
61482,32029,38711
61390,31960,38577
61291,31885,38426
61184,31798,38255
61071,31703,38071
60955,31606,37881
60835,31507,37682
60709,31402,37472
60580,31296,37257
60452,31192,37043
60326,31087,36827
60200,30979,36609
60076,30875,36395
59956,30775,36186
59838,30678,35977
59721,30582,35771
59609,30490,35572
59498,30400,35381
59387,30308,35190
59278,30213,34999
59171,30120,34813
59064,30031,34634
58956,29944,34456
58850,29860,34280
58749,29786,34114
58652,29717,33958
58560,29647,33804
58472,29574,33652
58388,29505,33506
58305,29437,33364
58220,29365,33221
58138,29293,33081
58060,29227,32951
57985,29166,32828
57908,29102,32703
57832,29038,32578
57761,28981,32462
57690,28927,32352
57616,28868,32239
57543,28804,32124
57472,28741,32014
57402,28683,31905
57329,28625,31796
57258,28568,31688
57193,28515,31586
57130,28466,31486
57065,28413,31380
57001,28362,31272
56940,28314,31167
56878,28265,31060
56813,28213,30952
56746,28161,30848
56677,28108,30746
56607,28053,30643
56535,27994,30538
56464,27934,30430
56392,27876,30324
56317,27818,30215
56243,27760,30102
56174,27706,29990
56110,27655,29885
56049,27606,29781
55993,27561,29678
55942,27523,29581
55890,27490,29487
55832,27454,29393
55772,27415,29299
55714,27376,29209
55655,27337,29121
55593,27293,29031
55532,27248,28939
55475,27205,28855
55420,27164,28775
55364,27120,28689
55307,27072,28595
55253,27025,28503
55198,26975,28413
55134,26919,28320
55066,26862,28226
55002,26810,28138
54940,26762,28051
54877,26713,27954
54813,26667,27854
54750,26626,27759
54689,26588,27666
54627,26549,27570
54566,26513,27473
54504,26480,27379
54443,26444,27291
54384,26403,27207
54335,26365,27137
54300,26340,27092
54286,26330,27081
54296,26340,27115
54341,26384,27217
54437,26476,27415
54604,26624,27737
54860,26843,28212
55220,27148,28869
55685,27545,29711
56248,28021,30712
56889,28560,31833
57580,29145,33021
58284,29744,34215
58969,30322,35362
59613,30862,36431
60203,31354,37406
60730,31792,38274
61193,32171,39028
61589,32492,39667
61922,32763,40202
62199,32986,40644
62424,33164,40997
62604,33304,41272
62744,33414,41482
62852,33496,41637
62932,33552,41742
62995,33589,41810
63044,33619,41856
63077,33639,41884
63097,33645,41892
63111,33643,41887
63122,33643,41879
63133,33644,41871
63143,33642,41861
63155,33640,41853
63169,33642,41855
63186,33649,41865
63204,33655,41879
63225,33663,41900
63251,33676,41932
63280,33692,41967
63313,33710,42000
63350,33730,42037
63389,33756,42079
63427,33784,42122
63465,33810,42162
63506,33839,42205
63547,33870,42251
63584,33896,42290
63616,33918,42323
63647,33940,42353
63674,33959,42375
63690,33966,42382
63697,33960,42371
63694,33946,42342
63677,33922,42293
63641,33884,42221
63589,33835,42126
63524,33778,42015
63447,33714,41894
63362,33644,41763
63276,33573,41626
63194,33507,41490
63115,33442,41354
63039,33376,41217
62968,33310,41084
62903,33250,40963
62842,33198,40851
62781,33151,40746
62727,33106,40656
62682,33069,40583
62644,33037,40518
62608,33005,40454
62576,32977,40400
62553,32955,40360
62537,32934,40330
62520,32910,40303
62506,32889,40280
62493,32875,40263
62480,32865,40241
62464,32852,40209
62448,32836,40172
62432,32820,40134
62409,32800,40089
62376,32772,40032
62336,32738,39968
62293,32701,39897
62241,32656,39814
62178,32601,39717
62110,32541,39614
62040,32480,39502
61964,32410,39375
61880,32330,39233
61788,32245,39079
61691,32157,38916
61583,32060,38737
61463,31954,38545
61339,31849,38347
61211,31746,38142
61078,31638,37928
60941,31525,37708
60806,31414,37489
60675,31307,37271
60545,31200,37051
60415,31091,36830
60287,30987,36614
60162,30885,36400
60034,30778,36184
59908,30671,35969
59785,30568,35761
59665,30465,35559
59542,30358,35358
59421,30252,35162
59304,30151,34974
59188,30053,34790
59073,29956,34608
58964,29866,34430
58862,29784,34262
58764,29706,34100
58669,29629,33940
58580,29555,33788
58494,29485,33644
58407,29414,33504
58321,29340,33363
58236,29269,33226
58151,29205,33094
58065,29143,32962
57982,29080,32829
57903,29018,32698
57826,28960,32571
57748,28904,32442
57668,28850,32310
57592,28799,32184
57523,28751,32067
57456,28701,31954
57391,28645,31841
57330,28591,31733
57271,28541,31634
57210,28491,31535
57149,28438,31434
57090,28388,31334
57030,28338,31235
56965,28284,31131
56899,28224,31021
56834,28168,30912
56767,28114,30804
56695,28056,30691
56620,27995,30577
56546,27938,30468
56472,27885,30363
56402,27832,30255
56336,27780,30147
56271,27732,30041
56203,27683,29933
56132,27630,29821
56064,27579,29709
55998,27533,29601
55930,27486,29496
55860,27435,29390
55791,27382,29288
55727,27331,29193
55662,27282,29101
55598,27231,29008
55536,27180,28914
55475,27132,28820
55412,27084,28722
55348,27035,28620
55285,26986,28518
55221,26936,28418
55153,26880,28318
55082,26824,28216
55011,26770,28114
54944,26717,28013
54878,26661,27908
54811,26606,27797
54747,26557,27691
54682,26510,27588
54615,26457,27486
54548,26402,27384
54482,26349,27284
54413,26296,27188
54339,26241,27087
54269,26188,26984
54206,26143,26889
54146,26105,26805
54092,26070,26730
54053,26040,26672
54035,26028,26647
54042,26041,26668
54081,26081,26747
54164,26156,26910
54310,26284,27191
54533,26476,27613
54844,26742,28195
55257,27092,28953
55772,27530,29888
56374,28042,30965
57039,28606,32129
57737,29194,33327
58434,29780,34508
59097,30339,35623
59707,30848,36639
60257,31300,37541
60744,31698,38330
61163,32037,39001
61518,32315,39558
61808,32541,40009
62034,32721,40364
62206,32860,40633
62335,32959,40827
62433,33031,40963
62503,33083,41054
62548,33112,41108
62571,33122,41130
62579,33121,41132
62576,33114,41122
62564,33099,41094
62548,33078,41052
62532,33056,41009
62516,33035,40972
62498,33009,40931
62482,32983,40890
62469,32964,40859
62463,32955,40840
62461,32949,40824
62462,32943,40812
62465,32942,40811
62470,32944,40819
62477,32946,40826
62487,32948,40834
62501,32958,40851
62520,32974,40874
62543,32990,40898
62570,33006,40923
62599,33023,40949
62626,33036,40967
62642,33041,40965
62647,33036,40947
62638,33023,40913
62612,33001,40858
62567,32962,40777
62506,32908,40672
62431,32843,40548
62342,32764,40402
62241,32672,40236
62133,32575,40059
62020,32479,39877
61905,32383,39693
61793,32286,39507
61687,32195,39328
61585,32114,39167
61490,32039,39016
61407,31967,38873
61338,31905,38746
61279,31856,38639
61227,31816,38551
61184,31782,38482
61152,31757,38429
61131,31742,38391
61113,31731,38361
61099,31720,38340
61092,31713,38328
61091,31710,38322
61089,31708,38313
61086,31703,38299
61082,31698,38283
61074,31691,38262
61059,31678,38233
61038,31658,38197
61014,31636,38156
60985,31609,38103
60945,31572,38032
60894,31528,37950
60837,31484,37863
60771,31434,37763
60695,31374,37638
60613,31307,37500
60524,31239,37355
60427,31164,37202
60323,31077,37036
60216,30983,36862
60105,30891,36682
59990,30796,36494
59869,30695,36294
59748,30593,36091
59626,30493,35892
59501,30391,35689
59373,30286,35477
59245,30185,35263
59118,30090,35052
58994,29992,34842
58871,29892,34631
58752,29797,34428
58640,29709,34238
58532,29623,34055
58424,29536,33875
58320,29453,33703
58221,29378,33540
58124,29303,33380
58030,29228,33220
57941,29160,33063
57856,29096,32912
57772,29029,32768
57687,28959,32631
57607,28893,32505
57530,28835,32387
57458,28778,32270
57388,28721,32156
57323,28669,32049
57263,28621,31951
57205,28569,31850
57146,28517,31749
57087,28470,31653
57027,28423,31557
56964,28372,31455
56899,28323,31355
56833,28281,31262
56769,28239,31171
56706,28194,31075
56648,28147,30976
56593,28102,30881
56534,28055,30787
56472,28002,30694
56412,27948,30600
56356,27899,30511
56300,27855,30425
56240,27814,30336
56181,27773,30244
56126,27735,30153
56071,27696,30060
56013,27654,29962
55951,27608,29860
55888,27560,29756
55824,27506,29650
55756,27448,29538
55690,27392,29427
55626,27336,29318
55555,27273,29205
55478,27202,29085
55401,27133,28965
55326,27070,28850
55248,27008,28733
55167,26947,28611
55087,26887,28491
55008,26830,28375
54928,26775,28257
54851,26720,28140
54781,26669,28027
54712,26620,27919
54644,26571,27815
54580,26523,27721
54526,26482,27644
54484,26453,27586
54460,26436,27553
54465,26440,27565
54511,26480,27651
54610,26567,27836
54772,26707,28139
55015,26914,28589
55349,27203,29212
55778,27574,30001
56294,28017,30931
56881,28519,31966
57518,29066,33067
58173,29623,34181
58816,30161,35255
59422,30661,36260
59978,31117,37177
60475,31524,37992
60909,31876,38698
61281,32178,39302
61596,32435,39812
61855,32645,40225
62062,32811,40549
62226,32941,40796
62353,33044,40980
62443,33120,41108
62504,33170,41194
62543,33200,41249
62565,33215,41278
62571,33218,41282
62570,33213,41266
62565,33206,41240
62554,33201,41209
62537,33192,41168
62519,33176,41122
62504,33161,41082
62490,33148,41051
62476,33131,41023
62466,33117,41001
62467,33113,40991
62475,33117,40991
62486,33122,40996
62500,33127,41006
62520,33136,41023
62546,33149,41043
62572,33160,41057
62595,33173,41070
62615,33189,41086
62630,33203,41097
62638,33207,41093
62641,33203,41077
62636,33194,41052
62615,33177,41009
62574,33145,40943
62517,33099,40857
62452,33043,40753
62377,32976,40630
62291,32895,40486
62197,32808,40332
62099,32721,40174
61994,32634,40006
61887,32544,39829
61786,32457,39653
61693,32376,39488
61605,32301,39337
61523,32232,39197
61448,32171,39073
61382,32122,38965
61324,32080,38870
61278,32042,38790
61244,32013,38728
61216,31991,38677
61190,31969,38632
61170,31946,38590
61155,31928,38555
61143,31915,38527
61128,31899,38498
61109,31878,38466
61091,31858,38435
61074,31841,38405
61053,31818,38366
61026,31787,38321
60993,31754,38274
60955,31718,38216
60912,31677,38143
60863,31632,38056
60809,31585,37960
60745,31533,37852
60672,31471,37729
60594,31403,37594
60514,31333,37452
60424,31258,37298
60319,31172,37126
60208,31081,36943
60093,30991,36754
59971,30895,36551
59842,30791,36333
59714,30683,36109
59585,30576,35888
59454,30468,35671
59320,30358,35452
59188,30250,35234
59059,30149,35022
58931,30048,34812
58803,29945,34603
58683,29847,34403
58571,29755,34216
58464,29666,34035
58361,29578,33858
58263,29493,33687
58172,29415,33523
58083,29340,33362
57997,29265,33205
57916,29196,33058
57836,29132,32921
57755,29067,32787
57674,29002,32657
57595,28944,32537
57518,28890,32422
57442,28837,32305
57368,28786,32189
57298,28739,32078
57230,28694,31970
57163,28645,31858
57096,28591,31747
57032,28537,31641
56970,28484,31540
56906,28431,31434
56841,28379,31328
56778,28334,31227
56713,28289,31125
56646,28238,31015
56578,28182,30902
56514,28128,30796
56451,28075,30692
56383,28020,30586
56313,27965,30481
56248,27917,30382
56188,27873,30289
56128,27826,30196
56070,27778,30102
56014,27734,30011
55959,27693,29922
55904,27650,29832
55849,27607,29746
55794,27569,29666
55739,27534,29585
55683,27496,29501
55629,27456,29416
55573,27415,29332
55514,27370,29244
55453,27323,29155
55392,27278,29071
55331,27233,28990
55268,27182,28905
55204,27131,28815
55143,27085,28727
55084,27040,28641
55021,26992,28551
54955,26943,28460
54894,26899,28372
54835,26857,28284
54773,26814,28188
54714,26771,28088
54659,26734,27993
54603,26697,27901
54545,26655,27806
54486,26607,27708
54429,26562,27616
54370,26518,27527
54306,26472,27432
54239,26424,27333
54175,26380,27238
54110,26335,27145
54037,26285,27046
53965,26235,26945
53901,26190,26853
53849,26152,26772
53808,26120,26701
53783,26101,26655
53785,26103,26655
53819,26130,26714
53892,26190,26850
54021,26301,27092
54224,26480,27475
54517,26738,28025
54912,27080,28758
55413,27511,29672
56012,28023,30739
56685,28591,31904
57396,29185,33110
58111,29779,34303
58800,30351,35439
59439,30879,36484
60017,31352,37425
60532,31771,38257
60981,32139,38973
61364,32451,39573
61681,32709,40068
61941,32920,40472
62148,33092,40794
62308,33223,41036
62432,33318,41214
62528,33390,41349
62601,33445,41450
62654,33480,41515
62694,33499,41554
62725,33515,41584
62750,33530,41609
62768,33539,41625
62783,33542,41634
62798,33546,41645
62811,33551,41655
62818,33551,41659
62825,33554,41666
62839,33565,41681
62858,33579,41698
62877,33589,41711
62900,33600,41726
62928,33617,41752
62961,33638,41786
62998,33659,41824
63039,33682,41866
63083,33710,41914
63129,33740,41963
63177,33769,42009
63225,33798,42055
63269,33826,42099
63305,33849,42136
63334,33864,42164
63358,33873,42183
63373,33875,42190
63374,33865,42178
63363,33845,42146
63340,33817,42099
63301,33781,42040
63248,33736,41961
63183,33680,41861
63111,33618,41748
63032,33550,41625
62948,33478,41491
62864,33404,41348
62781,33331,41206
62703,33261,41071
62628,33194,40940
62560,33134,40812
62498,33086,40697
62442,33045,40597
62391,33002,40507
62346,32958,40430
62311,32923,40370
62282,32898,40320
62255,32876,40273
62228,32855,40231
62208,32837,40202
62192,32821,40178
62175,32803,40148
62157,32787,40114
62139,32773,40079
62115,32753,40040
62087,32724,39994
62057,32692,39946
62029,32665,39899
61996,32637,39848
61955,32603,39785
61913,32569,39714
61871,32539,39640
61821,32505,39558
61758,32459,39467
61687,32403,39371
61612,32342,39266
61532,32277,39146
61443,32210,39009
61352,32142,38862
61259,32072,38709
61160,31993,38543
61058,31906,38367
60955,31815,38191
60852,31721,38015
60743,31625,37832
60630,31526,37640
60519,31428,37448
60409,31331,37255
60295,31232,37060
60180,31135,36864
60068,31040,36677
59958,30947,36498
59846,30851,36319
59734,30758,36141
59623,30672,35972
59513,30590,35809
59402,30506,35642
59294,30421,35472
59192,30342,35305
59089,30265,35141
58984,30186,34971
58882,30109,34802
58785,30037,34638
58688,29966,34479
58588,29892,34317
58490,29817,34155
58394,29744,33998
58297,29671,33845
58197,29596,33692
58097,29520,33543
57999,29446,33400
57902,29373,33261
57809,29298,33120
57723,29221,32981
57642,29148,32845
57563,29076,32710
57485,29005,32570
57406,28936,32431
57328,28874,32298
57249,28814,32165
57171,28755,32031
57094,28695,31901
57015,28637,31780
56933,28580,31663
56853,28522,31546
56779,28469,31434
56709,28418,31325
56636,28364,31213
56560,28304,31098
56486,28245,30983
56415,28191,30869
56339,28135,30753
56261,28078,30637
56187,28024,30526
56119,27973,30421
56050,27916,30311
55981,27857,30196
55913,27802,30085
55842,27749,29976
55766,27692,29863
55690,27635,29753
55617,27584,29652
55544,27535,29555
55469,27483,29451
55392,27429,29339
55317,27378,29229
55245,27329,29119
55173,27278,29008
55106,27227,28902
55044,27182,28804
54984,27138,28707
54925,27091,28606
54866,27042,28502
54805,26992,28403
54740,26942,28306
54675,26890,28207
54611,26836,28107
54546,26783,28009
54476,26726,27905
54405,26664,27798
54337,26608,27692
54269,26559,27586
54200,26510,27478
54127,26456,27368
54053,26401,27260
53980,26347,27155
53908,26289,27048
53838,26227,26935
53774,26167,26824
53714,26113,26717
53654,26061,26612
53597,26013,26517
53552,25977,26448
53523,25960,26413
53518,25960,26419
53545,25989,26490
53619,26060,26656
53755,26183,26939
53967,26368,27359
54276,26631,27945
54695,26987,28716
55223,27434,29663
55842,27954,30745
56526,28524,31912
57244,29118,33106
57952,29701,34269
58623,30249,35358
59244,30754,36352
59804,31211,37244
60293,31611,38024
60710,31948,38689
61061,32230,39247
61351,32463,39709
61585,32651,40080
61771,32794,40367
61914,32901,40585
62019,32979,40745
62089,33027,40856
62132,33050,40924
62157,33059,40960
62170,33062,40974
62172,33059,40967
62167,33045,40941
62157,33029,40906
62147,33013,40871
62134,32994,40834
62120,32971,40795
62109,32953,40761
62104,32941,40736
62099,32931,40715
62097,32921,40694
62100,32913,40680
62108,32910,40676
62118,32908,40677
62131,32909,40683
62148,32919,40696
62167,32937,40712
62186,32951,40723
62205,32959,40730
62227,32967,40743
62250,32976,40761
62267,32980,40773
62274,32981,40775
62271,32980,40770
62257,32971,40750
62227,32945,40704
62183,32907,40635
62127,32859,40546
62058,32800,40434
61975,32729,40295
61881,32647,40141
61780,32558,39979
61671,32461,39807
61556,32357,39623
61442,32255,39437
61336,32162,39258
61236,32075,39088
61141,31989,38924
61055,31911,38772
60979,31844,38636
60910,31787,38514
60846,31735,38404
60790,31692,38311
60742,31657,38237
60702,31627,38174
60668,31601,38122
60641,31582,38083
60621,31568,38057
60606,31554,38034
60594,31540,38011
60585,31528,37992
60576,31517,37968
60560,31500,37933
60537,31475,37893
60513,31454,37856
60483,31434,37816
60446,31407,37763
60405,31375,37699
60363,31340,37629
60316,31301,37551
60259,31251,37459
60192,31193,37349
60120,31135,37226
60043,31073,37090
59954,31001,36936
59857,30923,36770
59753,30841,36597
59638,30747,36414
59512,30640,36218
59381,30528,36012
59250,30420,35805
59119,30313,35598
58986,30204,35386
58852,30096,35171
58719,29995,34956
58585,29895,34740
58450,29793,34520
58316,29689,34301
58186,29587,34085
58059,29483,33871
57934,29375,33657
57812,29270,33450
57696,29170,33253
57584,29073,33060
57473,28976,32868
57362,28883,32683
57251,28795,32504
57142,28707,32330
57040,28621,32159
56949,28541,31997
56866,28468,31843
56784,28398,31691
56704,28329,31541
56628,28262,31403
56556,28198,31274
56481,28133,31149
56406,28069,31027
56335,28012,30914
56267,27961,30804
56198,27907,30691
56129,27851,30577
56061,27799,30468
55996,27751,30362
55929,27702,30255
55864,27653,30149
55803,27607,30047
55744,27561,29945
55683,27510,29838
55624,27458,29734
55565,27410,29642
55503,27361,29554
55437,27311,29463
55373,27263,29372
55312,27220,29286
55254,27177,29200
55196,27132,29112
55142,27084,29021
55090,27036,28929
55035,26988,28837
54976,26941,28744
54915,26895,28653
54852,26852,28565
54782,26809,28472
54709,26764,28371
54635,26715,28267
54561,26667,28164
54487,26616,28058
54414,26560,27947
54343,26506,27833
54274,26455,27720
54207,26404,27606
54140,26352,27493
54073,26302,27384
54007,26254,27277
53941,26204,27169
53874,26153,27059
53810,26106,26958
53750,26062,26866
53691,26017,26777
53635,25973,26692
53589,25936,26621
53555,25910,26573
53535,25898,26549
53539,25905,26566
53580,25945,26647
53667,26025,26813
53811,26151,27083
54027,26336,27487
54331,26598,28058
54733,26943,28804
55231,27366,29711
55818,27860,30748
56471,28411,31878
57155,28989,33041
57834,29558,34182
58484,30097,35260
59088,30595,36250
59630,31041,37131
60103,31428,37892
60510,31757,38540
60855,32035,39082
61138,32261,39517
61364,32438,39856
61541,32577,40116
61674,32686,40315
61766,32764,40458
61824,32812,40550
61856,32838,40600
61869,32849,40621
61866,32847,40617
61850,32831,40594
61829,32810,40560
61804,32786,40521
61777,32757,40473
61748,32724,40416
61719,32691,40359
61693,32660,40306
61669,32630,40254
61646,32603,40205
61628,32584,40168
61617,32573,40141
61611,32564,40118
61608,32554,40096
61611,32550,40085
61618,32554,40083
61626,32558,40083
61632,32562,40083
61639,32566,40086
61647,32571,40085
61651,32571,40073
61650,32564,40049
61640,32552,40016
61616,32529,39965
61572,32490,39887
61510,32439,39787
61438,32380,39669
61353,32309,39526
61253,32225,39358
61142,32132,39176
61027,32034,38989
60910,31930,38794
60791,31821,38589
60677,31714,38388
60566,31615,38200
60459,31521,38022
60357,31433,37856
60264,31355,37711
60183,31291,37587
60114,31239,37480
60056,31194,37387
60011,31160,37313
59977,31138,37259
59948,31123,37219
59927,31114,37189
59918,31112,37176
59920,31118,37176
59928,31125,37180
59936,31128,37186
59945,31130,37194
59951,31131,37202
59949,31127,37200
59936,31117,37180
59920,31105,37152
59901,31093,37120
59874,31075,37074
59836,31048,37014
59789,31016,36942
59731,30975,36854
59658,30920,36744
59576,30855,36615
59491,30787,36474
59397,30709,36318
59292,30617,36142
59175,30514,35950
59051,30411,35754
58919,30307,35551
58781,30195,35331
58636,30077,35099
58490,29962,34865
58344,29849,34629
58198,29734,34390
58057,29619,34154
57921,29510,33923
57788,29404,33696
57656,29295,33470
57527,29188,33250
57405,29087,33038
57290,28989,32828
57179,28888,32618
57072,28791,32417
56965,28702,32226
56856,28615,32041
56749,28528,31860
56644,28445,31692
56541,28369,31539
56441,28294,31393
56347,28219,31250
56259,28148,31115
56176,28082,30984
56096,28018,30854
56021,27954,30728
55952,27899,30612
55887,27849,30504
55822,27797,30395
55758,27743,30285
55697,27691,30180
55636,27640,30079
55570,27586,29977
55501,27528,29873
55435,27476,29774
55374,27428,29679
55314,27379,29582
55257,27333,29485
55205,27292,29394
55156,27252,29309
55106,27209,29219
55058,27164,29126
55010,27125,29037
54957,27086,28949
54897,27040,28857
54834,26990,28761
54772,26942,28668
54708,26899,28575
54641,26857,28479
54574,26816,28383
54507,26774,28291
54443,26729,28195
54379,26682,28096
54317,26638,28001
54258,26597,27913
54201,26556,27826
54142,26512,27738
54085,26469,27651
54030,26427,27564
53975,26381,27473
53916,26330,27379
53856,26279,27287
53796,26230,27194
53735,26179,27094
53672,26125,26986
53608,26072,26879
53542,26022,26772
53472,25970,26660
53404,25914,26548
53339,25864,26443
53279,25820,26344
53216,25772,26244
53153,25721,26147
53094,25674,26061
53039,25632,25983
52986,25591,25907
52936,25552,25832
52891,25521,25765
52854,25501,25710
52824,25489,25667
52811,25492,25650
52825,25517,25682
52874,25571,25781
52968,25665,25966
53126,25814,26267
53368,26029,26722
53709,26318,27354
54153,26688,28169
54704,27146,29160
55347,27679,30291
56053,28263,31507
56786,28866,32746
57514,29463,33953
58205,30028,35086
58838,30543,36114
59401,30996,37022
59895,31392,37808
60318,31734,38474
60672,32019,39027
60963,32247,39475
61200,32430,39834
61389,32575,40118
61534,32688,40334
61641,32769,40489
61721,32825,40599
61778,32863,40672
61817,32885,40715
61845,32896,40737
61863,32902,40747
61871,32904,40748
61872,32900,40737
61869,32893,40719
61868,32889,40703
61869,32886,40691
61872,32882,40680
61878,32878,40669
61885,32877,40666
61892,32877,40668
61898,32877,40666
61906,32880,40664
61919,32889,40669
61936,32906,40682
61956,32923,40702
61981,32940,40730
62013,32962,40770
62047,32986,40812
62077,33005,40848
62105,33021,40879
62131,33038,40910
62152,33053,40934
62162,33057,40942
62165,33052,40937
62160,33041,40916
62141,33019,40870
62103,32980,40794
62052,32929,40694
61989,32867,40577
61914,32795,40444
61825,32713,40294
61731,32629,40134
61635,32544,39970
61536,32458,39801
61437,32371,39633
61341,32286,39472
61248,32207,39319
61160,32133,39173
61078,32061,39036
61004,31997,38914
60940,31945,38806
60881,31900,38710
60827,31860,38627
60786,31830,38562
60757,31809,38511
60732,31791,38466
60709,31773,38424
60691,31758,38391
60677,31747,38362
60663,31733,38330
60648,31718,38294
60634,31706,38261
60618,31694,38226
60596,31673,38179
60569,31647,38122
60536,31619,38064
60495,31587,38001
60447,31548,37928
60393,31502,37846
60333,31452,37757
60266,31395,37655
60190,31329,37536
60108,31260,37403
60022,31189,37259
59928,31113,37100
59823,31027,36924
59713,30938,36738
59602,30848,36550
59487,30753,36355
59369,30652,36153
59249,30547,35950
59128,30441,35747
59003,30333,35538
58874,30222,35323
58748,30112,35109
58625,30007,34904
58503,29906,34701
58382,29807,34497
58266,29713,34299
58157,29626,34112
58051,29543,33931
57947,29459,33755
57846,29376,33589
57748,29299,33433
57650,29224,33280
57552,29148,33125
57458,29077,32974
57367,29012,32827
57277,28947,32679
57190,28881,32531
57106,28818,32390
57028,28760,32256
56953,28700,32125
56877,28639,31999
56803,28581,31883
56726,28523,31768
56646,28460,31649
56568,28397,31531
56494,28339,31420
56422,28282,31309
56353,28223,31193
56292,28168,31080
56237,28119,30975
56182,28072,30872
56125,28022,30768
56068,27972,30666
56009,27925,30567
55948,27877,30469
55883,27828,30369
55819,27781,30271
55757,27738,30177
55694,27690,30082
55629,27636,29982
55564,27579,29879
55498,27527,29777
55430,27477,29674
55362,27425,29566
55296,27374,29459
55234,27327,29357
55171,27279,29255
55107,27228,29151
55046,27176,29048
54987,27125,28945
54922,27068,28839
54851,27006,28731
54775,26947,28623
54693,26891,28513
54612,26834,28397
54540,26779,28279
54480,26732,28174
54426,26690,28081
54368,26646,27990
54306,26599,27897
54246,26555,27811
54188,26513,27726
54128,26466,27635
54068,26416,27541
54009,26371,27450
53952,26327,27360
53897,26278,27264
53841,26229,27166
53787,26185,27073
53732,26142,26983
53673,26095,26888
53612,26048,26792
53552,26006,26699
53492,25964,26611
53430,25919,26521
53370,25872,26434
53313,25827,26354
53257,25784,26277
53199,25740,26199
53141,25696,26118
53087,25655,26038
53035,25614,25955
52984,25573,25872
52936,25536,25792
52890,25503,25716
52842,25472,25642
52797,25441,25570
52761,25415,25514
52738,25401,25485
52736,25404,25493
52764,25435,25558
52836,25507,25708
52966,25628,25967
53168,25805,26359
53463,26056,26914
53868,26400,27657
54386,26837,28587
55003,27353,29672
55698,27927,30866
56436,28532,32114
57180,29139,33355
57895,29720,34536
58559,30257,35620
59156,30744,36590
59679,31173,37438
60126,31542,38160
60500,31855,38764
60813,32117,39264
61070,32331,39661
61271,32494,39962
61427,32618,40187
61549,32712,40353
61639,32778,40468
61701,32818,40541
61741,32840,40582
61768,32852,40605
61782,32856,40612
61784,32850,40605
61780,32840,40591
61774,32828,40575
61764,32815,40553
61753,32800,40528
61747,32787,40506
61744,32779,40490
61744,32772,40478
61746,32766,40467
61754,32763,40461
61766,32765,40463
61780,32770,40470
61799,32779,40483
61824,32795,40505
61851,32817,40534
61877,32838,40563
61900,32855,40589
61926,32873,40617
61953,32892,40646
61974,32905,40667
61989,32914,40681
62003,32922,40690
62011,32925,40686
62004,32917,40661
61983,32897,40615
61949,32868,40549
61900,32825,40459
61836,32764,40343
61761,32690,40204
61677,32612,40054
61586,32531,39896
61486,32444,39728
61384,32355,39559
61288,32271,39398
61196,32190,39240
61104,32109,39086
61019,32031,38943
60944,31964,38818
60876,31904,38706
60814,31849,38605
60761,31802,38516
60720,31766,38444
60686,31738,38385
60655,31711,38335
60630,31687,38294
60612,31671,38262
60597,31659,38236
60581,31648,38209
60565,31640,38184
60551,31631,38160
60534,31618,38128
60515,31601,38088
60495,31584,38045
60473,31564,37997
60443,31535,37939
60405,31496,37871
60361,31454,37797
60310,31407,37713
60251,31349,37613
60183,31282,37499
60112,31212,37376
60035,31139,37242
59948,31061,37091
59851,30976,36923
59746,30888,36747
59634,30798,36561
59514,30700,36363
59389,30595,36156
59259,30489,35950
59124,30384,35743
58986,30274,35526
58847,30161,35306
58714,30054,35092
58583,29952,34881
58453,29850,34666
58323,29747,34449
58197,29650,34236
58077,29555,34027
57956,29456,33816
57836,29354,33608
57720,29255,33409
57606,29158,33216
57489,29059,33025
57376,28965,32844
57268,28881,32676
57164,28802,32514
57064,28726,32354
56971,28654,32201
56886,28587,32058
56808,28520,31921
56732,28452,31785
56658,28388,31654
56587,28331,31525
56517,28275,31399
56449,28218,31276
56383,28166,31160
56319,28117,31051
56252,28066,30945
56182,28013,30842
56115,27964,30743
56048,27916,30641
55978,27863,30533
55909,27807,30421
55843,27756,30313
55781,27708,30210
55716,27659,30107
55653,27609,30005
55596,27561,29908
55543,27515,29812
55488,27466,29712
55433,27415,29613
55379,27365,29519
55320,27313,29426
55254,27259,29330
55184,27205,29229
55119,27157,29131
55054,27108,29032
54986,27054,28925
54920,27002,28821
54860,26957,28725
54803,26915,28630
54747,26870,28533
54694,26826,28437
54642,26784,28345
54586,26742,28253
54527,26694,28155
54469,26644,28055
54408,26594,27955
54343,26539,27852
54276,26476,27744
54207,26414,27639
54134,26358,27541
54058,26304,27443
53982,26252,27339
53908,26204,27235
53839,26159,27134
53774,26110,27034
53711,26059,26932
53650,26011,26834
53588,25965,26738
53522,25917,26641
53457,25869,26543
53397,25826,26448
53339,25788,26359
53282,25748,26273
53229,25707,26196
53190,25676,26143
53171,25663,26121
53175,25668,26135
53210,25699,26204
53293,25772,26359
53435,25899,26622
53645,26085,27012
53942,26343,27558
54340,26685,28280
54838,27110,29173
55424,27605,30209
56082,28157,31349
56783,28742,32540
57490,29326,33720
58168,29882,34836
58798,30396,35860
59368,30863,36779
59867,31274,37583
60290,31625,38263
60646,31920,38828
60944,32166,39291
61181,32363,39661
61364,32512,39945
61504,32623,40160
61609,32703,40318
61683,32756,40421
61728,32784,40477
61752,32798,40499
61764,32802,40500
61761,32797,40481
61743,32780,40442
61717,32758,40393
61684,32730,40340
61647,32696,40280
61609,32656,40213
61576,32617,40149
61545,32584,40091
61516,32553,40035
61491,32525,39983
61472,32506,39940
61458,32495,39909
61449,32486,39888
61447,32480,39873
61454,32478,39867
61465,32477,39870
61473,32476,39870
61477,32476,39865
61480,32482,39862
61483,32487,39856
61477,32481,39836
61459,32461,39795
61428,32429,39735
61380,32384,39651
61315,32323,39539
61238,32249,39407
61151,32169,39262
61054,32084,39100
60945,31990,38921
60831,31893,38733
60715,31800,38543
60598,31710,38354
60487,31618,38167
60387,31531,37991
60299,31454,37834
60219,31385,37693
60147,31320,37567
60088,31265,37459
60039,31224,37372
59997,31190,37302
59963,31162,37245
59939,31140,37203
59924,31127,37176
59912,31118,37154
59901,31110,37137
59891,31103,37127
59883,31098,37120
59874,31090,37110
59865,31080,37094
59857,31071,37078
59850,31062,37059
59837,31047,37029
59813,31027,36986
59783,31001,36934
59744,30971,36873
59697,30931,36798
59643,30879,36709
59584,30822,36607
59519,30761,36491
59444,30692,36356
59358,30616,36203
59266,30538,36040
59163,30458,35863
59050,30369,35673
58931,30276,35480
58810,30181,35285
58685,30081,35081
58552,29973,34864
58414,29859,34639
58276,29747,34410
58135,29635,34174
57989,29519,33930
57845,29402,33686
57705,29288,33447
57567,29176,33211
57433,29065,32978
57304,28955,32754
57182,28849,32540
57063,28748,32336
56946,28647,32137
56834,28550,31946
56725,28459,31766
56619,28370,31593
56516,28283,31426
56422,28202,31269
56334,28129,31123
56249,28062,30979
56168,27998,30838
56094,27940,30708
56024,27891,30589
55956,27846,30472
55889,27798,30360
55827,27751,30259
55766,27707,30166
55701,27661,30069
55636,27611,29968
55574,27563,29870
55514,27516,29776
55451,27464,29681
55385,27409,29589
55322,27355,29499
55261,27304,29411
55203,27253,29320
55149,27203,29229
55100,27161,29142
55052,27125,29059
54999,27089,28971
54947,27054,28883
54896,27022,28801
54846,26987,28721
54790,26945,28640
54730,26899,28558
54672,26856,28479
54614,26814,28396
54556,26768,28304
54498,26720,28208
54434,26674,28112
54366,26628,28012
54297,26577,27906
54230,26522,27799
54167,26465,27696
54104,26407,27593
54035,26345,27486
53963,26286,27377
53893,26232,27268
53821,26177,27154
53748,26120,27037
53675,26065,26926
53604,26012,26817
53534,25957,26706
53463,25900,26594
53392,25847,26489
53322,25796,26392
53253,25745,26294
53184,25695,26195
53119,25651,26102
53059,25612,26015
53003,25575,25930
52954,25541,25850
52921,25518,25789
52905,25508,25758
52907,25511,25762
52938,25539,25820
53013,25605,25960
53143,25719,26199
53342,25887,26557
53624,26127,27069
54007,26451,27762
54495,26860,28633
55079,27346,29656
55739,27897,30792
56449,28489,31995
57173,29090,33201
57871,29667,34353
58523,30209,35425
59120,30704,36398
59650,31141,37255
60111,31517,37994
60508,31838,38622
60844,32111,39147
61120,32336,39575
61339,32513,39911
61512,32649,40170
61644,32751,40367
61737,32823,40508
61801,32871,40604
61845,32903,40665
61873,32922,40702
61886,32929,40716
61888,32926,40712
61887,32919,40696
61883,32911,40675
61876,32900,40646
61870,32885,40612
61869,32873,40586
61870,32870,40569
61872,32870,40556
61875,32872,40547
61881,32879,40550
61887,32889,40563
61894,32899,40578
61905,32909,40598
61926,32925,40626
61954,32945,40663
61985,32963,40697
62018,32979,40726
62054,32999,40758
62090,33022,40790
62118,33041,40811
62135,33053,40821
62147,33063,40825
62151,33064,40814
62143,33048,40783
62121,33017,40730
62085,32976,40655
62033,32922,40555
61962,32851,40427
61877,32768,40278
61782,32680,40120
61681,32593,39956
61574,32504,39787
61466,32416,39616
61363,32336,39450
61267,32260,39287
61178,32186,39131
61098,32120,38990
61027,32062,38869
60963,32007,38762
60904,31954,38669
60855,31910,38590
60814,31873,38522
60776,31837,38459
60743,31801,38401
60718,31770,38352
60699,31745,38312
60679,31723,38277
60659,31702,38246
60643,31685,38219
60624,31674,38190
60599,31660,38151
60570,31644,38102
60542,31628,38053
60510,31610,37998
60473,31581,37931
60429,31538,37855
60382,31490,37773
60329,31439,37682
60267,31379,37571
60197,31310,37443
60119,31239,37306
60030,31161,37155
59928,31072,36987
59817,30977,36805
59702,30880,36618
59584,30780,36420
59460,30673,36209
59333,30566,35995
59205,30462,35782
59071,30355,35564
58932,30243,35337
58795,30131,35109
58664,30024,34887
58533,29919,34667
58400,29813,34447
58273,29713,34232
58154,29619,34026
58038,29527,33826
57923,29436,33629
57814,29348,33438
57709,29262,33256
57606,29177,33079
57504,29092,32909
57409,29013,32749
57321,28939,32599
57233,28866,32453
57142,28792,32309
57056,28722,32168
56974,28657,32031
56892,28591,31891
56808,28523,31752
56726,28458,31620
56647,28400,31495
56569,28342,31369
56494,28281,31245
56426,28222,31132
56362,28168,31026
56297,28113,30916
56229,28055,30801
56163,28000,30690
56099,27947,30583
56034,27891,30471
55967,27831,30358
55903,27773,30251
55841,27717,30148
55774,27662,30047
55706,27611,29949
55642,27565,29856
55579,27521,29760
55514,27476,29658
55446,27428,29555
55377,27381,29455
55308,27334,29355
55238,27285,29254
55172,27235,29155
55112,27187,29061
55055,27137,28965
54998,27085,28864
54944,27036,28763
54890,26990,28665
54832,26942,28568
54767,26889,28469
54699,26835,28368
54635,26785,28268
54569,26736,28165
54502,26688,28058
54436,26643,27955
54373,26601,27856
54311,26558,27758
54248,26512,27662
54189,26466,27569
54128,26419,27477
54064,26368,27381
53997,26317,27282
53935,26272,27190
53878,26230,27104
53824,26187,27014
53773,26144,26922
53725,26102,26836
53675,26061,26751
53620,26016,26662
53564,25969,26574
53510,25929,26491
53454,25890,26407
53393,25845,26318
53330,25796,26231
53273,25752,26151
53222,25714,26072
53171,25675,25990
53117,25637,25906
53065,25603,25829
53014,25570,25758
52966,25537,25691
52928,25511,25640
52908,25503,25620
52911,25516,25637
52945,25551,25704
53023,25621,25846
53161,25739,26095
53371,25917,26477
53667,26166,27021
54066,26503,27753
54571,26934,28672
55169,27444,29744
55840,28013,30920
56556,28614,32146
57280,29216,33363
57980,29791,34517
58629,30321,35576
59217,30798,36526
59738,31220,37362
60190,31583,38075
60576,31886,38671
60900,32138,39165
61165,32345,39568
61374,32504,39883
61532,32622,40119
61650,32711,40296
61738,32777,40427
61798,32822,40516
61839,32850,40570
61867,32870,40604
61881,32880,40618
61881,32877,40610
61873,32867,40585
61862,32858,40557
61850,32850,40527
61834,32837,40489
61820,32823,40453
61814,32813,40427
61812,32804,40408
61811,32792,40390
61814,32781,40378
61822,32778,40379
61834,32783,40390
61848,32790,40408
61870,32801,40436
61897,32819,40474
61927,32840,40516
61956,32859,40556
61986,32879,40594
62015,32901,40628
62041,32919,40655
62062,32929,40670
62081,32934,40676
62095,32938,40672
62096,32933,40648
62083,32916,40597
62058,32886,40524
62015,32846,40432
61953,32792,40318
61874,32724,40183
61787,32647,40037
61696,32567,39884
61598,32480,39720
61494,32387,39547
61392,32296,39380
61294,32210,39224
61200,32128,39071
61109,32053,38926
61028,31991,38798
60957,31938,38688
60892,31887,38590
60833,31844,38508
60783,31809,38443
60741,31779,38388
60706,31749,38340
60682,31723,38301
60671,31708,38274
60664,31699,38252
60656,31686,38227
60652,31674,38202
60654,31669,38182
60654,31664,38160
60645,31655,38133
60629,31643,38099
60608,31632,38061
60583,31621,38017
60552,31604,37963
60513,31579,37900
60469,31550,37829
60419,31517,37747
60360,31471,37649
60292,31412,37536
60218,31346,37412
60136,31272,37275
60044,31190,37126
59950,31107,36970
59851,31023,36808
59745,30935,36635
59634,30842,36451
59523,30748,36263
59410,30653,36069
59292,30552,35865
59167,30448,35654
59042,30343,35443
58916,30239,35232
58790,30132,35019
58666,30027,34808
58548,29931,34607
58433,29841,34417
58318,29749,34227
58203,29655,34040
58093,29562,33863
57985,29472,33695
57878,29384,33526
57774,29299,33353
57675,29220,33185
57578,29144,33023
57477,29066,32862
57377,28987,32705
57282,28912,32555
57188,28841,32409
57095,28768,32264
57004,28698,32124
56920,28634,31993
56839,28572,31868
56760,28508,31742
56687,28445,31620
56618,28386,31502
56550,28327,31381
56482,28265,31255
56414,28204,31129
56344,28143,31006
56272,28080,30882
56198,28016,30759
56127,27953,30640
56057,27893,30527
55983,27832,30413
55906,27769,30297
55831,27709,30182
55761,27654,30072
55692,27602,29962
55623,27550,29852
55557,27500,29748
55493,27450,29650
55428,27398,29546
55365,27345,29438
55305,27295,29334
55245,27248,29235
55180,27199,29135
55112,27145,29033
55046,27094,28935
54982,27046,28840
54918,26996,28739
54854,26944,28632
54792,26896,28526
54729,26846,28420
54661,26789,28309
54594,26730,28199
54531,26677,28092
54468,26627,27986
54401,26577,27876
54332,26529,27769
54264,26486,27665
54194,26440,27558
54120,26387,27442
54048,26332,27327
53980,26280,27217
53913,26227,27110
53844,26171,27000
53775,26113,26892
53708,26057,26788
53642,26000,26683
53579,25939,26575
53518,25883,26475
53461,25836,26390
53406,25792,26308
53355,25750,26230
53315,25716,26170
53292,25698,26139
53289,25700,26147
53317,25727,26208
53392,25796,26351
53526,25918,26601
53731,26098,26979
54023,26347,27510
54414,26678,28216
54908,27095,29098
55496,27586,30129
56153,28133,31263
56849,28713,32449
57548,29296,33629
58221,29854,34752
58847,30372,35783
59414,30840,36707
59915,31251,37515
60344,31597,38201
60706,31886,38773
61007,32127,39247
61251,32323,39629
61442,32474,39921
61586,32589,40136
61694,32675,40293
61770,32734,40398
61815,32764,40454
61835,32773,40473
61839,32771,40468
61831,32759,40447
61813,32737,40408
61786,32711,40358
61753,32685,40308
61718,32658,40256
61683,32627,40197
61650,32594,40135
61619,32565,40080
61588,32539,40030
61561,32511,39983
61539,32486,39943
61524,32467,39912
61513,32454,39886
61508,32445,39865
61510,32441,39853
61515,32441,39849
61520,32442,39847
61522,32440,39838
61524,32437,39829
61525,32437,39819
61521,32431,39800
61508,32417,39764
61485,32397,39710
61448,32366,39634
61395,32319,39532
61323,32254,39403
61238,32176,39259
61142,32087,39104
61035,31992,38933
60924,31897,38752
60814,31804,38569
60704,31713,38380
60594,31619,38190
60489,31527,38010
60394,31445,37850
60306,31373,37707
60225,31305,37575
60157,31246,37459
60105,31203,37369
60068,31174,37298
60040,31147,37239
60020,31125,37193
60008,31114,37167
60003,31111,37155
60001,31110,37152
60005,31114,37156
60013,31124,37168
60022,31134,37179
60025,31139,37181
60027,31140,37177
60027,31140,37169
60020,31133,37149
60002,31116,37115
59974,31092,37069
59939,31061,37011
59894,31021,36934
59838,30971,36839
59773,30917,36731
59699,30858,36612
59614,30790,36476
59521,30713,36324
59424,30634,36166
59323,30551,36000
59216,30462,35821
59102,30369,35632
58984,30275,35436
58861,30178,35234
58735,30075,35022
58606,29964,34800
58476,29855,34578
58347,29751,34357
58215,29647,34131
58085,29539,33903
57958,29432,33680
57831,29326,33461
57704,29218,33245
57583,29116,33038
57469,29025,32844
57358,28937,32659
57246,28847,32476
57138,28758,32299
57037,28676,32129
56939,28597,31959
56839,28513,31789
56740,28429,31625
56648,28355,31474
56562,28287,31334
56476,28217,31194
56393,28146,31053
56313,28081,30920
56236,28020,30792
56161,27958,30667
56091,27901,30549
56028,27853,30440
55969,27808,30335
55909,27761,30230
55851,27716,30132
55795,27674,30041
55738,27631,29950
55680,27585,29857
55626,27538,29769
55575,27492,29686
55521,27446,29603
55467,27400,29520
55417,27361,29442
55368,27326,29368
55316,27290,29291
55267,27254,29213
55222,27222,29142
55174,27192,29072
55125,27158,28995
55076,27124,28916
55028,27092,28841
54978,27059,28769
54924,27021,28694
54870,26979,28615
54817,26939,28537
54766,26901,28460
54713,26861,28376
54656,26818,28288
54594,26777,28199
54529,26733,28108
54459,26684,28007
54389,26633,27899
54323,26583,27792
54257,26532,27683
54190,26474,27567
54119,26413,27449
54048,26359,27339
53979,26310,27235
53911,26258,27130
53846,26207,27028
53785,26163,26934
53728,26126,26848
53680,26095,26773
53649,26077,26728
53643,26081,26730
53669,26110,26791
53740,26173,26929
53874,26288,27177
54084,26466,27566
54383,26716,28116
54786,27047,28842
55295,27469,29745
55897,27970,30792
56566,28523,31928
57268,29101,33098
57971,29680,34258
58644,30236,35363
59265,30750,36377
59826,31213,37286
60324,31627,38090
60757,31988,38784
61125,32289,39362
61432,32537,39834
61687,32741,40222
