green_channel,red_channel,ir_channel
46283,18625,5353
46550,18866,6200
46778,19068,6961
46969,19234,7618
47127,19371,8161
47252,19478,8593
47348,19558,8920
47418,19615,9156
47463,19656,9315
47490,19682,9410
47502,19694,9454
47498,19692,9458
47480,19675,9427
47448,19646,9369
47407,19610,9295
47361,19568,9211
47313,19521,9117
47263,19468,9018
47213,19416,8920
47162,19366,8826
47110,19315,8733
47053,19262,8646
46996,19208,8564
46943,19153,8486
46890,19098,8408
46833,19041,8330
46770,18984,8249
46702,18927,8160
46626,18867,8062
46544,18800,7958
46464,18731,7848
46387,18661,7730
46306,18588,7607
46223,18515,7483
46146,18446,7365
46074,18384,7251
46002,18324,7144
45936,18265,7048
45881,18213,6967
45838,18171,6901
45809,18142,6852
45794,18125,6821
45792,18122,6806
45799,18129,6799
45813,18143,6804
45838,18164,6828
45873,18193,6867
45913,18228,6913
45952,18263,6962
45988,18302,7016
46024,18342,7070
46061,18377,7115
46092,18406,7150
46119,18431,7184
46144,18455,7215
46167,18475,7237
46182,18485,7246
46188,18489,7245
46187,18487,7234
46175,18476,7209
46150,18455,7174
46112,18422,7129
46066,18382,7071
46013,18339,7002
45951,18288,6922
45881,18225,6828
45808,18155,6723
45732,18082,6611
45653,18007,6499
45570,17930,6387
45490,17853,6271
45410,17777,6149
45326,17698,6021
45239,17614,5889
45148,17529,5754
45054,17443,5619
44959,17358,5486
44865,17271,5354
44774,17186,5218
44686,17103,5081
44596,17020,4949
44511,16940,4825
44429,16865,4702
44347,16794,4577
44265,16724,4458
44185,16656,4343
44110,16589,4229
44037,16520,4118
43962,16449,4011
43886,16379,3904
43816,16316,3800
43751,16256,3697
43689,16197,3598
43631,16140,3505
43572,16084,3414
43517,16032,3326
43470,15985,3249
43428,15940,3179
43384,15898,3110
43339,15862,3039
43295,15833,2972
43255,15806,2910
43217,15779,2849
43179,15753,2788
43145,15727,2733
43118,15704,2682
43093,15680,2629
43066,15652,2577
43036,15624,2529
43006,15598,2482
42975,15569,2432
42942,15538,2380
42910,15507,2327
42876,15474,2272
42834,15436,2212
42790,15395,2151
42751,15358,2094
42715,15324,2041
42678,15292,1989
42638,15260,1937
42600,15227,1885
42566,15194,1826
42532,15155,1762
42495,15115,1699
42458,15080,1639
42424,15049,1579
42392,15017,1522
42355,14985,1471
42318,14956,1423
42280,14925,1367
42240,14893,1301
42200,14858,1231
42157,14822,1158
42110,14783,1079
42058,14739,993
42000,14690,906
41942,14637,818
41881,14577,727
41815,14515,634
41748,14453,543
41681,14389,453
41615,14324,1679
41554,14261,4967
41506,14213,8007
41479,14190,9345
41486,14201,9505
41538,14255,8930
41645,14359,7969
41812,14514,6881
42038,14722,5852
42322,14982,5002
42656,15291,4387
43039,15644,4027
43458,16035,3914
43899,16445,4020
44353,16865,4308
44814,17291,4740
45271,17712,5269
45709,18115,5852
46123,18494,6456
46506,18844,7052
46851,19160,7615
47154,19433,8129
47420,19666,8588
47652,19865,8991
47847,20033,9336
48007,20173,9629
48139,20290,9879
48246,20384,10083
48321,20453,10238
48367,20498,10348
48393,20524,10424
48403,20536,10471
48400,20534,10487
48388,20519,10474
48370,20495,10439
48345,20463,10389
48311,20423,10330
48273,20380,10263
48236,20337,10192
48199,20295,10122
48162,20252,10052
48124,20209,9984
48085,20169,9920
48043,20133,9860
47996,20097,9806
47948,20059,9755
47901,20022,9701
47851,19980,9637
47794,19930,9563
47729,19873,9480
47655,19807,9382
47572,19733,9270
47483,19654,9146
47392,19574,9018
47302,19494,8888
47214,19417,8759
47133,19344,8639
47060,19274,8526
46992,19206,8417
46930,19141,8317
46876,19085,8231
46833,19043,8163
46797,19008,8108
46770,18980,8068
46754,18965,8047
46752,18967,8042
46758,18981,8050
46772,19004,8069
46793,19028,8100
46821,19053,8141
46854,19084,8185
46887,19117,8231
46917,19147,8278
46947,19173,8320
46978,19198,8354
47005,19219,8380
47022,19232,8396
47030,19238,8400
47028,19237,8391
47018,19227,8368
46997,19207,8333
46967,19179,8286
46931,19145,8229
46886,19105,8165
46835,19061,8095
46781,19011,8016
46721,18952,7924
46649,18879,7819
46571,18800,7702
46495,18723,7580
46423,18645,7460
46348,18562,7339
46268,18477,7218
46186,18392,7096
46104,18310,6974
46023,18229,6854
45942,18149,6739
45860,18071,6622
45777,17997,6504
45694,17923,6388
45612,17848,6273
45530,17772,6155
45446,17696,6035
45363,17623,5919
45280,17555,5805
45200,17487,5689
45121,17416,5571
45044,17346,5454
44971,17279,5337
44900,17211,5219
44830,17141,5101
44762,17073,4991
44693,17007,4887
44622,16943,4786
44552,16880,4690
44489,16817,4599
44431,16754,4511
44376,16696,4424
44323,16641,4338
44276,16590,4259
44237,16546,4189
44197,16509,4122
44154,16475,4055
44107,16444,3990
44061,16415,3929
44017,16385,3867
43972,16352,3801
43927,16319,3735
43883,16284,3671
43841,16248,3608
43797,16207,3545
43751,16163,3486
43707,16121,3429
43669,16083,3370
43634,16047,3311
43597,16009,3250
43562,15971,3184
43524,15931,3116
43480,15885,3050
43432,15839,2989
43387,15795,2927
43345,15751,2862
43307,15707,2799
43271,15669,2738
43232,15632,2672
43190,15596,2605
43146,15561,2542
43101,15526,2482
43056,15491,2420
43009,15455,2355
42961,15417,2290
42911,15377,2219
42860,15333,2138
42807,15282,2051
42753,15230,1964
42695,15174,1877
42634,15115,1789
42570,15053,1701
42504,14989,1612
42435,14927,1524
42367,14867,1431
42297,14808,1335
42230,14752,1239
42165,14697,1144
42097,14639,1045
42025,14577,943
41950,14514,844
41876,14452,748
41804,14387,651
41732,14317,549
41664,14245,447
41603,14179,351
41546,14122,265
41498,14075,201
41471,14052,171
41478,14063,187
41528,14113,261
41627,14209,408
41785,14358,639
42005,14564,952
42285,14821,1344
42625,15124,1814
43019,15473,2356
43454,15863,2956
43919,16285,3603
44402,16728,4287
44891,17181,4988
45375,17630,5682
45839,18061,6353
46278,18463,6994
46688,18838,7597
47060,19177,8149
47389,19476,8644
47679,19741,9085
47932,19976,9475
48149,20177,9813
48332,20346,10104
48483,20484,10351
48605,20593,10558
48698,20674,10720
48763,20727,10837
48804,20760,10918
48826,20778,10968
48830,20782,10991
48819,20777,10992
48800,20763,10975
48773,20738,10943
48740,20702,10897
48699,20657,10838
48653,20607,10771
48605,20556,10703
48560,20507,10635
48519,20460,10568
48482,20418,10501
48449,20381,10442
48420,20353,10390
48389,20325,10337
48349,20292,10281
48302,20252,10218
48249,20208,10149
48187,20159,10070
48117,20103,9981
48043,20040,9884
47962,19966,9778
47871,19883,9666
47779,19797,9552
47693,19715,9433
47613,19636,9310
47539,19565,9195
47474,19503,9095
47417,19453,9006
47365,19411,8928
47320,19378,8863
47285,19352,8811
47258,19334,8767
47237,19324,8736
47225,19326,8724
47227,19336,8728
47243,19354,8743
47268,19376,8768
47295,19393,8801
47321,19408,8835
47347,19424,8866
47373,19440,8892
47394,19455,8916
47412,19469,8936
47426,19481,8950
47432,19491,8959
47431,19498,8965
47424,19501,8963
47412,19497,8949
47390,19483,8925
47358,19457,8889
47322,19421,8840
47285,19377,8778
47240,19324,8705
47181,19259,8620
47110,19187,8524
47031,19111,8416
46943,19031,8301
46848,18948,8180
46749,18862,8051
46651,18774,7913
46554,18685,7771
46457,18594,7626
46359,18496,7476
46259,18392,7323
46160,18290,7174
46060,18196,7030
45960,18105,6885
45856,18015,6740
45752,17926,6597
45647,17837,6453
45540,17746,6305
45427,17649,6151
45310,17548,5996
45195,17449,5844
45084,17351,5693
44979,17256,5543
44883,17163,5404
44797,17078,5280
44716,16999,5162
44635,16923,5049
44554,16851,4940
44478,16782,4829
44405,16716,4715
44334,16653,4605
44267,16590,4504
44208,16532,4412
44153,16477,4319
44096,16419,4224
44038,16358,4133
43977,16299,4047
43915,16243,3961
43855,16192,3879
43800,16147,3801
43744,16102,3723
43688,16053,3643
43635,16005,3565
43589,15963,3493
43547,15922,3423
43500,15879,3350
43450,15834,3275
43398,15786,3201
43347,15740,3128
43297,15695,3059
43249,15648,2993
43201,15600,2931
43156,15555,2867
43112,15512,2798
43064,15469,2729
43014,15425,2660
42962,15381,2585
42909,15336,2505
42853,15286,2423
42799,15236,2341
42745,15186,2258
42687,15132,2174
42626,15072,2088
42564,15009,1998
42503,14947,1907
42442,14888,1819
42382,14833,1738
42323,14783,1658
42264,14736,1578
42204,14686,1497
42145,14635,1418
42088,14589,1336
42033,14544,1251
41975,14495,1168
41910,14440,1089
41840,14382,1007
41770,14324,920
41703,14264,829
41639,14200,738
41574,14136,645
41507,14071,545
41437,13997,1754
41363,13916,6329
41283,13834,13999
41199,13753,23031
41114,13674,32205
41030,13598,40725
40946,13524,48134
40865,13455,54225
40787,13390,58975
40717,13333,62484
40659,13287,64915
40619,13254,932
40606,13242,1811
40627,13260,896
40697,13321,61841
40822,13435,53982
41003,13603,44705
41243,13826,35316
41545,14104,26666
41903,14431,19242
42305,14798,13254
42744,15200,8725
43214,15628,5549
43695,16066,3551
44178,16505,2522
44655,16941,2240
45116,17363,2494
45550,17756,3104
45947,18112,3924
46303,18429,4834
46621,18713,5751
46900,18964,6618
47136,19178,7399
47332,19359,8074
47492,19510,8634
47620,19632,9082
47721,19727,9430
47796,19798,9688
47843,19845,9861
47858,19861,9958
47844,19853,9997
47815,19829,9994
47777,19794,9957
47730,19750,9894
47678,19703,9817
47624,19654,9731
47568,19601,9638
47511,19547,9542
47456,19496,9447
47405,19447,9354
47356,19398,9264
47310,19351,9181
47267,19307,9102
47225,19263,9024
47183,19217,8949
47138,19169,8878
47090,19116,8806
47040,19061,8725
46984,19003,8633
46921,18940,8534
46851,18875,8431
46780,18809,8326
46706,18739,8217
46630,18668,8105
46557,18599,7994
46490,18537,7891
46431,18482,7800
46380,18432,7723
46339,18391,7659
46309,18361,7606
46288,18342,7564
46277,18330,7538
46278,18329,7531
46289,18341,7539
46309,18364,7564
46340,18396,7607
46382,18436,7664
46430,18482,7726
46477,18527,7786
46523,18569,7844
46565,18613,7901
46607,18658,7952
46645,18696,7993
46670,18723,8024
46683,18741,8046
46691,18752,8062
46693,18756,8067
46688,18754,8061
46677,18749,8049
46661,18737,8031
46636,18716,8004
46603,18688,7967
46567,18653,7912
46525,18610,7844
46475,18560,7770
46415,18505,7690
46348,18446,7599
46276,18380,7492
46202,18307,7373
46125,18229,7248
46044,18148,7119
45960,18066,6989
45873,17983,6862
45784,17900,6739
45697,17818,6613
45612,17736,6486
45523,17652,6359
45431,17566,6231
45340,17482,6104
45251,17399,5976
45161,17314,5847
45069,17232,5719
44981,17153,5591
44899,17079,5465
44821,17009,5344
44741,16939,5229
44662,16869,5117
44583,16801,5004
44504,16732,4893
44429,16664,4787
44358,16598,4686
44290,16533,4588
44228,16473,4494
44175,16419,4404
44127,16370,4316
44078,16322,4233
44028,16276,4155
43981,16232,4084
43935,16188,4013
43890,16144,3944
43849,16102,3877
43809,16062,3809
43767,16028,3742
43724,15995,3683
43687,15965,3630
43655,15939,3580
43624,15913,3529
43592,15882,3477
43560,15845,3423
43527,15807,3367
43493,15773,3311
43460,15746,3261
43427,15724,3217
43397,15703,3175
43366,15680,3129
43334,15653,3078
43302,15626,3029
43272,15598,2979
43243,15568,2923
43212,15534,2864
43177,15499,2806
43142,15465,2745
43106,15431,2688
43069,15398,2640
43036,15367,2598
43005,15338,2552
42970,15307,2504
42933,15275,2458
42898,15244,2408
42863,15208,2345
42819,15167,2274
42769,15123,2204
42717,15080,2134
42663,15034,2056
42603,14985,1972
42539,14931,1881
42475,14876,1788
42413,14821,1692
42348,14763,1591
42277,14701,1491
42205,14638,1395
42134,14577,1301
42066,14518,1209
42002,14460,1128
41949,14411,1062
41914,14377,1014
41900,14362,993
41918,14377,1014
41977,14428,1090
42083,14521,1229
42241,14658,1441
42454,14843,1727
42720,15079,2087
43037,15365,2517
43399,15693,3014
43797,16053,3569
44218,16442,4166
44652,16850,4790
45090,17262,5427
45522,17666,6064
45943,18055,6681
46342,18420,7267
46707,18754,7816
47036,19055,8322
47327,19319,8776
47581,19548,9175
47798,19745,9522
47983,19913,9818
48135,20052,10063
48252,20163,10261
48337,20244,10414
48394,20301,10526
48430,20337,10599
48448,20353,10634
48450,20354,10641
48436,20341,10625
48408,20313,10589
48367,20272,10533
48316,20225,10460
48260,20174,10373
48202,20118,10277
48139,20055,10174
48075,19993,10072
48009,19934,9976
47939,19875,9881
47873,19813,9789
47813,19754,9705
47757,19700,9620
47697,19645,9526
47630,19583,9426
47560,19517,9323
47484,19451,9215
47402,19381,9103
47314,19306,8986
47221,19228,8866
47129,19147,8742
47043,19069,8620
46964,18995,8508
46896,18931,8408
46838,18877,8316
46784,18831,8230
46737,18792,8153
46704,18760,8092
46683,18737,8049
46671,18724,8024
46668,18720,8017
46679,18728,8028
46702,18748,8054
46733,18775,8090
46767,18808,8131
46805,18846,8178
46848,18887,8231
46893,18930,8287
46935,18968,8348
46969,19004,8409
46997,19039,8468
47021,19072,8522
47042,19099,8570
47063,19117,8608
47082,19129,8634
47095,19137,8650
47099,19138,8653
47090,19129,8641
47067,19108,8611
47029,19076,8559
46980,19034,8492
46923,18984,8412
46861,18925,8318
46790,18856,8209
46715,18782,8091
46640,18710,7968
46565,18637,7841
46484,18559,7712
46403,18479,7582
46322,18399,7452
46241,18321,7323
46157,18245,7198
46072,18171,7078
45987,18100,6958
45900,18029,6835
45811,17956,6709
45722,17881,6585
45636,17807,6462
45552,17731,6343
45470,17654,6225
45390,17577,6108
45313,17499,5988
45235,17417,5866
45153,17336,5748
45072,17259,5638
44992,17188,5530
44911,17118,5419
44828,17046,5311
44746,16976,5209
44671,16910,5110
44602,16849,5014
44537,16790,4922
44477,16732,4833
44421,16678,4746
44369,16627,4661
44320,16580,4582
44275,16538,4508
44230,16500,4437
44186,16461,4367
44146,16425,4303
44107,16392,4244
44070,16364,4186
44035,16335,4127
43999,16304,4067
43962,16273,4006
43926,16243,3949
43889,16213,3895
43852,16182,3847
43816,16155,3797
43778,16125,3740
43737,16089,3678
43696,16051,3615
43657,16013,3552
43619,15977,3491
43580,15943,3436
43540,15913,3386
43501,15887,3337
43459,15860,3283
43414,15826,3225
43367,15785,3166
43322,15744,3104
43276,15700,3037
43225,15651,2965
43170,15601,2889
43110,15550,2809
43046,15496,2728
42980,15442,2650
42915,15388,2573
42850,15334,2490
42784,15280,2404
42726,15229,2320
42682,15184,2246
42652,15150,2185
42638,15135,2151
42657,15153,2168
42719,15211,2248
42829,15315,2396
42991,15464,2614
43208,15659,2910
43478,15904,3282
43795,16195,3720
44151,16528,4219
44543,16892,4769
44961,17274,5358
45388,17665,5969
45813,18054,6589
46229,18436,7203
46630,18807,7800
47009,19163,8373
47355,19490,8908
47667,19781,9397
47946,20041,9838
48191,20269,10229
48399,20463,10570
48573,20624,10859
48717,20754,11093
48830,20853,11274
48914,20922,11407
48972,20967,11497
49010,20997,11554
49024,21010,11581
49013,21001,11581
48985,20978,11559
48946,20946,11516
48898,20904,11452
48844,20856,11375
48789,20806,11295
48729,20754,11215
48665,20702,11135
48604,20654,11054
48548,20612,10976
48498,20570,10902
48451,20524,10829
48403,20474,10755
48355,20423,10682
48303,20372,10604
48242,20317,10515
48169,20253,10416
48091,20181,10308
48008,20100,10192
47921,20016,10067
47829,19929,9934
47736,19842,9796
47647,19758,9662
47563,19680,9534
47484,19611,9419
47413,19551,9313
47352,19499,9217
47302,19457,9136
47263,19426,9072
47237,19406,9021
47220,19396,8981
47211,19392,8956
47213,19396,8949
47225,19409,8958
47248,19434,8983
47282,19472,9025
47325,19519,9083
47374,19569,9148
47421,19619,9211
47466,19667,9273
47507,19713,9337
47545,19754,9399
47578,19789,9454
47606,19819,9502
47627,19841,9537
47637,19854,9553
47635,19856,9548
47626,19848,9531
47612,19835,9504
47588,19813,9461
47551,19780,9400
47507,19738,9330
47458,19688,9256
47404,19632,9172
47343,19568,9076
47276,19497,8973
47203,19421,8862
47122,19342,8743
47030,19260,8614
46931,19174,8478
46833,19085,8342
46741,18998,8205
46656,18914,8072
46574,18836,7947
46494,18762,7825
46413,18689,7700
46330,18616,7574
46247,18546,7449
46164,18477,7321
46078,18407,7187
45990,18332,7051
45898,18252,6918
45807,18171,6789
45716,18092,6658
45627,18010,6529
45542,17929,6406
45464,17854,6289
45390,17778,6175
45314,17699,6062
45242,17625,5953
45177,17561,5851
45117,17505,5756
45061,17452,5668
45005,17398,5581
44950,17347,5493
44894,17298,5408
44840,17253,5328
44788,17213,5257
44736,17175,5189
44681,17135,5117
44626,17092,5045
44579,17054,4980
44543,17021,4922
44513,16992,4868
44485,16963,4817
44459,16936,4770
44434,16911,4723
44408,16886,4674
44383,16858,4624
44355,16829,4573
44321,16798,4516
44285,16764,4455
44251,16727,4392
44218,16689,4328
44186,16652,4265
44153,16617,4205
44124,16584,4151
44098,16554,4103
44072,16525,4054
44043,16495,4004
44011,16459,3955
43977,16423,3904
43944,16390,3849
43908,16357,3791
43866,16319,3733
43826,16283,3675
43790,16247,3612
43751,16209,3544
43707,16168,3472
43661,16129,3399
43616,16093,3326
43569,16058,3254
43520,16021,3179
43472,15982,3099
43421,15941,3016
43367,15896,2933
43312,15848,2852
43258,15802,2773
43210,15760,2702
43178,15731,2656
43173,15726,2650
43205,15755,2690
43280,15822,2786
43402,15933,2952
43583,16096,3199
43827,16315,3533
44128,16589,3953
44480,16911,4456
44873,17276,5027
45300,17673,5649
45751,18089,6305
46220,18519,6988
46699,18956,7684
47173,19386,8371
47628,19797,9032
48055,20183,9663
48454,20545,10254
48821,20881,10798
49149,21183,11291
49437,21450,11730
49685,21683,12118
49897,21882,12456
50076,22050,12743
50226,22190,12984
50346,22301,13180
50432,22381,13332
50491,22436,13441
50526,22468,13512
50545,22484,13554
50553,22490,13574
50552,22489,13575
50541,22479,13562
50518,22460,13538
50485,22431,13505
50446,22395,13462
50411,22358,13414
50381,22323,13369
50351,22290,13325
50317,22257,13278
50279,22223,13228
50239,22190,13178
50200,22158,13129
50164,22124,13078
50125,22085,13021
50082,22043,12956
50035,21997,12881
49982,21944,12794
49921,21884,12694
49854,21818,12585
49778,21747,12467
49692,21670,12340
49601,21591,12210
49508,21510,12081
49416,21430,11954
49325,21350,11830
49241,21276,11713
49169,21212,11610
49111,21156,11523
49062,21109,11453
49023,21072,11398
48995,21045,11356
48977,21027,11325
48967,21018,11308
48970,21018,11308
48984,21028,11323
49000,21043,11344
49016,21058,11366
49031,21074,11387
49047,21089,11410
49062,21100,11433
49074,21105,11452
49084,21106,11469
49094,21107,11479
49100,21107,11479
49100,21103,11470
49093,21098,11454
49077,21090,11425
49053,21077,11384
49021,21056,11333
48979,21022,11269
48922,20972,11191
48848,20905,11096
48763,20830,10990
48671,20748,10874
48572,20657,10749
48473,20562,10615
48379,20467,10477
48285,20374,10336
48186,20278,10192
48085,20182,10050
47983,20089,9911
47885,19999,9779
47793,19913,9653
47707,19830,9532
47624,19748,9409
47542,19669,9281
47459,19593,9150
47375,19519,9021
47289,19445,8892
47200,19370,8761
47107,19288,8628
47012,19204,8494
46919,19120,8358
46826,19039,8219
46735,18959,8082
46644,18884,7956
46558,18815,7837
46477,18747,7717
46402,18677,7599
46338,18613,7493
46283,18553,7397
46227,18492,7302
46167,18434,7210
46105,18381,7126
46044,18331,7042
45982,18278,6952
45917,18217,6861
45851,18152,6772
45786,18091,6683
45725,18036,6597
45668,17985,6517
45617,17940,6442
45572,17901,6367
45531,17860,6290
45489,17816,6213
45444,17771,6138
45398,17727,6067
45350,17685,5997
45303,17643,5929
45256,17602,5862
45207,17562,5792
45155,17520,5718
45105,17481,5648
45057,17446,5584
45011,17410,5518
44964,17370,5447
44919,17326,5375
44874,17281,5306
44825,17231,5235
44771,17177,5159
44716,17123,5084
44663,17072,5011
44612,17027,4938
44561,16984,4864
44513,16944,4796
44471,16904,4732
44431,16864,4664
44387,16821,4593
44335,16774,4520
44276,16721,4439
44215,16668,4349
44154,16615,4259
44094,16562,4170
44036,16509,4080
43976,16455,3986
43916,16399,3892
43850,16340,3800
43779,16280,3705
43706,16218,3604
43632,16150,3500
43559,16076,3395
43485,16004,3290
43408,15936,3186
43329,15869,3088
43251,15802,2992
43177,15737,2894
43107,15671,2792
43041,15602,2690
42984,15538,2594
42936,15487,2510
42904,15453,2448
42896,15442,2421
42926,15465,2446
43002,15534,2537
43130,15653,2702
43316,15825,2952
43564,16056,3293
43872,16346,3724
44236,16689,4233
44648,17071,4814
45097,17484,5452
45574,17921,6131
46068,18371,6834
46564,18828,7551
47057,19285,8269
47535,19729,8971
47984,20148,9642
48398,20533,10273
48775,20886,10856
49114,21205,11388
49417,21487,11866
49684,21733,12287
49914,21941,12650
50104,22114,12953
50257,22252,13200
50377,22358,13393
50467,22433,13537
50527,22481,13636
50557,22503,13697
50561,22503,13725
50554,22495,13734
50541,22483,13729
50520,22463,13705
50492,22436,13665
50460,22407,13618
50426,22378,13569
50387,22348,13516
50346,22315,13459
50308,22283,13405
50271,22252,13357
50238,22225,13315
50208,22200,13273
50181,22177,13231
50151,22151,13186
50114,22116,13135
50070,22074,13073
50019,22026,12996
49962,21972,12906
49901,21911,12804
49835,21844,12694
49764,21773,12578
49687,21695,12457
49603,21613,12334
49515,21530,12212
49427,21449,12091
49341,21369,11972
49258,21293,11860
49184,21227,11760
49118,21169,11671
49063,21119,11592
49022,21078,11525
48993,21048,11475
48975,21032,11445
48971,21027,11430
48978,21032,11429
48996,21047,11442
49022,21071,11465
49052,21100,11495
49083,21133,11531
49110,21165,11568
49130,21191,11603
49149,21213,11637
49168,21237,11667
49188,21260,11689
49202,21277,11702
49209,21286,11707
49207,21285,11704
49195,21271,11690
49174,21243,11663
49150,21208,11623
49120,21169,11571
49082,21125,11508
49031,21073,11430
48969,21014,11339
48895,20950,11235
48811,20878,11120
48717,20795,10996
48617,20706,10862
48519,20618,10719
48421,20526,10571
48320,20427,10419
48217,20329,10266
48119,20235,10116
48022,20143,9970
47921,20050,9827
47823,19959,9690
47730,19872,9557
47640,19787,9425
47550,19705,9294
47460,19622,9167
47367,19541,9039
47273,19457,8907
47180,19370,8775
47090,19284,8647
47005,19199,8517
46921,19116,8385
46838,19035,8253
46753,18955,8125
46670,18877,8005
46588,18801,7890
46508,18727,7780
46432,18658,7677
46358,18591,7574
46282,18525,7466
46208,18462,7359
46138,18402,7259
46072,18344,7163
46009,18285,7068
45947,18229,6977
45888,18179,6891
45833,18131,6807
45780,18087,6726
45728,18044,6649
45677,18000,6576
45629,17956,6502
45583,17908,6428
45536,17860,6354
45488,17816,6281
45436,17775,6207
45381,17731,6133
45325,17682,6059
45271,17634,5982
45219,17586,5901
45165,17535,5818
45113,17485,5738
45066,17442,5663
45021,17402,5588
44977,17360,5511
44932,17317,5440
44885,17277,5377
44838,17239,5311
44786,17194,5235
44731,17141,5157
44672,17086,5080
44613,17033,5000
44554,16979,4919
44492,16922,4837
44428,16863,4749
44360,16800,4655
44289,16736,4557
44216,16672,4457
44144,16611,4356
44072,16551,4253
44000,16487,4148
43927,16422,4046
43852,16358,3944
43774,16296,3841
43697,16230,3736
43622,16162,3631
43546,16095,3526
43473,16027,3417
43404,15958,3308
43337,15890,3202
43268,15822,3097
43198,15754,2992
43128,15688,2893
43060,15627,2804
42994,15567,2718
42930,15508,2632
42864,15449,2546
42800,15389,2463
42739,15333,2382
42681,15277,2296
42620,15219,2205
42556,15157,2109
42484,15092,2005
42408,15025,1895
42332,14959,1786
42258,14894,1682
42183,14826,1580
42110,14759,1479
42044,14697,1384
41988,14645,1304
41949,14611,1245
41939,14603,1220
41969,14631,1247
42044,14705,1340
42169,14828,1508
42350,14996,1758
42594,15218,2097
42904,15497,2523
43273,15826,3026
43692,16199,3601
44153,16614,4244
44644,17061,4937
45149,17523,5652
45653,17987,6373
46150,18444,7091
46630,18890,7794
47085,19310,8464
47506,19697,9091
47887,20049,9672
48226,20363,10200
48520,20635,10668
48771,20864,11071
48986,21057,11412
49167,21217,11698
49310,21341,11933
49417,21433,12120
49494,21497,12261
49544,21541,12364
49571,21569,12430
49577,21580,12460
49564,21574,12460
49538,21558,12437
49504,21530,12398
49464,21490,12344
49419,21443,12278
49370,21394,12206
49320,21347,12132
49270,21302,12055
49222,21258,11983
49177,21215,11919
49136,21175,11858
49099,21136,11797
49065,21096,11735
49029,21055,11669
48989,21011,11599
48946,20966,11530
48897,20918,11462
48841,20863,11388
48776,20801,11304
48705,20731,11209
48627,20655,11104
48547,20577,10990
48466,20496,10869
48384,20415,10748
48303,20337,10632
48223,20265,10524
48145,20196,10423
48075,20136,10330
48017,20088,10248
47967,20048,10176
47924,20017,10114
47898,20000,10071
47888,19999,10047
47888,20004,10038
47890,20011,10039
47898,20022,10052
47914,20039,10074
47938,20063,10104
47962,20089,10139
47987,20116,10173
48016,20144,10206
48046,20170,10236
48075,20191,10260
48100,20207,10275
48116,20213,10280
48117,20207,10275
48102,20191,10260
48073,20167,10235
48036,20136,10202
47995,20097,10159
47950,20053,10105
47902,20008,10041
47850,19958,9970
47787,19898,9890
47714,19829,9801
47638,19755,9699
47563,19681,9585
47486,19606,9466
47404,19528,9343
47315,19446,9215
47221,19363,9081
47124,19281,8945
47028,19199,8813
46933,19117,8681
46841,19036,8543
46750,18954,8403
46660,18870,8265
46571,18784,8128
46477,18692,7988
46379,18594,7848
46279,18497,7710
46182,18408,7575
46090,18327,7441
46000,18246,7305
45913,18162,7169
45830,18080,7037
45749,18001,6910
45668,17926,6787
45588,17855,6668
45512,17789,6553
45436,17724,6439
45358,17656,6330
45282,17586,6228
45212,17519,6129
45144,17454,6032
45080,17392,5938
45022,17335,5850
44969,17285,5766
44915,17238,5683
44856,17187,5602
44798,17132,5524
44743,17081,5451
44692,17035,5383
44641,16988,5319
44590,16943,5255
44543,16901,5185
44502,16863,5113
44464,16827,5042
44428,16790,4973
44390,16754,4904
44347,16718,4833
44303,16678,4765
44257,16637,4701
44207,16598,4643
44157,16560,4588
44112,16523,4539
44074,16487,4489
44040,16452,4429
44003,16413,4356
43961,16369,4278
43916,16323,4202
43868,16273,4127
43816,16218,4051
43760,16161,3971
43700,16105,3887
43638,16049,3800
43577,15996,3715
43519,15946,3634
43466,15899,3555
43415,15853,3475
43364,15807,3396
43313,15762,3319
43265,15719,3239
43215,15673,3154
43163,15625,3069
43108,15576,2987
43048,15526,2901
42981,15472,2809
42914,15416,2720
42850,15358,2633
42790,15300,2545
42729,15243,2455
42667,15183,2364
42602,15122,2273
42535,15062,2180
42469,15002,2086
42404,14942,1996
42343,14885,1910
42283,14832,1822
42219,14778,1731
42153,14718,1640
42086,14652,1549
42018,14583,1457
41951,14513,1362
41882,14446,1265
41812,14380,1171
41743,14315,1076
41673,14249,980
41604,14185,891
41544,14129,811
41498,14088,746
41476,14067,708
41484,14073,715
41532,14116,774
41630,14207,895
41781,14346,1092
41989,14538,1377
42259,14786,1745
42587,15090,2190
42966,15442,2707
43388,15833,3293
43845,16253,3936
44325,16693,4614
44812,17139,5310
45299,17578,6009
45773,18006,6692
46222,18412,7342
46632,18787,7950
47004,19131,8513
47339,19442,9023
47629,19714,9471
47876,19946,9859
48085,20140,10192
48258,20298,10474
48395,20421,10705
48499,20506,10882
48569,20561,11007
48611,20594,11089
48628,20605,11134
48621,20593,11142
48593,20565,11121
48552,20529,11079
48497,20482,11020
48433,20425,10947
48367,20364,10867
48301,20301,10784
48235,20239,10697
48169,20175,10607
48105,20116,10518
48048,20067,10433
47996,20025,10353
47944,19984,10278
47893,19947,10208
47842,19909,10140
47788,19864,10069
47730,19813,9989
47670,19758,9898
47606,19696,9793
47535,19627,9680
47459,19553,9561
47379,19476,9436
47297,19393,9307
47213,19306,9176
47129,19219,9049
47047,19137,8926
46971,19065,8810
46905,19004,8708
46855,18956,8626
46819,18921,8563
46794,18896,8518
46781,18882,8495
46780,18880,8497
46790,18889,8514
46809,18906,8542
46836,18930,8583
46869,18959,8633
46907,18993,8686
46950,19033,8739
46994,19074,8791
47033,19114,8844
47068,19150,8893
47098,19182,8938
47125,19209,8981
47149,19234,9022
47168,19255,9053
47176,19267,9071
47171,19267,9074
47158,19255,9062
47141,19238,9034
47115,19215,8993
47079,19186,8943
47035,19150,8880
46982,19105,8804
46925,19053,8724
46864,18999,8642
46798,18939,8552
46726,18873,8447
46646,18801,8329
46558,18724,8203
46469,18643,8077
46381,18564,7948
46294,18486,7818
46205,18406,7686
46113,18324,7550
46020,18240,7412
45926,18156,7274
45830,18071,7134
45735,17989,6992
45645,17911,6852
45559,17834,6720
45475,17755,6596
45395,17677,6477
45317,17599,6357
45239,17523,6239
45164,17450,6126
45090,17379,6012
45015,17307,5898
44942,17239,5791
44872,17181,5692
44809,17131,5594
44750,17081,5498
44690,17031,5410
44630,16985,5330
44570,16940,5247
44512,16893,5161
44458,16845,5078
44408,16798,5001
44361,16752,4927
44313,16707,4855
44263,16665,4789
44212,16622,4723
44161,16576,4652
44110,16527,4579
44062,16478,4509
44017,16434,4437
43975,16396,4365
43937,16360,4295
43904,16324,4231
43874,16291,4173
43845,16259,4119
43815,16227,4070
43784,16198,4029
43750,16172,3989
43712,16146,3940
43671,16117,3884
43631,16088,3825
43594,16060,3768
43560,16030,3709
43527,15994,3645
43490,15956,3579
43451,15917,3514
43410,15880,3453
43366,15842,3394
43319,15802,3334
43272,15762,3271
43221,15718,3204
43164,15669,3132
43108,15618,3063
43052,15569,2991
42992,15518,2911
42929,15463,2827
42862,15402,2740
42790,15341,2649
42719,15284,2554
42647,15226,2457
42568,15160,2353
42487,15091,2241
42405,15021,2127
42322,14946,2014
42239,14868,1901
42159,14793,1791
42087,14722,1687
42026,14657,1596
41983,14606,1522
41968,14579,1479
41988,14587,1485
42050,14637,1554
42159,14735,1695
42319,14885,1912
42535,15087,2211
42805,15339,2591
43127,15637,3046
43493,15976,3562
43897,16348,4133
44330,16743,4745
44778,17151,5384
45228,17566,6034
45672,17977,6684
46101,18373,7320
46502,18747,7925
46868,19092,8487
47196,19399,8997
47487,19663,9453
47743,19891,9857
47966,20091,10210
48153,20258,10509
48304,20390,10752
48421,20494,10943
48509,20572,11086
48566,20622,11185
48595,20648,11247
48604,20652,11273
48595,20636,11263
48570,20605,11228
48532,20567,11176
48489,20527,11116
48443,20487,11052
48391,20444,10982
48339,20401,10909
48291,20362,10836
48243,20325,10762
48193,20286,10685
48142,20247,10610
48092,20208,10540
48045,20167,10470
47996,20122,10397
47940,20073,10318
47875,20018,10233
47805,19956,10138
47730,19887,10032
47653,19815,9919
47573,19740,9802
47488,19661,9681
47403,19580,9564
47323,19504,9448
47246,19434,9329
47171,19367,9211
47105,19306,9103
47049,19251,9003
46997,19199,8909
46948,19145,8824
46908,19099,8758
46880,19071,8712
46862,19059,8684
46849,19058,8674
46844,19065,8677
46848,19081,8691
46860,19102,8711
46877,19122,8739
46897,19142,8776
46922,19165,8816
46954,19191,8860
46989,19219,8907
47022,19246,8952
47049,19272,8988
47070,19297,9015
47082,19313,9034
47080,19317,9042
47068,19313,9037
47049,19302,9018
47022,19282,8986
46987,19252,8939
46944,19214,8879
46895,19169,8804
46835,19114,8715
46767,19054,8620
46695,18988,8516
46619,18915,8405
46537,18834,8285
46447,18744,8154
46351,18648,8011
46252,18547,7863
46151,18448,7714
46050,18351,7563
45949,18256,7413
45846,18159,7262
45746,18062,7114
45651,17968,6972
45556,17877,6831
45460,17787,6690
45364,17700,6552
45269,17617,6417
45178,17542,6286
45094,17471,6163
45012,17400,6047
44931,17329,5929
44851,17259,5807
44772,17190,5687
44694,17122,5573
44619,17059,5463
44548,17000,5354
44478,16941,5248
44410,16882,5147
44350,16829,5048
44294,16777,4949
44241,16723,4857
44191,16669,4774
44138,16615,4693
44079,16559,4611
44018,16505,4533
43963,16460,4465
43914,16421,4401
43867,16383,4334
43821,16344,4270
43779,16308,4207
43738,16272,4138
43695,16234,4065
43653,16197,3995
43614,16166,3932
43580,16139,3872
43550,16112,3813
43522,16084,3756
43499,16056,3700
43479,16033,3643
43460,16010,3589
43437,15984,3539
43406,15955,3491
43369,15925,3446
43329,15895,3404
43288,15864,3363
43249,15835,3320
43212,15807,3274
43171,15776,3223
43128,15741,3168
43084,15707,3111
43041,15673,3047
43000,15636,2978
42958,15597,2909
42915,15556,2841
42872,15516,2770
42825,15473,2697
42771,15426,2623
42710,15377,2544
42647,15325,2454
42581,15269,2356
42514,15207,2255
42449,15144,2152
42383,15079,2048
42315,15010,1947
42247,14940,1849
42182,14875,1753
42118,14815,1654
42059,14763,1564
42012,14726,1491
41983,14706,1443
41980,14707,1429
42015,14742,1470
42098,14821,1580
42234,14952,1768
42429,15136,2038
42681,15369,2393
42988,15649,2829
43342,15975,3336
43740,16343,3904
44176,16746,4524
44643,17178,5185
45126,17623,5873
45611,18065,6569
46085,18498,7257
46542,18914,7921
46969,19301,8545
47355,19649,9117
47697,19960,9637
48001,20234,10104
48267,20472,10513
48496,20675,10865
48690,20842,11163
48850,20979,11412
48976,21088,11616
49070,21171,11777
49137,21229,11900
49180,21268,11986
49199,21290,12037
49198,21297,12057
49186,21292,12051
49166,21277,12027
49136,21253,11991
49099,21224,11946
49056,21191,11896
49015,21152,11843
48981,21108,11789
48948,21062,11732
48915,21020,11673
48880,20985,11616
48844,20954,11559
48808,20924,11503
48773,20892,11451
48734,20863,11399
48685,20833,11343
48631,20799,11276
48576,20758,11194
48520,20709,11100
48461,20649,10998
48394,20578,10891
48322,20501,10782
48247,20423,10669
48171,20345,10552
48098,20266,10428
48030,20191,10306
47969,20128,10194
47912,20074,10094
47859,20027,10005
47812,19989,9928
47771,19961,9869
47742,19945,9832
47728,19943,9817
47725,19953,9820
47733,19966,9832
47748,19983,9852
47770,20005,9883
47800,20032,9921
47833,20058,9957
47867,20082,9994
47903,20108,10033
47939,20137,10072
47974,20163,10107
48005,20183,10136
48032,20198,10161
48054,20209,10180
48068,20214,10192
48076,20212,10196
48079,20207,10190
48076,20198,10173
48063,20186,10147
48043,20167,10111
48019,20143,10064
47989,20114,10008
47949,20076,9940
47897,20030,9859
47837,19977,9771
47772,19919,9674
47703,19856,9572
47629,19788,9470
47550,19715,9365
47473,19643,9249
47396,19570,9125
47318,19493,9001
47241,19412,8878
47164,19333,8753
47086,19252,8624
47006,19168,8491
46920,19081,8356
46826,18995,8220
46729,18910,8087
46638,18829,7962
46553,18752,7844
46469,18680,7726
46386,18611,7607
46309,18542,7489
46233,18472,7371
46155,18400,7250
46076,18329,7133
45996,18258,7023
45917,18188,6915
45838,18120,6808
45763,18056,6703
45697,17998,6607
45638,17947,6523
45583,17898,6442
45528,17849,6361
45476,17796,6280
45426,17742,6195
45374,17689,6105
45318,17638,6013
45258,17589,5921
45201,17538,5832
45146,17486,5745
45090,17432,5665
45036,17379,5593
44986,17330,5525
44942,17283,5461
44902,17238,5400
44859,17194,5340
44812,17154,5275
44763,17118,5205
44714,17083,5136
44666,17046,5070
44622,17008,5006
44577,16969,4941
44527,16924,4875
44474,16875,4806
44423,16828,4735
44372,16778,4659
44317,16721,4575
44262,16665,4491
44211,16615,4409
44165,16569,4330
44115,16524,4254
44063,16477,4177
44009,16428,4096
43951,16374,4012
43888,16315,3928
43829,16259,3847
43777,16208,3768
43727,16160,3687
43670,16112,3604
43612,16063,3519
43556,16014,3434
43499,15960,3350
43437,15902,3262
43375,15846,3171
43315,15794,3074
43255,15739,2978
43193,15682,2883
43128,15623,2790
43061,15562,2695
42993,15499,2598
42923,15434,2503
42854,15370,2405
42783,15301,2298
42709,15230,2187
42635,15162,2080
42562,15096,1979
42495,15036,1885
42440,14988,1810
42407,14963,1768
42407,14970,1768
42446,15016,1824
42537,15104,1953
42691,15243,2163
42910,15440,2457
43189,15693,2837
43525,16002,3305
43916,16361,3852
44352,16763,4464
44826,17199,5133
45325,17657,5847
45837,18129,6585
46348,18600,7325
46843,19057,8050
47316,19489,8747
47758,19892,9405
48165,20262,10015
48532,20595,10571
48863,20893,11074
49163,21160,11526
49426,21394,11924
49648,21592,12266
49831,21759,12553
49979,21897,12787
50092,22003,12972
50175,22080,13114
50230,22132,13220
50263,22167,13294
50282,22185,13339
50287,22184,13357
50278,22171,13353
50262,22152,13338
50239,22128,13312
50212,22097,13271
50184,22063,13222
50156,22032,13171
50124,22004,13118
50089,21975,13064
50055,21943,13008
50019,21913,12953
49979,21883,12899
49937,21852,12847
49894,21817,12793
49846,21779,12737
49796,21739,12676
49745,21692,12606
49692,21635,12526
49635,21566,12437
49569,21490,12338
49490,21406,12223
49407,21320,12101
49323,21237,11982
49240,21161,11863
49160,21088,11744
49081,21015,11624
49006,20944,11507
48938,20878,11395
48877,20821,11293
48823,20772,11206
48775,20731,11137
48735,20702,11085
48708,20685,11051
48696,20681,11034
48699,20689,11033
48718,20706,11045
48750,20730,11070
48786,20759,11106
48817,20788,11146
48844,20817,11186
48870,20843,11226
48896,20869,11264
48918,20892,11293
48934,20911,11314
48948,20927,11328
48958,20937,11334
48960,20939,11329
48955,20929,11311
48943,20910,11285
48918,20881,11249
48880,20841,11201
48831,20795,11140
48774,20743,11067
48706,20681,10978
48627,20606,10871
48540,20523,10752
48450,20438,10626
48360,20351,10497
48269,20262,10364
48175,20173,10229
48077,20084,10091
47979,19996,9950
47880,19905,9804
47778,19809,9652
47673,19712,9495
47570,19615,9339
47467,19519,9186
47364,19424,9041
47264,19331,8899
47165,19240,8754
47066,19150,8609
46966,19063,8471
46868,18978,8338
46774,18895,8204
46683,18814,8068
46597,18737,7936
46513,18661,7807
46428,18580,7675
46339,18496,7545
46252,18412,7421
46170,18332,7303
46091,18253,7183
46011,18172,7063
45932,18096,6947
45853,18024,6835
45778,17955,6729
45704,17887,6624
45627,17818,6519
45550,17749,6414
45476,17682,6309
45403,17617,6208
45335,17555,6113
45274,17495,6020
45216,17438,5930
45160,17386,5844
45106,17336,5761
45053,17290,5676
45002,17248,5593
44955,17208,5518
44915,17170,5449
44875,17132,5379
44830,17085,5302
44779,17029,5223
44724,16970,5144
44666,16911,5065
44605,16856,4987
44539,16800,4907
44473,16746,4826
44411,16698,4743
44349,16649,4660
44284,16597,4579
44222,16543,4499
44163,16487,4415
44103,16428,4324
44042,16369,4234
43979,16312,4148
43916,16255,4058
43848,16193,3960
43775,16125,3859
43704,16056,3759
43639,15989,3656
43575,15924,3550
43509,15860,3441
43441,15799,3331
43372,15743,3223
43305,15691,3124
43242,15638,3036
43179,15581,2947
43115,15522,2854
43048,15459,2760
42979,15392,2664
42915,15322,2564
42852,15251,2461
42785,15177,2357
42713,15103,2256
42643,15034,2157
42574,14970,2059
42503,14907,1962
42432,14846,1865
42364,14789,1768
42295,14731,1667
42224,14669,1569
42151,14605,1475
42079,14541,1379
42006,14479,1281
41933,14414,1182
41858,14345,1080
41785,14278,973
41715,14214,867
41647,14150,766
41586,14091,671
41535,14041,590
41494,14000,530
41471,13978,507
41482,13987,532
41539,14037,612
41646,14136,761
41810,14290,994
42037,14504,1314
42331,14777,1717
42688,15098,2199
43096,15462,2755
43551,15870,3377
44043,16314,4051
44554,16776,4761
45073,17245,5495
45590,17714,6234
46096,18172,6959
46576,18606,7657
47021,19010,8314
47424,19380,8915
47781,19709,9453
48091,19995,9931
48356,20242,10352
48579,20453,10715
48765,20631,11019
48917,20775,11268
49039,20889,11469
49132,20974,11627
49190,21031,11744
49219,21062,11824
49229,21075,11871
49223,21073,11888
49201,21054,11877
49164,21019,11842
49123,20974,11793
49081,20925,11735
49037,20877,11672
48993,20831,11609
48949,20788,11547
48908,20751,11487
48871,20718,11425
48838,20689,11366
48813,20663,11312
48792,20638,11260
48771,20614,11209
48747,20586,11158
48725,20560,11106
48705,20531,11053
48675,20495,10996
48634,20453,10930
48584,20407,10857
48526,20355,10773
48461,20295,10678
48391,20230,10573
48320,20164,10462
48246,20096,10349
48173,20031,10241
48102,19969,10141
48037,19908,10051
47985,19852,9970
47941,19803,9898
47904,19768,9838
47878,19749,9794
47861,19740,9765
47854,19736,9755
47864,19741,9769
47892,19757,9805
47929,19780,9852
47967,19805,9902
48008,19833,9955
48051,19867,10010
48089,19900,10062
48113,19923,10103
48127,19939,10130
48141,19952,10150
48155,19963,10168
48164,19971,10178
48165,19975,10176
48159,19972,10165
48145,19964,10144
48126,19951,10113
48100,19931,10074
48065,19904,10024
48023,19867,9962
47974,19818,9888
47919,19761,9804
47856,19701,9712
47788,19638,9612
47714,19571,9507
47636,19496,9395
47554,19417,9277
47474,19337,9155
47394,19257,9028
47310,19175,8895
47220,19090,8757
47130,19003,8620
47042,18915,8485
46955,18831,8351
46867,18750,8217
46780,18669,8085
46694,18589,7954
46608,18510,7826
46524,18433,7698
46441,18357,7571
46361,18286,7446
46282,18216,7319
46199,18141,7185
46110,18061,7047
46021,17978,6912
45935,17898,6784
45851,17821,6663
45770,17745,6546
45691,17671,6434
45617,17599,6325
45544,17529,6214
45469,17459,6108
45396,17394,6009
45328,17336,5915
45264,17279,5823
45202,17220,5735
45142,17161,5649
45084,17103,5563
45031,17048,5480
44979,16994,5404
44927,16940,5330
44877,16889,5252
44825,16838,5173
44773,16787,5101
44722,16740,5037
44674,16700,4972
44630,16662,4907
44586,16621,4843
44541,16577,4777
44493,16534,4707
44445,16492,4636
44401,16454,4568
44363,16419,4502
44325,16381,4431
44284,16340,4358
44242,16300,4290
44201,16261,4227
44157,16222,4165
44111,16183,4103
44066,16143,4040
44021,16106,3975
43976,16073,3908
43930,16041,3842
43889,16008,3776
43849,15973,3708
43805,15934,3635
43756,15893,3560
43704,15852,3487
43652,15809,3415
43601,15764,3338
43549,15716,3256
43495,15664,3174
43440,15611,3091
43383,15554,3005
43324,15491,2915
43261,15427,2822
43196,15364,2726
43129,15303,2630
43064,15243,2537
43002,15184,2446
42940,15123,2352
42877,15060,2254
42809,14993,2150
42736,14923,2045
42663,14857,1944
42592,14799,1847
42521,14744,1751
42455,14693,1660
42407,14652,1583
42376,14626,1530
42369,14620,1515
42398,14645,1550
42472,14712,1646
42596,14825,1813
42771,14987,2058
43001,15200,2381
43293,15468,2785
43639,15787,3266
44031,16148,3820
44464,16544,4431
44920,16964,5081
45388,17394,5753
45855,17825,6433
46313,18248,7101
46749,18652,7746
47158,19028,8359
47535,19373,8933
47874,19684,9457
48172,19955,9915
48430,20186,10310
48650,20381,10651
48835,20545,10940
48986,20675,11175
49102,20773,11357
49183,20842,11490
49232,20883,11578
49252,20902,11625
49248,20903,11637
49224,20889,11627
49186,20860,11600
49140,20819,11556
49088,20770,11498
49036,20721,11431
48987,20675,11358
48935,20630,11277
48878,20583,11189
48823,20536,11102
48772,20487,11016
48723,20436,10931
48675,20382,10848
48629,20332,10770
48583,20286,10695
48531,20239,10619
48476,20192,10541
48418,20143,10457
48358,20093,10366
48296,20036,10270
48229,19971,10169
48154,19901,10059
48070,19827,9940
47981,19750,9815
47893,19672,9693
47810,19596,9576
47732,19521,9463
47661,19453,9360
47602,19395,9273
47556,19349,9201
47520,19316,9140
47489,19293,9093
47470,19280,9062
47466,19280,9048
47473,19291,9050
47488,19309,9065
47512,19335,9091
47544,19368,9128
47582,19402,9172
47623,19436,9219
47668,19471,9271
47713,19508,9324
47750,19544,9374
47778,19574,9421
47800,19601,9465
47814,19622,9500
47824,19637,9524
47827,19644,9536
47822,19641,9535
47810,19631,9517
47791,19612,9485
47766,19587,9442
47736,19555,9387
47693,19515,9316
47630,19463,9227
47552,19399,9126
47471,19329,9020
47389,19253,8905
47305,19172,8782
47220,19091,8656
47133,19011,8529
47043,18931,8396
46951,18852,8261
46864,18776,8128
46781,18700,7995
46695,18624,7857
46606,18545,7717
46518,18463,7580
46434,18380,7449
46349,18293,7321
46261,18204,7195
46176,18118,7075
46098,18037,6954
46023,17956,6827
45946,17875,6696
45870,17797,6567
45795,17723,6443
45719,17652,6319
45641,17582,6196
45565,17512,6075
45487,17441,5957
45408,17369,5837
45327,17297,5722
45252,17231,5620
45183,17170,5523
45117,17113,5424
45053,17058,5334
44994,17009,5255
44942,16964,5181
44894,16921,5105
44846,16878,5027
44797,16832,4945
44749,16785,4860
44705,16740,4778
44661,16699,4702
44613,16661,4633
44562,16625,4567
44507,16587,4500
44450,16544,4435
44393,16500,4373
44344,16460,4311
44303,16425,4251
44269,16397,4197
44243,16377,4150
44221,16360,4102
44196,16338,4053
44168,16310,4006
44138,16280,3960
44106,16250,3910
44070,16217,3856
44033,16182,3803
43994,16145,3748
43952,16106,3682
43904,16063,3606
43849,16015,3525
43791,15962,3442
43732,15906,3359
43674,15847,3278
43615,15783,3197
43553,15718,3111
43491,15653,3019
43428,15591,2924
43361,15530,2824
43293,15470,2719
43225,15412,2614
43154,15354,2511
43081,15295,2411
43011,15238,2315
42945,15183,2226
42885,15129,2146
42835,15083,2078
42802,15052,2025
42791,15045,2001
42813,15071,2023
42876,15136,2103
42985,15243,2244
43142,15393,2453
43348,15586,2739
43605,15823,3102
43910,16103,3536
44261,16422,4037
44648,16773,4595
45063,17148,5196
45497,17542,5825
45940,17941,6467
46373,18333,7103
46790,18714,7718
47186,19081,8304
47551,19422,8853
47879,19728,9352
48167,19994,9795
48416,20225,10184
48626,20419,10521
48796,20578,10803
48929,20704,11034
49031,20800,11218
49102,20867,11353
49144,20908,11447
49166,20930,11508
49171,20939,11541
49162,20935,11547
49141,20918,11530
49115,20895,11500
49087,20870,11462
49054,20838,11416
49017,20803,11365
48982,20771,11312
48945,20743,11257
48905,20711,11196
48860,20673,11133
48815,20633,11073
48773,20594,11016
48733,20553,10957
48688,20508,10891
48640,20464,10819
48591,20419,10741
48540,20368,10656
48486,20314,10569
48432,20262,10480
48373,20207,10382
48304,20142,10268
48227,20069,10147
48148,19992,10026
48069,19917,9909
47994,19843,9799
47924,19774,9694
47860,19716,9597
47803,19668,9511
47755,19630,9438
47714,19602,9377
47685,19584,9327
47665,19571,9289
47650,19567,9267
47648,19577,9266
47659,19597,9279
47677,19618,9301
47699,19640,9328
47725,19665,9356
47754,19694,9387
47788,19724,9425
47826,19753,9470
47867,19782,9515
47904,19810,9555
47929,19830,9587
47946,19843,9611
47958,19854,9634
47965,19861,9647
47961,19860,9647
47948,19848,9633
47931,19832,9608
47910,19810,9575
47881,19781,9532
47844,19744,9475
47801,19704,9404
47752,19661,9329
47694,19610,9248
47629,19551,9157
47559,19489,9055
47483,19424,8941
47403,19354,8819
47320,19281,8694
47238,19205,8567
47156,19127,8438
47073,19046,8309
46993,18967,8182
46913,18888,8053
46829,18808,7919
46743,18728,7786
46661,18652,7657
46584,18580,7534
46507,18508,7414
46428,18433,7295
46349,18359,7175
46271,18288,7054
46188,18214,6931
46099,18138,6805
46008,18061,6681
45917,17984,6558
45831,17908,6437
45752,17838,6325
45679,17774,6218
45611,17712,6111
45547,17651,6008
45490,17589,5911
45435,17527,5819
45382,17471,5730
45327,17420,5645
45275,17374,5566
45226,17332,5489
45179,17290,5413
45133,17249,5343
45084,17207,5277
45033,17165,5209
44982,17119,5138
44936,17071,5068
44895,17024,5002
44858,16978,4934
44819,16931,4863
44780,16887,4791
44744,16848,4723
44706,16812,4658
44663,16777,4595
44618,16744,4536
44576,16718,4483
44539,16696,4430
44505,16671,4374
44471,16642,4316
44439,16613,4261
44409,16584,4205
44375,16551,4146
44333,16513,4083
44290,16474,4017
44246,16431,3949
44198,16383,3879
44147,16334,3810
44098,16285,3738
44048,16233,3661
43996,16177,3581
43943,16122,3502
43894,16070,3422
43849,16023,3341
43808,15977,3262
43769,15932,3190
43732,15892,3123
43693,15851,3055
43651,15811,2988
43607,15773,2922
43567,15739,2855
43526,15705,2785
43475,15663,2706
43414,15610,2620
43346,15554,2528
43275,15495,2428
43202,15432,2325
43129,15367,2227
43061,15307,2135
42999,15250,2047
42940,15197,1968
42895,15158,1912
42874,15139,1884
42883,15146,1890
42930,15188,1944
43021,15271,2057
43158,15396,2237
43345,15569,2499
43589,15797,2855
43893,16079,3302
44250,16413,3828
44653,16790,4420
45092,17199,5066
45557,17630,5752
46031,18069,6453
46499,18501,7144
46950,18913,7813
47382,19301,8454
47791,19665,9064
48169,20003,9635
48511,20310,10161
48816,20587,10638
49084,20834,11061
49318,21051,11432
49520,21236,11752
49690,21389,12024
49827,21513,12249
49928,21606,12428
49997,21674,12563
50041,21722,12659
50060,21751,12717
50060,21761,12745
50050,21759,12751
50031,21749,12742
50005,21730,12718
49975,21703,12682
49941,21669,12635
49906,21631,12581
49872,21598,12527
49841,21567,12476
49812,21534,12427
49788,21502,12378
49767,21471,12330
49744,21439,12281
49717,21406,12232
49684,21372,12181
49645,21333,12125
49603,21292,12064
49557,21248,11998
49503,21200,11923
49443,21146,11837
49376,21085,11739
49297,21015,11632
49208,20938,11518
49115,20856,11396
49022,20773,11266
48932,20689,11131
48846,20609,11001
48763,20532,10877
48690,20464,10762
48629,20410,10663
48581,20367,10579
48545,20335,10514
48521,20313,10471
48509,20302,10449
48512,20306,10452
48526,20323,10470
48548,20345,10495
48578,20370,10531
48614,20398,10575
48651,20428,10622
48687,20459,10670
48719,20490,10713
48745,20515,10747
48763,20533,10775
48777,20546,10796
48787,20553,10809
48792,20559,10814
48790,20560,10809
48781,20547,10789
48764,20526,10754
48738,20501,10711
48703,20472,10659
48663,20437,10598
48618,20398,10528
48562,20354,10446
48493,20303,10352
48419,20243,10249
48345,20178,10141
48266,20106,10026
48182,20027,9904
48096,19944,9778
48009,19860,9651
47920,19781,9525
47833,19704,9400
47744,19626,9273
47655,19547,9143
47566,19468,9010
47475,19383,8875
47384,19294,8735
47295,19208,8596
47206,19124,8459
47115,19037,8322
47023,18945,8184
46929,18851,8046
46833,18757,7908
46738,18665,7774
46651,18577,7645
46571,18490,7516
46489,18406,7388
46405,18326,7263
46322,18253,7145
46243,18188,7033
46162,18126,6923
46079,18060,6813
46003,17996,6703
45935,17934,6594
45871,17871,6490
45812,17810,6395
45755,17752,6302
45700,17700,6211
45644,17648,6124
45587,17597,6039
45532,17549,5958
45475,17502,5879
45417,17453,5802
45358,17406,5732
45304,17366,5667
45253,17330,5601
45198,17288,5530
45142,17238,5451
45083,17190,5372
45027,17145,5298
44978,17102,5231
44937,17062,5170
44904,17025,5111
44870,16990,5050
44832,16957,4988
44794,16924,4923
44755,16888,4850
44711,16845,4768
44662,16798,4686
44610,16753,4611
44559,16710,4539
44511,16667,4466
44465,16623,4392
44419,16581,4323
44372,16539,4258
44323,16497,4195
44268,16451,4130
44211,16402,4058
44149,16350,3976
44084,16292,3886
44021,16232,3792
43963,16173,3698
43904,16115,3602
43844,16056,3504
43785,15995,3409
43728,15935,3315
43669,15877,3221
43610,15819,3126
43551,15761,3033
43492,15704,2940
43428,15645,2842
43358,15584,2744
43287,15525,2651
43218,15471,2559
43150,15415,2465
43080,15354,2369
43008,15289,2270
42934,15222,2164
42857,15151,2052
42777,15078,1942
42700,15007,1841
42633,14941,1747
42572,14881,1657
42522,14831,1583
42491,14803,1538
42485,14802,1528
42511,14834,1562
42582,14906,1658
42709,15026,1830
42893,15199,2081
43132,15424,2412
43427,15700,2827
43779,16026,3324
44183,16395,3893
44625,16796,4523
45088,17218,5200
45563,17652,5905
46045,18088,6615
46518,18516,7310
46976,18930,7982
47410,19325,8624
47815,19698,9227
48187,20039,9788
48522,20343,10299
48819,20613,10757
49079,20851,11159
49302,21059,11508
49492,21239,11809
49651,21388,12064
49774,21503,12272
49861,21587,12430
49917,21644,12545
49946,21674,12620
49951,21681,12656
49937,21670,12661
49912,21651,12643
49881,21626,12611
49847,21599,12567
49808,21567,12514
49766,21532,12456
49723,21496,12399
49682,21459,12345
49644,21421,12294
49609,21382,12243
49575,21345,12190
49540,21307,12134
49501,21267,12072
49459,21225,12008
49415,21181,11941
49368,21135,11870
49318,21087,11793
49263,21034,11710
49204,20976,11617
49136,20912,11515
49060,20844,11406
48980,20775,11295
48896,20702,11181
48808,20622,11061
48723,20540,10937
48648,20465,10818
48584,20401,10707
48523,20344,10605
48465,20295,10512
48412,20255,10435
48365,20222,10371
48326,20195,10322
48300,20178,10290
48289,20174,10279
48292,20182,10285
48302,20197,10297
48318,20217,10315
48343,20244,10342
48375,20276,10376
48409,20307,10412
48446,20335,10448
48482,20361,10483
48512,20379,10512
48532,20387,10531
48541,20388,10541
48541,20385,10546
48532,20378,10543
48515,20364,10527
48489,20342,10500
48455,20317,10460
48413,20285,10403
48362,20241,10326
48304,20185,10236
48244,20122,10140
48177,20054,10038
48104,19983,9929
48024,19912,9815
47939,19842,9695
47846,19769,9571
47748,19690,9446
47647,19607,9321
47544,19519,9191
47441,19426,9053
47339,19329,8911
47241,19232,8766
47147,19138,8619
47056,19042,8470
46966,18944,8320
46873,18849,8176
46777,18757,8037
46680,18669,7901
46585,18581,7769
46489,18493,7635
46397,18411,7500
46306,18334,7363
46216,18257,7231
46131,18183,7106
46052,18115,6984
45976,18050,6867
45903,17989,6756
45836,17933,6651
45774,17882,6550
45713,17826,6452
45654,17765,6355
45596,17703,6261
45536,17640,6166
45475,17577,6070
45418,17519,5982
45367,17466,5901
45317,17421,5821
45264,17379,5740
45208,17335,5660
45148,17287,5578
45087,17235,5495
45027,17181,5412
44968,17128,5329
44911,17075,5247
44855,17022,5164
44797,16967,5081
44739,16914,5002
44683,16865,4923
44625,16819,4841
44567,16771,4760
44512,16722,4684
44459,16675,4606
44408,16629,4524
44360,16582,4443
44314,16530,4368
44266,16478,4294
44214,16424,4218
44160,16369,4139
44105,16314,4059
44050,16260,3976
43994,16205,3895
43934,16149,3817
43871,16094,3739
43808,16042,3658
43741,15987,3570
43668,15922,3473
43596,15855,3370
43524,15787,3265
43451,15719,3160
43378,15652,3058
43308,15588,2955
43240,15526,2850
43170,15463,2746
43095,15399,2642
43020,15337,2538
42946,15275,2434
42874,15213,2331
42803,15149,2232
42734,15086,2134
42666,15023,2034
42595,14958,1933
42521,14892,1833
42450,14826,1730
42380,14757,1622
42309,14688,1516
42239,14623,1414
42174,14564,1314
42112,14506,1218
42051,14444,1125
41991,14382,1035
41932,14323,946
41868,14264,859
41796,14205,771
41718,14144,677
41637,14085,576
41556,14025,1784
41474,13957,6357
41396,13883,14029
41327,13812,23069
41266,13746,32258
41217,13692,40802
41187,13656,46943
41184,13648,48441
41223,13680,45554
41314,13761,40123
41466,13897,33542
41681,14090,26803
41957,14339,20557
42289,14640,15188
42673,14991,10876
43097,15379,7651
43548,15795,5440
44023,16233,4117
44510,16683,3520
44993,17132,3477
45463,17566,3834
45914,17977,4458
46335,18359,5232
46717,18704,6066
47055,19011,6899
47353,19283,7687
47611,19519,8395
47829,19719,9005
48009,19882,9517
48157,20013,9936
48276,20117,10265
48366,20191,10506
48426,20238,10667
48461,20263,10764
48475,20275,10814
48469,20271,10823
48444,20249,10798
48407,20217,10747
48361,20179,10677
48305,20135,10593
48240,20081,10495
48173,20022,10392
48108,19962,10293
48047,19901,10199
47986,19839,10102
47927,19781,10008
47874,19731,9920
47825,19684,9837
47777,19636,9761
47728,19587,9687
47674,19537,9613
47614,19483,9533
47549,19425,9443
47479,19363,9343
47406,19296,9234
47326,19224,9118
47239,19148,9001
47147,19069,8880
47054,18992,8755
46964,18914,8630
46881,18838,8512
46807,18766,8403
46742,18703,8300
46682,18645,8204
46626,18590,8120
46577,18542,8051
46540,18506,8000
46516,18483,7971
46503,18472,7958
46502,18472,7960
46516,18483,7977
46538,18500,8008
46562,18523,8050
46587,18549,8091
46611,18577,8130
46637,18604,8168
46665,18634,8207
46696,18664,8243
46724,18690,8268
46747,18706,8285
46767,18716,8296
46780,18720,8299
46784,18719,8293
46777,18711,8277
46758,18696,8252
46724,18670,8210
46676,18630,8145
46621,18583,8068
46562,18529,7984
46500,18470,7892
46435,18404,7794
46363,18333,7695
46286,18262,7592
46209,18193,7481
46128,18122,7363
46043,18043,7240
45957,17957,7111
45867,17866,6976
45773,17772,6836
45677,17676,6696
45579,17581,6553
45479,17488,6409
45377,17396,6267
45277,17306,6131
45176,17215,5994
45075,17123,5853
44977,17034,5715
44882,16948,5581
44791,16867,5448
44703,16788,5317
44616,16708,5189
44530,16627,5060
44447,16546,4929
44370,16471,4803
44300,16401,4687
44233,16334,4579
44169,16270,4474
44106,16209,4371
44043,16149,4271
43974,16088,4173
43901,16028,4074
43828,15968,3977
43759,15907,3886
43696,15850,3798
43637,15799,3712
43582,15749,3627
43530,15701,3545
43480,15656,3467
43428,15610,3390
43377,15563,3318
43327,15514,3250
43279,15468,3182
43232,15426,3110
43189,15389,3040
43150,15355,2976
43113,15322,2917
43077,15291,2857
43039,15260,2795
42999,15230,2735
42958,15200,2675
42918,15168,2613
42881,15135,2550
42843,15102,2491
42802,15067,2432
42759,15029,2369
42712,14987,2305
42663,14944,2240
42613,14898,2171
42566,14850,2099
42520,14803,2026
42475,14755,1955
42431,14710,1882
42386,14663,1803
42335,14613,1718
42281,14564,1632
42229,14521,1547
42176,14481,1462
42121,14437,1378
42066,14393,1300
42015,14350,1224
41965,14304,1143
41914,14257,1066
41861,14212,995
41806,14165,923
41745,14110,841
41679,14049,753
41608,13982,656
41535,13909,1865
41459,13833,5124
41382,13755,9433
41308,13680,15378
41239,13610,23201
41170,13543,31593
41104,13479,39669
41040,13416,46884
40975,13353,52959
40907,13289,57808
40840,13227,61480
40780,13178,64103
40736,13145,310
40713,13133,1361
40719,13152,593
40765,13209,61649
40859,13304,53861
41007,13439,44621
41214,13622,35241
41477,13858,26576
41792,14140,19119
42150,14461,13090
42547,14818,8516
42978,15209,5299
43432,15623,3261
43894,16043,2194
44354,16462,1883
44802,16875,2121
45228,17268,2721
45621,17629,3533
45974,17955,4443
46287,18247,5362
46559,18502,6227
46791,18720,7007
46987,18904,7686
47153,19058,8249
47285,19177,8693
47382,19263,9028
47449,19321,9270
47494,19356,9432
47517,19366,9524
47518,19354,9555
47501,19331,9540
47473,19299,9492
47433,19256,9417
47375,19200,9324
47308,19137,9218
47238,19072,9104
47163,19004,8983
47085,18931,8862
47010,18857,8743
46939,18788,8626
46867,18721,8513
46796,18658,8406
46727,18599,8304
46661,18541,8199
46593,18482,8087
46519,18419,7974
46440,18353,7863
46358,18282,7748
46274,18205,7630
46189,18120,7508
46101,18029,7383
46012,17939,7254
45925,17855,7124
45845,17779,7004
45773,17714,6895
45709,17659,6794
45656,17611,6705
45619,17573,6633
45598,17549,6578
45588,17534,6532
45582,17528,6503
45585,17536,6500
45593,17555,6514
45604,17577,6537
45623,17600,6570
45651,17629,6615
45687,17668,6669
45725,17712,6731
45767,17759,6802
45811,17810,6877
45856,17860,6942
45896,17901,6997
45930,17933,7050
45961,17959,7099
45984,17978,7134
46000,17990,7154
46011,17997,7164
46017,17996,7167
46015,17988,7155
46000,17970,7123
45975,17941,7075
45944,17901,7015
45907,17856,6947
45862,17805,6870
45806,17747,6783
45745,17685,6688
45679,17621,6583
45606,17551,6467
45527,17478,6344
45442,17403,6222
45353,17325,6096
45258,17240,5967
45156,17150,5837
45056,17058,5705
44958,16967,5570
44859,16874,5433
44757,16782,5292
44655,16691,5149
44556,16601,5004
44462,16519,4863
44373,16443,4729
44290,16372,4600
44210,16302,4474
44133,16233,4354
44055,16165,4237
43976,16097,4119
43894,16027,3996
43810,15955,3872
43726,15883,3751
43647,15816,3636
43571,15749,3525
43498,15682,3421
43432,15619,3321
43371,15561,3224
43316,15506,3127
43266,15453,3036
43219,15401,2951
43169,15349,2869
43115,15296,2790
43060,15246,2718
43013,15206,2656
42972,15171,2596
42927,15132,2532
42881,15090,2467
42839,15052,2409
42804,15020,2355
42775,14993,2304
42750,14970,2262
42729,14953,2229
42711,14937,2196
42693,14922,2159
42674,14907,2122
42648,14891,2080
42612,14869,2030
42575,14842,1980
42545,14814,1937
42519,14789,1897
42488,14763,1850
42452,14732,1795
42417,14700,1741
42382,14670,1682
42342,14639,1616
42296,14604,1549
42249,14565,1481
42203,14525,1412
42159,14485,1343
42111,14443,1271
42063,14398,1195
42018,14350,1120
41975,14302,1045
41927,14251,969
41877,14198,890
41823,14144,808
41765,14087,726
41702,14027,645
41639,13971,568
41586,13927,501
41546,13897,453
41525,13881,430
41532,13890,445
41574,13935,507
41658,14019,630
41788,14146,824
41970,14319,1091
42206,14541,1429
42495,14811,1838
42832,15124,2314
43212,15475,2851
43624,15856,3431
44059,16252,4037
44503,16655,4660
44948,17063,5290
45383,17465,5910
45797,17848,6505
46179,18202,7068
46529,18525,7587
46844,18815,8055
47123,19069,8474
47367,19288,8847
47571,19475,9169
47737,19629,9439
47870,19751,9662
47976,19849,9844
48053,19921,9984
48104,19964,10078
48131,19981,10133
48139,19979,10157
48132,19967,10159
48112,19946,10140
48080,19917,10099
48041,19881,10041
47992,19836,9972
47930,19782,9890
47859,19719,9801
47786,19656,9705
47714,19595,9608
47646,19535,9512
47579,19472,9421
47512,19408,9331
47444,19348,9239
47377,19289,9145
47311,19225,9046
47240,19155,8936
47163,19081,8815
47082,19005,8687
47000,18926,8560
46919,18847,8436
46837,18772,8309
46753,18696,8184
46668,18616,8063
46582,18534,7942
46499,18453,7819
46423,18377,7703
46357,18312,7603
46301,18256,7519
46255,18211,7447
46219,18179,7390
46196,18161,7352
46185,18155,7331
46185,18161,7324
46196,18178,7330
46218,18200,7350
46246,18228,7381
46278,18261,7420
46312,18299,7464
46349,18338,7507
46386,18374,7548
46423,18410,7592
46459,18444,7639
46490,18474,7686
46515,18497,7725
46532,18512,7751
46541,18517,7763
46542,18513,7764
46538,18507,7751
46531,18498,7727
46511,18482,7692
46477,18454,7646
46433,18416,7587
46385,18372,7518
46332,18321,7442
46274,18266,7362
46210,18208,7274
46139,18145,7178
46062,18078,7077
45980,18008,6971
45894,17933,6855
45804,17851,6725
45712,17765,6587
45622,17681,6448
45536,17600,6310
45451,17520,6170
45366,17441,6033
45280,17362,5903
45195,17284,5771
45109,17206,5636
45023,17129,5506
44944,17050,5384
44869,16972,5263
44796,16895,5144
44720,16822,5028
44645,16753,4915
44573,16685,4799
44501,16616,4685
44426,16548,4578
44350,16482,4477
44273,16415,4376
44196,16350,4275
44123,16287,4179
44056,16227,4087
43993,16173,3998
43933,16122,3909
43873,16071,3817
43819,16022,3725
43768,15976,3635
43719,15931,3549
43672,15888,3467
43627,15847,3388
43583,15805,3313
43538,15761,3243
43493,15720,3179
43452,15684,3117
43412,15648,3055
43371,15613,2997
43331,15580,2945
43295,15551,2893
43260,15521,2840
43228,15491,2787
43200,15461,2738
43175,15430,2688
43152,15402,2641
43136,15381,2597
43123,15366,2552
43109,15351,2501
43084,15330,2446
43049,15303,2387
43010,15273,2327
42968,15238,2266
42924,15198,2203
42875,15156,2142
42824,15116,2082
42769,15073,2013
42714,15027,1939
42664,14983,1867
42619,14938,1797
42571,14890,1720
42513,14833,1637
42448,14774,1551
42382,14717,1463
42315,14660,1372
42246,14602,1281
42185,14554,1203
42142,14522,1145
42122,14507,1111
42129,14512,1111
42171,14550,1159
42257,14629,1266
42394,14754,1443
42586,14928,1704
42834,15157,2053
43136,15438,2478
43486,15762,2966
43876,16124,3515
44299,16516,4121
44749,16930,4763
45215,17356,5426
45686,17783,6098
46151,18201,6770
46601,18606,7424
47028,18990,8043
47423,19345,8619
47779,19665,9152
48098,19951,9636
48379,20201,10071
48618,20419,10459
48818,20611,10799
48989,20778,11091
49133,20919,11333
49252,21032,11530
49345,21119,11687
49414,21180,11805
49459,21215,11884
49482,21230,11928
49487,21230,11945
49479,21217,11940
49461,21197,11920
49434,21172,11887
49403,21142,11842
49370,21108,11789
49334,21071,11730
49300,21031,11669
49269,20993,11607
49236,20957,11546
49201,20923,11489
49164,20892,11437
49127,20863,11386
49090,20833,11330
49050,20795,11264
49007,20750,11187
48959,20699,11102
48909,20644,11014
48856,20586,10922
48801,20521,10828
48742,20453,10729
48683,20384,10626
48624,20317,10521
48563,20253,10416
48504,20193,10315
48450,20138,10218
48402,20092,10130
48357,20056,10051
48313,20024,9982
48271,19991,9920
48238,19960,9868
48214,19934,9832
48198,19918,9810
48192,19910,9804
48200,19912,9815
48221,19922,9837
48245,19939,9862
48267,19960,9892
48295,19986,9935
48334,20019,9989
48376,20057,10046
48417,20097,10100
48454,20133,10146
48487,20166,10184
48513,20196,10212
48533,20220,10230
48547,20236,10236
48553,20247,10235
48551,20252,10225
48540,20248,10206
48524,20235,10178
48502,20213,10136
48467,20181,10079
48418,20138,10009
48364,20087,9934
48304,20029,9853
48235,19963,9762
48157,19888,9660
48073,19807,9550
47988,19725,9436
47904,19645,9318
47820,19565,9197
47736,19483,9073
47651,19402,8940
47561,19318,8799
47469,19232,8655
47375,19142,8512
47279,19051,8365
47181,18961,8214
47083,18874,8064
46988,18791,7920
46892,18706,7779
46793,18618,7640
46692,18525,7504
46591,18428,7368
46495,18331,7229
46399,18237,7086
46304,18144,6945
46213,18055,6808
46128,17973,6676
46047,17895,6547
45967,17818,6419
45890,17745,6297
45816,17679,6186
45746,17620,6086
45678,17566,5997
45614,17515,5917
45554,17467,5841
45498,17423,5769
45447,17378,5700
45397,17334,5634
45348,17293,5571
45300,17252,5508
45251,17208,5444
45203,17164,5379
45157,17117,5314
45106,17066,5246
45052,17014,5172
44996,16962,5091
44942,16909,5008
44895,16857,4926
44854,16810,4849
44818,16770,4777
44782,16732,4707
44740,16691,4631
44691,16647,4555
44644,16605,4484
44598,16566,4415
44550,16524,4345
44500,16481,4272
44454,16440,4195
44409,16401,4118
44364,16362,4047
44323,16323,3979
44283,16282,3910
44238,16234,3837
44184,16180,3758
44126,16128,3677
44067,16078,3597
44004,16025,3516
43932,15967,3431
43857,15909,3342
43782,15851,3250
43706,15789,3156
43628,15723,3061
43552,15658,2959
43476,15594,2847
43398,15528,2728
43322,15462,2612
43251,15399,2500
43178,15335,2389
43101,15265,2280
43027,15196,2178
42965,15137,2091
42922,15100,2029
42908,15092,2009
42935,15120,2050
43015,15195,2163
43149,15317,2352
43341,15489,2624
43596,15721,2987
43913,16011,3436
44283,16350,3961
44698,16728,4552
45146,17138,5196
45619,17571,5875
46103,18016,6572
46584,18461,7270
47055,18897,7957
47511,19317,8622
47941,19713,9253
48340,20081,9845
48705,20417,10394
49034,20719,10899
49326,20987,11355
49582,21219,11757
49796,21415,12105
49968,21577,12398
50103,21707,12641
50208,21804,12830
50283,21872,12966
50331,21917,13055
50355,21942,13105
50359,21942,13126
50346,21926,13126
50321,21900,13109
50283,21866,13071
50234,21823,13013
50180,21775,12946
50127,21722,12875
50072,21665,12797
50013,21607,12713
49955,21554,12629
49901,21507,12548
49847,21463,12467
49790,21416,12387
49730,21366,12306
49669,21314,12224
49608,21259,12142
49544,21201,12058
49477,21137,11966
49405,21066,11859
49327,20988,11736
49242,20903,11604
49151,20814,11467
49046,20717,11323
48930,20616,11173
48818,20520,11025
48716,20432,10881
48623,20349,10739
48538,20270,10605
48461,20198,10485
48397,20132,10380
48345,20076,10291
48305,20036,10221
48276,20014,10173
48257,20005,10145
48248,20003,10131
48243,20002,10125
48242,20001,10126
48248,20006,10135
48262,20020,10152
48282,20040,10173
48301,20057,10194
48315,20069,10215
48324,20078,10233
48328,20083,10249
48327,20083,10263
48324,20083,10272
48317,20081,10273
48299,20068,10259
48273,20047,10231
48238,20018,10190
48190,19975,10131
48132,19917,10057
48068,19853,9972
48001,19789,9876
47930,19723,9772
47853,19652,9666
47773,19577,9554
47688,19500,9430
47598,19417,9296
47508,19325,9156
47416,19233,9014
47320,19141,8869
47221,19046,8724
47121,18951,8584
47024,18857,8444
46926,18759,8300
46822,18655,8152
46714,18552,8000
46607,18451,7847
46500,18350,7695
46393,18249,7546
46285,18149,7399
46178,18054,7250
46071,17964,7101
45963,17873,6955
45855,17779,6812
45750,17686,6671
45653,17597,6534
45560,17509,6400
45467,17419,6272
45379,17335,6148
45299,17261,6031
45223,17194,5920
45147,17129,5810
45072,17065,5696
44998,17003,5581
44926,16946,5473
44857,16889,5371
44792,16831,5269
44730,16771,5167
44670,16711,5067
44610,16653,4972
44552,16597,4879
44496,16542,4786
44441,16486,4697
44385,16432,4611
44328,16378,4523
44272,16324,4434
44218,16269,4347
44163,16215,4262
44106,16160,4178
44049,16104,4096
43993,16052,4017
43940,16006,3943
43886,15965,3870
43830,15921,3794
43773,15873,3717
43721,15822,3638
43672,15770,3556
43625,15717,3474
43578,15663,3397
43533,15611,3324
43489,15561,3251
43444,15517,3180
43400,15480,3113
43354,15444,3044
43306,15405,2973
43256,15364,2905
43202,15318,2836
43144,15271,2761
43086,15225,2682
43027,15179,2605
42971,15134,2529
42913,15084,2445
42850,15024,2354
42783,14960,2264
42714,14893,2175
42642,14822,2081
42570,14752,1981
42503,14686,1879
42436,14623,1778
42368,14560,1677
42301,14496,1580
42233,14427,1483
42165,14356,1380
42096,14286,1270
42025,14217,1152
41949,14149,1038
41873,14082,932
41799,14015,831
41726,13946,732
41653,13877,635
41584,13815,543
41527,13767,465
41495,13743,418
41499,13751,417
41551,13802,480
41657,13900,621
41824,14051,848
42059,14263,1170
42361,14538,1581
42723,14872,2077
43134,15253,2651
43587,15673,3288
44072,16125,3971
44571,16593,4680
45067,17057,5401
45552,17510,6123
46022,17950,6830
46473,18365,7506
46894,18747,8139
47278,19091,8719
47625,19401,9243
47933,19676,9714
48201,19911,10133
48427,20103,10496
48613,20258,10802
48760,20381,11050
48870,20474,11247
48948,20544,11399
49002,20597,11511
49034,20632,11584
49046,20646,11618
49041,20641,11619
49021,20619,11593
48984,20581,11543
48929,20528,11470
48864,20467,11382
48799,20404,11287
48732,20340,11187
48660,20272,11080
48588,20202,10972
48520,20135,10869
48452,20072,10770
48386,20008,10675
48320,19945,10585
48254,19883,10497
48187,19822,10408
48119,19762,10314
48048,19703,10215
47978,19643,10112
47904,19576,9999
47823,19499,9878
47736,19418,9751
47646,19337,9626
47557,19257,9502
47470,19178,9382
47390,19106,9267
47320,19041,9160
47256,18984,9065
47203,18936,8984
47164,18898,8916
47137,18871,8860
47120,18852,8822
47112,18845,8798
47111,18849,8787
47118,18862,8791
47133,18881,8810
47155,18903,8843
47181,18927,8879
47211,18955,8920
47247,18987,8970
47286,19020,9028
47323,19053,9083
47356,19085,9134
47386,19113,9178
47414,19135,9215
47438,19153,9244
47452,19168,9266
47457,19176,9278
47455,19176,9274
47443,19166,9252
47420,19142,9213
47386,19104,9163
47345,19058,9105
47301,19014,9038
47251,18968,8961
47194,18915,8876
47136,18857,8783
47075,18799,8682
47007,18737,8575
46930,18667,8465
46843,18590,8350
46752,18506,8223
46655,18414,8084
46549,18316,7938
46442,18218,7787
46336,18121,7632
46231,18023,7474
46131,17925,7320
46033,17829,7171
45935,17735,7027
45839,17646,6889
45748,17563,6757
45662,17483,6628
45577,17402,6499
45490,17319,6373
45404,17237,6253
45325,17162,6137
45251,17093,6024
45179,17028,5915
45108,16967,5811
45040,16910,5710
44975,16853,5608
44909,16793,5508
44843,16735,5414
44779,16681,5321
44714,16628,5229
44656,16578,5142
44607,16534,5064
44563,16494,4988
44517,16454,4910
44469,16412,4837
44424,16373,4771
44384,16338,4710
44346,16304,4652
44315,16272,4598
44289,16244,4545
44265,16217,4489
44238,16193,4433
44210,16167,4380
44183,16141,4332
44155,16114,4283
44123,16084,4229
44089,16054,4174
44057,16030,4121
44024,16009,4069
43990,15988,4018
43955,15966,3967
43923,15944,3917
43890,15918,3864
43851,15885,3807
43809,15850,3747
43768,15814,3684
43727,15777,3619
43683,15736,3554
43638,15693,3486
43593,15647,3417
43547,15600,3347
43497,15552,3279
43447,15505,3213
43394,15458,3144
43336,15407,3066
43273,15352,2983
43210,15294,2897
43146,15233,2806
43077,15166,2705
43004,15093,2601
42931,15021,2496
42858,14952,2392
42783,14886,2287
42712,14827,2184
42651,14776,2090
42598,14733,2008
42553,14695,1940
42520,14665,1892
42507,14650,1870
42523,14664,1883
42574,14714,1949
42666,14803,2081
42810,14939,2284
43015,15128,2561
43282,15369,2918
43608,15659,3360
43987,15994,3877
44407,16368,4456
44854,16771,5085
45315,17193,5749
45779,17623,6430
46240,18053,7113
46688,18471,7780
47114,18870,8423
47516,19247,9031
47886,19594,9596
48220,19906,10114
48515,20183,10577
48767,20424,10983
48978,20624,11326
49148,20781,11603
49279,20898,11817
49377,20982,11977
49440,21035,12084
49471,21061,12144
49479,21065,12169
49468,21051,12169
49439,21022,12142
49396,20979,12093
49347,20928,12028
49293,20876,11955
49234,20824,11873
49172,20769,11784
49110,20712,11692
49052,20658,11600
48994,20605,11508
48936,20553,11417
48881,20506,11331
48825,20462,11251
48763,20413,11169
48697,20358,11079
48629,20300,10985
48561,20241,10889
48492,20180,10787
48419,20113,10675
48341,20042,10554
48259,19964,10424
48173,19877,10284
48083,19786,10140
47997,19698,10002
47913,19615,9869
47833,19539,9748
47762,19477,9645
47700,19427,9561
47646,19386,9491
47607,19354,9438
47585,19336,9404
47580,19334,9389
47590,19346,9393
47609,19367,9413
47636,19393,9443
47671,19427,9481
47715,19467,9529
47762,19512,9584
47813,19563,9647
47864,19616,9710
47908,19662,9767
47941,19698,9816
47963,19724,9857
47978,19746,9887
47987,19762,9906
47990,19770,9914
47990,19767,9914
47987,19756,9904
47973,19734,9883
47947,19700,9850
47912,19659,9806
47872,19615,9749
47821,19564,9679
47757,19504,9600
47688,19440,9516
47619,19377,9424
47548,19311,9323
47472,19243,9212
47394,19173,9092
47312,19100,8963
47223,19021,8827
47126,18935,8687
47022,18846,8539
46913,18754,8385
46802,18657,8231
46694,18557,8080
46592,18458,7931
46495,18361,7781
46398,18267,7630
46302,18178,7478
46206,18092,7326
46109,18004,7176
46011,17913,7029
45917,17826,6889
45826,17743,6756
45736,17657,6621
45649,17570,6488
45566,17487,6366
45484,17410,6249
45401,17335,6133
45320,17264,6021
45244,17198,5917
45179,17139,5819
45121,17084,5725
45061,17027,5634
45002,16972,5546
44948,16920,5458
44894,16870,5370
44841,16823,5287
44790,16782,5210
44741,16741,5137
44690,16698,5064
44639,16652,4994
44591,16610,4926
44548,16570,4860
44507,16531,4794
44467,16491,4725
44430,16457,4654
44396,16429,4585
44361,16401,4520
44323,16371,4459
44287,16341,4405
44251,16315,4356
44212,16290,4309
44176,16268,4268
44145,16246,4229
44116,16219,4185
44080,16187,4134
44037,16152,4078
43991,16111,4017
43941,16063,3950
43887,16009,3882
43834,15956,3814
43782,15905,3743
43728,15856,3665
43670,15804,3581
43606,15750,3494
43538,15698,3405
43473,15648,3315
43411,15599,3226
43351,15548,3141
43293,15497,3055
43236,15448,2965
43177,15395,2873
43117,15338,2780
43058,15280,2690
43000,15223,2604
42946,15171,2529
42905,15129,2473
42884,15109,2439
42891,15117,2440
42936,15162,2498
43031,15250,2629
43178,15385,2834
43383,15571,3116
43648,15806,3478
43970,16090,3918
44344,16425,4429
44758,16802,4999
45198,17204,5616
45656,17625,6269
46121,18058,6944
46583,18492,7624
47037,18916,8301
47474,19323,8960
47884,19704,9582
48261,20054,10160
48606,20375,10694
48917,20665,11181
49186,20917,11612
49414,21130,11982
49606,21308,12290
49762,21453,12542
49882,21565,12740
49966,21641,12887
50016,21685,12987
50041,21705,13047
50045,21705,13070
50032,21690,13063
50004,21665,13034
49962,21631,12984
49911,21589,12918
49854,21538,12840
49799,21484,12758
49748,21433,12676
49698,21384,12591
49646,21333,12500
49593,21283,12410
49544,21237,12330
49495,21190,12257
49444,21142,12187
49390,21092,12118
49330,21041,12044
49261,20984,11960
49190,20923,11864
49118,20857,11761
49042,20784,11649
48957,20703,11523
48864,20617,11387
48767,20528,11244
48667,20436,11096
48564,20342,10945
48465,20250,10800
48377,20163,10667
48298,20082,10547
48230,20011,10442
48178,19956,10356
48143,19921,10295
48123,19903,10254
48113,19894,10227
48111,19892,10211
48116,19902,10210
48130,19923,10226
48153,19950,10257
48182,19980,10294
48215,20012,10335
48249,20045,10378
48280,20074,10422
48307,20099,10457
48329,20119,10484
48347,20134,10503
48359,20144,10515
48368,20149,10525
48373,20152,10527
48370,20151,10518
48359,20145,10499
48341,20131,10473
48314,20113,10442
48280,20089,10401
48236,20053,10344
48186,20006,10271
48131,19955,10190
48070,19898,10102
48000,19835,10003
47925,19767,9895
47844,19695,9780
47757,19619,9658
47666,19539,9535
47576,19457,9411
47485,19372,9282
47385,19282,9145
47277,19186,9004
47169,19089,8862
47066,18992,8721
46964,18895,8576
46860,18796,8428
46758,18699,8280
46663,18609,8134
46572,18524,7989
46483,18440,7844
46396,18358,7703
46311,18280,7569
46226,18204,7440
46143,18129,7318
46067,18061,7204
45995,17995,7096
45925,17929,6991
45856,17862,6894
45788,17799,6799
45720,17736,6701
45650,17673,6599
45580,17610,6497
45510,17550,6396
45443,17490,6297
45378,17430,6200
45313,17370,6103
45250,17313,6004
45190,17260,5907
45133,17210,5816
45081,17164,5734
45037,17123,5660
44995,17082,5586
44950,17041,5510
44902,17000,5437
44851,16960,5365
44799,16917,5293
44748,16871,5222
44699,16823,5152
44651,16776,5082
44605,16734,5013
44562,16699,4951
44521,16669,4894
44480,16637,4828
44438,16599,4755
44395,16557,4681
44352,16511,4610
44308,16462,4537
44263,16412,4462
44219,16366,4392
44177,16329,4328
44139,16302,4266
44102,16274,4204
44059,16240,4142
44013,16203,4079
43967,16166,4013
43919,16124,3942
43867,16077,3866
43811,16030,3787
43752,15983,3706
43691,15934,3627
43635,15886,3554
43586,15840,3483
43538,15796,3408
43488,15747,3330
43434,15693,3252
43377,15636,3171
43315,15577,3083
43249,15513,2990
43181,15451,2899
43114,15393,2810
43047,15337,2718
42985,15284,2630
42940,15245,2564
42924,15233,2537
42948,15258,2565
43018,15324,2661
43143,15442,2836
43333,15620,3096
43584,15853,3441
43893,16140,3872
44260,16482,4388
44678,16873,4977
45138,17302,5625
45628,17754,6319
46135,18216,7042
46642,18675,7775
47137,19126,8501
47615,19563,9211
48066,19979,9892
48485,20365,10532
48868,20720,11123
49216,21041,11662
49529,21330,12146
49803,21583,12574
50039,21799,12944
50240,21982,13262
50410,22134,13529
50544,22254,13744
50644,22344,13910
50714,22406,14031
50753,22445,14113
50766,22464,14159
50760,22464,14172
50740,22452,14159
50711,22429,14130
50674,22397,14088
50633,22359,14036
50594,22320,13982
50556,22283,13928
50519,22246,13871
50481,22211,13812
50443,22176,13752
50407,22144,13693
50370,22110,13636
50329,22072,13574
50285,22027,13506
50239,21977,13433
50188,21921,13355
50129,21856,13264
50062,21784,13160
49988,21705,13049
49905,21621,12933
49818,21535,12811
49732,21452,12682
49647,21373,12550
49561,21295,12415
49473,21217,12280
49391,21140,12148
49316,21068,12024
49248,21003,11909
49187,20947,11804
49137,20902,11717
49098,20869,11649
49071,20845,11601
49054,20833,11572
49049,20835,11559
49055,20850,11561
49069,20872,11576
49090,20895,11603
49117,20922,11640
49148,20951,11682
49182,20983,11728
49217,21016,11775
49251,21050,11821
49282,21083,11862
49306,21113,11893
49322,21136,11913
49328,21150,11923
49326,21153,11923
49313,21145,11910
49293,21127,11885
49269,21105,11850
49241,21074,11804
49210,21034,11747
49175,20989,11680
49135,20941,11600
49087,20885,11505
49027,20814,11397
48956,20732,11278
48877,20647,11155
48792,20561,11030
48708,20476,10905
48628,20394,10779
48549,20315,10655
48465,20236,10529
48378,20155,10401
48290,20073,10271
48199,19992,10139
48106,19910,10006
48011,19825,9867
47915,19737,9723
47818,19649,9577
47725,19565,9434
47635,19482,9299
47548,19400,9175
47465,19322,9055
47386,19247,8938
47310,19173,8820
47234,19100,8701
47158,19031,8582
47082,18964,8465
47005,18894,8356
46929,18827,8255
46857,18764,8156
46789,18702,8056
46725,18640,7960
46663,18581,7866
46602,18528,7773
46542,18478,7683
46486,18427,7596
46436,18379,7512
46393,18335,7430
46351,18290,7349
46310,18245,7274
46270,18207,7206
46235,18172,7138
46198,18136,7066
46160,18100,6992
46121,18062,6916
46081,18023,6838
46041,17981,6764
46000,17943,6697
45962,17913,6636
45926,17885,6578
45888,17855,6524
45849,17822,6474
45813,17791,6425
45775,17757,6371
45729,17718,6313
45681,17676,6253
45626,17630,6184
45566,17575,6105
45507,17517,6022
45448,17461,5940
45389,17407,5855
45332,17355,5772
45276,17303,5693
45219,17253,5613
45160,17204,5529
45104,17158,5447
45054,17116,5369
45007,17074,5291
44962,17028,5211
44913,16972,5127
44859,16913,5042
44801,16855,4954
44741,16799,4866
44680,16745,4779
44619,16690,4693
44558,16635,4604
44498,16579,4512
44435,16519,4414
44371,16458,4314
44312,16401,4214
44252,16345,4112
44187,16283,4006
44116,16216,3901
44042,16148,3799
43966,16077,3697
43887,16000,3593
43806,15920,3487
43730,15845,3381
43659,15778,3278
43595,15718,3183
43543,15669,3106
43510,15637,3054
43507,15631,3036
43537,15658,3067
43608,15730,3161
43731,15854,3329
43918,16033,3582
44172,16265,3926
44488,16551,4359
44859,16892,4877
45278,17281,5473
45737,17707,6137
46226,18158,6849
46733,18624,7587
47245,19092,8333
47750,19551,9073
48241,19996,9798
48708,20423,10497
49140,20824,11156
49532,21191,11769
49889,21525,12334
50212,21828,12849
50495,22095,13310
50738,22323,13709
50942,22510,14047
51110,22659,14323
51238,22771,14540
51331,22848,14702
51396,22898,14817
51436,22926,14891
51453,22932,14927
51450,22921,14932
51430,22900,14915
51397,22872,14879
51351,22839,14827
51297,22803,14765
51240,22764,14698
51184,22720,14627
51127,22669,14548
51067,22610,14462
51002,22545,14372
50935,22476,14279
50867,22408,14183
50806,22348,14093
50752,22294,14011
50696,22242,13929
50633,22182,13840
50563,22112,13743
50489,22041,13640
50409,21969,13530
50323,21893,13408
50231,21812,13275
50137,21726,13133
50037,21637,12984
49933,21543,12829
49826,21449,12674
49724,21360,12529
49631,21276,12397
49546,21199,12275
49468,21130,12163
49396,21072,12064
49335,21024,11978
49289,20985,11911
49260,20956,11864
49243,20937,11835
49235,20928,11814
49236,20930,11802
49247,20939,11803
49261,20950,11816
49274,20961,11836
49291,20974,11863
49315,20989,11892
49337,21000,11915
49355,21006,11933
49370,21010,11946
49381,21011,11949
49381,21007,11940
49373,20998,11924
49359,20984,11904
49339,20965,11878
49309,20938,11840
49267,20901,11788
49218,20858,11724
49168,20814,11652
49112,20765,11569
49049,20706,11475
48978,20640,11370
48897,20564,11254
48804,20480,11126
48702,20390,10989
48595,20299,10848
48489,20206,10706
48381,20103,10558
48271,19994,10403
48159,19885,10243
48045,19776,10082
47933,19668,9920
47824,19562,9761
47719,19458,9604
47614,19358,9449
47504,19259,9295
47391,19159,9141
47277,19054,8988
47167,18951,8834
47063,18854,8684
46964,18762,8539
46870,18675,8401
46777,18590,8268
46683,18507,8139
46590,18429,8012
46501,18354,7885
46419,18283,7759
46343,18213,7637
46269,18146,7525
46201,18081,7419
46135,18018,7312
46067,17957,7205
46002,17896,7106
45944,17838,7011
45886,17781,6913
45828,17721,6812
45770,17662,6713
45715,17606,6619
45660,17549,6526
45603,17492,6435
45547,17437,6346
45494,17386,6261
45442,17338,6182
45390,17288,6105
45340,17237,6033
45290,17186,5964
45240,17137,5895
45191,17090,5829
45148,17050,5768
45107,17016,5706
45064,16983,5637
45018,16949,5567
44976,16917,5501
44938,16885,5434
44897,16849,5363
44853,16809,5290
44807,16768,5215
44759,16724,5133
44707,16673,5048
44653,16617,4961
44596,16556,4874
44534,16489,4784
44467,16419,4692
44399,16351,4599
44329,16288,4505
44261,16229,4410
44194,16172,4317
44127,16120,4229
44066,16071,4143
44008,16016,4053
43948,15956,3959
43888,15894,3865
43828,15832,3772
43766,15772,3681
43700,15714,3591
43630,15655,3505
43561,15594,3421
43491,15528,3330
43418,15461,3232
43346,15395,3127
43275,15331,3018
43203,15265,2906
43126,15195,2795
43044,15122,2683
42962,15047,2565
42880,14971,2441
42797,14891,2319
42712,14812,2201
42629,14734,2083
42551,14658,1967
42477,14589,1858
42410,14530,1766
42357,14486,1696
42327,14463,1655
42330,14467,1660
42376,14513,1729
42477,14608,1870
42640,14757,2089
42867,14962,2397
43159,15227,2793
43512,15549,3272
43918,15915,3824
44364,16316,4440
44841,16746,5110
45340,17199,5817
45847,17661,6541
46345,18118,7267
46825,18560,7982
47282,18983,8672
47710,19383,9327
48106,19750,9943
48467,20083,10511
48793,20383,11026
49081,20646,11482
49328,20871,11879
49536,21058,12215
49709,21209,12488
49845,21327,12698
49940,21411,12846
49998,21466,12944
50026,21494,13002
50026,21496,13025
50000,21476,13018
49959,21443,12988
49909,21399,12935
49852,21345,12862
49792,21285,12774
49729,21222,12678
49661,21156,12577
49587,21087,12472
49511,21019,12367
49438,20958,12269
49375,20907,12182
49322,20861,12101
49275,20817,12024
49233,20775,11950
49191,20732,11874
49143,20683,11789
49089,20628,11696
49030,20568,11595
48959,20498,11481
48874,20415,11354
48779,20321,11217
48677,20225,11077
48573,20131,10935
48468,20036,10792
48369,19947,10656
48280,19869,10532
48203,19801,10422
48136,19737,10323
48080,19682,10236
48037,19642,10164
48006,19616,10110
47989,19602,10074
47985,19602,10054
47995,19615,10054
48019,19642,10074
48052,19678,10115
48093,19719,10170
48139,19764,10232
48184,19807,10294
48227,19845,10353
48268,19878,10412
48304,19907,10469
48333,19934,10519
48355,19955,10558
48372,19971,10586
48382,19982,10604
48380,19983,10606
48368,19974,10593
48349,19958,10570
48325,19936,10537
48295,19906,10490
48252,19868,10429
48200,19824,10356
48145,19777,10275
48089,19724,10184
48026,19664,10085
47957,19600,9981
47882,19530,9877
47801,19453,9766
47718,19370,9647
47633,19285,9521
47545,19197,9386
47451,19106,9246
47353,19014,9105
47251,18923,8962
47148,18831,8817
47048,18740,8674
46958,18654,8532
46875,18572,8390
46794,18489,8248
46710,18403,8106
46623,18316,7966
46535,18232,7831
46445,18145,7695
46354,18058,7558
46266,17977,7424
46178,17901,7298
46090,17824,7178
46001,17747,7063
45917,17674,6952
45837,17606,6845
45765,17545,6743
45701,17488,6647
45641,17434,6555
45581,17382,6463
45521,17329,6367
45462,17272,6274
45408,17219,6188
45360,17174,6109
45316,17135,6034
45273,17100,5963
45228,17066,5897
45184,17034,5831
45145,17000,5768
45112,16967,5707
45080,16933,5643
45049,16898,5576
45018,16864,5513
44989,16834,5458
44961,16807,5403
44930,16780,5345
44896,16746,5290
44857,16709,5237
44817,16670,5181
44774,16628,5120
44728,16581,5059
44682,16536,5000
44640,16497,4939
44598,16462,4875
44557,16428,4814
44517,16393,4753
44475,16359,4685
44433,16326,4616
44388,16291,4551
44343,16255,4487
44298,16215,4418
44250,16167,4343
44199,16116,4264
44150,16067,4187
44104,16023,4111
44058,15979,4032
44006,15930,3953
43943,15873,3869
43872,15809,3776
43799,15740,3678
43724,15667,3578
43651,15594,3479
43580,15524,3379
43508,15455,3279
43436,15387,3179
43365,15322,3077
43294,15259,2971
43224,15195,2866
43157,15135,2768
43102,15092,2691
43070,15078,2650
43076,15101,2661
43135,15166,2738
43255,15282,2891
43441,15452,3128
43689,15677,3451
43996,15953,3859
44357,16276,4343
44759,16634,4889
45191,17018,5483
45641,17425,6118
46103,17851,6786
46568,18284,7467
47027,18710,8147
47473,19121,8815
47903,19511,9461
48308,19873,10071
48678,20203,10636
49010,20499,11148
49305,20760,11606
49561,20991,12009
49780,21191,12352
49958,21358,12636
50096,21490,12864
50193,21585,13038
50254,21650,13161
50283,21687,13235
50290,21700,13266
50277,21692,13263
50245,21665,13234
50199,21625,13182
50145,21573,13110
50083,21513,13023
50015,21450,12929
49943,21386,12831
49867,21319,12727
49787,21248,12618
49706,21176,12509
49630,21109,12408
49560,21046,12310
49493,20986,12211
49427,20926,12113
49363,20868,12016
49299,20811,11918
49232,20755,11816
49165,20697,11708
49093,20633,11593
49013,20559,11468
48924,20477,11336
48831,20389,11201
48735,20300,11063
48642,20211,10926
48552,20125,10792
48468,20044,10664
48394,19972,10542
48330,19912,10432
48274,19862,10336
48230,19822,10258
48202,19791,10198
48189,19773,10157
48188,19769,10136
48198,19777,10133
48220,19800,10148
48246,19832,10177
48276,19869,10218
48309,19906,10268
48342,19939,10318
48373,19969,10365
48404,19993,10411
48434,20016,10456
48458,20039,10500
48477,20055,10533
48496,20064,10557
48513,20070,10577
48524,20072,10588
48527,20070,10588
48522,20065,10579
48509,20054,10558
48486,20032,10522
48450,19996,10468
48404,19950,10396
48350,19897,10311
48285,19838,10216
48209,19774,10111
48127,19705,9997
48043,19635,9876
47955,19563,9748
47862,19484,9615
47764,19396,9476
47667,19305,9335
47572,19215,9196
47478,19124,9058
47382,19030,8918
47286,18934,8777
47189,18841,8633
47089,18747,8486
46987,18653,8336
46884,18556,8182
46781,18460,8029
46682,18369,7882
46592,18287,7744
46508,18209,7610
46425,18132,7478
46344,18056,7350
46265,17980,7226
46187,17908,7108
46111,17843,6999
46040,17782,6899
45974,17725,6805
45911,17669,6711
45847,17613,6613
45786,17561,6518
45726,17510,6428
45665,17457,6339
45603,17401,6250
45540,17342,6163
45477,17281,6075
45417,17223,5983
45359,17168,5889
45303,17114,5797
45253,17060,5713
45209,17011,5634
45164,16962,5554
45115,16912,5475
45066,16866,5400
45018,16821,5329
44968,16776,5260
44919,16733,5192
44873,16696,5122
44830,16665,5051
44789,16634,4983
44750,16604,4921
44712,16576,4865
44671,16548,4807
44625,16517,4749
44580,16481,4692
44536,16443,4633
44494,16403,4570
44449,16361,4510
44403,16321,4450
44355,16283,4386
44307,16245,4318
44261,16204,4253
44217,16165,4190
44171,16125,4124
44123,16085,4054
44072,16045,3984
44016,16000,3912
43958,15949,3834
43899,15893,3749
43837,15835,3660
43773,15776,3567
43708,15716,3470
43642,15654,3370
43575,15590,3270
43503,15523,3167
43425,15454,3056
43347,15384,2943
43276,15316,2834
43210,15253,2738
43153,15201,2656
43114,15166,2600
43100,15157,2580
43128,15185,2613
43203,15255,2711
43330,15374,2887
43516,15547,3146
43761,15775,3489
44060,16056,3912
44411,16388,4415
44807,16762,4987
45238,17167,5607
45694,17592,6259
46160,18023,6933
46626,18451,7618
47085,18872,8300
47532,19282,8962
47953,19670,9591
48339,20028,10176
48691,20354,10709
49013,20648,11192
49301,20911,11627
49550,21140,12009
49760,21336,12334
49932,21496,12607
50071,21625,12833
50181,21728,13017
50262,21806,13159
50313,21862,13258
50338,21898,13314
50346,21913,13337
50340,21905,13332
50319,21877,13301
50288,21834,13249
50249,21785,13187
50205,21732,13120
50156,21679,13046
50107,21631,12974
50069,21593,12908
50044,21562,12848
50025,21536,12792
50004,21509,12737
49980,21481,12683
49953,21455,12634
49923,21428,12586
49889,21402,12535
49853,21378,12477
49813,21348,12411
49765,21309,12335
49708,21258,12249
49642,21199,12151
49569,21134,12041
49495,21063,11921
49423,20991,11796
49357,20922,11676
49298,20860,11564
49239,20803,11459
49183,20747,11362
49132,20694,11277
49085,20646,11202
49045,20607,11138
49017,20579,11091
49000,20564,11061
48994,20561,11044
48998,20570,11045
49015,20591,11064
49047,20622,11099
49089,20658,11143
49136,20696,11195
49186,20737,11252
49233,20776,11310
49279,20812,11363
49322,20845,11412
49362,20876,11455
49394,20903,11493
49418,20921,11520
49436,20931,11535
49453,20939,11544
49465,20941,11545
49466,20934,11535
49457,20920,11515
49439,20899,11484
49411,20871,11443
49376,20838,11392
49334,20794,11329
49287,20744,11257
49239,20692,11178
49186,20639,11088
49126,20581,10988
49059,20519,10883
48988,20455,10775
48914,20388,10663
48845,20320,10551
48779,20252,10437
48710,20183,10317
48637,20111,10194
48561,20037,10068
48484,19964,9942
48407,19892,9813
48328,19817,9684
48250,19743,9561
48173,19669,9444
48095,19590,9325
48017,19510,9208
47939,19434,9094
47863,19362,8982
47791,19294,8873
47721,19228,8770
47653,19167,8674
47587,19112,8583
47521,19057,8493
47456,19002,8399
47394,18946,8301
47334,18886,8199
47272,18825,8097
47209,18764,8001
47148,18705,7911
47090,18649,7822
47036,18597,7732
46985,18549,7644
46936,18504,7564
46886,18464,7490
46840,18426,7423
46805,18391,7364
46776,18361,7309
46747,18333,7252
46713,18306,7189
46677,18275,7124
46642,18242,7059
46606,18205,6994
46567,18163,6929
46527,18119,6866
46490,18081,6807
46455,18047,6749
46417,18013,6691
46378,17980,6635
46342,17947,6580
46306,17913,6522
46268,17875,6459
46227,17836,6394
46183,17796,6327
46141,17755,6261
46101,17714,6197
46060,17672,6132
46020,17631,6065
45980,17591,5998
45936,17548,5932
45891,17507,5865
45848,17466,5794
45805,17424,5718
45760,17379,5640
45713,17334,5561
45663,17288,5476
45607,17240,5387
45551,17190,5301
45498,17141,5217
45445,17090,5131
45392,17038,5043
45338,16984,4955
45283,16929,4864
45227,16875,4772
45164,16817,4678
45095,16757,4586
45022,16695,4494
44946,16628,4394
44867,16557,4292
44791,16487,4191
44719,16419,4092
44660,16356,4000
44619,16306,3928
44605,16280,3891
44623,16288,3898
44678,16337,3961
44779,16434,4095
44937,16584,4311
45160,16796,4619
45447,17066,5016
45796,17391,5500
46203,17768,6072
46654,18190,6715
47136,18642,7409
47635,19111,8138
48145,19587,8887
48655,20060,9639
49157,20520,10380
49642,20963,11101
50105,21384,11789
50533,21780,12433
50922,22142,13031
51273,22471,13579
51587,22764,14071
51861,23019,14507
52093,23235,14881
52284,23415,15196
52441,23561,15456
52568,23673,15662
52660,23751,15815
52721,23803,15924
52762,23838,15997
52784,23856,16038
52784,23857,16050
52767,23845,16040
52742,23823,16015
52707,23791,15975
52665,23751,15925
52624,23705,15868
52586,23660,15809
52549,23616,15750
52507,23571,15686
52460,23525,15623
52417,23486,15567
52377,23451,15511
52335,23414,15450
52288,23371,15383
52234,23320,15308
52175,23265,15225
52111,23205,15133
52041,23140,15028
51965,23068,14911
51884,22990,14785
51799,22907,14651
51712,22821,14510
51622,22735,14370
51530,22650,14230
51441,22568,14092
51360,22494,13964
51289,22429,13851
51226,22374,13751
51170,22325,13664
51125,22285,13593
51095,22258,13542
51075,22238,13507
51062,22223,13487
51058,22221,13481
51066,22232,13486
51082,22248,13504
51104,22271,13533
51131,22300,13572
51157,22330,13613
51178,22358,13654
51203,22385,13696
51233,22410,13736
51264,22433,13772
51291,22451,13798
51312,22464,13814
51326,22474,13821
51327,22476,13817
51315,22467,13797
51297,22450,13768
51272,22424,13728
51238,22388,13673
51193,22342,13600
51138,22289,13513
51077,22231,13417
51012,22170,13315
50943,22103,13206
50870,22034,13093
50792,21957,12973
50705,21870,12845
50608,21776,12711
50504,21681,12574
50397,21586,12437
50292,21493,12300
50191,21398,12158
50093,21306,12013
50000,21214,11868
49908,21122,11720
49815,21031,11571
49725,20946,11425
49635,20866,11284
49546,20789,11149
49457,20711,11013
49368,20631,10877
49278,20550,10744
49188,20467,10613
49098,20382,10488
49013,20299,10368
48931,20217,10249
48847,20134,10128
48761,20049,10006
48677,19967,9888
48595,19887,9771
48515,19810,9652
48440,19740,9541
48369,19675,9438
48300,19609,9339
48236,19546,9242
48175,19487,9152
48114,19429,9067
48051,19372,8981
47989,19317,8894
47926,19264,8810
47868,19215,8729
47814,19166,8647
47765,19117,8563
47719,19071,8480
47673,19029,8399
47623,18989,8318
47565,18944,8233
47500,18890,8147
47433,18830,8060
47367,18766,7970
47302,18700,7877
47237,18637,7782
47176,18579,7691
47118,18527,7603
47064,18478,7520
47011,18432,7438
46957,18388,7356
46900,18342,7272
46841,18293,7186
46780,18238,7098
46718,18176,7007
46652,18112,6913
46584,18045,6817
46517,17979,6722
46453,17914,6630
46387,17849,6536
46316,17781,6438
46243,17714,6339
46169,17648,6239
46091,17584,6136
46011,17519,6029
45936,17454,5919
45868,17390,5808
45805,17328,5700
45742,17265,5593
45679,17202,5491
45615,17142,5391
45548,17080,5291
45474,17014,5191
45398,16946,5091
45324,16879,4990
45251,16813,4885
45179,16743,4777
45101,16668,4667
45016,16590,4553
44927,16509,4432
44835,16426,4308
44743,16343,4184
44651,16262,4059
44558,16178,3929
44463,16091,3802
44371,16007,3680
44285,15928,3563
44204,15856,3450
44131,15790,3348
44075,15741,3267
44045,15715,3214
44053,15720,3206
44109,15766,3268
44222,15861,3412
44398,16017,3643
44638,16233,3966
44937,16508,4382
45293,16839,4887
45703,17220,5468
46159,17640,6111
46645,18085,6804
47149,18547,7531
47661,19019,8277
48174,19493,9027
48676,19955,9765
49155,20394,10474
49605,20803,11142
50016,21179,11763
50386,21522,12335
50718,21831,12859
51007,22102,13328
51256,22335,13743
51469,22536,14104
51643,22703,14408
51779,22837,14651
51879,22935,14833
51947,22996,14959
51988,23026,15037
52004,23030,15075
51995,23013,15080
51968,22979,15057
51927,22934,15011
51877,22886,14946
51823,22838,14871
51763,22792,14790
51699,22744,14705
51636,22695,14620
51575,22643,14537
51519,22593,14458
51467,22548,14385
51415,22505,14315
51360,22459,14244
51302,22409,14172
51242,22355,14098
51182,22296,14015
51122,22231,13919
51057,22162,13813
50986,22090,13700
50907,22012,13580
50820,21932,13457
50730,21851,13332
50635,21766,13204
50536,21679,13076
50440,21592,12950
50351,21510,12828
50269,21434,12711
50195,21364,12605
50132,21306,12513
50083,21259,12432
50044,21220,12362
50016,21192,12309
49998,21176,12278
49991,21173,12269
49997,21181,12277
50015,21200,12298
50044,21229,12333
50079,21265,12377
50118,21299,12419
50159,21330,12458
50202,21361,12501
50240,21394,12545
50271,21424,12587
50289,21448,12622
50298,21466,12650
50300,21479,12670
50298,21485,12678
50293,21484,12673
50286,21475,12657
50272,21457,12629
50244,21428,12583
50204,21387,12522
50156,21341,12452
50103,21291,12374
50041,21233,12284
49969,21167,12181
49891,21094,12068
49808,21016,11948
49720,20932,11819
49628,20845,11684
49536,20758,11548
49445,20670,11408
49348,20574,11258
49247,20473,11107
49148,20372,10959
49052,20274,10814
48952,20176,10670
48850,20081,10527
48748,19989,10383
48641,19891,10233
48530,19787,10077
48421,19683,9922
48315,19586,9770
48211,19497,9621
48109,19409,9478
48012,19322,9343
47920,19240,9216
47835,19163,9095
47753,19087,8978
47675,19014,8865
47598,18943,8756
47523,18875,8648
47450,18809,8544
47384,18747,8444
47320,18684,8343
47256,18620,8241
47194,18559,8143
47135,18501,8052
47076,18449,7965
47016,18396,7877
46956,18342,7790
46901,18289,7707
46852,18241,7629
46807,18197,7557
46763,18155,7495
46723,18117,7436
46686,18085,7375
46651,18055,7309
46612,18025,7241
46569,17988,7171
46522,17945,7095
46473,17897,7014
46425,17850,6935
46378,17806,6863
46335,17767,6799
46295,17728,6743
46257,17687,6691
46221,17647,6639
46184,17607,6583
46147,17569,6528
46109,17536,6473
46070,17506,6411
46030,17477,6344
45992,17445,6274
45955,17410,6203
45917,17371,6131
45876,17331,6060
45830,17291,5992
45782,17248,5928
45734,17203,5860
45681,17155,5783
45621,17101,5699
45554,17044,5610
45489,16986,5517
45425,16930,5424
45357,16873,5329
45289,16814,5235
45222,16756,5140
45152,16696,5041
45078,16629,4939
45003,16558,4835
44927,16489,4730
44850,16418,4625
44770,16346,4520
44692,16279,4415
44615,16216,4308
44540,16154,4202
44470,16096,4106
44415,16048,4027
44378,16014,3974
44368,16003,3959
44397,16027,3997
44475,16095,4095
44605,16212,4262
44797,16385,4514
45055,16618,4857
45372,16906,5285
45735,17238,5786
46141,17609,6353
46586,18016,6978
47058,18446,7643
47542,18886,8332
48024,19323,9032
48496,19754,9730
48951,20175,10410
49379,20578,11057
49777,20953,11661
50140,21294,12219
50463,21596,12723
50746,21862,13169
50987,22091,13560
51186,22282,13895
51347,22438,14173
51471,22557,14395
51558,22641,14563
51613,22696,14679
51639,22726,14748
51639,22728,14773
51614,22705,14755
51573,22665,14706
51523,22615,14639
51463,22558,14557
51397,22496,14464
51333,22434,14363
51270,22371,14258
51206,22306,14150
51134,22242,14042
51058,22180,13937
50981,22120,13833
50901,22056,13726
50819,21990,13617
50739,21925,13509
50665,21860,13403
50594,21798,13297
50524,21734,13188
50450,21665,13071
50369,21587,12946
50282,21500,12815
50192,21409,12680
50102,21314,12539
50011,21216,12396
49921,21120,12257
49841,21032,12129
49771,20955,12016
49707,20888,11915
49649,20830,11824
49603,20784,11745
49569,20750,11684
49548,20725,11645
49538,20712,11629
49535,20714,11631
49541,20728,11647
49554,20750,11673
49573,20776,11711
49603,20813,11763
49645,20862,11826
49694,20915,11896
49746,20967,11965
49795,21014,12030
49836,21055,12086
49870,21093,12135
49899,21128,12179
49919,21154,12215
49928,21172,12238
49925,21179,12247
49915,21178,12246
49900,21172,12235
49878,21157,12209
49844,21126,12167
49798,21083,12108
49747,21031,12040
49692,20972,11963
49628,20903,11874
49557,20827,11772
49480,20749,11657
49394,20664,11526
49299,20571,11384
49196,20472,11236
49089,20370,11081
48981,20266,10920
48872,20160,10757
48765,20059,10597
48663,19963,10444
48562,19866,10295
48458,19772,10146
48358,19683,10000
48267,19603,9860
48179,19530,9727
48088,19453,9595
47995,19369,9463
47904,19283,9332
47813,19199,9204
47721,19117,9078
47632,19036,8954
47548,18960,8834
47469,18889,8716
47390,18818,8599
47311,18746,8488
47234,18677,8380
47160,18612,8274
47089,18550,8173
47021,18497,8079
46960,18447,7986
46902,18398,7892
46845,18350,7803
46789,18304,7717
46732,18259,7634
46677,18212,7554
46627,18163,7478
46581,18114,7403
46537,18065,7330
46497,18019,7263
46464,17980,7203
46433,17946,7145
46399,17912,7083
46360,17879,7018
46323,17848,6955
46291,17820,6900
46262,17794,6852
46234,17771,6810
46208,17749,6772
46182,17728,6736
46153,17704,6697
46119,17675,6652
46080,17643,6603
46044,17610,6551
46009,17577,6493
45968,17541,6426
45922,17501,6356
45873,17460,6286
45820,17416,6212
45766,17370,6136
45712,17323,6059
45658,17276,5981
45602,17225,5897
45540,17168,5805
45475,17108,5711
45408,17048,5616
45343,16987,5521
45281,16925,5427
45221,16868,5337
45162,16815,5249
45103,16765,5161
45051,16719,5084
45016,16686,5030
45005,16674,5004
45022,16691,5021
45076,16741,5092
45177,16835,5229
45333,16982,5439
45544,17182,5728
45809,17434,6100
46129,17734,6551
46501,18077,7074
46915,18458,7656
47358,18866,8283
47818,19291,8944
48284,19722,9622
48742,20145,10299
49187,20556,10963
49616,20953,11609
50021,21329,12227
50394,21677,12798
50730,21992,13315
51027,22274,13781
51279,22516,14188
51485,22714,14527
51653,22872,14805
51789,22999,15029
51891,23095,15199
51957,23158,15317
51993,23193,15391
52006,23203,15427
51996,23188,15431
51966,23150,15401
51918,23096,15340
51857,23032,15257
51786,22957,15159
51707,22875,15051
51628,22793,14941
51551,22720,14837
51473,22657,14739
51398,22598,14640
51326,22541,14540
51256,22486,14444
51187,22431,14349
51124,22375,14255
51069,22320,14157
51014,22265,14055
50954,22203,13950
50883,22134,13840
50799,22058,13722
50704,21974,13593
50603,21883,13455
50502,21788,13308
50406,21693,13160
50316,21604,13020
50229,21523,12882
50144,21449,12747
50065,21383,12626
49994,21324,12521
49932,21272,12431
49883,21231,12363
49849,21204,12318
49830,21188,12295
49822,21182,12286
49824,21186,12292
49835,21201,12312
49853,21223,12344
49878,21252,12386
49909,21286,12430
49942,21324,12474
49977,21358,12520
50012,21388,12568
50044,21417,12616
50073,21446,12661
50097,21474,12701
50114,21497,12730
50126,21510,12747
50131,21514,12753
50131,21507,12748
50122,21490,12730
50103,21467,12700
50076,21439,12663
50041,21406,12614
49995,21363,12549
49937,21309,12466
49866,21243,12365
49783,21165,12246
49692,21082,12117
49599,20999,11989
49504,20916,11860
49407,20831,11724
49309,20743,11581
49213,20652,11436
49116,20559,11293
49017,20466,11148
48913,20369,10998
48808,20271,10846
48706,20174,10697
48607,20077,10548
48504,19978,10395
48400,19879,10246
48299,19784,10102
48200,19698,9962
48099,19616,9825
47999,19538,9692
47905,19462,9561
47818,19387,9432
47731,19310,9303
47647,19235,9177
47567,19164,9056
47490,19094,8939
47417,19026,8828
47347,18961,8722
47278,18897,8620
47213,18835,8524
47153,18776,8434
47097,18722,8348
47044,18670,8264
46992,18615,8179
46937,18557,8094
46879,18499,8007
46821,18442,7919
46763,18389,7837
46707,18342,7759
46656,18301,7683
46610,18261,7608
46566,18222,7535
46523,18184,7465
46485,18150,7398
46447,18116,7335
46406,18079,7279
46362,18039,7228
46318,18000,7178
46275,17964,7125
46233,17930,7068
46195,17901,7012
46161,17874,6956
46126,17844,6897
46091,17810,6833
46055,17772,6766
46014,17731,6694
45965,17684,6617
45907,17634,6541
45849,17586,6465
45793,17536,6384
45734,17480,6295
45675,17421,6203
45617,17364,6109
45555,17304,6014
45488,17240,5917
45419,17177,5820
45345,17113,5723
45267,17045,5624
45184,16974,5523
45102,16906,5428
45033,16851,5344
44988,16818,5281
44975,16810,5253
45000,16834,5272
45067,16894,5348
45181,16999,5493
45348,17157,5719
45577,17372,6030
45870,17645,6426
46220,17970,6905
46616,18336,7459
47048,18738,8075
47510,19171,8739
47993,19624,9435
48484,20081,10149
48971,20530,10866
49444,20966,11569
49896,21382,12243
50318,21773,12877
50703,22133,13467
51053,22455,14007
51364,22738,14493
51632,22985,14921
51858,23198,15294
52046,23376,15613
52197,23514,15873
52310,23614,16073
52386,23684,16215
52431,23728,16308
52451,23751,16358
52453,23758,16372
52438,23750,16358
52407,23725,16322
52362,23683,16265
52308,23631,16198
52250,23577,16127
52190,23524,16048
52129,23472,15962
52067,23418,15877
52006,23367,15798
51951,23320,15724
51900,23276,15653
51855,23234,15582
51813,23191,15513
51766,23145,15442
51715,23096,15363
51656,23041,15274
51589,22981,15176
51513,22914,15068
51429,22841,14948
51339,22762,14817
51243,22677,14677
51140,22581,14528
51034,22479,14371
50930,22379,14214
50832,22285,14066
50741,22199,13931
50660,22123,13808
50588,22056,13696
50522,21996,13594
50462,21946,13503
50418,21909,13431
50394,21885,13381
50387,21873,13354
50387,21869,13345
50392,21876,13356
50403,21892,13381
50417,21913,13414
50433,21936,13449
50452,21959,13483
50476,21986,13520
50498,22010,13558
50515,22032,13593
50530,22053,13622
50545,22070,13643
50554,22078,13651
50553,22076,13644
50544,22070,13627
50527,22059,13603
50499,22042,13569
50465,22016,13524
50428,21983,13473
50386,21942,13418
50336,21893,13349
50275,21834,13261
50206,21771,13158
50132,21703,13045
50052,21628,12923
49960,21540,12788
49861,21442,12645
49761,21344,12501
49658,21246,12357
49554,21147,12212
49452,21048,12066
49356,20953,11919
49257,20861,11771
49154,20765,11619
49050,20666,11466
48950,20568,11315
48851,20475,11168
48751,20386,11022
48653,20299,10873
48557,20210,10722
48464,20118,10573
48371,20025,10430
48279,19936,10297
48190,19854,10174
48106,19777,10055
48024,19702,9935
47940,19633,9816
47855,19568,9705
47768,19502,9596
47684,19431,9487
47607,19360,9376
47538,19292,9268
47470,19226,9163
47403,19159,9063
47338,19096,8967
47275,19038,8873
47215,18981,8780
47157,18927,8693
47106,18879,8612
47058,18837,8533
47010,18795,8455
46962,18753,8378
46913,18709,8301
46861,18659,8223
46807,18603,8145
46754,18549,8070
46706,18501,7998
46659,18456,7930
46611,18412,7865
46569,18377,7802
46533,18348,7739
46498,18320,7673
46461,18288,7607
46422,18252,7540
46382,18210,7467
46337,18163,7390
46284,18112,7309
46230,18063,7230
46175,18014,7152
46120,17965,7077
46067,17919,7007
46015,17878,6944
45962,17837,6876
45911,17792,6801
45859,17745,6721
45809,17698,6637
45754,17650,6550
45695,17596,6460
45633,17534,6367
45572,17470,6268
45514,17408,6165
45451,17343,6064
45381,17274,5965
45311,17207,5867
45239,17141,5768
45167,17076,5668
45095,17015,5571
45033,16961,5487
44986,16919,5420
44958,16895,5376
44961,16902,5373
45008,16950,5424
45106,17039,5541
45258,17177,5738
45470,17373,6029
45742,17629,6410
46072,17937,6875
46458,18293,7420
46892,18694,8037
47363,19134,8712
47861,19603,9431
48375,20086,10181
48894,20572,10949
49408,21049,11712
49899,21504,12448
50357,21927,13146
50785,22321,13804
51177,22681,14413
51526,23003,14963
51830,23283,15447
52093,23526,15865
52313,23730,16219
52487,23897,16511
52621,24031,16742
52718,24131,16917
52782,24197,17037
52816,24233,17108
52827,24243,17142
52822,24238,17147
52802,24219,17126
52767,24188,17086
52719,24148,17034
52662,24100,16972
52597,24046,16900
52529,23987,16820
52464,23925,16736
52406,23867,16655
52358,23813,16582
52318,23767,16517
52282,23727,16458
52249,23690,16402
52211,23653,16346
52167,23612,16284
52119,23565,16216
52067,23513,16140
52006,23454,16055
51934,23382,15955
51852,23301,15840
51768,23219,15716
51684,23135,15582
51594,23043,15434
51496,22944,15275
51395,22852,15119
51297,22769,14969
51200,22690,14823
51110,22615,14686
51036,22551,14569
50975,22496,14472
50921,22448,14390
50875,22406,14320
50838,22371,14266
50809,22343,14224
50789,22323,14196
50777,22314,14184
50771,22312,14188
50772,22317,14202
50782,22330,14223
50800,22350,14252
50823,22375,14287
50849,22402,14324
50873,22425,14356
50893,22441,14381
50910,22451,14396
50921,22453,14397
50925,22447,14387
50920,22434,14370
50908,22415,14343
50885,22385,14302
50851,22346,14245
50808,22301,14177
50753,22252,14097
50687,22196,14003
50611,22133,13899
50531,22068,13787
50448,21999,13667
50360,21920,13535
50268,21830,13395
50175,21736,13256
50083,21642,13121
49986,21548,12988
49887,21453,12854
49789,21361,12721
49693,21271,12585
49593,21176,12442
49488,21076,12292
49382,20977,12139
49275,20879,11986
49167,20780,11831
49062,20683,11679
48964,20590,11531
48870,20499,11384
48778,20408,11237
48685,20320,11092
48594,20237,10952
48506,20160,10817
48420,20082,10686
48339,20005,10561
48260,19930,10439
48180,19855,10317
48096,19776,10195
48013,19698,10078
47933,19624,9967
47855,19554,9863
47775,19485,9765
47695,19418,9669
47623,19356,9573
47562,19298,9478
47510,19243,9383
47462,19192,9291
47414,19143,9200
47364,19093,9113
47310,19042,9029
47250,18993,8949
47187,18942,8865
47125,18886,8778
47066,18828,8693
47011,18769,8610
46960,18714,8529
46912,18663,8449
46868,18615,8371
46826,18570,8293
46782,18524,8212
46736,18474,8129
46691,18427,8053
46648,18384,7982
46605,18341,7909
46560,18296,7836
46512,18248,7763
46464,18196,7687
46416,18143,7610
46366,18091,7539
46315,18043,7473
46264,17999,7406
46209,17955,7331
46149,17908,7250
46090,17860,7165
46032,17811,7077
45975,17759,6985
45914,17703,6890
45844,17643,6795
45768,17579,6697
45693,17510,6595
45618,17438,6493
45542,17365,6391
45466,17293,6285
45389,17220,6170
45310,17143,6054
45230,17066,5938
45148,16987,5814
45065,16907,5689
44986,16829,5576
44912,16754,5474
44850,16688,5383
44806,16641,5312
44790,16622,5275
44807,16636,5284
44863,16691,5355
44971,16799,5506
45142,16966,5749
45377,17196,6082
45675,17483,6501
46032,17819,7002
46441,18196,7578
46894,18610,8221
47379,19052,8911
47877,19509,9632
48382,19980,10379
48887,20455,11134
49379,20920,11875
49846,21360,12582
50286,21771,13249
50694,22154,13873
51064,22502,14447
51390,22807,14961
51673,23067,15410
51913,23287,15797
52114,23471,16123
52274,23617,16386
52394,23726,16592
52481,23805,16743
52537,23854,16843
52561,23875,16894
52555,23870,16905
52526,23847,16884
52481,23808,16837
52427,23755,16772
52368,23693,16697
52309,23633,16618
52250,23577,16538
52189,23517,16455
52130,23459,16371
52077,23410,16290
52029,23365,16212
51980,23319,16136
51927,23271,16060
51869,23221,15981
51807,23167,15897
51741,23111,15811
51673,23053,15722
51598,22984,15624
51516,22901,15515
51431,22811,15392
51345,22721,15256
51259,22633,15110
51172,22546,14962
51082,22460,14816
50989,22372,14668
50893,22282,14520
50799,22196,14380
50709,22113,14251
50622,22033,14131
50536,21955,14020
50458,21884,13918
50394,21829,13832
50345,21792,13762
50308,21769,13707
50284,21755,13667
50272,21747,13643
50267,21742,13632
50267,21739,13627
50277,21742,13629
50294,21750,13638
50312,21762,13653
50330,21778,13677
50344,21794,13703
50354,21804,13725
50360,21809,13743
50360,21806,13755
50352,21795,13756
50341,21780,13746
50327,21763,13726
50303,21738,13693
50268,21705,13644
50225,21666,13582
50178,21623,13506
50123,21573,13418
50060,21512,13319
49990,21441,13212
49913,21361,13098
49827,21273,12973
49733,21180,12838
49634,21085,12698
49531,20988,12558
49427,20890,12416
49321,20792,12274
49214,20694,12132
49111,20597,11987
49009,20497,11833
48907,20394,11671
48804,20290,11505
48697,20183,11337
48585,20076,11169
48470,19973,11001
48359,19877,10840
48255,19787,10690
48156,19702,10549
48061,19623,10411
47964,19546,10274
47865,19467,10134
47770,19380,9996
47677,19290,9862
47587,19200,9732
47502,19110,9603
47418,19027,9479
47337,18951,9362
47257,18878,9247
47176,18804,9129
47097,18730,9010
47021,18656,8891
46946,18584,8771
46873,18515,8657
46804,18450,8552
46739,18390,8453
46678,18332,8358
46619,18274,8264
46562,18216,8175
46506,18161,8089
46455,18112,8005
46407,18067,7925
46358,18021,7847
46308,17975,7772
46255,17929,7700
46198,17880,7625
46140,17831,7551
46085,17783,7481
46031,17736,7408
45979,17686,7334
45930,17635,7261
45883,17585,7188
45840,17539,7112
45794,17491,7032
45743,17441,6951
45691,17390,6870
45635,17335,6785
45580,17281,6700
45527,17230,6618
45469,17180,6538
45409,17129,6459
45350,17073,6381
45291,17013,6298
45235,16957,6211
45180,16909,6122
45123,16861,6029
45060,16811,5936
44991,16761,5841
44920,16709,5746
44847,16653,5654
44776,16594,5560
44712,16536,5464
44650,16476,5366
44587,16414,5268
44523,16350,5169
44457,16285,5067
44387,16217,4960
44310,16145,4850
44227,16066,4737
44142,15982,4619
44057,15898,4502
43974,15815,4389
43891,15736,4277
43809,15662,4164
43730,15592,4051
43656,15529,3944
43586,15475,3849
43529,15436,3777
43499,15414,3740
43508,15420,3750
43568,15470,3822
43688,15574,3969
43870,15734,4199
44114,15952,4524
44420,16227,4942
44780,16551,5440
45188,16919,6015
45638,17327,6662
46122,17770,7361
46627,18236,8089
47135,18707,8827
47633,19170,9562
48116,19622,10280
48574,20054,10966
48993,20455,11607
49374,20818,12200
49721,21146,12745
50031,21438,13240
50293,21689,13673
50509,21896,14038
50684,22061,14337
50820,22188,14574
50919,22277,14751
50983,22330,14870
51015,22355,14939
51020,22358,14966
51004,22340,14956
50967,22306,14919
50919,22265,14863
50864,22216,14790
50803,22156,14701
50738,22093,14607
50676,22033,14516
50614,21973,14423
50549,21911,14324
50483,21846,14223
50418,21778,14119
50353,21704,14010
50288,21633,13902
50225,21572,13801
50161,21517,13703
50094,21460,13601
50020,21397,13493
49937,21327,13379
49848,21253,13258
49756,21175,13132
49663,21093,13005
49572,21011,12877
49481,20928,12748
49390,20840,12616
49302,20753,12483
49222,20676,12355
49153,20609,12235
49094,20551,12126
49048,20503,12038
49016,20470,11971
48994,20443,11918
48976,20419,11876
48963,20400,11852
48960,20391,11849
48969,20391,11862
48985,20399,11888
49009,20419,11927
49039,20448,11976
49075,20483,12030
49112,20519,12083
49146,20553,12131
49182,20586,12176
49216,20615,12216
49242,20636,12245
49262,20653,12265
49278,20667,12278
49288,20673,12284
49291,20672,12278
49281,20661,12262
49259,20644,12234
49228,20619,12194
49187,20582,12140
49138,20535,12074
49083,20481,11995
49020,20418,11903
48950,20349,11800
48873,20274,11687
48789,20193,11563
48696,20103,11429
48593,20010,11289
48486,19916,11147
48378,19821,11001
48273,19728,10854
48172,19634,10708
48074,19539,10559
47976,19443,10407
47877,19347,10251
47779,19255,10099
47681,19169,9952
47581,19084,9809
47485,18998,9671
47399,18918,9539
47319,18843,9410
47242,18773,9286
47162,18700,9163
47081,18623,9035
46999,18541,8907
46915,18459,8780
46828,18376,8656
46744,18297,8534
46665,18222,8413
46595,18152,8295
46530,18088,8189
46471,18032,8097
46418,17984,8012
46370,17941,7932
46324,17898,7854
46276,17854,7776
46225,17809,7693
46173,17764,7607
46124,17721,7525
46077,17677,7449
46031,17632,7373
45984,17585,7299
45934,17535,7230
45880,17488,7163
45825,17446,7094
45772,17406,7022
45726,17369,6952
45686,17336,6887
45646,17302,6822
45604,17267,6755
45563,17229,6689
45526,17196,6629
45494,17169,6574
45461,17139,6517
45426,17103,6460
45397,17067,6404
45368,17031,6346
45333,16990,6283
45294,16947,6218
45253,16905,6149
45210,16865,6078
45166,16826,6009
45120,16785,5937
45070,16740,5858
45016,16687,5771
44959,16633,5684
44901,16582,5604
44842,16532,5524
44782,16480,5440
44721,16423,5353
44658,16362,5264
44592,16299,5171
44521,16236,5074
44448,16172,4975
44378,16105,4877
44309,16040,4778
44240,15975,4676
44171,15910,4572
44104,15847,4473
44045,15790,4386
44001,15748,4322
43983,15731,4298
44004,15748,4329
44071,15813,4426
44192,15927,4596
44366,16094,4845
44601,16322,5179
44899,16606,5595
45250,16938,6086
45642,17306,6644
46069,17705,7260
46523,18129,7920
46991,18564,8603
47460,18999,9294
47925,19427,9981
48376,19842,10650
48806,20235,11286
49208,20602,11882
49578,20940,12433
49908,21243,12930
50191,21504,13369
50428,21722,13750
50624,21898,14067
50779,22036,14322
50896,22138,14518
50978,22211,14662
51027,22256,14757
51044,22274,14803
51032,22267,14803
50999,22241,14763
50949,22197,14694
50885,22138,14601
50809,22067,14490
50726,21991,14374
50643,21915,14263
50561,21840,14153
50478,21762,14041
50395,21687,13929
50314,21614,13821
50233,21543,13716
50155,21475,13613
50081,21413,13516
50013,21355,13424
49946,21296,13332
49876,21233,13235
49804,21165,13131
49726,21090,13018
49641,21007,12892
49548,20917,12756
49451,20824,12614
49353,20730,12470
49256,20638,12323
49161,20548,12175
49072,20463,12034
48991,20386,11905
48915,20315,11785
48844,20249,11675
48779,20190,11578
48725,20142,11499
48686,20106,11439
48661,20084,11396
48648,20074,11368
48644,20075,11349
48646,20082,11343
48657,20093,11350
48677,20109,11372
48700,20129,11403
48724,20150,11439
48748,20170,11475
48772,20193,11514
48796,20217,11554
48817,20242,11590
48836,20264,11621
48851,20279,11642
48857,20285,11650
48853,20281,11644
48843,20270,11629
48827,20255,11607
48805,20237,11574
48776,20211,11523
48738,20176,11457
48693,20135,11378
48639,20085,11288
48576,20024,11191
48506,19956,11091
48432,19883,10985
48352,19806,10871
48267,19726,10750
48178,19641,10621
48085,19549,10483
47984,19451,10338
47880,19349,10188
47775,19247,10036
47671,19149,9884
47566,19049,9731
47457,18948,9581
47352,18851,9433
47251,18758,9283
47148,18667,9132
47048,18580,8984
46954,18499,8841
46864,18420,8701
46776,18343,8568
46691,18268,8442
46608,18194,8319
46523,18119,8191
46437,18042,8061
46352,17964,7932
46267,17889,7809
46183,17816,7688
46105,17748,7572
46033,17684,7462
45960,17621,7358
45885,17557,7254
45809,17489,7153
45735,17424,7058
45668,17365,6966
45602,17315,6874
45542,17266,6782
45489,17220,6693
45442,17177,6607
45395,17134,6524
45351,17090,6449
45310,17044,6382
45270,16996,6315
45229,16948,6247
45188,16902,6181
45149,16859,6117
45112,16821,6058
45076,16787,6002
45039,16755,5944
45003,16727,5882
44967,16701,5812
44929,16674,5740
44887,16644,5672
44843,16609,5610
44799,16568,5547
44756,16520,5481
44715,16469,5410
44672,16420,5338
44627,16374,5260
44578,16326,5178
44527,16275,5097
44474,16225,5017
44421,16176,4933
44365,16124,4846
44309,16071,4763
44255,16022,4684
44201,15974,4602
44143,15921,4515
44081,15862,4422
44017,15800,4326
43950,15736,4228
43882,15671,4131
43814,15605,4035
43744,15542,3939
43668,15479,3835
43592,15414,3729
43524,15355,3634
43473,15312,3565
43446,15295,3533
43453,15311,3550
43504,15366,3628
43612,15470,3780
43781,15632,4013
44018,15851,4333
44316,16124,4741
44670,16448,5229
45072,16813,5788
45510,17213,6412
45977,17640,7085
46458,18086,7786
46940,18536,8497
47417,18979,9206
47885,19411,9906
48336,19828,10582
48762,20219,11218
49152,20576,11800
49500,20898,12326
49809,21184,12797
50076,21431,13209
50302,21636,13560
50488,21807,13854
50636,21946,14095
50747,22050,14280
50827,22124,14415
50881,22173,14510
50911,22200,14569
50918,22201,14592
50899,22179,14585
50857,22138,14550
50799,22087,14493
50735,22031,14417
50668,21971,14329
50602,21910,14239
50538,21852,14149
50475,21793,14058
50410,21734,13969
50344,21676,13882
50278,21617,13792
50211,21557,13701
50147,21502,13612
50088,21452,13526
50032,21401,13439
49978,21344,13345
49921,21280,13238
49858,21208,13120
49786,21127,12990
49705,21040,12850
49618,20953,12706
49527,20865,12562
49432,20776,12415
49330,20685,12266
49227,20595,12125
49130,20512,11994
49043,20439,11874
48964,20371,11763
48895,20310,11667
48838,20259,11590
48794,20220,11531
48767,20193,11491
48756,20179,11474
48755,20174,11473
48762,20176,11483
48776,20186,11501
48803,20206,11526
48837,20240,11560
48873,20280,11598
48906,20320,11632
48935,20352,11662
48957,20375,11688
48972,20390,11709
48983,20402,11727
48991,20410,11745
48994,20412,11759
48988,20407,11763
48973,20388,11749
48949,20360,11720
48921,20329,11680
48889,20295,11628
48853,20258,11566
48811,20217,11494
48759,20170,11407
48698,20114,11307
48629,20050,11196
48553,19979,11078
48469,19902,10954
48376,19816,10821
48279,19728,10684
48178,19640,10546
48073,19549,10405
47968,19454,10261
47868,19360,10116
47772,19265,9972
47674,19167,9827
47572,19064,9682
47468,18961,9536
47361,18860,9386
47251,18758,9232
47142,18659,9082
47040,18569,8936
46945,18486,8794
46857,18404,8654
46771,18316,8516
46686,18228,8378
46601,18146,8241
46513,18067,8107
46425,17987,7976
46342,17908,7850
46260,17833,7728
46181,17762,7608
46103,17691,7493
46029,17620,7383
45961,17554,7276
45900,17493,7175
45840,17438,7082
45780,17387,6992
45721,17339,6907
45664,17293,6825
45610,17247,6745
45560,17200,6663
45514,17155,6579
45468,17110,6496
45419,17066,6413
45368,17023,6331
45317,16981,6253
45268,16936,6180
45223,16891,6109
45183,16851,6040
45143,16814,5975
45097,16775,5912
45046,16733,5848
44997,16693,5781
44951,16652,5709
44905,16607,5633
44860,16563,5556
44817,16525,5481
44773,16489,5409
44729,16451,5344
44687,16414,5288
44646,16378,5230
44604,16339,5165
44557,16295,5096
44510,16250,5029
44465,16207,4959
44421,16166,4886
44373,16125,4816
44323,16085,4746
44270,16039,4670
44211,15985,4590
44151,15928,4511
44089,15870,4429
44025,15808,4337
43957,15738,4235
43885,15666,4131
43813,15597,4026
43740,15532,3920
43666,15469,3813
43592,15407,3709
43519,15345,3606
43441,15282,3501
43364,15216,3395
43297,15156,3304
43249,15113,3238
43232,15097,3208
43256,15117,3230
43332,15185,3319
43466,15307,3486
43662,15490,3739
43918,15727,4081
44230,16016,4513
44594,16353,5025
45005,16735,5606
45455,17152,6247
45935,17596,6939
46435,18059,7663
46942,18528,8400
47443,18990,9134
47931,19440,9850
48398,19872,10535
48834,20274,11180
49232,20639,11777
49593,20969,12322
49916,21266,12815
50200,21527,13250
50441,21747,13619
50645,21931,13930
50816,22084,14188
50948,22204,14393
51042,22291,14552
51109,22356,14672
51153,22401,14757
51174,22425,14806
51173,22425,14822
51157,22409,14814
51128,22382,14786
51087,22344,14740
51037,22299,14682
50981,22252,14617
50925,22203,14548
50869,22150,14469
50811,22094,14381
50752,22041,14294
50693,21992,14210
50637,21944,14127
50585,21895,14041
50529,21841,13954
50469,21781,13863
50404,21716,13765
50333,21646,13660
50259,21571,13548
50178,21489,13426
50091,21405,13297
50001,21317,13165
49909,21225,13029
49815,21132,12885
49721,21041,12737
49630,20955,12596
49542,20873,12463
49453,20795,12337
49370,20722,12218
49300,20657,12111
49244,20603,12017
49200,20560,11940
49165,20530,11881
49146,20513,11842
49140,20508,11825
49141,20510,11823
49152,20519,11833
49174,20539,11855
49200,20568,11887
49231,20603,11925
49267,20639,11966
49301,20673,12005
49330,20705,12045
49353,20733,12085
49368,20752,12119
49376,20764,12144
49376,20766,12156
49368,20762,12156
49356,20755,12144
49342,20743,12123
49324,20724,12091
49298,20697,12048
49264,20663,11992
49224,20624,11926
49181,20578,11851
49130,20526,11763
49069,20464,11663
48998,20392,11552
48916,20315,11430
48829,20231,11305
48740,20146,11178
48650,20061,11049
48558,19975,10913
48461,19884,10771
48359,19791,10623
48256,19700,10474
48153,19611,10324
48050,19519,10171
47945,19425,10018
47840,19328,9868
47740,19233,9722
47643,19138,9579
47546,19045,9438
47454,18956,9295
47365,18868,9153
47275,18779,9014
47185,18689,8878
