green_channel,red_channel,ir_channel
4657,36878,12783
4623,36857,12736
4590,36835,12688
4561,36812,12641
4534,36794,12596
4511,36780,12555
4488,36767,12516
4463,36751,12476
4433,36732,12434
4401,36707,12387
4368,36680,12340
4335,36651,12293
4301,36621,12248
4270,36592,12205
4240,36565,12163
4207,36537,12120
4176,36507,12077
4147,36478,12033
4113,36449,11989
4074,36419,11948
4038,36392,11910
4003,36369,11873
3969,36347,11832
3932,36327,11786
3892,36304,11741
3849,36272,11693
3805,36232,11638
3762,36191,11580
3718,36151,11519
3677,36112,11459
3642,36078,11399
3606,36045,11340
3570,36013,11282
3537,35983,11226
3501,35955,11168
3464,35928,11108
3429,35900,11046
3397,35875,10986
3368,35854,10930
3343,35835,10884
3325,35824,10856
3317,35824,10849
3324,35837,10868
3346,35863,10911
3387,35903,10982
3449,35960,11085
3533,36035,11224
3638,36124,11396
3762,36228,11597
3905,36348,11822
4062,36480,12066
4228,36618,12320
4394,36755,12576
4558,36888,12829
4720,37017,13075
4878,37140,13313
5026,37258,13544
5164,37372,13763
5289,37476,13966
5399,37565,14153
5492,37638,14318
5570,37700,14462
5638,37752,14585
5696,37796,14685
5742,37833,14765
5775,37861,14826
5794,37878,14870
5803,37889,14901
5805,37893,14914
5800,37890,14912
5788,37882,14899
5770,37869,14879
5749,37852,14854
5727,37835,14828
5706,37821,14806
5691,37812,14788
5681,37804,14770
5676,37797,14753
5674,37792,14739
5671,37784,14730
5662,37771,14720
5650,37752,14703
5640,37734,14679
5634,37720,14654
5628,37710,14629
5621,37701,14601
5611,37689,14568
5598,37673,14531
5585,37656,14495
5574,37640,14463
5566,37629,14434
5561,37622,14412
5558,37619,14397
5555,37616,14381
5548,37613,14364
5536,37610,14350
5520,37604,14337
5502,37592,14319
5487,37580,14300
5479,37575,14283
5478,37578,14272
5480,37585,14270
5478,37592,14270
5477,37596,14270
5482,37601,14272
5490,37607,14275
5499,37613,14279
5508,37617,14282
5512,37617,14284
5512,37617,14286
5508,37614,14286
5499,37607,14278
5485,37595,14266
5466,37581,14254
5444,37565,14239
5420,37548,14217
5397,37530,14186
5372,37509,14147
5346,37489,14104
5317,37467,14058
5285,37441,14005
5251,37411,13947
5214,37376,13883
5176,37339,13815
5135,37298,13744
5088,37252,13672
5035,37205,13602
4979,37157,13533
4922,37106,13461
4866,37053,13386
4815,37006,13311
4769,36964,13238
4723,36926,13167
4676,36889,13102
4630,36855,13045
4585,36826,12995
4541,36799,12950
4502,36774,12905
4468,36750,12857
4435,36727,12800
4400,36704,12740
4361,36678,12680
4319,36645,12621
4278,36609,12562
4236,36574,12504
4190,36539,12446
4144,36504,12387
4103,36473,12327
4065,36440,12265
4027,36404,12207
3989,36368,12153
3952,36334,12102
3914,36300,12051
3875,36266,12002
3837,36236,11955
3801,36208,11909
3764,36183,11866
3725,36159,11826
3686,36133,11787
3649,36107,11743
3611,36078,11694
3570,36049,11642
3530,36022,11591
3490,35995,11540
3451,35968,11490
3413,35942,11442
3375,35917,11394
3339,35891,11344
3302,35864,11288
3267,35836,11230
3233,35808,11172
3197,35779,11112
3157,35750,11050
3117,35723,10987
3077,35695,10924
3036,35663,10858
2993,35630,10790
2953,35597,10727
2912,35566,10670
2873,35538,10621
2840,35516,10584
2821,35508,10571
2826,35522,10589
2857,35557,10646
2916,35610,10744
3005,35682,10880
3119,35772,11052
3253,35879,11256
3404,36001,11488
3564,36133,11740
3727,36270,12003
3891,36409,12271
4056,36550,12537
4222,36691,12800
4384,36828,13053
4532,36952,13288
4664,37064,13502
4783,37167,13698
4892,37260,13877
4987,37340,14038
5069,37405,14173
5138,37461,14286
5199,37507,14380
5252,37543,14455
5298,37568,14510
5335,37588,14547
5359,37600,14570
5373,37606,14581
5381,37607,14584
5383,37603,14580
5377,37593,14563
5363,37579,14537
5343,37564,14509
5322,37549,14480
5302,37534,14453
5286,37523,14429
5274,37515,14409
5265,37513,14394
5258,37513,14382
5256,37514,14369
5254,37510,14353
5250,37502,14332
5244,37489,14308
5233,37473,14283
5220,37455,14256
5207,37439,14225
5193,37426,14191
5180,37413,14155
5167,37398,14116
5155,37382,14078
5141,37369,14043
5125,37361,14015
5109,37358,13994
5098,37357,13977
5088,37356,13964
5081,37355,13958
5079,37355,13956
5084,37355,13955
5093,37360,13958
5108,37369,13966
5128,37379,13977
5151,37387,13992
5170,37395,14010
5183,37407,14030
5194,37423,14051
5201,37438,14072
5205,37449,14086
5207,37456,14092
5209,37460,14091
5212,37460,14082
5215,37455,14070
5217,37445,14057
5218,37436,14046
5218,37428,14035
5214,37418,14019
5203,37404,13994
5187,37387,13965
5170,37367,13931
5151,37346,13891
5129,37327,13847
5104,37310,13800
5074,37295,13754
5043,37278,13714
5016,37258,13673
4991,37235,13625
4963,37210,13571
4928,37180,13512
4891,37144,13449
4853,37104,13384
4811,37063,13318
4769,37026,13251
4733,36993,13190
4701,36963,13134
4666,36936,13079
4627,36911,13029
4589,36887,12982
4554,36864,12933
4519,36840,12885
4481,36813,12836
4443,36784,12782
4413,36754,12726
4386,36723,12676
4359,36691,12633
4338,36663,12593
4320,36639,12552
4303,36617,12509
4287,36597,12467
4268,36579,12425
4246,36562,12384
4223,36548,12347
4202,36537,12315
4185,36528,12285
4168,36515,12251
4148,36501,12212
4126,36486,12173
4100,36467,12133
4068,36442,12090
4034,36414,12044
4001,36386,11997
3967,36358,11951
3931,36331,11906
3894,36305,11864
3863,36280,11827
3836,36260,11793
3810,36239,11758
3781,36218,11722
3752,36196,11684
3723,36176,11642
3693,36154,11592
3666,36128,11536
3641,36099,11476
3615,36072,11419
3590,36049,11368
3566,36029,11325
3550,36016,11296
3548,36015,11285
3562,36025,11295
3591,36049,11332
3640,36090,11401
3713,36150,11502
3811,36231,11642
3929,36332,11819
4066,36451,12030
4219,36582,12267
4376,36718,12520
4534,36854,12782
4692,36990,13045
4848,37120,13301
5001,37244,13550
5152,37364,13793
5299,37479,14025
5442,37588,14242
5576,37691,14441
5696,37785,14621
5803,37869,14781
5895,37939,14916
5977,37998,15026
6049,38047,15115
6110,38087,15186
6158,38116,15243
6197,38139,15290
6228,38160,15327
6250,38176,15352
6260,38186,15363
6261,38187,15364
6255,38180,15361
6245,38168,15351
6236,38155,15339
6231,38149,15328
6228,38149,15321
6224,38152,15318
6221,38154,15317
6225,38155,15314
6234,38156,15311
6242,38157,15306
6247,38157,15294
6248,38157,15276
6245,38156,15256
6236,38152,15236
6225,38146,15217
6215,38137,15192
6207,38126,15161
6200,38112,15130
6187,38095,15101
6167,38076,15078
6150,38061,15062
6137,38051,15050
6125,38043,15038
6118,38040,15030
6117,38041,15025
6119,38043,15023
6126,38046,15025
6138,38056,15032
6155,38071,15042
6172,38086,15053
6187,38101,15062
6203,38114,15071
6219,38121,15082
6234,38124,15093
6251,38126,15107
6268,38131,15124
6281,38136,15139
6287,38138,15147
6290,38138,15152
6288,38138,15154
6280,38134,15151
6271,38128,15141
6261,38121,15129
6248,38115,15116
6233,38108,15095
6218,38100,15069
6204,38090,15041
6191,38076,15013
6174,38058,14982
6152,38034,14942
6126,38006,14897
6095,37977,14849
6064,37947,14798
6032,37919,14746
6000,37892,14694
5969,37865,14643
5941,37840,14593
5912,37813,14543
5880,37786,14493
5847,37757,14440
5810,37726,14382
5771,37693,14321
5735,37661,14261
5706,37634,14206
5680,37608,14152
5652,37581,14101
5623,37553,14054
5595,37529,14012
5568,37508,13974
5538,37487,13936
5506,37466,13898
5471,37445,13858
5433,37423,13818
5398,37406,13781
5367,37392,13746
5343,37380,13710
5320,37367,13674
5296,37348,13635
5273,37327,13591
5251,37305,13544
5228,37278,13498
5203,37249,13453
5171,37219,13410
5137,37188,13368
5102,37157,13327
5068,37129,13286
5034,37104,13247
5002,37082,13207
4975,37063,13164
4951,37046,13120
4929,37027,13077
4908,37007,13034
4888,36987,12993
4867,36964,12950
4843,36939,12904
4813,36912,12858
4777,36886,12811
4743,36862,12765
4710,36839,12714
4675,36815,12663
4636,36792,12615
4595,36768,12568
4555,36747,12522
4519,36730,12482
4493,36718,12455
4482,36716,12449
4491,36728,12472
4522,36755,12526
4578,36802,12616
4662,36869,12742
4774,36959,12907
4909,37068,13107
5063,37195,13334
5233,37337,13585
5413,37487,13854
5595,37639,14131
5776,37793,14411
5953,37945,14685
6125,38091,14948
6288,38223,15197
6443,38342,15434
6589,38451,15656
6721,38552,15862
6837,38644,16052
6943,38730,16222
7041,38806,16371
7129,38870,16496
7203,38922,16600
7262,38963,16684
7309,38997,16751
7342,39020,16802
7362,39032,16839
7374,39034,16861
7382,39031,16870
7387,39025,16873
7389,39017,16873
7386,39011,16872
7381,39010,16873
7378,39016,16881
7379,39025,16893
7384,39037,16908
7393,39050,16925
7404,39064,16939
7418,39075,16949
7433,39085,16959
7446,39093,16968
7455,39099,16973
7461,39103,16971
7469,39108,16967
7474,39108,16963
7474,39099,16953
7471,39085,16936
7466,39068,16915
7461,39054,16892
7455,39042,16868
7447,39031,16844
7439,39019,16819
7431,39009,16794
7426,39003,16773
7422,39002,16757
7419,39000,16747
7415,38998,16741
7413,38996,16740
7414,38997,16745
7416,39000,16753
7419,39004,16760
7425,39009,16764
7434,39015,16768
7445,39024,16776
7456,39032,16784
7469,39041,16793
7486,39052,16804
7505,39064,16815
7520,39076,16823
7533,39083,16825
7546,39086,16823
7557,39083,16817
7563,39075,16809
7565,39066,16799
7564,39059,16789
7555,39052,16775
7536,39039,16757
7513,39022,16735
7486,39004,16708
7458,38984,16675
7426,38961,16637
7394,38936,16595
7364,38914,16549
7337,38894,16503
7308,38873,16452
7279,38850,16396
7250,38821,16337
7218,38788,16276
7182,38753,16214
7147,38721,16151
7117,38694,16093
7087,38672,16038
7054,38651,15981
7019,38628,15925
6989,38606,15874
6966,38586,15828
6946,38566,15781
6929,38546,15737
6915,38529,15698
6903,38516,15663
6893,38506,15633
6880,38494,15605
6865,38479,15579
6849,38466,15559
6832,38454,15540
6813,38442,15517
6791,38428,15488
6765,38414,15455
6737,38395,15421
6710,38375,15388
6689,38357,15354
6674,38342,15321
6659,38327,15286
6641,38314,15250
6628,38302,15216
6620,38292,15184
6611,38280,15155
6600,38268,15127
6586,38257,15099
6568,38245,15070
6544,38229,15039
6519,38210,15009
6498,38188,14978
6481,38163,14945
6467,38139,14913
6458,38120,14882
6447,38102,14850
6428,38082,14817
6403,38060,14785
6375,38043,14756
6348,38031,14728
6323,38022,14697
6305,38016,14659
6296,38011,14618
6290,38004,14577
6284,37999,14544
6284,37997,14528
6294,38004,14536
6320,38025,14573
6369,38067,14645
6443,38133,14756
6546,38221,14903
6674,38327,15080
6824,38450,15284
6993,38586,15516
7177,38733,15773
7369,38888,16049
7566,39049,16338
7766,39211,16634
7963,39369,16924
8152,39517,17198
8333,39655,17459
8502,39786,17709
8656,39908,17948
8792,40018,18170
8911,40115,18371
9017,40201,18552
9111,40278,18713
9188,40347,18855
9248,40404,18976
9300,40452,19077
9348,40490,19160
9386,40519,19226
9414,40540,19280
9434,40554,19326
9451,40564,19364
9470,40570,19389
9488,40577,19407
9506,40585,19422
9526,40595,19437
9544,40606,19451
9553,40612,19462
9556,40615,19473
9560,40616,19486
9565,40617,19500
9573,40621,19510
9584,40629,19520
9598,40640,19529
9614,40652,19539
9631,40662,19549
9647,40669,19558
9661,40672,19561
9667,40671,19558
9664,40667,19550
9655,40658,19536
9640,40644,19515
9627,40630,19494
9618,40621,19475
9609,40613,19457
9597,40601,19439
9583,40587,19421
9572,40574,19403
9562,40560,19385
9551,40548,19368
9540,40541,19355
9533,40538,19345
9530,40537,19334
9531,40540,19327
9534,40546,19327
9542,40552,19332
9554,40555,19339
9566,40556,19346
9572,40557,19353
9578,40557,19358
9582,40558,19359
9582,40559,19356
9577,40559,19350
9570,40559,19344
9565,40561,19337
9560,40561,19327
9554,40559,19312
9545,40554,19295
9531,40547,19275
9510,40535,19251
9489,40519,19224
9471,40502,19194
9450,40483,19159
9426,40460,19119
9400,40436,19075
9371,40411,19029
9339,40383,18979
9304,40354,18922
9266,40324,18862
9225,40293,18802
9181,40255,18741
9136,40213,18679
9094,40172,18616
9056,40133,18550
9018,40096,18487
8979,40061,18426
8941,40031,18365
8903,40004,18306
8862,39980,18252
8819,39953,18200
8780,39925,18149
8746,39893,18099
8713,39861,18050
8679,39828,18002
8649,39799,17957
8621,39775,17914
8592,39752,17871
8561,39729,17829
8531,39710,17791
8501,39696,17754
8473,39682,17715
8445,39666,17675
8417,39645,17633
8387,39619,17586
8355,39592,17533
8324,39564,17481
8294,39539,17430
8262,39515,17383
8230,39491,17340
8199,39469,17300
8170,39446,17260
8139,39421,17219
8102,39393,17177
8061,39361,17135
8021,39329,17093
7983,39297,17046
7947,39264,16997
7912,39233,16945
7875,39205,16892
7837,39177,16835
7798,39148,16776
7756,39119,16715
7715,39093,16652
7673,39062,16588
7630,39024,16524
7591,38988,16461
7554,38957,16400
7516,38926,16342
7478,38895,16289
7443,38867,16247
7416,38846,16217
7401,38835,16203
7400,38837,16206
7413,38856,16234
7445,38896,16292
7501,38956,16383
7581,39034,16509
7686,39132,16672
7816,39248,16869
7965,39378,17096
8128,39516,17344
8305,39660,17604
8489,39809,17872
8673,39958,18139
8850,40104,18400
9017,40244,18652
9171,40374,18893
9308,40493,19118
9432,40598,19325
9547,40692,19517
9649,40774,19692
9733,40842,19844
9800,40901,19974
9854,40952,20086
9897,40990,20177
9930,41018,20248
9953,41039,20300
9966,41050,20334
9976,41055,20355
9984,41058,20367
9989,41059,20372
9990,41057,20372
9990,41055,20369
9990,41054,20365
9995,41054,20359
9999,41054,20351
10000,41054,20342
10001,41057,20338
10005,41062,20337
10009,41065,20336
10010,41066,20336
10009,41065,20334
10009,41063,20328
10008,41060,20319
10002,41052,20305
9990,41039,20285
9976,41026,20262
9962,41012,20237
9948,40998,20210
9936,40982,20178
9925,40964,20143
9912,40945,20107
9894,40923,20071
9874,40902,20036
9856,40886,20003
9843,40877,19974
9834,40871,19950
9831,40867,19930
9832,40870,19918
9837,40877,19914
9841,40885,19912
9845,40891,19913
9848,40895,19917
9850,40896,19922
9852,40897,19925
9855,40897,19927
9859,40900,19928
9861,40904,19929
9859,40908,19930
9855,40912,19930
9851,40916,19925
9844,40914,19912
9834,40907,19893
9825,40900,19869
9816,40893,19844
9806,40883,19814
9792,40869,19776
9775,40851,19734
9757,40832,19692
9735,40811,19651
9703,40787,19609
9664,40761,19565
9623,40734,19516
9582,40704,19462
9538,40668,19401
9491,40630,19339
9443,40591,19279
9394,40552,19222
9346,40515,19167
9298,40477,19110
9247,40435,19046
9191,40390,18978
9135,40344,18908
9084,40302,18837
9036,40261,18767
8988,40221,18697
8941,40184,18632
8899,40153,18570
8860,40125,18510
8820,40096,18451
8781,40065,18395
8743,40036,18341
8704,40004,18286
8660,39972,18231
8615,39942,18179
8571,39912,18126
8524,39879,18071
8476,39844,18014
8432,39809,17959
8392,39778,17907
8355,39750,17859
8321,39722,17814
8286,39693,17768
8252,39667,17721
8221,39643,17676
8188,39616,17630
8150,39586,17580
8110,39554,17525
8069,39521,17467
8030,39488,17406
7993,39458,17346
7956,39432,17289
7916,39406,17236
7872,39376,17185
7823,39343,17135
7771,39308,17084
7717,39272,17031
7659,39233,16971
7598,39192,16906
7538,39151,16840
7481,39109,16776
7429,39067,16715
7382,39027,16658
7339,38990,16602
7299,38957,16539
7259,38925,16473
7217,38894,16408
7174,38864,16345
7132,38836,16283
7092,38809,16226
7056,38783,16175
7027,38763,16133
7008,38752,16109
7004,38754,16111
7021,38771,16147
7062,38805,16219
7127,38862,16330
7219,38941,16476
7339,39040,16652
7480,39156,16860
7637,39288,17099
7806,39433,17358
7983,39587,17631
8161,39741,17910
8335,39891,18188
8503,40033,18456
8662,40168,18708
8807,40292,18941
8935,40403,19150
9050,40503,19335
9156,40591,19501
9250,40665,19647
9328,40725,19770
9389,40775,19875
9438,40817,19961
9478,40848,20025
9508,40865,20068
9528,40872,20098
9543,40872,20116
9552,40869,20122
9553,40863,20118
9547,40856,20106
9536,40847,20086
9520,40837,20061
9502,40826,20034
9485,40816,20008
9472,40809,19983
9459,40803,19962
9448,40797,19942
9441,40792,19924
9437,40788,19909
9428,40781,19895
9417,40770,19879
9407,40756,19861
9397,40741,19841
9383,40724,19817
9366,40709,19790
9351,40695,19761
9337,40681,19730
9318,40669,19697
9295,40657,19662
9273,40642,19623
9254,40629,19582
9239,40619,19547
9231,40612,19522
9224,40607,19501
9215,40599,19480
9205,40591,19457
9198,40584,19437
9195,40580,19422
9196,40579,19413
9201,40581,19413
9208,40587,19420
9214,40591,19426
9216,40589,19425
9216,40587,19420
9216,40587,19417
9216,40587,19416
9216,40586,19415
9214,40584,19413
9211,40581,19409
9206,40578,19406
9197,40572,19399
9184,40567,19388
9172,40561,19375
9160,40554,19358
9143,40542,19332
9118,40522,19299
9090,40501,19266
9063,40480,19234
9036,40457,19202
9009,40429,19164
8982,40398,19116
8954,40365,19061
8924,40331,18997
8888,40297,18929
8849,40263,18861
8806,40228,18789
8757,40189,18709
8705,40148,18628
8652,40108,18550
8598,40067,18472
8544,40025,18396
8492,39987,18325
8444,39951,18256
8395,39916,18190
8350,39883,18129
8308,39851,18069
8266,39817,18006
8224,39782,17939
8182,39748,17874
8141,39717,17811
8105,39686,17753
8074,39658,17700
8043,39630,17649
8010,39604,17599
7976,39581,17548
7942,39561,17496
7910,39538,17446
7876,39511,17397
7838,39482,17350
7795,39451,17306
7752,39417,17265
7713,39384,17225
7680,39355,17185
7650,39331,17145
7623,39310,17108
7600,39294,17072
7578,39281,17035
7551,39264,16995
7521,39241,16953
7490,39213,16905
7459,39183,16854
7428,39152,16802
7398,39122,16752
7361,39090,16698
7319,39051,16640
7272,39006,16578
7224,38963,16512
7175,38924,16446
7121,38885,16380
7064,38848,16314
7008,38812,16248
6954,38779,16185
6899,38746,16123
6845,38713,16062
6795,38682,16003
6749,38654,15947
6708,38629,15899
6675,38610,15867
6659,38600,15855
6665,38603,15868
6696,38627,15912
6755,38676,15995
6845,38752,16120
6963,38853,16283
7099,38974,16481
7250,39108,16709
7417,39255,16955
7594,39407,17214
7773,39556,17480
7949,39702,17748
8123,39845,18014
8290,39983,18272
8442,40111,18513
8580,40229,18735
8704,40334,18937
8813,40426,19118
8907,40506,19271
8988,40573,19395
9057,40625,19493
9113,40663,19570
9156,40692,19626
9187,40713,19666
9208,40726,19691
9216,40730,19701
9212,40726,19700
9198,40715,19691
9181,40702,19679
9167,40690,19662
9154,40676,19642
9140,40662,19620
9129,40648,19598
9124,40637,19573
9118,40624,19549
9111,40611,19528
9103,40598,19507
9089,40582,19486
9070,40566,19466
9053,40554,19449
9038,40545,19435
9021,40535,19418
9000,40519,19400
8974,40497,19379
8942,40471,19350
8907,40445,19311
8875,40421,19266
8849,40400,19217
8830,40383,19169
8813,40369,19124
8800,40357,19086
8789,40348,19054
8776,40338,19024
8764,40326,18997
8753,40311,18978
8745,40299,18965
8736,40289,18954
8730,40282,18948
8730,40280,18953
8735,40286,18971
8739,40297,18997
8744,40309,19027
8754,40321,19058
8773,40337,19088
8799,40356,19112
8826,40375,19127
8849,40390,19136
8868,40403,19144
8884,40415,19154
8900,40425,19163
8910,40430,19162
8914,40432,19154
8910,40431,19144
8900,40425,19133
8889,40416,19118
8879,40403,19094
8865,40384,19057
8848,40365,19015
8832,40347,18972
8816,40328,18926
8797,40308,18875
8774,40287,18822
8751,40268,18769
8724,40246,18715
8694,40224,18660
8661,40201,18603
8626,40174,18542
8592,40145,18479
8560,40117,18415
8529,40088,18350
8498,40062,18286
8467,40037,18224
8436,40010,18162
8403,39979,18098
8364,39945,18028
8319,39910,17951
8271,39873,17869
8221,39834,17790
8171,39795,17715
8121,39756,17645
8072,39717,17577
8026,39681,17513
7982,39648,17452
7938,39615,17395
7893,39579,17340
7849,39541,17283
7809,39504,17223
7768,39469,17156
7727,39436,17086
7687,39404,17018
7650,39373,16953
7619,39341,16893
7593,39313,16839
7570,39290,16786
7548,39271,16730
7523,39249,16673
7494,39223,16620
7464,39194,16567
7433,39165,16513
7398,39137,16461
7361,39108,16412
7323,39078,16364
7282,39046,16316
7237,39011,16264
7191,38975,16209
7147,38942,16152
7104,38909,16094
7060,38875,16033
7018,38840,15970
6978,38805,15906
6941,38770,15841
6904,38738,15775
6866,38707,15708
6830,38676,15643
6797,38647,15580
6764,38618,15516
6730,38590,15451
6700,38565,15391
6676,38545,15342
6659,38532,15307
6657,38530,15295
6673,38545,15316
6715,38581,15375
6784,38642,15476
6882,38728,15617
7003,38834,15794
7143,38954,16002
7295,39087,16232
7455,39231,16479
7623,39379,16739
7796,39530,17006
7970,39680,17275
8148,39828,17542
8325,39968,17799
8492,40093,18039
8648,40206,18264
8791,40310,18474
8918,40402,18665
9025,40482,18832
9110,40549,18975
9181,40606,19095
9243,40653,19196
9290,40686,19276
9320,40705,19335
9335,40712,19374
9337,40713,19400
9330,40710,19418
9316,40702,19424
9296,40691,19422
9271,40680,19413
9245,40668,19400
9223,40656,19388
9206,40644,19375
9192,40629,19359
9177,40615,19341
9162,40604,19326
9152,40599,19313
9148,40597,19299
9145,40598,19289
9143,40599,19281
9140,40598,19271
9132,40592,19253
9117,40585,19231
9094,40577,19209
9067,40565,19186
9037,40546,19156
8999,40519,19119
8955,40485,19078
8910,40446,19031
8867,40408,18980
8830,40378,18932
8797,40354,18888
8767,40332,18847
8738,40310,18807
8710,40288,18769
8686,40268,18734
8670,40252,18705
8663,40241,18679
8657,40233,18656
8651,40228,18635
8643,40223,18612
8637,40219,18586
8631,40216,18561
8624,40215,18539
8618,40217,18521
8615,40216,18506
8612,40210,18490
8606,40200,18472
8596,40188,18452
8579,40176,18431
8558,40161,18409
8536,40146,18387
8516,40130,18362
8493,40110,18334
8468,40088,18306
8441,40064,18275
8412,40039,18235
8382,40012,18185
8353,39983,18129
8325,39956,18074
8294,39930,18019
8258,39901,17959
8218,39871,17896
8177,39844,17837
8135,39815,17778
8091,39779,17712
8047,39740,17642
8006,39704,17573
7967,39672,17507
7926,39638,17440
7884,39600,17372
7842,39561,17306
7800,39519,17239
7755,39474,17170
7709,39431,17102
7666,39391,17034
7624,39355,16965
7579,39318,16895
7528,39281,16826
7477,39243,16756
7428,39206,16685
7381,39174,16615
7339,39144,16551
7299,39115,16496
7255,39085,16447
7207,39052,16398
7159,39014,16344
7112,38977,16287
7067,38944,16230
7025,38914,16171
6985,38886,16111
6944,38855,16053
6899,38822,15996
6852,38787,15940
6806,38749,15883
6760,38706,15823
6715,38663,15762
6673,38625,15704
6633,38592,15650
6593,38560,15597
6554,38530,15545
6516,38504,15494
6482,38481,15442
6449,38456,15390
6409,38425,15332
6364,38391,15269
6319,38359,15204
6273,38329,15142
6226,38299,15080
6180,38266,15016
6134,38230,14950
6089,38192,14881
6047,38155,14813
6006,38118,14749
5964,38083,14687
5925,38050,14629
5892,38021,14576
5863,37999,14531
5840,37985,14496
5823,37975,14474
5814,37970,14465
5821,37978,14478
5849,38003,14521
5896,38046,14598
5963,38106,14711
6053,38186,14859
6163,38280,15033
6284,38382,15222
6411,38490,15422
6546,38605,15636
6685,38724,15855
6823,38840,16071
6957,38956,16281
7087,39070,16482
7215,39173,16671
7332,39265,16843
7434,39347,16993
7518,39417,17122
7585,39472,17229
7637,39514,17318
7678,39545,17396
7707,39569,17461
7726,39586,17510
7740,39598,17545
7751,39605,17566
7756,39607,17576
7755,39608,17577
7750,39603,17568
7739,39593,17549
7723,39578,17518
7698,39558,17477
7669,39531,17429
7641,39501,17381
7615,39473,17336
7591,39449,17297
7565,39427,17262
7535,39407,17234
7506,39387,17205
7480,39371,17174
7455,39356,17143
7430,39338,17111
7405,39317,17073
7380,39295,17031
7353,39270,16989
7324,39244,16942
7291,39217,16890
7256,39190,16837
7222,39165,16788
7191,39145,16742
7160,39127,16698
7129,39111,16659
7099,39097,16624
7069,39081,16590
7040,39063,16556
7017,39045,16525
7002,39031,16499
6992,39021,16477
6983,39014,16458
6975,39006,16441
6969,38997,16424
6964,38988,16409
6958,38980,16396
6951,38973,16384
6944,38968,16373
6936,38967,16364
6924,38967,16353
6908,38962,16339
6888,38952,16320
6868,38939,16300
6851,38924,16274
6832,38903,16239
6810,38880,16202
6789,38857,16168
6766,38835,16135
6736,38809,16098
6704,38783,16059
6672,38759,16020
6635,38730,15978
6595,38695,15928
6553,38661,15872
6510,38625,15808
6466,38587,15741
6418,38550,15674
6366,38511,15604
6312,38469,15528
6256,38424,15450
6199,38380,15372
6140,38336,15294
6080,38294,15219
6019,38251,15144
5960,38209,15070
5906,38169,14997
5857,38130,14925
5806,38090,14854
5753,38050,14786
5707,38014,14723
5665,37982,14666
5626,37950,14609
5587,37917,14550
5548,37885,14493
5510,37853,14440
5471,37819,14387
5433,37785,14334
5397,37753,14284
5362,37721,14234
5326,37689,14185
5291,37659,14134
5254,37635,14083
5214,37609,14031
5168,37580,13977
5122,37549,13920
5075,37515,13861
5022,37478,13800
4966,37438,13739
4916,37398,13679
4870,37361,13621
4826,37328,13564
4783,37302,13510
4741,37280,13456
4700,37261,13401
4659,37237,13344
4618,37207,13286
4575,37171,13227
4527,37131,13164
4474,37091,13101
4419,37054,13038
4366,37021,12978
4317,36989,12921
4268,36952,12865
4219,36913,12805
4175,36874,12744
4135,36837,12678
4095,36802,12609
4055,36768,12542
4014,36731,12477
3972,36691,12409
3927,36651,12342
3882,36616,12280
3843,36586,12230
3810,36565,12193
3785,36555,12176
3775,36559,12187
3783,36580,12228
3810,36618,12298
3860,36674,12398
3935,36747,12526
4032,36835,12679
4147,36937,12848
4269,37046,13030
4392,37158,13225
4517,37270,13428
4642,37378,13631
4767,37482,13827
4888,37582,14015
5002,37675,14188
5102,37755,14343
5189,37826,14483
5267,37889,14609
5336,37942,14716
5394,37984,14804
5441,38015,14875
5477,38037,14935
5499,38051,14982
5511,38055,15009
5514,38051,15020
5510,38044,15020
5498,38033,15010
5477,38019,14990
5451,38002,14960
5424,37986,14924
5396,37971,14888
5365,37952,14851
5331,37929,14814
5297,37904,14777
5263,37878,14737
5229,37850,14696
5196,37823,14656
5166,37799,14618
5136,37772,14577
5103,37743,14532
5070,37714,14485
5037,37685,14439
5005,37657,14394
4972,37629,14350
4939,37599,14305
4901,37568,14260
4861,37537,14213
4822,37508,14163
4787,37481,14111
4754,37459,14067
4727,37441,14027
4704,37424,13989
4682,37406,13951
4658,37386,13914
4633,37365,13875
4606,37344,13835
4581,37326,13798
4559,37314,13770
4537,37304,13747
4511,37293,13726
4484,37281,13710
4458,37271,13697
4432,37257,13682
4408,37239,13667
4386,37222,13653
4364,37205,13638
4344,37187,13616
4328,37171,13593
4316,37158,13574
4303,37149,13557
4283,37136,13538
4258,37121,13514
4233,37105,13486
4205,37084,13450
4168,37059,13405
4123,37029,13354
4074,36995,13303
4027,36959,13251
3981,36918,13195
3932,36874,13134
3883,36833,13071
3838,36794,13013
3795,36756,12955
3758,36720,12897
3725,36690,12836
3693,36661,12773
3657,36631,12707
3619,36599,12639
3575,36564,12570
3526,36525,12500
3475,36485,12429
3421,36442,12354
3365,36397,12280
3308,36352,12207
3247,36308,12135
3182,36264,12063
3117,36220,11995
3057,36181,11931
3002,36146,11869
2955,36116,11808
2915,36089,11746
2876,36059,11685
2833,36025,11628
2788,35990,11575
2745,35956,11524
2708,35923,11473
2670,35888,11421
2632,35853,11365
2594,35818,11305
2555,35787,11245
2515,35761,11191
2477,35733,11141
2443,35706,11093
2411,35684,11047
2379,35666,11006
2347,35647,10965
2315,35625,10920
2281,35600,10872
2243,35576,10825
2199,35547,10781
2151,35515,10737
2102,35481,10692
2055,35447,10646
2009,35408,10596
1961,35365,10542
1913,35324,10485
1867,35286,10424
1822,35249,10358
1772,35213,10290
1719,35176,10224
1667,35140,10158
1616,35106,10091
1564,35073,10025
1512,35040,9960
1462,35005,9896
1415,34970,9832
1373,34936,9778
1336,34907,9738
1305,34885,9712
1284,34872,9700
1282,34874,9708
1300,34897,9744
1344,34941,9814
1413,35002,9914
1500,35076,10044
1604,35163,10204
1722,35260,10387
1847,35365,10585
1975,35475,10788
2102,35584,10988
2223,35686,11183
2335,35781,11373
2439,35868,11552
2534,35946,11715
2615,36016,11862
2680,36073,11991
2731,36116,12102
2772,36149,12196
2807,36175,12274
2832,36194,12332
2848,36205,12366
2855,36210,12382
2856,36207,12384
2850,36197,12375
2839,36181,12356
2826,36160,12330
2807,36139,12296
2781,36114,12256
2749,36086,12211
2714,36058,12160
2679,36026,12105
2644,35994,12049
2607,35962,11992
2567,35930,11937
2526,35899,11885
2489,35870,11836
2460,35847,11792
2435,35829,11752
2413,35812,11714
2396,35793,11675
2387,35776,11638
2380,35760,11601
2370,35744,11562
2353,35724,11523
2333,35703,11485
2313,35683,11448
2295,35664,11412
2276,35645,11376
2256,35629,11340
2234,35616,11307
2214,35605,11275
2199,35596,11246
2188,35588,11220
2178,35581,11201
2171,35576,11189
2169,35572,11184
2168,35568,11185
2169,35567,11189
2178,35570,11199
2193,35575,11211
2209,35579,11226
2227,35586,11244
2246,35596,11260
2264,35604,11271
2282,35610,11275
2302,35617,11279
2328,35629,11283
2358,35647,11288
2390,35667,11291
2421,35684,11290
2445,35695,11285
2460,35700,11278
2468,35700,11271
2473,35695,11263
2473,35686,11248
2466,35674,11225
2452,35664,11197
2435,35652,11168
2414,35634,11133
2389,35611,11094
2362,35585,11052
2331,35557,11000
2295,35523,10940
2253,35484,10874
2212,35443,10807
2175,35402,10744
2141,35364,10683
2110,35329,10622
2081,35298,10562
2047,35265,10503
2009,35227,10446
1971,35188,10390
1934,35150,10334
1894,35113,10276
1851,35075,10220
1807,35040,10164
1765,35010,10109
1732,34989,10056
1706,34972,10006
1686,34954,9958
1669,34936,9914
1653,34918,9871
1630,34900,9825
1605,34881,9777
1579,34862,9732
1552,34840,9686
1524,34813,9638
1499,34786,9591
1475,34761,9544
1451,34737,9496
1427,34715,9451
1405,34693,9412
1382,34670,9375
1356,34646,9338
1328,34623,9300
1304,34601,9260
1284,34580,9220
1265,34559,9179
1243,34538,9135
1220,34518,9089
1194,34496,9041
1163,34473,8993
1131,34449,8944
1098,34424,8892
1062,34394,8833
1017,34358,8771
965,34320,8710
910,34281,8646
857,34245,8580
807,34212,8518
764,34183,8460
731,34158,8405
708,34137,8357
694,34119,8322
692,34108,8305
706,34110,8312
737,34130,8351
793,34175,8429
875,34245,8545
976,34332,8694
1091,34431,8869
1216,34537,9063
1351,34644,9266
1494,34753,9476
1640,34865,9688
1782,34975,9898
1914,35079,10099
2033,35175,10288
2139,35258,10463
2230,35329,10623
2310,35392,10771
2380,35449,10902
2438,35498,11014
2485,35539,11106
2523,35570,11179
2550,35594,11236
2562,35610,11278
2563,35615,11301
2558,35614,11311
2549,35607,11309
2534,35594,11293
2514,35574,11265
2495,35553,11231
2477,35531,11196
2457,35508,11158
2436,35487,11120
2416,35470,11085
2397,35454,11052
2377,35435,11017
2356,35415,10985
2335,35397,10956
2314,35380,10927
2293,35360,10895
2271,35334,10863
2246,35304,10828
2217,35275,10788
2189,35245,10744
2163,35214,10695
2138,35183,10645
2114,35157,10597
2090,35135,10552
2069,35117,10513
2054,35103,10481
2038,35091,10451
2019,35074,10423
2000,35056,10398
1987,35038,10372
1978,35024,10350
1971,35015,10333
1961,35010,10318
1948,35002,10304
1939,34993,10291
1934,34989,10282
1933,34989,10278
1936,34992,10276
1940,34995,10274
1944,34997,10273
1951,34998,10273
1958,34996,10270
1962,34989,10260
1961,34984,10248
1961,34983,10240
1962,34985,10237
1964,34985,10234
1964,34982,10225
1964,34978,10211
1966,34973,10196
1963,34966,10176
1954,34957,10153
1944,34947,10130
1929,34934,10103
1907,34914,10065
1881,34889,10021
1852,34861,9974
1823,34833,9925
1791,34805,9873
1754,34778,9819
1712,34750,9762
1667,34719,9704
1621,34687,9644
1575,34654,9581
1529,34623,9520
1486,34595,9460
1446,34565,9403
1411,34534,9349
1383,34503,9296
1357,34475,9241
1329,34449,9189
1297,34423,9142
1264,34394,9099
1232,34363,9057
1204,34332,9018
1185,34304,8982
1172,34282,8945
1161,34265,8906
1149,34251,8869
1140,34240,8834
1130,34233,8794
1116,34226,8749
1100,34218,8704
1083,34208,8663
1065,34195,8626
1046,34181,8593
1026,34165,8562
1004,34148,8531
980,34130,8498
952,34108,8458
921,34086,8416
889,34066,8372
857,34047,8324
823,34025,8275
787,34001,8228
750,33975,8183
712,33947,8132
677,33918,8081
646,33887,8033
618,33854,7986
592,33821,7942
566,33790,7898
540,33762,7853
516,33741,7811
494,33722,7771
472,33702,7724
450,33679,7674
430,33657,7627
414,33638,7585
403,33623,7548
399,33612,7525
406,33608,7517
420,33612,7528
446,33630,7560
487,33665,7621
546,33720,7713
621,33792,7835
713,33880,7981
823,33978,8147
948,34086,8332
1085,34199,8533
1226,34315,8745
1368,34429,8962
1506,34542,9172
1640,34647,9372
1768,34741,9568
1887,34824,9759
1993,34898,9941
2087,34964,10104
2173,35023,10248
2248,35075,10375
2310,35120,10484
2356,35157,10573
2388,35184,10642
2406,35202,10695
2415,35209,10730
2417,35209,10747
2418,35207,10752
2418,35203,10747
2412,35194,10730
2399,35180,10704
2380,35164,10675
2359,35151,10643
2338,35139,10610
2314,35124,10576
2292,35107,10545
2279,35093,10520
2275,35080,10497
2276,35070,10475
2281,35065,10459
2286,35066,10446
2286,35067,10431
2283,35067,10414
2278,35066,10394
2273,35062,10374
2267,35052,10349
2260,35038,10318
2256,35023,10286
2252,35009,10255
2246,34997,10225
2236,34987,10191
2225,34978,10158
2214,34970,10128
2201,34958,10103
2189,34946,10086
2181,34939,10076
2180,34936,10070
2183,34934,10071
2190,34933,10079
2200,34935,10089
2210,34941,10098
2217,34949,10109
2224,34958,10124
2234,34968,10137
2249,34976,10147
2267,34983,10157
2285,34989,10166
2301,34997,10174
2315,35006,10181
2327,35011,10187
2336,35017,10189
2345,35022,10186
2351,35025,10180
2352,35025,10172
2349,35021,10161
2341,35013,10144
2326,35001,10120
2305,34983,10092
2284,34964,10063
2264,34945,10030
2243,34926,9992
2216,34902,9952
2184,34874,9911
2148,34847,9867
2111,34823,9821
2074,34801,9773
2038,34775,9724
2005,34744,9673
1968,34709,9621
1929,34676,9570
1890,34647,9517
1853,34620,9460
1816,34592,9401
1777,34563,9338
1740,34535,9280
1709,34512,9230
1680,34488,9189
1650,34465,9154
1620,34441,9119
1591,34418,9085
1561,34397,9052
1531,34375,9019
1502,34358,8987
1476,34342,8954
1450,34323,8917
1426,34302,8877
1406,34281,8836
1391,34264,8798
1374,34249,8760
1356,34236,8723
1338,34222,8689
1318,34207,8653
1296,34187,8614
1275,34164,8573
1258,34141,8533
1246,34124,8500
1233,34108,8475
1216,34093,8453
1197,34075,8432
1174,34057,8412
1146,34037,8388
1116,34017,8359
1087,33999,8322
1062,33982,8280
1038,33966,8237
1015,33948,8196
996,33932,8158
978,33914,8118
953,33893,8073
927,33874,8030
903,33856,7989
880,33837,7947
857,33822,7904
837,33813,7862
816,33803,7820
795,33792,7785
781,33786,7766
783,33788,7767
803,33801,7795
843,33830,7858
905,33875,7952
987,33937,8075
1087,34014,8225
1202,34104,8396
1325,34204,8580
1454,34309,8773
1592,34416,8975
1735,34525,9182
1876,34633,9393
2013,34739,9600
2139,34839,9800
2251,34929,9994
2353,35012,10176
2446,35090,10342
2531,35159,10492
2602,35218,10622
2654,35265,10731
2693,35299,10819
2725,35323,10887
2750,35339,10942
2771,35352,10987
2786,35363,11018
2791,35368,11035
2785,35365,11040
2772,35356,11035
2754,35346,11022
2732,35334,11006
2706,35320,10986
2676,35303,10963
2647,35286,10937
2624,35272,10911
2609,35259,10887
2600,35249,10864
2593,35242,10843
2587,35232,10826
2580,35220,10810
2570,35209,10795
2561,35203,10779
2554,35200,10758
2547,35196,10734
2541,35190,10707
2533,35182,10681
2523,35171,10658
2508,35155,10634
2492,35137,10606
2476,35120,10575
2456,35105,10544
2436,35089,10516
2418,35075,10492
2406,35062,10469
2396,35050,10448
2390,35042,10434
2388,35038,10426
2391,35037,10423
2401,35043,10424
2419,35058,10431
2443,35077,10444
2468,35094,10459
2493,35109,10472
2517,35122,10486
2541,35134,10501
2562,35144,10515
2579,35152,10530
2592,35159,10542
2603,35164,10547
2612,35165,10547
2616,35161,10543
2618,35155,10535
2620,35154,10521
2620,35150,10501
2613,35143,10477
2600,35134,10450
2586,35125,10420
2570,35111,10390
2551,35095,10359
2532,35076,10324
2510,35054,10286
2482,35028,10243
2451,35001,10195
2418,34972,10146
2383,34942,10095
2349,34912,10044
2317,34882,9995
2284,34854,9947
2246,34829,9897
2205,34803,9844
2166,34778,9791
2126,34752,9740
2087,34722,9691
2051,34692,9640
2019,34662,9590
1989,34634,9547
1955,34605,9510
1916,34573,9470
1875,34544,9429
1835,34518,9384
1798,34494,9339
1763,34471,9296
1732,34450,9253
1702,34427,9208
1672,34401,9161
1640,34374,9118
1610,34346,9079
1581,34317,9043
1549,34289,9006
1512,34258,8965
1476,34225,8919
1438,34191,8874
1399,34158,8834
1359,34128,8798
1319,34100,8762
1279,34075,8726
1239,34052,8697
1195,34033,8670
1151,34015,8639
1113,33999,8605
1083,33984,8568
1057,33973,8533
1035,33964,8500
1014,33950,8466
991,33933,8430
967,33912,8389
941,33888,8344
911,33865,8299
878,33841,8251
844,33817,8202
815,33796,8155
787,33778,8109
753,33757,8064
716,33732,8022
685,33708,7985
661,33688,7955
645,33677,7936
641,33682,7935
659,33704,7959
701,33739,8010
762,33787,8090
842,33854,8204
942,33939,8350
1058,34036,8519
1186,34142,8707
1324,34253,8910
1469,34369,9125
1616,34487,9350
1761,34603,9581
1900,34715,9809
2031,34819,10026
2153,34913,10225
2261,34997,10409
2353,35073,10574
2427,35137,10718
2484,35191,10840
2531,35234,10942
2571,35270,11024
2605,35300,11090
2629,35323,11140
2645,35339,11174
2652,35346,11194
2648,35345,11200
2638,35336,11197
2623,35319,11182
2605,35297,11156
2587,35271,11119
2569,35247,11074
2554,35227,11030
2545,35211,10993
2536,35196,10960
2520,35176,10925
2500,35153,10890
2477,35130,10858
2452,35107,10825
2422,35081,10788
2390,35055,10751
2360,35031,10717
2335,35011,10687
2318,34994,10659
2305,34979,10631
2294,34966,10604
2279,34954,10576
2264,34943,10547
2251,34932,10517
2237,34924,10485
2222,34917,10452
2207,34909,10418
2197,34902,10388
2191,34896,10367
2186,34890,10356
2183,34884,10350
2181,34878,10343
2179,34875,10340
2178,34873,10341
2179,34877,10347
2179,34882,10356
2180,34884,10369
2184,34883,10383
2191,34885,10399
2201,34889,10414
2212,34895,10426
2223,34902,10436
2232,34909,10445
2243,34917,10454
2253,34927,10461
2258,34934,10463
2258,34938,10461
2251,34940,10453
2238,34935,10438
2219,34925,10417
2195,34913,10396
2168,34901,10377
2138,34885,10350
2105,34862,10312
2067,34831,10265
2029,34798,10212
1989,34763,10155
1945,34728,10100
1899,34694,10048
1854,34661,9997
1811,34629,9945
1767,34599,9889
1723,34568,9832
1681,34536,9775
1644,34504,9722
1613,34476,9676
1588,34452,9637
1560,34428,9596
1529,34403,9551
1499,34380,9503
1471,34357,9455
1441,34333,9406
1411,34312,9358
1385,34296,9311
1361,34283,9268
1335,34269,9228
1307,34253,9192
1279,34235,9155
1253,34216,9118
1230,34195,9082
1209,34173,9044
1190,34151,9008
1174,34131,8975
1160,34114,8946
1149,34100,8919
1140,34086,8896
1129,34070,8873
1113,34051,8850
1095,34033,8825
1078,34018,8802
1063,34008,8777
1049,33998,8748
1033,33987,8715
1017,33975,8681
1004,33965,8645
992,33957,8608
979,33950,8571
965,33944,8534
949,33935,8498
930,33920,8463
905,33902,8427
878,33883,8393
854,33865,8363
828,33844,8333
798,33820,8297
774,33800,8260
759,33785,8229
752,33776,8208
754,33777,8200
770,33792,8212
808,33822,8253
866,33869,8327
943,33937,8433
1041,34021,8571
1158,34113,8733
1289,34213,8914
1430,34321,9110
1578,34434,9319
1728,34547,9531
1875,34661,9747
2013,34774,9967
2146,34884,10181
2272,34988,10382
2386,35082,10568
2487,35164,10737
2575,35236,10884
2651,35298,11008
2721,35350,11111
2779,35393,11196
2824,35427,11264
2860,35455,11317
2893,35477,11358
2918,35493,11384
2934,35503,11398
2942,35509,11399
2944,35508,11390
2942,35500,11376
2933,35486,11358
2919,35468,11333
2897,35447,11302
2872,35426,11275
2852,35406,11251
2836,35384,11224
2824,35361,11191
2815,35342,11157
2811,35327,11126
2806,35318,11097
2797,35310,11073
2788,35303,11054
2781,35296,11037
2773,35287,11016
2759,35277,10988
2738,35263,10953
2713,35244,10919
2686,35220,10884
2664,35195,10847
2645,35177,10810
2627,35163,10777
2612,35152,10744
2597,35142,10711
2585,35134,10682
2577,35129,10661
2573,35127,10652
2576,35130,10653
2585,35137,10660
2597,35143,10670
2612,35149,10681
2629,35157,10692
2648,35168,10708
2665,35182,10730
2679,35195,10754
2690,35206,10776
2700,35213,10792
2710,35214,10802
2722,35214,10809
2735,35217,10814
2747,35223,10816
2756,35227,10814
2759,35225,10808
2754,35219,10800
2743,35210,10791
2729,35198,10777
2712,35184,10759
2692,35167,10736
2671,35149,10707
2650,35130,10672
2630,35110,10635
2612,35092,10596
2596,35075,10557
2578,35056,10516
2559,35034,10473
2538,35016,10430
2519,34999,10388
2498,34980,10346
2476,34957,10304
2452,34934,10261
2421,34911,10216
2384,34885,10167
2348,34859,10116
2315,34837,10066
2281,34819,10019
2247,34801,9971
2215,34782,9921
2185,34761,9875
2153,34740,9837
2119,34716,9801
2086,34688,9763
2055,34658,9722
2027,34628,9680
2004,34600,9641
1990,34581,9609
1982,34574,9582
1974,34570,9552
1961,34561,9521
1942,34545,9490
1918,34524,9459
1897,34503,9426
1883,34485,9396
1876,34473,9372
1872,34465,9354
1866,34455,9334
1851,34443,9309
1834,34432,9281
1816,34420,9250
1795,34406,9219
1776,34392,9193
1755,34380,9170
1730,34369,9144
1703,34352,9113
1676,34328,9079
1646,34301,9045
1613,34272,9005
1579,34241,8959
1549,34212,8916
1524,34189,8883
1500,34172,8858
1480,34161,8840
1469,34155,8831
1472,34158,8833
1490,34172,8853
1527,34202,8892
1584,34249,8952
1658,34312,9035
1750,34391,9148
1861,34488,9296
1989,34599,9475
2131,34719,9680
2282,34845,9904
2437,34972,10141
2590,35098,10380
2741,35224,10618
2891,35348,10851
3035,35464,11074
3168,35569,11281
3292,35667,11471
3404,35756,11644
3504,35837,11799
3593,35910,11936
3673,35977,12056
3743,36033,12153
3802,36076,12230
3852,36107,12288
3893,36127,12332
3921,36135,12364
3934,36134,12384
3936,36130,12396
3929,36123,12403
3917,36112,12406
3903,36097,12404
3891,36086,12401
3883,36077,12398
3873,36067,12390
3863,36056,12376
3853,36047,12360
3845,36039,12345
3838,36034,12330
3831,36032,12317
3826,36029,12308
3824,36024,12303
3827,36017,12301
3826,36008,12297
3821,35995,12288
3815,35984,12276
3812,35978,12265
3812,35976,12254
3813,35974,12240
3814,35968,12219
3814,35961,12193
3816,35954,12166
3821,35951,12143
3825,35948,12123
3821,35943,12108
3816,35939,12101
3814,35941,12101
3812,35945,12102
3808,35947,12104
3805,35948,12108
3805,35953,12114
3810,35961,12124
3816,35972,12135
3822,35981,12145
3830,35986,12152
3835,35989,12157
3839,35993,12161
3842,36001,12164
3845,36007,12166
3847,36006,12168
3850,36001,12169
3856,35997,12170
3866,35996,12170
3875,35994,12165
3882,35988,12153
3882,35981,12135
3875,35974,12108
3862,35968,12080
3843,35960,12054
3822,35950,12030
3799,35937,12008
3770,35918,11985
3738,35894,11956
3707,35868,11924
3678,35840,11889
3649,35812,11852
3621,35783,11808
3594,35754,11762
3566,35724,11717
3536,35695,11675
3508,35669,11634
3481,35645,11590
3452,35617,11542
3416,35585,11493
3375,35554,11445
3332,35526,11399
3294,35501,11350
3262,35480,11300
3237,35461,11252
3219,35445,11210
3199,35428,11174
3175,35408,11136
3150,35387,11094
3126,35366,11051
3104,35345,11011
3082,35322,10976
3063,35303,10946
3049,35289,10920
3039,35280,10896
3029,35274,10877
3018,35267,10860
3004,35261,10841
2987,35256,10821
2972,35249,10800
2961,35241,10776
2949,35233,10748
2931,35223,10720
2910,35211,10694
2890,35201,10667
2867,35189,10638
2839,35173,10607
2811,35156,10576
2782,35138,10541
2749,35117,10501
2715,35096,10453
2684,35071,10403
2659,35045,10355
2637,35020,10310
2617,34998,10268
2595,34977,10230
2574,34956,10196
2557,34938,10171
2547,34928,10157
2551,34929,10161
2574,34945,10191
2618,34979,10251
2682,35031,10342
2768,35099,10463
2876,35188,10618
3001,35295,10802
3138,35413,11008
3287,35538,11229
3443,35668,11460
3598,35796,11697
3751,35921,11932
3901,36044,12164
4047,36166,12390
4190,36281,12605
4327,36387,12808
4455,36484,13000
4570,36571,13176
4667,36644,13328
4745,36703,13458
4810,36754,13569
4866,36799,13664
4913,36839,13747
4955,36876,13817
4992,36909,13875
5023,36936,13923
5046,36953,13959
5061,36962,13980
5071,36964,13988
5080,36964,13991
5088,36963,13992
5093,36962,13989
5095,36961,13984
5096,36958,13976
5097,36950,13966
5100,36941,13957
5105,36931,13948
5110,36921,13940
5114,36915,13936
5123,36914,13938
5138,36915,13946
5149,36918,13952
5157,36919,13950
5162,36918,13944
5160,36917,13936
5153,36915,13927
5141,36911,13917
5130,36905,13905
5123,36899,13892
5119,36892,13881
5116,36887,13874
5117,36887,13872
5118,36889,13871
5117,36888,13865
5113,36882,13854
5113,36877,13842
5119,36875,13833
5128,36878,13824
5136,36884,13814
5147,36891,13808
5160,36899,13808
5173,36909,13815
5185,36919,13825
5194,36925,13837
5204,36927,13845
5211,36926,13848
5212,36922,13848
5214,36918,13846
5218,36911,13843
5217,36902,13839
5213,36894,13833
5210,36890,13831
5207,36889,13829
5198,36888,13823
5190,36886,13812
5189,36890,13798
5189,36895,13784
5185,36898,13771
5177,36899,13756
5167,36900,13738
5156,36895,13713
5144,36883,13681
5128,36867,13644
5108,36847,13604
5082,36822,13560
5050,36790,13510
5013,36752,13456
4975,36715,13401
4937,36676,13349
4899,36635,13296
4863,36595,13242
4830,36560,13190
4799,36531,13141
4770,36504,13095
4741,36479,13049
4712,36455,13004
4683,36432,12959
4653,36411,12916
4624,36393,12874
4597,36379,12833
4571,36367,12796
4547,36354,12763
4525,36337,12733
4501,36317,12703
4477,36298,12674
4453,36280,12643
4430,36263,12611
4409,36248,12576
4391,36234,12540
4376,36221,12508
4360,36206,12479
4340,36186,12444
4317,36163,12406
4297,36137,12372
4278,36110,12340
4259,36085,12306
4237,36059,12271
4215,36034,12238
4192,36014,12205
4165,35998,12171
4134,35979,12132
4104,35960,12090
4077,35942,12048
4051,35928,12005
4028,35916,11963
4007,35902,11924
3986,35885,11885
3965,35866,11845
3946,35846,11806
3928,35827,11770
3911,35808,11738
3900,35793,11712
3898,35790,11698
3906,35796,11702
3927,35813,11729
3964,35843,11782
4022,35893,11865
4105,35963,11980
4211,36052,12127
4334,36159,12304
4473,36278,12509
4628,36404,12733
4790,36532,12969
4955,36662,13211
5120,36792,13452
5282,36922,13692
5439,37048,13927
5585,37163,14153
5714,37268,14364
5830,37367,14562
5938,37463,14743
6036,37551,14903
6121,37625,15041
6197,37687,15162
6265,37739,15268
6322,37778,15355
6369,37808,15425
6408,37834,15479
6439,37856,15521
6461,37872,15552
6478,37883,15574
6495,37889,15591
6510,37891,15601
6518,37888,15603
6522,37886,15603
6529,37886,15606
6539,37889,15611
6552,37890,15618
6565,37888,15625
6577,37887,15630
6587,37886,15632
6597,37884,15634
6607,37884,15635
6618,37887,15638
6630,37893,15641
6642,37898,15643
6651,37901,15642
6657,37899,15637
6660,37894,15625
6659,37889,15611
6652,37884,15593
6639,37876,15571
6620,37865,15545
6600,37854,15521
6584,37844,15503
6572,37837,15488
6562,37829,15475
6555,37821,15464
6554,37814,15456
6553,37807,15452
6552,37801,15450
6554,37799,15454
6563,37803,15461
6576,37811,15468
6585,37819,15475
6593,37828,15479
6601,37835,15481
6608,37839,15485
6612,37842,15490
6615,37846,15495
6619,37853,15501
6624,37859,15507
6629,37861,15511
6631,37858,15512
6631,37850,15506
6629,37838,15493
6625,37827,15476
6621,37819,15460
6616,37815,15442
6609,37811,15422
6600,37805,15398
6586,37797,15371
6566,37783,15337
6536,37762,15296
6497,37734,15249
6456,37705,15198
6418,37674,15146
6381,37640,15098
6344,37603,15054
6309,37568,15010
6275,37535,14960
6239,37502,14904
6200,37470,14846
6159,37438,14784
6115,37404,14719
6072,37371,14659
6036,37340,14608
6009,37315,14565
5983,37291,14522
5953,37264,14478
5920,37235,14436
5887,37209,14399
5855,37183,14364
5823,37157,14328
5793,37132,14289
5767,37110,14249
5741,37085,14207
5712,37059,14162
5684,37033,14115
5657,37007,14067
5634,36985,14020
5610,36967,13978
5587,36951,13940
5565,36936,13903
5544,36920,13863
5525,36902,13824
5505,36884,13789
5482,36865,13756
5461,36845,13722
5443,36828,13688
5430,36814,13656
5419,36804,13625
5405,36793,13590
5386,36778,13549
5364,36759,13503
5342,36739,13456
5316,36718,13410
5287,36694,13361
5259,36668,13308
5230,36638,13250
5199,36608,13195
5171,36583,13145
5147,36560,13102
5126,36540,13065
5109,36522,13033
5095,36509,13003
5085,36500,12979
5078,36495,12964
5077,36498,12962
5089,36513,12981
5120,36545,13029
5169,36592,13109
5236,36657,13222
5330,36740,13366
5450,36838,13538
5590,36949,13733
5746,37068,13951
5912,37194,14186
6085,37325,14432
6258,37456,14680
6425,37584,14925
6585,37710,15164
6736,37834,15395
6876,37951,15615
7007,38060,15826
7131,38160,16023
7242,38250,16204
7340,38328,16365
7425,38394,16503
7497,38447,16617
7556,38491,16709
7604,38526,16782
7643,38553,16838
7674,38570,16875
7697,38577,16894
7711,38576,16903
7717,38568,16908
7719,38559,16914
7722,38556,16917
7727,38555,16915
7734,38558,16910
7741,38564,16907
7747,38568,16906
7751,38571,16905
7756,38575,16905
7761,38581,16909
7772,38591,16914
7785,38602,16922
7796,38613,16934
7804,38622,16945
7813,38626,16949
7819,38625,16941
7819,38617,16925
7813,38607,16905
7801,38597,16881
7787,38586,16856
7776,38576,16833
7763,38564,16810
7744,38550,16782
7721,38531,16752
7701,38510,16728
7688,38493,16708
7682,38480,16695
7681,38470,16688
7683,38464,16684
7681,38461,16680
7676,38462,16679
7675,38471,16680
7683,38487,16686
7694,38502,16696
7709,38513,16709
7733,38525,16725
7763,38540,16745
7793,38555,16766
7817,38568,16783
7832,38575,16792
7843,38580,16799
7852,38582,16805
7859,38581,16807
7863,38578,16805
7862,38574,16795
7857,38568,16779
7850,38558,16759
7843,38548,16739
7832,38537,16715
7817,38524,16684
7802,38506,16646
7781,38483,16603
7753,38457,16557
7719,38429,16513
7685,38399,16470
7653,38368,16428
7620,38338,16383
7583,38309,16333
7544,38279,16280
7507,38251,16227
7471,38223,16172
7433,38193,16113
7393,38162,16054
7357,38135,15996
7328,38110,15941
7300,38086,15891
7270,38063,15842
7240,38044,15796
7209,38027,15749
7174,38007,15698
7141,37985,15643
7113,37961,15586
7085,37935,15536
7057,37910,15492
7030,37887,15450
7006,37864,15410
6984,37842,15371
6962,37819,15332
6941,37797,15296
6920,37777,15262
6898,37759,15228
6875,37742,15194
6851,37725,15161
6825,37705,15125
6796,37680,15087
6764,37655,15045
6735,37632,15000
6710,37609,14954
6687,37585,14906
6669,37562,14859
6653,37541,14816
6634,37520,14773
6608,37498,14729
6580,37478,14685
6551,37460,14644
6519,37441,14604
6484,37419,14561
6445,37396,14515
6405,37371,14471
6364,37340,14428
6321,37307,14382
6277,37273,14329
6234,37237,14269
6196,37200,14204
6161,37165,14135
6128,37136,14068
6096,37109,14007
6062,37082,13946
6028,37055,13887
5996,37034,13837
5968,37019,13800
5950,37011,13782
5945,37012,13787
5958,37025,13822
5996,37057,13894
6067,37112,14009
6168,37190,14161
6288,37286,14343
6427,37397,14552
6582,37523,14781
6750,37661,15027
6925,37808,15284
7103,37959,15546
7280,38109,15807
7448,38248,16064
7607,38375,16311
7757,38492,16545
7890,38598,16760
8002,38688,16953
8096,38766,17125
8181,38834,17275
8257,38894,17398
8322,38944,17501
8374,38987,17584
8417,39021,17645
8450,39047,17687
8475,39067,17717
8495,39079,17735
8507,39084,17744
8510,39082,17745
8511,39076,17740
8509,39070,17732
8506,39065,17726
8503,39061,17724
8501,39058,17723
8499,39055,17723
8493,39050,17722
8487,39047,17722
8486,39048,17725
8488,39053,17730
8488,39057,17734
8488,39060,17733
8486,39063,17729
8483,39064,17721
8480,39061,17708
8473,39055,17691
8462,39048,17672
8448,39038,17647
8433,39021,17618
8419,39001,17584
8408,38980,17550
8391,38957,17520
8373,38933,17496
8362,38914,17478
8355,38903,17465
8349,38900,17457
8342,38900,17448
8337,38899,17441
8337,38898,17439
8340,38899,17441
8343,38904,17443
8347,38911,17444
8355,38922,17450
8366,38933,17461
8375,38941,17471
8376,38945,17479
8369,38944,17486
8360,38941,17491
8349,38936,17491
8342,38932,17488
8334,38925,17482
8324,38915,17468
8315,38903,17443
8304,38889,17414
8289,38875,17385
8268,38859,17357
8238,38839,17326
8206,38812,17287
8177,38783,17241
8150,38756,17193
8124,38730,17144
8097,38704,17093
8063,38675,17043
8020,38641,16993
7973,38601,16940
7925,38561,16885
7884,38527,16831
7845,38496,16778
7803,38464,16720
7758,38430,16657
7711,38395,16594
7663,38357,16530
7613,38318,16466
7564,38280,16403
7519,38244,16342
7482,38210,16285
7448,38174,16226
7416,38140,16168
7387,38111,16116
7359,38085,16067
7328,38061,16018
7295,38037,15969
7263,38013,15922
7234,37992,15879
7209,37971,15837
7185,37953,15795
7163,37937,15757
7147,37923,15724
7132,37908,15693
7119,37893,15665
7105,37882,15641
7088,37871,15613
7063,37856,15577
7037,37838,15539
7015,37824,15503
6996,37812,15471
6982,37799,15444
6968,37786,15418
6955,37775,15395
6938,37762,15372
6923,37748,15349
6910,37734,15327
6897,37721,15308
6878,37706,15288
6856,37689,15263
6840,37675,15238
6829,37663,15216
6813,37652,15193
6792,37639,15170
6767,37627,15145
6743,37616,15114
6717,37605,15074
6690,37589,15027
6664,37569,14975
6639,37545,14919
6613,37520,14863
6588,37495,14811
6564,37473,14762
6544,37453,14714
6528,37436,14670
6519,37428,14635
6520,37431,14612
6536,37447,14609
6570,37480,14637
6623,37531,14698
6697,37599,14791
6791,37681,14914
6906,37777,15067
7040,37887,15252
7189,38008,15463
7347,38138,15694
7517,38274,15940
7694,38410,16193
7866,38541,16446
8031,38665,16689
8189,38786,16923
8339,38904,17150
8481,39016,17368
8615,39118,17575
8738,39209,17765
8847,39292,17936
8939,39369,18085
9013,39437,18213
9073,39492,18320
9123,39533,18402
9164,39566,18460
9199,39591,18502
9224,39609,18533
9244,39622,18555
9256,39629,18570
9259,39627,18578
9254,39619,18578
9246,39611,18573
9238,39602,18566
9230,39593,18555
9222,39585,18542
9217,39580,18533
9219,39579,18528
9224,39579,18524
9230,39581,18521
9240,39586,18519
9250,39591,18518
9259,39595,18516
9266,39598,18510
9267,39599,18497
9261,39597,18481
9252,39593,18464
9240,39590,18446
9228,39586,18428
9214,39577,18410
9205,39567,18391
9203,39560,18375
9206,39555,18355
9209,39549,18335
9211,39545,18318
9215,39542,18308
9219,39541,18304
9224,39542,18303
9235,39548,18306
9247,39558,18314
9258,39568,18324
9263,39575,18333
9263,39578,18345
9265,39585,18363
9270,39593,18384
9278,39599,18404
9288,39604,18421
9297,39610,18435
9306,39615,18448
9314,39619,18457
9322,39624,18464
9330,39633,18469
9340,39643,18472
9349,39649,18469
9354,39649,18458
9353,39645,18441
9346,39635,18418
9335,39622,18394
9320,39606,18368
9300,39585,18336
9275,39560,18301
9246,39532,18261
9216,39500,18217
9183,39466,18170
9143,39433,18121
9098,39401,18072
9050,39369,18021
9001,39339,17966
8953,39311,17910
8906,39279,17851
8859,39243,17792
8810,39204,17733
8755,39166,17671
8697,39124,17605
8637,39078,17536
8577,39031,17462
8519,38984,17386
8463,38940,17313
8413,38897,17243
8367,38855,17176
8323,38814,17111
8284,38778,17052
8245,38749,16999
8202,38723,16948
8155,38692,16898
8112,38661,16851
8077,38632,16806
8043,38605,16759
8008,38580,16709
7974,38557,16663
7944,38534,16618
7913,38511,16571
7878,38485,16521
7840,38460,16471
7795,38432,16421
7743,38397,16368
7687,38356,16311
7633,38315,16253
7588,38279,16199
7550,38248,16152
7516,38219,16105
7480,38188,16054
7442,38157,16001
7403,38128,15951
7364,38096,15901
7324,38065,15848
7282,38035,15794
7240,38005,15737
7197,37972,15677
7151,37939,15615
7105,37910,15551
7061,37882,15486
7022,37852,15425
6988,37820,15362
6955,37786,15297
6921,37753,15232
6884,37719,15168
6846,37686,15109
6811,37658,15053
6778,37634,15000
6750,37615,14959
6737,37608,14940
6746,37615,14948
6778,37640,14989
6835,37688,15067
6915,37759,15178
7013,37848,15324
7132,37954,15505
7276,38077,15721
7439,38216,15966
7618,38370,16233
7808,38532,16515
8001,38697,16799
8194,38863,17080
8379,39022,17354
8551,39169,17617
8710,39302,17862
8858,39419,18083
8992,39518,18277
9114,39603,18450
9222,39676,18605
9317,39741,18741
9398,39798,18861
9468,39847,18963
9529,39886,19046
9582,39918,19111
9626,39943,19162
9657,39962,19203
9682,39976,19232
9700,39984,19248
9710,39988,19252
9715,39987,19244
9719,39985,19231
9724,39982,19220
9722,39979,19211
9710,39974,19202
9695,39967,19192
9683,39961,19182
9676,39954,19176
9674,39950,19173
9678,39950,19172
9687,39954,19171
9696,39958,19169
9702,39959,19162
9707,39957,19148
9710,39952,19128
9708,39942,19107
9703,39933,19087
9694,39927,19069
9682,39920,19052
9667,39909,19034
9653,39895,19019
9639,39882,19004
9625,39870,18987
9611,39862,18967
9600,39860,18950
9590,39859,18934
9579,39860,18923
9568,39863,18921
9560,39869,18926
9556,39876,18934
9557,39878,18938
9561,39876,18941
9565,39874,18945
9569,39875,18945
9575,39878,18942
9583,39883,18941
9590,39890,18941
9598,39895,18942
9600,39895,18942
9597,39893,18939
9591,39890,18936
9583,39882,18932
9569,39868,18921
9550,39850,18904
9529,39835,18883
9507,39822,18857
9478,39805,18822
9443,39780,18775
9408,39751,18722
9376,39722,18668
9340,39694,18615
9300,39663,18561
9255,39629,18503
9203,39591,18438
9151,39552,18367
9101,39511,18295
9054,39470,18222
9010,39428,18146
8966,39386,18067
8923,39347,17985
8879,39307,17901
8835,39266,17816
8790,39226,17735
8747,39190,17661
8706,39158,17595
8664,39128,17530
8623,39094,17466
8582,39060,17399
8543,39028,17334
8503,38996,17272
8460,38963,17213
8416,38927,17154
8368,38888,17093
8319,38847,17032
8273,38806,16975
8233,38772,16924
8193,38741,16874
8147,38708,16818
8099,38672,16760
8056,38639,16704
8017,38611,16650
7979,38586,16599
7944,38562,16549
7912,38541,16499
7883,38521,16447
7853,38498,16392
7819,38469,16331
7783,38438,16266
7750,38406,16202
7715,38374,16140
7680,38345,16081
7647,38321,16025
7616,38300,15966
7582,38277,15900
7545,38253,15832
7506,38228,15766
7461,38197,15701
7413,38161,15635
7365,38124,15568
7315,38086,15501
7265,38047,15436
7220,38011,15374
7183,37979,15315
7148,37948,15258
7111,37917,15198
7072,37886,15136
7035,37855,15075
7001,37827,15014
6971,37801,14955
6943,37775,14898
6922,37754,14848
6911,37740,14810
6915,37735,14792
6936,37745,14804
6978,37778,14853
7044,37834,14942
7132,37912,15072
7244,38010,15244
7381,38127,15452
7538,38261,15684
7708,38404,15933
7886,38551,16197
8067,38698,16470
8248,38840,16744
8422,38979,17015
8590,39114,17282
8754,39245,17535
8909,39369,17767
9050,39480,17979
9174,39580,18172
9280,39668,18346
9371,39743,18498
9447,39801,18623
9508,39844,18721
9555,39879,18800
9590,39908,18863
9618,39928,18913
9639,39943,18949
9654,39950,18969
9663,39952,18976
9666,39949,18970
9662,39940,18954
9654,39927,18934
9639,39910,18909
9622,39891,18882
9609,39876,18861
9599,39864,18844
9589,39856,18828
9578,39852,18815
9568,39850,18802
9558,39843,18786
9546,39834,18767
9529,39822,18746
9506,39807,18726
9479,39789,18702
9449,39767,18674
9421,39741,18642
9399,39718,18606
9380,39700,18571
9361,39683,18536
9341,39666,18501
9318,39646,18464
9294,39624,18431
9271,39605,18402
9251,39590,18378
9236,39577,18355
9227,39567,18334
9223,39562,18314
9219,39559,18295
9213,39558,18279
9209,39558,18268
9205,39561,18265
9204,39569,18269
9206,39579,18277
9210,39588,18285
9217,39595,18292
9226,39602,18299
9231,39606,18305
9231,39604,18305
9232,39598,18302
9237,39594,18301
9243,39594,18298
9243,39589,18290
9238,39577,18278
9230,39561,18264
9220,39544,18246
9205,39529,18221
9183,39515,18189
9157,39498,18147
9127,39477,18097
9092,39453,18041
9053,39426,17979
9011,39396,17914
8967,39358,17849
8918,39310,17781
8864,39255,17709
8813,39202,17636
8764,39154,17564
8710,39108,17490
8652,39063,17416
8593,39019,17343
8537,38977,17271
8485,38938,17201
8437,38902,17133
8392,38870,17067
8349,38842,17002
8307,38817,16940
8265,38791,16880
8223,38764,16820
8180,38731,16758
8136,38693,16690
8092,38651,16615
8050,38612,16540
8011,38578,16466
7973,38548,16392
7931,38514,16320
7887,38476,16249
7842,38438,16181
7798,38400,16119
7756,38365,16064
7712,38329,16014
7662,38291,15963
7606,38247,15908
7553,38203,15849
7503,38164,15787
7454,38129,15724
7404,38096,15661
7359,38064,15601
7319,38034,15546
7282,38005,15492
7244,37975,15437
7204,37945,15381
7163,37912,15325
7121,37877,15265
7081,37843,15203
7045,37813,15143
7011,37784,15083
6972,37752,15022
6927,37713,14959
6875,37667,14893
6816,37616,14823
6753,37565,14752
6692,37516,14680
6631,37470,14611
6571,37429,14546
6516,37392,14481
6465,37359,14414
6418,37329,14344
6375,37296,14268
6337,37261,14189
6308,37234,14120
6290,37216,14066
6285,37209,14031
6295,37216,14022
6322,37241,14047
6366,37283,14109
6430,37339,14212
6514,37412,14356
6623,37505,14537
6756,37615,14750
6904,37737,14987
7062,37868,15244
7231,38009,15514
7405,38156,15788
7574,38300,16060
7735,38436,16323
7893,38563,16576
8046,38685,16815
8190,38796,17034
8321,38893,17230
8435,38979,17405
8531,39054,17558
8606,39116,17690
8666,39166,17802
8717,39206,17890
8760,39235,17953
8793,39254,17996
8813,39264,18021
8825,39266,18033
8828,39261,18031
8820,39250,18015
8803,39234,17995
8788,39218,17972
8775,39201,17944
8758,39184,17913
8736,39166,17881
8708,39149,17847
8678,39130,17807
8645,39106,17762
8610,39080,17714
8579,39055,17666
8550,39033,17624
8520,39011,17582
8486,38988,17538
8455,38962,17492
8426,38936,17446
8397,38910,17399
8368,38883,17351
8341,38856,17303
8312,38830,17257
8280,38805,17208
8245,38781,17157
8211,38761,17110
8181,38742,17069
8155,38724,17038
8130,38706,17015
8109,38690,16996
8097,38677,16981
8095,38668,16973
8103,38668,16972
8116,38675,16975
8133,38687,16984
8151,38701,16996
8176,38717,17014
8206,38734,17036
8236,38750,17054
8262,38765,17065
8283,38779,17073
8297,38790,17079
8300,38795,17078
8291,38795,17069
8276,38790,17054
8260,38780,17037
8240,38765,17015
8216,38743,16985
8189,38718,16955
8161,38691,16923
8128,38657,16885
8090,38618,16834
8046,38580,16775
8000,38546,16713
7950,38512,16648
7897,38474,16580
7843,38433,16512
7792,38390,16443
7740,38345,16370
7685,38297,16293
7630,38246,16216
7577,38193,16140
7525,38141,16060
7472,38092,15978
7418,38046,15900
7366,38002,15829
7320,37961,15762
7280,37923,15697
7246,37887,15632
7214,37853,15566
7181,37822,15501
7149,37796,15434
7123,37774,15370
7100,37754,15310
7078,37734,15253
7059,37715,15201
7043,37696,15151
7021,37673,15103
6989,37645,15052
6949,37611,14999
6903,37576,14942
6852,37543,14883
6799,37506,14826
6746,37468,14771
6696,37431,14719
6649,37394,14669
6605,37358,14621
6564,37324,14574
6526,37297,14523
6491,37273,14471
6458,37251,14423
6426,37227,14379
6397,37200,14338
6371,37173,14301
6347,37149,14265
6326,37131,14229
6304,37114,14187
6277,37095,14141
6245,37072,14094
6211,37045,14043
6172,37012,13987
6125,36973,13926
6072,36928,13858
6019,36882,13788
5970,36838,13720
5925,36796,13651
5884,36754,13581
5845,36719,13512
5808,36690,13443
5771,36662,13373
5734,36634,13308
5699,36607,13247
5665,36581,13193
5636,36557,13150
5619,36541,13119
5615,36536,13101
5623,36545,13106
5648,36570,13141
5697,36614,13212
5776,36684,13321
5879,36775,13469
6004,36881,13649
6147,37001,13860
6307,37133,14096
6480,37273,14352
6660,37417,14620
6845,37565,14889
7029,37714,15152
7203,37858,15404
7365,37992,15642
7515,38114,15864
7651,38225,16071
7772,38323,16259
7882,38411,16429
7980,38492,16578
8061,38561,16703
8127,38619,16806
8182,38667,16891
8226,38702,16953
8260,38724,16989
8285,38735,17009
8304,38737,17023
8322,38736,17031
8337,38730,17030
8342,38721,17022
8343,38708,17009
8341,38694,16988
8333,38674,16955
8321,38652,16915
8312,38631,16877
8302,38612,16842
8288,38592,16807
8271,38574,16774
8251,38556,16742
8226,38534,16706
8200,38506,16665
8174,38478,16624
8148,38454,16582
8119,38430,16536
8083,38402,16483
8046,38373,16429
8014,38346,16377
7987,38321,16323
7963,38298,16270
7943,38279,16219
7927,38265,16179
7913,38253,16148
7900,38245,16125
7892,38242,16109
7891,38243,16098
7893,38247,16090
7898,38252,16081
7908,38260,16074
7924,38271,16071
7941,38283,16070
7954,38291,16071
7962,38296,16075
7970,38301,16084
7976,38305,16091
7981,38306,16096
7987,38306,16102
7991,38308,16110
7994,38310,16118
7997,38313,16126
8000,38316,16132
7997,38316,16134
7984,38308,16128
7964,38291,16113
7939,38269,16088
7905,38241,16052
7866,38212,16006
7826,38185,15953
7785,38158,15897
7739,38123,15838
7686,38081,15777
7632,38036,15717
7579,37993,15656
7525,37950,15591
7466,37905,15520
7406,37859,15451
7346,37814,15381
7282,37764,15307
7219,37710,15230
7163,37659,15157
7116,37614,15090
7073,37573,15026
7026,37533,14961
6974,37494,14895
6922,37455,14830
6870,37418,14764
6821,37387,14699
6779,37358,14637
6743,37330,14577
6708,37302,14519
6669,37271,14463
6627,37238,14408
6584,37207,14354
6542,37175,14300
6500,37143,14245
6460,37112,14188
6418,37081,14130
6372,37047,14073
6327,37009,14017
6284,36971,13964
6242,36937,13913
6198,36903,13861
6149,36866,13808
6099,36827,13752
6056,36788,13695
6016,36751,13640
5977,36720,13592
5939,36694,13546
5904,36669,13501
5867,36643,13454
5829,36615,13407
5790,36590,13364
5753,36567,13318
5714,36544,13270
5669,36517,13221
5620,36485,13171
5568,36451,13120
5517,36416,13064
5466,36380,13002
5415,36344,12939
5360,36307,12876
5300,36268,12815
5240,36231,12755
5184,36195,12693
5127,36154,12624
5071,36108,12548
5020,36061,12471
4978,36020,12396
4941,35984,12329
4909,35957,12279
4887,35942,12253
4876,35937,12248
4876,35940,12265
4893,35956,12308
4930,35994,12385
4991,36054,12499
5078,36136,12645
5186,36237,12820
5313,36353,13024
5458,36479,13247
5617,36613,13478
5785,36751,13716
5957,36890,13962
6124,37027,14208
6280,37156,14443
6425,37277,14664
6558,37388,14866
6675,37483,15042
6771,37559,15190
6848,37619,15317
6913,37670,15428
6964,37709,15518
7001,37738,15589
7023,37757,15642
7029,37764,15678
7020,37760,15698
7001,37749,15703
6977,37732,15693
6952,37711,15666
6925,37688,15631
6897,37667,15593
6869,37647,15554
6841,37626,15514
6815,37605,15471
6787,37581,15424
6753,37554,15377
6718,37528,15332
6686,37506,15290
6658,37484,15246
6631,37463,15204
6608,37444,15167
6591,37428,15131
6574,37410,15094
6556,37390,15052
6535,37367,15004
6512,37344,14951
6483,37319,14893
6452,37290,14832
6423,37264,14775
6401,37243,14727
6384,37229,14687
6371,37221,14654
6364,37216,14628
6363,37214,14606
6364,37212,14583
6367,37215,14562
6371,37223,14546
6374,37231,14538
6374,37235,14539
6375,37241,14548
6379,37249,14564
6385,37254,14580
6391,37254,14592
6398,37253,14599
6405,37254,14607
6412,37254,14614
6417,37254,14621
6422,37257,14628
6428,37259,14627
6433,37258,14621
6437,37255,14613
6435,37252,14603
6422,37245,14587
6397,37233,14566
6367,37219,14541
6336,37203,14507
6305,37183,14465
6273,37158,14415
6239,37131,14357
6199,37099,14292
6152,37059,14223
6100,37015,14155
6047,36971,14090
5995,36927,14029
5943,36882,13970
5889,36836,13910
5837,36791,13849
5783,36750,13788
5728,36710,13725
5674,36671,13659
5623,36633,13592
5574,36594,13521
5529,36555,13445
5488,36518,13370
5447,36483,13299
5405,36450,13235
5360,36417,13171
5311,36380,13108
5258,36340,13046
5204,36301,12983
5154,36267,12922
5109,36240,12866
5068,36217,12816
5029,36194,12770
4991,36169,12724
4954,36142,12678
4918,36114,12631
4884,36083,12583
4856,36055,12534
4832,36030,12488
4809,36007,12444
4787,35988,12403
4763,35969,12363
4737,35952,12325
4710,35937,12293
4678,35924,12263
4639,35907,12230
4595,35883,12192
4552,35857,12150
4511,35827,12105
4470,35793,12057
4425,35756,12004
4380,35719,11954
4339,35684,11909
4303,35651,11868
4262,35618,11825
4218,35588,11779
4173,35561,11729
4129,35534,11679
4090,35506,11629
4059,35480,11575
4031,35456,11519
4002,35436,11465
3976,35419,11414
3958,35407,11368
3947,35403,11332
3941,35407,11313
3946,35420,11319
3971,35447,11358
4019,35491,11431
4088,35551,11539
4176,35626,11682
4286,35714,11856
4415,35814,12053
4556,35924,12268
4706,36044,12495
4861,36172,12728
5019,36304,12966
5178,36437,13203
5336,36569,13434
5488,36699,13654
5632,36820,13858
5765,36930,14047
5890,37030,14221
6001,37114,14374
6093,37178,14499
6167,37226,14597
6226,37265,14676
6269,37294,14737
6293,37310,14779
6306,37317,14806
6306,37317,14819
6292,37308,14816
6267,37290,14798
6238,37267,14769
6209,37242,14736
6178,37219,14701
6149,37196,14664
6123,37174,14624
6103,37156,14586
6086,37142,14554
6070,37129,14529
6054,37115,14505
6038,37101,14478
6022,37087,14448
6005,37073,14412
5992,37059,14377
5983,37047,14345
5972,37031,14313
5956,37010,14277
5937,36987,14237
5917,36965,14195
5893,36941,14150
5866,36916,14105
5846,36896,14064
5830,36882,14029
5811,36867,14000
5788,36852,13975
5763,36841,13952
5741,36835,13931
5728,36831,13915
5724,36829,13906
5730,36830,13904
5743,36834,13909
5758,36842,13916
5773,36851,13924
5787,36862,13935
5801,36874,13948
5812,36884,13962
5821,36890,13975
5827,36896,13989
5834,36902,14002
5840,36907,14015
5843,36909,14026
5843,36910,14030
5843,36910,14028
5840,36907,14022
5835,36903,14015
5830,36897,14007
5826,36890,13996
5820,36882,13980
5810,36873,13958
5796,36862,13928
5775,36846,13892
5746,36823,13852
5712,36795,13809
5676,36764,13762
5637,36729,13711
5597,36695,13658
5554,36661,13603
5508,36624,13543
5458,36588,13482
5409,36553,13423
5361,36520,13364
5313,36485,13304
5267,36449,13243
5227,36413,13179
5189,36379,13115
5153,36347,13053
5116,36315,12991
5076,36283,12931
5034,36249,12875
4992,36216,12822
4950,36186,12770
4913,36160,12720
4882,36139,12673
4851,36119,12626
4820,36098,12580
4791,36078,12535
4763,36058,12495
4738,36037,12460
4711,36014,12428
4679,35989,12394
4642,35964,12359
4608,35943,12326
4580,35925,12292
4555,35906,12256
4534,35886,12218
4512,35868,12180
4486,35848,12140
4459,35827,12100
4436,35806,12063
4417,35788,12029
4397,35771,11993
4377,35751,11958
4355,35729,11922
4330,35707,11889
4303,35688,11859
4275,35670,11828
4246,35651,11793
4214,35631,11755
4174,35608,11712
4133,35585,11664
4099,35561,11612
4068,35539,11559
4040,35518,11507
4021,35502,11464
4006,35492,11431
3997,35486,11408
3998,35489,11402
4013,35501,11417
4047,35526,11455
4104,35570,11526
4186,35637,11636
4293,35724,11782
4418,35828,11956
4558,35944,12156
4706,36069,12382
4864,36202,12629
5031,36339,12888
5198,36474,13149
5355,36599,13401
5501,36717,13640
5638,36830,13868
5767,36936,14078
5886,37032,14268
5994,37121,14438
6091,37202,14589
6172,37272,14718
6239,37328,14824
6297,37373,14908
6343,37406,14974
6377,37431,15022
6402,37447,15059
6417,37455,15085
6420,37454,15096
6414,37447,15097
6405,37439,15096
6394,37431,15093
6381,37424,15085
6366,37417,15074
6349,37409,15061
6337,37400,15047
6330,37390,15032
6327,37379,15020
6327,37369,15014
6334,37360,15012
6344,37354,15011
6354,37354,15012
6362,37357,15013
6366,37361,15009
6368,37364,15002
6366,37368,14993
6361,37371,14979
6354,37372,14961
6345,37369,14941
6340,37365,14920
6337,37363,14900
6330,37357,14880
6319,37347,14859
6306,37336,14838
6289,37326,14824
6269,37319,14817
6252,37313,14816
6243,37308,14816
6243,37304,14816
6248,37303,14816
6251,37300,14813
6253,37297,14809
6262,37297,14806
6277,37301,14803
6297,37310,14804
6321,37323,14811
6346,37342,14825
6366,37361,14841
6381,37376,14853
6390,37385,14859
6396,37390,14862
6402,37393,14863
6405,37395,14863
6401,37392,14860
6394,37384,14851
6381,37371,14840
6364,37354,14828
6348,37339,14814
6334,37324,14797
6319,37303,14770
6301,37279,14736
6281,37257,14698
6263,37238,14659
6245,37220,14621
6220,37198,14583
6191,37174,14543
6160,37151,14497
6124,37128,14448
6082,37103,14398
6038,37077,14348
5991,37051,14299
5940,37024,14253
5891,36994,14207
5848,36962,14158
5812,36930,14103
5778,36896,14046
5746,36864,13996
5718,36837,13955
5692,36813,13914
5667,36789,13870
5643,36768,13828
5619,36751,13791
5597,36737,13755
5574,36721,13716
5556,36704,13677
5539,36688,13642
5516,36671,13609
5491,36655,13576
5467,36640,13542
5443,36627,13509
5420,36614,13480
5396,36598,13453
5372,36579,13428
5350,36561,13404
5329,36541,13376
5308,36520,13345
5287,36499,13310
5263,36475,13272
5237,36452,13233
5211,36430,13199
5186,36408,13168
5163,36388,13137
5142,36369,13105
5122,36352,13073
5102,36340,13040
5076,36326,13004
5046,36305,12962
5014,36282,12915
4984,36261,12871
4954,36243,12829
4926,36226,12787
4900,36210,12743
4880,36196,12705
4869,36185,12680
4870,36181,12673
4886,36188,12691
4917,36208,12736
4965,36245,12813
5035,36303,12922
5127,36381,13063
5241,36480,13233
5376,36595,13426
5527,36721,13638
5688,36853,13864
5857,36991,14102
6032,37133,14348
6206,37274,14598
6378,37409,14846
6544,37540,15085
6698,37665,15312
6839,37779,15523
6969,37884,15719
7087,37978,15897
7188,38062,16054
7272,38133,16191
7342,38191,16307
7398,38239,16403
7437,38274,16476
7466,38298,16530
7492,38313,16574
7514,38320,16609
7533,38321,16634
7545,38319,16650
7549,38318,16656
7548,38318,16656
7544,38315,16655
7542,38310,16654
7542,38303,16656
7546,38299,16657
7555,38302,16660
7570,38311,16666
7589,38327,16681
7607,38346,16701
7623,38362,16722
7640,38378,16742
7659,38394,16758
7673,38405,16770
7682,38409,16776
7685,38406,16773
7681,38396,16759
7668,38380,16738
7654,38364,16713
7641,38351,16686
7631,38340,16659
7621,38329,16635
7611,38319,16618
7603,38309,16610
7597,38301,16606
7589,38292,16600
7582,38282,16595
7583,38279,16594
7589,38284,16597
7596,38292,16599
7605,38303,16600
7617,38316,16604
7628,38330,16612
7635,38344,16620
7641,38356,16625
7650,38368,16633
7663,38380,16646
7677,38389,16659
7687,38392,16669
7695,38390,16676
7700,38383,16680
7702,38375,16680
7703,38368,16679
7703,38366,16675
7703,38364,16666
7702,38362,16656
7703,38362,16648
7706,38364,16641
7708,38364,16631
7705,38361,16616
7696,38355,16594
7678,38345,16566
7651,38327,16531
7620,38299,16490
7589,38268,16445
7555,38237,16395
7518,38207,16342
7480,38178,16290
7446,38151,16240
7419,38127,16192
7390,38105,16147
7357,38085,16105
7321,38064,16062
7284,38037,16013
7246,38003,15958
7208,37966,15901
7171,37930,15848
7138,37898,15804
7108,37870,15764
7080,37844,15726
7055,37820,15687
7037,37800,15648
7028,37785,15611
7022,37773,15576
7017,37765,15547
7008,37757,15521
6993,37746,15494
6976,37731,15465
6959,37717,15433
6942,37702,15400
6920,37686,15366
6896,37666,15331
6873,37646,15300
6852,37629,15271
6832,37610,15239
6811,37591,15202
6794,37575,15167
6779,37563,15136
6763,37549,15106
6742,37531,15075
6718,37510,15041
6696,37492,15006
6674,37477,14973
6649,37461,14938
6623,37446,14904
6599,37434,14870
6571,37419,14832
6536,37397,14792
6496,37373,14751
6456,37348,14707
6419,37322,14660
6386,37295,14616
6357,37270,14576
6328,37243,14540
6301,37218,14510
6284,37201,14493
6279,37196,14490
6291,37206,14504
6325,37233,14548
6385,37281,14631
6469,37351,14750
6577,37442,14903
6708,37551,15090
6859,37675,15302
7025,37810,15530
7198,37950,15771
7374,38090,16023
7546,38227,16276
7708,38361,16525
7862,38491,16765
8012,38616,16995
8156,38732,17214
8289,38837,17416
8410,38928,17599
8514,39006,17760
8598,39073,17903
8667,39128,18028
8725,39174,18136
8772,39212,18230
8806,39244,18307
8832,39271,18364
8853,39293,18407
8873,39312,18439
8896,39326,18460
8918,39337,18472
8935,39347,18483
8948,39356,18494
8958,39366,18505
8966,39373,18514
8971,39374,18525
8971,39372,18541
8973,39373,18560
8979,39377,18580
8987,39381,18601
8995,39384,18621
9002,39389,18640
9009,39394,18653
9015,39394,18658
9019,39389,18655
9020,39383,18648
9018,39378,18640
9016,39374,18633
9014,39370,18625
9013,39367,18614
9011,39364,18600
9005,39359,18584
8997,39355,18565
8990,39351,18546
8984,39346,18526
8977,39335,18505
8969,39323,18487
8962,39314,18476
8958,39309,18472
8959,39307,18474
8964,39310,18476
8971,39315,18477
8975,39318,18476
8979,39320,18474
8985,39327,18479
8995,39337,18488
9008,39348,18503
9024,39363,18522
9044,39382,18545
9066,39402,18569
9084,39418,18586
9096,39427,18597
9106,39431,18604
9113,39430,18603
9112,39425,18597
9102,39417,18584
9089,39410,18567
9071,39398,18547
9045,39379,18521
9014,39354,18490
8983,39328,18458
8954,39302,18424
8923,39274,18383
8894,39247,18334
8869,39226,18284
8843,39205,18236
8814,39182,18185
8782,39159,18136
8754,39139,18093
8728,39118,18055
8701,39094,18014
8672,39067,17968
8640,39040,17920
8604,39013,17875
8565,38986,17829
8527,38958,17781
8490,38930,17728
8456,38904,17675
8423,38881,17626
8393,38864,17581
8363,38848,17542
8333,38828,17508
8303,38804,17473
8278,38783,17439
8258,38767,17408
8239,38752,17379
8219,38734,17351
8198,38715,17327
8176,38697,17306
8150,38678,17282
8119,38656,17256
8089,38634,17228
8061,38614,17195
8035,38596,17157
8008,38578,17117
7980,38559,17079
7949,38538,17041
7914,38514,17004
7881,38489,16969
7850,38467,16933
7821,38447,16895
7798,38431,16852
7786,38420,16809
7782,38413,16768
7773,38404,16726
7755,38389,16681
7730,38370,16634
7701,38352,16587
7671,38332,16540
7641,38310,16494
7610,38286,16450
7579,38260,16404
7549,38236,16359
7520,38213,16316
7487,38187,16271
7453,38158,16222
7422,38126,16173
7395,38097,16133
7376,38075,16106
7370,38063,16101
7385,38070,16125
7424,38102,16183
7488,38159,16274
7570,38236,16399
7670,38327,16559
7788,38430,16748
7929,38549,16963
8090,38681,17196
8260,38817,17439
8434,38952,17685
8609,39090,17932
8780,39227,18176
8940,39359,18413
9090,39487,18643
9231,39608,18863
9360,39720,19066
9470,39814,19246
9561,39890,19406
9637,39950,19549
9696,39995,19674
9743,40032,19781
9784,40062,19874
9824,40086,19949
9859,40106,20007
9887,40125,20052
9911,40144,20087
9932,40162,20116
9950,40178,20136
9964,40191,20146
9974,40197,20150
9981,40200,20151
9988,40204,20153
9997,40211,20158
10007,40217,20162
10015,40220,20165
10022,40223,20167
10028,40226,20172
10036,40232,20185
10046,40241,20205
10054,40251,20228
10066,40262,20247
10080,40272,20261
10091,40278,20264
10097,40277,20257
10096,40269,20241
10090,40252,20219
10079,40232,20194
10067,40212,20167
10050,40195,20137
10030,40179,20107
10011,40165,20082
9988,40152,20056
9967,40141,20030
9955,40136,20011
9952,40138,20001
9954,40140,19996
9956,40142,19998
9958,40146,20005
9961,40153,20013
9970,40161,20022
9984,40172,20034
10002,40184,20052
10017,40192,20069
10027,40198,20084
10033,40207,20098
10038,40217,20109
10042,40220,20113
10045,40215,20106
10044,40207,20098
10041,40199,20090
10036,40191,20081
10028,40183,20068
10013,40175,20050
9996,40163,20026
9977,40148,19998
9954,40132,19969
9928,40117,19941
9900,40099,19910
9866,40077,19875
9829,40050,19838
9792,40017,19800
9758,39982,19758
9723,39951,19712
9685,39922,19664
9652,39898,19621
9626,39878,19583
9599,39859,19544
9566,39835,19500
9532,39810,19456
9504,39786,19413
9480,39762,19367
9457,39737,19318
9433,39712,19263
9402,39686,19206
9362,39656,19149
9318,39621,19096
9278,39587,19043
9243,39555,18987
9211,39527,18935
9183,39505,18889
9158,39485,18847
9130,39463,18807
9098,39441,18768
9063,39419,18731
9025,39395,18697
8987,39369,18662
8949,39345,18627
8912,39322,18587
8876,39299,18545
8842,39276,18504
8808,39254,18466
8775,39234,18430
8743,39214,18396
8709,39193,18359
8676,39172,18321
8648,39156,18284
8626,39143,18250
8609,39130,18215
8594,39116,18179
8578,39097,18143
8563,39077,18108
8546,39055,18069
8525,39035,18028
8503,39017,17988
8480,38997,17947
8455,38977,17904
8430,38962,17863
8400,38943,17819
8359,38916,17765
8313,38882,17706
8266,38844,17646
8219,38803,17586
8168,38756,17526
8116,38709,17469
8067,38666,17415
8024,38628,17367
7987,38600,17325
7955,38583,17293
7934,38576,17278
7931,38582,17290
7949,38603,17326
7990,38642,17389
8059,38705,17486
8152,38791,17618
8266,38895,17782
8402,39015,17973
8554,39147,18184
8720,39289,18410
8893,39433,18649
9067,39573,18895
9242,39709,19146
9410,39840,19395
9567,39963,19634
9707,40075,19860
9835,40177,20073
9950,40271,20272
10053,40353,20449
10144,40425,20602
10224,40488,20735
10294,40543,20852
10359,40593,20956
10415,40634,21044
10462,40666,21112
10497,40689,21163
10521,40702,21199
10540,40712,21224
10557,40723,21243
10571,40733,21256
10578,40736,21265
10582,40736,21271
10584,40734,21277
10587,40731,21282
10593,40727,21282
10603,40728,21280
10610,40736,21280
10616,40744,21280
10622,40748,21280
10628,40748,21284
10631,40751,21293
10633,40754,21304
10636,40757,21311
10641,40760,21314
10649,40763,21310
10653,40763,21297
10651,40761,21282
10645,40758,21269
10636,40754,21255
10626,40748,21236
10616,40739,21214
10609,40728,21191
10605,40718,21170
10601,40712,21153
10598,40709,21137
10598,40705,21119
10598,40699,21103
10596,40692,21091
10588,40685,21084
10579,40681,21084
10576,40681,21086
10580,40684,21091
10590,40692,21100
10603,40704,21115
10614,40715,21132
10617,40722,21144
10612,40725,21151
10605,40725,21157
10595,40724,21160
10582,40720,21157
10574,40714,21148
10571,40708,21136
10571,40703,21122
10566,40698,21109
10558,40691,21098
10547,40679,21083
10534,40664,21061
10521,40653,21034
10511,40645,21009
10502,40637,20983
10490,40625,20950
10472,40611,20914
10448,40596,20878
10419,40577,20841
10384,40553,20798
10345,40523,20750
10305,40491,20699
10265,40457,20643
10225,40422,20584
10190,40389,20524
10158,40357,20467
10124,40326,20413
10088,40295,20362
10052,40265,20309
10017,40235,20257
9979,40205,20207
9944,40176,20160
9911,40149,20115
9879,40120,20072
9852,40092,20029
9828,40066,19985
9803,40043,19937
9778,40023,19887
9751,40004,19836
9722,39983,19782
9694,39961,19727
9668,39940,19674
9646,39920,19626
9624,39901,19581
9600,39881,19541
9578,39861,19508
9558,39841,19480
9539,39819,19453
9521,39800,19429
9503,39783,19405
9484,39763,19376
9460,39742,19341
9434,39723,19304
9408,39710,19268
9382,39698,19233
9351,39687,19197
9321,39676,19162
9294,39665,19123
9268,39649,19078
9239,39628,19026
9205,39603,18973
9166,39574,18917
9127,39543,18862
9084,39512,18809
9041,39481,18758
8995,39450,18708
8947,39419,18654
8898,39386,18594
8846,39351,18532
8796,39313,18471
8750,39273,18410
8707,39234,18347
8668,39197,18287
8632,39161,18229
8596,39125,18170
8562,39094,18118
8534,39070,18077
8515,39056,18048
8505,39051,18036
8512,39062,18049
8541,39094,18097
8594,39147,18181
8667,39217,18298
8759,39304,18447
8869,39404,18627
8992,39515,18834
9124,39636,19061
9268,39766,19302
9424,39904,19552
9582,40044,19804
9737,40179,20056
9889,40307,20301
10038,40427,20534
10178,40539,20752
10305,40639,20953
10416,40726,21136
10511,40802,21298
10589,40865,21437
10650,40914,21551
10700,40949,21644
10739,40975,21718
10766,40993,21775
10782,41004,21819
10792,41008,21850
10794,41007,21868
10792,41001,21875
10787,40993,21875
10777,40986,21871
10767,40979,21863
10759,40970,21849
10745,40958,21829
10727,40945,21809
10708,40933,21791
10691,40924,21777
10682,40920,21774
10681,40922,21779
10688,40927,21788
10699,40932,21797
10709,40938,21804
10717,40946,21812
10721,40955,21811
10717,40959,21799
10709,40958,21779
10700,40953,21753
10685,40940,21724
10665,40920,21692
10644,40900,21660
10625,40882,21628
10608,40868,21600
10590,40855,21573
10573,40845,21549
10560,40839,21531
10550,40836,21519
10540,40834,21510
10533,40832,21503
10524,40827,21496
10515,40820,21489
10509,40814,21482
10506,40813,21480
10501,40814,21484
10495,40814,21489
10489,40809,21492
10486,40803,21493
10489,40801,21495
10493,40800,21497
10498,40800,21496
10501,40797,21492
10501,40795,21488
10502,40794,21484
10500,40791,21472
10494,40785,21456
10489,40779,21439
10481,40771,21415
10467,40760,21381
10445,40743,21342
10413,40718,21298
10371,40688,21251
10326,40660,21203
10285,40634,21157
10248,40608,21110
10214,40581,21061
10183,40555,21013
10148,40527,20962
10112,40496,20908
10077,40467,20854
10043,40439,20801
10011,40412,20748
9976,40383,20694
9941,40355,20640
9910,40328,20588
9881,40303,20538
9850,40278,20490
9820,40253,20446
9794,40232,20407
9771,40212,20366
9746,40190,20318
9716,40166,20262
9681,40140,20204
9644,40113,20145
9606,40086,20087
9571,40058,20032
9538,40034,19982
9508,40014,19939
9479,39995,19904
9448,39975,19874
9419,39957,19848
9392,39940,19825
9368,39921,19799
9339,39901,19767
9309,39880,19730
9284,39859,19691
9258,39836,19650
9228,39814,19605
9191,39794,19557
9152,39772,19505
9113,39746,19455
9074,39718,19407
9040,39690,19363
9007,39662,19318
8973,39634,19270
8937,39607,19222
8900,39579,19175
8860,39549,19125
8821,39518,19074
8784,39487,19023
8749,39455,18971
8717,39425,18919
8689,39399,18870
8664,39376,18822
8640,39352,18776
8613,39328,18732
8581,39302,18686
8543,39272,18635
8503,39240,18578
8461,39204,18517
8418,39170,18458
8381,39143,18407
8356,39127,18370
8345,39124,18351
8350,39137,18356
8372,39166,18386
8414,39213,18447
8477,39277,18540
8559,39355,18662
8660,39445,18810
8777,39546,18984
8910,39658,19182
9053,39778,19397
9205,39906,19626
9363,40038,19861
9520,40164,20091
9674,40284,20314
9824,40398,20526
9966,40508,20727
10097,40612,20916
10216,40708,21091
10321,40795,21249
10410,40870,21393
10478,40930,21515
10525,40975,21612
10560,41012,21690
10588,41040,21752
10606,41054,21793
10616,41056,21817
10623,41052,21830
10622,41047,21835
10617,41039,21832
10611,41030,21822
10602,41018,21808
10585,41002,21791
10564,40986,21773
10543,40972,21753
10522,40956,21734
10504,40939,21715
10490,40922,21695
10478,40906,21675
10467,40895,21661
10456,40888,21646
10443,40885,21632
10426,40882,21618
10405,40876,21602
10383,40866,21581
10363,40849,21555
10347,40830,21524
10330,40811,21488
10305,40787,21447
10276,40760,21405
10246,40737,21363
10217,40716,21325
10189,40698,21288
10168,40685,21258
10158,40678,21238
10155,40673,21224
10152,40669,21210
10148,40666,21196
10146,40667,21184
10148,40671,21176
10152,40676,21171
10157,40680,21168
10161,40686,21168
10164,40690,21169
10167,40692,21172
10172,40694,21181
10177,40697,21190
10180,40700,21195
10183,40705,21195
10184,40709,21191
10181,40707,21183
10171,40698,21169
10157,40685,21152
10138,40672,21134
10113,40659,21113
10080,40645,21087
10044,40627,21053
10010,40607,21010
9981,40586,20960
9952,40561,20905
9920,40530,20845
9884,40494,20786
9846,40459,20731
9811,40427,20680
9778,40398,20628
9742,40369,20573
9703,40336,20511
9664,40299,20445
9624,40259,20377
9581,40220,20308
9537,40180,20237
9493,40142,20167
9451,40107,20100
9413,40076,20036
9376,40046,19972
9337,40013,19910
9294,39978,19847
9252,39942,19784
9215,39909,19727
9181,39883,19676
9145,39863,19629
9107,39847,19586
9068,39829,19547
9027,39805,19505
8988,39777,19462
8955,39748,19422
8926,39722,19383
8900,39698,19344
8873,39673,19305
8845,39649,19264
8817,39628,19220
8792,39611,19169
8768,39596,19112
8745,39580,19054
8719,39559,18998
8687,39532,18944
8649,39502,18891
8607,39470,18836
8561,39435,18780
8516,39401,18730
8472,39369,18685
8427,39335,18643
8383,39299,18599
8343,39267,18552
8306,39242,18505
8266,39221,18460
8222,39201,18416
8179,39178,18369
8141,39151,18314
8103,39120,18254
8066,39088,18192
8032,39056,18134
8000,39025,18080
7965,38998,18029
7924,38968,17978
7881,38935,17927
7837,38901,17874
7791,38863,17815
7742,38818,17750
7690,38772,17680
7638,38731,17611
7588,38699,17549
7543,38676,17497
7511,38661,17459
7495,38658,17444
7501,38673,17455
7528,38703,17496
7576,38752,17573
7649,38822,17690
7750,38909,17844
7872,39009,18026
8009,39122,18231
8157,39244,18452
8320,39370,18682
8491,39498,18917
8660,39626,19150
8821,39755,19377
8973,39879,19597
9118,39996,19810
9255,40108,20011
9380,40212,20197
9489,40305,20366
9586,40386,20515
9673,40456,20643
9751,40515,20746
9816,40563,20830
9866,40598,20899
9903,40624,20958
9928,40643,21004
9943,40653,21035
9954,40656,21056
9958,40656,21069
9958,40653,21074
9955,40650,21071
9953,40648,21063
9953,40650,21054
9956,40654,21050
9959,40657,21052
9960,40657,21056
9956,40653,21056
9950,40648,21053
9948,40647,21049
9950,40652,21047
9952,40658,21047
9953,40660,21046
9947,40656,21042
9933,40645,21034
9918,40633,21021
9903,40621,21004
9889,40612,20983
9876,40604,20959
9866,40597,20936
9857,40588,20915
9850,40579,20893
9844,40570,20869
9839,40561,20848
9834,40554,20830
9829,40548,20814
9826,40546,20799
9825,40547,20787
9822,40547,20774
9815,40542,20759
9806,40538,20749
9799,40537,20742
9795,40537,20732
9792,40537,20722
9794,40538,20714
9801,40540,20706
9804,40536,20697
9803,40528,20690
9803,40523,20685
9803,40521,20681
9804,40520,20680
9801,40517,20678
9793,40512,20670
9779,40505,20653
9756,40494,20630
9723,40476,20606
9685,40454,20582
9644,40430,20552
9605,40405,20521
9564,40378,20488
9521,40351,20448
9476,40319,20397
9429,40282,20337
9384,40241,20276
9340,40199,20217
9295,40158,20159
9248,40117,20099
9200,40077,20037
9153,40038,19973
9109,39999,19907
9064,39958,19837
9015,39914,19765
8968,39872,19694
8925,39835,19625
8882,39802,19560
8841,39772,19500
8802,39744,19444
8761,39718,19389
8718,39693,19337
8678,39671,19288
8640,39647,19241
8600,39620,19197
8563,39595,19156
8531,39570,19111
8501,39541,19059
8467,39506,19002
8425,39471,18944
8383,39440,18886
8342,39412,18831
8304,39384,18779
8268,39355,18732
8234,39328,18688
8203,39303,18643
8172,39279,18600
8140,39256,18560
8108,39232,18518
8078,39209,18474
8047,39184,18431
8015,39158,18391
7980,39133,18351
7944,39109,18304
7906,39083,18253
7865,39056,18201
7826,39028,18148
7786,38998,18093
7745,38969,18039
7703,38941,17990
7661,38912,17941
7619,38882,17884
7578,38852,17823
7541,38826,17763
7503,38796,17700
7457,38759,17632
7407,38717,17562
7359,38674,17493
7314,38633,17426
7271,38595,17361
7225,38559,17297
7181,38527,17237
7137,38498,17178
7090,38469,17116
7041,38438,17054
6995,38409,16998
6954,38384,16950
6915,38362,16908
6879,38344,16876
6854,38335,16864
6850,38340,16886
6872,38364,16945
6921,38410,17041
7000,38483,17176
7107,38579,17345
7233,38690,17536
7376,38814,17743
7536,38948,17962
7705,39089,18189
7874,39228,18418
8041,39359,18644
8201,39482,18864
8352,39597,19072
8489,39701,19266
8611,39792,19447
8718,39871,19613
8812,39940,19762
8894,40003,19892
8964,40060,20007
9026,40109,20106
9078,40150,20185
9122,40183,20245
9157,40209,20291
9183,40226,20326
9194,40233,20347
9195,40232,20355
9197,40230,20355
9201,40228,20348
9198,40225,20341
9187,40219,20334
9173,40212,20324
9159,40203,20315
9143,40191,20307
9129,40179,20300
9115,40170,20293
9103,40161,20290
9095,40156,20288
9092,40156,20286
9093,40160,20283
9097,40163,20278
9105,40162,20267
9116,40161,20253
9127,40159,20239
9134,40158,20226
9137,40157,20211
9136,40154,20190
9127,40146,20163
9112,40134,20133
9096,40120,20104
9080,40106,20080
9062,40092,20059
9044,40082,20040
9029,40077,20025
9017,40073,20013
9005,40066,20001
8993,40058,19990
8976,40048,19977
8957,40040,19964
8943,40037,19952
8937,40039,19942
8937,40040,19933
8938,40041,19926
8943,40042,19920
8949,40045,19914
8956,40049,19907
8958,40052,19903
8956,40055,19899
8947,40051,19892
8930,40040,19880
8913,40024,19864
8895,40003,19841
8877,39978,19812
8860,39951,19780
8844,39925,19746
8826,39905,19709
8802,39886,19670
8774,39869,19628
8740,39853,19584
8698,39834,19536
8653,39810,19482
8609,39784,19428
8565,39759,19375
8519,39730,19322
8473,39696,19264
8429,39656,19204
8388,39616,19143
8350,39578,19082
8310,39537,19019
8268,39493,18956
8230,39455,18895
8194,39422,18836
8155,39391,18776
8114,39360,18718
8076,39332,18660
8041,39306,18599
8007,39281,18539
7977,39260,18484
7948,39236,18432
7912,39204,18379
7871,39171,18329
7829,39142,18279
7787,39113,18222
7748,39084,18163
7714,39055,18108
7681,39025,18058
7647,38996,18011
7616,38970,17965
7584,38945,17919
7550,38919,17871
7519,38894,17821
7489,38872,17772
7461,38849,17722
7432,38824,17671
7401,38798,17618
7369,38768,17560
7334,38740,17502
7299,38716,17448
7267,38694,17396
7238,38675,17347
7210,38658,17301
7183,38642,17259
7153,38625,17219
7121,38606,17178
7088,38583,17137
7053,38557,17095
7012,38525,17050
6965,38491,17000
6914,38457,16950
6864,38425,16902
6818,38397,16851
6773,38368,16792
6726,38336,16728
6683,38304,16660
6646,38273,16592
6610,38240,16523
6572,38205,16455
6534,38174,16389
6491,38143,16320
6442,38109,16249
6393,38071,16182
6350,38035,16123
6316,38006,16076
6292,37987,16044
6280,37979,16033
6286,37984,16046
6313,38008,16089
6364,38054,16167
6439,38119,16284
6534,38199,16438
6647,38292,16618
6773,38398,16820
6914,38517,17040
7069,38645,17269
7229,38778,17501
7385,38910,17733
7539,39038,17961
7688,39162,18180
7827,39276,18385
7951,39378,18571
8062,39469,18737
8160,39548,18885
8243,39610,19015
8313,39661,19126
8375,39706,19221
8427,39744,19302
8466,39772,19367
8494,39791,19416
8518,39805,19449
8535,39816,19468
8543,39822,19477
8547,39824,19479
8552,39827,19479
8558,39832,19476
8553,39833,19470
8536,39828,19459
8518,39818,19446
8505,39806,19433
8493,39792,19416
8479,39778,19398
8467,39768,19384
8459,39763,19373
8450,39756,19359
8442,39746,19343
8433,39737,19327
8423,39725,19310
8413,39711,19290
8402,39695,19270
8391,39683,19249
8383,39675,19226
8375,39670,19199
8363,39661,19170
8347,39648,19140
8329,39634,19107
8310,39620,19073
8293,39610,19046
8279,39601,19029
8264,39592,19015
8249,39583,19000
8234,39574,18984
8224,39567,18968
8218,39561,18950
8216,39558,18933
8218,39558,18923
8223,39561,18916
8227,39562,18907
8229,39558,18894
8233,39553,18881
8242,39552,18870
8250,39554,18862
8254,39558,18852
8253,39563,18843
8251,39568,18834
8245,39569,18821
8234,39566,18804
8221,39561,18785
8206,39552,18763
8190,39540,18736
8174,39526,18707
8155,39508,18678
8132,39484,18645
8103,39457,18606
8072,39433,18564
8040,39412,18523
8005,39390,18480
7966,39364,18433
7926,39337,18380
7887,39303,18325
7848,39266,18268
7808,39229,18214
7762,39192,18157
7709,39152,18092
7652,39108,18021
7598,39060,17953
7549,39016,17886
7503,38976,17819
7455,38941,17753
7408,38909,17688
7364,38880,17623
7324,38853,17558
7283,38824,17495
7239,38793,17434
7196,38760,17374
7153,38726,17312
7112,38692,17252
7071,38660,17192
7026,38626,17133
6978,38591,17071
6932,38554,17007
6889,38519,16947
6845,38483,16891
6798,38445,16835
6748,38405,16775
6700,38365,16719
6654,38325,16667
6605,38287,16616
6549,38249,16566
6494,38215,16516
6446,38186,16466
6401,38159,16412
6357,38132,16358
6317,38105,16304
6277,38077,16251
6233,38045,16194
6184,38010,16134
6133,37974,16073
6083,37937,16013
6032,37897,15950
5979,37853,15885
5925,37808,15820
5868,37765,15757
5811,37728,15696
5756,37691,15632
5702,37654,15565
5651,37616,15497
5599,37576,15428
5546,37535,15360
5493,37495,15292
5445,37457,15224
5398,37418,15152
5344,37375,15080
5286,37329,15011
5229,37284,14947
5178,37245,14892
5137,37218,14857
5109,37205,14840
5098,37203,14840
5104,37215,14856
5133,37245,14897
5183,37293,14967
5254,37360,15067
5345,37443,15197
5451,37543,15357
5571,37660,15546
5707,37788,15761
5856,37918,15993
6007,38045,16231
6154,38168,16468
6297,38288,16699
6436,38404,16922
6569,38514,17134
6695,38614,17330
6808,38701,17503
6905,38775,17654
6988,38842,17786
7060,38900,17903
7119,38947,18004
7166,38984,18086
7203,39011,18147
7234,39029,18191
7257,39038,18220
7267,39039,18232
7264,39035,18231
7257,39029,18220
7251,39023,18204
7243,39015,18186
7235,39006,18165
7228,38996,18142
7217,38982,18118
7201,38963,18094
7181,38943,18070
7157,38926,18047
7132,38909,18024
7111,38894,17999
7095,38885,17975
7082,38881,17953
7066,38879,17928
7048,38873,17899
7027,38865,17865
7004,38851,17826
6978,38830,17785
6951,38806,17744
6924,38785,17705
6896,38764,17668
6867,38743,17634
6838,38723,17604
6811,38703,17576
6787,38684,17551
6765,38663,17526
6750,38645,17500
6741,38630,17475
6734,38615,17453
6723,38605,17434
6714,38602,17420
6707,38607,17409
6704,38617,17402
6703,38627,17397
6705,38633,17391
6704,38633,17382
6699,38630,17372
6691,38625,17364
6680,38617,17359
6667,38609,17352
6653,38604,17342
6639,38600,17328
6624,38593,17313
6608,38585,17298
6593,38580,17286
6580,38576,17273
6567,38568,17253
6550,38550,17225
6528,38524,17186
6504,38494,17138
6477,38465,17087
6444,38436,17035
6408,38407,16983
6374,38380,16931
6341,38355,16877
6307,38329,16819
6269,38302,16755
6228,38270,16687
6184,38235,16615
6137,38198,16541
6088,38161,16468
6041,38125,16397
5999,38088,16329
5955,38051,16261
5906,38010,16190
5855,37966,16121
5802,37920,16053
5745,37875,15984
5688,37832,15912
5634,37791,15840
5580,37752,15774
5522,37714,15715
5462,37674,15658
5408,37630,15600
5357,37584,15541
5305,37541,15482
5250,37500,15425
5199,37464,15368
5157,37434,15313
5118,37402,15261
5078,37369,15209
5035,37337,15155
4991,37308,15100
4948,37281,15044
4905,37249,14982
4863,37216,14918
4819,37182,14855
4775,37148,14790
4734,37117,14730
4699,37092,14681
4671,37075,14642
4645,37058,14608
4616,37036,14573
4586,37010,14534
4551,36982,14492
4508,36952,14448
4459,36922,14401
4407,36892,14350
4355,36859,14297
4301,36823,14241
4244,36782,14177
4184,36741,14108
4120,36698,14037
4053,36654,13965
3988,36609,13889
3931,36568,13816
3883,36532,13748
3840,36495,13685
3798,36456,13624
3759,36421,13568
3724,36394,13524
3693,36374,13493
3671,36364,13475
3663,36369,13476
3675,36389,13504
3706,36424,13562
3761,36479,13649
3841,36554,13766
3943,36643,13914
4064,36746,14091
4200,36859,14294
4346,36979,14515
4500,37104,14747
4658,37231,14987
4816,37357,15231
4969,37480,15469
5111,37593,15693
5242,37699,15899
5364,37798,16086
5471,37886,16251
5558,37957,16393
5625,38013,16514
5681,38058,16614
5727,38095,16693
5760,38120,16752
5778,38138,16795
5786,38150,16821
5784,38152,16827
5773,38145,16816
5760,38132,16793
5745,38115,16762
5726,38098,16728
5702,38080,16693
5677,38063,16658
5651,38046,16620
5622,38027,16580
5593,38005,16542
5566,37983,16503
5545,37962,16461
5526,37942,16422
5507,37922,16387
5489,37902,16357
5473,37885,16328
5457,37869,16297
5441,37854,16264
5426,37840,16229
5411,37825,16193
5392,37808,16153
5365,37788,16109
5333,37765,16059
5299,37740,16006
5269,37717,15958
5242,37697,15914
5216,37679,15875
5192,37664,15845
5172,37651,15819
5156,37640,15797
5140,37628,15780
5121,37615,15767
5102,37602,15754
5089,37591,15741
5085,37586,15730
5088,37589,15723
5099,37598,15718
5119,37611,15720
5140,37623,15728
5156,37635,15738
5169,37645,15746
5179,37651,15750
5189,37652,15750
5197,37653,15749
5202,37652,15749
5203,37652,15749
5201,37654,15748
5197,37656,15746
5189,37654,15736
5177,37643,15715
5158,37626,15681
5130,37600,15634
5097,37567,15578
5062,37531,15518
5026,37492,15455
4985,37447,15386
4940,37402,15316
4895,37361,15249
4852,37326,15182
4814,37293,15114
4777,37263,15048
4740,37231,14985
4700,37199,14923
4656,37164,14860
4610,37126,14793
4563,37086,14721
4515,37045,14645
4470,37007,14567
4426,36973,14494
4383,36944,14430
4341,36918,14370
4300,36890,14308
4264,36862,14249
4232,36836,14196
4199,36812,14145
4162,36785,14092
4125,36758,14043
4086,36729,13996
4043,36697,13947
3997,36665,13895
3954,36634,13844
3915,36605,13796
3881,36577,13748
3848,36552,13704
3815,36529,13662
3783,36507,13620
3753,36483,13576
3720,36456,13529
3687,36431,13481
3657,36408,13435
3627,36383,13388
3594,36355,13337
3562,36328,13287
3527,36302,13238
3490,36273,13187
3452,36244,13134
3414,36217,13080
3376,36189,13026
3336,36158,12971
3290,36125,12917
3244,36092,12863
3199,36062,12807
3156,36031,12749
3114,35997,12689
3073,35962,12626
3030,35927,12562
2985,35892,12502
2938,35859,12444
2891,35829,12387
2846,35801,12334
2806,35777,12286
2771,35760,12245
2748,35752,12222
2739,35752,12219
2748,35766,12242
2782,35801,12301
2843,35858,12398
2931,35936,12533
3040,36033,12704
3171,36147,12904
3320,36275,13125
3482,36412,13365
3652,36554,13618
3821,36696,13874
3987,36834,14126
4150,36968,14372
4313,37098,14610
4468,37221,14839
4612,37334,15056
4743,37436,15256
4861,37526,15431
4960,37599,15577
5041,37655,15697
5106,37697,15793
5160,37728,15871
5204,37752,15936
5237,37769,15990
5258,37777,16028
5268,37780,16046
5268,37776,16047
5262,37770,16038
5257,37767,16027
5253,37766,16014
5248,37766,15999
5240,37763,15979
5229,37757,15956
5225,37746,15931
5229,37738,15909
5238,37734,15890
5247,37734,15875
5253,37735,15862
5257,37738,15852
5258,37742,15841
5255,37743,15826
5249,37739,15807
5245,37730,15784
5240,37717,15753
5229,37700,15715
5215,37684,15676
5203,37672,15640
5191,37660,15605
5178,37647,15571
5166,37635,15540
5154,37625,15510
5141,37616,15481
5130,37605,15454
5118,37595,15434
5107,37588,15420
5102,37584,15410
5104,37586,15403
5113,37593,15402
5128,37606,15403
5147,37618,15406
5168,37628,15411
5186,37636,15420
5201,37647,15431
5213,37656,15437
5224,37663,15439
5232,37669,15442
5237,37672,15443
5239,37672,15443
5241,37669,15441
5241,37664,15439
5238,37656,15433
5230,37644,15420
5218,37627,15400
5201,37609,15379
5178,37592,15358
5152,37577,15335
5128,37562,15308
5105,37548,15277
5082,37533,15240
5052,37512,15196
5017,37486,15146
4979,37457,15092
4939,37427,15036
4896,37394,14975
4853,37359,14907
4811,37324,14838
4773,37292,14770
4733,37255,14700
4688,37215,14625
4642,37179,14553
4598,37148,14485
4556,37118,14421
4515,37084,14357
4474,37048,14296
4430,37012,14237
4387,36976,14175
4350,36942,14116
4319,36913,14065
4292,36888,14019
4263,36860,13970
4233,36832,13918
4202,36808,13865
4170,36787,13814
4139,36766,13765
4108,36741,13717
4073,36712,13668
4032,36679,13621
3989,36647,13577
3951,36617,13534
3918,36591,13494
3886,36565,13456
3852,36537,13419
3816,36509,13383
3777,36483,13345
3739,36461,13302
3703,36440,13258
3673,36421,13217
3647,36402,13179
3623,36383,13140
3599,36363,13104
3575,36342,13070
3547,36319,13035
3517,36294,12996
3487,36267,12949
3456,36240,12897
3421,36212,12839
3383,36182,12774
3346,36149,12708
3310,36119,12647
3272,36088,12591
3233,36055,12535
3195,36024,12479
3160,35994,12422
3124,35966,12360
3088,35938,12293
3054,35914,12233
3025,35896,12189
3006,35887,12161
3000,35887,12155
3013,35906,12181
3049,35947,12244
3111,36009,12340
3200,36090,12470
3320,36191,12637
3469,36312,12839
3637,36449,13066
3816,36597,13317
4005,36756,13588
4203,36918,13869
4400,37074,14152
4587,37221,14431
4765,37360,14699
4932,37489,14951
5086,37610,15184
5222,37716,15396
5341,37810,15588
5446,37891,15764
5537,37959,15918
5613,38014,16044
5678,38057,16145
5735,38089,16222
5779,38110,16274
5814,38122,16305
5844,38133,16329
5874,38144,16349
5900,38151,16366
5921,38158,16382
5938,38167,16394
5954,38178,16398
5969,38190,16397
5977,38195,16391
5981,38197,16384
5986,38199,16377
5989,38197,16367
5989,38195,16358
5992,38196,16351
5998,38200,16344
6003,38203,16338
6008,38207,16334
6017,38213,16334
6030,38221,16333
6042,38227,16325
6049,38229,16313
6052,38226,16297
6046,38216,16277
6033,38200,16253
6014,38182,16228
5993,38165,16203
5971,38149,16180
5950,38137,16160
5933,38128,16139
5920,38121,16118
5909,38116,16099
5898,38110,16085
5888,38106,16076
5879,38102,16070
5875,38101,16062
5877,38101,16056
5883,38106,16053
5893,38113,16054
5901,38118,16056
5906,38122,16060
5915,38130,16066
5927,38142,16075
5936,38152,16086
5940,38154,16092
5941,38151,16091
5938,38144,16083
5934,38136,16076
5930,38130,16069
5928,38123,16059
5925,38114,16046
5918,38103,16028
5907,38090,16005
5890,38076,15977
5869,38060,15945
5844,38042,15908
5819,38021,15866
5795,37999,15822
5764,37972,15772
5724,37935,15711
5680,37892,15646
5634,37847,15578
5583,37800,15509
5527,37755,15445
5473,37714,15385
5422,37675,15323
5375,37638,15257
5327,37602,15191
5279,37566,15128
5235,37532,15064
5195,37499,15001
5156,37471,14944
5119,37444,14891
5089,37417,14837
5061,37389,14784
5032,37360,14735
5000,37331,14691
4965,37303,14647
4924,37278,14600
4882,37254,14552
4847,37233,14501
4816,37209,14444
4780,37180,14385
4742,37149,14329
4707,37119,14277
4676,37090,14226
4644,37062,14177
4614,37039,14134
4586,37019,14091
4555,37001,14045
4529,36985,14002
4504,36972,13965
4476,36956,13925
4444,36938,13888
4415,36921,13857
4392,36904,13827
4372,36886,13793
4345,36865,13754
4311,36839,13712
4273,36809,13671
4232,36775,13627
4188,36739,13575
4141,36702,13517
4091,36666,13456
4037,36629,13395
3982,36591,13336
3930,36550,13276
3879,36511,13217
3828,36471,13159
3777,36434,13097
3725,36400,13036
3675,36371,12979
3632,36347,12926
3596,36325,12877
3566,36306,12833
3545,36292,12800
3540,36286,12783
3554,36294,12788
3586,36319,12822
3639,36365,12894
3718,36434,13009
3822,36522,13163
3947,36625,13349
4091,36742,13562
4250,36869,13799
4420,37006,14056
4600,37152,14326
4792,37305,14601
4990,37457,14873
5184,37604,15134
5367,37745,15382
5537,37878,15615
5692,38000,15833
5830,38109,16031
5952,38203,16207
6065,38287,16362
6165,38359,16496
6251,38419,16607
6322,38467,16696
6380,38505,16766
6422,38531,16818
6446,38546,16856
6460,38553,16879
6470,38559,16892
6476,38562,16896
6477,38561,16890
6474,38560,16879
6469,38561,16871
6465,38562,16866
6465,38561,16860
6467,38557,16850
6471,38555,16843
6479,38561,16842
6490,38572,16846
6506,38586,16851
6524,38598,16857
6542,38605,16862
6561,38611,16866
6580,38618,16872
6594,38623,16876
6601,38623,16873
6600,38620,16860
6596,38613,16841
6591,38604,16821
6584,38595,16801
6575,38586,16779
6561,38574,16754
6542,38558,16724
6520,38541,16693
6497,38524,16663
6477,38512,16639
6468,38507,16621
6466,38505,16605
6469,38502,16590
6477,38501,16576
6488,38505,16568
6499,38509,16565
6511,38510,16561
6526,38511,16557
6540,38515,16555
6549,38522,16556
6555,38531,16561
6562,38542,16568
6567,38549,16574
6569,38553,16578
6569,38555,16578
6570,38555,16571
6566,38551,16557
6556,38543,16540
6538,38531,16524
6514,38514,16506
6487,38495,16486
6464,38477,16463
6446,38463,16434
6435,38452,16404
6425,38440,16372
6412,38425,16334
6392,38406,16285
6367,38383,16227
6340,38354,16163
6313,38321,16098
6285,38287,16040
6255,38252,15983
6222,38215,15922
6185,38176,15859
6143,38137,15796
6095,38097,15728
6044,38056,15662
5993,38017,15600
5944,37980,15543
5896,37943,15486
5850,37909,15428
5810,37880,15376
5776,37856,15329
5747,37833,15282
5720,37811,15235
5693,37793,15191
5666,37777,15147
5637,37761,15101
5605,37743,15054
5572,37721,15010
5538,37694,14967
5500,37661,14921
5463,37628,14871
5428,37597,14821
5398,37569,14772
5369,37543,14724
5340,37520,14678
5310,37502,14637
5284,37487,14601
5260,37472,14565
5233,37454,14527
5207,37437,14488
5181,37420,14450
5155,37401,14409
5129,37381,14366
5102,37361,14323
5074,37340,14283
5044,37316,14246
5009,37286,14204
4969,37252,14156
4928,37216,14104
4884,37175,14047
4840,37134,13981
4796,37096,13912
4753,37060,13846
4710,37025,13786
4670,36995,13732
4635,36969,13682
4604,36944,13638
4574,36919,13598
4546,36893,13560
4520,36868,13524
4495,36850,13494
4478,36840,13473
4469,36834,13464
4475,36838,13475
4500,36858,13511
4551,36898,13575
4631,36959,13678
4735,37045,13820
4858,37151,13993
4997,37271,14189
5149,37401,14407
5308,37539,14643
5472,37681,14890
5638,37822,15139
5804,37959,15383
5968,38095,15619
6129,38226,15848
6282,38349,16070
6422,38460,16280
6549,38558,16471
6660,38643,16639
6754,38712,16780
6834,38765,16897
6902,38808,16993
6957,38842,17072
6997,38867,17135
7028,38885,17181
7053,38897,17208
7066,38901,17222
7068,38899,17227
7066,38895,17227
7060,38890,17224
7051,38884,17220
7041,38874,17214
7030,38866,17210
7016,38859,17204
6997,38851,17197
6977,38844,17192
6963,38841,17190
6956,38840,17189
6955,38842,17192
6960,38847,17195
6975,38854,17196
6996,38864,17196
7017,38873,17195
7032,38874,17185
7038,38869,17168
7038,38861,17148
7033,38853,17125
7023,38846,17100
7011,38842,17075
6999,38834,17046
6985,38824,17015
6968,38815,16986
6950,38806,16960
6933,38796,16937
6920,38787,16918
6912,38778,16902
6906,38769,16886
6904,38759,16871
6907,38751,16860
6909,38743,16851
6912,38737,16842
6919,38737,16834
6930,38742,16829
6940,38752,16830
6946,38761,16839
6946,38769,16853
6944,38771,16866
6941,38767,16876
6936,38757,16878
6929,38745,16872
6921,38736,16859
6909,38729,16842
6895,38721,16824
6881,38710,16805
6870,38696,16784
6859,38683,16758
6849,38672,16725
6837,38659,16688
6823,38644,16647
6807,38627,16603
6790,38609,16559
6768,38590,16513
6745,38567,16464
6721,38540,16412
6688,38509,16359
6645,38474,16302
6599,38439,16240
6555,38405,16173
6511,38369,16100
6467,38334,16025
6423,38303,15956
6378,38272,15895
6331,38239,15840
6283,38206,15788
6234,38174,15734
6183,38141,15674
6132,38103,15612
6085,38064,15550
6041,38028,15487
5998,37996,15428
5955,37967,15370
5913,37938,15312
5876,37907,15254
5839,37877,15197
5797,37845,15141
5753,37810,15086
5708,37776,15034
5665,37743,14984
5623,37710,14933
5583,37677,14884
5546,37646,14840
5511,37616,14798
5476,37589,14756
5442,37566,14716
5411,37549,14678
5380,37532,14639
5348,37512,14599
5317,37491,14558
5292,37470,14517
5272,37451,14476
5253,37430,14434
5234,37409,14393
5212,37388,14355
5187,37364,14317
5157,37334,14274
5121,37300,14226
5080,37267,14176
5032,37232,14121
4981,37197,14061
4931,37165,14002
4882,37136,13945
4836,37105,13882
4795,37072,13817
4759,37041,13755
4722,37012,13697
4683,36983,13639
4647,36957,13586
4615,36933,13535
4588,36913,13485
4565,36896,13441
4546,36881,13410
4537,36873,13397
4542,36880,13406
4565,36905,13445
4611,36949,13522
4680,37014,13639
4772,37101,13788
4884,37204,13966
5019,37324,14173
5177,37459,14407
5351,37603,14657
5532,37749,14915
5714,37893,15175
5894,38033,15433
6067,38165,15682
6227,38285,15911
6371,38390,16116
6501,38481,16298
6616,38564,16461
6717,38638,16604
6806,38703,16728
6882,38758,16830
6944,38802,16908
6993,38835,16966
7029,38862,17010
7058,38885,17042
7081,38902,17067
7096,38913,17086
7104,38915,17094
7110,38911,17089
7112,38906,17075
7113,38905,17058
7116,38907,17041
7118,38908,17023
7116,38904,17003
7115,38900,16985
7117,38896,16971
7115,38891,16960
7109,38886,16950
7102,38882,16942
7098,38882,16938
7098,38883,16933
7098,38882,16925
7098,38880,16913
7097,38876,16897
7091,38867,16877
7078,38853,16851
7058,38836,16817
7037,38818,16780
7019,38800,16748
6998,38782,16717
6976,38762,16688
6955,38744,16664
6934,38726,16643
6913,38711,16621
6899,38704,16598
6892,38702,16574
6888,38704,16550
6890,38706,16531
6895,38706,16518
6902,38703,16512
6909,38698,16513
6913,38695,16519
6916,38695,16528
6924,38699,16537
6933,38704,16545
6943,38710,16551
6951,38713,16555
6954,38714,16556
6947,38711,16549
6931,38705,16537
6913,38696,16521
6898,38686,16504
6886,38676,16491
6877,38667,16483
6867,38658,16476
6854,38650,16460
6837,38635,16432
6814,38611,16394
6787,38582,16350
6757,38551,16300
6723,38518,16242
6686,38484,16178
6647,38450,16111
6603,38415,16042
6553,38380,15972
6496,38344,15901
6435,38304,15832
6374,38260,15764
6311,38214,15697
6249,38166,15628
6192,38120,15561
6142,38076,15496
6094,38034,15434
6051,37995,15379
6011,37958,15326
5971,37922,15271
5933,37888,15213
5897,37858,15153
5860,37829,15093
5821,37800,15030
5778,37771,14966
5735,37742,14906
5692,37713,14853
5651,37684,14803
5613,37657,14753
5576,37631,14704
5536,37604,14656
5491,37575,14605
5445,37547,14557
5403,37522,14516
5367,37501,14479
5332,37482,14444
5300,37465,14415
5269,37449,14389
5242,37433,14359
5216,37413,14320
5190,37391,14275
5164,37369,14227
5135,37343,14178
5102,37317,14133
5068,37293,14091
5034,37266,14046
4996,37235,13996
4955,37201,13943
4912,37165,13890
4868,37128,13837
4821,37091,13782
4774,37057,13723
4733,37026,13664
4699,37000,13605
4668,36976,13547
4639,36950,13486
4612,36922,13426
4589,36897,13371
4569,36877,13326
4552,36864,13288
4537,36855,13262
4529,36853,13254
4534,36863,13273
4559,36892,13324
4608,36941,13412
4687,37013,13534
4794,37106,13684
4925,37218,13863
5076,37344,14071
5242,37480,14300
5414,37620,14542
5588,37759,14791
5759,37892,15038
5927,38021,15273
6087,38143,15497
6236,38258,15707
6373,38363,15900
6495,38456,16077
6602,38537,16236
6696,38606,16374
6775,38662,16493
6835,38706,16590
6879,38739,16667
6915,38764,16727
6943,38783,16769
6959,38794,16794
6962,38794,16802
6955,38786,16800
6945,38775,16795
6933,38765,16783
6916,38751,16763
6897,38735,16737
6883,38720,16710
6871,38705,16682
6858,38689,16652
6843,38674,16622
6828,38662,16595
6813,38650,16570
6802,38639,16547
6794,38630,16529
6784,38625,16513
6772,38620,16494
6759,38614,16475
6750,38609,16455
6745,38602,16428
6739,38594,16395
6725,38581,16358
6705,38564,16317
6682,38544,16271
6658,38524,16224
6635,38504,16181
6618,38487,16143
6605,38473,16113
6593,38461,16095
6586,38456,16088
6580,38455,16088
6573,38457,16092
6570,38460,16097
6576,38462,16100
6587,38463,16104
6597,38465,16110
6605,38469,16114
6617,38479,16120
6636,38495,16130
6657,38513,16144
6676,38531,16157
6689,38543,16166
6700,38553,16171
6713,38560,16175
6722,38562,16175
6726,38556,16170
6728,38547,16159
6727,38535,16141
6718,38522,16120
6701,38508,16101
6678,38494,16079
6653,38475,16050
6629,38451,16016
6604,38424,15980
6578,38401,15938
6548,38380,15890
6518,38354,15837
6487,38325,15778
6456,38294,15713
6424,38264,15649
6390,38235,15590
6352,38207,15532
6311,38180,15478
6269,38153,15425
6226,38121,15370
6183,38088,15312
6145,38055,15253
6112,38025,15194
6079,37995,15135
6043,37964,15076
6010,37935,15020
5978,37908,14965
5947,37886,14909
5917,37866,14854
5892,37845,14799
5865,37822,14743
5837,37796,14690
5808,37770,14639
5782,37745,14591
5758,37718,14545
5733,37687,14502
5709,37658,14461
5688,37636,14422
5668,37619,14386
5651,37603,14353
5635,37586,14321
5617,37569,14288
5593,37552,14256
5563,37532,14222
5529,37509,14182
5496,37484,14139
5465,37460,14097
5433,37437,14059
5399,37410,14018
5360,37380,13970
5316,37347,13919
5274,37316,13868
5236,37286,13816
5200,37257,13761
5168,37228,13705
5141,37202,13652
5120,37178,13601
5099,37155,13548
5075,37132,13497
5050,37111,13449
5025,37091,13405
5005,37070,13365
4988,37050,13332
4974,37036,13312
4966,37032,13310
4969,37038,13329
4993,37061,13375
5040,37108,13452
5111,37177,13565
5205,37267,13711
5324,37375,13888
5463,37497,14094
5617,37630,14325
5779,37768,14571
5941,37906,14821
6102,38041,15068
6262,38168,15308
6414,38282,15537
6556,38385,15750
6685,38478,15945
6801,38562,16120
6905,38639,16278
6997,38709,16414
7077,38768,16526
7144,38814,16618
7198,38848,16690
7237,38872,16744
7260,38887,16781
7268,38891,16804
7266,38887,16816
7257,38880,16817
7239,38865,16806
7215,38845,16789
7192,38824,16769
7172,38806,16747
7152,38789,16724
7133,38771,16703
7116,38757,16685
7099,38749,16667
7082,38744,16649
7066,38742,16630
7051,38741,16611
7037,38740,16591
7028,38738,16576
7022,38734,16562
7016,38728,16541
7012,38721,16516
7008,38712,16490
7000,38697,16460
6984,38677,16427
6963,38654,16390
6942,38631,16351
6918,38608,16307
6892,38583,16260
6868,38558,16214
6846,38534,16172
6827,38515,16137
6814,38500,16113
6807,38490,16096
6799,38482,16084
6788,38476,16079
6781,38474,16081
6780,38475,16085
6784,38478,16087
6790,38485,16089
6796,38495,16093
6806,38508,16097
6817,38521,16102
6829,38531,16109
6843,38541,16120
6856,38554,16133
6868,38564,16144
6877,38569,16151
6885,38573,16153
6893,38576,16147
6901,38578,16137
6907,38580,16129
6911,38580,16121
6908,38578,16108
6899,38571,16084
6882,38559,16051
6859,38540,16010
6832,38516,15965
6802,38490,15915
6773,38461,15860
6743,38430,15801
6709,38399,15743
6671,38368,15685
6634,38336,15626
6597,38305,15566
6559,38273,15503
6520,38239,15435
6479,38202,15363
6441,38166,15290
6406,38131,15216
6374,38097,15140
6345,38065,15068
6320,38034,15002
6296,38003,14941
6264,37970,14883
6225,37936,14827
6185,37907,14778
6150,37882,14734
6116,37859,14690
6083,37838,14648
6058,37819,14608
6037,37801,14568
6017,37784,14527
5999,37767,14486
5982,37753,14446
5962,37737,14404
5939,37716,14361
5917,37695,14320
5895,37674,14283
5868,37653,14244
5839,37629,14203
5809,37604,14162
5781,37580,14121
5752,37553,14078
5722,37523,14032
5692,37492,13988
5663,37463,13946
5630,37436,13905
5593,37408,13860
5556,37381,13809
5521,37356,13755
5487,37330,13694
5451,37301,13628
5418,37274,13563
5386,37250,13502
5352,37225,13446
5315,37200,13398
5276,37173,13353
5238,37144,13310
5207,37119,13277
5189,37106,13265
5188,37108,13275
5209,37128,13317
5253,37171,13393
5321,37233,13499
5411,37312,13632
5524,37407,13795
5659,37518,13987
5813,37641,14200
5984,37774,14428
6164,37913,14671
6344,38052,14917
6516,38186,15154
6683,38314,15384
6842,38436,15605
6987,38548,15814
7116,38649,16007
7232,38740,16184
7334,38820,16341
7423,38886,16480
7498,38941,16601
7559,38984,16701
7608,39015,16780
7651,39039,16843
7688,39058,16896
7718,39073,16940
7740,39085,16972
7754,39095,16990
7762,39099,16992
7764,39097,16983
7763,39091,16971
7759,39083,16959
7756,39079,16951
7755,39077,16944
7756,39076,16938
7756,39075,16933
7759,39076,16932
7770,39080,16936
7785,39087,16938
7800,39095,16938
7816,39102,16938
7824,39105,16936
7827,39102,16930
7830,39099,16925
7833,39093,16919
7831,39080,16901
7824,39065,16873
7813,39050,16843
7798,39037,16815
7781,39022,16788
7761,39004,16759
7737,38986,16729
7715,38968,16700
7699,38953,16673
7689,38940,16648
7685,38929,16624
7686,38922,16602
7689,38919,16579
7695,38917,16560
7704,38917,16546
7717,38921,16532
7728,38927,16520
7737,38934,16512
7748,38945,16511
7762,38960,16517
7772,38976,16527
7778,38987,16542
7785,38996,16558
7796,39001,16572
7807,39004,16581
7817,39004,16587
7824,39003,16594
7828,39003,16599
7825,38998,16597
7818,38988,16586
7810,38977,16566
7798,38963,16537
7780,38944,16498
7755,38922,16450
7728,38898,16394
7699,38876,16338
7670,38854,16283
7643,38835,16234
7621,38816,16189
7598,38795,16143
7572,38768,16090
7544,38737,16030
7512,38704,15967
7480,38672,15905
7449,38639,15842
7416,38604,15778
7382,38571,15721
7345,38539,15666
7305,38503,15609
7266,38469,15553
7230,38440,15498
7192,38408,15441
7152,38376,15382
7113,38347,15324
7074,38318,15267
7034,38288,15208
6992,38257,15150
6955,38227,15092
6921,38200,15037
6890,38177,14988
6860,38153,14943
6833,38131,14902
6805,38111,14863
6776,38088,14827
6744,38060,14792
6710,38029,14758
6673,38002,14727
6635,37976,14694
6596,37946,14656
6558,37913,14613
6523,37882,14564
6491,37853,14512
6463,37826,14462
6438,37802,14416
6413,37779,14370
6385,37752,14319
6353,37723,14265
6321,37695,14208
6282,37664,14146
6235,37627,14080
6183,37586,14015
6133,37547,13953
6089,37512,13894
6050,37481,13836
6015,37455,13781
5984,37431,13730
5959,37411,13685
5942,37395,13653
5938,37393,13641
5951,37409,13656
5983,37443,13702
6032,37489,13781
6102,37554,13895
6195,37636,14042
6311,37734,14217
6445,37845,14418
6596,37970,14644
6757,38104,14884
6919,38239,15129
7080,38374,15377
7241,38507,15625
7397,38634,15867
7546,38751,16099
7685,38855,16321
7814,38953,16533
7935,39046,16730
8049,39130,16904
8154,39206,17055
8252,39273,17188
8339,39330,17303
8408,39373,17395
8455,39402,17470
8488,39419,17533
8513,39432,17583
8529,39442,17620
8542,39450,17649
8554,39458,17673
8563,39466,17691
8569,39472,17703
8580,39477,17712
8597,39484,17724
8614,39494,17742
8632,39503,17766
8648,39510,17791
8664,39518,17814
8682,39528,17837
8703,39541,17859
8726,39558,17881
8752,39577,17902
8777,39599,17920
8800,39620,17935
8823,39638,17953
8848,39657,17972
8866,39672,17988
8871,39677,17994
8869,39672,17989
8864,39661,17976
8855,39646,17953
8843,39626,17924
8829,39600,17891
8813,39572,17854
8797,39546,17818
8783,39525,17786
8771,39508,17762
8762,39496,17741
8750,39485,17716
8737,39477,17692
8730,39473,17675
8731,39471,17663
8734,39473,17655
8735,39477,17651
8734,39484,17647
8735,39492,17642
8737,39500,17640
8742,39505,17642
8748,39509,17642
8754,39513,17638
8762,39515,17630
8769,39512,17620
8774,39507,17609
8774,39498,17595
8768,39485,17577
8757,39472,17553
8746,39462,17530
8733,39453,17508
8718,39439,17483
8697,39421,17449
8674,39399,17406
8648,39372,17359
8618,39337,17309
8585,39301,17256
8552,39268,17199
8517,39233,17139
8482,39198,17083
8456,39168,17031
8435,39143,16981
8411,39119,16927
8381,39092,16868
8350,39063,16809
8322,39037,16751
8296,39010,16695
8270,38982,16639
8243,38954,16583
8212,38926,16525
8172,38894,16464
8123,38858,16406
8076,38823,16351
8032,38790,16297
7991,38758,16245
7954,38730,16196
7924,38706,16149
7900,38684,16102
7877,38660,16055
7856,38635,16004
7838,38610,15952
7820,38586,15902
7799,38561,15852
7779,38535,15801
7756,38508,15747
7727,38479,15692
7693,38447,15641
7659,38418,15594
7624,38390,15548
7586,38362,15502
7548,38334,15453
7509,38305,15402
7472,38276,15353
7436,38245,15302
7398,38213,15247
7359,38183,15194
7321,38156,15145
7283,38127,15096
7247,38094,15047
7212,38062,14998
7179,38032,14943
7147,38005,14884
7116,37977,14823
7087,37947,14758
7061,37912,14693
7037,37877,14633
7014,37847,14581
6992,37824,14535
6974,37803,14489
6957,37783,14443
6944,37771,14406
6940,37771,14390
6950,37783,14402
6974,37809,14445
7018,37852,14524
7086,37915,14636
7177,37998,14779
7292,38096,14950
7425,38205,15146
7572,38323,15365
7732,38451,15597
7899,38585,15836
8069,38721,16081
8238,38853,16327
8402,38975,16565
8552,39086,16790
8688,39190,17002
8815,39287,17202
8929,39376,17390
9028,39454,17561
9117,39524,17713
9195,39588,17848
9257,39641,17962
9302,39682,18053
9338,39714,18124
9363,39740,18178
9378,39755,18214
9388,39762,18241
9399,39767,18262
9409,39767,18275
9415,39762,18282
9422,39756,18287
9435,39757,18298
9454,39766,18319
9477,39780,18347
9498,39795,18377
9518,39810,18408
9539,39827,18435
9563,39844,18455
9589,39861,18473
9612,39878,18494
9629,39892,18517
9640,39900,18542
9648,39905,18565
9656,39909,18587
9667,39913,18603
9677,39915,18609
9685,39915,18602
9688,39910,18589
9683,39902,18571
9674,39892,18548
9661,39877,18520
9645,39857,18487
9630,39836,18452
9619,39818,18417
9606,39801,18383
9591,39782,18351
9576,39766,18322
9567,39752,18298
9560,39742,18277
9555,39735,18259
9548,39730,18242
9543,39727,18228
9543,39727,18217
9546,39729,18205
9550,39730,18191
9555,39728,18179
9559,39724,18168
9565,39724,18163
9572,39726,18162
9574,39728,18156
9571,39727,18145
9565,39721,18130
9560,39711,18111
9551,39698,18089
9539,39683,18064
9524,39663,18038
9504,39640,18006
9481,39615,17969
9457,39591,17930
9432,39569,17889
9405,39548,17845
9372,39523,17799
9339,39495,17750
9310,39467,17700
9285,39442,17651
9258,39419,17599
9228,39393,17542
9198,39365,17484
9165,39332,17424
9133,39296,17361
9105,39261,17296
9079,39228,17234
9049,39199,17173
9013,39172,17113
8975,39146,17053
8937,39115,16992
8901,39077,16928
8866,39037,16865
8832,39000,16806
8798,38967,16748
8763,38935,16692
8728,38906,16640
8697,38882,16592
8670,38861,16543
8643,38840,16494
8615,38819,16448
8586,38795,16404
8554,38766,16357
8518,38731,16303
8481,38691,16241
8442,38650,16174
8404,38611,16110
8366,38572,16052
8330,38534,15998
8298,38500,15948
8272,38470,15897
8250,38442,15848
8233,38416,15800
8216,38390,15750
8197,38368,15699
8175,38349,15648
8151,38330,15598
8125,38310,15549
8098,38289,15499
8074,38266,15446
8056,38244,15390
8039,38223,15335
8016,38201,15281
7986,38175,15228
7949,38144,15173
7907,38109,15114
7866,38070,15050
7829,38034,14984
7795,38002,14918
7760,37971,14852
7726,37941,14785
7693,37911,14722
7659,37882,14662
7627,37854,14607
7599,37830,14560
7575,37812,14527
7556,37801,14508
7546,37799,14503
7549,37806,14519
7571,37827,14561
7619,37869,14636
7694,37933,14747
7794,38014,14890
7917,38113,15066
8061,38228,15266
