green_channel,red_channel,ir_channel
60006,60902,29731
60453,61024,30360
60864,61137,30941
61239,61242,31473
61577,61337,31954
61878,61420,32382
62144,61493,32758
62378,61557,33085
62579,61612,33366
62748,61658,33603
62885,61697,33801
62994,61728,33959
63079,61752,34079
63140,61771,34165
63179,61783,34221
63202,61790,34251
63207,61792,34254
63192,61787,34228
63156,61775,34176
63105,61758,34105
63044,61737,34016
62977,61713,33912
62904,61688,33798
62825,61663,33677
62744,61637,33551
62661,61610,33422
62581,61585,33298
62506,61563,33182
62435,61540,33071
62365,61518,32961
62292,61497,32852
62218,61476,32748
62142,61456,32644
62066,61438,32538
61987,61422,32428
61906,61405,32316
61822,61386,32203
61737,61364,32090
61656,61341,31982
61585,61318,31884
61520,61296,31794
61461,61276,31712
61407,61258,31639
61360,61244,31577
61321,61235,31527
61294,61229,31489
61283,61225,31467
61285,61224,31462
61298,61229,31469
61319,61238,31486
61345,61249,31515
61378,61262,31556
61417,61278,31609
61459,61295,31668
61502,61309,31729
61544,61321,31791
61584,61332,31854
61622,61342,31913
61656,61353,31967
61688,61364,32012
61711,61374,32044
61722,61379,32063
61723,61382,32071
61719,61384,32072
61710,61383,32064
61695,61382,32044
61671,61377,32011
61636,61368,31968
61592,61356,31915
61540,61341,31846
61483,61324,31759
61415,61305,31659
61337,61282,31550
61253,61257,31435
61166,61230,31314
61072,61201,31184
60971,61170,31046
60868,61138,30902
60763,61110,30753
60657,61082,30599
60547,61053,30438
60438,61022,30276
60334,60993,30117
60233,60966,29962
60134,60937,29812
60037,60907,29666
59940,60876,29524
59846,60846,29386
59755,60818,29255
59667,60795,29133
59581,60775,29019
59499,60756,28910
59417,60738,28805
59335,60718,28700
59252,60699,28594
59171,60679,28485
59092,60661,28375
59013,60643,28267
58936,60625,28161
58859,60607,28054
58783,60589,27948
58706,60570,27841
58633,60553,27738
58564,60535,27639
58498,60518,27541
58434,60500,27444
58371,60481,27346
58307,60461,27251
58247,60440,27163
58194,60420,27083
58150,60404,27012
58114,60390,26949
58084,60378,26892
58057,60367,26839
58034,60357,26790
58012,60349,26744
57986,60343,26700
57953,60338,26655
57918,60332,26608
57881,60326,26558
57842,60319,26505
57797,60310,26449
57746,60299,26389
57692,60286,26325
57635,60273,26258
57577,60258,26191
57518,60245,26122
57456,60232,26047
57393,60217,25967
57327,60200,25882
57258,60181,25791
57185,60158,25694
57108,60137,25593
57028,60115,25490
56947,60094,25388
56864,60072,25284
56778,60050,25177
56690,60028,25068
56602,60009,24957
56516,59993,24844
56436,59976,24731
56362,59961,24623
56295,59945,24528
56241,59931,24457
56213,59923,24423
56224,59926,24442
56286,59943,24531
56411,59976,24711
56607,60028,24993
56876,60100,25379
57213,60190,25858
57607,60296,26413
58043,60414,27020
58501,60539,27657
58966,60667,28305
59423,60792,28945
59863,60914,29563
60281,61029,30148
60672,61134,30693
61029,61228,31196
61352,61310,31658
61641,61384,32074
61898,61450,32443
62123,61509,32767
62316,61561,33045
62478,61605,33278
62611,61643,33468
62720,61673,33615
62806,61693,33724
62867,61706,33797
62904,61713,33838
62920,61714,33850
62917,61710,33835
62896,61702,33795
62858,61691,33735
62804,61677,33656
62737,61656,33559
62661,61630,33445
62577,61599,33320
62486,61567,33186
62390,61534,33042
62294,61502,32894
62197,61470,32744
62096,61439,32593
61996,61410,32446
61898,61382,32301
61803,61354,32158
61712,61327,32019
61623,61300,31883
61527,61271,31743
61424,61240,31599
61318,61209,31452
61208,61178,31304
61097,61148,31158
60989,61121,31016
60886,61098,30884
60793,61079,30764
60712,61063,30657
60647,61050,30563
60597,61040,30486
60558,61032,30426
60527,61027,30386
60507,61023,30366
60502,61022,30368
60510,61024,30387
60532,61030,30420
60568,61040,30465
60613,61052,30523
60660,61066,30592
60710,61080,30666
60761,61096,30743
60815,61111,30820
60870,61126,30897
60922,61140,30970
60972,61153,31037
61017,61168,31099
61056,61182,31150
61087,61194,31188
61112,61204,31217
61127,61212,31234
61129,61214,31237
61119,61212,31227
61097,61206,31204
61061,61198,31167
61012,61186,31113
60950,61169,31041
60872,61147,30950
60786,61122,30845
60697,61096,30731
60604,61067,30613
60508,61037,30490
60408,61007,30361
60302,60975,30224
60192,60942,30078
60083,60909,29929
59977,60879,29780
59871,60851,29628
59764,60825,29473
59660,60800,29319
59558,60775,29165
59452,60748,29006
59343,60718,28847
59231,60687,28691
59119,60659,28535
59010,60633,28378
58904,60608,28225
58799,60581,28078
58695,60551,27937
58594,60522,27801
58499,60496,27670
58410,60473,27545
58328,60452,27429
58251,60435,27321
58181,60419,27220
58114,60403,27128
58052,60385,27042
57995,60366,26960
57944,60349,26884
57900,60334,26813
57860,60321,26747
57820,60307,26685
57781,60295,26626
57745,60286,26573
57709,60276,26522
57675,60266,26473
57644,60256,26427
57614,60247,26382
57583,60238,26338
57552,60230,26294
57518,60221,26251
57481,60212,26206
57445,60204,26159
57408,60196,26111
57369,60188,26059
57323,60178,26003
57273,60167,25941
57219,60155,25873
57162,60140,25802
57102,60126,25726
57039,60112,25645
56973,60096,25560
56904,60081,25473
56835,60067,25384
56761,60053,25293
56688,60039,25201
56622,60024,25116
56569,60011,25051
56535,60003,25020
56533,60003,25038
56577,60015,25119
56679,60043,25276
56849,60089,25521
57090,60152,25862
57396,60234,26295
57757,60330,26808
58160,60438,27381
58592,60555,27993
59040,60677,28626
59488,60800,29256
59925,60922,29867
60344,61038,30448
60737,61147,30995
61097,61248,31499
61424,61341,31956
61716,61425,32367
61973,61500,32735
62197,61565,33062
62392,61621,33347
62557,61668,33588
62693,61705,33786
62804,61735,33944
62889,61758,34064
62949,61771,34148
62983,61774,34198
62992,61770,34218
62983,61762,34210
62960,61752,34175
62923,61739,34114
62869,61723,34027
62800,61703,33918
62718,61680,33793
62627,61654,33659
62528,61626,33521
62427,61597,33376
62325,61568,33226
62219,61539,33073
62111,61509,32919
62002,61478,32767
61891,61446,32617
61779,61412,32465
61665,61378,32306
61548,61343,32137
61429,61307,31962
61305,61268,31784
61181,61230,31605
61060,61195,31429
60942,61163,31264
60827,61132,31110
60722,61103,30968
60632,61079,30843
60558,61060,30737
60498,61047,30653
60452,61037,30589
60422,61032,30546
60410,61032,30527
60414,61037,30534
60433,61046,30567
60465,61057,30618
60508,61071,30684
60561,61088,30761
60621,61106,30847
60688,61125,30942
60756,61146,31039
60820,61168,31133
60885,61188,31222
60951,61207,31305
61011,61224,31379
61059,61237,31440
61091,61247,31487
61115,61256,31524
61131,61262,31550
61137,61264,31562
61136,61263,31559
61125,61260,31541
61103,61253,31508
61072,61243,31462
61033,61231,31407
60986,61217,31341
60929,61202,31261
60860,61184,31163
60781,61161,31050
60697,61132,30927
60610,61103,30799
60519,61074,30661
60421,61046,30513
60315,61019,30357
60201,60991,30195
60077,60961,30028
59952,60929,29860
59827,60897,29692
59704,60864,29527
59583,60832,29367
59464,60801,29213
59349,60771,29065
59237,60743,28919
59127,60716,28771
59020,60687,28622
58917,60658,28475
58817,60628,28328
58722,60599,28182
58634,60574,28042
58550,60551,27912
58466,60529,27791
58383,60507,27673
58304,60485,27562
58231,60465,27459
58161,60445,27362
58092,60426,27269
58022,60409,27176
57955,60393,27085
57893,60375,26995
57834,60356,26907
57775,60335,26818
57712,60313,26731
57650,60292,26646
57592,60274,26563
57538,60259,26483
57484,60246,26403
57430,60235,26321
57377,60223,26241
57325,60211,26166
57273,60199,26094
57222,60188,26027
57173,60179,25962
57126,60169,25897
57083,60159,25830
57040,60148,25762
56996,60135,25694
56950,60120,25625
56899,60106,25555
56840,60091,25480
56779,60077,25403
56718,60064,25327
56659,60052,25250
56603,60038,25172
56553,60025,25102
56515,60015,25053
56496,60011,25038
56513,60018,25074
56585,60041,25183
56725,60080,25386
56939,60136,25696
57227,60213,26111
57582,60308,26618
57996,60418,27201
58455,60540,27842
58940,60670,28521
59434,60802,29213
59922,60933,29898
60394,61059,30559
60843,61180,31187
61267,61297,31779
61660,61409,32328
62015,61514,32831
62334,61610,33288
62621,61696,33701
62878,61773,34072
63104,61839,34398
63299,61893,34681
63461,61938,34921
63592,61976,35116
63695,62006,35268
63772,62028,35381
63822,62043,35459
63849,62050,35503
63854,62050,35513
63841,62045,35494
63813,62037,35453
63771,62025,35395
63718,62012,35323
63659,61997,35242
63597,61979,35155
63533,61959,35058
63468,61936,34957
63401,61913,34853
63332,61892,34747
63261,61869,34640
63190,61848,34534
63119,61828,34429
63050,61808,34326
62985,61789,34224
62924,61771,34128
62864,61752,34032
62804,61733,33935
62740,61714,33835
62674,61695,33731
62611,61675,33625
62548,61656,33522
62484,61638,33424
62421,61620,33332
62364,61601,33250
62316,61585,33179
62276,61571,33120
62245,61560,33072
62224,61551,33033
62209,61546,33002
62198,61542,32979
62189,61542,32964
62185,61545,32955
62186,61550,32954
62191,61555,32962
62200,61561,32980
62215,61566,33003
62237,61571,33031
62262,61577,33066
62288,61584,33106
62315,61593,33148
62342,61602,33188
62363,61609,33219
62377,61613,33242
62383,61615,33256
62382,61613,33261
62370,61610,33253
62349,61605,33230
62320,61595,33195
62282,61583,33149
62238,61569,33092
62187,61555,33025
62131,61542,32949
62069,61526,32862
62004,61507,32762
61935,61487,32653
61861,61465,32537
61780,61441,32411
61689,61415,32276
61593,61390,32133
61497,61364,31987
61401,61336,31841
61304,61307,31696
61204,61275,31551
61100,61243,31402
60993,61211,31248
60884,61180,31093
60776,61150,30940
60671,61120,30791
60568,61091,30644
60466,61061,30501
60367,61031,30365
60274,61002,30233
60187,60974,30103
60102,60949,29975
60018,60927,29853
59935,60905,29735
59850,60883,29617
59763,60861,29500
59677,60841,29387
59597,60820,29277
59521,60800,29172
59447,60780,29070
59376,60761,28972
59307,60745,28878
59243,60731,28791
59186,60717,28712
59133,60702,28639
59081,60685,28567
59032,60670,28497
58987,60656,28429
58947,60643,28363
58909,60628,28300
58869,60615,28240
58827,60605,28181
58784,60596,28120
58743,60588,28056
58700,60581,27993
58655,60571,27931
58608,60560,27869
58559,60548,27806
58509,60535,27740
58459,60521,27673
58409,60507,27603
58354,60492,27530
58292,60476,27450
58225,60463,27363
58156,60450,27271
58085,60436,27174
58011,60416,27072
57936,60393,26966
57857,60370,26855
57775,60347,26744
57692,60325,26636
57609,60304,26529
57527,60282,26423
57448,60260,26317
57376,60241,26217
57316,60226,26135
57276,60218,26083
57266,60218,26075
57299,60229,26132
57392,60256,26270
57554,60299,26502
57788,60361,26836
58094,60443,27272
58464,60544,27798
58887,60660,28393
59346,60786,29031
59820,60916,29691
60297,61046,30356
60767,61173,31011
61219,61295,31641
61645,61411,32239
62039,61519,32799
62399,61618,33316
62729,61708,33786
63026,61791,34211
63291,61867,34592
63523,61935,34924
63723,61994,35210
63895,62044,35455
64038,62083,35662
64151,62113,35829
64236,62132,35953
64294,62144,36040
64328,62151,36093
64341,62154,36117
64335,62153,36114
64314,62151,36087
64279,62147,36038
64230,62139,35973
64175,62127,35898
64120,62112,35815
64063,62094,35724
64001,62072,35630
63937,62048,35536
63878,62025,35444
63825,62003,35353
63772,61984,35263
63719,61968,35173
63665,61952,35085
63610,61934,35001
63553,61916,34914
63494,61897,34824
63431,61878,34730
63364,61857,34633
63292,61833,34530
63219,61809,34423
63149,61786,34317
63081,61764,34210
63013,61741,34104
62949,61722,34008
62889,61705,33923
62833,61687,33846
62787,61671,33777
62750,61657,33716
62721,61645,33664
62703,61638,33625
62696,61633,33597
62697,61629,33581
62704,61627,33576
62715,61625,33579
62728,61625,33589
62742,61628,33606
62758,61635,33627
62774,61642,33651
62788,61650,33681
62804,61656,33713
62820,61661,33743
62831,61662,33764
62837,61662,33776
62841,61661,33780
62846,61659,33779
62845,61656,33772
62835,61652,33755
62818,61650,33730
62793,61646,33695
62762,61640,33650
62728,61633,33594
62687,61623,33530
62635,61610,33458
62575,61593,33377
62508,61572,33284
62435,61550,33182
62360,61525,33072
62282,61498,32952
62203,61470,32827
62121,61442,32699
62034,61414,32568
61944,61387,32435
61854,61360,32301
61763,61333,32167
61669,61303,32031
61572,61273,31893
61474,61244,31752
61375,61218,31610
61277,61192,31467
61179,61165,31323
61082,61137,31182
60985,61111,31046
60884,61084,30910
60781,61055,30771
60678,61025,30632
60580,60997,30495
60489,60969,30358
60401,60940,30225
60312,60913,30099
60227,60891,29980
60144,60870,29863
60065,60851,29749
59990,60833,29637
59917,60813,29528
59846,60793,29425
59780,60774,29329
59716,60756,29239
59650,60738,29152
59584,60719,29070
59524,60700,28992
59466,60683,28919
59407,60667,28851
59349,60651,28786
59295,60636,28723
59245,60621,28660
59197,60607,28592
59148,60594,28520
59099,60579,28446
59047,60562,28371
58995,60545,28298
58941,60530,28226
58885,60514,28151
58828,60497,28073
58771,60480,27988
58707,60463,27899
58639,60446,27807
58570,60430,27714
58498,60415,27618
58420,60399,27520
58340,60383,27422
58264,60369,27328
58193,60353,27234
58121,60336,27138
58048,60320,27040
57976,60303,26942
57902,60283,26841
57825,60260,26738
57743,60237,26637
57660,60214,26534
57577,60190,26425
57495,60166,26310
57410,60144,26191
57321,60125,26068
57231,60104,25943
57146,60082,25822
57070,60061,25715
57011,60044,25632
56983,60035,25591
56999,60037,25612
57076,60056,25720
57230,60096,25937
57466,60158,26269
57783,60242,26710
58172,60346,27247
58618,60466,27859
59102,60597,28523
59606,60733,29216
60113,60871,29921
60611,61006,30618
61089,61136,31289
61541,61260,31921
61960,61377,32508
62340,61485,33045
62683,61582,33532
62991,61671,33974
63266,61751,34369
63505,61820,34714
63708,61880,35008
63875,61933,35255
64009,61975,35461
64113,62007,35627
64190,62030,35753
64239,62045,35845
64264,62055,35904
64274,62060,35933
64270,62061,35932
64251,62057,35906
64218,62047,35858
64172,62031,35789
64115,62012,35702
64052,61990,35601
63985,61967,35489
63912,61941,35367
63835,61914,35243
63756,61888,35123
63677,61864,35006
63601,61842,34891
63528,61822,34779
63458,61801,34674
63389,61780,34573
63317,61756,34472
63243,61732,34371
63165,61708,34268
63085,61686,34164
63001,61663,34055
62919,61642,33945
62841,61623,33837
62767,61604,33735
62698,61587,33637
62636,61571,33547
62582,61558,33465
62536,61546,33389
62495,61534,33319
62461,61521,33257
62437,61510,33205
62420,61503,33166
62407,61496,33133
62402,61493,33108
62401,61493,33097
62402,61494,33098
62407,61497,33108
62416,61502,33126
62427,61510,33149
62440,61517,33173
62460,61524,33198
62485,61533,33227
62513,61540,33258
62538,61545,33289
62557,61548,33316
62569,61549,33337
62576,61549,33348
62580,61550,33348
62577,61549,33341
62564,61544,33325
62543,61535,33296
62509,61523,33252
62464,61511,33195
62411,61498,33127
62354,61483,33047
62289,61463,32954
62217,61439,32849
62140,61415,32734
62059,61391,32612
61973,61366,32480
61881,61339,32340
61780,61310,32194
61675,61280,32041
61569,61247,31884
61461,61213,31721
61349,61179,31557
61233,61145,31393
61114,61109,31228
60991,61074,31063
60864,61041,30900
60737,61009,30738
60616,60980,30578
60501,60953,30420
60393,60928,30264
60289,60904,30112
60186,60880,29965
60082,60856,29819
59981,60833,29675
59883,60809,29533
59787,60783,29394
59694,60757,29258
59603,60730,29127
59509,60700,28998
59415,60671,28872
59325,60644,28751
59243,60620,28638
59166,60595,28529
59095,60571,28425
59025,60550,28325
58955,60533,28229
58885,60519,28137
58817,60506,28051
58754,60494,27971
58694,60482,27894
58633,60470,27819
58573,60458,27747
58516,60446,27678
58462,60435,27611
58411,60422,27541
58361,60409,27469
58313,60396,27399
58262,60383,27328
58208,60368,27254
58155,60352,27175
58100,60336,27090
58041,60320,27004
57979,60305,26918
57916,60291,26835
57857,60278,26755
57799,60264,26674
57739,60249,26591
57678,60232,26505
57616,60214,26418
57552,60196,26331
57487,60175,26242
57422,60156,26152
57355,60139,26062
57284,60121,25970
57207,60101,25873
57127,60080,25772
57043,60059,25669
56954,60039,25560
56863,60021,25445
56771,60003,25325
56674,59983,25201
56573,59961,25072
56467,59938,24938
56359,59914,24801
56256,59891,24665
56168,59868,24542
56099,59848,24447
56061,59837,24396
56069,59839,24409
56137,59855,24506
56277,59890,24705
56499,59946,25019
56806,60026,25451
57197,60130,25998
57666,60255,26643
58191,60395,27363
58747,60546,28126
59315,60700,28905
59881,60856,29678
60429,61007,30425
60943,61148,31131
61416,61277,31786
61846,61393,32384
62232,61497,32922
62574,61590,33403
62870,61672,33826
63123,61742,34191
63339,61800,34504
63521,61849,34766
63667,61890,34980
63780,61924,35150
63864,61952,35277
63924,61973,35363
63958,61987,35413
63967,61995,35432
63952,61994,35421
63919,61984,35381
63872,61968,35315
63813,61948,35230
63744,61924,35127
63662,61895,35007
63572,61864,34873
63478,61834,34731
63380,61806,34582
63278,61779,34431
63173,61752,34281
63076,61725,34136
62986,61699,33996
62899,61674,33858
62813,61648,33722
62728,61622,33591
62641,61598,33461
62548,61573,33327
62452,61546,33188
62351,61514,33047
62246,61478,32906
62141,61441,32767
62041,61407,32633
61952,61378,32511
61873,61352,32400
61804,61332,32301
61744,61316,32215
61694,61303,32142
61654,61292,32084
61624,61286,32041
61605,61284,32015
61598,61286,32007
61602,61292,32014
61616,61298,32032
61635,61305,32058
61659,61314,32094
61686,61323,32139
61720,61333,32192
61762,61345,32251
61808,61359,32314
61853,61372,32376
61895,61385,32434
61933,61395,32485
61967,61403,32529
61996,61407,32563
62016,61408,32582
62028,61405,32586
62030,61402,32579
62017,61396,32558
61992,61390,32525
61959,61383,32481
61919,61376,32425
61871,61367,32357
61812,61354,32277
61743,61335,32184
61666,61313,32076
61581,61289,31955
61490,61263,31823
61395,61236,31683
61296,61207,31533
61188,61176,31368
61071,61143,31192
60947,61109,31008
60818,61073,30821
60686,61035,30632
60552,60995,30442
60415,60955,30257
60278,60914,30075
60143,60875,29895
60013,60839,29718
59888,60806,29545
59769,60774,29372
59652,60744,29200
59537,60713,29033
59425,60685,28870
59316,60659,28710
59206,60634,28553
59094,60607,28400
58984,60579,28253
58875,60551,28111
58767,60523,27972
58665,60495,27837
58566,60467,27704
58472,60438,27571
58382,60412,27438
58296,60387,27310
58216,60363,27190
58140,60342,27078
58063,60323,26971
57984,60306,26869
57905,60289,26773
57827,60271,26683
57753,60253,26598
57688,60236,26519
57630,60220,26445
57576,60206,26375
57528,60195,26308
57482,60183,26244
57435,60168,26179
57388,60151,26112
57343,60135,26043
57300,60120,25973
57254,60107,25899
57202,60093,25819
57147,60079,25735
57091,60062,25649
57032,60045,25563
56968,60027,25476
56900,60010,25385
56829,59994,25291
56760,59977,25193
56692,59960,25094
56622,59944,24996
56548,59928,24896
56471,59912,24793
56392,59895,24687
56312,59877,24581
56226,59855,24472
56136,59831,24360
56043,59806,24242
55944,59781,24121
55844,59755,23998
55745,59729,23874
55646,59702,23751
55552,59676,23634
55470,59655,23529
55408,59640,23449
55377,59633,23408
55393,59638,23429
55470,59659,23538
55622,59699,23750
55861,59762,24073
56187,59848,24512
56596,59956,25061
57082,60084,25711
57628,60228,26445
58213,60382,27236
58816,60541,28055
59419,60700,28876
60000,60856,29672
60547,61004,30422
61050,61143,31111
61504,61269,31737
61906,61382,32301
62259,61481,32802
62565,61567,33242
62828,61643,33620
63051,61708,33941
63235,61761,34206
63385,61805,34420
63504,61840,34587
63592,61864,34713
63652,61880,34798
63684,61888,34846
63690,61889,34859
63675,61885,34839
63641,61875,34790
63590,61860,34715
63523,61839,34619
63444,61813,34506
63359,61785,34383
63267,61757,34249
63166,61726,34105
63062,61694,33949
62959,61664,33789
62856,61637,33630
62754,61609,33474
62655,61582,33326
62558,61552,33179
62459,61520,33028
62355,61486,32875
62246,61451,32718
62135,61415,32556
62020,61380,32387
61901,61344,32213
61781,61309,32037
61665,61276,31866
61551,61242,31702
61443,61210,31548
61348,61181,31408
61269,61157,31288
61205,61137,31189
61154,61121,31109
61116,61111,31050
61088,61105,31013
61074,61104,30993
61079,61108,30991
61100,61116,31006
61131,61126,31039
61170,61137,31089
61216,61148,31154
61269,61162,31230
61326,61178,31314
61386,61194,31401
61446,61212,31489
61507,61231,31571
61567,61249,31644
61621,61264,31704
61665,61276,31756
61698,61286,31800
61719,61295,31833
61730,61302,31855
61731,61306,31865
61722,61308,31863
61704,61306,31846
61675,61300,31809
61637,61291,31754
61587,61279,31686
61526,61264,31601
61451,61246,31499
61367,61225,31385
61275,61200,31259
61178,61169,31118
61072,61133,30964
60959,61096,30800
60840,61059,30628
60721,61023,30450
60601,60988,30270
60483,60952,30089
60364,60915,29910
60242,60878,29729
60118,60842,29547
59995,60807,29368
59873,60773,29191
59751,60738,29016
59627,60702,28841
59502,60667,28668
59376,60632,28497
59253,60599,28330
59134,60568,28167
59018,60539,28010
58907,60512,27855
58798,60485,27705
58692,60461,27559
58588,60441,27421
58490,60421,27287
58400,60399,27157
58313,60376,27031
58226,60353,26911
58141,60333,26798
58062,60316,26690
57990,60299,26586
57921,60283,26487
57852,60267,26394
57783,60250,26306
57715,60232,26221
57649,60213,26134
57583,60194,26045
57514,60175,25957
57447,60156,25874
57382,60138,25798
57319,60121,25726
57258,60106,25654
57200,60091,25582
57145,60077,25510
57092,60064,25441
57041,60052,25374
56995,60041,25307
56949,60031,25238
56900,60022,25164
56848,60013,25089
56794,60004,25013
56738,59994,24939
56679,59983,24864
56621,59969,24787
56563,59954,24707
56502,59938,24623
56435,59922,24534
56363,59905,24441
56286,59886,24343
56203,59865,24237
56115,59842,24125
56026,59821,24014
55940,59801,23905
55856,59782,23799
55777,59764,23703
55717,59751,23632
55688,59744,23601
55700,59748,23624
55770,59766,23722
55909,59800,23915
56130,59856,24220
56433,59935,24640
56817,60036,25174
57280,60159,25811
57810,60299,26536
58387,60452,27323
58989,60612,28142
59596,60776,28970
60188,60940,29780
60750,61094,30551
61268,61237,31267
61739,61368,31924
62161,61486,32518
62533,61590,33044
62855,61681,33506
63130,61758,33909
63363,61823,34252
63556,61877,34539
63712,61921,34773
63839,61957,34960
63942,61985,35105
64019,62003,35209
64069,62012,35279
64096,62015,35315
64099,62015,35316
64077,62009,35281
64033,61997,35217
63972,61980,35132
63897,61956,35025
63811,61931,34898
63718,61904,34760
63620,61878,34615
63519,61852,34465
63414,61823,34310
63306,61793,34152
63195,61763,33995
63085,61733,33841
62977,61704,33693
62871,61673,33545
62764,61642,33395
62654,61612,33244
62540,61582,33090
62425,61552,32931
62309,61519,32769
62193,61483,32605
62076,61447,32442
61961,61413,32288
61852,61380,32144
61752,61350,32011
61664,61323,31890
61589,61301,31783
61528,61285,31695
61479,61275,31625
61442,61268,31571
61418,61265,31532
61405,61262,31508
61400,61261,31496
61407,61262,31496
61427,61267,31512
61459,61277,31543
61500,61289,31583
61547,61301,31633
61593,61312,31692
61635,61325,31757
61674,61340,31824
61714,61354,31889
61757,61368,31953
61798,61380,32013
61830,61390,32060
61854,61397,32090
61868,61400,32110
61874,61400,32119
61873,61398,32116
61860,61392,32099
61832,61384,32064
61790,61374,32011
61735,61360,31942
61673,61346,31861
61603,61329,31768
61526,61308,31662
61440,61285,31541
61347,61259,31412
61251,61230,31279
61151,61199,31140
61044,61167,30990
60932,61135,30832
60814,61103,30667
60692,61071,30494
60565,61039,30313
60436,61005,30128
60305,60969,29942
60172,60933,29753
60037,60898,29564
59903,60863,29375
59771,60828,29187
59639,60793,29002
59509,60757,28816
59380,60722,28634
59250,60689,28457
59117,60655,28284
58986,60621,28112
58860,60588,27946
58740,60560,27786
58627,60533,27633
58523,60506,27486
58426,60479,27345
58330,60450,27209
58236,60421,27081
58143,60393,26960
58054,60367,26845
57970,60343,26735
57888,60321,26626
57806,60300,26516
57726,60280,26406
57648,60261,26300
57572,60242,26199
57498,60221,26103
57426,60201,26012
57357,60182,25923
57289,60164,25833
57221,60149,25745
57158,60137,25664
57102,60127,25591
57051,60116,25520
56997,60106,25449
56942,60095,25379
56886,60083,25308
56827,60070,25237
56768,60057,25166
56709,60045,25096
56645,60031,25025
56579,60013,24949
56514,59995,24870
56451,59977,24788
56389,59960,24700
56327,59943,24606
56263,59925,24509
56197,59909,24413
56126,59893,24321
56050,59875,24226
55971,59857,24127
55891,59837,24024
55810,59815,23916
55728,59794,23807
55645,59771,23703
55565,59751,23604
55491,59733,23511
55427,59718,23427
55375,59706,23361
55344,59699,23326
55346,59701,23342
55400,59716,23431
55523,59747,23615
55724,59796,23904
56007,59866,24303
56373,59962,24817
56820,60082,25439
57346,60223,26154
57932,60380,26944
58551,60547,27778
59179,60719,28628
59801,60890,29471
60399,61055,30283
60958,61208,31046
61470,61348,31750
61930,61474,32392
62337,61586,32969
62693,61684,33480
62999,61768,33924
63256,61841,34301
63467,61903,34616
63640,61955,34872
63781,62000,35077
63888,62035,35235
63965,62061,35349
64017,62079,35426
64047,62091,35469
64056,62096,35480
64047,62093,35460
64018,62083,35410
63967,62066,35334
63898,62043,35235
63815,62017,35120
63723,61990,34996
63627,61963,34865
63530,61936,34727
63429,61907,34583
63329,61877,34442
63231,61846,34305
63133,61815,34171
63039,61785,34038
62948,61754,33907
62858,61724,33776
62769,61695,33645
62681,61668,33515
62591,61644,33384
62496,61622,33250
62394,61600,33109
62292,61577,32964
62194,61553,32822
62097,61528,32684
62002,61502,32548
61912,61477,32417
61829,61453,32295
61754,61431,32188
61687,61412,32098
61632,61397,32025
61591,61385,31973
61565,61376,31938
61554,61372,31919
61556,61371,31913
61570,61374,31920
61591,61380,31942
61615,61385,31976
61641,61392,32018
61670,61399,32071
61701,61407,32130
61736,61413,32188
61773,61420,32242
61812,61430,32294
61847,61440,32341
61878,61448,32381
61903,61455,32414
61920,61461,32442
61927,61467,32458
61922,61469,32459
61910,61470,32446
61890,61470,32420
61862,61466,32378
61824,61456,32318
61773,61439,32240
61708,61417,32147
61632,61395,32042
61547,61372,31927
61453,61350,31803
61351,61325,31672
61240,61296,31530
61120,61263,31377
60994,61227,31212
60865,61189,31034
60735,61148,30848
60608,61109,30658
60483,61072,30468
60356,61036,30279
60229,61002,30092
60102,60969,29907
59974,60937,29724
59847,60907,29541
59724,60876,29360
59601,60845,29183
59476,60813,29011
59349,60781,28844
59223,60748,28682
59098,60714,28526
58978,60680,28377
58865,60647,28231
58758,60615,28087
58657,60586,27948
58563,60558,27814
58474,60529,27685
58389,60502,27562
58306,60477,27445
58228,60458,27334
58154,60442,27227
58079,60428,27123
58005,60413,27021
57932,60399,26922
57860,60384,26823
57788,60366,26726
57717,60347,26632
57650,60328,26541
57586,60308,26451
57522,60290,26361
57458,60272,26273
57393,60255,26189
57330,60237,26109
57268,60219,26031
57210,60204,25957
57155,60193,25890
57100,60183,25826
57043,60173,25765
56990,60163,25707
56942,60154,25649
56899,60144,25589
56859,60132,25526
56823,60120,25460
56781,60108,25391
56734,60095,25318
56683,60081,25244
56631,60064,25167
56577,60045,25086
56520,60026,25001
56460,60012,24914
56398,60000,24828
56332,59988,24742
56262,59974,24654
56192,59957,24562
56126,59940,24472
56059,59922,24382
55987,59904,24288
55910,59886,24192
55830,59869,24091
55750,59852,23983
55671,59834,23869
55589,59815,23753
55502,59795,23638
55414,59774,23520
55327,59752,23402
55241,59729,23283
55158,59706,23171
55081,59686,23072
55015,59672,22997
54978,59666,22966
54985,59672,22998
55052,59692,23111
55198,59731,23331
55433,59794,23673
55759,59880,24139
56178,59989,24723
56686,60122,25417
57269,60276,26206
57901,60443,27062
58558,60618,27953
59217,60794,28852
59858,60968,29732
60464,61133,30566
61022,61285,31338
61527,61424,32042
61978,61551,32678
62373,61666,33242
62714,61766,33730
63006,61852,34149
63255,61926,34507
63463,61988,34811
63631,62039,35062
63763,62078,35265
63861,62105,35424
63928,62123,35538
63966,62134,35608
63982,62140,35641
63980,62139,35642
63960,62132,35612
63922,62118,35552
63865,62099,35469
63794,62077,35370
63711,62053,35259
63620,62027,35137
63523,62001,35009
63427,61974,34874
63330,61945,34735
63233,61915,34596
63136,61885,34461
63043,61859,34328
62955,61833,34196
62872,61808,34066
62793,61784,33942
62716,61760,33821
62638,61738,33699
62558,61715,33572
62473,61691,33443
62384,61664,33312
62292,61636,33179
62201,61610,33045
62113,61586,32917
62028,61562,32799
61947,61539,32691
61874,61518,32595
61811,61499,32515
61756,61483,32450
61708,61468,32397
61670,61455,32356
61642,61447,32327
61625,61441,32309
61619,61437,32303
61622,61437,32309
61634,61441,32324
61656,61449,32350
61686,61461,32385
61722,61474,32429
61763,61488,32480
61809,61501,32536
61854,61512,32592
61894,61522,32643
61928,61531,32689
61955,61539,32731
61976,61547,32767
61989,61553,32794
61992,61557,32808
61987,61559,32804
61973,61557,32783
61949,61553,32749
61914,61548,32701
61872,61541,32642
61825,61530,32571
61773,61518,32492
61713,61502,32404
61644,61482,32308
61566,61456,32202
61483,61429,32086
61395,61402,31962
61298,61371,31827
61194,61340,31683
61085,61308,31532
60971,61275,31372
60853,61240,31205
60735,61206,31034
60614,61172,30862
60491,61140,30691
60370,61109,30522
60254,61079,30355
60141,61050,30189
60028,61022,30029
59914,60996,29875
59803,60970,29725
59694,60943,29576
59586,60916,29427
59478,60891,29280
59371,60866,29137
59272,60841,29001
59178,60815,28869
59084,60789,28737
58989,60763,28607
58895,60737,28482
58801,60710,28359
58709,60684,28240
58620,60658,28127
58538,60635,28019
58462,60614,27917
58393,60593,27821
58328,60572,27732
58268,60553,27644
58208,60535,27557
58148,60519,27471
58090,60505,27390
58032,60491,27316
57972,60476,27243
57911,60462,27168
57852,60448,27090
57795,60435,27012
57738,60423,26932
57679,60412,26851
57620,60400,26769
57563,60387,26690
57505,60374,26617
57445,60361,26548
57385,60348,26480
57324,60334,26413
57267,60321,26345
57212,60308,26274
57155,60293,26199
57094,60277,26123
57029,60261,26044
56962,60246,25961
56895,60231,25874
56830,60214,25788
56766,60197,25703
56702,60178,25617
56639,60159,25531
56579,60140,25441
56517,60122,25346
56452,60104,25250
56383,60086,25154
56310,60069,25054
56230,60051,24951
56145,60029,24846
56059,60006,24741
55974,59985,24630
55886,59964,24513
55796,59940,24393
55704,59914,24271
55609,59887,24143
55513,59860,24010
55420,59835,23882
55333,59814,23762
55253,59795,23657
55189,59779,23575
55150,59771,23529
55153,59774,23543
55215,59791,23640
55352,59827,23841
55571,59886,24158
55877,59969,24593
56265,60073,25142
56733,60198,25798
57272,60342,26548
57861,60498,27362
58474,60663,28207
59092,60830,29060
59701,60997,29902
60288,61161,30710
60837,61315,31466
61339,61459,32158
61791,61590,32786
62192,61709,33346
62539,61811,33834
62838,61899,34256
63090,61975,34616
63300,62039,34914
63469,62089,35156
63601,62129,35350
63702,62159,35501
63774,62178,35609
63817,62186,35678
63836,62187,35718
63832,62184,35731
63810,62176,35715
63773,62166,35674
63726,62154,35611
63671,62140,35530
63608,62120,35431
63533,62097,35316
63453,62071,35190
63367,62044,35058
63274,62014,34921
63175,61982,34779
63076,61951,34640
62975,61919,34507
62876,61887,34378
62780,61855,34253
62686,61826,34131
62590,61797,34010
62495,61769,33885
62400,61741,33755
62305,61714,33623
62208,61688,33490
62110,61661,33358
62018,61638,33230
61937,61616,33110
61866,61596,32998
61804,61577,32894
61751,61561,32803
61705,61546,32724
61665,61534,32657
61632,61525,32603
61608,61521,32567
61592,61519,32548
61583,61517,32544
61584,61517,32552
61596,61519,32570
61616,61524,32596
61644,61530,32629
61674,61537,32667
61706,61543,32709
61738,61552,32756
61771,61561,32805
61802,61571,32854
61833,61581,32900
61864,61592,32944
61893,61602,32983
61912,61612,33014
61920,61617,33036
61920,61618,33047
61910,61614,33044
61891,61608,33025
61868,61601,32990
61839,61594,32940
61801,61583,32876
61749,61569,32798
61684,61550,32706
61612,61528,32602
61534,61505,32487
61452,61482,32364
61366,61459,32234
61276,61436,32098
61179,61410,31955
61075,61381,31807
60969,61352,31653
60857,61323,31493
60736,61290,31326
60612,61255,31153
60484,61216,30977
60355,61174,30795
60226,61132,30610
60100,61093,30424
59977,61056,30242
59852,61021,30067
59727,60987,29898
59606,60956,29733
59489,60927,29572
59377,60898,29417
59270,60871,29266
59167,60845,29120
59068,60820,28981
58970,60796,28849
58874,60774,28720
58785,60754,28594
58703,60734,28473
58622,60711,28354
58541,60686,28239
58463,60664,28129
58389,60642,28024
58316,60622,27921
58246,60602,27819
58177,60583,27719
58108,60565,27623
58040,60548,27531
57971,60533,27444
57904,60520,27360
57836,60506,27279
57769,60491,27201
57702,60475,27123
57640,60459,27045
57581,60443,26966
57524,60426,26884
57467,60408,26801
57410,60394,26721
57352,60381,26644
57293,60366,26568
57233,60350,26489
57175,60332,26407
57115,60314,26320
57052,60296,26231
56989,60278,26143
56925,60262,26057
56864,60246,25975
56803,60230,25893
56741,60213,25810
56681,60197,25726
56626,60183,25643
56571,60169,25559
56513,60153,25472
56450,60138,25383
56380,60122,25291
56302,60104,25193
56221,60084,25092
56138,60063,24989
56049,60041,24882
55955,60017,24766
55857,59992,24643
55754,59967,24515
55649,59943,24384
55549,59918,24255
55456,59896,24127
55368,59876,24004
55285,59855,23884
55209,59834,23770
55142,59816,23672
55093,59806,23605
55074,59807,23587
55104,59818,23638
55201,59843,23781
55374,59886,24033
55627,59948,24397
55962,60031,24872
56375,60137,25453
56861,60264,26134
57409,60407,26899
58001,60563,27718
58614,60726,28559
59224,60888,29396
59816,61047,30209
60373,61198,30981
60884,61341,31699
61345,61474,32353
61754,61594,32937
62116,61700,33449
62433,61794,33896
62701,61874,34279
62922,61941,34599
63104,61994,34861
63253,62039,35071
63367,62074,35234
63445,62099,35350
63494,62116,35427
63520,62125,35469
63525,62127,35481
63515,62121,35464
63489,62109,35422
63445,62091,35354
63385,62070,35262
63314,62045,35151
63234,62018,35028
63143,61989,34891
63045,61959,34741
62945,61927,34582
62843,61894,34419
62743,61865,34261
62642,61837,34110
62543,61809,33962
62449,61781,33820
62359,61752,33684
62267,61723,33549
62170,61694,33411
62069,61665,33269
61968,61635,33126
61865,61608,32979
61759,61582,32831
61649,61556,32685
61541,61528,32542
61439,61499,32410
61350,61474,32293
61277,61452,32193
61217,61434,32107
61168,61421,32035
61128,61411,31979
61097,61404,31939
61078,61401,31915
61068,61401,31904
61066,61403,31906
61074,61408,31924
61092,61414,31958
61121,61421,32003
61162,61431,32059
61211,61445,32123
61264,61459,32188
61318,61472,32252
61374,61485,32314
61428,61498,32370
61474,61510,32418
61514,61518,32453
61544,61526,32474
61562,61533,32483
61568,61537,32482
61561,61535,32471
61543,61531,32448
61515,61525,32412
61475,61515,32357
61426,61501,32287
61371,61482,32203
61307,61461,32108
61233,61437,31999
61149,61411,31876
61057,61385,31745
60959,61358,31605
60858,61329,31459
60753,61298,31305
60644,61267,31142
60533,61236,30975
60420,61202,30807
60306,61167,30640
60190,61133,30474
60069,61099,30305
59940,61063,30129
59805,61026,29947
59667,60989,29764
59532,60952,29581
59399,60916,29399
59270,60882,29220
59148,60850,29044
59031,60819,28875
58917,60787,28714
58807,60757,28560
58703,60727,28411
58605,60698,28267
58513,60669,28129
58424,60642,27996
58336,60617,27869
58251,60593,27749
58167,60572,27637
58083,60551,27529
58004,60532,27424
57930,60515,27322
57856,60497,27221
57782,60479,27122
57709,60463,27028
57636,60447,26935
57565,60431,26841
57500,60414,26751
57438,60399,26665
57381,60385,26584
57329,60372,26506
57280,60358,26433
57230,60343,26362
57182,60328,26294
57133,60313,26231
57083,60298,26172
57034,60282,26110
56984,60265,26044
56932,60247,25974
56879,60231,25903
56825,60216,25831
56772,60203,25754
56717,60189,25673
56662,60175,25590
56604,60161,25507
56543,60148,25425
56480,60135,25345
56419,60124,25265
56359,60113,25184
56299,60101,25101
56239,60087,25015
56179,60073,24927
56116,60058,24833
56047,60040,24729
55973,60018,24618
55894,59995,24506
55808,59972,24393
55714,59949,24277
55619,59925,24159
55527,59902,24040
55435,59879,23918
55344,59856,23791
55255,59833,23664
55170,59810,23542
55092,59790,23433
55031,59775,23350
55001,59768,23312
55013,59773,23336
55081,59793,23443
55222,59831,23652
55449,59890,23975
55761,59971,24413
56153,60071,24958
56617,60191,25600
57144,60328,26328
57716,60479,27120
58313,60638,27944
58912,60797,28769
59496,60954,29574
60049,61104,30338
60563,61247,31049
61035,61383,31699
61461,61507,32284
61838,61617,32799
62166,61714,33248
62446,61796,33636
62681,61863,33966
62872,61913,34236
63020,61952,34450
63129,61980,34612
63204,62000,34729
63252,62013,34806
63275,62018,34844
63275,62016,34847
63249,62007,34818
63203,61994,34761
63143,61976,34678
63073,61955,34576
62990,61932,34460
62899,61907,34332
62801,61880,34195
62698,61851,34050
62590,61821,33895
62476,61789,33731
62358,61755,33561
62235,61722,33389
62110,61688,33216
61986,61655,33040
61864,61622,32862
61744,61587,32681
61624,61551,32496
61503,61514,32309
61380,61477,32124
61256,61439,31941
61133,61402,31762
61016,61367,31592
60908,61334,31436
60810,61306,31297
60723,61282,31178
60649,61262,31080
60593,61247,31003
60554,61238,30947
60531,61236,30913
60521,61236,30901
60526,61238,30910
60542,61243,30937
60566,61251,30979
60601,61261,31035
60646,61275,31106
60696,61290,31188
60753,61307,31276
60813,61326,31369
60876,61345,31464
60942,61364,31561
61010,61381,31655
61076,61396,31740
61135,61412,31817
61185,61426,31886
61225,61439,31942
61252,61449,31981
61264,61455,32004
61268,61460,32012
61263,61460,32002
61248,61453,31971
61221,61441,31920
61184,61425,31852
61135,61406,31768
61071,61383,31670
60995,61358,31560
60909,61329,31441
60814,61299,31312
60712,61271,31171
60603,61243,31022
60487,61214,30864
60369,61183,30696
60249,61151,30523
60125,61118,30344
59997,61084,30159
59869,61052,29975
59743,61020,29792
59619,60988,29610
59496,60955,29430
59373,60922,29253
59250,60891,29079
59132,60861,28912
59018,60831,28752
58901,60799,28594
58783,60767,28437
58669,60738,28285
58559,60708,28140
58452,60678,28001
58348,60650,27868
58250,60624,27740
58157,60602,27617
58066,60582,27497
57979,60560,27380
57899,60538,27263
57826,60515,27149
57757,60495,27043
57693,60477,26948
57634,60459,26863
57577,60441,26783
57523,60424,26708
57469,60410,26637
57416,60399,26567
57363,60389,26496
57310,60379,26425
57259,60369,26357
57209,60360,26294
57157,60349,26232
57103,60336,26166
57052,60324,26103
57004,60314,26044
56957,60303,25986
56909,60291,25927
56861,60281,25869
56815,60272,25812
56771,60262,25753
56729,60250,25692
56686,60236,25631
56643,60222,25567
56602,60207,25502
56563,60192,25437
56524,60176,25372
56486,60161,25305
56444,60146,25234
56394,60132,25159
56338,60120,25086
56278,60110,25013
56213,60099,24933
56143,60086,24846
56068,60070,24753
55988,60053,24654
55906,60035,24549
55826,60015,24441
55749,59995,24334
55673,59975,24226
55596,59956,24119
55518,59936,24012
55438,59917,23905
55356,59898,23797
55278,59881,23697
55215,59865,23614
55173,59853,23559
55162,59848,23549
55199,59857,23604
55301,59881,23749
55479,59925,24004
55738,59992,24374
56079,60083,24853
56500,60196,25443
56996,60331,26135
57551,60482,26901
58142,60642,27710
58748,60805,28538
59346,60966,29361
59920,61123,30155
60458,61272,30901
60950,61409,31589
61392,61531,32213
61787,61641,32771
62135,61739,33264
62436,61825,33694
62694,61898,34064
62911,61961,34376
63090,62015,34635
63239,62059,34844
63359,62094,35008
63451,62118,35129
63512,62134,35211
63547,62144,35258
63562,62150,35272
63557,62150,35252
63532,62144,35204
63490,62131,35137
63434,62115,35057
63365,62096,34961
63286,62072,34849
63198,62044,34726
63103,62014,34598
63006,61981,34467
62909,61949,34336
62812,61917,34203
62713,61886,34068
62616,61859,33931
62522,61835,33795
62429,61812,33659
62334,61789,33523
62233,61762,33384
62128,61734,33242
62023,61707,33098
61917,61683,32955
61809,61658,32812
61707,61633,32673
61615,61608,32544
61533,61583,32427
61461,61561,32322
61402,61542,32235
61357,61528,32165
61323,61518,32112
61301,61513,32075
61289,61511,32056
61288,61513,32055
61302,61516,32072
61331,61523,32105
61370,61536,32153
61416,61554,32214
61465,61577,32288
61517,61600,32372
61572,61624,32464
61628,61644,32558
61683,61661,32648
61734,61679,32735
61782,61697,32821
61826,61714,32899
61861,61729,32961
61886,61740,33009
61899,61747,33043
61902,61752,33060
61894,61755,33059
61876,61753,33040
61847,61748,33009
61808,61741,32965
61756,61732,32907
61691,61720,32833
61619,61708,32747
61541,61692,32647
61453,61672,32529
61355,61647,32399
61247,61621,32256
61131,61592,32099
61007,61559,31931
60877,61523,31755
60742,61484,31572
60605,61444,31383
60464,61402,31185
60323,61360,30985
60182,61317,30785
60041,61275,30585
59903,61236,30381
59766,61198,30177
59629,61162,29974
59487,61126,29773
59339,61091,29573
59191,61055,29377
59047,61020,29188
58908,60986,29004
58777,60952,28827
58653,60919,28660
58534,60887,28505
58419,60857,28361
58311,60831,28228
58213,60807,28104
58122,60786,27988
58036,60764,27880
57952,60742,27779
57873,60720,27684
57798,60700,27595
57729,60681,27508
57663,60663,27420
57599,60646,27333
57538,60628,27251
57478,60612,27170
57419,60598,27092
57358,60586,27018
57296,60575,26949
57233,60563,26879
57172,60551,26807
57113,60541,26734
57055,60531,26661
56998,60522,26589
56942,60513,26520
56887,60504,26454
56830,60494,26393
56776,60483,26335
56725,60474,26281
56677,60466,26230
56633,60460,26182
56592,60456,26136
56554,60454,26090
56517,60452,26039
56482,60447,25987
56450,60440,25934
56415,60431,25882
56374,60420,25828
56330,60408,25770
56285,60396,25709
56239,60385,25643
56191,60374,25574
56136,60363,25501
56072,60351,25422
56002,60337,25336
55928,60322,25246
55851,60306,25148
55771,60287,25041
55690,60269,24928
55604,60253,24810
55511,60235,24689
55414,60215,24563
55313,60194,24435
55210,60170,24304
55105,60145,24168
55001,60119,24030
54900,60094,23895
54805,60073,23766
54719,60055,23646
54642,60041,23538
54577,60030,23449
54532,60023,23389
54521,60024,23379
54559,60038,23441
54660,60067,23595
54838,60115,23859
55099,60186,24243
55445,60279,24747
55875,60396,25366
56385,60536,26088
56955,60692,26890
57566,60859,27744
58196,61032,28619
58824,61204,29491
59435,61372,30337
60015,61533,31139
60550,61686,31881
61033,61828,32556
61464,61955,33161
61844,62068,33697
62175,62167,34172
62461,62253,34584
62707,62327,34933
62912,62389,35224
63080,62442,35467
63216,62486,35666
63325,62521,35824
63407,62548,35943
63464,62569,36027
63498,62582,36079
63511,62587,36100
63506,62583,36092
63486,62575,36060
63451,62563,36010
63405,62547,35945
63353,62531,35869
63294,62514,35784
63229,62497,35691
63163,62477,35593
63097,62457,35495
63031,62439,35402
62969,62425,35313
62911,62411,35228
62851,62397,35147
62792,62383,35066
62737,62366,34987
62683,62347,34909
62625,62327,34827
62563,62307,34740
62499,62288,34649
62432,62271,34555
62363,62254,34460
62297,62235,34365
62234,62215,34273
62175,62196,34185
62123,62179,34108
62075,62163,34040
62032,62146,33978
61997,62131,33927
61968,62120,33884
61946,62110,33849
61931,62102,33821
61921,62095,33801
61915,62090,33793
61913,62088,33797
61919,62091,33814
61935,62097,33844
61960,62106,33886
61991,62117,33933
62024,62130,33984
62061,62143,34038
62102,62159,34093
62142,62174,34139
62176,62187,34175
62208,62197,34201
62235,62205,34221
62253,62209,34230
62259,62209,34228
62255,62203,34214
62240,62197,34186
62215,62190,34146
62179,62182,34095
62134,62172,34032
62078,62159,33960
62017,62144,33878
61950,62128,33788
61878,62110,33692
61801,62089,33589
61721,62067,33477
61637,62043,33359
61553,62019,33236
61467,61994,33107
61378,61968,32972
61285,61939,32830
61190,61908,32686
61092,61877,32538
60988,61845,32386
60883,61814,32234
60777,61783,32084
60671,61751,31933
60563,61719,31780
60455,61689,31628
60345,61661,31479
60237,61633,31336
60133,61606,31195
60031,61580,31057
59932,61553,30923
59839,61527,30795
59753,61503,30673
59677,61483,30560
59608,61466,30455
59541,61447,30358
59477,61427,30267
59420,61408,30185
59369,61391,30110
59321,61374,30038
59271,61358,29965
59217,61342,29890
59159,61327,29812
59099,61313,29732
59041,61299,29654
58985,61286,29577
58932,61272,29499
58879,61259,29421
58825,61247,29346
58773,61235,29273
58721,61221,29204
58670,61207,29140
58622,61193,29083
58578,61180,29027
58536,61169,28970
58497,61158,28909
58460,61147,28849
58423,61136,28789
58385,61126,28731
58344,61115,28677
58301,61104,28623
58255,61092,28563
58206,61079,28496
58154,61065,28424
58102,61051,28349
58055,61038,28275
58009,61025,28199
57963,61010,28119
57913,60994,28036
57855,60978,27954
57796,60961,27871
57737,60944,27789
57673,60926,27705
57603,60906,27614
57527,60885,27516
57447,60862,27413
57368,60841,27308
57289,60821,27200
57210,60801,27092
57131,60780,26986
57050,60757,26880
56966,60731,26769
56879,60705,26653
56791,60681,26533
56700,60659,26412
56609,60637,26292
56519,60615,26173
56430,60594,26055
56342,60574,25937
56256,60555,25819
56175,60539,25701
56104,60524,25596
56053,60512,25518
56030,60506,25484
56050,60511,25511
56128,60532,25624
56277,60572,25841
56503,60633,26172
56808,60717,26620
57194,60824,27182
57650,60950,27837
58160,61094,28559
58704,61248,29323
59262,61408,30107
59817,61569,30887
60348,61723,31644
60843,61870,32362
61301,62009,33034
61723,62137,33652
62103,62250,34208
62443,62349,34699
62744,62437,35132
63006,62514,35511
63231,62581,35837
63423,62636,36110
63581,62681,36335
63707,62718,36518
63804,62749,36659
63877,62772,36761
63926,62787,36826
63949,62795,36861
63947,62796,36868
63929,62793,36851
63901,62789,36812
63860,62779,36748
63808,62763,36666
63749,62743,36573
63687,62721,36474
63621,62699,36371
63553,62674,36265
63485,62649,36160
63417,62622,36057
63350,62596,35957
63289,62574,35861
63230,62555,35768
63171,62537,35676
63110,62520,35583
63044,62501,35488
62977,62480,35391
62911,62462,35293
62843,62444,35191
62776,62425,35084
62708,62406,34978
62640,62384,34873
62572,62361,34770
62506,62340,34672
62442,62323,34582
62386,62305,34503
62337,62289,34434
62296,62276,34376
62261,62265,34332
62233,62255,34300
62211,62248,34280
62198,62247,34270
62193,62249,34270
62193,62252,34277
62196,62254,34285
62201,62255,34296
62212,62256,34310
62232,62258,34326
62253,62259,34343
62272,62261,34365
62290,62264,34392
62310,62266,34421
62329,62268,34446
62345,62271,34468
62355,62274,34484
62359,62275,34490
62356,62274,34481
62345,62272,34460
62324,62270,34428
62294,62265,34388
62261,62256,34339
62225,62245,34282
62182,62230,34215
62130,62213,34137
62071,62193,34049
62007,62172,33951
61941,62152,33843
61871,62131,33725
61791,62108,33596
61703,62082,33459
61609,62054,33316
61513,62025,33169
61412,61994,33018
61310,61963,32865
61205,61933,32711
61094,61902,32556
60982,61868,32398
60871,61836,32240
60762,61805,32083
60654,61773,31924
60547,61740,31764
60446,61709,31607
60350,61681,31456
60254,61653,31313
60160,61626,31177
60064,61599,31048
59968,61571,30921
59878,61544,30795
59795,61519,30669
59710,61495,30547
59624,61472,30428
59543,61449,30312
59465,61426,30203
59392,61402,30101
59325,61378,30007
59264,61357,29920
59207,61338,29836
59149,61320,29753
59088,61303,29671
59024,61286,29589
58959,61270,29509
58898,61254,29429
58840,61239,29350
58784,61227,29271
58731,61215,29193
58679,61205,29118
58628,61195,29043
58576,61185,28969
58527,61175,28898
58480,61163,28832
58431,61150,28770
58382,61136,28711
58335,61121,28651
58288,61105,28587
58239,61088,28516
58190,61071,28443
58138,61054,28370
58084,61037,28294
58029,61021,28218
57973,61004,28143
57916,60987,28066
57857,60970,27985
57796,60952,27899
57736,60935,27811
57676,60919,27723
57616,60903,27637
57554,60888,27549
57490,60873,27457
57424,60858,27361
57353,60842,27263
57278,60825,27159
57201,60805,27051
57121,60783,26941
57038,60759,26830
56947,60732,26713
56851,60702,26587
56752,60670,26456
56652,60639,26320
56550,60609,26176
56444,60581,26026
56334,60555,25874
56223,60529,25721
56117,60504,25570
56019,60481,25430
55932,60461,25306
55860,60443,25205
55809,60430,25138
55793,60428,25125
55831,60440,25189
55936,60470,25347
56115,60520,25613
56377,60592,25993
56724,60685,26489
57154,60801,27092
57654,60938,27784
58200,61089,28541
58771,61249,29335
59346,61412,30137
59908,61572,30923
60442,61727,31676
60936,61872,32381
61389,62006,33028
61801,62127,33615
62172,62235,34140
62496,62329,34604
62775,62411,35006
63012,62480,35349
63211,62540,35636
63376,62590,35872
63504,62629,36058
63599,62657,36197
63664,62675,36294
63701,62684,36351
63714,62685,36369
63705,62679,36354
63678,62668,36314
63636,62654,36254
63583,62637,36176
63521,62618,36081
63449,62598,35972
63367,62574,35854
63279,62547,35730
63187,62518,35600
63092,62488,35465
62999,62459,35328
62910,62431,35197
62825,62406,35074
62741,62382,34955
62657,62359,34836
62573,62336,34715
62491,62313,34593
62411,62290,34470
62332,62268,34348
62253,62242,34223
62173,62214,34094
62090,62186,33964
62004,62157,33834
61920,62129,33705
61844,62104,33584
61775,62082,33478
61711,62063,33385
61654,62045,33304
61611,62030,33239
61578,62020,33189
61555,62014,33154
61543,62013,33136
61542,62015,33133
61550,62020,33143
61568,62028,33165
61595,62037,33202
61632,62047,33253
61675,62058,33314
61722,62070,33379
61771,62085,33442
61819,62099,33506
61863,62113,33567
61902,62125,33624
61939,62136,33678
61972,62144,33726
61999,62148,33762
62013,62150,33781
62015,62149,33782
62006,62146,33766
61986,62142,33737
61957,62135,33694
61921,62124,33637
61879,62110,33571
61832,62093,33494
61777,62074,33403
61710,62053,33297
61635,62031,33179
61550,62008,33050
61455,61982,32911
61352,61952,32761
61244,61920,32600
61128,61885,32428
61006,61848,32248
60881,61809,32065
60756,61771,31885
60631,61735,31708
60509,61699,31534
60388,61664,31361
60268,61629,31188
60147,61595,31017
60030,61563,30851
59921,61532,30690
59820,61502,30531
59726,61474,30378
59636,61448,30232
59548,61424,30096
59459,61400,29967
59368,61374,29842
59273,61346,29718
59180,61320,29598
59094,61295,29483
59016,61273,29374
58946,61253,29272
58887,61234,29180
58833,61216,29091
58778,61200,29003
58720,61186,28920
58663,61175,28841
58607,61164,28767
58551,61153,28695
58498,61141,28624
58452,61127,28554
58410,61111,28486
58369,61096,28423
58329,61082,28363
58290,61069,28306
58248,61057,28250
58204,61046,28193
58162,61035,28136
58123,61026,28084
58085,61018,28032
58046,61010,27979
58008,61003,27926
57969,60995,27873
57925,60985,27818
57878,60974,27760
57832,60962,27698
57785,60951,27633
57739,60940,27565
57694,60930,27492
57647,60917,27414
57599,60901,27333
57546,60884,27248
57487,60865,27158
57423,60844,27066
57354,60822,26972
57278,60799,26872
57196,60775,26766
57112,60750,26654
57023,60726,26537
56932,60702,26416
56841,60681,26293
56753,60660,26171
56665,60638,26048
56578,60619,25925
56493,60603,25802
56411,60588,25681
56334,60571,25566
56264,60553,25467
56207,60536,25393
56172,60525,25359
56175,60522,25385
56233,60534,25490
56361,60566,25690
56573,60620,25998
56870,60699,26418
57249,60801,26943
57699,60923,27561
58203,61062,28256
58741,61215,29002
59296,61376,29770
59849,61540,30538
60380,61699,31281
60878,61849,31984
61340,61987,32639
61763,62113,33242
62146,62225,33789
62487,62324,34275
62783,62410,34696
63034,62484,35055
63246,62546,35358
63420,62597,35608
63560,62640,35809
63669,62674,35964
63751,62700,36081
63806,62720,36158
63834,62730,36198
63840,62733,36205
63826,62729,36185
63797,62718,36137
63752,62702,36067
63694,62681,35979
63625,62658,35879
63546,62634,35769
63460,62609,35652
63370,62581,35526
63278,62552,35391
63183,62519,35252
63087,62486,35111
62991,62454,34973
62894,62424,34838
62796,62394,34703
62700,62365,34568
62603,62336,34430
62505,62305,34288
62408,62274,34143
62312,62245,33999
62216,62216,33853
62117,62186,33702
62020,62157,33551
61930,62131,33408
61849,62106,33276
61774,62083,33159
61708,62063,33058
61651,62045,32975
61605,62030,32910
61571,62020,32864
61553,62015,32835
61552,62015,32825
61563,62020,32834
61582,62032,32860
61607,62047,32899
61642,62064,32952
61684,62082,33017
61735,62099,33087
61793,62117,33163
61853,62134,33244
61911,62150,33326
61967,62167,33404
62022,62183,33479
62076,62197,33551
62129,62209,33614
62174,62221,33662
62206,62230,33695
62223,62236,33712
62224,62237,33710
62212,62231,33689
62186,62218,33652
62150,62202,33600
62105,62185,33536
62051,62167,33458
61988,62148,33367
61919,62127,33265
61845,62105,33153
61765,62081,33030
61679,62058,32897
61587,62034,32753
61487,62009,32602
61379,61982,32448
61270,61955,32293
61160,61925,32136
61047,61893,31974
60930,61859,31810
60810,61824,31650
60689,61789,31491
60572,61754,31331
60457,61719,31170
60343,61683,31008
60232,61646,30848
60125,61609,30691
60019,61574,30536
59917,61543,30386
59820,61515,30245
59730,61491,30108
59646,61468,29977
59571,61446,29855
59501,61424,29740
59432,61401,29629
59363,61378,29524
59292,61357,29425
59220,61337,29330
59148,61316,29240
59082,61294,29155
59022,61276,29076
58968,61261,29003
58918,61248,28932
58869,61234,28863
58819,61221,28795
58768,61208,28726
58720,61196,28657
58674,61186,28590
58628,61178,28524
58583,61170,28461
58540,61164,28401
58497,61156,28343
58457,61147,28288
58417,61136,28236
58378,61123,28181
58340,61109,28124
58304,61096,28065
58265,61083,28007
58222,61070,27947
58180,61059,27887
58138,61049,27826
58095,61038,27761
58053,61026,27697
58010,61014,27634
57963,61001,27570
57913,60987,27502
57860,60972,27428
57803,60956,27348
57744,60939,27262
57680,60919,27172
57609,60898,27080
57529,60877,26985
57445,60856,26883
57359,60834,26772
57271,60813,26657
57187,60794,26543
57105,60775,26427
57021,60755,26312
56933,60734,26197
56848,60713,26087
56770,60695,25988
56706,60678,25909
56667,60666,25863
56667,60664,25869
56720,60676,25950
56841,60707,26128
57043,60762,26419
57332,60843,26833
57706,60949,27366
58154,61075,28003
58662,61219,28717
59211,61375,29482
59777,61538,30270
60339,61701,31056
60884,61862,31819
61400,62014,32545
61879,62155,33220
62315,62283,33836
62708,62397,34390
63062,62500,34889
63376,62593,35333
63649,62677,35720
63882,62751,36056
64080,62813,36347
64243,62864,36592
64375,62905,36788
64479,62939,36942
64560,62964,37059
64618,62983,37141
64654,62993,37187
64668,62995,37200
64658,62988,37184
64628,62977,37142
64581,62963,37081
64520,62946,37003
64447,62925,36909
64368,62903,36804
64286,62879,36694
64206,62854,36581
64127,62828,36469
64050,62801,36359
63975,62776,36252
63905,62751,36148
63840,62728,36050
63778,62706,35957
63717,62686,35867
63655,62669,35775
63592,62654,35679
63523,62638,35581
63450,62619,35479
63378,62600,35371
63308,62579,35257
63237,62555,35141
63167,62532,35028
63099,62511,34922
63035,62489,34822
62976,62466,34733
62923,62444,34656
62876,62424,34589
62835,62409,34531
62802,62397,34482
62777,62389,34443
62762,62384,34416
62757,62383,34402
62758,62385,34401
62765,62389,34413
62780,62397,34434
62800,62406,34461
62827,62418,34495
62861,62432,34539
62898,62448,34592
62935,62465,34650
62969,62480,34708
62999,62492,34759
63026,62501,34801
63047,62509,34834
63059,62513,34854
63061,62513,34860
63050,62511,34853
63030,62506,34832
63006,62498,34800
62976,62488,34756
62940,62474,34698
62897,62456,34630
62846,62438,34551
62784,62418,34460
62709,62396,34354
62624,62373,34233
62535,62348,34100
62442,62321,33960
62345,62293,33812
62243,62265,33659
62137,62235,33503
62031,62204,33345
61923,62172,33188
61811,62138,33031
61696,62102,32870
61581,62066,32706
61465,62030,32539
61351,61994,32372
61240,61959,32208
61131,61925,32046
61024,61891,31887
60920,61858,31730
60817,61825,31576
60716,61794,31427
60615,61763,31281
60512,61732,31139
60413,61704,31003
60320,61678,30875
60230,61654,30754
60146,61632,30637
60064,61612,30525
59986,61590,30418
59915,61570,30317
59851,61550,30223
59791,61531,30137
59738,61516,30056
59689,61503,29975
59641,61489,29895
59591,61473,29820
59539,61457,29750
59485,61442,29680
59432,61427,29609
59379,61413,29536
59325,61399,29463
59273,61385,29391
59224,61370,29324
59174,61356,29262
59122,61343,29199
59068,61329,29132
59015,61314,29063
58962,61300,28998
58913,61288,28937
58867,61279,28877
58824,61269,28814
58777,61257,28749
58727,61241,28682
58675,61225,28611
58622,61209,28538
58565,61193,28465
58504,61175,28388
58437,61157,28306
58367,61139,28219
58298,61122,28129
58228,61106,28036
58156,61089,27940
58082,61073,27840
58007,61056,27737
57927,61037,27629
57843,61016,27516
57759,60992,27401
57676,60968,27286
57593,60945,27170
57506,60920,27048
57416,60895,26921
57322,60870,26789
57226,60845,26654
57131,60820,26519
57039,60797,26392
56949,60775,26275
56868,60756,26179
56811,60744,26119
56791,60745,26115
56828,60761,26189
56937,60794,26361
57130,60848,26645
57413,60926,27049
57786,61032,27570
58240,61159,28195
58756,61303,28906
59314,61461,29677
59890,61626,30480
60466,61794,31284
61028,61956,32067
61561,62112,32816
62053,62259,33518
62498,62396,34163
62899,62521,34749
63260,62634,35278
63580,62735,35747
63862,62823,36156
64106,62900,36512
64313,62967,36819
64480,63022,37076
64614,63066,37283
64720,63100,37447
64800,63124,37575
64856,63139,37667
64889,63147,37720
64900,63147,37734
64890,63140,37716
64862,63128,37672
64819,63113,37605
64763,63096,37520
64696,63077,37421
64621,63057,37315
64545,63034,37204
64469,63010,37093
64395,62987,36985
64321,62963,36878
64246,62936,36772
64173,62911,36670
64104,62887,36575
64037,62867,36482
63974,62850,36391
63915,62835,36299
63852,62820,36204
63783,62802,36102
63711,62781,35993
63638,62759,35881
63562,62736,35766
63486,62711,35648
63411,62686,35531
63336,62661,35418
63263,62636,35309
63196,62611,35207
63136,62589,35115
63084,62570,35033
63037,62554,34961
62994,62540,34902
62959,62527,34856
62937,62519,34824
62926,62515,34807
62922,62515,34805
62928,62516,34814
62945,62519,34834
62970,62525,34862
62998,62532,34895
63029,62543,34931
63061,62556,34970
63093,62569,35011
63123,62581,35050
63150,62594,35087
63171,62606,35121
63189,62614,35150
63203,62619,35170
63214,62622,35180
63219,62622,35178
63210,62618,35159
63187,62612,35128
63155,62602,35086
63117,62588,35031
63069,62571,34961
63010,62551,34879
62943,62528,34788
62872,62504,34688
62792,62478,34575
62701,62449,34449
62605,62417,34311
62506,62383,34162
62404,62350,34005
62298,62319,33842
62187,62289,33678
62072,62257,33512
61953,62220,33342
61833,62181,33167
61712,62141,32989
61591,62102,32810
61472,62064,32632
61358,62027,32456
61248,61991,32281
61137,61956,32110
61027,61921,31944
60917,61888,31784
60808,61857,31627
60698,61827,31474
60589,61798,31322
60482,61768,31171
60377,61739,31022
60272,61708,30874
60169,61677,30725
60070,61647,30582
59977,61619,30445
59886,61593,30314
59797,61568,30185
59709,61543,30060
59622,61517,29940
59538,61490,29826
59455,61465,29716
59375,61441,29611
59299,61420,29509
59225,61399,29407
59153,61378,29309
59087,61361,29216
59025,61345,29129
58963,61328,29048
58901,61309,28970
58838,61288,28895
58775,61268,28821
58710,61250,28744
58646,61231,28660
58583,61213,28571
58521,61195,28485
58459,61178,28402
58399,61160,28323
58341,61144,28249
58283,61129,28178
58227,61115,28108
58173,61100,28037
58117,61084,27960
58056,61070,27875
57992,61056,27783
57926,61042,27686
57857,61027,27587
57788,61011,27486
57722,60994,27382
57657,60973,27276
57587,60951,27171
57511,60930,27065
57431,60908,26955
57348,60885,26844
57263,60860,26733
57177,60835,26622
57091,60811,26509
57004,60787,26391
56913,60764,26269
56820,60739,26146
56726,60714,26025
56634,60689,25904
56544,60664,25780
56454,60640,25655
56365,60618,25536
56286,60598,25433
56226,60585,25359
56197,60580,25331
56215,60586,25367
56297,60609,25492
56457,60653,25722
56703,60724,26071
57036,60818,26538
57453,60933,27122
57945,61070,27810
58495,61224,28580
59081,61392,29401
59682,61563,30246
60277,61734,31086
60851,61900,31896
61391,62059,32658
61893,62207,33364
62351,62346,34006
62761,62474,34584
63120,62588,35094
63431,62688,35540
63697,62774,35926
63920,62843,36254
64104,62899,36526
64255,62943,36746
64374,62978,36917
64462,63003,37045
64523,63020,37134
64559,63030,37185
64570,63031,37198
64556,63025,37177
64523,63014,37124
64473,62997,37046
64409,62977,36951
64332,62952,36844
64244,62922,36728
64145,62887,36602
64042,62850,36466
63940,62816,36325
63842,62784,36184
63750,62755,36044
63662,62728,35906
63578,62702,35770
63494,62679,35639
63410,62656,35513
63326,62631,35389
63243,62605,35266
63157,62578,35140
63069,62553,35007
62977,62528,34865
62881,62502,34720
62782,62473,34576
62687,62442,34440
62598,62411,34311
62517,62382,34195
62444,62356,34092
62382,62334,34002
62330,62314,33924
62289,62297,33861
62260,62285,33814
62241,62277,33782
62231,62272,33763
62226,62271,33756
62226,62274,33761
62231,62277,33776
62242,62281,33801
62256,62288,33834
62276,62298,33875
62303,62312,33920
62335,62327,33968
62368,62343,34015
62400,62357,34058
62429,62369,34094
62450,62378,34120
62465,62383,34140
62478,62386,34158
62486,62387,34168
62488,62385,34168
62486,62379,34157
62475,62371,34129
62452,62359,34083
62414,62342,34022
62364,62321,33947
62302,62297,33857
62230,62273,33751
62151,62249,33633
62063,62224,33502
61969,62197,33359
61868,62166,33209
61760,62134,33054
61647,62101,32898
61529,62070,32740
61405,62038,32576
61278,62005,32405
61149,61970,32227
61019,61937,32044
60887,61903,31857
60753,61864,31666
60618,61825,31474
60484,61785,31283
60348,61743,31092
60213,61701,30904
60083,61659,30719
59956,61618,30539
59835,61580,30364
59720,61545,30200
59611,61513,30046
59507,61481,29897
59407,61448,29752
59308,61417,29612
59211,61386,29480
59120,61357,29356
59036,61331,29238
58957,61308,29128
58885,61290,29023
58819,61275,28925
58753,61261,28832
58689,61249,28745
58631,61237,28664
58573,61223,28584
58513,61206,28505
58450,61188,28429
58391,61172,28358
58335,61157,28289
58284,61144,28223
58234,61132,28161
58181,61118,28101
58123,61103,28038
58060,61088,27972
57995,61072,27901
57928,61050,27823
57862,61026,27736
57794,61004,27643
57726,60984,27547
57659,60965,27450
57595,60946,27354
57535,60929,27260
57479,60912,27170
57422,60895,27080
57362,60876,26985
57297,60855,26885
57231,60833,26784
57161,60808,26677
57082,60780,26563
56994,60751,26444
56898,60722,26324
56794,60693,26201
56685,60663,26075
56577,60634,25948
56473,60608,25820
56372,60585,25692
56276,60565,25568
56183,60548,25452
56097,60532,25346
56020,60518,25256
55961,60509,25192
55934,60508,25172
55952,60520,25216
56026,60548,25346
56175,60594,25583
56410,60662,25939
56734,60752,26411
57137,60863,26987
57612,60994,27654
58148,61144,28397
58724,61307,29190
59318,61475,30010
59911,61644,30833
60488,61809,31633
61036,61967,32390
61540,62115,33089
61994,62250,33724
62395,62370,34293
62741,62476,34790
63034,62568,35215
63278,62647,35572
63476,62712,35865
63631,62764,36099
63749,62804,36278
63832,62831,36408
63884,62847,36494
63906,62852,36539
63898,62849,36546
63868,62839,36519
63821,62824,36461
63757,62805,36372
63674,62784,36256
63578,62762,36121
63471,62736,35970
63353,62703,35801
63227,62667,35622
63097,62629,35439
62963,62593,35254
62827,62555,35066
62691,62518,34876
62554,62480,34686
62413,62440,34495
62267,62398,34303
62117,62355,34109
61963,62310,33910
61808,62265,33705
61651,62219,33495
61495,62176,33284
61340,62134,33075
61186,62092,32870
61035,62050,32669
60891,62010,32480
60758,61974,32308
60639,61943,32158
60538,61920,32030
60454,61901,31921
60383,61884,31830
60321,61868,31757
60273,61858,31702
60244,61853,31670
60233,61853,31659
60235,61857,31667
60248,61864,31689
60273,61872,31723
60307,61884,31768
60348,61898,31822
60394,61912,31883
60444,61926,31949
60495,61941,32020
60542,61956,32089
60581,61970,32154
60612,61982,32210
60636,61992,32256
60652,62001,32290
60659,62006,32309
60658,62006,32312
60651,62003,32300
60633,61995,32272
60603,61985,32231
60566,61972,32179
60523,61957,32116
60473,61940,32041
60413,61921,31950
60344,61898,31847
60265,61870,31734
60178,61840,31609
60083,61808,31472
59983,61775,31323
59878,61739,31163
59771,61700,30994
59661,61659,30821
59549,61620,30647
59438,61583,30474
59325,61547,30305
59213,61510,30139
59107,61472,29978
59006,61437,29821
58907,61404,29670
58808,61374,29522
58706,61343,29378
58605,61314,29237
58505,61287,29100
58406,61260,28964
58310,61231,28827
58217,61201,28693
58127,61170,28562
58042,61141,28438
57963,61114,28320
57890,61089,28211
57819,61065,28107
57748,61041,28005
57677,61019,27907
57607,60999,27806
57538,60980,27705
57473,60963,27606
57410,60945,27509
57347,60927,27412
57283,60906,27315
57220,60885,27219
57159,60866,27124
57100,60850,27035
57044,60835,26949
56988,60820,26863
56933,60806,26780
56879,60795,26704
56829,60785,26634
56782,60775,26570
56738,60765,26510
56696,60756,26451
56654,60747,26393
56613,60738,26335
56574,60728,26276
56536,60715,26214
56497,60700,26151
56456,60683,26084
56411,60665,26015
56361,60646,25942
56307,60627,25864
56248,60609,25782
56181,60591,25696
56107,60573,25604
56031,60556,25508
55954,60539,25411
55875,60521,25313
55797,60503,25212
55720,60486,25108
55647,60470,25002
55576,60454,24897
55507,60439,24796
55439,60424,24699
55373,60411,24606
55313,60400,24522
55266,60393,24460
55247,60390,24435
55267,60395,24465
55340,60413,24572
55480,60451,24776
55699,60510,25089
55999,60593,25518
56377,60699,26056
56828,60824,26697
57346,60968,27429
57923,61129,28229
58539,61303,29071
59169,61483,29927
59793,61664,30773
60394,61837,31589
60956,61999,32355
61470,62148,33060
61931,62285,33698
62339,62409,34266
62694,62519,34760
62996,62612,35182
63252,62689,35543
63467,62753,35849
63645,62804,36101
63785,62844,36300
63889,62876,36450
63957,62900,36553
63994,62915,36614
64006,62921,36640
63997,62919,36635
63971,62912,36602
63932,62902,36544
63881,62887,36467
63818,62867,36378
63745,62841,36277
63665,62814,36165
63582,62788,36045
63500,62762,35920
63418,62736,35789
63332,62708,35656
63244,62679,35525
63160,62650,35397
63083,62622,35272
63008,62594,35150
62936,62568,35031
62867,62542,34912
62798,62517,34793
62729,62492,34671
62658,62467,34549
62586,62442,34424
62511,62417,34292
62434,62391,34156
62351,62364,34024
62266,62338,33898
62183,62313,33782
62109,62293,33679
62042,62277,33591
61983,62261,33516
61932,62248,33455
61890,62238,33405
61859,62234,33370
61838,62233,33349
61823,62231,33342
61815,62229,33346
61819,62229,33361
61836,62232,33384
61863,62237,33415
61897,62243,33453
61936,62251,33498
61977,62261,33546
62017,62270,33594
62053,62279,33642
62088,62290,33690
62121,62301,33736
62148,62310,33773
62168,62315,33797
62181,62319,33809
62186,62320,33809
62180,62318,33795
62165,62314,33767
62141,62308,33725
62107,62298,33666
62062,62286,33590
62005,62271,33501
61939,62251,33406
61862,62227,33302
61774,62201,33187
61676,62175,33060
61572,62147,32924
61463,62116,32779
61354,62083,32622
61245,62050,32459
61131,62016,32291
61012,61980,32116
60889,61941,31933
60763,61902,31749
60636,61863,31567
60510,61825,31386
60384,61788,31205
60258,61751,31029
60137,61716,30859
60022,61683,30694
59914,61651,30531
59810,61620,30370
59706,61588,30213
59601,61555,30059
59500,61522,29911
59403,61493,29771
59309,61466,29637
59220,61440,29507
59133,61413,29384
59050,61386,29269
58968,61361,29159
58890,61338,29053
58818,61318,28949
58751,61302,28848
58687,61287,28751
58625,61273,28654
58564,61260,28559
58506,61246,28470
58449,61231,28387
58389,61214,28306
58329,61197,28226
58270,61180,28149
58209,61166,28071
58144,61152,27988
58076,61139,27901
58004,61124,27810
57928,61107,27716
57849,61088,27616
57765,61067,27511
57677,61045,27399
57586,61022,27282
57490,60997,27159
57391,60971,27030
57289,60943,26895
57182,60914,26754
57071,60882,26608
56953,60849,26458
56826,60813,26302
56688,60776,26134
56540,60739,25953
56386,60703,25762
56223,60666,25563
56054,60626,25357
55882,60584,25144
55707,60542,24930
55531,60501,24714
55357,60460,24494
55187,60420,24276
55023,60381,24066
54864,60346,23867
54714,60314,23679
54575,60285,23505
54450,60258,23349
54339,60232,23211
54251,60211,23104
54200,60199,23046
54195,60201,23059
54248,60220,23165
54374,60259,23382
54581,60321,23719
54869,60405,24173
55228,60508,24729
55643,60625,25366
56099,60752,26068
56584,60887,26812
57086,61030,27576
57595,61174,28338
58101,61318,29090
58594,61461,29821
59063,61600,30519
59498,61732,31171
59891,61856,31768
60236,61972,32301
60529,62077,32762
60770,62167,33152
60960,62239,33473
61104,62295,33727
61205,62339,33917
61265,62371,34049
61289,62390,34128
61282,62399,34155
61244,62397,34133
61180,62388,34073
61101,62375,33984
61007,62358,33867
60900,62335,33726
60782,62306,33565
60655,62272,33390
60523,62234,33204
60390,62194,33012
60261,62153,32817
60131,62113,32622
60001,62073,32426
59874,62033,32237
59753,61995,32059
59639,61959,31893
59530,61925,31738
59428,61892,31589
59332,61861,31446
59239,61831,31305
59142,61801,31159
59034,61771,31005
58915,61739,30840
58789,61707,30667
58656,61675,30488
58521,61641,30308
58388,61607,30132
58261,61575,29965
58144,61542,29809
58037,61511,29665
57942,61481,29537
57862,61455,29427
57796,61433,29334
57743,61415,29260
57704,61402,29203
57676,61393,29162
57660,61388,29137
57657,61387,29129
57667,61391,29140
57689,61398,29170
57722,61408,29216
57767,61422,29276
57821,61440,29346
57878,61460,29422
57935,61481,29500
57992,61501,29576
58047,61519,29647
58098,61535,29710
58148,61548,29761
58196,61561,29798
58238,61571,29823
58269,61580,29837
58289,61583,29838
58297,61582,29826
58293,61577,29800
58279,61570,29760
58254,61561,29706
58218,61550,29640
58174,61535,29563
58121,61516,29474
58060,61492,29372
57990,61463,29260
57911,61430,29140
57826,61397,29010
57734,61363,28870
57638,61330,28725
57541,61298,28576
57443,61269,28421
57342,61242,28261
57241,61215,28100
57139,61188,27938
57034,61157,27771
56927,61125,27604
56820,61093,27440
56715,61063,27283
56612,61034,27131
56513,61008,26981
56415,60982,26835
56317,60956,26692
56223,60930,26554
56133,60904,26424
56046,60879,26300
55962,60855,26177
55881,60832,26055
55805,60811,25937
55730,60793,25826
55658,60775,25724
55590,60757,25629
55528,60738,25540
55473,60721,25457
55422,60704,25379
55372,60689,25304
55324,60676,25234
55280,60664,25170
55237,60651,25111
55196,60639,25055
55158,60629,25003
55123,60622,24953
55089,60615,24903
55055,60606,24852
55024,60598,24803
54997,60592,24757
54972,60585,24713
54950,60579,24672
54930,60575,24638
54911,60570,24608
54891,60563,24576
54870,60553,24540
54846,60544,24504
54819,60535,24466
54791,60525,24426
54763,60513,24382
54734,60500,24334
54700,60488,24282
54665,60478,24226
54629,60467,24164
54590,60454,24096
54547,60441,24022
54496,60427,23944
54440,60412,23862
54381,60396,23775
54322,60381,23683
54260,60365,23587
54196,60349,23489
54132,60334,23391
54067,60319,23294
54000,60303,23197
53933,60286,23100
53866,60270,23005
53803,60255,22915
53748,60241,22834
53704,60228,22769
53679,60219,22734
53685,60218,22743
53738,60227,22819
53854,60253,22985
54049,60301,23260
54330,60372,23654
54698,60469,24166
55147,60590,24792
55667,60732,25516
56244,60890,26314
56865,61063,27166
57517,61247,28054
58183,61435,28955
58844,61623,29841
59478,61804,30691
60074,61974,31488
60622,62130,32219
61114,62269,32875
61544,62390,33450
61916,62497,33947
62231,62587,34369
62491,62661,34718
62702,62720,34999
62869,62768,35219
62990,62804,35383
63069,62830,35496
63111,62845,35566
63123,62848,35598
63111,62842,35596
63077,62827,35565
63026,62808,35507
62963,62786,35427
62889,62762,35326
62803,62735,35206
62707,62706,35067
62601,62676,34916
62489,62645,34758
62374,62611,34597
62260,62577,34434
62146,62542,34269
62034,62505,34102
61924,62468,33934
61814,62433,33768
61703,62400,33605
61593,62366,33442
61481,62330,33278
61365,62293,33110
61245,62255,32940
61124,62219,32766
61004,62184,32589
60886,62148,32415
60773,62111,32248
60664,62077,32092
60561,62045,31950
60469,62020,31826
60394,62000,31724
60339,61987,31641
60299,61978,31575
60272,61971,31531
60256,61967,31509
60251,61966,31502
60256,61968,31511
60272,61972,31536
60300,61977,31577
60337,61985,31628
60384,61997,31688
60438,62012,31760
60497,62028,31838
60558,62043,31916
60619,62056,31995
60675,62069,32071
60724,62083,32140
60765,62098,32197
60794,62111,32241
60815,62121,32272
60828,62129,32288
60831,62134,32287
60818,62132,32269
60791,62127,32234
60754,62117,32183
60704,62102,32115
60642,62084,32030
60569,62064,31930
60484,62042,31812
60386,62015,31676
60275,61983,31524
60153,61949,31360
60023,61914,31183
59886,61878,30993
59744,61838,30795
59599,61794,30594
59451,61749,30389
59303,61703,30176
59157,61656,29959
59012,61611,29743
58867,61565,29532
58721,61520,29323
58573,61475,29116
58423,61432,28911
58272,61389,28709
58121,61347,28510
57974,61306,28312
57832,61266,28118
57696,61228,27932
57565,61191,27754
57439,61156,27583
57320,61124,27419
57207,61095,27263
57100,61067,27116
57000,61042,26982
56908,61018,26861
56822,60994,26750
56745,60970,26647
56674,60947,26550
56607,60926,26457
56544,60908,26366
56486,60892,26276
56430,60876,26188
56372,60861,26104
56310,60845,26023
56247,60828,25945
56185,60811,25870
56125,60794,25795
56067,60777,25722
56010,60761,25652
55955,60747,25582
55901,60734,25510
55849,60723,25439
55797,60712,25365
55746,60700,25289
55695,60687,25213
55640,60672,25134
55581,60656,25055
55519,60641,24979
55454,60624,24905
55388,60608,24831
55323,60591,24754
55256,60574,24673
55186,60557,24589
55111,60540,24497
55037,60522,24398
54965,60507,24296
54890,60491,24191
54811,60473,24084
54732,60454,23976
54652,60436,23866
54570,60416,23753
54488,60394,23635
54408,60371,23518
54330,60349,23406
54254,60326,23301
54184,60305,23207
54131,60289,23138
54106,60282,23111
54125,60289,23148
54206,60314,23269
54359,60358,23488
54596,60423,23821
54915,60507,24273
55314,60612,24841
55790,60738,25510
56332,60882,26262
56921,61042,27075
57545,61214,27929
58183,61393,28800
58813,61573,29662
59421,61747,30493
59991,61911,31276
60513,62065,31996
60983,62206,32644
61397,62331,33216
61755,62438,33712
62057,62528,34134
62308,62603,34486
62514,62665,34772
62678,62714,34999
62800,62751,35173
62887,62778,35299
62946,62796,35379
62979,62806,35421
62986,62811,35430
62970,62809,35406
62932,62798,35351
62878,62780,35273
62810,62758,35176
62730,62733,35060
62639,62704,34929
62541,62674,34788
62435,62642,34640
62324,62608,34483
62213,62574,34321
62101,62541,34157
61988,62506,33994
61873,62471,33833
61760,62436,33674
61650,62401,33515
61540,62367,33355
61428,62332,33191
61314,62296,33025
61199,62260,32857
61085,62224,32683
60972,62187,32504
60861,62152,32326
60751,62120,32154
60645,62089,31993
60543,62061,31844
60447,62036,31710
60362,62016,31596
60290,61998,31506
60234,61984,31440
60194,61976,31396
60170,61972,31372
60158,61969,31366
60156,61968,31377
60169,61970,31407
60196,61979,31453
60235,61992,31515
60286,62008,31590
60347,62027,31675
60413,62048,31767
60484,62071,31862
60555,62094,31956
60622,62115,32045
60682,62133,32125
60737,62149,32194
60781,62163,32250
60813,62173,32291
60832,62178,32317
60839,62176,32326
60832,62171,32314
60813,62165,32284
60783,62155,32238
60743,62142,32173
60695,62125,32091
60637,62105,31997
60568,62082,31891
60487,62056,31770
60393,62026,31636
60291,61995,31491
60181,61963,31336
60064,61929,31170
59941,61896,30996
59815,61862,30815
59684,61826,30628
59549,61787,30438
59410,61747,30249
59269,61707,30056
59127,61665,29860
58986,61622,29663
58849,61578,29469
58716,61536,29280
58587,61496,29098
58462,61460,28922
58346,61428,28754
58235,61400,28596
58126,61374,28448
58018,61348,28307
57911,61321,28170
57806,61293,28036
57704,61264,27903
57603,61233,27769
57505,61202,27636
57412,61173,27504
57325,61144,27376
57242,61116,27249
57165,61090,27130
57093,61068,27018
57021,61047,26912
56948,61027,26811
56877,61009,26717
56811,60993,26627
56748,60977,26539
56688,60963,26456
56628,60949,26380
56565,60933,26305
56500,60918,26227
56433,60902,26146
56370,60889,26068
56314,60877,25993
56262,60864,25917
56213,60850,25842
56166,60836,25768
56117,60823,25692
56065,60811,25612
56011,60800,25533
55957,60789,25457
55898,60777,25380
55835,60762,25298
55770,60744,25214
55700,60726,25127
55627,60708,25035
55552,60689,24938
55475,60669,24837
55395,60649,24735
55313,60627,24632
55231,60604,24525
55150,60582,24418
55074,60562,24319
55007,60546,24236
54958,60536,24183
54943,60534,24178
54978,60544,24242
55081,60571,24397
55265,60620,24665
55531,60692,25054
55877,60787,25562
56301,60905,26173
56793,61042,26867
57337,61192,27624
57919,61354,28428
58520,61522,29258
59123,61694,30089
59716,61867,30904
60287,62035,31684
60821,62193,32408
61305,62336,33069
61734,62466,33665
62109,62582,34193
62433,62681,34650
62709,62766,35041
62936,62835,35369
63116,62892,35637
63257,62938,35849
63365,62975,36009
63445,63002,36126
63498,63022,36203
63525,63034,36244
63529,63037,36252
63517,63030,36232
63488,63018,36188
63445,63001,36124
63387,62980,36044
63321,62959,35954
63248,62937,35852
63166,62911,35737
63080,62883,35615
62990,62855,35487
62899,62829,35355
62810,62804,35225
62723,62780,35096
62636,62756,34966
62552,62732,34837
62469,62709,34712
62386,62685,34589
62303,62658,34465
62219,62628,34334
62130,62597,34200
62036,62567,34063
61938,62538,33924
61841,62508,33782
61747,62476,33641
61657,62444,33509
61573,62415,33390
61497,62389,33282
61430,62367,33184
61373,62349,33097
61325,62334,33023
61282,62322,32960
61248,62313,32911
61224,62308,32877
61209,62305,32859
61202,62305,32856
61202,62309,32865
61210,62317,32888
61228,62327,32920
61252,62338,32961
61281,62350,33010
61316,62362,33065
61354,62374,33119
61394,62384,33167
61430,62391,33210
61460,62396,33246
61483,62400,33272
61495,62403,33286
61495,62404,33289
61489,62404,33282
61477,62402,33263
61457,62396,33230
61427,62387,33180
61387,62375,33116
61337,62359,33041
61276,62342,32956
61208,62324,32861
61133,62303,32755
61050,62277,32630
60957,62246,32485
60855,62211,32327
60744,62173,32162
60624,62133,31992
60498,62091,31815
60370,62051,31632
60240,62014,31445
60111,61979,31258
59984,61945,31072
59859,61912,30887
59734,61879,30704
59609,61846,30524
59486,61811,30347
59370,61778,30175
59259,61745,30009
59148,61711,29845
59037,61679,29683
58926,61649,29523
58815,61619,29367
58703,61588,29216
58592,61559,29071
58487,61529,28930
58390,61502,28798
58300,61476,28673
58217,61450,28552
58137,61425,28436
58064,61402,28324
57994,61380,28218
57926,61359,28118
57862,61339,28024
57799,61319,27934
57737,61300,27847
57676,61281,27760
57618,61262,27673
57561,61244,27585
57500,61227,27499
57437,61209,27416
57375,61194,27339
57315,61180,27261
57254,61165,27183
57195,61151,27106
57142,61138,27031
57091,61125,26953
57041,61111,26872
56994,61098,26797
56947,61085,26727
56897,61072,26657
56846,61057,26587
56797,61039,26518
56748,61020,26448
56694,61002,26377
56637,60986,26304
56578,60970,26227
56517,60954,26143
56453,60938,26056
56386,60924,25965
56315,60910,25872
56240,60896,25773
56160,60880,25667
56078,60860,25556
55995,60837,25443
55909,60812,25327
55824,60786,25209
55742,60763,25093
55663,60743,24980
55589,60725,24872
55526,60710,24777
55480,60698,24708
55457,60693,24680
55472,60700,24713
55542,60720,24824
55683,60759,25037
55905,60820,25369
56209,60905,25819
56596,61014,26378
57059,61143,27034
57589,61291,27771
58168,61456,28569
58776,61631,29401
59388,61809,30243
59987,61987,31071
60558,62159,31864
61092,62321,32607
61583,62470,33288
62022,62605,33898
62407,62723,34437
62739,62824,34906
63020,62910,35306
63256,62983,35647
63456,63043,35932
63619,63093,36166
63747,63132,36355
63840,63160,36500
63906,63180,36604
63950,63192,36670
63975,63198,36708
63986,63199,36720
63981,63196,36705
63958,63188,36665
63919,63178,36607
63871,63166,36531
63816,63149,36443
63755,63128,36344
63690,63105,36240
63621,63082,36132
63546,63059,36022
63469,63034,35913
63391,63007,35805
63314,62981,35702
63244,62958,35602
63181,62937,35504
63120,62917,35406
63058,62896,35306
62991,62875,35202
62917,62853,35094
62841,62831,34982
62762,62808,34865
62681,62784,34744
62599,62759,34618
62514,62735,34492
62430,62711,34371
62351,62687,34256
62280,62665,34153
62217,62644,34061
62162,62625,33979
62115,62608,33905
62076,62591,33841
62045,62576,33789
62024,62566,33751
62011,62559,33727
62009,62556,33714
62016,62557,33713
62026,62559,33719
62039,62562,33729
62058,62567,33750
62079,62574,33783
62100,62582,33821
62122,62590,33857
62144,62599,33892
62163,62607,33925
62177,62614,33951
62189,62619,33967
62197,62622,33974
62199,62623,33971
62192,62619,33956
62177,62612,33931
62157,62603,33895
62130,62590,33845
62091,62574,33782
62040,62556,33706
61976,62537,33616
61902,62516,33514
61817,62492,33402
61724,62465,33281
61625,62436,33148
61521,62406,33007
61412,62374,32858
61300,62341,32701
61187,62307,32540
61070,62273,32375
60951,62238,32205
60832,62203,32032
60714,62168,31855
60594,62132,31674
60471,62095,31491
60347,62059,31311
60224,62023,31135
60103,61987,30961
59983,61952,30789
59865,61918,30621
59749,61885,30456
59638,61853,30296
59533,61824,30140
59433,61794,29987
59333,61762,29836
59235,61729,29688
59139,61697,29546
59046,61665,29413
58956,61637,29287
58868,61610,29164
58780,61584,29044
58693,61559,28926
58610,61535,28813
58531,61511,28704
58453,61486,28599
58376,61464,28497
58298,61445,28401
58221,61428,28306
58147,61412,28213
58078,61396,28125
58012,61380,28038
57949,61364,27950
57891,61348,27862
57833,61335,27776
57773,61321,27691
57710,61305,27608
57647,61288,27527
57590,61273,27450
57535,61260,27372
57479,61244,27290
57420,61227,27206
57359,61211,27122
57295,61195,27036
57227,61176,26950
57160,61158,26867
57096,61138,26786
57033,61119,26703
56969,61100,26615
56902,61079,26522
56833,61057,26422
56764,61035,26319
56695,61014,26216
56624,60993,26114
56548,60971,26010
56467,60946,25899
56379,60920,25779
56286,60894,25653
56193,60868,25524
56097,60843,25395
55996,60819,25264
55892,60798,25132
55787,60776,25000
55681,60753,24870
55578,60728,24740
55481,60705,24614
55391,60683,24498
55314,60665,24402
55264,60654,24339
55253,60653,24327
55296,60666,24388
55411,60698,24547
55610,60755,24823
55896,60838,25222
56265,60944,25740
56708,61071,26369
57216,61215,27092
57776,61375,27888
58375,61546,28728
58992,61724,29584
59604,61902,30433
60196,62076,31251
60751,62241,32020
61262,62395,32724
61724,62535,33361
62135,62659,33930
62493,62768,34431
62799,62861,34865
63057,62939,35237
63271,63004,35550
63446,63056,35805
63586,63097,36008
63693,63130,36164
63766,63155,36277
63809,63171,36348
63829,63179,36381
63829,63180,36384
63809,63174,36358
63774,63164,36305
63729,63150,36232
63674,63132,36145
63610,63112,36049
63537,63088,35943
63458,63061,35830
63378,63033,35714
63292,63005,35595
63201,62976,35474
63109,62947,35353
63020,62920,35231
62933,62895,35110
62847,62870,34988
62763,62845,34866
62680,62818,34745
62597,62792,34623
62513,62768,34496
62428,62742,34364
62340,62716,34228
62247,62690,34087
62150,62662,33943
62055,62631,33801
61967,62600,33668
61885,62570,33544
61808,62542,33430
61740,62518,33333
61682,62496,33251
61635,62477,33178
61597,62463,33117
61566,62455,33069
61541,62448,33035
61521,62442,33013
61508,62439,33005
61504,62439,33012
61513,62443,33031
61533,62452,33056
61561,62460,33087
61591,62469,33124
61620,62478,33164
61646,62485,33202
61670,62493,33236
61693,62500,33266
61714,62505,33293
61729,62507,33314
61739,62508,33327
61744,62509,33331
61740,62509,33324
61725,62507,33302
61701,62499,33264
61668,62486,33210
61625,62470,33143
61569,62451,33062
61504,62428,32969
61428,62403,32861
61343,62375,32741
61252,62344,32613
61159,62314,32480
61062,62284,32340
60958,62252,32193
60842,62218,32034
60718,62181,31863
60594,62144,31685
60468,62107,31503
60339,62068,31315
60206,62029,31125
60069,61989,30934
59928,61947,30740
59790,61906,30544
59656,61866,30348
59526,61826,30154
59398,61787,29960
59272,61748,29765
59149,61709,29574
59028,61672,29388
58908,61638,29211
58792,61605,29042
58680,61573,28879
58569,61541,28718
58460,61510,28559
58353,61480,28409
58250,61452,28269
58148,61425,28138
58047,61396,28012
57949,61368,27886
57859,61343,27761
57774,61319,27638
57691,61296,27519
57609,61274,27407
57530,61253,27303
57452,61232,27200
57374,61210,27097
57297,61187,26992
57220,61165,26890
57143,61146,26789
57067,61129,26687
56994,61113,26588
56921,61099,26492
56850,61086,26398
56784,61072,26305
56723,61056,26214
56663,61037,26124
56604,61018,26035
56543,60998,25946
56479,60974,25856
56416,60951,25764
56352,60929,25671
56287,60908,25579
56221,60888,25487
56154,60869,25395
56085,60850,25303
56014,60830,25208
55943,60811,25113
55874,60793,25017
55807,60778,24921
55740,60763,24823
55671,60746,24722
55597,60727,24617
55519,60708,24508
55440,60687,24397
55360,60666,24282
55276,60643,24162
55188,60619,24036
55096,60595,23910
55002,60573,23785
54907,60550,23661
54809,60526,23535
54709,60502,23408
54612,60479,23286
54522,60458,23173
54444,60441,23073
54386,60428,22994
54356,60422,22953
54365,60427,22970
54432,60444,23067
54572,60479,23268
54798,60535,23586
55109,60614,24027
55505,60720,24590
55976,60851,25260
56511,61003,26018
57095,61169,26838
57715,61343,27697
58351,61523,28570
58979,61702,29432
59583,61878,30263
60153,62045,31047
60676,62201,31768
61143,62341,32420
61554,62464,32997
61913,62571,33500
62222,62664,33929
62483,62744,34290
62698,62810,34586
62870,62863,34822
63004,62904,35007
63106,62936,35147
63175,62957,35241
63213,62969,35293
63224,62972,35310
63211,62967,35297
63176,62956,35256
63125,62939,35190
63062,62914,35102
62986,62885,34991
62900,62853,34864
62807,62820,34727
62708,62786,34579
62607,62754,34424
62504,62722,34264
62400,62689,34102
62293,62654,33940
62185,62619,33777
62077,62587,33613
61967,62554,33452
61850,62519,33291
61729,62483,33124
61607,62447,32953
61485,62410,32776
61359,62372,32594
61228,62332,32409
61094,62291,32224
60962,62250,32042
60836,62212,31868
60723,62178,31706
60623,62148,31556
60539,62123,31424
60470,62103,31312
60418,62087,31221
60376,62073,31149
60343,62063,31098
60321,62056,31066
60310,62052,31055
60309,62051,31061
60320,62054,31082
60344,62063,31118
60375,62076,31167
60413,62089,31227
60459,62105,31298
60511,62124,31375
60563,62145,31451
60612,62164,31520
60651,62180,31579
60683,62190,31625
60707,62196,31660
60726,62199,31686
60739,62201,31702
60741,62201,31705
60730,62196,31693
60710,62188,31666
60681,62178,31624
60642,62165,31565
60587,62149,31486
60518,62127,31387
60439,62102,31275
60349,62072,31149
60250,62040,31009
60144,62007,30859
60030,61974,30699
59909,61940,30530
59785,61904,30353
59657,61866,30170
59524,61827,29983
59387,61787,29794
59249,61745,29606
59113,61704,29417
58981,61664,29230
58849,61624,29042
58717,61583,28854
58585,61544,28668
58454,61508,28485
58321,61473,28302
58189,61439,28118
58058,61404,27937
57926,61368,27754
57797,61333,27574
57672,61300,27396
57547,61268,27216
57422,61236,27036
57300,61205,26862
57182,61175,26697
57069,61145,26545
56961,61117,26401
56854,61089,26261
56748,61062,26122
56648,61036,25988
56553,61010,25861
56462,60985,25738
56375,60962,25617
56290,60938,25500
56208,60915,25387
56132,60891,25282
56059,60867,25182
55988,60845,25084
55917,60823,24989
55845,60803,24898
55778,60788,24812
55716,60774,24731
55658,60760,24652
55603,60744,24578
55551,60729,24507
55501,60714,24441
55452,60701,24375
55403,60688,24306
55354,60676,24236
55304,60664,24163
55253,60651,24088
55198,60641,24010
55142,60631,23934
55088,60618,23861
55037,60603,23787
54986,60587,23712
54934,60570,23637
54876,60550,23558
54810,60530,23474
54739,60510,23390
54667,60491,23305
54593,60470,23218
54517,60448,23122
54440,60426,23021
54364,60407,22919
54289,60388,22816
54214,60370,22710
54139,60352,22603
54065,60336,22500
53997,60321,22404
53939,60308,22319
53897,60299,22258
53882,60297,22237
53910,60307,22275
53996,60330,22397
54156,60370,22623
54396,60432,22966
54720,60516,23429
55124,60624,24007
55601,60755,24682
56140,60905,25434
56722,61067,26243
57330,61236,27085
57946,61407,27938
58554,61581,28780
59139,61751,29589
59689,61913,30345
60195,62062,31035
60648,62197,31654
61039,62316,32199
61373,62417,32673
61655,62503,33076
61890,62576,33410
62080,62634,33679
62228,62680,33890
62339,62713,34050
62419,62736,34165
62470,62749,34238
62494,62754,34266
62493,62752,34257
62471,62742,34214
62426,62725,34140
62362,62701,34040
62282,62675,33918
62188,62645,33779
62082,62613,33627
61968,62578,33465
61846,62542,33296
61717,62504,33118
61585,62466,32932
61453,62429,32742
61320,62391,32549
61185,62353,32353
61048,62313,32156
60910,62269,31957
60766,62222,31755
60614,62176,31547
60463,62128,31332
60315,62080,31115
60171,62035,30899
60027,61992,30685
59886,61952,30475
59753,61913,30280
59633,61877,30103
59527,61845,29947
59431,61815,29810
59345,61790,29693
59272,61770,29596
59215,61754,29523
59175,61742,29475
59152,61733,29452
59146,61729,29452
59156,61732,29477
59184,61742,29526
59226,61756,29592
59280,61775,29674
59343,61794,29768
59417,61815,29871
59496,61838,29979
59580,61861,30090
59665,61885,30199
59748,61910,30303
59826,61934,30398
59896,61956,30481
59953,61974,30546
59992,61985,30591
60016,61992,30618
60028,61995,30630
60027,61994,30627
60011,61990,30606
59983,61980,30566
59944,61967,30509
59896,61952,30435
59838,61933,30340
59770,61911,30228
59688,61886,30100
59592,61857,29960
59488,61825,29812
59378,61793,29655
59261,61760,29486
59138,61726,29304
59011,61691,29116
58880,61653,28926
58744,61614,28733
58604,61573,28538
58464,61533,28343
58326,61495,28150
58187,61456,27960
58050,61417,27771
57915,61379,27584
57781,61343,27401
57648,61308,27220
57519,61275,27043
57395,61242,26872
57275,61209,26704
57159,61176,26538
57048,61144,26379
56940,61112,26228
56833,61081,26082
56727,61051,25940
56626,61022,25803
56532,60996,25675
56444,60973,25554
56357,60948,25435
56274,60923,25319
56196,60902,25209
56121,60883,25106
56049,60864,25007
55979,60845,24913
55911,60828,24823
55843,60810,24735
55775,60793,24649
55708,60775,24567
55642,60759,24488
55579,60743,24411
55518,60729,24333
55456,60714,24256
55393,60699,24181
55332,60684,24108
55274,60670,24036
55218,60657,23965
55165,60645,23897
55114,60633,23829
55065,60621,23761
55016,60610,23693
54964,60601,23624
54906,60588,23552
54842,60573,23474
54779,60557,23392
54713,60539,23306
54642,60520,23217
54570,60501,23123
54496,60482,23027
54418,60464,22927
54340,60446,22824
54265,60428,22721
54196,60409,22621
54130,60390,22529
54069,60374,22444
54018,60360,22374
53987,60353,22332
53992,60356,22338
54046,60372,22411
54163,60405,22577
54353,60459,22852
54623,60536,23244
54975,60635,23749
55403,60754,24356
55895,60891,25054
56440,61042,25826
57020,61203,26647
57617,61370,27489
58212,61540,28325
58795,61709,29135
59351,61871,29901
59869,62024,30615
60341,62166,31266
60761,62294,31850
61129,62407,32361
61445,62505,32802
61708,62588,33177
61925,62656,33490
62102,62708,33744
62242,62747,33944
62346,62775,34093
62418,62793,34199
62464,62803,34266
62488,62807,34299
62489,62805,34302
62472,62797,34274
62434,62784,34218
62378,62767,34139
62308,62746,34041
62226,62721,33924
62132,62690,33789
62030,62656,33641
61923,62621,33485
61811,62585,33319
61696,62546,33145
61576,62507,32967
61452,62469,32791
61329,62434,32617
61211,62401,32451
61096,62368,32286
60981,62331,32117
60861,62295,31941
60736,62259,31761
60609,62224,31579
60478,62189,31396
60345,62154,31214
60214,62118,31037
60089,62085,30871
59974,62053,30718
59871,62024,30578
59786,61997,30456
59716,61974,30358
59660,61956,30282
59619,61942,30227
59594,61932,30192
59583,61927,30177
59589,61928,30184
59609,61934,30211
59639,61945,30254
59678,61959,30312
59720,61973,30382
59765,61987,30459
59814,62002,30540
59866,62018,30623
59919,62035,30704
59970,62051,30781
60018,62064,30855
60065,62074,30919
60108,62084,30971
60144,62093,31008
60169,62098,31029
60183,62102,31039
60187,62104,31034
60176,62103,31013
60149,62097,30977
60110,62088,30927
60060,62076,30860
60000,62059,30777
59935,62039,30681
59864,62018,30575
59785,61995,30457
59698,61968,30326
59603,61937,30186
59501,61906,30036
59392,61874,29879
59278,61839,29717
59157,61804,29552
59026,61769,29383
58890,61733,29206
58750,61697,29024
58605,61658,28835
58454,61617,28638
58300,61575,28434
58146,61532,28226
57996,61489,28018
57851,61447,27813
57708,61407,27610
57569,61368,27412
57435,61331,27225
57307,61296,27049
57179,61261,26879
57053,61227,26715
56932,61193,26558
56819,61159,26408
56714,61129,26268
56621,61104,26138
56538,61082,26013
56463,61061,25897
56392,61042,25791
56322,61022,25692
56255,61002,25599
56190,60981,25510
56127,60960,25426
56069,60941,25346
56017,60922,25268
55966,60906,25191
55915,60894,25112
55864,60884,25036
55810,60872,24962
55752,60857,24889
55693,60841,24818
55641,60824,24749
55593,60808,24682
55545,60792,24616
55500,60775,24552
55455,60757,24489
55408,60741,24428
55361,60726,24365
55316,60711,24298
55270,60698,24231
55221,60687,24164
55168,60678,24097
55114,60669,24027
55058,60659,23953
55000,60648,23874
54938,60635,23788
54870,60621,23696
54801,60607,23599
54729,60592,23498
54652,60573,23397
54571,60551,23294
54488,60530,23190
54404,60510,23085
54320,60490,22982
54242,60471,22881
54169,60452,22784
54101,60435,22695
54044,60421,22623
54010,60415,22585
54012,60419,22597
54064,60434,22677
54182,60466,22849
54380,60518,23133
54662,60594,23534
55022,60692,24048
55454,60811,24663
55951,60950,25367
56504,61106,26141
57092,61273,26961
57692,61445,27802
58289,61616,28639
58866,61785,29448
59413,61947,30212
59921,62100,30919
60382,62240,31563
60791,62365,32138
61149,62473,32641
61459,62566,33075
61721,62644,33445
61935,62709,33753
62102,62761,34002
62231,62802,34199
62326,62832,34350
62387,62852,34460
62423,62862,34529
62436,62866,34561
62428,62866,34562
62402,62861,34533
62358,62848,34476
62297,62829,34394
62222,62806,34295
62133,62780,34182
62028,62749,34053
61913,62715,33912
61796,62680,33764
61679,62644,33611
61564,62606,33455
61452,62569,33302
61344,62534,33154
61237,62498,33010
61135,62462,32870
61038,62429,32737
60946,62400,32612
60860,62375,32493
60778,62351,32376
60699,62329,32255
60622,62308,32130
60545,62288,32003
60470,62268,31880
60397,62247,31763
60332,62228,31658
60274,62212,31565
60225,62198,31485
60185,62189,31420
60155,62181,31368
60133,62172,31324
60115,62162,31290
60106,62153,31271
60104,62147,31267
60107,62145,31271
60119,62145,31283
60137,62148,31305
60161,62155,31336
60190,62164,31375
60225,62175,31421
60263,62185,31473
60300,62196,31528
60332,62207,31582
60356,62218,31630
60375,62226,31672
60386,62231,31704
60388,62235,31721
60382,62239,31725
60368,62239,31719
60344,62237,31698
60307,62231,31660
60260,62222,31606
60203,62210,31536
60137,62192,31449
60059,62171,31348
59971,62149,31232
59871,62124,31101
59759,62093,30955
59635,62058,30790
59501,62017,30607
59357,61972,30414
59206,61924,30211
59047,61874,29999
58880,61824,29781
58707,61774,29554
58525,61722,29316
58334,61666,29069
58136,61611,28817
57938,61558,28562
57739,61505,28307
57544,61452,28055
57353,61401,27807
57164,61351,27562
56976,61302,27321
56794,61256,27086
56621,61212,26858
56454,61169,26637
56293,61127,26428
56140,61086,26234
55996,61048,26056
55861,61012,25890
55734,60980,25734
55613,60950,25586
55500,60922,25447
55396,60896,25316
55301,60872,25191
55211,60847,25074
55128,60824,24965
55050,60805,24862
54977,60788,24764
54909,60772,24671
54843,60757,24584
54777,60743,24501
54713,60730,24423
54655,60718,24349
54606,60706,24279
54560,60692,24213
54515,60677,24150
54471,60663,24089
54430,60651,24029
54388,60639,23966
54346,60627,23904
54299,60618,23843
54248,60608,23784
54192,60597,23721
54137,60583,23651
54080,60568,23577
54017,60552,23500
53949,60534,23419
53877,60515,23334
53801,60497,23246
53725,60479,23154
53646,60458,23057
53564,60438,22955
53479,60418,22850
53393,60399,22746
53306,60381,22640
53217,60364,22532
53130,60346,22424
53044,60326,22319
52959,60304,22216
52874,60279,22116
52790,60256,22018
52708,60236,21920
52630,60218,21825
52557,60201,21735
52493,60185,21651
52441,60172,21576
52410,60163,21520
52408,60162,21499
52445,60170,21533
52532,60190,21638
52682,60228,21832
52904,60288,22130
53205,60369,22541
53581,60469,23066
54025,60588,23695
54524,60723,24408
55066,60874,25185
55640,61035,26005
56236,61204,26849
56842,61377,27703
57444,61550,28545
58024,61717,29351
58570,61875,30106
59076,62022,30800
59537,62156,31429
59950,62278,31989
60311,62385,32475
60620,62479,32889
60876,62557,33233
61081,62620,33512
61244,62671,33732
61370,62713,33898
61461,62743,34015
61519,62761,34090
61550,62770,34128
61557,62772,34136
61541,62767,34117
61508,62757,34073
61461,62743,34006
61402,62724,33921
61334,62700,33821
61258,62674,33707
61180,62647,33586
61101,62619,33459
61019,62589,33327
60934,62559,33192
60849,62530,33057
60766,62501,32926
60685,62473,32797
60605,62446,32668
60528,62422,32544
60453,62397,32423
60377,62370,32299
60294,62341,32168
60204,62312,32033
60113,62283,31896
60019,62253,31758
59922,62221,31622
59829,62192,31497
59745,62169,31384
59670,62150,31285
59607,62132,31198
59558,62116,31125
59523,62106,31067
59497,62100,31023
59480,62095,30992
59472,62092,30976
59475,62092,30975
59486,62099,30987
59506,62110,31013
59535,62125,31051
59574,62140,31100
59620,62155,31157
59671,62169,31221
59725,62184,31291
59782,62200,31363
59841,62214,31431
59895,62226,31494
59942,62237,31547
59980,62245,31589
60007,62250,31621
60023,62253,31639
60028,62253,31643
60018,62250,31626
59993,62245,31587
59954,62237,31526
59896,62222,31442
59822,62200,31338
59738,62173,31218
59646,62146,31085
59543,62115,30943
59432,62080,30790
59315,62041,30625
59193,62001,30449
59061,61960,30264
58918,61919,30071
58766,61876,29868
58608,61833,29658
58446,61788,29445
58280,61744,29232
58117,61701,29019
57958,61659,28810
57802,61617,28605
57646,61575,28399
57493,61530,28190
57346,61486,27986
57202,61443,27787
57058,61400,27591
56916,61357,27398
56772,61315,27207
56624,61271,27018
56478,61227,26831
56338,61185,26652
56206,61145,26478
56080,61108,26307
55956,61073,26140
55835,61038,25980
55720,61007,25830
55609,60980,25690
55505,60957,25562
55411,60937,25444
55327,60918,25334
55249,60901,25233
55175,60885,25140
55107,60870,25052
55046,60855,24968
54987,60837,24884
54927,60819,24798
54871,60802,24715
54820,60786,24640
54773,60772,24570
54729,60759,24502
54686,60747,24436
54641,60734,24371
54592,60719,24304
54541,60704,24234
54485,60690,24161
54422,60675,24084
54351,60658,24001
54274,60641,23913
54190,60622,23821
54103,60603,23726
54015,60583,23626
53930,60562,23521
53845,60540,23416
53757,60517,23310
53670,60492,23205
53583,60466,23100
53494,60442,22995
53402,60420,22889
53309,60398,22783
53219,60377,22680
53135,60357,22577
53053,60337,22475
52972,60318,22371
52892,60301,22264
52815,60284,22159
52744,60269,22058
52675,60254,21958
52608,60241,21859
52548,60228,21761
52491,60215,21662
52431,60197,21561
52368,60176,21460
52303,60154,21363
52242,60135,21274
52185,60119,21196
52142,60107,21140
52126,60103,21124
52149,60107,21166
52228,60125,21289
52380,60161,21514
52614,60220,21855
52929,60301,22313
53319,60402,22878
53775,60524,23537
54289,60665,24274
54845,60820,25070
55428,60984,25898
56027,61153,26739
56634,61325,27576
57231,61496,28389
57804,61659,29163
58345,61814,29890
58845,61958,30560
59297,62087,31162
59698,62200,31693
60044,62296,32156
60338,62379,32552
60583,62450,32881
60782,62509,33144
60936,62555,33346
61048,62590,33494
61122,62612,33593
61164,62624,33647
61179,62629,33664
61169,62628,33648
61133,62618,33599
61078,62601,33522
61007,62577,33421
60919,62547,33299
60818,62515,33161
60709,62482,33013
60596,62447,32858
60483,62411,32698
60371,62373,32537
60259,62336,32375
60145,62301,32214
60033,62267,32056
59926,62235,31900
59824,62203,31749
59725,62171,31603
59624,62140,31458
59523,62109,31307
59423,62078,31154
59326,62048,30999
59233,62019,30846
59144,61990,30701
59059,61962,30566
58983,61937,30449
58918,61916,30352
58867,61900,30273
58833,61887,30215
58812,61878,30178
58801,61873,30157
58799,61869,30148
58809,61868,30154
58827,61869,30172
58853,61873,30199
58885,61879,30235
58923,61889,30283
58963,61899,30344
59007,61911,30415
59055,61926,30491
59106,61942,30572
59162,61959,30657
59218,61977,30739
59274,61995,30817
59324,62013,30887
59366,62030,30948
59399,62042,30993
59424,62049,31019
59442,62054,31028
59450,62054,31023
59444,62050,31005
59424,62041,30971
59390,62027,30922
59339,62008,30856
59275,61987,30773
59201,61966,30675
59118,61943,30562
59026,61918,30435
58925,61889,30295
58819,61859,30145
58711,61829,29987
58598,61797,29820
58480,61761,29647
58358,61725,29469
58234,61690,29290
58110,61655,29111
57984,61619,28933
57859,61583,28758
57740,61547,28587
57626,61513,28416
57516,61479,28245
57410,61446,28078
57306,61414,27914
57204,61383,27754
57105,61353,27599
57008,61325,27451
56914,61296,27308
56823,61268,27171
56731,61240,27038
56641,61215,26910
56552,61190,26784
56463,61165,26659
56373,61143,26541
56286,61122,26429
56202,61100,26321
56119,61078,26214
56040,61055,26109
55970,61034,26010
55904,61017,25914
55839,61003,25822
55776,60989,25737
55717,60975,25657
55659,60961,25582
55603,60946,25509
55551,60932,25439
55505,60917,25375
55461,60902,25315
55420,60888,25259
55384,60875,25207
55354,60866,25159
55326,60857,25112
55302,60851,25064
55282,60845,25016
55258,60840,24966
55232,60833,24914
55204,60825,24861
55173,60817,24807
55139,60809,24751
55103,60801,24692
55063,60794,24629
55017,60786,24560
54964,60776,24483
54903,60761,24401
54839,60743,24316
54776,60725,24232
54713,60707,24150
54646,60687,24068
54578,60666,23985
54511,60645,23902
54446,60625,23819
54383,60605,23736
54328,60589,23658
54287,60578,23597
54263,60573,23565
54264,60575,23575
54308,60588,23645
54411,60616,23794
54582,60662,24035
54831,60730,24380
55154,60818,24836
55545,60923,25390
55992,61044,26022
56484,61180,26714
57009,61329,27455
57558,61487,28225
58115,61648,29001
58664,61808,29759
59191,61964,30484
59687,62110,31166
60140,62243,31795
60543,62361,32360
60896,62465,32858
61199,62557,33288
61452,62637,33653
61662,62705,33957
61830,62760,34206
61960,62804,34401
62058,62837,34546
62127,62860,34645
62171,62875,34700
62189,62882,34716
62181,62879,34698
62150,62868,34649
62103,62855,34578
62043,62839,34485
61969,62817,34374
61883,62789,34250
61786,62758,34114
61678,62725,33967
61563,62690,33810
61446,62654,33643
61329,62616,33468
61210,62576,33289
61087,62535,33107
60960,62492,32922
60826,62448,32736
60687,62403,32546
60544,62358,32353
60399,62315,32155
60252,62274,31953
60102,62233,31751
59957,62192,31553
59821,62155,31365
59698,62122,31192
59589,62093,31038
59492,62067,30902
59409,62044,30788
59339,62024,30697
59283,62005,30627
59243,61990,30580
59223,61980,30557
59220,61976,30556
59235,61980,30578
59269,61989,30624
59319,62004,30689
59381,62022,30770
59451,62043,30861
59525,62065,30956
59599,62088,31053
59675,62111,31152
59750,62134,31246
59822,62157,31331
59887,62178,31405
59942,62197,31470
59986,62212,31523
60019,62223,31562
60040,62230,31586
60048,62233,31599
60042,62232,31600
60022,62227,31581
59989,62217,31541
59942,62204,31483
59881,62189,31408
59811,62171,31318
59733,62149,31216
59650,62123,31105
59562,62096,30982
59468,62067,30845
59365,62035,30695
59258,62002,30535
59146,61968,30372
59033,61936,30207
58920,61903,30041
58809,61870,29874
58699,61837,29706
58590,61805,29538
58479,61772,29375
58366,61740,29212
58251,61710,29047
58140,61680,28882
58032,61649,28721
57927,61618,28564
57823,61587,28408
57720,61556,28256
57618,61525,28112
57515,61494,27977
57416,61464,27847
57323,61436,27724
57235,61410,27606
57149,61385,27492
57069,61361,27380
56992,61339,27269
56919,61317,27157
56849,61297,27046
56781,61278,26939
56714,61260,26837
56646,61241,26736
56573,61221,26634
56497,61200,26535
56419,61180,26437
56343,61162,26339
56272,61146,26242
56203,61129,26148
56137,61112,26063
56074,61097,25984
56016,61083,25908
55962,61071,25834
55912,61058,25763
55864,61045,25695
55817,61031,25626
55770,61016,25556
55722,61000,25485
55673,60985,25414
55623,60969,25342
55571,60951,25270
55516,60933,25202
55457,60915,25132
55400,60897,25059
55343,60881,24985
55286,60868,24908
55227,60855,24826
55165,60842,24739
55100,60828,24649
55034,60814,24555
54970,60798,24457
54900,60779,24356
54824,60759,24254
54744,60738,24151
54663,60716,24048
54584,60696,23947
54510,60676,23852
54445,60657,23773
54399,60642,23723
54383,60636,23718
54410,60644,23775
54496,60669,23914
54654,60714,24150
54890,60781,24495
55207,60872,24956
55598,60985,25522
56051,61115,26172
56555,61258,26888
57099,61414,27654
57670,61579,28456
58254,61750,29273
58835,61920,30081
59400,62087,30858
59936,62246,31594
60433,62398,32279
60884,62538,32902
61283,62661,33454
61628,62766,33935
61924,62855,34346
62172,62930,34689
62374,62990,34967
62531,63036,35186
62647,63071,35353
62727,63096,35473
62778,63113,35552
62805,63124,35594
62808,63127,35603
62793,63124,35584
62767,63117,35541
62729,63104,35477
62679,63087,35398
62619,63066,35309
62549,63043,35210
62470,63017,35102
62387,62988,34987
62299,62958,34869
62206,62929,34747
62113,62898,34621
62020,62867,34493
61925,62836,34364
61826,62808,34234
61730,62781,34102
61637,62758,33970
61546,62736,33836
61452,62712,33695
61354,62683,33548
61251,62651,33398
61145,62616,33245
61043,62584,33092
60948,62553,32942
60859,62522,32801
60777,62494,32673
60702,62467,32558
60637,62443,32458
60583,62424,32374
60542,62409,32309
60513,62399,32260
60494,62389,32227
60488,62383,32208
60494,62383,32205
60511,62388,32215
60536,62396,32236
60568,62408,32272
60606,62421,32321
60650,62434,32377
60699,62448,32438
60749,62464,32503
60797,62481,32573
60842,62496,32643
60886,62510,32711
60925,62524,32774
60956,62534,32829
60984,62544,32870
61005,62554,32894
61014,62559,32900
61011,62558,32891
60994,62551,32865
60964,62539,32820
60923,62525,32757
60872,62508,32679
60810,62487,32587
60738,62463,32478
60657,62437,32355
60569,62409,32220
60473,62378,32073
60368,62344,31917
60255,62307,31753
60138,62269,31584
60017,62231,31412
59897,62193,31236
59779,62157,31058
59663,62123,30878
59548,62087,30699
59433,62049,30522
59318,62010,30346
59201,61971,30172
59083,61933,29998
58964,61895,29822
58846,61859,29645
58726,61822,29468
58606,61788,29293
58487,61756,29123
58371,61724,28957
58259,61695,28795
58149,61665,28637
58038,61633,28483
57928,61600,28334
57822,61568,28194
57720,61538,28062
57623,61512,27935
57530,61489,27813
57441,61469,27696
57357,61449,27585
57281,61431,27482
57212,61415,27387
57147,61398,27295
57085,61379,27205
57027,61360,27119
56973,61341,27038
56919,61321,26957
56863,61300,26874
56802,61280,26790
56737,61261,26706
56670,61241,26620
56599,61218,26532
56527,61196,26441
56457,61174,26349
56388,61154,26261
56321,61136,26175
56257,61118,26089
56196,61102,26000
56137,61088,25910
56080,61075,25822
56025,61062,25739
55977,61048,25663
55933,61034,25593
55891,61019,25527
55851,61005,25464
55811,60990,25401
55767,60974,25337
55716,60956,25268
55659,60936,25193
55597,60916,25114
55534,60894,25028
55469,60872,24939
55400,60852,24849
55325,60833,24756
55245,60813,24663
55166,60795,24572
55092,60778,24485
55029,60764,24408
54980,60751,24352
54952,60743,24333
54962,60745,24366
55028,60765,24472
55163,60806,24670
55374,60868,24975
55663,60952,25392
56024,61057,25917
56452,61181,26539
56940,61322,27242
57477,61476,28008
58050,61642,28818
58646,61816,29648
59249,61994,30481
59842,62173,31299
60410,62347,32080
60942,62511,32811
61427,62662,33485
61862,62798,34093
62244,62917,34631
62574,63021,35099
62853,63108,35499
63087,63179,35834
63277,63237,36109
63428,63282,36328
63543,63317,36497
63623,63341,36621
63670,63357,36702
63694,63365,36747
63699,63366,36759
63689,63360,36743
63661,63347,36700
63619,63334,36637
63567,63320,36559
63512,63303,36473
63452,63283,36378
63388,63260,36278
63321,63237,36178
63251,63214,36076
63178,63192,35971
63106,63170,35867
63038,63151,35770
62975,63132,35679
62916,63114,35590
62857,63094,35498
62796,63070,35400
62732,63045,35294
62664,63020,35185
62590,62993,35069
62508,62966,34943
62418,62936,34809
62324,62905,34672
62230,62875,34537
62140,62846,34411
62054,62818,34293
61974,62791,34183
61904,62769,34084
61845,62751,33996
61797,62735,33921
61757,62722,33859
61727,62714,33812
61704,62711,33778
61686,62709,33754
61674,62709,33743
61671,62711,33750
61678,62717,33768
61692,62723,33795
61711,62729,33829
61734,62736,33869
61758,62742,33909
61783,62749,33947
61810,62758,33981
61838,62767,34010
61861,62773,34029
61874,62777,34035
61877,62778,34031
61874,62776,34017
61860,62768,33992
61830,62756,33954
61789,62742,33903
61738,62726,33840
61679,62707,33762
61614,62685,33673
61548,62663,33575
61477,62642,33466
61394,62618,33342
61299,62588,33203
61199,62555,33052
61096,62520,32893
60991,62483,32729
60880,62446,32558
60765,62410,32386
60644,62374,32212
60520,62335,32038
60398,62296,31863
60277,62257,31690
60157,62217,31518
60038,62178,31347
59921,62141,31179
59806,62104,31014
59693,62067,30849
59579,62032,30682
59463,61998,30519
59347,61967,30361
59231,61939,30206
59113,61911,30051
58995,61883,29898
58878,61855,29745
58762,61827,29591
58645,61798,29439
58529,61768,29291
58415,61738,29146
58306,61710,29008
58204,61682,28877
58110,61656,28753
58024,61632,28635
57943,61609,28523
57868,61585,28412
57799,61561,28300
57733,61538,28188
57665,61514,28078
57594,61488,27973
57522,61463,27876
57453,61441,27782
57388,61423,27695
57329,61406,27615
57274,61391,27539
57220,61376,27467
57163,61361,27393
57104,61346,27318
57046,61331,27244
56991,61317,27172
56935,61303,27097
56878,61291,27019
56822,61281,26943
56765,61271,26869
56707,61261,26793
56648,61248,26719
56589,61235,26649
56529,61222,26578
56466,61207,26500
56398,61190,26415
56322,61169,26325
56238,61146,26228
56148,61121,26125
56058,61096,26019
55968,61073,25909
55877,61051,25794
55784,61027,25673
55689,61004,25545
55592,60982,25413
55495,60961,25277
55398,60939,25141
55303,60915,25005
55207,60890,24877
55114,60866,24756
55024,60843,24640
54949,60824,24540
54901,60810,24475
54894,60807,24464
54939,60818,24528
55051,60847,24690
55238,60899,24963
55504,60973,25350
55849,61069,25850
56269,61188,26455
56750,61326,27149
57280,61476,27910
57848,61636,28720
58441,61804,29561
59046,61979,30410
59646,62155,31248
60223,62329,32054
60767,62496,32813
61270,62652,33513
61722,62794,34147
62123,62923,34712
62470,63037,35204
62763,63133,35620
63005,63210,35964
63199,63271,36242
63351,63318,36461
63462,63354,36627
63537,63380,36740
63580,63394,36807
63597,63398,36834
63590,63393,36827
63559,63378,36787
63508,63356,36720
63443,63329,36632
63365,63300,36527
63278,63269,36405
63187,63238,36270
63094,63208,36131
62999,63180,35991
62902,63152,35850
62808,63127,35710
62714,63103,35570
62620,63077,35432
62526,63049,35298
62433,63019,35167
62340,62988,35036
62245,62956,34901
62146,62922,34760
62040,62886,34612
61928,62849,34455
61812,62812,34290
61698,62777,34120
61583,62741,33949
61469,62707,33782
61361,62675,33624
61265,62646,33482
61180,62621,33357
61106,62597,33246
61038,62576,33148
60977,62558,33065
60925,62545,32999
60883,62535,32944
60848,62527,32899
60821,62521,32866
60805,62517,32848
60801,62515,32843
60806,62515,32849
60816,62516,32865
60831,62517,32889
60851,62519,32919
60879,62524,32955
60911,62533,32998
60945,62543,33042
60974,62552,33080
60995,62560,33111
61010,62565,33131
61019,62567,33139
61019,62563,33132
61005,62554,33107
60979,62541,33063
60944,62525,33000
60898,62507,32916
60840,62485,32815
60773,62460,32702
60695,62430,32578
60604,62398,32439
60505,62365,32288
60401,62334,32125
60289,62300,31952
60168,62265,31771
60038,62227,31585
59903,62187,31396
59766,62147,31201
59625,62104,31001
59479,62059,30797
59333,62014,30594
59189,61969,30394
59043,61924,30192
58896,61880,29988
58754,61839,29787
58618,61799,29594
58484,61759,29411
58352,61722,29233
58224,61688,29061
58099,61657,28893
57976,61627,28726
57854,61599,28558
57732,61570,28391
57609,61541,28223
57484,61514,28051
57357,61487,27880
57226,61458,27710
57091,61427,27538
56953,61395,27365
56817,61364,27195
56683,61332,27027
56551,61300,26862
56422,61269,26701
56298,61238,26545
56181,61210,26399
56070,61183,26261
55962,61160,26130
55858,61138,26002
55759,61118,25883
55664,61099,25773
55573,61079,25670
55488,61058,25571
55410,61034,25475
55339,61010,25379
55271,60986,25284
55205,60963,25195
55140,60942,25108
55074,60923,25020
55004,60905,24928
54931,60886,24835
54857,60866,24741
54783,60846,24644
54707,60827,24542
54628,60807,24434
54543,60785,24320
54452,60763,24201
54358,60738,24079
54261,60711,23955
54164,60685,23829
54069,60660,23706
53976,60636,23589
53886,60612,23475
53797,60587,23364
53709,60561,23251
53622,60537,23140
53538,60514,23032
53457,60492,22926
53377,60470,22817
53298,60448,22707
53222,60430,22600
53151,60415,22501
53095,60403,22423
53061,60395,22383
53061,60394,22398
53113,60406,22485
53230,60437,22667
53422,60488,22957
53693,60561,23359
54040,60652,23870
54456,60763,24478
54931,60890,25163
55448,61031,25902
55990,61181,26670
56540,61337,27447
57090,61493,28221
57635,61649,28983
58161,61801,29720
58661,61950,30419
59129,62093,31074
59562,62226,31677
59956,62348,32222
60307,62457,32704
60610,62551,33120
60862,62629,33468
61063,62693,33742
61219,62744,33945
61330,62781,34083
61397,62802,34162
61418,62807,34186
61402,62799,34162
61355,62781,34097
61283,62756,33996
61187,62727,33863
61077,62694,33703
60959,62656,33524
60832,62614,33333
60694,62570,33133
60553,62523,32929
60413,62475,32726
60276,62428,32526
60142,62380,32327
60014,62335,32134
59894,62293,31951
59783,62254,31774
59676,62215,31602
59571,62177,31432
59466,62140,31262
59362,62103,31090
59260,62068,30919
59161,62033,30755
59065,62000,30600
58975,61972,30455
58896,61948,30321
58824,61928,30202
58757,61910,30099
58698,61895,30009
58649,61883,29933
58613,61873,29873
58589,61865,29831
58574,61860,29806
58571,61858,29797
58580,61861,29806
58602,61868,29829
58634,61878,29867
58678,61891,29922
58735,61907,29997
58801,61925,30090
58871,61945,30194
58943,61967,30306
59015,61991,30422
59086,62015,30533
59154,62037,30633
59213,62056,30719
59264,62070,30790
59302,62081,30846
59327,62088,30882
59340,62093,30900
59344,62094,30902
59338,62092,30888
59317,62085,30852
59283,62074,30794
59235,62060,30720
59173,62043,30629
59096,62023,30522
59008,62000,30398
58912,61973,30257
58807,61940,30101
58692,61900,29931
58570,61859,29750
58445,61819,29561
58313,61782,29367
58175,61745,29169
58035,61709,28966
57898,61674,28763
57761,61640,28561
57628,61605,28363
57500,61570,28172
57375,61535,27989
57252,61499,27812
57133,61463,27635
57013,61428,27458
56893,61392,27284
56777,61359,27118
56667,61328,26962
56563,61300,26815
56461,61275,26676
56362,61248,26544
56268,61222,26422
56182,61201,26307
56102,61182,26197
56023,61162,26092
55946,61139,25993
55871,61116,25900
55798,61095,25812
55728,61074,25728
55664,61056,25648
55607,61043,25572
55550,61031,25495
55493,61015,25417
55436,60999,25340
55381,60983,25265
55325,60970,25191
55272,60959,25117
55224,60949,25048
55180,60940,24982
55133,60930,24919
55083,60918,24857
55037,60907,24797
54994,60896,24742
54952,60885,24691
54906,60873,24641
54862,60861,24588
54820,60851,24533
54778,60841,24470
54734,60828,24398
54687,60815,24321
54634,60801,24242
54576,60787,24163
54512,60772,24082
54445,60757,24001
54380,60742,23918
54316,60727,23835
54254,60710,23753
54195,60694,23673
54140,60681,23596
54086,60669,23524
54039,60658,23469
54015,60654,23448
54030,60660,23478
54095,60680,23575
54222,60717,23758
54422,60776,24043
54697,60856,24437
55045,60955,24937
55455,61071,25531
55915,61201,26202
56413,61343,26929
56941,61496,27694
57488,61655,28478
58047,61818,29269
58606,61982,30053
59153,62145,30815
59677,62303,31542
60170,62452,32219
60620,62588,32837
61023,62710,33387
61378,62817,33868
61682,62910,34284
61936,62989,34634
62138,63053,34920
62294,63104,35142
62406,63141,35303
62478,63163,35408
62518,63172,35461
62531,63171,35468
62517,63162,35434
62476,63145,35366
62413,63120,35268
62328,63090,35143
62226,63056,34993
62111,63018,34824
61988,62977,34641
61860,62936,34449
61731,62894,34254
61597,62849,34057
61462,62802,33860
61328,62759,33669
61194,62716,33484
61061,62675,33307
60929,62634,33132
60800,62594,32954
60674,62556,32769
60548,62517,32574
60418,62478,32373
60286,62439,32171
60152,62397,31972
60016,62354,31778
59883,62311,31595
59756,62270,31427
59640,62233,31276
59541,62202,31141
59457,62177,31024
59383,62159,30929
59321,62145,30854
59272,62134,30792
59233,62125,30742
59204,62119,30710
59186,62119,30695
59179,62122,30695
59184,62127,30711
59201,62134,30742
59229,62142,30783
59266,62151,30831
59309,62159,30885
59352,62171,30947
59396,62186,31017
59439,62202,31087
59478,62215,31151
59514,62227,31204
59543,62238,31244
59562,62249,31270
59571,62257,31281
59567,62259,31275
59546,62255,31249
59509,62246,31200
59459,62234,31135
59401,62218,31055
59335,62197,30959
59263,62172,30848
59183,62145,30724
59091,62115,30585
58987,62082,30433
58873,62048,30269
58754,62010,30098
58630,61970,29921
58505,61933,29739
58381,61899,29555
58256,61865,29371
58135,61832,29189
58016,61799,29007
57898,61765,28825
57776,61731,28644
57650,61695,28467
57523,61660,28293
57399,61627,28122
57281,61595,27954
57170,61563,27793
57061,61531,27639
56956,61497,27489
56856,61465,27343
56759,61435,27201
56666,61407,27060
56575,61381,26923
56484,61356,26793
56394,61330,26668
56309,61307,26550
56232,61287,26438
56160,61269,26333
56093,61252,26233
56030,61234,26136
55970,61216,26040
55914,61199,25950
55861,61184,25864
55810,61171,25783
55758,61157,25706
55707,61143,25631
55658,61130,25558
55616,61118,25489
55579,61108,25427
55543,61095,25369
55505,61081,25312
55467,61069,25255
55428,61058,25198
55389,61047,25138
55347,61034,25073
55303,61018,25008
55256,61002,24941
55210,60987,24869
55159,60971,24793
55102,60953,24715
55044,60937,24638
54986,60920,24559
54928,60903,24477
54868,60885,24395
54808,60868,24311
54745,60851,24222
54678,60834,24127
54609,60817,24033
54539,60802,23938
54469,60787,23842
54399,60770,23747
54328,60751,23654
54262,60733,23566
54203,60716,23486
54151,60704,23418
54111,60695,23366
54092,60691,23344
54108,60697,23372
54179,60718,23477
54322,60760,23685
54546,60824,24010
54848,60910,24454
55226,61018,25010
55671,61145,25660
56172,61287,26389
56718,61443,27175
57295,61607,28000
57895,61780,28845
58504,61957,29696
59107,62135,30534
59688,62307,31339
60235,62471,32096
60737,62625,32794
61189,62766,33426
61589,62893,33988
61937,63004,34477
62237,63100,34897
62488,63180,35249
62693,63245,35537
62851,63294,35765
62967,63329,35937
63047,63354,36060
63097,63370,36138
63125,63378,36175
63130,63379,36175
63114,63375,36142
63083,63365,36081
63040,63349,35999
62982,63330,35900
62915,63308,35785
62841,63284,35660
62760,63259,35530
62670,63231,35395
62578,63199,35257
62487,63168,35121
62398,63138,34990
62312,63109,34863
62229,63082,34738
62146,63054,34613
62062,63024,34488
61978,62994,34359
61892,62963,34225
61802,62930,34086
61705,62897,33939
61600,62862,33785
61489,62827,33627
61382,62792,33471
61279,62759,33319
61180,62727,33170
61084,62698,33026
60997,62673,32891
60916,62648,32764
60841,62625,32647
60775,62604,32549
60720,62584,32471
60674,62569,32412
60641,62559,32369
60625,62554,32343
60627,62553,32333
60641,62554,32341
60663,62558,32362
60692,62566,32395
60726,62577,32438
60761,62590,32487
60796,62603,32538
60830,62614,32586
60857,62623,32627
60875,62628,32659
60888,62630,32684
60897,62632,32698
60898,62631,32703
60889,62628,32697
60872,62624,32676
60848,62618,32639
60816,62609,32591
60778,62597,32531
60733,62582,32457
60684,62566,32371
60627,62549,32275
60558,62526,32167
60474,62498,32045
60378,62467,31909
60272,62435,31759
60159,62399,31596
60043,62363,31419
59921,62322,31231
59791,62278,31034
59657,62234,30832
59525,62192,30631
59394,62152,30433
59265,62112,30236
59135,62072,30040
59003,62029,29844
58868,61987,29648
58732,61945,29452
58595,61902,29259
58458,61861,29070
58321,61824,28886
58184,61790,28701
58048,61758,28513
57913,61725,28326
57782,61692,28143
57655,61660,27967
57534,61630,27798
57418,61601,27638
57309,61572,27490
57206,61543,27350
57110,61515,27215
57022,61487,27085
56939,61459,26961
56860,61431,26842
56782,61403,26730
56705,61377,26625
56631,61353,26524
56559,61333,26425
56488,61315,26328
56418,61296,26230
56350,61277,26132
56282,61258,26036
56214,61237,25940
56149,61217,25846
56087,61201,25756
56025,61186,25667
55960,61172,25578
55893,61156,25490
55824,61140,25405
55757,61124,25322
55693,61106,25239
55629,61087,25157
55567,61069,25074
55507,61053,24989
55447,61037,24902
55385,61019,24815
55320,61001,24727
55251,60982,24635
55180,60963,24539
55107,60943,24440
55032,60923,24336
54953,60902,24231
54872,60881,24123
54791,60861,24012
54709,60840,23898
54624,60817,23783
54541,60794,23670
54462,60772,23560
54390,60752,23453
54326,60737,23354
54273,60724,23272
54236,60714,23219
54224,60711,23208
54249,60718,23258
