green_channel,red_channel,ir_channel
37823,36484,53904
37823,36480,53907
37823,36478,53909
37824,36476,53906
37821,36474,53896
37817,36471,53882
37811,36469,53867
37802,36462,53847
37788,36449,53820
37771,36435,53786
37753,36422,53749
37734,36404,53710
37711,36382,53670
37688,36358,53627
37665,36332,53581
37641,36302,53531
37611,36266,53477
37576,36228,53424
37542,36194,53372
37509,36160,53317
37474,36122,53257
37441,36087,53196
37412,36057,53136
37383,36029,53079
37355,35999,53027
37331,35971,52982
37312,35950,52941
37293,35931,52902
37275,35912,52865
37261,35895,52830
37246,35879,52798
37226,35861,52765
37206,35844,52734
37188,35830,52706
37170,35818,52680
37150,35803,52651
37131,35786,52623
37116,35772,52600
37103,35757,52577
37088,35738,52553
37070,35718,52528
37055,35699,52503
37044,35682,52476
37033,35667,52448
37022,35656,52420
37013,35649,52396
37005,35643,52377
36994,35634,52357
36978,35622,52339
36962,35610,52322
36949,35598,52302
36937,35583,52276
36925,35569,52250
36914,35556,52227
36901,35543,52203
36888,35528,52178
36872,35512,52154
36854,35498,52135
36834,35483,52117
36812,35466,52095
36791,35448,52069
36774,35432,52044
36761,35418,52023
36752,35404,52006
36749,35393,51991
36750,35385,51978
36750,35379,51965
36747,35372,51949
36742,35366,51930
36737,35361,51910
36730,35355,51891
36719,35342,51870
36705,35330,51848
36690,35320,51825
36673,35309,51798
36652,35293,51766
36629,35273,51733
36607,35253,51700
36587,35234,51669
36567,35215,51635
36551,35196,51597
36543,35179,51557
36540,35163,51518
36538,35143,51481
36534,35124,51452
36529,35110,51438
36524,35103,51434
36520,35105,51440
36524,35122,51462
36543,35154,51510
36579,35202,51583
36635,35270,51686
36712,35363,51828
36811,35480,52010
36929,35614,52225
37066,35766,52472
37220,35933,52751
37385,36109,53055
37555,36288,53376
37727,36470,53706
37903,36655,54039
38076,36836,54363
38241,37008,54669
38396,37170,54952
38538,37318,55210
38662,37447,55435
38766,37551,55622
38852,37633,55771
38920,37697,55889
38965,37743,55976
38992,37770,56032
39007,37783,56061
39009,37787,56068
38998,37779,56056
38976,37761,56025
38951,37738,55982
38926,37713,55936
38899,37683,55883
38868,37647,55822
38835,37609,55761
38802,37570,55706
38771,37531,55657
38743,37496,55612
38718,37472,55576
38697,37457,55546
38681,37443,55518
38670,37429,55495
38661,37417,55477
38652,37406,55461
38639,37396,55445
38628,37388,55427
38618,37381,55411
38608,37373,55399
38598,37364,55385
38590,37355,55369
38583,37348,55354
38576,37338,55336
38564,37322,55311
38547,37304,55280
38527,37284,55243
38503,37260,55199
38475,37232,55146
38446,37201,55088
38415,37169,55022
38382,37134,54944
38342,37095,54858
38302,37055,54771
38266,37016,54693
38227,36979,54622
38186,36944,54558
38149,36913,54503
38119,36886,54460
38098,36862,54425
38080,36841,54393
38065,36825,54367
38056,36814,54350
38049,36805,54335
38041,36795,54319
38032,36786,54306
38026,36779,54296
38021,36773,54286
38014,36762,54275
38008,36753,54267
38005,36749,54262
38003,36745,54256
37999,36738,54248
37994,36733,54240
37989,36733,54232
37986,36731,54224
37987,36727,54212
37989,36723,54195
37988,36714,54175
37980,36701,54150
37967,36685,54120
37950,36671,54088
37928,36655,54054
37900,36636,54018
37872,36613,53978
37843,36587,53938
37811,36557,53896
37774,36524,53845
37737,36488,53788
37702,36453,53728
37669,36422,53668
37635,36392,53607
37601,36364,53551
37571,36337,53498
37547,36307,53447
37528,36275,53395
37511,36245,53346
37494,36217,53301
37473,36189,53257
37447,36159,53213
37422,36133,53170
37399,36112,53129
37377,36092,53091
37354,36072,53053
37331,36052,53015
37310,36034,52980
37289,36015,52944
37267,35993,52908
37245,35972,52876
37226,35951,52846
37208,35932,52815
37191,35914,52785
37177,35897,52759
37163,35884,52736
37148,35870,52713
37133,35857,52691
37122,35847,52671
37112,35839,52650
37103,35832,52628
37097,35827,52607
37094,35821,52589
37088,35811,52570
37075,35798,52550
37059,35783,52528
37044,35769,52506
37026,35752,52480
37006,35729,52451
36990,35706,52423
36977,35687,52399
36967,35670,52375
36954,35651,52350
36939,35633,52327
36926,35621,52308
36914,35610,52290
36900,35597,52271
36884,35585,52254
36870,35573,52238
36858,35560,52220
36844,35544,52200
36829,35530,52177
36813,35519,52155
36795,35508,52131
36776,35494,52104
36761,35478,52078
36749,35461,52051
36736,35441,52018
36723,35416,51978
36711,35392,51941
36697,35373,51909
36682,35356,51879
36664,35339,51847
36646,35324,51816
36627,35309,51788
36607,35291,51758
36588,35269,51725
36572,35245,51693
36559,35222,51666
36547,35201,51646
36541,35191,51639
36545,35197,51650
36561,35224,51686
36592,35270,51754
36646,35336,51857
36725,35427,51997
36823,35540,52175
36938,35667,52384
37068,35810,52624
37213,35968,52896
37368,36136,53191
37532,36314,53499
37705,36499,53821
37882,36690,54148
38056,36879,54469
38223,37058,54772
38381,37224,55051
38525,37374,55301
38651,37506,55517
38753,37612,55694
38830,37691,55832
38886,37747,55936
38920,37782,56008
38940,37799,56052
38951,37803,56071
38957,37799,56070
38952,37786,56050
38935,37761,56013
38910,37730,55966
38879,37699,55918
38847,37666,55869
38816,37631,55821
38786,37597,55772
38756,37568,55724
38723,37542,55677
38687,37515,55628
38657,37488,55583
38634,37466,55544
38617,37449,55511
38603,37438,55484
38594,37433,55465
38588,37434,55453
38581,37433,55446
38573,37426,55441
38567,37416,55437
38558,37405,55430
38549,37394,55419
38539,37380,55405
38531,37366,55389
38520,37349,55366
38505,37328,55333
38484,37302,55290
38458,37271,55237
38425,37236,55175
38386,37199,55102
38347,37165,55027
38310,37134,54955
38273,37102,54882
38235,37066,54807
38202,37029,54734
38172,36992,54669
38141,36956,54608
38110,36918,54548
38085,36883,54493
38063,36853,54444
38042,36828,54402
38025,36807,54371
38013,36794,54349
38004,36787,54335
37992,36780,54324
37980,36771,54313
37974,36767,54307
37971,36768,54305
37969,36769,54301
37968,36771,54296
37971,36771,54293
37974,36770,54292
37973,36767,54289
37971,36764,54282
37970,36762,54273
37966,36757,54263
37958,36749,54250
37947,36743,54232
37934,36736,54213
37918,36726,54193
37898,36709,54168
37877,36687,54139
37854,36663,54106
37828,36635,54067
37798,36602,54020
37766,36569,53969
37734,36534,53915
37700,36495,53855
37662,36449,53788
37625,36403,53720
37594,36364,53654
37565,36329,53591
37535,36294,53530
37507,36263,53473
37485,36237,53421
37466,36216,53371
37444,36193,53325
37420,36170,53281
37396,36148,53243
37371,36126,53207
37343,36103,53170
37315,36079,53132
37289,36052,53090
37263,36021,53046
37235,35988,53000
37208,35960,52959
37185,35938,52923
37163,35917,52887
37140,35893,52851
37119,35869,52819
37105,35852,52793
37094,35839,52771
37082,35827,52748
37068,35817,52727
37054,35807,52709
37041,35794,52690
37028,35779,52666
37016,35766,52642
37004,35754,52617
36989,35741,52589
36974,35724,52555
36959,35706,52521
36941,35685,52487
36918,35661,52454
36893,35636,52422
36869,35612,52394
36846,35589,52369
36826,35565,52343
36809,35544,52318
36796,35525,52294
36782,35511,52271
36769,35500,52246
36758,35489,52221
36750,35480,52198
36741,35473,52175
36730,35461,52149
36717,35445,52124
36706,35427,52104
36693,35411,52086
36679,35395,52067
36667,35381,52047
36657,35365,52028
36646,35345,52009
36634,35325,51988
36623,35307,51965
36613,35294,51943
36599,35281,51917
36581,35270,51888
36564,35260,51861
36548,35250,51841
36532,35237,51823
36518,35224,51801
36507,35213,51775
36493,35201,51747
36473,35182,51715
36452,35158,51679
36432,35135,51639
36412,35112,51594
36390,35089,51548
36367,35068,51506
36345,35050,51472
36326,35035,51446
36310,35022,51426
36301,35016,51421
36306,35024,51435
36325,35048,51473
36363,35089,51541
36425,35156,51650
36512,35252,51803
36621,35371,52001
36749,35510,52238
36897,35669,52506
37060,35846,52801
37230,36033,53117
37403,36222,53442
37579,36415,53771
37758,36606,54095
37930,36786,54409
38089,36953,54705
38236,37108,54980
38368,37251,55228
38480,37375,55442
38570,37479,55615
38643,37564,55753
38699,37630,55858
38738,37676,55930
38759,37703,55970
38767,37713,55987
38764,37709,55983
38753,37692,55959
38734,37665,55919
38710,37632,55873
38683,37597,55821
38653,37560,55763
38620,37523,55703
38588,37487,55644
38559,37453,55589
38534,37420,55535
38510,37389,55489
38488,37365,55451
38468,37347,55422
38448,37330,55400
38430,37312,55382
38417,37298,55366
38408,37288,55349
38396,37276,55326
38382,37259,55303
38364,37243,55282
38340,37225,55256
38311,37199,55219
38282,37167,55174
38253,37136,55128
38222,37102,55077
38188,37064,55019
38150,37025,54954
38107,36985,54887
38058,36944,54815
38007,36902,54736
37957,36861,54655
37907,36817,54577
37852,36769,54498
37794,36716,54412
37741,36662,54323
37694,36611,54242
37650,36566,54171
37609,36529,54109
37577,36501,54062
37555,36480,54028
37537,36464,54003
37522,36454,53984
37512,36450,53971
37508,36446,53964
37509,36439,53958
37511,36429,53952
37513,36424,53948
37513,36422,53948
37507,36420,53944
37496,36416,53936
37483,36411,53927
37472,36402,53916
37462,36391,53898
37455,36383,53877
37449,36379,53860
37443,36377,53847
37437,36373,53837
37431,36367,53827
37422,36361,53815
37409,36350,53800
37392,36335,53779
37373,36318,53755
37354,36298,53729
37334,36276,53699
37312,36252,53662
37286,36225,53622
37259,36197,53582
37231,36169,53543
37205,36141,53503
37182,36116,53464
37161,36095,53422
37140,36076,53374
37115,36058,53320
37090,36041,53271
37066,36026,53227
37042,36008,53187
37017,35982,53147
36990,35955,53107
36963,35931,53070
36935,35909,53036
36907,35885,53003
36884,35862,52968
36866,35843,52934
36850,35826,52902
36833,35803,52869
36812,35779,52839
36792,35758,52813
36775,35737,52787
36764,35718,52761
36756,35703,52735
36746,35690,52711
36733,35677,52688
36717,35664,52665
36701,35652,52639
36681,35640,52609
36658,35621,52573
36635,35599,52532
36615,35579,52495
36598,35560,52465
36581,35537,52437
36565,35514,52411
36549,35493,52389
36533,35476,52370
36517,35460,52351
36503,35450,52334
36493,35445,52320
36488,35442,52306
36483,35438,52287
36478,35431,52269
36469,35423,52256
36456,35412,52246
36439,35400,52232
36423,35393,52219
36409,35387,52208
36394,35378,52191
36377,35365,52168
36361,35353,52145
36348,35342,52122
36337,35330,52096
36326,35315,52068
36319,35303,52043
36313,35293,52022
36306,35286,52003
36297,35280,51983
36289,35276,51964
36282,35274,51946
36272,35268,51927
36260,35257,51907
36247,35245,51889
36232,35233,51870
36217,35217,51844
36204,35198,51814
36193,35180,51786
36178,35158,51758
36157,35135,51731
36138,35115,51706
36123,35103,51688
36112,35099,51678
36109,35103,51676
36118,35119,51694
36140,35151,51743
36176,35203,51827
36234,35273,51950
36317,35368,52111
36424,35488,52314
36555,35628,52554
36704,35783,52822
36863,35950,53107
37026,36126,53404
37189,36301,53702
37351,36471,53997
37511,36638,54284
37664,36802,54565
37803,36955,54831
37928,37091,55073
38037,37212,55289
38133,37316,55477
38211,37400,55633
38273,37464,55757
38321,37510,55847
38357,37542,55908
38379,37556,55943
38385,37556,55953
38378,37547,55943
38363,37532,55915
38342,37510,55870
38313,37480,55811
38280,37445,55746
38245,37409,55680
38207,37371,55610
38168,37331,55539
38128,37293,55476
38090,37254,55420
38052,37215,55368
38018,37176,55316
37988,37138,55266
37961,37102,55219
37939,37073,55177
37919,37051,55142
37902,37036,55113
37887,37024,55089
37873,37015,55067
37860,37006,55046
37846,36997,55027
37829,36982,55007
37811,36960,54979
37791,36931,54942
37766,36897,54894
37735,36859,54833
37698,36820,54759
37659,36784,54682
37618,36750,54605
37574,36712,54527
37526,36671,54446
37479,36629,54367
37436,36590,54293
37395,36551,54223
37355,36513,54157
37320,36479,54098
37291,36447,54043
37264,36413,53989
37239,36379,53942
37219,36352,53904
37204,36330,53873
37192,36309,53845
37181,36288,53821
37174,36273,53805
37170,36265,53794
37171,36261,53784
37176,36261,53777
37183,36261,53776
37188,36261,53779
37186,36262,53782
37178,36267,53787
37168,36274,53793
37158,36279,53798
37146,36280,53797
37138,36277,53790
37131,36270,53780
37121,36260,53763
37106,36246,53736
37088,36227,53702
37068,36206,53667
37044,36183,53632
37017,36156,53594
36992,36129,53559
36968,36105,53525
36942,36080,53488
36918,36049,53443
36898,36018,53388
36881,35989,53332
36862,35960,53278
36837,35929,53227
36811,35898,53178
36785,35869,53134
36757,35837,53092
36726,35800,53047
36694,35767,53003
36663,35736,52962
36634,35705,52919
36609,35676,52876
36589,35654,52838
36572,35635,52805
36554,35615,52768
36534,35593,52730
36514,35571,52693
36491,35550,52658
36469,35528,52622
36449,35507,52583
36434,35488,52547
36421,35468,52516
36410,35445,52484
36400,35423,52452
36392,35406,52426
36383,35396,52407
36371,35384,52390
36358,35369,52372
36346,35355,52356
36331,35341,52341
36315,35327,52325
36303,35314,52309
36293,35302,52292
36283,35288,52269
36270,35271,52239
36258,35257,52211
36248,35246,52189
36238,35236,52170
36230,35226,52153
36225,35220,52139
36223,35220,52128
36222,35219,52115
36213,35213,52102
36200,35204,52091
36187,35194,52081
36172,35180,52063
36154,35165,52037
36137,35150,52008
36125,35139,51981
36112,35128,51954
36098,35118,51928
36085,35108,51904
36075,35100,51882
36063,35091,51860
36046,35079,51829
36028,35064,51796
36013,35051,51769
36000,35037,51744
35991,35022,51714
35984,35008,51686
35979,35003,51666
35974,35002,51652
35970,35004,51643
35969,35009,51640
35971,35016,51642
35975,35026,51651
35983,35043,51674
36003,35071,51719
36040,35114,51792
36097,35173,51898
36173,35255,52038
36271,35362,52213
36389,35492,52421
36522,35639,52655
36668,35802,52914
36826,35978,53197
36987,36155,53493
37146,36325,53789
37300,36490,54080
37447,36650,54363
37581,36798,54625
37700,36927,54863
37807,37041,55076
37906,37141,55262
37992,37227,55416
38063,37295,55537
38117,37345,55630
38157,37381,55700
38183,37406,55743
38196,37416,55758
38200,37416,55753
38198,37410,55733
38188,37395,55701
38170,37372,55658
38147,37346,55609
38119,37318,55557
38086,37286,55501
38049,37250,55440
38011,37216,55378
37973,37183,55321
37938,37152,55266
37908,37123,55211
37882,37098,55160
37859,37074,55113
37837,37050,55068
37816,37030,55025
37797,37013,54983
37777,36996,54941
37753,36975,54898
37728,36950,54852
37702,36921,54806
37671,36885,54756
37634,36842,54698
37596,36798,54632
37559,36757,54565
37522,36716,54497
37482,36673,54427
37442,36631,54359
37405,36592,54293
37370,36550,54224
37336,36508,54156
37306,36471,54096
37280,36441,54048
37256,36416,54005
37231,36393,53967
37208,36376,53934
37189,36364,53908
37177,36358,53890
37171,36357,53882
37170,36362,53883
37173,36373,53891
37177,36382,53899
37181,36389,53908
37188,36398,53925
37199,36412,53946
37212,36425,53963
37222,36431,53974
37230,36435,53983
37237,36437,53992
37246,36438,54000
37256,36440,54005
37264,36445,54008
37268,36451,54009
37268,36455,54004
37264,36455,53990
37256,36455,53971
37243,36450,53948
37224,36436,53919
37201,36414,53886
37178,36388,53851
37155,36357,53811
37128,36323,53763
37103,36289,53712
37083,36263,53664
37064,36239,53619
37045,36213,53575
37024,36188,53535
37000,36165,53498
36974,36137,53461
36947,36104,53418
36920,36069,53373
36893,36037,53331
36861,36006,53291
36826,35976,53252
36789,35948,53210
36753,35923,53167
36720,35899,53121
36690,35874,53077
36670,35854,53039
36656,35837,53007
36643,35822,52974
36627,35808,52942
36613,35795,52914
36603,35784,52894
36594,35772,52873
36584,35759,52850
36574,35749,52830
36565,35738,52816
36557,35725,52804
36549,35710,52791
36542,35699,52774
36537,35694,52756
36530,35691,52739
36523,35690,52723
36521,35690,52711
36523,35692,52704
36525,35693,52699
36523,35691,52694
36516,35687,52685
36503,35677,52669
36487,35663,52644
36472,35648,52617
36459,35636,52591
36445,35624,52564
36432,35611,52536
36422,35602,52512
36413,35598,52493
36402,35591,52477
36388,35578,52460
36376,35563,52441
36363,35547,52422
36347,35527,52397
36328,35504,52364
36311,35482,52330
36296,35465,52298
36285,35452,52269
36277,35444,52246
36273,35444,52234
36276,35453,52238
36286,35470,52258
36305,35498,52297
36339,35540,52364
36391,35602,52463
36463,35686,52597
36556,35790,52765
36673,35917,52971
36811,36068,53211
36964,36236,53479
37124,36413,53766
37288,36595,54067
37453,36777,54375
37616,36956,54683
37772,37129,54983
37921,37296,55273
38061,37456,55546
38187,37602,55794
38300,37729,56011
38400,37833,56195
38485,37913,56344
38552,37970,56457
38600,38011,56536
38630,38038,56588
38644,38052,56616
38647,38053,56623
38642,38043,56613
38631,38027,56586
38613,38004,56548
38586,37973,56501
38557,37942,56449
38529,37915,56399
38501,37887,56350
38468,37856,56301
38434,37827,56256
38403,37801,56217
38376,37774,56180
38349,37744,56144
38326,37716,56110
38306,37692,56078
38286,37668,56048
38265,37643,56019
38248,37622,55993
38236,37608,55967
38225,37598,55942
38213,37587,55917
38203,37578,55893
38192,37571,55869
38179,37559,55842
38161,37541,55808
38139,37519,55765
38113,37491,55713
38085,37458,55652
38056,37421,55585
38022,37382,55511
37980,37337,55435
37932,37287,55358
37885,37237,55281
37841,37192,55202
37799,37147,55123
37760,37101,55046
37727,37059,54976
37701,37022,54915
37674,36987,54862
37648,36956,54820
37628,36933,54792
37614,36918,54775
37605,36910,54762
37601,36905,54750
37602,36907,54742
37604,36912,54740
37605,36915,54744
37600,36912,54745
37594,36909,54743
37591,36909,54742
37590,36909,54742
37588,36907,54740
37587,36904,54737
37587,36903,54733
37586,36901,54730
37583,36897,54723
37576,36893,54710
37568,36890,54698
37560,36884,54684
37550,36873,54662
37536,36861,54633
37520,36852,54602
37503,36844,54572
37485,36832,54538
37464,36813,54501
37439,36790,54463
37413,36763,54426
37388,36739,54391
37366,36718,54356
37346,36696,54321
37326,36671,54283
37307,36646,54246
37290,36623,54210
37270,36599,54175
37247,36571,54137
37220,36542,54098
37193,36516,54060
37168,36493,54018
37146,36472,53971
37128,36453,53925
37113,36439,53883
37098,36428,53844
37082,36415,53807
37066,36403,53773
37050,36390,53746
37034,36375,53723
37018,36357,53700
37003,36341,53677
36994,36328,53657
36989,36319,53641
36986,36309,53625
36984,36299,53609
36981,36293,53594
36975,36288,53580
36965,36283,53564
36955,36276,53548
36944,36269,53531
36929,36259,53511
36912,36246,53489
36900,36233,53471
36889,36222,53456
36879,36212,53438
36869,36203,53418
36861,36196,53401
36857,36189,53388
36854,36180,53374
36849,36170,53357
36843,36162,53338
36836,36155,53319
36826,36144,53298
36815,36132,53274
36804,36122,53248
36794,36113,53222
36782,36101,53196
36767,36086,53171
36751,36070,53149
36734,36052,53125
36712,36031,53096
36688,36009,53062
36662,35987,53028
36637,35966,52993
36617,35943,52959
36607,35923,52931
36608,35914,52915
36620,35920,52917
36643,35938,52940
36681,35973,52992
36737,36031,53081
36812,36110,53204
36905,36208,53363
37016,36330,53559
37146,36472,53788
37289,36628,54045
37439,36793,54323
37591,36968,54618
37745,37145,54921
37902,37320,55221
38057,37488,55514
38207,37653,55798
38351,37814,56069
38485,37961,56315
38606,38087,56529
38714,38196,56712
38804,38286,56861
38877,38357,56973
38932,38410,57055
38972,38448,57114
38995,38473,57157
39002,38485,57179
38998,38483,57184
38987,38470,57175
38975,38447,57152
38958,38413,57119
38935,38372,57080
38908,38331,57033
38879,38295,56982
38851,38262,56933
38824,38232,56889
38799,38207,56850
38777,38187,56819
38759,38172,56794
38746,38161,56772
38736,38153,56750
38725,38144,56727
38710,38132,56703
38698,38123,56685
38690,38117,56676
38683,38111,56672
38679,38104,56668
38679,38097,56664
38678,38094,56660
38673,38089,56652
38663,38079,56636
38651,38063,56612
38637,38042,56580
38614,38015,56537
38581,37980,56479
38540,37939,56407
38496,37900,56329
38448,37860,56246
38398,37816,56156
38351,37771,56062
38310,37727,55970
38274,37683,55882
38240,37637,55798
38208,37592,55722
38177,37553,55654
38144,37520,55597
38112,37490,55552
38083,37468,55517
38061,37452,55490
38045,37439,55468
38034,37429,55453
38029,37425,55449
38030,37427,55456
38034,37431,55466
38041,37439,55474
38052,37451,55480
38058,37462,55483
38061,37468,55482
38060,37466,55479
38058,37462,55474
38056,37456,55466
38051,37450,55451
38044,37443,55438
38037,37434,55428
38026,37420,55417
38011,37400,55401
37993,37376,55380
37973,37351,55357
37950,37324,55329
37928,37296,55292
37909,37270,55249
37889,37244,55206
37866,37217,55159
37840,37187,55105
37815,37160,55046
37794,37139,54989
37775,37125,54936
37757,37112,54889
37740,37097,54846
37721,37083,54809
37697,37069,54773
37669,37052,54732
37638,37033,54690
37607,37013,54646
37576,36991,54604
37550,36968,54566
37530,36946,54532
37514,36926,54501
37498,36906,54468
37484,36885,54434
37474,36866,54400
37467,36852,54366
37461,36842,54334
37455,36836,54309
37449,36835,54288
37440,36833,54266
37429,36825,54242
37417,36814,54217
37405,36805,54194
37393,36794,54170
37378,36779,54145
37359,36761,54116
37338,36741,54087
37318,36720,54058
37301,36699,54026
37285,36679,53991
37270,36660,53957
37256,36641,53924
37240,36622,53892
37225,36604,53864
37210,36590,53841
37194,36574,53818
37177,36555,53794
37160,36538,53772
37147,36527,53754
37135,36517,53738
37125,36506,53723
37119,36499,53709
37116,36493,53697
37109,36484,53686
37097,36471,53670
37083,36457,53647
37069,36444,53620
37052,36428,53588
37035,36411,53552
37021,36397,53518
37009,36387,53490
36997,36374,53464
36984,36357,53439
36973,36338,53413
36961,36318,53386
36948,36295,53355
36936,36272,53323
36920,36253,53289
36899,36235,53257
36876,36217,53227
36854,36201,53199
36832,36187,53172
36810,36171,53147
36792,36154,53125
36786,36144,53113
36795,36147,53120
36818,36163,53146
36853,36196,53199
36902,36249,53287
36971,36328,53416
37060,36431,53584
37169,36551,53786
37296,36688,54020
37439,36843,54282
37594,37014,54565
37758,37195,54862
37927,37382,55165
38101,37573,55472
38273,37763,55777
38437,37944,56071
38593,38112,56348
38736,38266,56604
38859,38403,56833
38963,38515,57028
39046,38604,57188
39112,38674,57315
39160,38726,57406
39196,38760,57464
39223,38780,57496
39236,38788,57509
39233,38783,57505
39223,38771,57488
39212,38759,57465
39198,38745,57440
39180,38727,57411
39160,38707,57377
39142,38687,57344
39125,38669,57312
39110,38650,57276
39097,38632,57237
39086,38619,57203
39080,38609,57176
39073,38597,57152
39064,38584,57133
39055,38574,57123
39049,38569,57118
39041,38565,57113
39033,38558,57105
39025,38551,57097
39018,38543,57090
39009,38532,57080
39000,38520,57067
38994,38512,57051
38988,38507,57029
38977,38494,56997
38962,38473,56957
38941,38449,56912
38911,38418,56856
38876,38378,56789
38838,38336,56717
38797,38294,56643
38753,38251,56568
38710,38206,56493
38671,38164,56417
38634,38126,56345
38595,38088,56273
38557,38049,56202
38520,38010,56134
38486,37976,56074
38455,37947,56024
38430,37922,55981
38411,37903,55949
38397,37892,55929
38388,37885,55916
38381,37878,55905
38376,37873,55899
38373,37868,55897
38371,37863,55896
38369,37858,55896
38368,37854,55895
38366,37847,55892
38362,37840,55886
38359,37838,55879
38356,37844,55868
38348,37853,55852
38341,37860,55834
38338,37862,55818
38333,37859,55804
38323,37849,55785
38311,37833,55758
38301,37815,55727
38291,37796,55696
38278,37772,55661
38260,37743,55617
38238,37714,55569
38217,37687,55522
38194,37660,55475
38166,37631,55425
38134,37601,55373
38101,37571,55324
38067,37538,55274
38030,37500,55219
37993,37459,55163
37960,37421,55109
37931,37385,55058
37904,37351,55010
37879,37319,54964
37854,37291,54919
37829,37264,54872
37801,37236,54824
37774,37207,54777
37746,37178,54735
37716,37150,54692
37685,37123,54648
37658,37096,54605
37631,37073,54566
37605,37051,54526
37583,37031,54486
37568,37015,54451
37558,37003,54424
37551,36994,54400
37548,36990,54380
37551,36988,54363
37553,36982,54345
37550,36970,54326
37543,36956,54308
37533,36940,54291
37520,36923,54269
37504,36906,54244
37484,36887,54220
37463,36873,54199
37443,36861,54179
37426,36846,54156
37410,36831,54131
37394,36816,54104
37375,36798,54075
37355,36775,54045
37333,36751,54014
37312,36732,53986
37290,36716,53958
37266,36699,53926
37245,36682,53895
37227,36664,53865
37207,36644,53835
37184,36620,53801
37163,36595,53767
37147,36572,53738
37135,36550,53711
37124,36528,53686
37112,36509,53661
37100,36495,53638
37087,36484,53618
37073,36471,53600
37059,36459,53581
37047,36449,53559
37030,36436,53533
37009,36419,53504
36989,36403,53473
36969,36385,53439
36945,36363,53400
36921,36337,53359
36902,36312,53320
36886,36288,53283
36871,36264,53245
36855,36241,53208
36840,36219,53173
36826,36197,53136
36807,36173,53097
36783,36150,53057
36758,36128,53018
36733,36104,52980
36707,36078,52945
36689,36057,52922
36682,36050,52918
36688,36057,52936
36712,36083,52983
36761,36132,53070
36838,36212,53199
36939,36322,53371
37061,36457,53582
37199,36610,53829
37353,36779,54106
37517,36959,54404
37687,37144,54711
37857,37330,55022
38024,37514,55331
38185,37690,55631
38338,37852,55914
38483,37999,56176
38619,38133,56420
38739,38253,56637
38838,38352,56820
38913,38429,56968
38968,38489,57080
39008,38532,57158
39037,38560,57208
39055,38573,57237
39059,38574,57243
39051,38563,57230
39036,38543,57201
39015,38516,57161
38989,38483,57114
38960,38448,57063
38931,38414,57010
38906,38385,56960
38884,38360,56914
38865,38335,56872
38848,38313,56834
38834,38298,56799
38817,38281,56762
38796,38263,56721
38772,38245,56685
38751,38228,56657
38733,38210,56632
38717,38194,56609
38702,38180,56590
38689,38169,56574
38677,38156,56558
38666,38137,56537
38654,38116,56512
38639,38092,56478
38617,38061,56434
38587,38023,56380
38551,37982,56320
38510,37939,56257
38463,37891,56190
38412,37838,56116
38361,37788,56041
38315,37745,55966
38273,37704,55892
38231,37663,55816
38192,37623,55741
38155,37586,55671
38121,37552,55603
38089,37516,55539
38059,37482,55476
38031,37450,55419
38007,37420,55371
37986,37393,55330
37968,37369,55295
37951,37348,55268
37936,37328,55246
37921,37311,55231
37908,37297,55220
37897,37286,55210
37888,37278,55200
37881,37272,55190
37874,37267,55181
37868,37260,55172
37865,37253,55164
37864,37248,55157
37865,37245,55150
37866,37243,55140
37861,37237,55127
37855,37228,55113
37847,37218,55096
37835,37203,55071
37819,37181,55037
37802,37155,54998
37785,37130,54960
37764,37104,54918
37736,37073,54871
37704,37042,54827
37672,37014,54784
37641,36985,54737
37610,36954,54683
37579,36924,54626
37549,36894,54569
37517,36863,54514
37482,36830,54459
37448,36801,54405
37417,36772,54351
37387,36737,54294
37358,36696,54237
37332,36657,54183
37307,36622,54132
37281,36588,54081
37255,36556,54030
37229,36527,53982
37204,36499,53936
37179,36470,53893
37159,36445,53856
37143,36427,53828
37131,36413,53808
37118,36399,53791
37105,36389,53773
37091,36384,53755
37075,36376,53734
37053,36363,53707
37031,36348,53678
37011,36333,53652
36993,36316,53626
36975,36296,53599
36960,36274,53571
36946,36256,53547
36931,36244,53525
36917,36234,53505
36904,36226,53488
36892,36218,53470
36881,36209,53451
36867,36196,53428
36851,36180,53403
36835,36166,53379
36817,36152,53358
36799,36135,53333
36782,36119,53306
36771,36104,53280
36760,36090,53252
36749,36076,53223
36739,36063,53196
36729,36051,53173
36720,36036,53148
36712,36017,53120
36704,35999,53094
36696,35986,53075
36684,35975,53061
36673,35965,53047
36664,35957,53033
36650,35945,53017
36633,35931,52996
36615,35917,52972
36601,35906,52948
36588,35893,52922
36571,35876,52891
36551,35858,52860
36530,35839,52832
36509,35822,52803
36491,35805,52774
36476,35791,52749
36462,35778,52729
36448,35764,52709
36430,35746,52684
36411,35727,52660
36393,35709,52636
36372,35689,52608
36351,35666,52576
36333,35644,52546
36321,35627,52523
36312,35615,52504
36302,35605,52485
36296,35598,52468
36296,35597,52461
36304,35603,52471
36325,35621,52502
36363,35659,52562
36421,35720,52659
36500,35804,52796
36599,35910,52968
36715,36037,53176
36849,36189,53422
36999,36361,53697
37162,36544,53991
37333,36730,54295
37508,36917,54603
37678,37099,54909
37838,37272,55203
37987,37430,55479
38123,37574,55733
38242,37701,55962
38345,37811,56160
38436,37904,56325
38515,37979,56457
38577,38034,56556
38624,38074,56629
38657,38103,56681
38672,38121,56709
38672,38123,56712
38662,38114,56696
38644,38096,56666
38618,38068,56624
38586,38031,56573
38551,37991,56516
38516,37954,56458
38485,37922,56401
38456,37889,56342
38428,37855,56280
38400,37824,56220
38375,37797,56166
38350,37772,56117
38327,37748,56074
38307,37728,56042
38287,37711,56014
38268,37695,55986
38250,37677,55955
38233,37663,55927
38218,37652,55901
38203,37639,55871
38189,37625,55839
38171,37606,55804
38150,37581,55764
38129,37549,55717
38106,37517,55661
38078,37481,55598
38041,37440,55529
38000,37399,55456
37956,37359,55384
37913,37321,55312
37871,37284,55244
37831,37249,55182
37799,37217,55127
37774,37188,55078
37749,37158,55035
37724,37132,54998
37705,37112,54972
37691,37095,54950
37679,37076,54931
37671,37062,54919
37668,37057,54916
37669,37058,54915
37669,37062,54914
37669,37068,54916
37669,37077,54925
37669,37087,54940
37672,37094,54953
37678,37100,54961
37685,37106,54969
37688,37110,54973
37685,37108,54971
37682,37100,54965
37679,37090,54958
37674,37081,54946
37665,37069,54926
37653,37052,54899
37645,37038,54873
37636,37028,54847
37623,37017,54817
37605,37006,54781
37587,36993,54744
37569,36974,54705
37548,36946,54661
37525,36912,54613
37499,36876,54566
37471,36840,54521
37442,36805,54477
37413,36775,54430
37384,36745,54379
37350,36713,54324
37314,36678,54268
37280,36643,54216
37249,36610,54165
37220,36577,54114
37197,36547,54068
37182,36521,54032
37169,36502,54003
37154,36487,53978
37139,36477,53955
37124,36470,53935
37109,36463,53915
37092,36451,53891
37073,36436,53866
37054,36422,53841
37035,36405,53813
37014,36385,53776
36993,36368,53737
36976,36356,53700
36958,36345,53663
36942,36332,53627
36930,36317,53597
36921,36305,53574
36912,36296,53552
36901,36286,53529
36892,36275,53508
36882,36264,53489
36870,36252,53471
36853,36237,53451
36833,36219,53431
36818,36203,53415
36808,36188,53399
36801,36171,53380
36795,36155,53360
36791,36143,53342
36790,36133,53325
36788,36123,53305
36782,36114,53283
36773,36103,53260
36759,36088,53234
36739,36069,53206
36714,36050,53176
36686,36033,53143
36659,36017,53107
36635,35997,53069
36614,35974,53030
36593,35949,52993
36574,35926,52959
36558,35907,52927
36545,35887,52898
36533,35868,52869
36521,35851,52841
36509,35836,52819
36499,35823,52807
36488,35811,52802
36480,35806,52805
36486,35815,52824
36512,35847,52869
36556,35900,52941
36618,35975,53044
36703,36077,53187
36810,36206,53374
36937,36353,53600
37080,36515,53853
37238,36689,54128
37407,36873,54417
37578,37057,54712
37749,37232,55005
37912,37396,55291
38068,37555,55569
38213,37705,55834
38344,37842,56075
38463,37965,56288
38570,38075,56476
38661,38168,56635
38733,38239,56763
38787,38291,56862
38825,38328,56933
38847,38349,56978
38858,38357,56998
38861,38353,57001
38859,38342,56989
38848,38326,56962
38828,38307,56922
38803,38285,56878
38777,38259,56831
38748,38229,56781
38718,38197,56730
38688,38161,56679
38656,38124,56628
38623,38088,56576
38590,38056,56527
38564,38030,56485
38542,38007,56450
38520,37987,56417
38500,37971,56387
38481,37960,56361
38465,37948,56336
38451,37933,56311
38441,37919,56291
38434,37910,56277
38426,37901,56259
38413,37884,56232
38393,37863,56197
38371,37841,56154
38345,37815,56100
38314,37781,56034
38280,37743,55964
38246,37707,55894
38210,37669,55819
38170,37628,55735
38127,37584,55648
38087,37543,55569
38050,37506,55499
38013,37472,55434
37978,37440,55377
37946,37414,55332
37921,37394,55294
37902,37375,55258
37888,37358,55228
37880,37346,55209
37873,37339,55199
37867,37333,55195
37867,37330,55198
37875,37332,55206
37887,37338,55217
37898,37345,55229
37907,37352,55238
37910,37359,55245
37910,37361,55248
37912,37363,55248
37915,37367,55250
37918,37372,55252
37921,37372,55252
37921,37369,55248
37917,37363,55238
37905,37355,55221
37888,37341,55196
37873,37325,55169
37859,37310,55142
37841,37291,55114
37819,37266,55079
37794,37239,55037
37773,37215,54995
37751,37188,54948
37726,37158,54895
37702,37129,54840
37679,37105,54788
37656,37083,54737
37629,37060,54683
37601,37037,54633
37574,37014,54586
37545,36987,54538
37513,36958,54489
37479,36930,54444
37447,36904,54401
37419,36876,54359
37392,36843,54317
37367,36812,54276
37343,36784,54236
37318,36756,54193
37294,36728,54147
37274,36704,54104
37259,36684,54068
37244,36666,54036
37226,36648,54007
37207,36632,53981
37188,36617,53957
37170,36599,53931
37148,36578,53902
37126,36559,53873
37110,36546,53848
37100,36534,53823
37092,36524,53798
37084,36518,53776
37078,36513,53755
37074,36506,53736
37070,36496,53720
37065,36485,53704
37055,36473,53684
37041,36458,53662
37028,36443,53641
37016,36430,53623
37007,36420,53606
36999,36412,53589
36991,36405,53572
36986,36399,53558
36980,36392,53544
36974,36383,53529
36968,36373,53513
36958,36364,53495
36944,36352,53470
36927,36335,53440
36909,36317,53408
36890,36297,53378
36870,36276,53347
36848,36254,53315
36828,36236,53285
36810,36224,53258
36795,36213,53230
36782,36201,53203
36771,36191,53178
36761,36184,53160
36753,36176,53147
36748,36172,53143
36749,36179,53153
36765,36207,53184
36801,36255,53241
36859,36319,53330
36940,36406,53462
37044,36517,53640
37170,36651,53860
37313,36804,54113
37468,36973,54392
37633,37154,54690
37802,37339,54999
37973,37523,55313
38143,37703,55629
38305,37873,55937
38456,38032,56229
38598,38181,56497
38732,38318,56741
38851,38439,56955
38951,38544,57138
39035,38636,57291
39106,38713,57416
39161,38772,57507
39203,38811,57569
39233,38835,57608
39252,38846,57629
39258,38843,57633
39253,38830,57617
39237,38809,57588
39215,38782,57551
39189,38750,57508
39162,38716,57464
39140,38688,57427
39123,38664,57394
39103,38642,57361
39082,38624,57329
39064,38613,57299
39051,38607,57270
39040,38601,57242
39027,38591,57214
39014,38582,57189
39004,38577,57171
38995,38574,57155
38988,38566,57141
38985,38556,57131
38986,38551,57127
38988,38548,57124
38990,38544,57119
38988,38539,57112
38984,38530,57102
38974,38515,57085
38959,38496,57056
38937,38475,57015
38908,38449,56963
38871,38417,56899
38828,38376,56825
38784,38330,56746
38739,38281,56665
38695,38233,56581
38652,38187,56496
38611,38145,56417
38569,38106,56340
38527,38068,56265
38487,38031,56196
38450,37999,56134
38416,37969,56076
38384,37939,56021
38354,37911,55974
38331,37887,55934
38315,37869,55901
38307,37856,55878
38306,37850,55865
38310,37849,55861
38314,37846,55861
38314,37838,55858
38310,37827,55855
38305,37818,55852
38298,37809,55846
38291,37799,55836
38287,37795,55826
38285,37796,55815
38281,37796,55804
38277,37792,55793
38272,37787,55784
38267,37780,55775
38259,37769,55761
38248,37755,55739
38236,37739,55712
38223,37718,55678
38207,37695,55637
38188,37671,55592
38168,37650,55550
38146,37626,55510
38119,37598,55465
38089,37570,55416
38057,37543,55365
38023,37512,55312
37987,37474,55253
37947,37433,55191
37909,37394,55130
37872,37357,55073
37837,37321,55019
37806,37288,54972
37779,37261,54929
37756,37237,54888
37737,37217,54846
37723,37201,54806
37711,37187,54770
37698,37173,54738
37679,37154,54703
37658,37133,54666
37637,37110,54631
37612,37086,54596
37586,37061,54554
37563,37034,54509
37544,37007,54465
37524,36979,54424
37504,36953,54387
37488,36932,54355
37476,36919,54328
37463,36909,54303
37449,36897,54278
37437,36886,54256
37424,36877,54236
37409,36868,54214
37396,36856,54191
37386,36842,54168
37374,36827,54141
37359,36815,54113
37345,36809,54086
37333,36804,54062
37323,36797,54039
37317,36788,54017
37315,36780,54000
37315,36775,53989
37312,36768,53978
37306,36757,53966
37300,36745,53954
37289,36732,53941
37273,36716,53925
37258,36700,53905
37247,36690,53885
37240,36685,53867
37233,36681,53850
37222,36670,53829
37209,36657,53806
37196,36646,53783
37180,36635,53759
37159,36617,53729
37135,36594,53696
37110,36571,53664
37086,36545,53631
37059,36515,53595
37029,36486,53560
37004,36457,53529
36984,36428,53498
36967,36401,53466
36958,36383,53442
36962,36381,53439
36983,36397,53461
37022,36434,53513
37082,36497,53603
37163,36589,53738
37267,36707,53918
37394,36850,54140
37541,37012,54399
37701,37188,54685
37867,37369,54988
38036,37551,55300
38209,37737,55619
38383,37923,55941
38552,38103,56255
38714,38279,56556
38870,38448,56840
39015,38602,57094
39144,38733,57313
39255,38844,57499
39347,38934,57653
39418,39001,57773
39469,39048,57861
39507,39080,57921
39534,39102,57959
39550,39115,57981
39558,39117,57987
39559,39112,57977
39555,39100,57954
39547,39081,57922
39533,39054,57883
39514,39024,57843
39492,38995,57805
39468,38964,57766
39442,38930,57725
39418,38898,57688
39400,38874,57659
39386,38858,57637
39372,38847,57618
39360,38842,57601
39349,38840,57587
39336,38837,57570
39321,38833,57549
39309,38830,57529
39300,38824,57512
39293,38817,57495
39285,38810,57480
39276,38803,57466
39265,38792,57454
39254,38779,57436
39240,38763,57415
39221,38746,57391
39197,38726,57360
39169,38698,57316
39135,38662,57258
39098,38621,57191
39057,38577,57115
39011,38528,57028
38962,38481,56935
38913,38439,56844
38865,38397,56758
38817,38352,56674
38774,38308,56595
38739,38271,56525
38710,38238,56462
38687,38205,56406
38668,38177,56359
38655,38156,56325
38642,38140,56301
38629,38124,56282
38619,38111,56266
38612,38102,56256
38605,38094,56246
38596,38084,56234
38587,38074,56223
38582,38068,56218
38578,38065,56216
38574,38061,56214
38571,38059,56215
38566,38056,56217
38555,38047,56213
38541,38035,56201
38533,38025,56187
38529,38015,56172
38520,38000,56149
38504,37981,56115
38490,37965,56079
38476,37949,56042
38460,37928,56003
38439,37903,55959
38415,37878,55911
38387,37850,55862
38352,37815,55807
38316,37777,55750
38281,37742,55695
38248,37708,55639
38212,37672,55579
38174,37631,55518
38138,37594,55462
38104,37561,55408
38070,37528,55355
38040,37492,55301
38013,37457,55252
37986,37424,55206
37956,37393,55158
37925,37364,55108
37896,37338,55056
37872,37313,55001
37853,37287,54948
37836,37263,54902
37820,37241,54864
37802,37216,54828
37781,37189,54791
37757,37162,54754
37734,37138,54719
37708,37114,54683
37678,37086,54645
37647,37058,54606
37620,37034,54570
37595,37013,54535
37573,36995,54503
37554,36981,54474
37539,36970,54451
37522,36961,54429
37506,36953,54403
37492,36945,54377
37480,36937,54354
37468,36926,54331
37456,36913,54310
37445,36904,54294
37435,36898,54280
37424,36889,54267
37414,36878,54252
37407,36869,54239
37400,36864,54225
37392,36858,54211
37384,36849,54196
37376,36837,54180
37368,36820,54161
37357,36799,54139
37348,36779,54118
37341,36766,54102
37334,36760,54088
37326,36753,54073
37318,36750,54058
37312,36751,54045
37306,36755,54033
37300,36757,54016
37293,36755,53997
37282,36749,53977
37265,36737,53955
37243,36719,53929
37219,36698,53898
37197,36679,53865
37179,36660,53831
37164,36642,53798
37153,36626,53767
37145,36613,53741
37139,36598,53716
37128,36578,53689
37112,36557,53661
37093,36535,53631
37070,36511,53599
37045,36483,53560
37020,36457,53517
37001,36438,53479
36985,36426,53456
36974,36419,53446
36970,36422,53450
36977,36437,53472
36999,36468,53519
37040,36520,53597
37108,36596,53714
37202,36698,53874
37317,36825,54077
37450,36975,54323
37605,37148,54607
37778,37339,54919
37960,37540,55245
38146,37741,55581
38334,37941,55918
38517,38135,56250
38692,38319,56568
38859,38493,56871
39015,38655,57154
39156,38801,57410
39275,38928,57629
39374,39035,57812
39456,39121,57959
39521,39184,58070
39566,39226,58147
39594,39251,58195
39608,39266,58220
39609,39267,58224
39599,39254,58206
39582,39233,58174
39561,39206,58134
39539,39173,58086
39514,39136,58035
39486,39103,57985
39459,39071,57937
39430,39036,57887
39402,39002,57837
39378,38974,57794
39358,38953,57756
39336,38932,57719
39315,38913,57684
39298,38901,57657
39289,38894,57635
39281,38884,57616
39273,38869,57597
39266,38856,57582
39260,38845,57571
39254,38832,57558
39246,38813,57540
39234,38792,57520
39219,38771,57500
39200,38746,57473
39179,38719,57437
39157,38693,57393
39128,38664,57340
39092,38630,57276
39053,38591,57203
39011,38552,57125
38966,38509,57043
38919,38462,56958
38874,38416,56873
38832,38373,56792
38793,38332,56716
38755,38294,56646
38723,38261,56586
38700,38236,56536
38680,38215,56494
38661,38196,56456
38644,38180,56424
38630,38169,56399
38615,38157,56381
38601,38143,56367
38590,38130,56357
38582,38121,56352
38575,38113,56348
38568,38106,56343
38561,38101,56339
38553,38098,56340
38543,38094,56337
38536,38089,56330
38533,38087,56326
38532,38088,56324
38529,38085,56319
38524,38079,56308
38519,38071,56295
38512,38061,56280
38503,38048,56259
38491,38029,56229
38477,38008,56192
38461,37990,56153
38441,37970,56109
38418,37945,56062
38394,37918,56016
38370,37891,55968
38345,37864,55918
38318,37836,55867
38289,37808,55816
38256,37777,55761
38219,37739,55701
38182,37698,55639
38151,37658,55577
38121,37618,55518
38090,37579,55457
38058,37540,55398
38027,37503,55345
37999,37469,55299
37972,37438,55257
37949,37413,55217
37928,37394,55179
37904,37373,55139
37873,37348,55096
37839,37324,55056
37803,37304,55016
37764,37283,54974
37730,37257,54936
37706,37234,54907
37694,37214,54884
37685,37195,54860
37674,37175,54834
37663,37161,54813
37657,37153,54798
37651,37143,54781
37643,37130,54759
37633,37118,54735
37624,37108,54710
37612,37094,54680
37596,37075,54648
37581,37059,54621
37570,37047,54601
37557,37037,54582
37543,37026,54562
37528,37017,54541
37512,37009,54520
37497,36998,54497
37485,36986,54471
37475,36973,54444
37463,36958,54411
37445,36936,54373
37420,36910,54337
37396,36885,54311
37378,36863,54292
37360,36842,54275
37342,36826,54259
37330,36816,54244
37323,36808,54228
37317,36799,54207
37311,36790,54184
37308,36783,54164
37302,36776,54146
37294,36765,54124
37286,36754,54101
37278,36743,54079
37268,36731,54056
37254,36717,54032
37240,36706,54009
37229,36695,53986
37217,36682,53958
37203,36665,53924
37188,36646,53890
37176,36631,53860
37167,36617,53832
37156,36601,53802
37141,36585,53774
37124,36569,53745
37104,36548,53715
37079,36524,53685
37057,36503,53657
37038,36486,53627
37019,36467,53599
37002,36451,53576
36989,36441,53565
36987,36442,53567
36999,36456,53588
37028,36488,53638
37078,36544,53727
37151,36625,53857
37250,36731,54028
37375,36865,54238
37528,37028,54491
37704,37213,54782
37891,37412,55099
38084,37617,55432
38279,37824,55775
38469,38029,56120
38648,38226,56458
38818,38410,56781
38977,38581,57086
39124,38738,57362
39260,38877,57606
39385,39003,57817
39494,39112,58000
39581,39203,58150
39644,39273,58263
39690,39326,58341
39719,39360,58391
39733,39375,58415
39734,39373,58415
39727,39362,58395
39714,39345,58363
39691,39318,58321
39659,39284,58272
39626,39247,58221
39592,39210,58169
39556,39169,58114
39520,39128,58058
39489,39093,58008
39461,39066,57963
39432,39041,57920
39403,39015,57876
39376,38990,57834
39354,38969,57795
39338,38951,57759
39329,38936,57728
39324,38926,57705
39318,38919,57689
39309,38910,57674
39296,38899,57657
39282,38888,57639
39268,38873,57616
39252,38851,57582
39232,38824,57539
39208,38796,57488
39181,38768,57428
39147,38734,57358
39112,38698,57284
39078,38665,57213
39040,38628,57140
38994,38582,57067
38942,38536,56997
38891,38492,56933
38842,38448,56873
38798,38406,56816
38762,38371,56766
38734,38342,56724
38714,38318,56686
38700,38297,56651
38692,38282,56622
38688,38275,56604
38686,38270,56594
38683,38264,56587
38683,38259,56582
38687,38259,56581
38692,38261,56584
38694,38264,56589
38697,38268,56596
38698,38274,56605
38698,38282,56613
38697,38287,56615
38698,38290,56614
38699,38291,56612
38698,38289,56605
38693,38283,56593
38685,38272,56576
38675,38258,56556
38662,38238,56530
38648,38215,56500
38632,38192,56467
38612,38168,56431
38591,38144,56388
38570,38119,56342
38547,38092,56295
38518,38063,56249
38484,38030,56199
38448,37995,56145
38413,37962,56088
38381,37926,56029
38349,37891,55967
38317,37861,55908
38287,37833,55856
38256,37803,55812
38227,37769,55769
38200,37735,55727
38176,37706,55687
38149,37677,55647
38118,37645,55603
38088,37613,55559
38062,37582,55518
38037,37555,55478
38012,37528,55438
37990,37502,55399
37973,37480,55367
37961,37464,55337
37949,37449,55303
37936,37434,55268
37924,37420,55237
37908,37406,55206
37886,37391,55177
37866,37375,55152
37848,37357,55127
37834,37338,55102
37821,37321,55078
37811,37308,55056
37801,37298,55034
37790,37288,55010
37779,37281,54987
37769,37277,54969
37759,37273,54952
37751,37266,54935
37743,37259,54920
37735,37248,54906
37724,37231,54887
37712,37210,54861
37699,37189,54835
37684,37172,54813
37670,37157,54795
37656,37143,54775
37642,37130,54753
37631,37121,54732
37620,37113,54715
37608,37103,54698
37595,37092,54678
37582,37080,54653
37563,37066,54625
37540,37047,54591
37517,37024,54556
37496,37001,54521
37476,36977,54486
37457,36952,54452
37440,36929,54421
37425,36908,54391
37411,36887,54361
37397,36863,54330
37385,36841,54301
37375,36823,54277
37362,36808,54254
37347,36796,54233
37332,36788,54215
37319,36782,54202
37313,36781,54195
37320,36792,54204
37342,36822,54236
37381,36872,54298
37436,36940,54394
37513,37030,54526
37615,37145,54701
37741,37282,54919
37885,37438,55172
38043,37609,55453
38212,37793,55755
38389,37981,56066
38567,38168,56382
38742,38352,56698
38913,38533,57009
39078,38705,57304
39235,38866,57576
39378,39015,57826
39505,39150,58049
39613,39264,58238
39699,39352,58391
39763,39418,58509
39807,39466,58593
39834,39496,58645
39844,39506,58667
39841,39498,58662
39827,39479,58636
39803,39453,58595
39771,39416,58542
39732,39371,58483
39689,39323,58421
39645,39274,58357
39602,39225,58292
39563,39180,58226
39528,39142,58164
39495,39108,58107
39464,39077,58055
39438,39050,58006
39419,39031,57962
39405,39013,57924
39394,38993,57890
39382,38973,57858
39372,38956,57831
39359,38942,57805
39342,38925,57773
39320,38906,57738
39294,38886,57698
39263,38862,57651
39229,38831,57596
39192,38793,57533
39149,38749,57464
39104,38704,57390
39063,38662,57314
39025,38623,57239
38987,38586,57164
38952,38551,57090
38920,38521,57024
38892,38500,56972
38870,38485,56933
38854,38471,56900
38845,38461,56876
38841,38455,56863
38839,38452,56854
38839,38449,56849
38844,38450,56850
38855,38457,56862
38867,38466,56877
38878,38477,56895
38892,38494,56919
38909,38513,56945
38925,38528,56965
38939,38540,56981
38955,38555,56996
38970,38571,57013
38978,38582,57029
38978,38587,57039
38972,38586,57045
38962,38581,57046
38947,38566,57037
38928,38543,57020
38912,38522,57001
38897,38507,56980
38878,38494,56955
38860,38485,56924
38847,38479,56892
38842,38477,56862
38839,38475,56834
38835,38472,56805
38829,38467,56775
38820,38462,56744
38806,38455,56711
38789,38445,56678
38772,38434,56648
38755,38422,56618
38735,38410,56586
38716,38395,56550
38697,38378,56512
38675,38358,56471
38653,38336,56424
38633,38313,56375
38612,38289,56325
38587,38262,56278
38560,38236,56234
38539,38213,56194
38526,38194,56159
38516,38176,56130
38507,38161,56107
38502,38152,56088
38500,38148,56070
38496,38148,56052
38490,38148,56033
38482,38149,56017
38474,38145,56000
38464,38135,55975
38451,38119,55946
38439,38105,55919
38431,38096,55894
38424,38089,55869
38416,38082,55843
38409,38081,55824
38401,38083,55810
38391,38084,55797
38380,38081,55781
38369,38073,55762
38357,38058,55738
38339,38034,55708
38316,38003,55673
38288,37968,55634
38257,37927,55593
38226,37882,55550
38201,37836,55506
38179,37792,55462
38155,37752,55417
38129,37713,55369
38105,37674,55320
38082,37640,55275
38056,37611,55233
38025,37581,55193
37993,37554,55158
37966,37532,55125
37941,37513,55093
37919,37495,55060
37901,37478,55030
37886,37467,55006
37871,37459,54984
37857,37451,54960
37848,37445,54940
37846,37443,54928
37849,37442,54926
37858,37445,54939
37878,37461,54976
37917,37498,55045
37975,37557,55149
38055,37641,55290
38158,37751,55475
38283,37887,55705
38428,38044,55971
38591,38219,56266
38772,38410,56585
38963,38611,56922
39160,38813,57264
39359,39018,57606
39558,39225,57948
39748,39424,58279
39921,39604,58581
40073,39757,58846
40205,39885,59076
40317,39993,59272
40405,40079,59426
40470,40140,59541
40517,40181,59621
40547,40205,59671
40559,40211,59692
40555,40202,59691
40540,40182,59673
40516,40157,59639
40484,40126,59593
40449,40093,59540
40414,40059,59488
40377,40025,59439
40341,39991,59389
40309,39958,59338
40279,39927,59289
40249,39896,59241
40218,39861,59188
40189,39825,59134
40164,39792,59085
40140,39761,59039
40115,39731,58997
40094,39704,58960
40077,39684,58928
40066,39671,58902
40059,39661,58879
40054,39656,58859
40051,39654,58843
40046,39651,58824
40039,39642,58795
40030,39628,58759
40018,39612,58718
39999,39591,58667
39969,39559,58609
39929,39521,58547
39882,39479,58482
39831,39432,58410
39781,39384,58331
39736,39341,58251
39694,39303,58175
39653,39269,58103
39615,39237,58036
39584,39210,57976
39558,39185,57924
39536,39161,57877
39517,39138,57836
39502,39119,57804
39490,39102,57781
39479,39087,57762
39473,39076,57750
39470,39070,57747
39467,39065,57748
39462,39060,57749
39458,39056,57752
39457,39058,57761
39456,39059,57771
39455,39058,57777
39454,39056,57779
39456,39056,57781
39459,39051,57780
39460,39042,57773
39461,39038,57763
39463,39037,57753
39460,39036,57737
39453,39027,57717
39444,39014,57694
39434,39000,57666
39419,38982,57630
39398,38960,57584
39376,38936,57534
39353,38914,57488
39330,38894,57443
39305,38870,57394
39281,38847,57345
39259,38829,57301
39237,38810,57259
39212,38786,57216
39185,38763,57174
39159,38740,57133
39135,38715,57088
39108,38686,57037
39081,38655,56986
39054,38624,56937
39027,38595,56889
39002,38568,56844
38978,38546,56802
38954,38528,56763
38932,38513,56726
38912,38500,56693
38899,38492,56667
38889,38488,56643
38880,38484,56618
38871,38481,56594
38862,38480,56573
38850,38476,56556
38836,38468,56542
38823,38460,56532
38812,38456,56525
38802,38450,56514
38795,38445,56502
38793,38443,56490
38793,38444,56480
38789,38445,56470
38784,38442,56458
38780,38435,56445
38777,38427,56432
38775,38418,56418
38775,38412,56403
38777,38412,56390
38780,38414,56379
38782,38412,56364
38781,38407,56347
38776,38406,56331
38771,38408,56314
38764,38409,56297
38758,38411,56283
38755,38417,56279
38755,38423,56280
38754,38427,56279
38753,38428,56273
38751,38426,56265
38748,38423,56258
38743,38417,56247
38736,38406,56231
38726,38390,56212
38715,38373,56190
38701,38354,56163
38685,38335,56134
38669,38319,56104
38654,38305,56073
38637,38291,56040
38618,38275,56004
38602,38263,55972
38591,38255,55947
38586,38251,55929
38589,38255,55925
38605,38276,55944
38635,38314,55991
38679,38369,56068
38742,38445,56181
38829,38544,56338
38937,38666,56536
39066,38809,56772
39221,38978,57047
39397,39167,57356
39588,39369,57693
39791,39580,58053
39999,39796,58424
40205,40011,58795
40408,40221,59158
40604,40419,59502
40787,40602,59817
40956,40768,60104
41107,40913,60362
41236,41032,60585
41341,41129,60770
41425,41209,60916
41486,41271,61026
41523,41311,61103
41541,41330,61154
41541,41328,61176
41525,41303,61168
41500,41264,61140
41470,41220,61100
41433,41173,61048
41394,41123,60986
41356,41073,60919
41320,41027,60852
41285,40986,60785
41249,40947,60717
41212,40912,60651
41180,40880,60591
41154,40851,60534
41130,40825,60480
41112,40805,60433
41100,40789,60398
41087,40774,60369
41074,40757,60342
41061,40739,60315
41045,40722,60290
41025,40702,60262
41002,40678,60229
40980,40650,60194
40955,40619,60156
40923,40582,60107
40887,40538,60044
40849,40492,59971
40808,40445,59889
40764,40399,59802
40719,40355,59712
40675,40315,59624
40630,40272,59535
40583,40223,59442
40535,40172,59348
40490,40124,59259
40446,40076,59176
40401,40025,59097
40356,39973,59022
40313,39926,58956
40275,39885,58899
40244,39847,58851
40220,39816,58812
40206,39795,58787
40200,39782,58772
40196,39773,58762
40195,39768,58754
40196,39769,58747
40198,39769,58742
40198,39763,58738
40195,39754,58739
40193,39745,58745
40191,39737,58754
40189,39730,58761
40192,39723,58764
40198,39721,58763
40204,39721,58760
40206,39718,58753
40207,39711,58743
40206,39705,58731
40199,39696,58710
40186,39683,58679
40169,39669,58641
40149,39656,58597
40126,39639,58548
40104,39615,58495
40082,39588,58441
40060,39560,58384
40033,39528,58328
40004,39494,58271
39976,39463,58216
39948,39436,58163
39919,39407,58110
39885,39374,58053
39850,39340,57995
39814,39307,57939
39776,39269,57879
39733,39225,57812
39687,39177,57740
39642,39128,57669
39600,39078,57597
39559,39027,57527
39522,38979,57460
39490,38937,57398
39460,38897,57338
39430,38859,57278
39400,38829,57222
39372,38805,57174
39347,38783,57133
39327,38763,57096
39309,38747,57065
39288,38735,57037
39265,38721,57006
39240,38703,56968
39214,38677,56927
39185,38647,56886
39155,38611,56844
39125,38574,56804
39097,38540,56770
39069,38508,56738
39042,38477,56703
39019,38448,56669
39001,38427,56643
38987,38414,56623
38977,38405,56607
38972,38401,56590
38969,38399,56574
38963,38396,56555
38954,38388,56530
38942,38377,56500
38928,38368,56468
38913,38357,56435
38895,38340,56397
38877,38320,56358
38858,38299,56321
38834,38277,56288
38805,38253,56252
38775,38225,56213
38746,38197,56175
38717,38171,56135
38689,38144,56092
38662,38116,56045
38638,38091,55999
38615,38071,55956
38595,38054,55915
38579,38040,55878
38563,38027,55845
38544,38012,55816
38524,37996,55787
38511,37979,55762
38506,37965,55743
38510,37960,55738
38524,37969,55755
38553,37999,55803
38600,38050,55888
38670,38126,56012
38765,38228,56178
38885,38358,56386
39024,38510,56632
39184,38681,56917
39363,38872,57239
39561,39081,57593
39771,39297,57966
39985,39516,58345
40199,39737,58723
40407,39957,59092
40602,40163,59439
40778,40346,59754
40933,40505,60032
41064,40634,60273
41167,40732,60469
41242,40803,60619
41292,40850,60726
41320,40879,60794
41333,40889,60825
41333,40883,60826
41323,40868,60804
41305,40844,60767
41279,40811,60715
41245,40769,60651
41206,40722,60583
41163,40675,60511
41119,40626,60432
41074,40575,60350
41030,40526,60270
40990,40482,60196
40953,40444,60132
40919,40413,60078
40892,40390,60029
40869,40371,59981
40846,40351,59939
40826,40333,59904
40808,40316,59876
40790,40295,59850
40769,40272,59825
40750,40254,59805
40731,40236,59785
40711,40217,59762
40689,40194,59732
40666,40171,59695
40643,40150,59648
40615,40125,59588
40575,40089,59511
40527,40045,59423
40478,40001,59334
40428,39954,59242
40371,39898,59146
40317,39841,59053
40270,39790,58971
40229,39743,58898
40195,39701,58831
40166,39664,58771
40142,39633,58722
40123,39610,58682
40108,39591,58647
40096,39574,58618
40084,39562,58597
40075,39554,58582
40069,39547,58571
40067,39539,58564
40070,39537,58564
40074,39538,58570
40074,39540,58579
40077,39546,58592
40083,39556,58610
40088,39564,58626
40087,39567,58637
40086,39569,58644
40085,39571,58647
40078,39573,58642
40064,39570,58628
40049,39560,58606
40031,39543,58579
40013,39524,58547
39996,39506,58512
39980,39490,58477
39961,39472,58444
39934,39445,58407
39901,39413,58362
39870,39380,58308
39840,39343,58247
39807,39298,58177
39771,39250,58104
39735,39203,58035
39695,39155,57965
39655,39107,57893
39615,39060,57823
39578,39019,57757
39544,38984,57693
39511,38948,57628
39478,38910,57565
39444,38874,57502
39410,38840,57438
39375,38807,57376
39342,38775,57321
39313,38746,57270
39286,38719,57221
39260,38691,57171
39235,38664,57122
39209,38642,57079
39185,38623,57042
39165,38607,57009
39151,38595,56980
39139,38582,56954
39122,38564,56927
39101,38544,56896
39082,38525,56863
39061,38507,56830
39036,38484,56795
39013,38462,56760
38998,38446,56730
38990,38436,56707
38983,38426,56688
38975,38416,56671
38966,38411,56654
38954,38405,56633
38939,38393,56604
38921,38373,56571
38901,38354,56537
38881,38337,56505
38858,38318,56474
38832,38297,56439
38807,38275,56403
38785,38252,56368
38763,38227,56333
38741,38203,56300
38720,38184,56270
38696,38165,56240
38673,38144,56208
38655,38126,56179
38646,38116,56158
38644,38112,56146
38650,38116,56154
38672,38140,56193
38713,38185,56267
38775,38251,56378
38858,38339,56526
38961,38453,56718
39088,38591,56952
39236,38752,57220
39402,38930,57516
39581,39127,57839
39773,39340,58182
39970,39557,58530
40166,39768,58874
40356,39971,59209
40534,40163,59526
40692,40335,59814
40830,40482,60067
40946,40603,60281
41039,40699,60454
41111,40770,60584
41163,40816,60676
41200,40843,60733
41219,40852,60758
41220,40842,60753
41206,40819,60725
41182,40790,60678
41148,40755,60614
41104,40708,60536
41055,40654,60452
41007,40602,60366
40961,40551,60281
40916,40499,60197
40874,40450,60115
40837,40407,60039
40802,40371,59971
40768,40337,59911
40737,40309,59860
40710,40288,59816
40687,40267,59776
40667,40244,59736
40647,40223,59696
40630,40203,59657
40610,40182,59617
40585,40156,59572
40557,40126,59521
40526,40095,59466
40493,40060,59406
40457,40021,59335
40419,39979,59261
40378,39938,59191
40334,39896,59124
40289,39853,59050
40242,39808,58973
40197,39764,58897
40151,39718,58821
40105,39671,58745
40061,39629,58674
40025,39593,58613
39995,39559,58557
39966,39527,58507
39940,39499,58467
39919,39476,58437
39906,39457,58417
39902,39444,58405
39904,39441,58400
39907,39446,58404
39912,39457,58416
39923,39470,58433
39937,39483,58455
39949,39496,58477
39954,39505,58495
39955,39508,58510
39953,39509,58520
39949,39507,58523
39940,39499,58515
39928,39488,58502
39918,39477,58490
39907,39463,58475
39895,39446,58454
39885,39428,58427
39875,39410,58396
39864,39391,58359
39850,39368,58314
39831,39341,58264
39807,39308,58211
39776,39270,58153
39740,39230,58092
39701,39193,58030
39661,39158,57965
39617,39125,57894
39570,39088,57819
39524,39051,57745
39482,39016,57677
39444,38980,57612
39409,38946,57551
39377,38917,57496
39348,38891,57445
39321,38864,57394
39298,38835,57346
39280,38809,57302
39263,38784,57258
39241,38757,57212
39216,38732,57167
39196,38713,57128
39177,38697,57094
39155,38676,57061
39131,38652,57029
39109,38630,56994
39087,38608,56956
39065,38584,56917
39047,38561,56881
39032,38541,56846
39018,38522,56812
39001,38501,56777
38983,38482,56749
38966,38466,56727
38950,38449,56703
38932,38427,56673
38910,38404,56639
38886,38386,56606
38860,38371,56574
38834,38354,56538
38808,38333,56503
38785,38314,56471
38766,38298,56439
38750,38278,56402
38736,38260,56363
38723,38244,56328
38708,38225,56294
38689,38199,56259
38667,38173,56225
38645,38154,56190
38622,38137,56152
38598,38117,56109
38578,38096,56067
38561,38074,56030
38543,38051,55999
38525,38026,55969
38512,38005,55943
38507,37995,55933
38516,37999,55946
38540,38024,55992
38583,38078,56077
38648,38159,56204
38739,38264,56372
38854,38392,56580
38988,38542,56825
39139,38708,57104
39304,38891,57410
39484,39089,57739
39676,39297,58081
39871,39501,58426
40060,39693,58763
40242,39870,59083
40412,40032,59379
40563,40176,59643
40689,40301,59869
40795,40405,60056
40879,40487,60204
40940,40543,60313
40980,40574,60384
41005,40586,60422
41015,40586,60434
41009,40571,60420
40985,40543,60385
40949,40506,60334
40908,40464,60269
40861,40414,60187
40810,40357,60095
40755,40297,60000
40701,40241,59910
40651,40189,59822
40603,40137,59734
40556,40090,59651
40514,40050,59580
40477,40014,59520
40443,39981,59470
40416,39954,59432
40394,39931,59401
40372,39909,59371
40346,39884,59336
40324,39861,59302
40307,39840,59270
40289,39816,59231
40265,39787,59184
40235,39757,59134
40199,39724,59078
40158,39686,59008
40114,39640,58925
40068,39593,58834
40022,39544,58742
39975,39493,58649
39928,39441,58561
39884,39393,58480
39840,39347,58404
39796,39305,58337
39758,39272,58281
39729,39247,58239
39706,39225,58204
39685,39205,58176
39669,39192,58158
39659,39184,58151
39654,39177,58149
39654,39172,58151
39657,39172,58158
39659,39178,58172
39661,39187,58188
39661,39194,58199
39660,39198,58210
39664,39203,58220
39671,39208,58227
39676,39210,58232
39681,39214,58236
39683,39218,58240
39679,39214,58235
39667,39201,58217
39654,39185,58194
39642,39168,58169
39626,39145,58139
39606,39120,58106
39586,39098,58072
39566,39075,58036
39548,39049,57995
39526,39023,57949
39503,39002,57903
39479,38983,57857
39451,38961,57805
39415,38929,57742
39372,38886,57671
39326,38840,57599
39276,38790,57524
39229,38738,57445
39191,38692,57372
39159,38653,57304
39129,38614,57238
39097,38578,57174
39067,38544,57118
39037,38512,57070
39006,38481,57025
38978,38451,56980
38954,38424,56936
38931,38402,56893
38908,38381,56850
38887,38362,56807
38867,38346,56765
38846,38332,56722
38825,38315,56680
38805,38294,56643
38786,38273,56607
38767,38248,56568
38750,38221,56528
38732,38195,56491
38713,38170,56459
38692,38143,56429
38670,38113,56400
38651,38086,56373
38635,38066,56348
38621,38050,56322
38607,38036,56298
38595,38025,56278
38588,38019,56261
38581,38013,56242
38572,38006,56222
38562,38001,56206
38553,37999,56194
38543,37993,56179
38531,37979,56157
38517,37965,56130
38502,37951,56100
38487,37936,56068
38472,37919,56035
38461,37904,56002
38450,37892,55973
38436,37877,55946
38417,37857,55916
38395,37834,55882
38370,37806,55844
38343,37776,55801
38316,37749,55758
38292,37726,55720
38267,37705,55683
38243,37684,55648
38223,37666,55614
38206,37650,55586
38192,37638,55564
38177,37628,55550
38167,37625,55550
38172,37631,55569
38192,37651,55609
38231,37693,55677
38294,37765,55783
38381,37866,55932
38492,37993,56122
38625,38143,56355
38785,38317,56633
38968,38513,56952
39166,38724,57303
39372,38940,57668
39582,39160,58040
39791,39381,58411
39991,39589,58767
40175,39777,59095
40339,39946,59386
40481,40094,59636
40599,40213,59841
40693,40302,59999
40762,40363,60113
40811,40401,60188
40840,40417,60225
40849,40414,60227
40840,40399,60202
40816,40372,60157
40778,40332,60095
40729,40282,60017
40672,40228,59930
40611,40171,59840
40546,40110,59747
40482,40046,59655
40423,39985,59566
40368,39927,59480
40317,39874,59396
40275,39829,59322
40243,39793,59260
40220,39762,59207
40201,39736,59161
40184,39716,59124
40166,39698,59094
40145,39675,59064
40120,39646,59026
40093,39615,58982
40068,39586,58935
40040,39557,58881
40009,39526,58818
39976,39491,58750
39941,39450,58673
39900,39401,58584
39852,39343,58486
39803,39286,58388
39755,39236,58295
39708,39192,58209
39663,39152,58130
39625,39116,58059
39589,39084,58001
39553,39051,57951
39519,39019,57905
39490,38994,57869
39468,38976,57845
39450,38960,57828
39438,38948,57820
39434,38947,57824
39439,38952,57839
39450,38962,57859
39463,38972,57885
39476,38983,57918
39489,38994,57950
39502,39002,57974
39513,39010,57992
39526,39021,58009
39540,39033,58025
39553,39042,58038
39562,39048,58045
39565,39050,58046
39561,39044,58037
39549,39033,58017
39532,39018,57990
39511,39005,57958
39489,38990,57922
39466,38975,57881
39447,38962,57840
39431,38946,57800
39413,38925,57761
39390,38898,57714
39363,38869,57661
39332,38839,57601
39293,38804,57534
39247,38764,57459
39202,38723,57384
39159,38681,57312
39116,38639,57241
39074,38597,57173
39036,38557,57110
39002,38519,57051
38971,38481,56993
38945,38445,56937
38920,38414,56887
38894,38387,56842
38867,38360,56797
38841,38334,56752
38813,38311,56708
38788,38289,56665
38765,38266,56626
38744,38244,56592
38725,38227,56563
38708,38214,56537
38693,38202,56512
38680,38187,56489
38668,38172,56466
38656,38156,56444
38643,38139,56419
38628,38121,56395
38612,38103,56374
38593,38085,56351
38572,38065,56321
38552,38045,56284
38536,38025,56250
38521,38008,56221
38504,37991,56194
38484,37971,56165
38466,37951,56134
38448,37932,56100
38428,37911,56062
38407,37886,56021
38387,37862,55979
38367,37839,55937
38342,37814,55893
38317,37790,55850
38296,37771,55812
38273,37755,55780
38246,37734,55748
38221,37708,55714
38204,37685,55681
38192,37670,55658
38182,37660,55648
38181,37661,55659
38196,37682,55697
38231,37726,55768
38288,37792,55877
38371,37884,56030
38484,38008,56231
38621,38160,56476
38776,38331,56756
38947,38518,57066
39134,38720,57398
39331,38931,57741
39533,39144,58087
39731,39354,58431
39918,39555,58764
40091,39738,59075
40248,39902,59355
40387,40044,59599
40502,40161,59803
40594,40251,59961
40664,40314,60075
40713,40356,60151
40740,40381,60191
40746,40386,60200
40737,40376,60180
40715,40355,60141
40684,40324,60087
40646,40283,60018
40602,40235,59939
40557,40187,59859
40514,40139,59781
40471,40088,59701
40430,40038,59623
40393,39992,59553
40359,39950,59489
40326,39912,59431
40295,39880,59380
40266,39854,59336
40242,39832,59299
40219,39812,59265
40198,39793,59235
40178,39774,59209
40157,39754,59182
40132,39729,59149
40109,39701,59114
40089,39676,59078
40069,39651,59035
40045,39622,58982
40017,39589,58921
39988,39554,58854
39957,39517,58778
39918,39473,58692
39874,39426,58602
39827,39380,58512
39778,39335,58423
39730,39291,58337
39685,39251,58259
39643,39216,58188
39605,39185,58123
39571,39159,58069
39541,39138,58027
39516,39119,57996
39498,39100,57975
39488,39088,57964
39485,39085,57964
39482,39086,57967
39479,39086,57973
39482,39088,57984
39491,39095,58002
39503,39107,58021
39513,39116,58037
39523,39124,58054
39536,39134,58072
39548,39141,58086
39554,39143,58096
39557,39144,58101
39559,39145,58103
39559,39143,58098
39554,39136,58082
39543,39127,58061
39526,39118,58036
39503,39106,58006
39476,39089,57967
39451,39070,57927
39427,39047,57883
39403,39020,57830
39374,38988,57772
39345,38957,57714
39313,38925,57655
39276,38889,57592
39235,38848,57523
39195,38807,57455
39159,38765,57390
39126,38723,57327
39096,38682,57269
39065,38648,57216
39030,38617,57166
38992,38583,57111
38954,38549,57055
38920,38519,56999
38889,38491,56941
38859,38464,56884
38832,38437,56831
38810,38412,56788
38793,38392,56752
38779,38374,56719
38768,38361,56690
38760,38351,56662
38749,38342,56637
38736,38329,56615
38724,38317,56598
38715,38306,56587
38706,38296,56575
38695,38285,56559
38686,38274,56538
38677,38264,56517
38666,38253,56493
38651,38240,56465
38633,38223,56433
38611,38207,56400
38584,38190,56367
38555,38173,56331
38527,38156,56294
38501,38139,56260
38477,38120,56227
38456,38097,56192
38442,38075,56157
38432,38055,56126
38423,38033,56097
38409,38007,56064
38390,37977,56028
38368,37947,55991
38343,37919,55953
38320,37894,55922
38305,37878,55905
38302,37877,55910
38312,37895,55942
38342,37935,56009
38400,38003,56115
38486,38100,56262
38596,38225,56458
38734,38373,56705
38896,38543,56996
39073,38731,57319
39264,38936,57668
39466,39154,58032
39675,39381,58403
39885,39607,58771
40088,39821,59124
40277,40020,59454
40450,40199,59754
40602,40350,60017
40731,40473,60239
40841,40575,60422
40931,40657,60569
40997,40715,60675
41043,40750,60743
41071,40769,60780
41082,40774,60791
41077,40765,60778
41058,40740,60744
41028,40705,60693
40987,40662,60632
40938,40613,60563
40885,40559,60488
40834,40506,60413
40785,40459,60338
40738,40414,60263
40693,40370,60193
40654,40333,60133
40621,40302,60079
40591,40276,60030
40566,40255,59987
40547,40244,59954
40535,40239,59929
40528,40233,59909
40527,40228,59893
40528,40224,59882
40526,40217,59871
40521,40204,59855
40513,40188,59835
40504,40173,59815
40491,40157,59789
40472,40136,59753
40446,40108,59706
40416,40074,59648
40378,40035,59580
40333,39989,59499
40284,39940,59408
40236,39893,59315
40185,39848,59220
40130,39803,59122
40080,39758,59022
40036,39716,58932
39996,39674,58850
39957,39629,58775
39920,39583,58708
39889,39544,58653
39863,39513,58607
39838,39489,58570
39815,39470,58544
39798,39460,58528
39785,39454,58516
39772,39448,58506
39762,39443,58500
39754,39442,58497
39744,39439,58493
39735,39433,58487
39728,39430,58485
39726,39427,58486
39726,39419,58486
39727,39409,58481
39729,39400,58474
39729,39393,58465
39726,39388,58451
39718,39381,58431
39710,39375,58409
39701,39365,58385
39687,39349,58352
39668,39329,58312
39647,39307,58268
39623,39285,58220
39595,39260,58169
39566,39230,58115
39536,39199,58059
39501,39166,58001
39460,39128,57937
39416,39086,57869
39374,39043,57801
39333,39000,57734
39293,38957,57664
39253,38914,57593
39215,38876,57522
39178,38840,57451
39143,38804,57381
39110,38771,57317
39080,38741,57259
39050,38713,57206
39021,38683,57156
38993,38653,57108
38969,38628,57062
38945,38606,57018
38918,38578,56972
38889,38548,56928
38861,38524,56888
38835,38502,56851
38809,38477,56812
38786,38450,56773
38766,38425,56738
38748,38400,56704
38730,38375,56668
38714,38354,56633
38698,38339,56603
38679,38326,56576
38660,38314,56550
38642,38301,56525
38625,38287,56504
38608,38274,56481
38591,38261,56453
38575,38250,56427
38558,38242,56401
38538,38231,56374
38519,38218,56347
38502,38203,56322
38485,38187,56296
38465,38167,56266
38443,38145,56231
38425,38124,56195
38409,38102,56160
38393,38077,56124
38377,38056,56089
38360,38036,56055
38336,38014,56020
38307,37987,55983
38280,37961,55949
38257,37938,55916
38236,37913,55880
38213,37884,55838
38194,37858,55801
38178,37835,55773
38165,37818,55751
38160,37811,55742
38170,37823,55761
38201,37861,55817
38256,37925,55913
38337,38017,56052
38449,38141,56242
38591,38295,56484
38756,38471,56770
38941,38669,57093
39144,38885,57447
39361,39112,57821
39582,39340,58200
39800,39566,58575
40009,39787,58944
40204,39996,59296
40380,40181,59618
40538,40342,59904
40676,40481,60150
40792,40596,60355
40884,40688,60521
40954,40755,60649
41002,40801,60740
41030,40826,60796
41039,40830,60819
41033,40815,60813
41013,40791,60787
40983,40760,60743
40944,40719,60683
40902,40674,60613
40860,40632,60536
40819,40593,60459
40777,40552,60387
40739,40510,60320
40709,40474,60262
40686,40441,60211
40663,40410,60167
40642,40385,60130
40623,40366,60100
40606,40352,60077
40589,40341,60058
40577,40333,60043
40568,40329,60033
40557,40325,60021
40543,40317,60003
40530,40306,59980
40514,40295,59953
40491,40281,59921
40465,40261,59879
40439,40234,59827
40410,40200,59768
40377,40161,59706
40338,40118,59638
40295,40072,59563
40250,40026,59479
40205,39974,59389
40159,39916,59299
40116,39863,59210
40073,39812,59122
40027,39759,59031
39979,39708,58942
39933,39661,58859
39888,39618,58779
39843,39576,58700
39803,39537,58631
39771,39506,58574
39747,39481,58530
39732,39463,58498
39726,39454,58476
39727,39453,58464
39729,39455,58463
39728,39453,58466
39725,39452,58474
39725,39455,58485
39723,39460,58492
39716,39460,58492
39704,39455,58487
39691,39449,58479
39679,39438,58466
39668,39424,58450
39657,39411,58437
39648,39402,58427
39641,39392,58414
39632,39378,58394
39622,39360,58364
39610,39340,58327
39593,39317,58284
39570,39288,58235
39545,39255,58183
39518,39220,58130
39484,39182,58072
39444,39139,58006
39400,39094,57933
39356,39050,57857
39312,39009,57784
39271,38967,57711
39231,38927,57637
39191,38891,57564
39150,38852,57490
39110,38810,57415
39071,38771,57346
39032,38737,57286
38995,38703,57227
38959,38668,57168
38926,38631,57110
38894,38592,57058
38862,38550,57009
38829,38510,56960
38798,38474,56913
38767,38443,56866
38737,38415,56817
38711,38391,56769
38691,38374,56729
38675,38360,56693
38661,38346,56657
38646,38333,56622
38630,38320,56589
38611,38304,56556
38588,38283,56522
38564,38262,56492
38541,38246,56463
38519,38227,56428
38497,38202,56386
38476,38174,56345
38453,38148,56307
38428,38123,56272
38402,38098,56239
38382,38078,56212
38368,38065,56191
38359,38055,56173
38347,38042,56156
38336,38029,56140
38326,38017,56124
38314,38002,56103
38298,37982,56074
38279,37960,56042
38260,37940,56007
38240,37918,55968
38219,37893,55929
38201,37869,55894
38188,37848,55864
38174,37832,55834
38158,37820,55802
38138,37810,55772
38115,37802,55744
38089,37792,55714
38064,37778,55679
38040,37763,55646
38017,37747,55618
37997,37725,55590
37980,37701,55559
37966,37679,55530
37952,37659,55499
37933,37636,55465
37910,37612,55426
37884,37588,55388
37855,37564,55350
37824,37538,55310
37796,37511,55267
37771,37487,55224
37750,37469,55182
37731,37452,55141
37715,37435,55104
37706,37425,55076
37708,37422,55065
37720,37429,55076
37745,37453,55115
37790,37501,55189
37858,37575,55303
37947,37673,55460
38058,37798,55664
38193,37954,55917
38349,38131,56212
38521,38324,56538
38711,38530,56892
38918,38748,57267
39134,38970,57651
39349,39190,58033
39556,39401,58402
39752,39600,58753
39930,39780,59076
40088,39936,59362
40227,40071,59609
40347,40187,59817
40445,40282,59983
40518,40354,60108
40566,40405,60197
40594,40435,60252
40603,40445,60275
40595,40434,60270
40576,40411,60241
40547,40378,60194
40511,40338,60135
40471,40295,60067
40432,40252,59996
40392,40208,59919
40347,40159,59840
40301,40109,59762
40257,40064,59692
40216,40027,59632
40177,39994,59575
40144,39967,59522
40115,39949,59478
40091,39935,59439
40069,39923,59405
40052,39912,59376
40041,39902,59351
40031,39888,59326
40021,39869,59299
40013,39852,59275
40007,39835,59250
39994,39813,59216
39975,39787,59176
39951,39759,59131
39925,39728,59079
39892,39692,59020
39853,39654,58955
39808,39614,58884
39760,39572,58807
39709,39524,58724
39657,39473,58634
39608,39424,58544
39561,39380,58458
39515,39338,58376
39472,39297,58299
39438,39260,58231
39408,39225,58168
39378,39190,58106
39349,39156,58049
39320,39124,58000
39292,39095,57959
39268,39067,57926
39248,39042,57902
39233,39024,57887
39224,39013,57878
39218,39003,57871
39214,38998,57868
39211,39000,57873
39210,39007,57882
39209,39017,57890
39211,39026,57896
39212,39035,57902
39210,39039,57906
39206,39036,57901
39200,39027,57888
39193,39011,57870
39185,38988,57846
39171,38963,57814
39153,38945,57774
39134,38930,57730
39111,38912,57685
39086,38887,57640
39062,38858,57595
39038,38831,57551
39012,38805,57507
38981,38779,57458
38952,38754,57404
38926,38727,57345
38898,38695,57280
38864,38656,57213
38825,38612,57147
38787,38569,57086
38749,38525,57024
38708,38483,56959
38668,38445,56895
38626,38411,56836
38582,38375,56777
38540,38336,56720
38503,38302,56668
38473,38274,56622
38448,38247,56577
38426,38218,56530
38404,38192,56482
38383,38168,56434
38361,38143,56384
38339,38117,56336
38318,38095,56295
38299,38078,56258
38282,38063,56223
38268,38049,56192
38257,38038,56166
38246,38029,56145
38233,38015,56123
38219,37998,56098
38205,37981,56072
38190,37964,56046
38170,37944,56020
38149,37926,55992
38130,37907,55963
38111,37887,55932
38090,37863,55896
38068,37838,55856
38051,37816,55819
38033,37798,55783
38014,37778,55749
37997,37762,55717
37986,37753,55691
37976,37744,55669
37964,37730,55647
37950,37713,55621
37938,37697,55596
37925,37681,55571
37909,37662,55542
37891,37640,55509
37871,37617,55476
37849,37595,55442
37825,37570,55407
37802,37547,55371
37779,37529,55340
37758,37515,55309
37740,37500,55280
37723,37484,55253
37705,37466,55229
37687,37449,55207
37668,37430,55185
37650,37412,55165
37633,37394,55145
37615,37375,55122
37599,37355,55097
37586,37337,55072
37572,37319,55045
37559,37301,55016
37549,37287,54988
37540,37276,54961
37530,37266,54934
37516,37252,54904
37500,37236,54873
37480,37219,54844
37455,37199,54812
37426,37175,54775
37401,37152,54736
37381,37135,54705
37363,37120,54682
37350,37107,54665
37347,37102,54661
37354,37108,54676
37373,37127,54712
37412,37166,54778
37478,37236,54886
37572,37337,55041
37685,37463,55238
37819,37613,55474
37974,37782,55750
38147,37966,56061
38328,38160,56398
38517,38361,56751
38713,38571,57119
38913,38785,57493
39109,38994,57858
39297,39191,58200
39474,39372,58514
39634,39536,58793
39768,39675,59031
39877,39785,59227
39959,39869,59381
40016,39927,59492
40053,39960,59561
40071,39972,59593
40072,39968,59591
40057,39948,59561
40030,39911,59508
39999,39863,59439
39961,39809,59361
39912,39749,59274
39857,39685,59183
39800,39622,59093
39746,39564,59011
39698,39510,58936
39653,39460,58866
39613,39419,58802
39579,39387,58747
39547,39362,58698
39516,39336,58652
39486,39309,58610
39459,39287,58572
39432,39268,58535
39404,39247,58495
39379,39224,58451
39357,39204,58408
39337,39186,58367
39317,39162,58322
39298,39135,58275
39280,39106,58229
39256,39076,58180
39225,39044,58119
39189,39011,58051
39153,38977,57977
39114,38940,57898
39074,38894,57815
39035,38845,57734
38998,38797,57656
38959,38749,57583
38919,38698,57511
38880,38649,57442
38843,38608,57382
38809,38573,57333
38778,38539,57288
38750,38509,57247
38724,38486,57212
38701,38469,57182
38683,38459,57160
38669,38457,57146
38659,38459,57135
38654,38458,57124
38654,38455,57116
38659,38456,57118
38668,38463,57127
38679,38471,57137
38693,38480,57145
38704,38487,57150
38711,38489,57152
38714,38486,57148
38713,38482,57137
38708,38474,57120
38695,38461,57096
38674,38442,57064
38647,38420,57026
38617,38397,56985
38583,38368,56942
38543,38329,56893
38504,38284,56840
38467,38241,56790
38431,38196,56738
38395,38153,56680
38358,38115,56618
38319,38078,56556
38278,38041,56494
38240,38004,56428
38206,37969,56359
38177,37938,56295
38152,37909,56238
38130,37875,56187
38110,37845,56133
38092,37819,56077
38072,37790,56018
38048,37756,55959
38022,37721,55905
37996,37689,55857
37965,37655,55811
37932,37623,55761
37902,37595,55713
37873,37573,55669
37845,37551,55627
37819,37527,55588
37795,37503,55551
37771,37479,55515
37745,37453,55477
37721,37428,55437
37699,37404,55402
37677,37380,55369
37655,37354,55333
37637,37326,55293
37621,37302,55254
37602,37284,55219
37581,37268,55185
37565,37254,55153
37553,37242,55126
37541,37229,55102
37528,37211,55077
37511,37190,55047
37492,37172,55019
37473,37155,54996
37450,37135,54971
37429,37113,54942
37413,37094,54916
37394,37077,54892
37371,37060,54869
37351,37043,54847
37335,37030,54828
37320,37018,54808
37305,37003,54782
37292,36988,54753
37280,36975,54726
37267,36961,54696
37251,36944,54664
37238,36927,54633
37226,36913,54605
37213,36898,54577
37201,36881,54546
37190,36863,54515
37177,36846,54486
37162,36830,54459
37146,36811,54433
37129,36795,54408
37111,36781,54385
37090,36763,54359
37069,36741,54332
37051,36720,54305
37032,36699,54276
37009,36675,54245
36986,36650,54213
36964,36627,54181
36944,36602,54144
36926,36578,54106
36912,36556,54073
36898,36537,54044
36881,36521,54012
36859,36502,53976
36836,36483,53941
36816,36466,53909
36798,36447,53879
36781,36425,53851
36766,36406,53829
36760,36395,53816
36761,36390,53811
36768,36395,53818
36784,36414,53846
36818,36455,53908
36872,36519,54009
36951,36604,54151
37056,36713,54340
37186,36850,54575
37334,37010,54848
37495,37188,55144
37666,37379,55460
37844,37578,55790
38027,37779,56127
38208,37974,56463
38385,38162,56792
38556,38342,57109
38715,38508,57404
38858,38656,57668
38981,38781,57894
39082,38882,58077
39156,38953,58214
39207,38995,58307
39238,39018,58364
39251,39028,58390
39247,39023,58386
39231,39006,58357
39209,38982,58309
39179,38951,58246
39142,38913,58170
39100,38871,58089
39057,38829,58010
39012,38785,57933
38967,38736,57853
38923,38685,57772
38878,38639,57691
38834,38596,57611
38788,38550,57531
38743,38504,57453
38701,38460,57381
38662,38420,57317
38627,38380,57259
38596,38343,57206
38568,38311,57162
38541,38282,57118
38512,38252,57066
38481,38221,57007
38447,38190,56943
38409,38153,56871
38369,38109,56789
38325,38063,56704
38279,38014,56618
38230,37962,56527
38179,37907,56436
38130,37854,56349
38087,37807,56270
38050,37763,56198
38017,37724,56130
37991,37694,56071
37969,37670,56023
37948,37648,55984
37927,37630,55956
37913,37619,55941
37904,37614,55935
37901,37613,55937
37905,37618,55948
37916,37629,55967
37928,37645,55989
37940,37660,56009
37953,37674,56031
37966,37689,56057
37975,37700,56080
37978,37704,56095
37977,37705,56106
37976,37704,56115
37973,37700,56116
37970,37693,56108
37968,37686,56096
37964,37678,56082
37956,37668,56065
37944,37654,56041
37931,37638,56011
37918,37621,55977
37898,37597,55937
37873,37568,55894
37848,37537,55853
37822,37507,55814
37791,37474,55770
37756,37439,55717
37721,37408,55659
37686,37385,55602
37653,37366,55548
37624,37345,55494
37599,37323,55442
37576,37301,55392
37554,37277,55344
37533,37252,55299
37514,37229,55256
37494,37207,55212
37471,37184,55165
37448,37162,55122
37428,37141,55084
37408,37121,55048
37384,37097,55011
37357,37072,54977
37334,37048,54949
37312,37026,54923
37289,37005,54892
37268,36987,54856
37249,36971,54819
37228,36953,54781
37207,36934,54746
37192,36918,54716
37181,36906,54690
37171,36895,54663
37160,36884,54635
37149,36873,54613
37140,36865,54598
37130,36856,54584
37118,36844,54566
37107,36830,54548
37098,36819,54530
37088,36809,54508
37075,36798,54482
37059,36785,54457
37041,36773,54433
37023,36763,54410
37005,36751,54385
36991,36738,54359
36983,36727,54339
36977,36719,54324
36971,36710,54312
36966,36701,54303
36960,36693,54295
36953,36680,54281
36942,36661,54260
36930,36643,54234
36919,36629,54207
36908,36614,54180
36894,36594,54149
36879,36572,54120
36863,36551,54093
36846,36528,54064
36824,36504,54031
36800,36481,53998
36777,36463,53968
36754,36449,53941
36734,36439,53917
36721,36435,53897
36709,36431,53879
36697,36427,53857
36686,36422,53836
36679,36416,53821
36674,36407,53811
36672,36399,53808
36681,36400,53821
36703,36417,53859
36742,36453,53929
36800,36512,54035
36878,36599,54181
36978,36713,54368
37099,36850,54595
37241,37008,54856
37398,37182,55145
37568,37370,55459
37744,37563,55787
37926,37757,56123
38113,37952,56462
38299,38144,56794
38477,38325,57106
38639,38491,57389
38783,38640,57642
38907,38770,57863
39010,38879,58045
39089,38968,58186
39148,39037,58287
39187,39083,58352
39203,39105,58382
39200,39105,58385
39185,39092,58370
39161,39067,58337
39129,39028,58285
39093,38981,58218
39052,38931,58143
39010,38880,58066
38968,38831,57987
38929,38787,57908
38894,38747,57833
38862,38710,57760
38829,38670,57688
38797,38631,57622
38770,38599,57564
38748,38571,57513
38726,38544,57465
38702,38519,57419
38677,38494,57375
38648,38469,57333
38618,38442,57288
38588,38414,57241
38560,38388,57193
38533,38363,57146
38499,38333,57095
38460,38297,57034
38421,38261,56968
38383,38224,56894
38343,38182,56812
38302,38140,56726
38264,38100,56643
38225,38062,56563
38186,38022,56485
38151,37979,56417
38121,37942,56361
38094,37910,56313
38068,37881,56272
38045,37860,56239
38028,37847,56218
38015,37840,56204
38007,37835,56196
38003,37832,56193
38002,37831,56196
38006,37832,56204
38013,37832,56216
38025,37837,56231
38038,37849,56248
38048,37864,56263
38054,37879,56276
38060,37894,56287
38067,37907,56295
38071,37915,56298
38073,37921,56300
38072,37923,56300
38069,37921,56298
38061,37912,56289
38049,37898,56274
38034,37880,56252
38017,37861,56222
37995,37839,56186
37972,37814,56146
37949,37791,56107
37924,37766,56067
37896,37740,56022
37869,37712,55971
37844,37685,55919
37819,37656,55866
37793,37624,55810
37768,37593,55755
37745,37561,55701
37718,37527,55645
37686,37488,55586
37652,37448,55526
37619,37412,55467
37589,37378,55409
37564,37349,55355
37541,37327,55310
37520,37309,55273
37499,37291,55237
37475,37271,55200
37449,37252,55166
37421,37232,55134
37389,37206,55098
37356,37178,55059
37330,37155,55024
37311,37138,54992
37294,37121,54961
37275,37103,54929
37258,37085,54900
37247,37068,54874
37239,37052,54849
37231,37036,54828
37223,37023,54810
37213,37010,54790
37199,36996,54767
37183,36984,54744
37171,36980,54725
37160,36979,54708
37149,36977,54690
37140,36974,54669
37135,36971,54649
37130,36965,54631
37121,36954,54610
37114,36944,54589
37105,36933,54570
37090,36918,54548
37068,36897,54521
37046,36875,54494
37027,36855,54473
37011,36837,54454
36993,36823,54432
36979,36814,54409
36965,36808,54390
36948,36797,54369
36927,36777,54341
36909,36755,54312
36895,36736,54284
36882,36719,54256
36868,36698,54227
36851,36674,54194
36833,36652,54160
36815,36630,54127
36799,36608,54093
36783,36587,54062
36766,36572,54037
36747,36561,54015
36728,36550,53994
36714,36542,53981
36710,36543,53983
36720,36555,54004
36750,36583,54050
36800,36636,54130
36874,36716,54253
36972,36821,54419
37095,36954,54632
37241,37115,54888
37409,37295,55181
37591,37487,55501
37780,37688,55840
37977,37897,56196
38175,38105,56558
38369,38308,56914
38558,38507,57255
38737,38694,57578
38897,38863,57873
39037,39014,58134
39156,39146,58358
39256,39252,58545
39335,39333,58694
39394,39388,58802
39437,39423,58877
39465,39448,58924
39479,39459,58943
39479,39454,58936
39470,39437,58909
39453,39415,58875
39430,39388,58834
39401,39356,58784
39371,39325,58727
39343,39294,58670
39313,39261,58614
39281,39226,58559
39249,39191,58505
39219,39158,58454
39190,39126,58405
39162,39096,58359
39139,39072,58316
39121,39053,58279
39104,39039,58246
39087,39025,58216
39071,39011,58194
39056,38996,58178
39041,38981,58164
39025,38969,58149
39010,38957,58132
38995,38945,58114
38978,38932,58095
38962,38921,58070
38947,38910,58038
38930,38896,57997
38907,38874,57942
38879,38843,57874
38849,38805,57798
38818,38763,57717
38784,38719,57634
38748,38675,57552
38713,38637,57478
38677,38604,57409
38641,38572,57341
38606,38540,57278
38573,38509,57223
38541,38479,57175
38508,38451,57133
38481,38426,57098
38461,38405,57068
38447,38386,57040
38432,38368,57014
38416,38352,56992
38405,38344,56979
38399,38341,56975
38394,38342,56977
38392,38344,56979
38394,38351,56984
38398,38358,56990
38404,38361,56994
38410,38362,56994
38413,38360,56991
38411,38357,56984
38406,38352,56972
38402,38346,56958
38398,38341,56944
38389,38335,56926
38374,38321,56899
38361,38301,56867
38348,38282,56831
38331,38259,56788
38312,38235,56737
38293,38209,56684
38270,38182,56629
38240,38152,56570
38206,38116,56507
38170,38079,56442
38135,38040,56377
38099,37999,56313
38063,37959,56253
38026,37926,56199
37989,37896,56146
37952,37869,56095
37917,37843,56046
37888,37819,56001
37863,37793,55959
37842,37765,55917
37829,37741,55882
37821,37726,55854
37812,37712,55827
37797,37695,55797
37782,37680,55766
37765,37669,55734
37746,37654,55701
37726,37632,55665
37706,37609,55631
37685,37589,55600
37661,37566,55568
37636,37544,55532
37614,37527,55497
37596,37515,55463
37581,37501,55429
37567,37485,55394
37553,37469,55361
37541,37458,55331
37527,37448,55302
37511,37438,55274
37496,37428,55249
37481,37415,55228
37466,37398,55204
37452,37379,55179
37442,37363,55160
37433,37348,55142
37422,37333,55120
37411,37320,55099
37402,37309,55078
37395,37297,55059
37387,37287,55038
37376,37277,55017
37365,37268,54997
37352,37256,54977
37339,37241,54957
37327,37227,54941
37315,37214,54925
37303,37200,54908
37291,37183,54889
37279,37165,54867
37267,37149,54843
37252,37133,54815
37233,37115,54783
37211,37097,54750
37189,37083,54721
37167,37069,54691
37143,37052,54656
37118,37032,54618
37095,37013,54583
37075,36996,54551
37056,36977,54516
37040,36959,54479
37030,36945,54450
37024,36936,54431
37023,36933,54428
37031,36942,54446
37057,36970,54494
37101,37019,54579
37166,37091,54706
37257,37190,54879
37375,37320,55099
37518,37476,55365
37681,37649,55667
37861,37839,55993
38054,38044,56339
38251,38259,56696
38450,38478,57058
38651,38694,57419
38849,38904,57774
39039,39100,58108
39212,39277,58411
39366,39433,58681
39497,39563,58911
39606,39667,59098
39696,39750,59245
39764,39813,59355
39808,39854,59428
39831,39874,59467
39837,39877,59478
39830,39867,59468
39811,39849,59440
39784,39825,59395
39754,39796,59341
39722,39764,59283
39687,39725,59224
39646,39681,59164
39607,39640,59104
39572,39605,59047
39540,39569,58992
39510,39534,58940
39485,39509,58897
39461,39490,58861
39439,39470,58828
39416,39450,58794
39397,39432,58764
39386,39418,58739
39378,39403,58719
39371,39386,58702
39365,39371,58687
39362,39358,58671
39356,39343,58649
39345,39324,58616
39329,39302,58574
39306,39277,58526
39274,39249,58469
39236,39216,58404
39194,39180,58334
39150,39143,58260
39105,39102,58178
39062,39056,58092
39020,39010,58008
38977,38966,57927
38935,38923,57849
38896,38883,57776
38864,38847,57709
38835,38814,57648
38807,38781,57592
38786,38752,57545
38770,38729,57510
38754,38708,57483
38740,38692,57462
38729,38681,57448
38721,38673,57439
38715,38669,57434
38711,38666,57428
38709,38664,57423
38707,38665,57422
38703,38668,57425
38699,38670,57429
38697,38670,57436
38698,38671,57444
38699,38672,57448
38700,38669,57444
38701,38663,57434
38698,38656,57422
38691,38648,57408
38680,38637,57391
38666,38627,57371
38650,38617,57346
38630,38600,57315
38608,38577,57277
38587,38552,57234
38570,38528,57189
38552,38502,57139
38527,38472,57081
38499,38441,57019
38467,38411,56957
38428,38378,56894
38387,38337,56827
38350,38295,56759
38318,38257,56696
38288,38217,56632
38256,38173,56567
38222,38131,56506
38187,38095,56450
38153,38065,56394
38121,38039,56340
38092,38018,56291
38063,37997,56246
38034,37972,56199
38005,37944,56149
37976,37917,56104
37945,37889,56063
37915,37860,56023
37885,37833,55985
37858,37808,55952
37835,37785,55921
37814,37762,55888
37795,37740,55854
37778,37721,55821
37762,37702,55785
37745,37682,55746
37728,37663,55705
37713,37646,55668
37699,37629,55636
37683,37611,55606
37664,37592,55577
37644,37571,55550
37623,37547,55525
37602,37524,55500
37583,37504,55477
37567,37489,55456
37553,37477,55434
37540,37464,55409
37528,37451,55386
37518,37438,55368
37508,37425,55349
37497,37407,55327
37486,37391,55302
37476,37379,55279
37465,37369,55253
37453,37356,55223
37440,37343,55194
37430,37333,55171
37420,37321,55148
37411,37305,55122
37401,37290,55097
37388,37275,55074
37371,37259,55048
37354,37245,55022
37339,37236,54996
37326,37226,54973
37312,37213,54950
37296,37196,54926
37278,37179,54903
37262,37161,54879
37247,37139,54850
37232,37114,54818
37214,37090,54785
37193,37068,54753
37170,37045,54720
37147,37023,54687
37127,37004,54654
37110,36989,54622
37094,36972,54589
37079,36954,54555
37067,36939,54526
37056,36927,54503
37045,36913,54478
37034,36899,54452
37027,36889,54429
37019,36882,54408
37008,36875,54388
37000,36872,54376
37000,36883,54383
37016,36910,54415
37052,36952,54476
37109,37015,54578
37191,37105,54730
37298,37225,54929
37429,37370,55172
37579,37538,55455
37745,37725,55771
37923,37922,56111
38113,38124,56466
38310,38329,56831
38511,38537,57197
38709,38743,57558
38899,38943,57905
39079,39131,58232
39243,39300,58529
39387,39447,58787
39510,39571,59004
39612,39674,59178
39689,39755,59309
39742,39810,59399
39775,39842,59454
39792,39858,59481
39795,39861,59483
39783,39850,59460
39763,39827,59418
39736,39794,59364
39699,39751,59300
39655,39701,59226
39612,39650,59147
39573,39601,59070
39536,39554,58998
39498,39510,58932
39462,39472,58873
39429,39439,58823
39399,39410,58779
39371,39385,58738
39347,39365,58699
39328,39351,58667
39311,39336,58637
39296,39320,58609
39285,39308,58586
39276,39298,58571
39266,39285,58557
39254,39270,58543
39240,39254,58526
39223,39234,58501
39198,39208,58465
39164,39178,58417
39127,39147,58358
39091,39115,58289
39052,39074,58209
39007,39026,58122
38964,38976,58034
38924,38928,57948
38885,38883,57868
38848,38841,57793
38813,38808,57724
38780,38782,57664
38748,38759,57609
38719,38738,57561
38696,38723,57524
38679,38710,57493
38665,38696,57466
38654,38684,57444
38647,38677,57430
38642,38669,57419
38635,38659,57408
38632,38653,57403
38636,38650,57407
38640,38647,57416
38640,38642,57421
38638,38638,57426
38639,38637,57432
38637,38637,57436
38634,38635,57437
38630,38632,57438
38625,38629,57435
38618,38623,57423
38608,38614,57402
38599,38602,57377
38590,38590,57352
38580,38575,57322
38567,38559,57287
38549,38540,57248
38528,38517,57204
38502,38492,57155
38477,38464,57103
38452,38435,57050
38427,38408,56999
38398,38382,56950
38366,38353,56899
38334,38324,56846
38303,38295,56795
38270,38265,56741
38237,38234,56683
38208,38204,56626
38184,38178,56574
38159,38153,56524
38134,38126,56477
38106,38098,56432
38076,38069,56383
38046,38040,56333
38019,38010,56283
37993,37981,56236
37969,37951,56187
37942,37918,56135
37914,37887,56083
37887,37862,56039
37863,37841,56000
37842,37817,55960
37821,37793,55920
37800,37769,55884
37779,37746,55851
37759,37723,55818
37742,37698,55788
37729,37675,55766
37716,37650,55746
37704,37623,55721
37692,37595,55694
37679,37573,55666
37664,37556,55634
37646,37540,55597
37627,37524,55561
37611,37512,55527
37596,37502,55494
37583,37490,55464
37569,37479,55439
37557,37470,55421
37543,37461,55403
37525,37445,55381
37509,37428,55357
37497,37414,55334
37484,37400,55306
37468,37387,55277
37452,37376,55252
37438,37366,55232
37423,37352,55212
37408,37335,55190
37394,37319,55170
37382,37305,55151
37368,37288,55129
37351,37271,55108
37340,37258,55088
37331,37246,55065
37320,37230,55040
37309,37215,55014
37300,37202,54985
37290,37188,54956
37276,37173,54927
37258,37159,54899
37236,37145,54874
37208,37127,54847
37179,37109,54817
37157,37095,54788
37138,37088,54761
37121,37081,54734
37105,37070,54703
37091,37055,54672
37082,37041,54644
37075,37028,54617
37066,37015,54589
37054,37001,54563
37040,36986,54541
37023,36970,54520
37006,36951,54497
36990,36931,54474
36976,36913,54454
36963,36896,54434
36950,36878,54410
36939,36861,54385
36928,36845,54357
36915,36831,54325
36902,36817,54293
36895,36806,54270
36894,36804,54263
36901,36813,54273
36922,36835,54306
36960,36877,54372
37021,36944,54481
37106,37038,54633
37217,37159,54830
37353,37305,55073
37510,37474,55358
37682,37663,55677
37864,37867,56019
38055,38082,56379
38254,38300,56748
38451,38512,57116
38637,38712,57473
38814,38901,57812
38981,39077,58125
39131,39232,58402
39262,39364,58639
39373,39474,58839
39462,39560,59001
39528,39621,59123
39574,39664,59204
39603,39691,59252
39614,39698,59270
39610,39686,59263
39597,39663,59235
39575,39635,59188
39546,39601,59128
39512,39561,59062
39477,39524,58995
39441,39490,58926
39402,39453,58856
39359,39414,58786
39318,39374,58719
39280,39337,58654
39243,39297,58589
39208,39258,58525
39178,39223,58466
39155,39194,58413
39133,39166,58363
39109,39139,58317
39086,39113,58278
39066,39088,58246
39046,39062,58216
39028,39039,58185
39014,39020,58156
38999,39003,58127
38979,38983,58094
38956,38959,58053
38933,38932,58003
38906,38900,57942
38873,38863,57874
38836,38823,57802
38794,38779,57726
38749,38732,57646
38702,38682,57564
38655,38635,57483
38612,38592,57409
38571,38558,57342
38533,38530,57280
38503,38509,57224
38482,38492,57178
38466,38476,57146
38452,38460,57123
38444,38448,57106
38444,38444,57096
38447,38446,57095
38449,38448,57097
38452,38451,57102
38459,38457,57111
38466,38463,57124
38469,38467,57135
38472,38470,57146
38478,38474,57160
38485,38477,57172
38492,38476,57174
38498,38473,57170
38501,38470,57165
38497,38463,57156
38487,38448,57141
38474,38431,57121
38462,38414,57098
38449,38394,57073
38431,38366,57041
38407,38334,57003
38381,38302,56962
38353,38271,56920
38321,38239,56871
38289,38210,56815
38258,38185,56756
38228,38160,56693
38200,38135,56629
38171,38109,56568
38141,38082,56507
38108,38052,56446
38072,38023,56385
38035,37994,56326
37998,37964,56268
37963,37932,56208
37932,37901,56147
37903,37870,56088
37875,37839,56032
37847,37804,55981
37819,37768,55933
37794,37736,55890
37772,37708,55852
37753,37682,55815
37738,37660,55780
37725,37640,55745
37709,37620,55710
37691,37599,55670
37671,37578,55634
37650,37562,55607
37628,37547,55586
37605,37532,55565
37585,37517,55546
37570,37500,55527
37556,37481,55504
37538,37458,55479
37519,37437,55454
37503,37421,55432
37492,37407,55407
37481,37389,55375
37470,37372,55343
37460,37358,55315
37444,37344,55288
37423,37329,55260
37404,37316,55233
37388,37304,55208
37370,37286,55180
37348,37264,55148
37325,37242,55116
37302,37221,55087
37278,37195,55059
37254,37167,55035
37233,37142,55016
37212,37119,54997
37193,37097,54972
37180,37077,54943
37172,37062,54915
37166,37048,54888
37160,37034,54859
37156,37024,54833
37150,37017,54810
37141,37007,54786
37129,36993,54759
37119,36976,54732
37109,36960,54709
37098,36947,54690
37085,36933,54671
37068,36920,54649
37049,36908,54627
37030,36893,54603
37013,36879,54580
37001,36869,54559
36993,36861,54538
36982,36850,54511
36967,36835,54482
36947,36819,54452
36928,36802,54423
36910,36779,54395
36889,36752,54363
36871,36726,54333
36857,36705,54306
36844,36687,54280
36829,36671,54251
36813,36656,54223
36797,36642,54196
36778,36624,54164
36759,36604,54129
36740,36587,54092
36723,36571,54054
36706,36550,54014
36686,36526,53973
36666,36504,53936
36649,36484,53904
36636,36464,53877
36628,36451,53864
36629,36452,53873
36643,36470,53907
36675,36508,53973
36733,36575,54078
36820,36673,54229
36933,36799,54426
37069,36948,54668
37225,37119,54955
37400,37310,55280
37590,37510,55626
37787,37713,55981
37986,37920,56337
38182,38126,56689
38368,38322,57027
38541,38504,57341
38699,38674,57629
38841,38831,57888
38966,38968,58114
39070,39080,58301
39152,39168,58450
39213,39234,58566
39254,39278,58647
39280,39303,58695
39295,39313,58715
39299,39307,58707
39287,39282,58672
39261,39245,58619
39224,39201,58558
39180,39154,58493
39132,39101,58422
39082,39046,58344
39034,38992,58265
38988,38940,58188
38939,38888,58111
38890,38839,58035
38847,38798,57963
38809,38764,57897
38772,38731,57835
38739,38700,57779
38712,38674,57726
38690,38652,57675
38672,38631,57627
38657,38611,57584
38644,38592,57547
38633,38576,57513
38617,38560,57477
38597,38543,57438
38572,38518,57391
38539,38485,57333
38501,38446,57266
38465,38406,57197
38430,38367,57128
38396,38327,57058
38362,38285,56986
38329,38244,56915
38298,38205,56848
38268,38167,56783
38238,38127,56722
38211,38094,56669
38190,38070,56629
38172,38053,56598
38152,38037,56572
38134,38025,56553
38122,38018,56543
38116,38015,56542
38115,38014,56547
38119,38016,56559
38127,38023,56576
38133,38030,56596
38140,38032,56614
38149,38033,56630
38160,38038,56648
38171,38047,56669
38180,38054,56688
38186,38063,56702
38186,38074,56711
38184,38081,56714
38180,38086,56708
38179,38088,56694
38177,38087,56672
38172,38081,56641
38159,38068,56604
38141,38050,56564
38118,38026,56518
38092,37999,56467
38066,37972,56413
38041,37947,56360
38012,37922,56305
37979,37894,56249
37944,37864,56194
37910,37833,56141
37875,37798,56090
37838,37760,56037
37802,37722,55985
37766,37686,55937
37731,37648,55891
37696,37608,55843
37665,37568,55794
37640,37535,55748
37619,37505,55702
37598,37474,55656
37577,37443,55612
37556,37413,55573
37534,37384,55536
37511,37357,55498
37488,37334,55458
37466,37314,55420
37446,37290,55384
37427,37266,55352
37410,37247,55327
37397,37233,55307
37380,37220,55284
37360,37208,55258
37341,37199,55231
37323,37193,55204
37303,37184,55173
37282,37171,55138
37261,37155,55105
37241,37138,55075
37222,37117,55045
37205,37095,55016
37193,37075,54989
37182,37059,54965
37169,37043,54938
37156,37026,54911
37147,37012,54888
37142,37001,54870
37136,36989,54850
37133,36980,54827
37132,36973,54805
37127,36963,54784
37120,36952,54766
37114,36944,54748
37106,36939,54730
37097,36933,54712
37084,36922,54689
37070,36910,54663
37058,36900,54642
37047,36888,54625
37034,36874,54608
37019,36858,54592
37007,36843,54578
36997,36831,54566
36985,36818,54549
36972,36802,54527
36959,36789,54506
36942,36778,54483
36921,36763,54453
36902,36745,54421
36886,36729,54389
36870,36711,54357
36853,36686,54322
36836,36660,54286
36817,36637,54252
36793,36613,54217
36768,36585,54180
36747,36558,54142
36727,36534,54107
36707,36512,54070
36689,36495,54033
36676,36482,54000
36667,36477,53976
36663,36478,53964
36666,36486,53970
36682,36508,54005
36716,36550,54074
36774,36615,54182
36857,36703,54332
36966,36818,54528
37101,36957,54767
37256,37119,55039
37428,37301,55337
37609,37496,55654
37792,37698,55979
37973,37900,56305
38151,38095,56630
38321,38277,56949
38478,38446,57251
38622,38599,57527
38752,38738,57775
38865,38864,57991
38961,38975,58173
39037,39066,58317
39097,39133,58425
39142,39181,58500
39171,39208,58544
39185,39217,58559
39188,39212,58549
39182,39200,58525
39168,39178,58489
39148,39144,58440
39123,39100,58381
39092,39052,58319
39054,39003,58255
39010,38955,58186
38965,38911,58116
38924,38874,58051
38884,38842,57991
38844,38807,57931
38806,38772,57869
38773,38738,57811
38743,38704,57757
38716,38671,57705
38693,38643,57658
38677,38623,57616
38665,38607,57576
38654,38593,57539
38640,38577,57502
38620,38556,57461
38591,38530,57413
38557,38498,57356
38519,38465,57295
38479,38430,57228
38437,38392,57156
38399,38354,57082
38362,38319,57011
38324,38286,56943
38282,38252,56878
38241,38220,56817
38204,38190,56762
38171,38159,56714
38143,38130,56670
38122,38108,56632
38109,38093,56605
38101,38079,56582
38096,38067,56565
38096,38061,56556
38101,38061,56558
38108,38064,56566
38115,38069,56574
38122,38077,56583
38130,38085,56595
38134,38088,56607
38134,38089,56615
38136,38091,56624
38139,38092,56635
38139,38091,56644
38137,38086,56647
38135,38080,56648
38131,38073,56647
38122,38062,56640
38110,38046,56627
38099,38030,56610
38087,38014,56588
38074,37998,56559
38063,37983,56524
38051,37968,56489
38035,37950,56450
38013,37927,56404
37987,37900,56352
37961,37870,56298
37936,37837,56243
37910,37803,56187
37883,37772,56131
37857,37744,56078
37824,37714,56020
37786,37676,55957
37751,37635,55892
37721,37595,55830
37694,37560,55770
37666,37528,55713
37637,37499,55661
37610,37474,55614
37583,37452,55568
37554,37429,55524
37527,37408,55485
37508,37391,55449
37495,37377,55413
37484,37362,55378
37472,37349,55348
37459,37341,55325
37444,37335,55304
37425,37325,55281
37403,37311,55256
37381,37297,55230
37361,37281,55204
37340,37263,55179
37318,37246,55156
37300,37231,55135
37285,37215,55114
37270,37198,55091
37259,37185,55070
37252,37174,55054
37246,37161,55039
37239,37147,55022
37229,37134,55002
37215,37121,54980
37200,37104,54956
37185,37083,54931
37172,37062,54908
37159,37042,54885
37144,37023,54858
37127,37004,54828
37110,36988,54798
37092,36972,54765
37075,36953,54731
37061,36934,54700
37048,36919,54678
37036,36908,54661
37025,36898,54646
37013,36890,54631
37000,36882,54617
36985,36868,54602
36967,36850,54584
36948,36832,54562
36932,36818,54541
36919,36804,54521
36906,36789,54498
36894,36775,54473
36882,36765,54448
36871,36755,54426
36858,36741,54399
36844,36724,54367
36835,36708,54335
36825,36692,54305
36810,36672,54273
36794,36651,54239
36779,36631,54208
36765,36611,54177
36749,36595,54149
36739,36586,54128
36737,36587,54122
36740,36600,54136
36749,36622,54173
36776,36660,54239
36830,36724,54344
36911,36820,54494
37020,36945,54689
37155,37096,54926
37313,37266,55202
37486,37452,55512
37671,37650,55843
37867,37856,56189
38067,38064,56542
38262,38267,56894
38448,38464,57237
38627,38651,57561
38793,38827,57859
38941,38985,58123
39068,39122,58354
39176,39241,58554
39267,39345,58725
39341,39428,58862
39399,39492,58967
39440,39540,59043
39467,39571,59089
39479,39585,59108
39480,39584,59108
39474,39573,59097
39461,39555,59075
39439,39532,59040
39414,39501,58992
39389,39468,58938
39364,39434,58882
39337,39396,58826
39310,39362,58774
39284,39335,58729
39256,39311,58689
39228,39282,58650
39202,39254,58611
39180,39228,58577
39159,39204,58544
39138,39179,58510
39120,39157,58476
39105,39143,58449
39091,39134,58425
39079,39125,58399
39069,39116,58373
39062,39106,58351
39053,39093,58331
39041,39078,58309
39028,39062,58284
39011,39045,58254
38989,39024,58220
38965,38997,58176
38937,38966,58121
38903,38933,58060
38863,38894,57990
38821,38855,57914
38778,38816,57836
38737,38777,57762
38702,38735,57692
38672,38691,57625
38648,38651,57563
38624,38616,57509
38599,38583,57456
38574,38555,57410
38550,38533,57377
38528,38518,57353
38506,38505,57332
38485,38496,57311
38470,38490,57298
38462,38490,57293
38459,38495,57295
38463,38505,57303
38473,38518,57316
38484,38530,57333
38493,38537,57353
38501,38543,57371
38509,38552,57387
38517,38560,57398
38522,38565,57401
38524,38569,57396
38523,38572,57388
38517,38572,57373
38508,38566,57352
38497,38558,57326
38482,38547,57295
38462,38531,57257
38436,38507,57214
38409,38481,57173
38384,38456,57132
38358,38431,57085
38330,38406,57033
38303,38383,56981
38276,38358,56928
38244,38324,56872
38211,38285,56813
38179,38249,56760
38148,38217,56709
38116,38182,56655
38087,38146,56601
38062,38111,56548
38038,38080,56494
38014,38050,56440
37991,38024,56391
37968,38001,56346
37942,37979,56301
37912,37952,56253
37882,37926,56209
37856,37906,56169
37832,37889,56130
37811,37871,56095
37798,37856,56069
37791,37844,56051
37787,37833,56034
37778,37818,56015
37768,37803,56000
37760,37791,55990
37750,37781,55976
37737,37766,55956
37726,37751,55933
37717,37739,55909
37705,37726,55883
37690,37712,55853
37675,37699,55823
37660,37687,55798
37643,37674,55774
37621,37656,55747
37600,37637,55723
37580,37618,55704
37560,37597,55683
37539,37572,55658
37520,37547,55631
37505,37527,55606
37490,37508,55581
37470,37490,55554
37450,37472,55527
37434,37457,55500
37420,37442,55472
37408,37426,55443
37396,37409,55416
37383,37393,55392
37371,37375,55368
37361,37357,55342
37349,37339,55318
37332,37319,55293
37310,37295,55267
37289,37273,55240
37271,37254,55216
37255,37237,55194
37241,37218,55169
37227,37200,55141
37216,37189,55114
37205,37182,55089
37193,37172,55063
37181,37163,55037
37170,37157,55013
37158,37152,54988
37145,37143,54957
37130,37129,54923
37113,37112,54891
37096,37093,54865
37080,37078,54844
37072,37070,54830
37076,37073,54832
37093,37089,54857
37124,37122,54910
37177,37178,55005
37255,37264,55148
37356,37379,55336
37479,37520,55566
37624,37684,55838
37790,37871,56147
37973,38069,56483
38165,38273,56832
38360,38479,57190
38556,38689,57552
38750,38895,57910
38938,39091,58256
39115,39276,58583
39279,39449,58882
39425,39600,59144
39552,39729,59367
39656,39834,59553
39736,39915,59700
39793,39969,59806
39831,40003,59875
39855,40024,59914
39866,40031,59926
39866,40025,59915
39859,40007,59888
39845,39982,59850
39824,39953,59803
39796,39919,59747
39766,39880,59687
39734,39842,59630
39702,39807,59576
39670,39774,59522
39640,39744,59469
39614,39715,59422
39591,39688,59383
39565,39659,59346
39539,39635,59312
39513,39617,59282
39490,39603,59255
39469,39594,59231
39455,39586,59214
39446,39579,59203
39441,39572,59193
39438,39567,59183
39437,39563,59174
39436,39562,59163
39434,39558,59145
39428,39551,59123
39421,39540,59099
39407,39522,59069
39382,39494,59025
39348,39457,58967
39309,39418,58901
39270,39377,58829
39231,39331,58752
39190,39282,58670
39147,39233,58588
39102,39186,58509
39057,39136,58432
39011,39086,58358
38970,39041,58293
38933,39000,58232
38900,38961,58173
38871,38927,58120
38845,38898,58076
38823,38874,58039
38807,38855,58006
38797,38840,57977
38792,38830,57957
38791,38825,57947
38791,38821,57943
38795,38819,57945
38805,38822,57954
38816,38826,57963
38823,38829,57968
38826,38833,57972
38828,38838,57979
38827,38842,57983
38824,38840,57981
38818,38837,57977
38809,38833,57972
38796,38823,57960
38780,38809,57937
38762,38794,57907
38744,38779,57874
38724,38763,57838
38702,38741,57794
38677,38714,57746
38652,38686,57696
38624,38656,57642
38593,38623,57582
38561,38589,57518
38529,38556,57457
38496,38524,57395
38463,38488,57330
38428,38445,57261
38392,38402,57192
38355,38358,57123
38317,38313,57053
38277,38268,56983
38235,38223,56917
38194,38177,56852
38155,38130,56789
38121,38089,56731
38091,38057,56678
38062,38028,56629
38034,37999,56585
38010,37972,56547
37988,37948,56509
37967,37928,56470
37947,37912,56432
37932,37898,56401
37920,37888,56373
37904,37876,56346
37887,37863,56317
37873,37852,56290
37858,37840,56266
37839,37821,56240
37822,37801,56214
37808,37789,56190
37794,37782,56166
37781,37773,56141
37769,37761,56113
37757,37747,56086
37744,37731,56059
37727,37712,56032
37710,37691,56005
37693,37672,55980
37675,37652,55957
37657,37633,55935
37642,37618,55915
37628,37605,55897
37614,37591,55879
37601,37574,55858
37590,37560,55838
37581,37549,55823
37571,37539,55808
37561,37528,55790
37554,37517,55773
37546,37507,55756
37535,37496,55738
37523,37487,55721
37514,37481,55706
37505,37476,55691
37491,37468,55673
37474,37456,55653
37460,37443,55636
37451,37431,55622
37441,37419,55609
37429,37405,55596
37415,37389,55582
37400,37371,55563
37381,37351,55537
37362,37333,55508
37344,37319,55483
37324,37304,55457
37303,37286,55425
37284,37267,55387
37267,37250,55348
37252,37237,55309
37238,37224,55268
37229,37211,55229
37223,37203,55197
37216,37199,55174
37211,37196,55159
37213,37199,55161
37225,37217,55188
37250,37251,55243
37294,37303,55330
37363,37382,55457
37460,37491,55635
37584,37629,55862
37732,37791,56130
37904,37974,56434
38095,38177,56773
38296,38393,57134
38499,38611,57505
38704,38827,57879
38907,39042,58253
39105,39250,58613
39293,39443,58952
39470,39619,59266
39636,39781,59549
39782,39925,59795
39902,40048,59998
39997,40151,60160
40069,40231,60284
40118,40282,60367
40147,40309,60414
40160,40318,60435
40156,40313,60433
40140,40295,60410
40114,40269,60369
40082,40234,60315
40047,40193,60250
40006,40146,60179
39962,40098,60107
39919,40052,60039
39879,40008,59975
39842,39967,59917
39811,39933,59865
39783,39908,59822
39760,39892,59787
39741,39878,59757
39729,39864,59728
39722,39854,59703
39715,39847,59684
39707,39842,59669
39698,39841,59654
39694,39843,59642
39693,39846,59634
39693,39847,59626
39694,39846,59615
39698,39847,59602
39700,39843,59581
39692,39828,59549
39673,39804,59503
39646,39775,59449
39612,39741,59388
39572,39696,59320
39528,39646,59245
39482,39599,59169
39435,39554,59097
39390,39509,59027
39349,39469,58961
39315,39435,58903
39286,39404,58850
39260,39377,58800
39238,39354,58754
39216,39335,58717
39194,39319,58688
39177,39309,58668
39169,39305,58659
39167,39303,58658
39168,39302,58656
39170,39301,58651
39174,39299,58646
39178,39299,58643
39181,39301,58642
39181,39302,58644
39179,39301,58649
39174,39295,58652
39168,39283,58650
39161,39268,58643
39154,39250,58633
39146,39232,58621
39139,39214,58601
39131,39197,58578
39122,39184,58556
39110,39171,58532
39092,39154,58496
39074,39138,58453
39058,39124,58410
39044,39106,58364
39027,39081,58314
39006,39053,58262
38983,39025,58211
38952,38998,58160
38915,38967,58103
38874,38933,58038
38834,38899,57973
38796,38862,57909
38759,38823,57846
38723,38784,57784
38689,38747,57724
38656,38711,57661
38623,38672,57597
38591,38638,57536
38561,38609,57478
38536,38581,57424
38513,38552,57374
38491,38525,57329
38469,38500,57287
38444,38474,57247
38417,38446,57208
38390,38422,57170
38363,38401,57131
38333,38378,57088
38303,38354,57047
38277,38333,57011
38255,38312,56977
38235,38291,56941
38220,38273,56908
38212,38258,56880
38207,38242,56855
38201,38220,56828
38194,38197,56803
38185,38177,56779
38170,38155,56752
38150,38129,56720
38129,38108,56691
38109,38091,56668
38089,38074,56647
38071,38055,56623
38055,38038,56600
38036,38026,56579
38015,38014,56559
37992,38000,56537
37973,37986,56515
37955,37971,56489
37934,37953,56456
37914,37933,56418
37900,37914,56384
37888,37897,56351
37873,37878,56319
37858,37859,56287
37844,37844,56259
37835,37832,56235
37827,37818,56213
37816,37805,56191
37806,37794,56171
37796,37783,56151
37786,37767,56127
37772,37748,56098
37755,37729,56067
37736,37709,56034
37713,37685,56001
37690,37658,55965
37665,37631,55930
37638,37604,55894
37611,37576,55855
37589,37551,55815
37571,37531,55778
37555,37512,55742
37538,37490,55702
37519,37465,55663
37502,37441,55625
37481,37419,55589
37456,37399,55553
37429,37379,55522
37404,37361,55498
37383,37347,55480
37370,37339,55475
37374,37346,55498
37403,37378,55560
37459,37440,55663
37544,37529,55808
37659,37650,55999
37802,37801,56236
37968,37977,56514
38150,38171,56823
38346,38378,57155
38549,38595,57507
38753,38815,57869
38955,39034,58233
39152,39248,58591
39342,39452,58935
39518,39640,59258
39675,39806,59548
39815,39954,59805
39935,40084,60027
40031,40188,60209
40104,40264,60349
40156,40317,60451
40191,40348,60517
40209,40358,60548
40212,40350,60553
40203,40329,60536
40182,40298,60497
40152,40257,60436
40112,40210,60361
40070,40163,60281
40029,40116,60195
39985,40065,60105
39941,40013,60018
39900,39966,59942
39862,39925,59879
39827,39886,59824
39795,39853,59775
39767,39828,59732
39742,39804,59692
39718,39782,59652
39697,39762,59618
39678,39744,59592
39659,39725,59568
39640,39704,59540
39625,39684,59510
39613,39667,59483
39602,39653,59456
39586,39638,59422
39562,39620,59379
39533,39597,59331
39501,39569,59276
39463,39534,59212
39422,39494,59140
39378,39449,59060
39330,39399,58978
39282,39349,58899
39237,39301,58823
39197,39258,58751
39159,39217,58681
39125,39178,58618
39101,39149,58567
39086,39131,58530
39077,39120,58503
39071,39116,58485
39071,39116,58475
39074,39118,58473
39076,39116,58476
39075,39112,58483
39076,39112,58495
39079,39114,58513
39080,39113,58530
39082,39113,58548
39088,39118,58569
39094,39121,58586
39100,39120,58593
39108,39117,58595
39117,39114,58595
39122,39111,58593
39121,39106,58586
39116,39098,58577
39110,39088,58567
39100,39076,58550
39084,39058,58526
39067,39036,58494
39052,39015,58456
39030,38993,58407
39002,38968,58348
38972,38939,58287
38942,38908,58225
38912,38876,58161
38881,38843,58096
38848,38812,58030
38816,38785,57969
38786,38759,57911
38755,38727,57853
38724,38694,57795
38692,38664,57739
38657,38633,57682
38622,38598,57625
38589,38559,57569
38557,38521,57516
38525,38487,57463
38495,38453,57408
38470,38423,57355
38449,38400,57312
38428,38380,57277
38408,38360,57246
38391,38341,57216
38373,38327,57186
38360,38314,57159
38353,38296,57134
38346,38277,57114
38336,38261,57096
38323,38246,57077
38306,38232,57056
38290,38219,57034
38277,38207,57010
38262,38196,56982
38249,38187,56954
38239,38178,56929
38231,38167,56904
38224,38153,56878
38218,38137,56853
38211,38122,56833
38202,38107,56817
38190,38092,56802
38179,38079,56789
38170,38073,56777
38156,38068,56761
38138,38058,56741
38120,38047,56719
38105,38038,56701
38087,38024,56682
38064,38000,56655
38042,37970,56624
38019,37941,56593
37994,37915,56563
37965,37889,56528
37938,37867,56490
37915,37849,56450
37894,37830,56410
37872,37807,56366
37853,37783,56323
37838,37760,56283
37824,37736,56244
37808,37710,56205
37789,37688,56169
37771,37668,56137
37754,37645,56105
37733,37624,56072
37711,37606,56041
37688,37588,56012
37669,37571,55985
37658,37556,55962
37657,37552,55955
37669,37563,55973
37695,37591,56020
37743,37645,56106
37816,37726,56238
37911,37833,56415
38029,37966,56634
38169,38124,56893
38331,38302,57189
38510,38493,57508
38697,38690,57839
38889,38893,58181
39082,39099,58530
39271,39298,58873
39450,39484,59196
39619,39658,59493
39773,39819,59763
39906,39957,59998
40015,40065,60189
40101,40146,60335
40166,40206,60443
40210,40244,60513
40233,40259,60545
40239,40256,60548
40231,40237,60530
40214,40206,60495
40188,40169,60447
40157,40133,60388
40124,40096,60320
40084,40054,60243
40039,40007,60162
39992,39963,60086
39944,39923,60016
39895,39883,59949
39849,39841,59883
39809,39801,59822
39772,39762,59767
39737,39726,59717
39706,39694,59670
39685,39672,59628
39673,39658,59594
39659,39644,59563
39643,39625,59528
39624,39604,59491
39603,39579,59451
39582,39550,59406
39560,39520,59355
39535,39493,59298
39504,39464,59234
39465,39431,59160
39419,39394,59080
39372,39356,59000
39324,39314,58920
39275,39266,58836
39226,39217,58755
39179,39171,58681
39137,39128,58614
39100,39089,58556
39073,39056,58509
39055,39031,58474
39043,39012,58445
39033,38996,58424
39026,38985,58410
39023,38978,58401
39025,38976,58397
39030,38976,58403
39037,38980,58419
39049,38989,58442
39065,38999,58467
39081,39010,58492
39101,39028,58515
39121,39052,58540
39133,39074,58563
39135,39091,58581
39134,39104,58598
39133,39113,58613
39129,39113,58617
39122,39100,58606
39114,39081,58584
39103,39061,58555
39088,39037,58518
39070,39008,58474
39047,38978,58428
39021,38951,58383
38993,38923,58333
38963,38893,58280
38930,38864,58225
38898,38835,58169
38867,38802,58109
38838,38768,58049
38812,38737,57991
38785,38710,57933
38753,38681,57869
38717,38649,57802
38683,38618,57738
38648,38586,57678
38615,38552,57620
38584,38516,57565
38553,38483,57516
38525,38452,57473
38496,38422,57431
38468,38398,57392
38440,38380,57357
38414,38364,57324
38390,38347,57286
38370,38330,57246
38355,38316,57210
38344,38302,57178
38333,38287,57148
38322,38273,57121
38312,38264,57100
38301,38257,57083
38288,38247,57065
38274,38235,57047
38262,38223,57032
38250,38210,57015
38238,38196,56994
38227,38180,56972
38219,38168,56955
38214,38160,56940
38208,38155,56922
38201,38153,56903
38195,38153,56886
38187,38149,56867
38176,38137,56844
38162,38120,56820
38147,38101,56796
38130,38077,56770
38111,38048,56739
38092,38020,56704
38075,37993,56666
38055,37966,56624
38034,37938,56579
38013,37917,56538
37994,37900,56500
37974,37884,56466
37955,37866,56435
37938,37851,56409
37922,37838,56386
37907,37828,56363
37898,37825,56347
37896,37832,56342
37901,37846,56352
37915,37866,56381
37944,37903,56441
37996,37965,56543
38073,38053,56685
38174,38167,56868
38300,38310,57098
38452,38481,57373
38625,38672,57685
38813,38875,58024
39015,39087,58382
39226,39305,58755
39439,39524,59133
39649,39738,59503
39850,39945,59858
40035,40138,60186
40197,40308,60477
40335,40450,60726
40450,40569,60936
40545,40664,61107
40618,40733,61238
40671,40783,61332
40708,40818,61395
40729,40839,61429
40737,40844,61436
40733,40835,61419
40722,40815,61385
40703,40787,61339
40675,40750,61281
40639,40704,61218
40602,40656,61152
40566,40611,61084
40531,40573,61016
40500,40542,60955
40471,40516,60899
40440,40493,60840
40406,40468,60781
40374,40444,60729
40348,40427,60688
40327,40414,60659
40309,40397,60634
40293,40380,60612
40281,40370,60596
40273,40363,60583
40267,40356,60567
40262,40346,60546
40256,40333,60524
40245,40316,60498
40227,40293,60463
40201,40265,60419
40167,40231,60368
40124,40188,60307
40074,40136,60232
40021,40080,60147
39972,40026,60058
39925,39974,59969
39879,39924,59882
39836,39877,59803
39799,39837,59732
39766,39803,59666
39735,39774,59605
39709,39752,59556
39690,39735,59519
39672,39723,59488
39652,39711,59461
39634,39700,59438
39620,39690,59421
39609,39679,59409
39603,39669,59403
39598,39665,59403
39595,39664,59407
39591,39666,59411
39591,39668,59416
39595,39669,59419
39596,39669,59421
39595,39669,59420
39595,39670,59422
39596,39667,59425
39593,39659,59425
39589,39649,59416
39583,39639,59398
39574,39627,59375
39562,39615,59346
39549,39598,59310
39534,39580,59268
39519,39559,59224
39500,39531,59173
39475,39500,59118
39445,39469,59059
39414,39443,59001
39379,39417,58942
39340,39386,58882
39301,39353,58821
39262,39318,58759
39221,39280,58692
39175,39236,58621
39128,39192,58549
39081,39147,58477
39037,39099,58403
38994,39047,58329
38956,38998,58260
38925,38957,58199
38901,38921,58143
38877,38886,58087
38854,38858,58037
38833,38835,57997
38812,38815,57962
38789,38792,57927
38766,38769,57891
38744,38749,57854
38719,38730,57816
38696,38713,57777
38678,38697,57742
38662,38680,57713
38645,38660,57687
38628,38640,57659
38615,38622,57630
38604,38606,57602
38592,38592,57575
38580,38582,57548
38567,38576,57523
38554,38570,57500
38544,38560,57475
38536,38549,57448
38531,38538,57421
38522,38522,57394
38506,38501,57365
38489,38480,57337
38474,38464,57311
38455,38448,57284
38432,38427,57254
38409,38407,57226
38389,38389,57201
38368,38366,57173
38344,38337,57144
38320,38306,57115
38297,38277,57088
38272,38250,57058
38245,38222,57022
38220,38197,56982
38200,38179,56941
38182,38163,56899
38162,38143,56857
38144,38120,56817
38127,38098,56779
38110,38077,56740
38091,38056,56698
38072,38037,56659
38055,38022,56630
38040,38011,56612
38030,38010,56604
38033,38025,56619
38058,38061,56668
38105,38119,56757
38176,38198,56885
38275,38307,57059
38400,38446,57277
38548,38610,57538
38718,38792,57840
38907,38991,58181
39109,39203,58552
39321,39426,58944
39537,39654,59343
39756,39880,59737
39971,40097,60117
40172,40298,60470
40359,40482,60791
40529,40647,61081
40674,40786,61333
40794,40897,61540
40891,40988,61707
40968,41062,61838
41024,41118,61932
41059,41153,61991
41076,41172,62021
41079,41178,62025
41069,41172,62006
41048,41154,61969
41021,41131,61920
40990,41107,61864
40952,41081,61800
40910,41052,61733
40873,41024,61669
40842,40996,61613
40811,40965,61562
40783,40931,61514
40760,40900,61472
40743,40876,61438
40728,40852,61406
40712,40827,61376
40700,40805,61351
40694,40790,61333
40691,40779,61319
40688,40769,61306
40683,40760,61292
40673,40751,61275
40662,40742,61252
40646,40732,61224
40627,40722,61194
40605,40712,61164
40580,40697,61130
40552,40674,61089
40519,40642,61037
40477,40599,60972
40429,40548,60892
40380,40491,60801
40330,40431,60703
40278,40369,60600
40227,40304,60495
40178,40241,60394
40136,40188,60301
40099,40143,60217
40064,40103,60139
40031,40071,60075
40002,40044,60025
39973,40016,59982
39942,39987,59941
39913,39963,59907
39888,39945,59881
39867,39930,59862
39851,39919,59849
39841,39913,59843
39836,39912,59844
39835,39912,59845
39838,39913,59845
39846,39916,59849
39857,39922,59858
39867,39929,59865
39871,39931,59870
39874,39932,59874
39878,39935,59873
39875,39934,59864
39866,39927,59849
39856,39918,59833
39845,39909,59816
39832,39899,59789
39817,39886,59748
39800,39873,59703
39780,39857,59657
39757,39835,59606
39732,39805,59552
39706,39770,59497
39676,39732,59440
39641,39691,59377
39602,39648,59311
39563,39611,59249
39526,39578,59190
39488,39545,59128
39451,39509,59062
39414,39468,58995
39374,39421,58926
39330,39371,58855
39284,39321,58780
39237,39275,58710
39195,39234,58644
39157,39196,58578
39124,39161,58511
39098,39129,58449
39071,39101,58391
39044,39075,58336
39018,39055,58286
38996,39038,58243
38972,39018,58203
38944,38991,58165
38914,38960,58129
38885,38932,58095
38856,38909,58060
38826,38886,58021
38799,38863,57981
38776,38840,57943
38751,38816,57906
38725,38788,57864
38704,38760,57821
38686,38733,57782
38669,38708,57748
38654,38685,57718
38642,38666,57692
38630,38648,57667
38614,38627,57640
38596,38605,57613
38579,38584,57588
38560,38563,57562
38537,38540,57533
