green_channel,red_channel,ir_channel
38314,14539,32264
38340,14566,32291
38357,14585,32302
38366,14592,32294
38366,14589,32273
38362,14579,32247
38357,14564,32222
38346,14543,32195
38325,14518,32161
38299,14492,32125
38272,14470,32092
38248,14457,32061
38226,14446,32025
38203,14432,31983
38177,14416,31941
38150,14400,31903
38124,14385,31869
38096,14370,31839
38069,14356,31807
38044,14344,31772
38022,14333,31734
38001,14322,31696
37978,14310,31658
37950,14292,31615
37921,14269,31570
37893,14241,31525
37863,14209,31483
37833,14178,31443
37805,14152,31405
37778,14129,31371
37754,14111,31341
37734,14099,31316
37715,14092,31297
37698,14086,31282
37687,14084,31271
37683,14089,31264
37684,14100,31260
37684,14112,31260
37687,14129,31264
37694,14148,31269
37699,14161,31271
37700,14164,31266
37702,14163,31256
37711,14167,31253
37727,14173,31261
37746,14179,31274
37762,14183,31289
37778,14186,31307
37793,14190,31325
37804,14192,31340
37811,14193,31352
37810,14196,31360
37806,14198,31364
37803,14197,31365
37800,14192,31360
37796,14187,31351
37791,14177,31341
37782,14163,31327
37773,14150,31312
37765,14139,31297
37752,14125,31279
37736,14112,31259
37721,14106,31236
37708,14108,31214
37695,14110,31194
37681,14108,31171
37664,14098,31142
37645,14085,31114
37624,14069,31091
37600,14050,31067
37572,14030,31037
37542,14008,31003
37511,13989,30968
37486,13976,30936
37466,13967,30905
37446,13960,30876
37426,13954,30850
37406,13947,30820
37389,13943,30789
37376,13940,30764
37359,13934,30739
37338,13922,30709
37316,13906,30678
37299,13887,30650
37285,13868,30625
37270,13852,30603
37252,13839,30582
37230,13825,30561
37205,13810,30540
37181,13794,30518
37161,13779,30496
37141,13763,30474
37119,13746,30450
37096,13734,30424
37077,13727,30399
37062,13725,30379
37049,13724,30363
37039,13721,30350
37027,13714,30335
37010,13702,30320
36993,13690,30306
36976,13679,30290
36960,13669,30270
36945,13661,30249
36932,13658,30228
36922,13657,30211
36913,13656,30198
36906,13656,30190
36901,13655,30184
36896,13653,30175
36890,13649,30167
36880,13642,30158
36864,13635,30146
36852,13633,30133
36845,13637,30124
36844,13642,30122
36850,13650,30131
36872,13664,30157
36907,13687,30202
36947,13716,30261
36994,13753,30332
37056,13803,30416
37131,13858,30513
37212,13913,30620
37291,13965,30734
37369,14018,30852
37445,14069,30973
37520,14119,31093
37592,14167,31203
37658,14216,31300
37720,14261,31387
37775,14302,31465
37821,14338,31530
37862,14369,31584
37899,14395,31630
37934,14414,31669
37964,14429,31698
37984,14439,31715
37995,14441,31724
37997,14438,31724
37992,14432,31714
37981,14426,31695
37964,14416,31668
37938,14403,31633
37913,14388,31592
37890,14372,31552
37861,14354,31515
37824,14334,31478
37787,14313,31438
37756,14292,31399
37732,14272,31368
37716,14256,31344
37705,14243,31321
37690,14228,31294
37671,14213,31265
37657,14203,31236
37651,14199,31212
37646,14194,31192
37633,14183,31172
37613,14170,31148
37589,14158,31117
37566,14147,31084
37544,14136,31051
37521,14123,31014
37500,14111,30975
37482,14099,30939
37469,14085,30908
37459,14073,30883
37448,14063,30863
37435,14054,30847
37422,14046,30834
37414,14045,30824
37412,14052,30816
37414,14060,30813
37418,14068,30816
37423,14078,30823
37429,14089,30832
37438,14097,30843
37450,14102,30857
37466,14107,30875
37482,14113,30894
37495,14117,30913
37502,14120,30929
37509,14125,30941
37519,14132,30955
37527,14141,30969
37527,14148,30978
37518,14153,30979
37507,14156,30981
37499,14158,30984
37492,14155,30982
37483,14148,30966
37469,14136,30943
37452,14123,30920
37435,14111,30897
37424,14099,30875
37419,14088,30857
37416,14075,30841
37414,14060,30824
37412,14048,30807
37409,14037,30791
37402,14024,30777
37386,14006,30756
37364,13987,30732
37340,13971,30712
37314,13958,30690
37286,13946,30664
37259,13937,30635
37236,13931,30606
37217,13928,30578
37199,13927,30555
37188,13927,30537
37182,13924,30521
37176,13914,30502
37171,13905,30484
37167,13899,30468
37161,13892,30452
37149,13885,30437
37138,13883,30423
37128,13885,30409
37116,13885,30391
37101,13881,30366
37087,13875,30340
37076,13869,30318
37066,13861,30300
37056,13852,30281
37050,13846,30262
37048,13842,30242
37043,13838,30220
37033,13831,30199
37021,13823,30182
37013,13813,30171
37001,13795,30161
36985,13772,30150
36968,13753,30136
36951,13739,30121
36939,13728,30107
36936,13725,30097
36942,13729,30092
36950,13735,30091
36952,13735,30088
36950,13730,30077
36947,13724,30066
36945,13718,30057
36940,13713,30047
36933,13709,30032
36929,13709,30013
36925,13708,29995
36916,13706,29982
36906,13708,29972
36904,13720,29966
36911,13737,29965
36924,13753,29972
36946,13773,29986
36983,13800,30013
37030,13833,30058
37084,13870,30124
37146,13914,30206
37216,13964,30300
37294,14017,30408
37377,14072,30530
37463,14131,30659
37551,14195,30792
37645,14261,30925
37741,14329,31056
37835,14393,31183
37925,14454,31304
38006,14509,31414
38076,14557,31506
38139,14601,31583
38195,14639,31647
38243,14670,31702
38283,14696,31749
38317,14721,31787
38348,14744,31818
38372,14759,31840
38387,14764,31850
38396,14761,31850
38398,14753,31843
38391,14742,31833
38380,14730,31819
38371,14722,31807
38360,14717,31794
38346,14710,31776
38330,14700,31751
38311,14687,31719
38288,14671,31685
38261,14651,31650
38234,14631,31614
38211,14613,31580
38190,14598,31549
38170,14585,31524
38151,14572,31504
38139,14564,31490
38132,14562,31482
38126,14558,31473
38117,14548,31456
38104,14534,31432
38091,14521,31409
38078,14510,31386
38065,14501,31357
38055,14495,31324
38045,14492,31293
38036,14493,31266
38027,14498,31241
38018,14503,31217
38007,14506,31199
37996,14508,31188
37987,14509,31183
37983,14513,31185
37981,14518,31192
37983,14524,31204
37991,14530,31219
38001,14532,31234
38010,14531,31247
38017,14527,31254
38025,14523,31255
38033,14519,31256
38036,14514,31258
38035,14508,31259
38036,14506,31260
38045,14511,31266
38059,14521,31275
38075,14530,31280
38091,14538,31279
38107,14546,31278
38122,14549,31278
38134,14546,31278
38144,14541,31278
38152,14536,31284
38155,14531,31292
38149,14525,31292
38141,14521,31284
38133,14518,31273
38119,14515,31258
38103,14512,31240
38086,14511,31218
38064,14506,31189
38035,14495,31152
38007,14480,31113
37983,14464,31078
37962,14446,31046
37940,14427,31012
37916,14409,30977
37894,14393,30947
37873,14378,30922
37854,14363,30902
37836,14348,30882
37821,14334,30866
37808,14318,30852
37793,14299,30835
37774,14277,30809
37751,14254,30780
37728,14235,30755
37706,14220,30733
37685,14208,30709
37666,14196,30683
37645,14185,30657
37627,14180,30631
37610,14181,30605
37592,14182,30580
37575,14181,30560
37559,14180,30543
37542,14177,30524
37528,14169,30504
37517,14157,30484
37507,14144,30462
37495,14132,30438
37481,14119,30413
37465,14100,30389
37449,14078,30364
37435,14059,30344
37424,14045,30330
37411,14032,30318
37397,14022,30305
37383,14014,30288
37370,14007,30267
37358,13998,30244
37347,13989,30220
37339,13984,30198
37333,13983,30179
37325,13984,30162
37317,13985,30146
37311,13986,30133
37299,13986,30122
37280,13979,30105
37259,13970,30081
37242,13964,30059
37230,13958,30044
37220,13953,30035
37215,13949,30033
37216,13948,30042
37224,13954,30064
37240,13969,30103
37272,13998,30161
37320,14038,30236
37379,14082,30324
37445,14131,30424
37521,14185,30534
37603,14244,30650
37689,14305,30772
37778,14370,30903
37871,14438,31040
37966,14505,31179
38056,14571,31315
38141,14633,31443
38221,14693,31558
38293,14747,31661
38356,14792,31751
38410,14827,31826
38456,14854,31882
38491,14871,31922
38516,14883,31951
38531,14890,31969
38541,14893,31979
38549,14892,31985
38554,14889,31985
38555,14886,31975
38554,14887,31959
38549,14892,31943
38538,14897,31928
38522,14900,31909
38505,14898,31885
38488,14891,31860
38472,14879,31835
38459,14867,31808
38451,14857,31781
38444,14844,31754
38432,14828,31728
38415,14811,31704
38397,14796,31682
38381,14783,31665
38368,14774,31653
38358,14767,31643
38349,14762,31633
38341,14755,31622
38331,14746,31610
38320,14738,31592
38306,14728,31570
38287,14716,31546
38266,14704,31521
38244,14694,31494
38226,14684,31465
38213,14672,31438
38201,14658,31412
38193,14646,31385
38191,14636,31366
38189,14628,31355
38183,14620,31344
38173,14611,31330
38161,14603,31321
38151,14595,31318
38143,14589,31318
38139,14588,31321
38137,14589,31327
38138,14592,31336
38141,14597,31346
38149,14606,31360
38160,14616,31377
38170,14627,31396
38180,14640,31417
38189,14653,31436
38196,14666,31450
38202,14676,31459
38206,14683,31461
38209,14690,31458
38210,14696,31455
38207,14698,31454
38200,14694,31452
38194,14689,31450
38189,14682,31448
38183,14676,31444
38176,14669,31437
38171,14662,31426
38164,14648,31409
38154,14629,31382
38137,14606,31348
38117,14582,31315
38096,14558,31284
38073,14538,31254
38055,14523,31222
38038,14511,31190
38021,14499,31162
38005,14485,31139
37993,14472,31116
37980,14458,31091
37964,14442,31065
37946,14425,31034
37929,14406,31000
37910,14386,30971
37884,14365,30946
37857,14350,30921
37831,14342,30897
37808,14338,30878
37783,14332,30861
37753,14325,30841
37720,14318,30814
37690,14307,30783
37662,14291,30749
37640,14274,30718
37623,14259,30695
37607,14244,30676
37590,14225,30656
37573,14207,30632
37559,14193,30606
37544,14182,30585
37526,14176,30566
37512,14173,30548
37502,14171,30534
37495,14168,30527
37489,14166,30524
37480,14165,30516
37472,14166,30506
37463,14168,30494
37449,14167,30474
37432,14166,30449
37414,14168,30424
37393,14166,30400
37369,14157,30372
37343,14143,30342
37320,14125,30315
37298,14106,30295
37278,14092,30283
37263,14081,30275
37251,14071,30269
37242,14061,30261
37235,14055,30251
37233,14054,30242
37235,14057,30238
37236,14058,30237
37243,14061,30240
37259,14071,30252
37281,14087,30278
37306,14108,30317
37335,14133,30367
37369,14164,30426
37409,14198,30494
37452,14233,30571
37495,14273,30657
37542,14320,30751
37603,14374,30855
37675,14430,30968
37754,14490,31085
37839,14555,31205
37926,14620,31327
38011,14684,31445
38094,14747,31558
38174,14808,31663
38243,14857,31756
38299,14895,31836
38344,14926,31903
38383,14948,31957
38415,14962,32003
38443,14971,32043
38467,14980,32074
38486,14989,32093
38494,14994,32099
38493,14995,32096
38483,14994,32086
38464,14988,32069
38440,14973,32047
38415,14953,32021
38394,14936,31993
38378,14923,31963
38358,14910,31930
38336,14900,31899
38319,14896,31877
38308,14891,31861
38299,14880,31850
38288,14865,31836
38280,14849,31819
38273,14834,31799
38264,14821,31776
38253,14810,31750
38244,14805,31726
38239,14802,31708
38230,14796,31691
38216,14789,31673
38201,14783,31653
38188,14775,31636
38174,14764,31623
38160,14751,31606
38146,14736,31583
38129,14722,31562
38112,14713,31547
38097,14712,31534
38084,14714,31519
38072,14715,31505
38063,14712,31492
38060,14711,31481
38067,14717,31479
38077,14723,31484
38083,14727,31492
38090,14729,31501
38101,14732,31517
38110,14732,31538
38111,14726,31554
38108,14719,31564
38106,14713,31574
38105,14707,31585
38106,14704,31596
38113,14707,31607
38123,14712,31620
38130,14714,31632
38136,14716,31642
38144,14720,31649
38151,14723,31652
38154,14725,31650
38150,14723,31643
38140,14717,31631
38126,14710,31619
38111,14707,31608
38096,14706,31596
38084,14705,31582
38072,14703,31566
38058,14698,31548
38039,14691,31522
38016,14680,31489
37990,14664,31450
37964,14645,31412
37942,14625,31376
37920,14602,31343
37895,14575,31314
37868,14552,31292
37841,14535,31271
37815,14521,31249
37790,14510,31225
37772,14505,31202
37761,14504,31182
37752,14507,31165
37742,14509,31150
37729,14507,31133
37710,14500,31111
37687,14492,31086
37662,14485,31064
37636,14475,31042
37611,14466,31020
37590,14459,31000
37575,14452,30981
37565,14442,30962
37559,14432,30943
37552,14422,30924
37539,14408,30903
37521,14392,30880
37504,14372,30854
37488,14353,30831
37474,14336,30813
37463,14325,30801
37450,14317,30788
37439,14313,30778
37427,14313,30771
37414,14314,30761
37399,14315,30745
37381,14316,30729
37364,14318,30716
37348,14319,30705
37333,14318,30693
37318,14314,30679
37303,14304,30661
37289,14292,30641
37281,14282,30622
37277,14272,30606
37277,14264,30595
37281,14262,30590
37287,14264,30587
37289,14266,30586
37292,14270,30589
37299,14277,30591
37306,14283,30591
37310,14288,30594
37313,14292,30605
37321,14302,30626
37338,14319,30660
37366,14339,30706
37400,14359,30760
37436,14381,30821
37481,14406,30894
37536,14438,30981
37597,14480,31080
37661,14530,31184
37727,14586,31294
37799,14646,31408
37874,14704,31520
37949,14760,31626
38021,14813,31728
38090,14864,31828
38155,14910,31924
38216,14952,32008
38274,14989,32081
38326,15019,32143
38374,15045,32193
38414,15064,32228
38444,15076,32252
38465,15084,32266
38479,15090,32271
38486,15093,32266
38486,15092,32256
38482,15089,32244
38475,15086,32227
38468,15081,32202
38458,15074,32169
38441,15065,32133
38419,15058,32096
38396,15052,32058
38371,15042,32025
38346,15030,31996
38323,15019,31968
38305,15012,31945
38284,15005,31925
38258,14994,31900
38228,14981,31869
38200,14970,31837
38173,14955,31803
38144,14935,31765
38115,14916,31726
38089,14898,31689
38063,14881,31654
38039,14864,31618
38016,14850,31581
37998,14840,31547
37982,14827,31516
37964,14809,31489
37950,14792,31467
37944,14781,31452
37941,14772,31444
37945,14767,31443
37955,14769,31449
37969,14776,31461
37984,14785,31476
37999,14794,31490
38012,14802,31500
38021,14811,31513
38030,14826,31535
38043,14847,31561
38058,14867,31585
38071,14881,31610
38080,14888,31635
38088,14893,31656
38097,14901,31675
38104,14909,31694
38104,14916,31710
38100,14918,31719
38096,14918,31723
38092,14914,31723
38088,14910,31722
38086,14906,31721
38087,14906,31725
38089,14907,31729
38090,14905,31726
38086,14898,31714
38081,14891,31699
38072,14886,31684
38057,14878,31665
38034,14866,31639
38011,14851,31611
37990,14837,31588
37974,14827,31567
37964,14822,31548
37952,14819,31527
37935,14814,31503
37916,14807,31475
37899,14800,31442
37885,14794,31405
37873,14786,31368
37862,14774,31333
37855,14759,31302
37847,14741,31276
37836,14716,31250
37817,14687,31225
37792,14659,31199
37768,14636,31175
37745,14617,31156
37728,14604,31137
37717,14600,31118
37707,14598,31103
37692,14595,31091
37677,14591,31078
37665,14586,31063
37654,14579,31046
37640,14572,31028
37624,14567,31006
37607,14562,30981
37591,14557,30957
37575,14549,30932
37559,14538,30901
37544,14527,30871
37532,14518,30843
37520,14510,30815
37508,14501,30789
37502,14496,30769
37498,14495,30757
37496,14499,30753
37499,14506,30754
37502,14514,30755
37499,14516,30752
37486,14511,30743
37469,14499,30728
37448,14483,30709
37424,14466,30693
37403,14450,30681
37390,14440,30670
37383,14436,30660
37380,14435,30652
37379,14434,30645
37383,14434,30636
37392,14434,30628
37404,14431,30623
37416,14426,30624
37431,14426,30632
37455,14435,30654
37489,14454,30691
37533,14479,30741
37587,14511,30804
37649,14551,30882
37717,14596,30977
37793,14646,31085
37879,14702,31203
37972,14763,31331
38066,14828,31464
38157,14894,31596
38244,14959,31726
38327,15021,31855
38408,15079,31977
38482,15132,32089
38548,15182,32189
38608,15229,32281
38663,15271,32363
38714,15313,32434
38759,15354,32497
38793,15390,32553
38814,15417,32602
38824,15434,32637
38832,15444,32659
38840,15450,32673
38848,15453,32682
38855,15457,32686
38864,15461,32686
38871,15464,32685
38871,15461,32680
38864,15454,32667
38855,15448,32652
38849,15438,32637
38843,15426,32618
38838,15414,32597
38834,15405,32577
38827,15393,32556
38816,15380,32533
38806,15371,32514
38798,15365,32503
38791,15358,32499
38784,15351,32491
38773,15342,32477
38753,15328,32457
38727,15309,32435
38698,15290,32409
38668,15276,32379
38639,15264,32352
38611,15247,32326
38586,15229,32297
38567,15214,32270
38554,15203,32249
38543,15195,32233
38528,15188,32214
38514,15183,32195
38503,15179,32179
38498,15177,32168
38498,15178,32163
38502,15177,32162
38503,15171,32164
38505,15167,32172
38512,15170,32186
38525,15178,32206
38542,15188,32228
38558,15198,32249
38571,15208,32268
38583,15221,32288
38593,15232,32309
38594,15238,32322
38592,15240,32329
38592,15241,32335
38597,15244,32341
38605,15248,32344
38611,15251,32343
38613,15251,32338
38608,15249,32330
38597,15246,32318
38584,15244,32301
38573,15244,32286
38561,15239,32272
38548,15230,32255
38539,15217,32236
38526,15201,32215
38506,15183,32192
38484,15170,32167
38465,15161,32140
38445,15153,32112
38420,15141,32080
38389,15124,32047
38362,15107,32017
38341,15091,31991
38322,15072,31970
38308,15055,31950
38300,15045,31931
38292,15039,31912
38282,15030,31891
38267,15019,31866
38251,15007,31839
38230,14991,31808
38203,14972,31774
38176,14953,31738
38156,14938,31701
38138,14925,31668
38117,14913,31637
38097,14904,31609
38083,14900,31590
38072,14894,31577
38060,14885,31562
38049,14874,31548
38037,14862,31533
38020,14845,31516
38001,14828,31497
37988,14816,31478
37982,14811,31460
37977,14805,31443
37965,14796,31422
37950,14785,31398
37937,14776,31375
37925,14767,31353
37912,14759,31332
37899,14755,31315
37885,14752,31301
37867,14748,31289
37846,14742,31274
37824,14734,31258
37804,14726,31242
37787,14717,31231
37773,14711,31222
37762,14706,31212
37750,14700,31201
37733,14691,31188
37712,14680,31167
37690,14671,31143
37668,14663,31121
37645,14654,31100
37623,14646,31078
37604,14645,31058
37590,14647,31047
37581,14651,31046
37576,14659,31051
37575,14666,31059
37578,14672,31073
37588,14680,31096
37609,14694,31130
37642,14713,31176
37687,14736,31239
37740,14762,31319
37805,14795,31412
37881,14839,31518
37965,14892,31638
38055,14951,31767
38152,15017,31903
38250,15084,32040
38342,15150,32172
38426,15215,32296
38504,15276,32408
38580,15334,32513
38652,15387,32610
38719,15435,32699
38782,15478,32778
38838,15521,32851
38886,15560,32919
38926,15597,32976
38957,15628,33022
38978,15650,33055
38987,15663,33075
38987,15668,33083
38982,15669,33080
38975,15666,33071
38961,15658,33052
38941,15644,33024
38918,15626,32989
38896,15603,32952
38875,15580,32915
38855,15560,32880
38840,15546,32851
38828,15536,32832
38812,15525,32817
38790,15512,32797
38769,15495,32774
38751,15477,32749
38734,15459,32724
38723,15448,32705
38719,15444,32693
38716,15442,32684
38708,15436,32674
38693,15425,32657
38672,15411,32634
38650,15395,32609
38628,15380,32587
38608,15369,32567
38589,15359,32549
38574,15347,32533
38563,15336,32520
38558,15324,32509
38555,15313,32504
38552,15301,32498
38547,15287,32485
38542,15274,32467
38538,15266,32449
38531,15258,32433
38517,15251,32415
38503,15249,32396
38493,15255,32387
38483,15263,32387
38476,15268,32391
38478,15273,32401
38485,15278,32412
38492,15282,32422
38496,15284,32429
38495,15284,32433
38492,15282,32438
38492,15279,32446
38491,15274,32453
38491,15272,32458
38490,15270,32461
38487,15264,32458
38485,15257,32447
38482,15252,32434
38478,15250,32421
38473,15251,32408
38466,15255,32393
38457,15263,32378
38442,15265,32365
38419,15260,32352
38399,15253,32340
38382,15245,32327
38369,15235,32313
38357,15225,32294
38343,15212,32267
38327,15197,32239
38314,15179,32212
38302,15161,32184
38291,15146,32154
38280,15131,32125
38264,15113,32097
38247,15096,32068
38232,15083,32040
38219,15076,32016
38208,15072,31996
38194,15070,31975
38180,15071,31956
38163,15072,31941
38141,15068,31925
38113,15059,31903
38086,15043,31873
38062,15022,31841
38041,15001,31812
38025,14983,31784
38012,14968,31753
37997,14952,31721
37979,14936,31690
37961,14917,31655
37947,14900,31622
37941,14885,31596
37935,14873,31577
37927,14867,31561
37917,14864,31546
37904,14859,31531
37890,14851,31512
37877,14844,31490
37866,14838,31465
37856,14828,31439
37844,14814,31415
37836,14803,31397
37835,14796,31385
37835,14789,31377
37831,14783,31370
37819,14773,31357
37804,14761,31338
37785,14751,31321
37762,14743,31304
37733,14737,31285
37707,14735,31263
37687,14732,31242
37671,14730,31222
37658,14728,31204
37647,14728,31188
37637,14727,31175
37621,14722,31157
37601,14713,31132
37582,14704,31106
37569,14694,31087
37562,14685,31074
37562,14678,31066
37569,14676,31069
37581,14677,31087
37598,14682,31116
37622,14694,31158
37657,14714,31215
37697,14739,31285
37741,14769,31364
37790,14807,31450
37843,14852,31542
37900,14902,31639
37966,14956,31744
38043,15019,31857
38126,15085,31978
38214,15149,32101
38304,15212,32226
38391,15273,32350
38471,15329,32469
38546,15380,32579
38617,15429,32679
38685,15478,32769
38746,15522,32848
38795,15557,32911
38834,15584,32961
38867,15604,32999
38892,15616,33026
38909,15618,33041
38920,15612,33046
38922,15603,33041
38913,15589,33027
38897,15569,33007
38877,15548,32983
38854,15527,32953
38828,15509,32922
38801,15494,32894
38777,15482,32866
38755,15470,32837
38734,15457,32809
38716,15444,32784
38701,15433,32761
38687,15421,32734
38671,15408,32703
38657,15399,32672
38641,15393,32640
38624,15389,32610
38604,15383,32578
38584,15375,32543
38566,15367,32511
38549,15354,32481
38532,15339,32457
38513,15325,32437
38492,15313,32419
38470,15303,32401
38446,15296,32379
38424,15289,32353
38409,15284,32327
38399,15278,32305
38394,15270,32287
38395,15265,32279
38402,15266,32281
38411,15272,32293
38420,15277,32307
38428,15281,32317
38436,15287,32326
38444,15295,32337
38451,15300,32348
38455,15304,32356
38461,15309,32367
38471,15316,32385
38484,15323,32408
38500,15331,32430
38516,15340,32454
38532,15348,32482
38546,15354,32505
38559,15359,32518
38568,15362,32524
38572,15362,32527
38571,15359,32523
38565,15354,32515
38557,15354,32504
38548,15358,32492
38537,15362,32474
38529,15369,32455
38522,15372,32435
38511,15366,32407
38495,15350,32372
38478,15329,32333
38460,15308,32296
38442,15287,32259
38424,15265,32221
38410,15243,32184
38398,15221,32154
38385,15201,32131
38370,15182,32112
38353,15164,32090
38330,15148,32065
38303,15133,32037
38275,15120,32006
38252,15106,31972
38232,15093,31943
38209,15080,31917
38186,15069,31893
38166,15063,31869
38150,15060,31846
38137,15059,31826
38128,15059,31806
38120,15057,31785
38109,15051,31763
38093,15040,31739
38075,15028,31713
38056,15016,31687
38035,15004,31664
38013,14990,31641
37996,14978,31617
37988,14969,31598
37982,14961,31585
37975,14953,31573
37969,14947,31559
37962,14943,31544
37951,14940,31530
37939,14936,31513
37928,14928,31489
37920,14918,31465
37911,14907,31446
37900,14892,31425
37889,14877,31403
37880,14866,31390
37875,14862,31386
37873,14861,31384
37869,14864,31381
37858,14864,31373
37843,14860,31357
37827,14855,31336
37814,14848,31315
37800,14837,31293
37786,14825,31268
37779,14814,31242
37778,14801,31217
37777,14786,31197
37774,14770,31185
37771,14758,31177
37773,14758,31175
37784,14771,31184
37802,14792,31206
37827,14816,31241
37862,14845,31292
37905,14880,31360
37954,14921,31442
38008,14965,31533
38069,15013,31632
38139,15066,31745
38216,15125,31866
38295,15189,31989
38378,15258,32114
38465,15327,32241
38555,15391,32369
38649,15453,32493
38735,15510,32612
38810,15561,32725
38877,15612,32830
38937,15661,32923
38987,15700,32999
39025,15727,33058
39057,15745,33107
39082,15758,33145
39098,15762,33169
39101,15760,33180
39097,15756,33182
39090,15752,33175
39082,15747,33161
39073,15742,33143
39063,15732,33119
39052,15720,33090
39042,15705,33061
39028,15688,33033
39011,15673,33005
38992,15658,32975
38973,15644,32945
38960,15633,32921
38951,15626,32899
38944,15617,32876
38938,15606,32855
38931,15595,32838
38920,15583,32822
38903,15572,32805
38880,15559,32783
38853,15543,32755
38825,15527,32718
38798,15511,32676
38773,15497,32636
38750,15482,32595
38729,15466,32555
38713,15451,32524
38697,15436,32499
38678,15422,32474
38658,15413,32447
38643,15409,32423
38632,15406,32406
38624,15400,32392
38618,15392,32377
38620,15382,32369
38626,15373,32373
38637,15370,32387
38653,15377,32408
38672,15394,32434
38689,15413,32462
38706,15436,32488
38725,15464,32512
38744,15490,32537
38760,15508,32558
38772,15519,32571
38784,15528,32581
38794,15535,32591
38797,15537,32601
38793,15535,32606
38788,15535,32610
38783,15539,32616
38772,15541,32620
38757,15542,32617
38743,15538,32605
38729,15527,32586
38715,15508,32565
38701,15488,32544
38689,15474,32527
38680,15461,32513
38671,15447,32499
38657,15431,32476
38642,15417,32447
38630,15403,32419
38621,15387,32394
38608,15373,32365
38592,15360,32335
38575,15348,32307
38552,15336,32277
38524,15325,32243
38499,15317,32209
38478,15310,32179
38457,15302,32150
38439,15292,32121
38421,15277,32094
38402,15259,32070
38382,15242,32046
38361,15232,32017
38342,15224,31987
38324,15216,31956
38311,15207,31926
38301,15198,31898
38290,15187,31873
38279,15174,31855
38266,15160,31841
38252,15147,31823
38237,15134,31801
38220,15121,31779
38205,15109,31755
38197,15100,31731
38196,15092,31712
38200,15083,31699
38202,15073,31682
38197,15063,31658
38189,15054,31633
38181,15046,31610
38173,15040,31588
38165,15038,31566
38158,15041,31550
38147,15044,31537
38132,15043,31520
38119,15039,31504
38107,15031,31489
38093,15022,31477
38082,15016,31466
38073,15015,31457
38060,15012,31448
38045,15007,31433
38032,15000,31414
38024,14995,31393
38020,14990,31373
38019,14985,31354
38017,14976,31336
38008,14963,31317
37995,14948,31299
37980,14937,31282
37966,14929,31264
37953,14923,31251
37943,14917,31244
37944,14916,31246
37964,14924,31259
37994,14941,31288
38028,14971,31335
38063,15011,31400
38105,15059,31482
38155,15110,31580
38214,15162,31694
38286,15217,31820
38369,15276,31957
38463,15336,32101
38567,15398,32253
38676,15463,32407
38782,15533,32558
38881,15603,32705
38976,15674,32845
39071,15746,32979
39161,15818,33103
39241,15881,33214
39308,15932,33309
39367,15976,33390
39420,16012,33458
39463,16036,33513
39495,16048,33553
39521,16055,33581
39543,16059,33602
39559,16056,33618
39566,16050,33629
39566,16042,33627
39560,16035,33616
39547,16026,33601
39533,16019,33584
39522,16017,33569
39516,16015,33554
39510,16013,33540
39502,16009,33527
39489,16003,33512
39474,15996,33493
39459,15988,33473
39446,15979,33455
39433,15974,33438
39418,15970,33421
39406,15966,33404
39397,15959,33387
39391,15949,33369
39384,15934,33353
39375,15918,33340
39368,15905,33327
39364,15897,33311
39358,15890,33292
39346,15880,33271
39333,15874,33249
39322,15870,33225
39311,15866,33196
39299,15858,33168
39291,15851,33144
39285,15843,33124
39278,15832,33105
39265,15815,33088
39252,15799,33072
39242,15790,33062
39235,15787,33059
39232,15792,33058
39236,15802,33055
39245,15816,33055
39257,15831,33068
39270,15841,33088
39285,15848,33109
39302,15856,33134
39319,15865,33163
39331,15873,33190
39337,15882,33212
39342,15891,33232
39346,15898,33249
39345,15901,33260
39344,15908,33270
39345,15918,33277
39344,15921,33275
39341,15915,33262
39341,15906,33244
39343,15901,33228
39342,15898,33214
39338,15893,33200
39335,15888,33183
39332,15882,33165
39322,15871,33149
39310,15859,33134
39298,15849,33121
39285,15839,33107
39268,15826,33091
39248,15812,33069
39226,15795,33037
39202,15776,32999
39179,15759,32963
39156,15745,32927
39132,15731,32890
39108,15717,32848
39081,15700,32799
39052,15681,32748
39026,15664,32702
39003,15647,32663
38976,15631,32625
38944,15612,32586
38914,15592,32547
38892,15574,32514
38880,15558,32487
38874,15545,32464
38870,15537,32444
38862,15529,32428
38849,15519,32413
38829,15505,32391
38802,15490,32364
38773,15478,32337
38747,15472,32311
38728,15471,32287
38711,15473,32266
38693,15473,32245
38676,15469,32222
38659,15464,32197
38643,15457,32172
38627,15446,32150
38608,15429,32124
38590,15410,32095
38577,15391,32070
38562,15369,32045
38546,15344,32019
38528,15318,31995
38512,15292,31976
38499,15272,31963
38487,15258,31953
38475,15248,31942
38459,15239,31927
38437,15228,31906
38410,15215,31880
38386,15207,31855
38368,15203,31836
38352,15202,31820
38335,15199,31801
38317,15193,31778
38300,15183,31754
38286,15170,31731
38277,15157,31708
38274,15149,31691
38272,15143,31683
38273,15142,31684
38281,15152,31695
38299,15172,31717
38325,15197,31753
38360,15226,31803
38408,15263,31867
38466,15304,31946
38530,15347,32039
38599,15393,32148
38675,15449,32275
38761,15512,32417
38855,15578,32570
38955,15645,32730
39057,15713,32887
39156,15780,33039
39246,15843,33185
39329,15905,33322
39406,15967,33448
39478,16026,33560
39544,16081,33658
39602,16131,33741
39654,16176,33811
39698,16216,33872
39734,16247,33923
39765,16270,33964
39790,16286,33992
39810,16290,34007
39818,16282,34008
39819,16267,34000
39814,16254,33988
39804,16240,33976
39787,16223,33961
39764,16203,33941
39740,16183,33919
39716,16164,33897
39690,16143,33873
39665,16127,33845
39642,16118,33816
39619,16107,33785
39589,16094,33751
39560,16081,33715
39535,16071,33680
39515,16058,33646
39496,16043,33611
39479,16029,33574
39462,16018,33539
39445,16007,33509
39427,15996,33484
39412,15987,33461
39403,15981,33442
39397,15973,33427
39393,15963,33412
39388,15952,33393
39378,15938,33371
39366,15924,33351
39357,15912,33333
39351,15904,33316
39341,15898,33299
39329,15889,33283
39318,15880,33268
39310,15876,33255
39304,15877,33247
39300,15878,33248
39297,15882,33257
39299,15891,33271
39303,15903,33288
39302,15912,33302
39300,15920,33311
39299,15930,33318
39303,15941,33330
39308,15951,33345
39313,15957,33358
39318,15960,33371
39322,15961,33385
39325,15961,33399
39325,15960,33405
39320,15958,33402
39312,15956,33393
39305,15952,33382
39302,15947,33367
39305,15944,33356
39308,15939,33348
39306,15927,33334
39299,15909,33315
39294,15893,33294
39285,15876,33274
39271,15861,33252
39257,15850,33227
39241,15841,33202
39220,15832,33175
39194,15823,33145
39171,15814,33111
39150,15805,33076
39129,15794,33045
39106,15775,33015
39081,15754,32981
39058,15735,32948
39037,15720,32920
39018,15710,32895
38998,15706,32871
38977,15703,32849
38955,15695,32824
38933,15683,32797
38913,15673,32770
38896,15665,32742
38879,15656,32713
38862,15645,32683
38846,15635,32649
38826,15619,32614
38802,15597,32577
38778,15573,32541
38762,15554,32510
38747,15541,32483
38727,15526,32458
38704,15513,32432
38683,15503,32407
38662,15493,32385
38642,15482,32366
38627,15472,32350
38617,15462,32337
38607,15450,32328
38595,15435,32319
38586,15423,32305
38580,15416,32288
38574,15413,32274
38567,15409,32259
38556,15403,32238
38544,15399,32216
38532,15401,32200
38516,15401,32185
38498,15396,32165
38480,15387,32144
38465,15378,32129
38451,15367,32114
38435,15353,32095
38420,15337,32074
38406,15321,32049
38393,15308,32021
38384,15301,31995
38380,15299,31976
38376,15299,31967
38371,15302,31965
38373,15309,31971
38388,15321,31992
38415,15336,32029
38449,15353,32076
38486,15374,32131
38528,15401,32196
38578,15434,32273
38640,15473,32358
38713,15518,32453
38797,15571,32560
38886,15633,32680
38974,15699,32800
39058,15766,32918
39144,15835,33042
39228,15904,33173
39307,15971,33302
39383,16034,33425
39457,16093,33544
39528,16147,33657
39591,16194,33757
39647,16235,33844
39695,16266,33920
39732,16285,33980
39760,16293,34019
39784,16296,34043
39805,16300,34057
39820,16304,34062
39830,16306,34061
39833,16307,34056
39828,16305,34045
39817,16296,34026
39798,16281,33996
39772,16259,33955
39740,16234,33914
39707,16210,33872
39675,16187,33826
39645,16169,33776
39616,16153,33733
39588,16137,33692
39555,16121,33648
39517,16104,33603
39476,16086,33564
39434,16065,33524
39394,16043,33483
39362,16022,33444
39333,15996,33406
39306,15968,33364
39282,15942,33320
39260,15917,33276
39239,15894,33233
39221,15876,33194
39207,15861,33154
39196,15847,33118
39188,15832,33090
39182,15819,33066
39181,15811,33049
39183,15807,33042
39187,15808,33042
39194,15815,33049
39203,15824,33059
39209,15829,33070
39211,15831,33079
39212,15836,33086
39212,15842,33095
39211,15850,33110
39211,15857,33128
39216,15864,33147
39225,15873,33166
39234,15882,33187
39248,15893,33209
39266,15909,33231
39283,15925,33252
39294,15932,33269
39300,15931,33278
39305,15925,33280
39308,15920,33278
39308,15915,33275
39308,15913,33267
39307,15910,33252
39300,15904,33230
39285,15895,33202
39264,15883,33172
39243,15877,33143
39229,15876,33121
39220,15876,33103
39212,15871,33085
39202,15863,33066
39188,15853,33050
39169,15839,33035
39145,15821,33014
39122,15803,32986
39098,15785,32955
39075,15766,32923
39052,15747,32890
39029,15731,32858
39008,15719,32828
38987,15706,32800
38966,15692,32770
38946,15681,32739
38929,15674,32707
38914,15668,32675
38900,15662,32643
38885,15655,32609
38866,15644,32574
38843,15630,32540
38818,15616,32505
38795,15603,32472
38774,15590,32442
38754,15582,32417
38738,15578,32395
38727,15577,32377
38717,15577,32366
38706,15578,32357
38693,15576,32346
38680,15571,32336
38670,15561,32325
38662,15550,32311
38656,15542,32294
38650,15535,32272
38643,15528,32250
38629,15517,32224
38613,15503,32197
38601,15489,32176
38588,15474,32158
38570,15458,32137
38554,15445,32117
38540,15433,32099
38523,15419,32080
38506,15406,32058
38492,15396,32036
38480,15386,32017
38468,15376,31999
38456,15369,31979
38444,15364,31961
38432,15362,31946
38417,15359,31931
38402,15355,31909
38393,15353,31889
38386,15352,31876
38380,15351,31869
38379,15354,31871
38388,15363,31885
38404,15375,31914
38428,15390,31954
38463,15411,32005
38513,15445,32072
38574,15491,32159
38643,15545,32264
38725,15608,32385
38821,15681,32525
38923,15757,32679
39022,15829,32837
39119,15901,32997
39219,15977,33161
39317,16051,33325
39416,16119,33485
39515,16181,33636
39612,16237,33774
39703,16286,33903
39786,16332,34022
39859,16376,34128
39920,16415,34221
39964,16446,34298
39997,16473,34358
40022,16498,34399
40036,16519,34421
40035,16530,34428
40025,16534,34425
40015,16534,34414
40005,16527,34398
39992,16512,34379
39974,16490,34357
39956,16469,34333
39939,16454,34312
39922,16443,34289
39903,16430,34259
39883,16412,34225
39859,16390,34190
39832,16368,34155
39806,16349,34122
39787,16338,34095
39773,16334,34075
39763,16334,34057
39756,16335,34034
39749,16334,34004
39739,16328,33970
39724,16319,33936
39709,16311,33904
39696,16303,33874
39682,16293,33847
39667,16281,33824
39651,16270,33800
39635,16261,33777
39622,16252,33758
39612,16244,33738
39603,16236,33716
39594,16228,33700
39590,16222,33694
39591,16219,33692
39596,16218,33691
39601,16216,33693
39601,16212,33695
39597,16206,33693
39595,16204,33693
39592,16203,33697
39585,16199,33704
39574,16194,33706
39566,16192,33707
39564,16196,33715
39566,16206,33729
39575,16218,33745
39593,16235,33763
39615,16254,33783
39635,16271,33803
39654,16285,33818
39671,16298,33828
39684,16306,33832
39692,16312,33833
39696,16321,33833
39699,16332,33834
39693,16337,33834
39678,16331,33828
39658,16318,33813
39637,16305,33793
39616,16291,33774
39594,16273,33754
39574,16255,33731
39556,16237,33706
39537,16217,33680
39518,16196,33657
39498,16179,33631
39479,16165,33601
39459,16150,33572
39437,16132,33539
39413,16111,33499
39390,16092,33459
39369,16072,33424
39348,16051,33391
39325,16030,33356
39305,16010,33322
39289,15995,33293
39274,15984,33267
39261,15978,33240
39247,15973,33213
39231,15967,33186
39213,15961,33157
39194,15956,33124
39174,15944,33086
39152,15924,33048
39131,15903,33009
39111,15883,32971
39094,15868,32942
39082,15855,32924
39071,15841,32910
39056,15826,32893
39037,15812,32874
39016,15800,32856
38999,15794,32838
38987,15793,32821
38975,15791,32801
38960,15788,32779
38949,15787,32758
38944,15788,32739
38940,15786,32722
38931,15779,32703
38920,15770,32683
38913,15763,32668
38909,15759,32656
38898,15752,32642
38882,15742,32624
38866,15735,32601
38848,15730,32576
38826,15724,32545
38806,15715,32510
38794,15706,32477
38787,15697,32449
38782,15687,32425
38779,15678,32407
38774,15669,32394
38766,15659,32385
38753,15646,32375
38735,15634,32363
38719,15623,32355
38705,15615,32354
38696,15611,32360
38697,15613,32373
38711,15624,32395
38741,15645,32433
38790,15678,32488
38852,15721,32561
38927,15773,32656
39014,15834,32774
39111,15902,32910
39215,15974,33059
39320,16047,33220
39419,16120,33389
39514,16194,33560
39610,16267,33731
39704,16337,33898
39796,16404,34060
39887,16471,34215
39974,16535,34357
40050,16590,34482
40112,16636,34588
40167,16678,34680
40218,16720,34762
40261,16757,34834
40291,16789,34892
40311,16815,34933
40326,16836,34957
40338,16848,34969
40343,16851,34969
40342,16847,34955
40337,16839,34935
40327,16828,34912
40308,16812,34886
40282,16789,34849
40255,16765,34806
40229,16737,34761
40203,16708,34717
40179,16683,34675
40157,16662,34636
40136,16645,34605
40121,16636,34582
40113,16638,34565
40108,16645,34552
40102,16647,34537
40101,16645,34522
40104,16642,34506
40106,16636,34487
40101,16623,34464
40091,16604,34434
40080,16585,34399
40067,16564,34364
40048,16542,34329
40026,16520,34293
40005,16503,34258
39983,16488,34229
39957,16470,34202
39931,16452,34176
39911,16438,34154
39896,16427,34143
39878,16415,34136
39859,16405,34129
39842,16401,34124
39831,16402,34124
39827,16405,34125
39828,16407,34123
39831,16407,34121
39836,16406,34123
39843,16406,34125
39851,16406,34123
39858,16407,34125
39863,16408,34136
39868,16408,34154
39872,16410,34171
39877,16414,34186
39877,16418,34196
39873,16425,34201
39868,16434,34201
39860,16441,34199
39851,16446,34194
39843,16448,34185
39837,16444,34169
39830,16435,34144
39821,16420,34115
39809,16400,34085
39792,16380,34058
39770,16362,34034
39744,16346,34013
39720,16333,33990
39697,16319,33960
39673,16304,33923
39646,16286,33880
39618,16267,33833
39595,16250,33787
39576,16234,33745
39554,16218,33707
39530,16202,33669
39505,16187,33633
39481,16171,33599
39458,16151,33564
39439,16130,33530
39420,16108,33498
39401,16084,33468
39378,16058,33438
39359,16035,33406
39347,16017,33372
39335,16001,33336
39316,15982,33298
39289,15959,33259
39257,15937,33225
39222,15919,33197
39185,15904,33171
39150,15890,33141
39118,15880,33109
39093,15875,33082
39072,15874,33059
39055,15875,33037
39042,15878,33018
39030,15877,32997
39012,15867,32968
38992,15853,32931
38973,15838,32897
38959,15823,32867
38949,15811,32841
38943,15799,32817
38935,15785,32794
38922,15768,32773
38904,15747,32747
38883,15728,32717
38863,15713,32692
38842,15700,32672
38817,15688,32653
38794,15684,32639
38775,15683,32630
38758,15678,32615
38740,15668,32590
38728,15658,32560
38722,15651,32538
38720,15648,32522
38716,15645,32508
38705,15637,32489
38688,15623,32468
38669,15606,32447
38650,15590,32426
38638,15579,32411
38634,15573,32406
38635,15569,32408
38640,15566,32414
38653,15570,32430
38675,15581,32462
38706,15602,32508
38749,15634,32572
38804,15680,32656
38871,15739,32760
38949,15808,32881
39035,15883,33017
39129,15962,33164
39227,16040,33317
39329,16116,33473
39435,16189,33632
39543,16260,33797
39648,16329,33964
39744,16394,34124
39831,16454,34273
39913,16514,34411
39985,16570,34537
40050,16618,34647
40110,16660,34741
40162,16694,34821
40203,16721,34887
40233,16743,34937
40254,16758,34971
40268,16766,34993
40273,16769,35002
40269,16770,34998
40258,16769,34980
40241,16766,34952
40220,16757,34917
40199,16743,34877
40179,16727,34834
40158,16709,34792
40137,16685,34753
40118,16660,34718
40104,16639,34689
40092,16623,34664
40079,16611,34642
40063,16600,34618
40040,16588,34588
40009,16571,34555
39978,16557,34524
39953,16549,34493
39936,16545,34458
39921,16537,34422
39904,16525,34386
39887,16512,34348
39869,16498,34309
39851,16480,34273
39835,16459,34239
39822,16438,34207
39811,16422,34180
39798,16405,34157
39783,16389,34135
39769,16381,34114
39756,16379,34092
39743,16376,34072
39732,16372,34055
39724,16368,34045
39716,16365,34039
39712,16362,34043
39714,16365,34056
39723,16373,34077
39734,16386,34104
39744,16401,34135
39758,16420,34166
39776,16440,34194
39790,16453,34219
39799,16459,34241
39803,16463,34255
39808,16464,34263
39815,16467,34274
39824,16472,34291
39833,16478,34304
39841,16485,34312
39844,16489,34315
39844,16491,34316
39842,16493,34316
39839,16494,34312
39834,16492,34307
39828,16487,34299
39821,16481,34284
39810,16476,34261
39793,16467,34233
39772,16454,34200
39745,16437,34162
39717,16418,34122
39696,16399,34085
39680,16381,34050
39666,16365,34014
39648,16347,33973
39623,16325,33930
39598,16303,33888
39578,16285,33848
39562,16270,33810
39548,16253,33773
39540,16235,33739
39536,16216,33707
39528,16193,33678
39513,16170,33651
39494,16149,33626
39473,16131,33603
39452,16119,33579
39431,16109,33552
39408,16099,33519
39388,16089,33486
39374,16082,33458
39360,16076,33436
39346,16068,33416
39333,16059,33395
39320,16046,33373
39304,16028,33349
39287,16012,33321
39274,16003,33292
39263,16000,33265
39256,16000,33243
39250,15999,33222
39241,15993,33201
39229,15984,33182
39216,15974,33162
39201,15966,33140
39188,15961,33115
39175,15956,33090
39166,15950,33067
39164,15944,33046
39164,15939,33027
39163,15932,33011
39158,15923,32998
39152,15911,32988
39143,15898,32977
39128,15881,32960
39106,15865,32941
39081,15854,32918
39058,15847,32890
39039,15840,32861
39021,15828,32828
39004,15813,32796
38992,15801,32772
38984,15795,32761
38983,15795,32758
38990,15802,32760
39006,15818,32773
39028,15841,32802
39063,15870,32848
39115,15909,32918
39181,15955,33014
39253,16005,33130
39329,16064,33260
39416,16135,33402
39517,16212,33556
39624,16290,33715
39732,16367,33874
39836,16438,34030
39936,16505,34185
40031,16570,34339
40124,16636,34489
40218,16705,34632
40305,16770,34765
40382,16826,34885
40448,16874,34991
40509,16916,35082
40563,16950,35157
40602,16970,35213
40626,16980,35250
40637,16982,35273
40637,16978,35286
40626,16971,35286
40606,16961,35272
40580,16947,35246
40551,16929,35211
40521,16909,35172
40494,16890,35130
40470,16871,35086
40447,16853,35045
40427,16837,35007
40405,16822,34966
40380,16806,34924
40355,16791,34884
40332,16777,34843
40309,16765,34799
40287,16755,34755
40266,16744,34716
40248,16735,34681
40229,16723,34644
40204,16705,34601
40173,16683,34553
40140,16658,34498
40107,16632,34438
40075,16606,34384
40044,16580,34339
40013,16557,34297
39986,16540,34260
39969,16530,34232
39958,16524,34212
39951,16518,34192
39945,16512,34176
39944,16508,34170
39947,16505,34173
39955,16506,34177
39963,16507,34180
39969,16508,34187
39976,16510,34200
39983,16518,34217
39989,16529,34237
39998,16539,34262
40011,16547,34289
40028,16555,34313
40048,16559,34334
40066,16561,34356
40082,16558,34379
40096,16556,34399
40109,16554,34419
40117,16552,34439
40123,16551,34458
40126,16555,34468
40125,16559,34469
40118,16561,34462
40107,16562,34451
40091,16563,34435
40075,16562,34416
40062,16561,34397
40048,16560,34371
40036,16558,34341
40025,16554,34310
40011,16542,34275
39997,16525,34236
39986,16508,34198
39974,16488,34165
39952,16464,34135
39922,16435,34102
39890,16407,34067
39863,16387,34035
39841,16375,34007
39822,16367,33980
39803,16358,33951
39781,16347,33919
39757,16337,33885
39733,16327,33851
39712,16321,33820
39692,16317,33790
39668,16310,33755
39642,16301,33712
39615,16287,33664
39589,16268,33616
39566,16248,33575
39546,16230,33540
39528,16214,33514
39512,16203,33500
39497,16190,33488
39479,16173,33468
39459,16154,33444
39439,16134,33419
39419,16114,33390
39400,16097,33356
39384,16086,33327
39371,16082,33305
39361,16081,33289
39350,16081,33270
39338,16078,33243
39323,16070,33211
39305,16059,33175
39292,16049,33143
39286,16041,33121
39282,16032,33108
39275,16018,33095
39265,16001,33078
39254,15984,33063
39241,15970,33051
39228,15958,33038
39213,15947,33020
39196,15936,33001
39178,15926,32983
39163,15917,32966
39151,15910,32950
39141,15902,32936
39132,15894,32922
39120,15884,32905
39105,15872,32881
39086,15860,32853
39067,15847,32827
39050,15837,32805
39041,15831,32788
39038,15831,32781
39044,15840,32789
39064,15857,32814
39100,15885,32861
39153,15926,32935
39225,15978,33035
39308,16038,33158
39396,16101,33296
39483,16166,33446
39573,16235,33605
39666,16310,33769
39766,16390,33939
39873,16479,34117
39987,16576,34303
40105,16676,34491
40219,16770,34671
40324,16852,34835
40419,16921,34980
40509,16982,35108
40592,17035,35226
40671,17081,35337
40744,17121,35436
40807,17151,35521
40856,17170,35593
40888,17182,35650
40903,17187,35687
40907,17190,35703
40905,17190,35706
40897,17186,35698
40884,17183,35681
40870,17183,35656
40856,17182,35627
40838,17174,35590
40819,17161,35549
40800,17145,35507
40784,17129,35472
40772,17115,35443
40762,17104,35418
40751,17091,35398
40738,17076,35383
40725,17058,35369
40709,17039,35349
40690,17023,35326
40671,17010,35304
40652,16997,35278
40632,16981,35246
40612,16961,35211
40592,16942,35179
40573,16927,35147
40553,16916,35111
40530,16904,35071
40506,16890,35030
40481,16874,34990
40455,16858,34951
40432,16842,34920
40411,16828,34897
40395,16818,34880
40384,16813,34865
40378,16806,34855
40372,16800,34852
40366,16798,34853
40363,16801,34853
40365,16805,34855
40371,16805,34859
40379,16804,34864
40388,16809,34869
40400,16821,34881
40411,16834,34897
40418,16843,34909
40423,16853,34921
40430,16864,34938
40439,16874,34956
40447,16881,34967
40453,16887,34974
40454,16891,34979
40450,16892,34985
40442,16892,34986
40434,16891,34982
40427,16886,34977
40419,16874,34969
40409,16857,34955
40396,16840,34936
40381,16824,34917
40364,16811,34893
40344,16798,34857
40321,16781,34815
40298,16758,34773
40274,16733,34732
40252,16709,34693
40233,16690,34654
40213,16673,34616
40191,16659,34575
40168,16648,34531
40146,16637,34487
40125,16624,34447
40105,16607,34407
40084,16584,34366
40061,16559,34328
40033,16534,34295
39996,16508,34259
39959,16484,34219
39927,16463,34183
39897,16443,34150
39868,16422,34116
39843,16404,34081
39821,16389,34050
39802,16376,34028
39785,16366,34009
39766,16357,33987
39745,16348,33963
39724,16339,33936
39704,16331,33907
39687,16324,33881
39668,16314,33855
39647,16298,33826
39628,16282,33795
39610,16269,33765
39592,16258,33736
39571,16247,33708
39551,16240,33679
39537,16239,33656
39527,16241,33641
39516,16240,33626
39500,16232,33601
39483,16220,33573
39470,16209,33551
39461,16196,33533
39456,16181,33510
39452,16162,33482
39444,16141,33455
39431,16124,33432
39414,16113,33410
39395,16101,33389
39372,16086,33370
39351,16072,33352
39335,16059,33334
39326,16050,33319
39316,16041,33304
39305,16031,33286
39296,16022,33267
39290,16017,33250
39287,16016,33237
39287,16017,33228
39292,16022,33226
39302,16035,33239
39318,16055,33271
39342,16080,33319
39379,16112,33383
39432,16151,33468
39497,16195,33570
39570,16244,33681
39657,16300,33804
39759,16367,33945
39867,16442,34100
39974,16524,34262
40079,16608,34430
40182,16694,34604
40286,16778,34782
40390,16862,34955
40493,16943,35120
40592,17019,35275
40683,17085,35416
40763,17143,35542
40833,17192,35652
40892,17231,35746
40938,17261,35818
40976,17284,35871
41010,17306,35917
41041,17325,35957
41066,17342,35987
41085,17354,36005
41097,17361,36009
41096,17360,36003
41082,17352,35984
41060,17339,35953
41031,17323,35916
40995,17303,35878
40957,17284,35843
40924,17267,35808
40898,17252,35778
40876,17238,35758
40857,17224,35740
40839,17209,35718
40821,17193,35692
40797,17172,35662
40771,17151,35626
40748,17130,35589
40727,17112,35556
40709,17098,35531
40697,17089,35509
40688,17083,35489
40678,17079,35467
40667,17075,35444
40658,17072,35416
40651,17069,35384
40642,17063,35349
40626,17051,35314
40605,17034,35282
40584,17019,35256
40564,17004,35235
40545,16994,35220
40529,16987,35209
40515,16982,35201
40502,16978,35197
40493,16977,35197
40490,16980,35201
40492,16985,35207
40494,16992,35218
40498,17000,35234
40505,17009,35250
40513,17020,35268
40524,17034,35293
40540,17050,35320
40556,17068,35341
40570,17084,35355
40579,17094,35365
40585,17100,35370
40588,17106,35374
40590,17110,35379
40591,17111,35386
40592,17110,35391
40592,17107,35391
40591,17101,35385
40588,17091,35376
40587,17080,35364
40590,17068,35348
40592,17055,35328
40582,17035,35301
40561,17010,35268
40537,16987,35234
40515,16972,35205
40492,16959,35176
40468,16947,35144
40448,16940,35115
40432,16935,35092
40417,16933,35071
40404,16932,35047
40390,16930,35018
40375,16924,34986
40359,16912,34952
40340,16898,34913
40322,16885,34873
40306,16872,34837
40287,16860,34804
40266,16847,34767
40243,16832,34729
40221,16815,34692
40196,16797,34653
40174,16780,34615
40160,16767,34583
40152,16754,34555
40145,16739,34527
40137,16723,34501
40127,16706,34480
40115,16688,34462
40103,16672,34447
40093,16660,34430
40084,16651,34413
40072,16641,34393
40055,16626,34368
40035,16609,34338
40013,16593,34307
39989,16580,34278
39968,16572,34251
39952,16567,34222
39938,16563,34197
39927,16557,34177
39920,16548,34158
39916,16539,34137
39915,16533,34117
39916,16527,34099
39913,16520,34080
39905,16511,34059
39889,16498,34040
39867,16481,34022
39838,16464,33999
39809,16453,33974
39780,16444,33950
39751,16435,33926
39726,16428,33897
39706,16421,33866
39687,16414,33837
39670,16406,33814
39661,16403,33797
39665,16406,33795
39680,16412,33810
39700,16419,33836
39724,16429,33872
39757,16444,33923
39800,16467,33995
39854,16499,34089
39920,16541,34199
39997,16598,34329
40087,16670,34483
40186,16749,34649
40296,16832,34818
40412,16917,34990
40525,16998,35163
40631,17074,35331
40734,17147,35490
40835,17220,35642
40935,17293,35788
41030,17360,35922
41117,17422,36038
41193,17479,36140
41259,17533,36230
41319,17581,36305
41372,17617,36363
41414,17645,36409
41445,17666,36448
41463,17676,36473
41468,17676,36481
41461,17667,36471
41443,17648,36442
41419,17624,36400
41391,17599,36353
41361,17577,36310
41329,17559,36272
41300,17541,36231
41271,17522,36183
41243,17503,36132
41216,17485,36084
41192,17469,36040
41171,17453,36005
41152,17438,35976
41132,17421,35945
41109,17408,35911
41088,17399,35880
41070,17393,35852
41053,17386,35819
41035,17376,35779
41017,17365,35737
40997,17349,35694
40971,17329,35647
40940,17305,35598
40909,17282,35552
40879,17263,35513
40850,17247,35478
40822,17229,35440
40796,17206,35402
40775,17184,35374
40765,17168,35359
40769,17163,35355
40781,17166,35365
40797,17174,35384
40814,17181,35406
40830,17188,35429
40843,17189,35451
40850,17187,35469
40854,17184,35483
40861,17182,35494
40873,17187,35509
40889,17197,35528
40904,17211,35543
40921,17227,35555
40943,17247,35570
40962,17265,35585
40968,17281,35594
40964,17294,35596
40957,17299,35593
40950,17297,35585
40944,17292,35571
40939,17286,35556
40932,17280,35543
40919,17271,35525
40899,17257,35498
40878,17243,35466
40853,17231,35435
40825,17218,35404
40799,17203,35369
40780,17188,35335
40763,17173,35306
40745,17156,35277
40727,17135,35240
40712,17115,35201
40700,17097,35165
40686,17082,35127
40672,17069,35086
40654,17054,35041
40628,17036,34995
40597,17021,34952
40568,17011,34920
40543,17002,34897
40518,16990,34876
40493,16971,34853
40472,16950,34826
40458,16930,34800
40447,16914,34778
40433,16901,34750
40417,16886,34715
40400,16873,34681
40382,16860,34648
40361,16846,34610
40340,16833,34569
40322,16822,34535
40301,16807,34504
40274,16788,34473
40246,16769,34443
40219,16756,34419
40191,16744,34399
40164,16733,34380
40143,16723,34364
40127,16717,34351
40116,16712,34341
40108,16705,34329
40101,16692,34312
40092,16674,34291
40084,16656,34268
40081,16643,34244
40082,16636,34223
40081,16630,34204
40074,16622,34184
40060,16613,34162
40045,16604,34139
40033,16597,34120
40024,16594,34102
40017,16593,34081
40010,16589,34056
40001,16582,34030
39990,16571,34004
39977,16559,33972
39962,16549,33941
39944,16535,33913
39920,16518,33879
39896,16504,33841
39876,16498,33813
39861,16498,33797
39848,16504,33788
39837,16511,33785
39831,16518,33790
39830,16523,33806
39839,16531,33834
39862,16544,33879
39899,16563,33944
39950,16591,34029
40019,16631,34133
40102,16683,34253
40200,16748,34394
40312,16827,34554
40436,16919,34729
40568,17019,34915
40701,17121,35109
40830,17221,35305
40956,17317,35497
41078,17408,35681
41190,17489,35853
41288,17560,36009
41378,17626,36146
41462,17688,36268
41537,17742,36381
41597,17787,36481
41641,17820,36563
41672,17842,36628
41696,17858,36677
41715,17871,36714
41732,17881,36739
41743,17887,36754
41745,17884,36756
41741,17874,36749
41734,17863,36731
41724,17850,36708
41710,17835,36684
41692,17819,36657
41672,17801,36628
41655,17786,36603
41642,17776,36582
41630,17766,36557
41618,17757,36529
41608,17750,36506
41597,17742,36488
41587,17734,36469
41578,17726,36451
41571,17716,36434
41563,17706,36417
41551,17698,36394
41534,17686,36362
41515,17669,36329
41499,17654,36297
41486,17642,36263
41474,17631,36232
41464,17624,36208
41453,17618,36187
41442,17612,36166
41435,17608,36148
41429,17609,36136
41424,17612,36126
41418,17612,36113
41406,17609,36100
41390,17604,36088
41371,17597,36075
41353,17591,36060
41342,17587,36049
41338,17584,36045
41344,17584,36048
41358,17589,36058
41377,17598,36075
41396,17609,36098
41412,17622,36124
41424,17632,36146
41433,17637,36164
41441,17643,36182
41449,17650,36196
41455,17653,36203
41459,17653,36211
41462,17647,36219
41463,17639,36226
41467,17633,36232
41475,17630,36239
41482,17628,36242
41482,17623,36231
41478,17617,36210
41473,17612,36188
41467,17606,36163
41455,17598,36132
41435,17586,36093
41407,17568,36050
41379,17552,36010
41351,17538,35971
41321,17525,35930
41289,17507,35887
41255,17483,35842
41221,17460,35795
41193,17439,35749
41168,17420,35707
41145,17400,35667
41125,17380,35627
41108,17360,35586
41090,17339,35545
41070,17319,35504
41047,17298,35459
41023,17277,35416
41001,17259,35379
40979,17239,35342
40952,17218,35301
40923,17197,35263
40897,17180,35233
40878,17168,35206
40865,17164,35182
40853,17161,35158
40838,17154,35133
40821,17144,35112
40804,17134,35090
40783,17123,35066
40754,17108,35037
40719,17090,35002
40688,17072,34961
40664,17055,34923
40642,17037,34888
40620,17020,34855
40603,17005,34824
40589,16990,34797
40578,16973,34774
40568,16957,34751
40558,16944,34731
40550,16933,34716
40544,16924,34704
40537,16916,34691
40524,16908,34673
40506,16897,34650
40486,16885,34628
40469,16877,34607
40455,16872,34585
40443,16866,34564
40428,16858,34541
40410,16847,34514
40390,16837,34485
40368,16824,34454
40343,16808,34421
40318,16795,34384
40299,16789,34346
40285,16787,34314
40269,16781,34288
40249,16770,34266
40231,16755,34252
40217,16738,34247
40207,16719,34246
40204,16703,34245
40207,16696,34251
40214,16699,34269
40228,16712,34301
40254,16738,34349
40299,16773,34419
40359,16819,34511
40434,16875,34621
40524,16942,34749
40628,17017,34894
40737,17097,35051
40849,17179,35210
40967,17266,35373
41088,17355,35543
41206,17440,35712
41315,17515,35875
41420,17587,36036
41525,17658,36197
41631,17729,36352
41733,17795,36496
41824,17857,36628
41907,17916,36751
41978,17971,36861
42036,18018,36950
42079,18054,37018
42107,18076,37062
42120,18086,37083
42120,18090,37090
42115,18088,37085
42104,18082,37070
42084,18070,37046
42057,18055,37016
42028,18041,36987
41999,18028,36957
41975,18014,36927
41958,18001,36899
41948,17988,36869
41939,17974,36839
41927,17960,36809
41912,17949,36777
41898,17940,36747
41891,17936,36727
41889,17933,36711
41886,17931,36690
41878,17930,36666
41868,17930,36645
41855,17929,36626
41843,17928,36606
41831,17927,36588
41818,17922,36570
41803,17911,36548
41789,17898,36522
41776,17888,36500
41761,17878,36486
41744,17865,36468
41725,17847,36442
41707,17826,36416
41689,17801,36391
41669,17775,36363
41654,17753,36341
41648,17739,36335
41646,17728,36338
41644,17719,36338
41645,17711,36335
41651,17706,36337
41659,17708,36347
41668,17717,36364
41681,17730,36386
41694,17743,36409
41703,17749,36428
41711,17754,36440
41720,17760,36452
41732,17766,36467
41744,17773,36480
41751,17775,36480
41755,17774,36469
41756,17771,36458
41756,17772,36448
41754,17778,36438
41748,17784,36426
41738,17789,36415
41729,17792,36403
41723,17795,36391
41717,17796,36378
41709,17794,36366
41695,17786,36347
41677,17774,36321
41657,17760,36290
41630,17744,36257
41598,17725,36221
41566,17705,36182
41534,17683,36143
41501,17661,36107
41466,17642,36072
41430,17624,36036
41393,17605,35998
41359,17587,35961
41330,17572,35924
41308,17560,35890
41289,17547,35854
41269,17529,35816
41249,17507,35769
41230,17484,35716
41213,17463,35671
41198,17445,35637
41182,17430,35607
41160,17413,35578
41130,17391,35548
41093,17363,35516
41053,17332,35479
41016,17305,35443
40989,17284,35415
40969,17274,35394
40952,17272,35373
40937,17273,35347
40925,17271,35319
40914,17265,35292
40905,17256,35265
40896,17245,35238
40883,17229,35209
40864,17209,35173
40844,17191,35137
40825,17181,35113
40809,17175,35098
40797,17174,35086
40789,17176,35075
40782,17179,35063
40774,17177,35049
40764,17172,35033
40750,17165,35012
40733,17156,34993
40720,17145,34980
40709,17133,34971
40702,17123,34961
40698,17116,34952
40692,17108,34942
40682,17097,34924
40667,17085,34901
40651,17071,34878
40633,17051,34856
40614,17028,34835
40597,17009,34817
40585,16995,34805
40572,16985,34794
40557,16978,34774
40544,16975,34752
40534,16975,34733
40527,16978,34721
40523,16985,34718
40527,16995,34725
40540,17012,34750
40562,17036,34789
40595,17068,34845
40646,17113,34923
40713,17166,35024
40789,17224,35143
40873,17288,35273
40965,17355,35416
41064,17422,35570
41171,17496,35730
41285,17577,35891
41403,17661,36054
41520,17743,36217
41633,17819,36373
41743,17892,36521
41845,17958,36660
41932,18015,36783
42003,18060,36885
42066,18101,36971
42120,18138,37047
42163,18167,37108
42189,18185,37149
42208,18198,37173
42221,18203,37188
42223,18198,37193
42215,18186,37187
42207,18174,37172
42199,18163,37150
42186,18150,37127
42170,18136,37103
42155,18124,37076
42135,18110,37044
42108,18092,37007
42079,18074,36963
42050,18058,36913
42021,18045,36865
41994,18036,36823
41967,18027,36781
41941,18016,36736
41915,18004,36689
41888,17989,36644
41858,17971,36600
41825,17948,36558
41789,17918,36514
41752,17883,36471
41718,17849,36430
41684,17817,36389
41654,17786,36352
41629,17762,36316
41609,17744,36277
41590,17729,36238
41574,17715,36204
41559,17706,36171
41548,17700,36141
41540,17699,36120
41537,17707,36112
41538,17717,36114
41538,17724,36119
41539,17732,36134
41542,17743,36158
41545,17754,36183
41551,17766,36208
41562,17778,36236
41573,17789,36264
41579,17798,36283
41583,17802,36290
41590,17802,36295
41598,17800,36300
41604,17795,36302
41610,17787,36302
41617,17782,36306
41627,17781,36314
41633,17782,36317
41638,17784,36317
41640,17785,36316
41637,17786,36312
41629,17786,36300
41622,17787,36281
41614,17783,36257
41601,17771,36224
41579,17752,36180
41552,17732,36133
41527,17709,36090
41502,17686,36051
41479,17665,36012
41460,17648,35976
41442,17635,35943
41422,17621,35909
41399,17607,35871
41374,17595,35831
41347,17583,35795
41315,17568,35756
41278,17547,35712
41240,17522,35667
41205,17496,35625
41176,17471,35587
41152,17450,35552
41126,17433,35519
41100,17417,35494
41074,17402,35473
41050,17386,35450
41031,17370,35428
41019,17357,35410
41010,17348,35395
41002,17341,35380
40995,17335,35365
40985,17329,35347
40973,17326,35324
40957,17322,35298
40932,17312,35269
40902,17296,35237
40877,17280,35204
40859,17265,35174
40843,17250,35149
40830,17235,35128
40816,17222,35108
40802,17212,35090
40788,17204,35074
40777,17195,35058
40764,17179,35037
40750,17159,35011
40737,17137,34987
40721,17118,34964
40701,17104,34938
40685,17098,34911
40671,17097,34888
40654,17094,34865
40635,17089,34840
40622,17085,34817
40613,17082,34801
40605,17074,34788
40596,17063,34767
40587,17049,34742
40577,17032,34714
40565,17014,34683
40554,17002,34653
40546,16994,34630
40536,16986,34610
40525,16978,34591
40515,16975,34571
40509,16977,34556
40506,16984,34553
40508,16992,34560
40521,17006,34583
40549,17028,34628
40592,17061,34700
40651,17106,34794
40726,17163,34911
40815,17233,35052
40915,17309,35212
41021,17390,35383
41132,17477,35562
41247,17568,35745
41363,17661,35929
41480,17752,36113
41602,17843,36298
41727,17932,36486
41849,18015,36671
41960,18092,36844
42061,18159,37004
42153,18218,37150
42232,18265,37274
42300,18305,37374
42359,18339,37453
42404,18365,37512
42439,18385,37553
42470,18403,37578
42500,18421,37594
42522,18436,37603
42531,18444,37602
42525,18442,37584
42510,18432,37559
42492,18418,37532
42470,18403,37502
42440,18389,37465
42406,18378,37427
42371,18366,37392
42339,18353,37356
42311,18339,37316
42281,18321,37275
42249,18299,37234
42220,18276,37196
42196,18254,37161
42180,18233,37132
42166,18212,37104
42149,18188,37072
42133,18164,37038
42119,18145,37013
42107,18132,36997
42097,18123,36983
42086,18114,36967
42073,18103,36948
42059,18093,36928
42047,18082,36910
42036,18073,36893
42024,18067,36878
42009,18064,36864
41990,18065,36847
41971,18068,36828
41953,18069,36811
41934,18063,36796
41918,18053,36780
41908,18044,36767
41906,18040,36765
41908,18041,36772
41915,18045,36781
41928,18054,36792
41942,18062,36807
41952,18065,36823
41958,18067,36836
41966,18073,36852
41978,18082,36873
41988,18091,36894
41996,18102,36913
42004,18112,36931
42011,18118,36948
42015,18118,36960
42017,18116,36966
42018,18112,36966
42015,18104,36960
42007,18091,36946
41998,18079,36926
41987,18066,36900
41969,18046,36867
41941,18020,36827
41907,17993,36782
41871,17967,36737
41832,17941,36694
41793,17916,36653
41754,17895,36610
41722,17881,36572
41694,17872,36536
41665,17860,36491
41634,17846,36435
41607,17832,36378
41581,17813,36322
41556,17792,36268
41533,17770,36219
41510,17743,36176
41484,17712,36140
41454,17682,36105
41422,17656,36066
41389,17635,36027
41355,17617,35991
41317,17602,35956
41283,17590,35925
41254,17578,35895
41224,17563,35862
41198,17548,35826
41177,17535,35792
41161,17524,35763
41143,17509,35732
41120,17492,35695
41098,17476,35660
41081,17462,35633
41065,17447,35607
41049,17433,35581
41034,17422,35554
41019,17414,35530
41004,17408,35507
40988,17401,35485
40973,17394,35464
40961,17388,35445
40952,17385,35425
40946,17382,35406
40942,17378,35388
40937,17373,35373
40929,17368,35359
40913,17359,35339
40892,17348,35313
40868,17338,35288
40846,17330,35267
40830,17325,35250
40819,17321,35240
40810,17314,35230
40800,17301,35215
40791,17286,35200
40782,17272,35188
40772,17256,35174
40760,17238,35159
40746,17221,35144
40728,17201,35124
40708,17178,35100
40690,17156,35073
40677,17139,35050
40665,17125,35031
40653,17114,35011
40644,17106,34991
40643,17105,34982
40650,17110,34990
40663,17123,35016
40690,17149,35065
40738,17189,35143
40802,17241,35245
40877,17301,35366
40966,17369,35501
41065,17448,35647
41171,17534,35806
41282,17625,35975
41400,17717,36149
41524,17811,36333
41651,17905,36526
41780,18000,36723
41913,18098,36921
42043,18194,37114
42164,18283,37298
42278,18366,37469
42387,18444,37626
42484,18514,37765
42566,18572,37886
42630,18619,37987
42679,18656,38068
42714,18682,38128
42735,18698,38167
42740,18703,38184
42730,18696,38181
42711,18682,38166
42690,18666,38143
42668,18648,38114
42644,18625,38077
42618,18600,38040
42591,18578,38006
42563,18557,37969
42537,18539,37932
42518,18528,37899
42504,18522,37869
42490,18516,37836
42478,18513,37804
42471,18516,37781
42465,18522,37763
42460,18525,37746
42453,18527,37731
42446,18530,37717
42434,18528,37698
42413,18519,37672
42388,18506,37645
42362,18492,37623
42337,18476,37597
42312,18458,37563
42286,18436,37521
42259,18408,37477
42231,18379,37430
42206,18352,37384
42185,18328,37344
42163,18303,37309
42142,18280,37281
42128,18261,37260
42119,18249,37248
42113,18242,37240
42110,18237,37232
42112,18235,37228
42116,18237,37232
42120,18237,37242
42126,18237,37253
42133,18239,37266
42137,18240,37283
42137,18236,37295
42133,18226,37297
42129,18214,37295
42126,18202,37299
42122,18195,37306
42113,18190,37307
42099,18185,37302
42084,18180,37296
42071,18174,37290
42061,18171,37279
42053,18170,37267
42045,18165,37250
42032,18152,37226
42015,18137,37198
41999,18124,37175
41982,18111,37156
41963,18096,37133
41941,18080,37103
41918,18066,37071
41897,18053,37042
41878,18039,37013
41858,18024,36978
41837,18009,36941
41814,17995,36905
41786,17981,36868
41757,17968,36828
41726,17954,36789
41695,17939,36749
41661,17922,36705
41625,17904,36659
41589,17882,36610
41554,17855,36562
41518,17828,36516
41483,17802,36472
41444,17776,36427
41404,17750,36385
41369,17726,36348
41340,17706,36313
41311,17688,36279
41279,17667,36244
41243,17642,36202
41204,17615,36151
41163,17588,36099
41124,17560,36051
41088,17533,36006
41059,17514,35969
41038,17502,35943
41020,17493,35921
41003,17483,35896
40985,17471,35869
40963,17456,35841
40941,17440,35815
40921,17429,35791
40902,17419,35763
40883,17408,35736
40870,17401,35717
40861,17396,35705
40855,17392,35696
40850,17388,35687
40842,17382,35674
40831,17375,35656
40819,17366,35636
40805,17356,35617
40790,17347,35599
40772,17339,35575
40752,17328,35545
40731,17316,35515
40712,17304,35485
40698,17294,35456
40683,17281,35430
40659,17261,35404
40626,17235,35371
40592,17212,35334
40560,17196,35299
40531,17185,35266
40505,17175,35230
40482,17164,35188
40464,17152,35149
40450,17140,35117
40442,17132,35095
40440,17125,35080
40438,17118,35073
40439,17113,35080
40447,17117,35100
40465,17132,35138
40496,17157,35197
40544,17198,35279
40605,17252,35380
40679,17315,35502
40766,17389,35648
40863,17474,35807
40968,17562,35971
41082,17653,36143
41200,17746,36326
41318,17837,36515
41438,17928,36702
41560,18017,36891
41680,18102,37076
41791,18180,37251
41893,18253,37409
41983,18317,37547
42062,18369,37669
42131,18412,37777
42187,18448,37867
42233,18477,37941
42271,18501,38006
42304,18522,38059
42328,18537,38096
42343,18543,38117
42342,18536,38121
42327,18520,38109
42307,18504,38089
42285,18490,38066
42258,18472,38035
42223,18453,37993
42189,18437,37946
42159,18422,37898
42131,18403,37847
42099,18377,37789
42068,18350,37731
42039,18323,37682
42012,18294,37640
41987,18267,37602
41961,18246,37566
41933,18229,37529
41902,18210,37491
41870,18190,37449
41841,18173,37405
41813,18158,37364
41783,18140,37325
41750,18120,37288
41714,18100,37251
41677,18080,37211
41637,18059,37170
41593,18038,37129
41552,18019,37095
41519,18008,37071
41494,18004,37056
41476,18004,37043
41462,18004,37029
41456,18003,37020
41457,18003,37016
41462,18001,37014
41471,17999,37016
41485,17998,37026
41502,17999,37046
41521,18004,37072
41540,18016,37100
41558,18031,37129
41575,18047,37154
41591,18062,37174
41604,18076,37189
41613,18090,37202
41618,18103,37213
41624,18114,37224
41634,18120,37235
41642,18120,37242
41646,18115,37242
41646,18111,37244
41641,18106,37249
41631,18099,37249
41615,18090,37240
41600,18084,37229
41586,18077,37218
41571,18062,37196
41554,18042,37164
41538,18024,37132
41522,18010,37106
41505,17996,37081
41489,17985,37055
41477,17979,37029
41464,17974,37007
41451,17967,36983
41438,17955,36950
41421,17940,36910
41395,17920,36865
41360,17896,36816
41324,17872,36764
41289,17851,36715
41252,17828,36667
41213,17807,36617
41175,17790,36563
41142,17772,36510
41113,17753,36460
41086,17734,36413
41058,17714,36364
41026,17690,36315
40987,17661,36264
40948,17635,36214
40914,17614,36171
40888,17596,36136
40866,17576,36109
40844,17556,36081
40824,17539,36054
40808,17527,36032
40798,17520,36017
40794,17516,36002
40793,17510,35988
40795,17500,35976
40797,17487,35963
40799,17475,35949
40799,17467,35936
40797,17459,35920
40786,17448,35895
40766,17436,35866
40744,17425,35839
40721,17416,35819
40699,17405,35801
40678,17393,35777
40655,17381,35747
40627,17367,35716
40595,17350,35682
40562,17329,35647
40537,17311,35617
40518,17300,35594
40503,17295,35572
40491,17295,35548
40482,17295,35525
40472,17291,35506
40454,17278,35483
40428,17262,35453
40402,17245,35422
40377,17229,35394
40356,17217,35373
40342,17212,35362
40337,17213,35364
40337,17215,35376
40344,17219,35394
40361,17230,35421
40390,17251,35465
40433,17285,35529
40490,17330,35611
40564,17385,35711
40653,17449,35830
40747,17519,35967
40845,17594,36117
40948,17675,36277
41055,17758,36447
41167,17845,36625
41284,17937,36808
41403,18030,36988
41521,18120,37164
41637,18207,37336
41748,18289,37500
41849,18363,37652
41936,18426,37789
42007,18475,37905
42066,18513,37997
42120,18543,38073
42167,18565,38135
42203,18577,38180
42231,18586,38208
42248,18592,38223
42252,18592,38225
42247,18587,38217
42234,18578,38196
42212,18565,38161
42182,18547,38115
42146,18526,38064
42109,18502,38006
42072,18476,37943
42036,18451,37882
42000,18425,37822
41964,18398,37763
41925,18371,37707
41885,18342,37658
41845,18313,37612
41806,18283,37564
41769,18254,37518
41734,18226,37477
41697,18201,37431
41658,18178,37379
41619,18155,37329
41579,18129,37283
41542,18104,37239
41515,18087,37201
41495,18082,37170
41475,18080,37139
41450,18072,37099
41425,18060,37054
41404,18049,37014
41385,18034,36976
41369,18018,36942
41361,18006,36917
41357,17995,36906
41356,17986,36909
41358,17983,36919
41363,17986,36932
41368,17992,36948
41374,18001,36966
41384,18010,36986
41402,18021,37011
41424,18032,37039
41443,18038,37065
41461,18043,37089
41481,18051,37117
41498,18065,37149
41511,18081,37179
41520,18101,37200
41528,18120,37212
41533,18134,37217
41534,18140,37217
41534,18140,37210
41531,18133,37197
41524,18120,37183
41512,18103,37166
41496,18084,37143
41481,18068,37121
41460,18055,37099
41431,18041,37070
41397,18024,37029
41365,18005,36985
41338,17986,36942
41316,17967,36902
41296,17951,36864
41274,17935,36826
41245,17914,36787
41215,17892,36744
41187,17870,36697
41156,17841,36649
41120,17807,36603
41087,17777,36562
41061,17756,36526
41037,17739,36491
41014,17721,36453
40987,17696,36408
40956,17669,36363
40923,17640,36318
40891,17613,36271
40858,17588,36222
40828,17569,36177
40803,17556,36145
40784,17545,36120
40768,17536,36095
40755,17528,36068
40740,17519,36038
40721,17508,36003
40698,17493,35962
40674,17476,35921
40648,17458,35883
40618,17440,35844
40586,17424,35805
40553,17412,35770
40520,17398,35739
40489,17385,35714
40465,17378,35691
40450,17379,35671
40436,17382,35654
40424,17385,35637
40414,17385,35616
40404,17377,35590
40389,17364,35562
40373,17349,35532
40357,17333,35504
40341,17318,35478
40326,17302,35457
40314,17285,35436
40311,17270,35416
40311,17258,35401
40310,17248,35388
40307,17239,35374
40298,17227,35354
40282,17212,35332
40265,17196,35310
40244,17180,35283
40221,17163,35254
40198,17149,35230
40176,17139,35212
40155,17132,35191
40139,17128,35172
40130,17124,35159
40125,17119,35154
40126,17114,35157
40137,17112,35169
40162,17120,35198
40201,17141,35247
40253,17177,35315
40321,17230,35408
40403,17297,35528
40492,17374,35669
40592,17459,35831
40707,17556,36016
40834,17658,36217
40967,17757,36425
41102,17854,36637
41239,17948,36854
41377,18037,37073
41510,18121,37283
41636,18201,37480
41755,18280,37666
41868,18359,37842
41973,18433,37999
42067,18497,38133
42150,18552,38246
42218,18600,38343
42272,18643,38421
42320,18683,38483
42358,18717,38530
42379,18740,38559
42380,18750,38569
42368,18752,38561
42349,18748,38540
42323,18738,38510
42292,18721,38469
42256,18697,38419
42215,18671,38365
42171,18643,38309
42128,18614,38251
42093,18589,38197
42065,18566,38150
42040,18547,38110
42013,18527,38074
41986,18505,38042
41963,18483,38016
41940,18460,37988
41917,18435,37958
41896,18412,37932
41880,18391,37912
41866,18369,37891
41850,18349,37865
41830,18331,37837
41805,18312,37806
41778,18294,37771
41755,18282,37735
41735,18274,37703
41715,18266,37672
41693,18254,37635
41668,18242,37596
41644,18237,37566
41624,18234,37547
41608,18230,37533
41600,18226,37528
41599,18227,37531
41600,18227,37536
41603,18223,37537
41610,18223,37536
41618,18226,37539
41624,18227,37544
41626,18229,37548
41629,18234,37555
41634,18241,37567
41640,18247,37585
41643,18253,37598
41643,18259,37604
41642,18272,37615
41641,18287,37629
41640,18299,37636
41642,18310,37642
41647,18321,37652
41649,18329,37664
41644,18333,37671
41637,18335,37674
41630,18333,37672
41620,18324,37661
41607,18309,37637
41595,18296,37610
41583,18283,37586
41568,18267,37559
41548,18244,37523
41525,18216,37479
41501,18182,37433
41470,18141,37381
41432,18099,37326
41393,18062,37274
41353,18029,37223
41314,18003,37172
41279,17982,37121
41249,17966,37071
41218,17954,37023
41183,17942,36979
41147,17927,36940
41114,17909,36905
41078,17884,36870
41040,17857,36831
41005,17834,36787
40976,17817,36743
40950,17805,36706
40926,17795,36670
40901,17783,36630
40873,17767,36587
40841,17745,36543
40811,17721,36499
40789,17701,36460
40771,17682,36426
40749,17659,36389
40727,17632,36351
40710,17610,36318
40695,17591,36291
40674,17569,36259
40648,17546,36216
40623,17528,36172
40602,17516,36137
40585,17510,36111
40569,17506,36089
40555,17504,36069
40537,17498,36051
40514,17486,36029
40490,17471,36002
40469,17454,35976
40452,17436,35952
40433,17416,35924
40416,17399,35893
40404,17386,35867
40398,17377,35848
40394,17370,35835
40386,17364,35822
40374,17361,35811
40357,17357,35799
40334,17349,35781
40307,17336,35755
40280,17319,35725
40253,17304,35696
40231,17294,35671
40214,17286,35643
40195,17278,35613
40171,17268,35583
40146,17256,35555
40130,17247,35535
40126,17245,35530
40131,17251,35536
40145,17262,35553
40169,17280,35586
40211,17307,35644
40274,17346,35730
40355,17397,35843
40450,17457,35982
40556,17526,36146
40672,17606,36331
40800,17695,36527
40934,17792,36731
41067,17891,36938
41197,17991,37144
41323,18090,37346
41446,18189,37543
41567,18288,37734
41682,18380,37910
41789,18466,38067
41888,18543,38214
41979,18608,38350
42063,18663,38469
42141,18710,38571
42210,18747,38659
42265,18775,38734
42304,18792,38791
42325,18803,38827
42332,18810,38843
42321,18808,38838
42293,18796,38812
42261,18778,38771
42227,18758,38726
42188,18735,38679
42144,18708,38626
42096,18677,38565
42051,18646,38504
42012,18618,38449
41979,18590,38396
41951,18564,38345
41924,18538,38298
41892,18509,38254
41855,18479,38206
41821,18452,38158
41793,18429,38121
41771,18413,38099
41753,18401,38081
41733,18387,38057
41708,18368,38027
41681,18347,37992
41654,18328,37956
41627,18310,37918
41595,18293,37879
41561,18276,37839
41528,18264,37799
41502,18258,37764
41482,18255,37735
41467,18250,37706
41454,18243,37677
41444,18238,37650
41437,18231,37628
41427,18220,37609
41418,18208,37596
41418,18202,37591
41431,18202,37595
41450,18208,37605
41469,18215,37618
41485,18224,37635
41501,18234,37656
41513,18240,37675
41521,18243,37690
41524,18244,37701
41519,18239,37710
41508,18229,37716
41496,18220,37721
41488,18212,37729
41484,18206,37737
41480,18199,37737
41473,18191,37734
41467,18187,37736
41462,18185,37739
41459,18185,37736
41458,18185,37723
41455,18181,37701
41447,18175,37674
41434,18166,37639
41414,18152,37596
41387,18133,37553
41352,18108,37511
41312,18081,37469
41266,18053,37425
41217,18025,37382
41167,17995,37340
41120,17964,37295
41075,17935,37249
41032,17907,37202
40990,17882,37150
40950,17860,37096
40918,17842,37043
40891,17827,36993
40861,17813,36944
40830,17802,36896
40797,17792,36850
40759,17777,36806
40720,17757,36763
40688,17738,36720
40659,17722,36679
40628,17705,36640
40593,17687,36601
40555,17668,36560
40518,17652,36519
40484,17638,36480
40452,17624,36439
40418,17605,36393
40384,17580,36345
40353,17551,36299
40326,17526,36257
40306,17507,36218
40287,17493,36182
40261,17477,36148
40232,17460,36114
40211,17445,36085
40199,17431,36065
40185,17417,36049
40164,17401,36027
40140,17383,36001
40116,17366,35976
40093,17354,35955
40075,17345,35934
40060,17339,35914
40042,17332,35891
40019,17320,35864
39992,17306,35831
39970,17292,35799
39950,17279,35774
39932,17265,35752
39915,17250,35727
39897,17233,35698
39878,17212,35670
39856,17189,35641
39834,17165,35611
39812,17137,35578
39787,17107,35542
39764,17079,35508
39745,17059,35477
39730,17047,35450
39721,17044,35433
39720,17047,35423
39725,17055,35419
39732,17065,35425
39743,17077,35447
39764,17093,35487
39802,17120,35550
39857,17160,35640
39929,17214,35760
40018,17282,35904
40122,17365,36070
40242,17460,36258
40369,17565,36465
40501,17671,36680
40635,17775,36892
40768,17872,37100
40897,17962,37303
41019,18046,37496
41130,18124,37670
41230,18195,37828
41319,18259,37974
41398,18321,38106
41472,18382,38224
41536,18437,38331
41585,18478,38419
41619,18505,38483
41644,18524,38531
41660,18536,38570
41666,18542,38594
41662,18546,38599
41650,18548,38588
41635,18545,38570
41616,18533,38543
41589,18515,38502
41557,18492,38451
41521,18468,38396
41480,18442,38340
41437,18417,38279
41394,18391,38215
41354,18366,38155
41317,18343,38100
41281,18318,38046
41251,18293,37996
41224,18269,37953
41195,18244,37911
41163,18217,37866
41136,18192,37823
41112,18169,37784
41088,18148,37743
41062,18129,37699
41035,18112,37655
41006,18095,37615
40976,18079,37575
40950,18064,37536
40928,18048,37500
40909,18027,37463
40889,18005,37423
40871,17984,37386
40859,17970,37361
40854,17963,37349
40858,17964,37344
40870,17969,37345
40884,17977,37354
40891,17983,37362
40893,17989,37369
40897,17998,37379
40905,18011,37396
40914,18026,37419
40923,18043,37441
40933,18061,37466
40949,18081,37498
40973,18103,37534
40999,18124,37568
41023,18142,37600
41044,18156,37632
41056,18163,37660
41059,18164,37675
41054,18164,37679
41046,18162,37674
41038,18160,37667
41032,18156,37654
41025,18148,37639
41018,18140,37625
41011,18134,37611
40998,18127,37592
40977,18115,37568
40951,18100,37541
40923,18084,37508
40894,18064,37467
40866,18043,37422
40840,18020,37382
40814,17997,37343
40786,17972,37302
40754,17946,37256
40721,17922,37208
40691,17902,37158
40664,17883,37107
40638,17862,37060
40609,17839,37018
40575,17816,36978
40541,17796,36936
40504,17775,36893
40463,17756,36848
40424,17736,36801
40390,17716,36755
40359,17695,36709
40327,17669,36662
40294,17639,36611
40262,17608,36559
40231,17578,36512
40200,17551,36471
40171,17530,36434
40145,17516,36399
40122,17506,36367
40107,17499,36339
40099,17495,36315
40097,17493,36292
40093,17484,36270
40080,17466,36246
40060,17445,36219
40041,17423,36190
40024,17406,36166
40005,17393,36142
39984,17380,36110
39961,17367,36074
39938,17353,36040
39916,17338,36011
39896,17323,35989
39878,17311,35972
39857,17297,35952
39833,17281,35926
39811,17267,35898
39788,17256,35871
39761,17245,35843
39733,17234,35813
39714,17228,35784
39699,17221,35758
39681,17210,35734
39663,17200,35712
39647,17192,35694
39628,17183,35674
39609,17173,35654
39595,17169,35635
39589,17173,35624
39595,17182,35626
39617,17196,35644
39653,17216,35679
39702,17246,35735
39761,17288,35821
39829,17340,35934
39905,17401,36064
39992,17475,36212
40089,17558,36377
40193,17644,36555
40301,17732,36736
40413,17823,36920
40531,17913,37109
40653,18005,37302
40777,18095,37493
40899,18183,37679
41020,18266,37860
41135,18341,38030
41239,18402,38180
41330,18454,38313
41406,18499,38432
41465,18536,38527
41508,18568,38599
41542,18595,38657
41567,18613,38703
41579,18618,38726
41581,18611,38727
41575,18599,38714
41556,18583,38689
41527,18563,38648
41492,18542,38597
41455,18522,38542
41417,18506,38485
41381,18488,38422
41346,18468,38355
41313,18448,38292
41281,18428,38235
41253,18409,38184
41229,18394,38141
41208,18383,38104
41183,18367,38064
41154,18345,38013
41125,18322,37955
41094,18296,37898
41062,18267,37838
41029,18237,37774
40998,18212,37715
40971,18190,37663
40944,18167,37609
40913,18141,37552
40880,18114,37501
40846,18089,37457
40815,18066,37420
40789,18048,37383
40768,18033,37351
40754,18022,37330
40747,18017,37321
40750,18016,37322
40761,18020,37330
40772,18025,37345
40777,18027,37359
40778,18027,37369
40780,18030,37383
40789,18038,37404
40806,18052,37433
40828,18071,37464
40852,18089,37495
40873,18105,37523
40889,18121,37544
40901,18136,37560
40911,18152,37580
40920,18167,37604
40926,18179,37624
40929,18187,37637
40933,18192,37648
40942,18201,37662
40951,18209,37671
40953,18214,37669
40950,18213,37665
40937,18208,37658
40916,18199,37640
40894,18189,37613
40878,18176,37585
40863,18159,37557
40850,18140,37529
40839,18125,37503
40826,18111,37473
40806,18095,37435
40779,18076,37389
40750,18055,37339
40720,18035,37292
40686,18014,37246
40649,17989,37197
40617,17963,37150
40586,17936,37102
40552,17905,37051
40513,17868,36994
40471,17830,36935
40428,17791,36880
40388,17758,36828
40355,17733,36780
40327,17711,36738
40303,17693,36704
40287,17678,36674
40274,17668,36646
40259,17657,36616
40238,17641,36586
40215,17624,36554
40195,17610,36523
40181,17603,36500
40167,17596,36481
40151,17584,36458
40131,17569,36431
40113,17553,36401
40095,17536,36371
40077,17518,36338
40060,17503,36304
40044,17492,36274
40027,17485,36249
40008,17477,36221
39989,17471,36192
39973,17467,36167
39959,17466,36147
39944,17463,36129
39926,17455,36105
39905,17442,36078
39879,17423,36048
39850,17401,36014
39825,17382,35981
39807,17368,35953
39797,17361,35930
39791,17357,35909
39783,17352,35891
39772,17342,35874
39758,17328,35858
39742,17316,35844
39733,17309,35832
39724,17302,35816
39709,17291,35791
39692,17278,35761
39680,17267,35734
39675,17260,35718
39676,17258,35712
39688,17267,35719
39713,17287,35747
39750,17316,35798
39801,17354,35875
39874,17404,35977
39967,17464,36108
40072,17534,36268
40186,17614,36447
40311,17706,36644
40448,17811,36862
40592,17923,37095
40734,18033,37325
40871,18138,37547
41005,18240,37764
41136,18340,37979
41264,18438,38187
41390,18533,38380
41510,18622,38555
41618,18701,38712
41715,18772,38850
41802,18834,38968
41876,18888,39069
41931,18931,39151
41964,18962,39204
41979,18980,39230
41982,18989,39241
41973,18987,39241
41954,18973,39225
41928,18952,39195
41897,18925,39159
41863,18892,39118
41830,18856,39073
41800,18823,39030
41772,18794,38988
41747,18769,38945
41722,18744,38900
41700,18723,38862
41678,18709,38830
41653,18698,38795
41627,18689,38756
41607,18684,38722
41584,18678,38693
41555,18668,38662
41522,18652,38619
41491,18631,38570
41461,18610,38521
41431,18589,38478
41404,18569,38438
41379,18547,38399
41353,18524,38361
41330,18505,38324
41312,18492,38288
41298,18482,38255
41284,18472,38223
41266,18461,38190
41246,18448,38161
41228,18437,38144
41213,18430,38136
41199,18424,38128
41191,18422,38125
41189,18423,38130
41186,18423,38138
41182,18420,38143
41179,18416,38146
41180,18413,38154
41184,18409,38162
41190,18405,38171
41199,18406,38183
41209,18410,38199
41222,18417,38219
41238,18427,38243
41261,18439,38269
41285,18454,38296
41304,18467,38315
41313,18476,38322
41312,18481,38318
41305,18483,38306
41297,18487,38292
41286,18490,38276
41272,18489,38263
41252,18481,38247
41229,18466,38226
41209,18450,38204
41195,18435,38186
41182,18417,38167
41167,18395,38144
41150,18371,38114
41127,18345,38074
41097,18315,38025
41066,18283,37971
41037,18256,37914
41011,18238,37860
40986,18224,37808
40961,18210,37757
40938,18196,37706
40916,18180,37658
40888,18162,37612
40857,18137,37564
40823,18107,37513
40791,18076,37465
40761,18050,37423
40732,18031,37383
40704,18016,37346
40673,18001,37312
40636,17979,37272
40597,17956,37229
40563,17934,37187
40532,17911,37148
40505,17887,37111
40487,17868,37076
40471,17852,37040
40455,17838,37007
40438,17827,36975
40418,17816,36936
40391,17800,36889
40365,17785,36843
40342,17773,36806
40321,17762,36775
40298,17752,36749
40276,17740,36729
40253,17728,36709
40233,17714,36688
40218,17701,36671
40204,17684,36653
40191,17665,36628
40179,17647,36598
40168,17632,36570
40155,17619,36542
40137,17607,36513
40119,17600,36485
40097,17592,36463
40071,17580,36441
40044,17566,36416
40018,17551,36385
39991,17535,36349
39962,17515,36314
39937,17494,36283
39922,17477,36260
39917,17462,36243
39912,17448,36227
39905,17436,36207
39901,17429,36186
39896,17428,36171
39888,17427,36157
39880,17426,36142
39877,17430,36132
39880,17439,36141
39895,17456,36174
39926,17485,36227
39975,17525,36304
40041,17574,36407
40121,17632,36532
40214,17698,36673
40319,17772,36831
40434,17853,37007
40555,17941,37196
40681,18035,37393
40810,18132,37594
40941,18229,37797
41072,18327,38003
41200,18428,38212
41318,18526,38417
41421,18611,38612
41511,18683,38793
41589,18743,38956
41660,18795,39099
41726,18843,39225
41789,18887,39332
41846,18924,39418
41894,18949,39483
41933,18963,39524
41963,18968,39538
41983,18966,39530
41991,18960,39510
41984,18950,39480
41963,18939,39439
41931,18927,39389
41888,18911,39333
41840,18889,39276
41791,18867,39220
41741,18846,39163
41690,18822,39104
41640,18794,39047
41595,18762,38992
41556,18729,38937
41521,18697,38884
41486,18666,38833
41452,18639,38785
41419,18614,38741
41388,18590,38703
41364,18572,38670
41347,18561,38640
41330,18555,38609
41308,18545,38576
41281,18528,38539
41251,18503,38491
41221,18475,38440
41194,18446,38395
41168,18415,38354
41141,18382,38312
41114,18351,38269
41090,18325,38231
41066,18307,38194
41045,18297,38160
41030,18295,38139
41018,18297,38131
41012,18302,38132
41013,18309,38140
41018,18313,38152
41022,18314,38163
41026,18316,38168
41038,18324,38174
41057,18338,38187
41074,18356,38206
41086,18373,38227
41095,18391,38247
41103,18405,38266
41108,18413,38284
41111,18417,38298
41115,18418,38308
41119,18419,38319
41120,18417,38331
41117,18410,38335
41115,18401,38331
41109,18392,38321
41094,18377,38302
41070,18359,38269
41046,18341,38231
41023,18323,38194
40996,18306,38153
40964,18290,38109
40933,18275,38064
40904,18257,38020
40872,18236,37974
40840,18214,37928
40807,18189,37880
40771,18161,37832
40730,18132,37785
40690,18107,37739
40659,18091,37700
40639,18080,37666
40622,18072,37632
40606,18065,37595
40589,18056,37556
40569,18042,37513
40548,18026,37464
40525,18008,37410
40495,17981,37351
40457,17944,37289
40417,17903,37225
40380,17866,37166
40347,17835,37116
40312,17806,37072
40276,17777,37030
40239,17747,36985
40200,17719,36940
40160,17690,36894
40122,17662,36849
40089,17636,36808
40059,17613,36769
40031,17591,36731
40005,17572,36694
39980,17556,36661
39954,17540,36630
39928,17520,36600
39904,17499,36570
39884,17484,36544
39868,17477,36523
39851,17473,36500
39832,17471,36473
39818,17475,36451
39805,17479,36433
39790,17480,36417
39777,17477,36399
39766,17468,36382
39757,17455,36367
39749,17441,36356
39743,17429,36348
39737,17416,36341
39725,17400,36329
39707,17381,36307
39683,17362,36277
39663,17345,36248
39648,17330,36222
39634,17318,36193
39622,17309,36163
39610,17303,36133
39596,17295,36104
39578,17282,36071
39560,17267,36037
39547,17255,36011
39540,17247,35994
39534,17242,35980
39531,17242,35969
39533,17247,35969
39543,17261,35988
39564,17288,36031
39601,17330,36100
39654,17384,36197
39721,17444,36317
39802,17510,36458
39900,17585,36617
40013,17667,36796
40134,17753,36989
40263,17845,37191
40392,17940,37399
40513,18028,37606
40623,18108,37804
40726,18184,37987
40826,18260,38159
40927,18333,38324
41024,18399,38474
41111,18457,38605
41191,18507,38719
41262,18552,38824
41320,18588,38912
41364,18613,38976
41400,18633,39023
41428,18648,39054
41445,18655,39065
41450,18658,39053
41441,18656,39023
41422,18647,38983
41394,18632,38936
41358,18613,38883
41315,18591,38826
41267,18565,38766
41217,18537,38703
41172,18509,38643
41132,18479,38587
41095,18445,38533
41061,18410,38482
41031,18378,38436
41005,18350,38398
40979,18321,38361
40949,18287,38315
40918,18254,38261
40889,18228,38206
40862,18207,38152
40833,18188,38095
40798,18168,38032
40757,18147,37969
40713,18122,37911
40672,18096,37857
40636,18073,37809
40605,18051,37768
40582,18031,37737
40571,18018,37712
40568,18013,37692
40569,18012,37680
40570,18014,37676
40571,18016,37675
40573,18018,37680
40579,18023,37695
40586,18027,37712
40591,18033,37730
40598,18042,37752
40610,18052,37776
40630,18064,37803
40656,18079,37829
40680,18094,37853
40702,18108,37877
40720,18121,37896
40733,18134,37908
40746,18149,37919
40757,18163,37933
40764,18176,37947
40770,18188,37958
40771,18193,37963
40764,18184,37963
40753,18167,37957
40739,18147,37942
40724,18129,37921
40709,18113,37896
40692,18102,37870
40670,18089,37839
40646,18073,37809
40621,18055,37782
40595,18034,37751
40571,18011,37715
40549,17988,37676
40525,17965,37631
40499,17943,37578
40470,17923,37523
40434,17902,37471
40390,17879,37421
40349,17861,37374
40318,17845,37332
40291,17828,37293
40261,17808,37252
40228,17787,37208
40197,17765,37163
40168,17742,37117
40140,17717,37072
40113,17691,37027
40087,17666,36980
40062,17641,36935
40038,17615,36887
40011,17586,36834
39986,17557,36782
39966,17531,36739
39947,17508,36700
39928,17491,36659
39906,17478,36619
39877,17463,36581
39841,17444,36540
39807,17425,36495
39776,17409,36454
39750,17398,36418
39723,17389,36383
39694,17379,36347
39671,17368,36314
39654,17356,36289
39643,17345,36270
39634,17333,36253
39626,17320,36240
39616,17308,36228
39603,17296,36212
39588,17286,36193
39572,17274,36174
39558,17258,36154
39548,17244,36136
39540,17236,36118
39532,17232,36098
39519,17227,36076
39502,17221,36051
39487,17217,36026
39470,17211,35999
39448,17199,35966
39425,17187,35929
39404,17177,35893
39380,17163,35862
39353,17145,35832
39330,17128,35803
39317,17118,35783
39309,17112,35770
39304,17107,35762
39304,17106,35759
39311,17111,35771
39330,17125,35806
39367,17153,35869
39424,17197,35959
39499,17249,36074
39589,17308,36213
39690,17376,36370
39799,17453,36539
39917,17536,36718
40043,17624,36909
40174,17717,37107
40306,17813,37304
40436,17908,37503
40562,18001,37706
40682,18092,37904
40797,18182,38089
40905,18266,38265
40999,18339,38428
41081,18404,38575
41158,18463,38707
41225,18515,38819
41280,18552,38908
41322,18575,38970
41351,18589,39008
41364,18594,39026
41364,18592,39029
41356,18587,39016
41343,18579,38993
41324,18568,38965
41294,18552,38925
41260,18534,38872
41226,18518,38816
41193,18503,38763
41160,18488,38708
41124,18467,38647
41086,18442,38584
41047,18415,38525
41008,18384,38469
40967,18350,38411
40926,18318,38354
40889,18292,38303
40854,18269,38257
40820,18244,38209
40790,18218,38162
40761,18190,38118
40731,18162,38077
40702,18135,38033
40675,18113,37991
40645,18094,37950
40611,18072,37905
40582,18051,37857
40560,18036,37813
40542,18029,37777
40524,18027,37744
40506,18025,37707
40487,18020,37670
40470,18011,37638
40459,18004,37612
40455,17999,37592
40456,17995,37583
40463,17993,37589
40475,17996,37605
40488,18001,37626
40501,18006,37651
40514,18010,37681
40527,18015,37713
40541,18022,37745
40557,18026,37773
40570,18030,37796
40581,18039,37816
40592,18055,37837
40605,18072,37858
40613,18085,37877
40613,18092,37889
40608,18095,37894
40605,18096,37900
40602,18096,37907
40595,18096,37907
40588,18095,37901
40578,18090,37892
40562,18079,37877
40539,18061,37851
40514,18037,37818
40489,18013,37788
40463,17990,37756
40432,17964,37714
40402,17936,37666
40372,17908,37617
40339,17880,37564
40304,17853,37506
40267,17825,37448
40231,17798,37394
40200,17773,37343
40172,17751,37294
40144,17732,37247
40114,17711,37199
40082,17690,37149
40050,17669,37101
40018,17649,37053
39986,17625,37003
39960,17601,36954
39937,17581,36905
39912,17562,36857
39886,17543,36807
39859,17526,36755
39832,17512,36702
39800,17500,36653
39765,17483,36606
39727,17463,36559
39690,17445,36515
39660,17427,36477
39636,17406,36444
39618,17386,36412
39602,17367,36381
39583,17347,36356
39561,17326,36332
39536,17305,36303
39509,17283,36270
39480,17262,36239
39452,17240,36211
39428,17217,36183
39408,17194,36155
39391,17174,36131
39383,17159,36114
39380,17150,36098
39378,17142,36084
39374,17134,36067
39364,17123,36041
39354,17109,36006
39345,17097,35973
39336,17088,35949
39325,17082,35928
39312,17075,35904
39298,17067,35877
39281,17055,35850
39265,17045,35822
39255,17040,35794
39249,17038,35770
39240,17035,35746
39226,17030,35717
39208,17024,35688
39187,17018,35660
39162,17010,35630
39135,17000,35600
39107,16987,35570
39081,16972,35544
39058,16956,35520
39036,16938,35496
39020,16924,35480
39015,16921,35481
39020,16929,35502
39041,16948,35547
39085,16980,35619
39149,17026,35716
39228,17084,35840
39320,17150,35986
39426,17226,36154
39547,17315,36346
39680,17415,36555
39820,17521,36772
39962,17632,36994
40104,17742,37220
40240,17848,37441
40369,17945,37651
40494,18036,37853
40615,18123,38047
40728,18203,38228
40832,18277,38389
40923,18342,38533
40997,18397,38661
41062,18445,38773
41121,18489,38864
41175,18526,38933
41220,18556,38988
41250,18577,39026
41263,18588,39043
41257,18588,39040
41238,18577,39024
41210,18560,38995
41180,18540,38954
41150,18519,38908
41117,18497,38861
41083,18471,38810
41047,18442,38755
41009,18409,38700
40969,18376,38646
40933,18345,38596
40904,18320,38551
40879,18297,38513
40856,18276,38480
40835,18255,38446
40817,18237,38414
40799,18218,38384
40776,18199,38351
40750,18181,38316
40725,18167,38283
40700,18150,38251
40675,18128,38211
40653,18107,38166
40635,18088,38120
40611,18069,38073
40580,18049,38025
40546,18032,37975
40514,18018,37927
40487,18010,37889
40465,18008,37863
40446,18007,37839
40426,18000,37812
40406,17987,37785
40391,17974,37762
40383,17965,37746
40381,17959,37737
40384,17960,37738
40391,17965,37744
40401,17970,37752
40410,17973,37761
40413,17975,37771
40415,17976,37783
40419,17978,37797
40426,17980,37815
40433,17979,37835
40436,17976,37848
40435,17971,37854
40433,17965,37858
40429,17959,37861
40426,17958,37861
40422,17958,37857
40417,17956,37847
40412,17951,37834
40404,17946,37818
40392,17939,37800
40373,17924,37781
40348,17902,37756
40318,17876,37722
40286,17848,37682
40259,17823,37640
40235,17801,37597
40212,17781,37549
40190,17763,37501
40166,17745,37454
40138,17726,37407
40109,17712,37361
40084,17703,37321
40060,17694,37285
40031,17681,37245
39997,17666,37198
39963,17649,37146
39933,17632,37097
39904,17614,37051
39871,17593,37002
39834,17568,36949
39798,17538,36896
39766,17506,36842
39740,17477,36789
39719,17451,36741
39694,17422,36693
39663,17391,36640
39631,17364,36587
39600,17342,36539
39567,17324,36496
39533,17308,36453
39497,17294,36410
39464,17283,36369
39432,17272,36329
39402,17258,36288
39379,17243,36250
39363,17228,36221
39347,17212,36195
39328,17193,36163
39306,17173,36129
39286,17156,36100
39264,17143,36073
39239,17129,36040
39215,17116,36008
39196,17110,35983
39181,17109,35966
39168,17110,35952
39158,17112,35940
39150,17113,35928
39139,17109,35913
39123,17098,35891
39100,17082,35863
39076,17064,35836
39049,17042,35809
39019,17019,35781
38994,16998,35754
38975,16981,35732
38956,16967,35710
38939,16953,35692
38930,16942,35680
38922,16930,35668
38914,16912,35649
38908,16893,35625
38908,16879,35600
38905,16864,35573
38896,16847,35537
38884,16829,35498
38872,16812,35468
38863,16800,35449
38856,16797,35436
38853,16803,35433
38859,16822,35453
38877,16851,35501
38905,16890,35570
38946,16939,35660
39001,16998,35775
39074,17069,35916
39167,17152,36077
39276,17241,36256
39392,17332,36451
39514,17420,36656
39642,17507,36868
39778,17599,37088
39915,17692,37312
40046,17781,37530
40169,17868,37736
40288,17954,37933
40399,18033,38117
40497,18100,38280
40580,18153,38416
40651,18197,38530
40712,18236,38627
40759,18270,38705
40792,18299,38758
40812,18322,38784
40819,18335,38791
40816,18340,38783
40804,18336,38761
40782,18324,38727
40752,18304,38686
40718,18280,38636
40685,18253,38579
40649,18221,38519
40610,18182,38460
40569,18140,38404
40529,18104,38348
40491,18075,38295
40452,18048,38244
40415,18023,38194
40381,18001,38143
40347,17982,38093
40310,17966,38043
40273,17952,37988
40233,17935,37930
40193,17915,37877
40157,17897,37832
40125,17879,37790
40093,17858,37746
40059,17829,37699
40025,17795,37650
39993,17762,37603
39965,17732,37560
39939,17704,37521
39912,17678,37479
39886,17654,37432
39864,17637,37386
39843,17629,37349
39823,17624,37321
39802,17621,37297
39782,17616,37275
39767,17611,37262
39760,17607,37264
39760,17605,37275
39764,17604,37291
39771,17603,37310
39778,17602,37327
39792,17605,37341
39814,17614,37356
39839,17628,37373
39862,17646,37391
39884,17664,37410
39903,17679,37432
39921,17690,37456
39937,17698,37483
39954,17708,37508
39969,17716,37527
39974,17718,37537
39970,17716,37538
39965,17716,37536
39962,17718,37532
39954,17716,37523
39937,17710,37506
39917,17702,37482
39894,17691,37455
39870,17678,37426
39845,17665,37394
39821,17651,37360
39799,17636,37326
39774,17622,37291
39746,17607,37251
39719,17591,37210
39691,17577,37171
39658,17563,37129
39617,17541,37080
39572,17512,37024
39534,17480,36971
39505,17450,36923
39479,17423,36876
39454,17397,36828
39430,17368,36783
39402,17339,36739
39372,17312,36690
39341,17287,36637
39311,17260,36585
39284,17232,36535
39261,17206,36483
39237,17180,36429
39208,17153,36372
39173,17125,36315
39138,17100,36261
39106,17081,36217
39074,17064,36181
39044,17044,36145
39018,17022,36108
39001,17003,36076
38990,16989,36051
38979,16981,36029
38965,16978,36010
38951,16977,35994
38933,16973,35973
38914,16965,35943
38900,16958,35913
38887,16955,35888
38868,16948,35866
38846,16937,35843
38825,16923,35819
38808,16909,35799
38794,16899,35787
38783,16891,35776
38771,16879,35759
38760,16863,35739
38756,16847,35719
38758,16836,35699
38757,16826,35677
38752,16814,35652
38741,16800,35624
38728,16788,35594
38710,16776,35564
38687,16761,35536
38658,16745,35508
38632,16733,35483
38617,16727,35463
38610,16724,35448
38607,16721,35432
38608,16718,35415
38615,16716,35402
38627,16717,35399
38639,16720,35407
38653,16726,35427
38674,16742,35470
38710,16772,35544
38766,16822,35648
38842,16890,35778
38935,16967,35931
39035,17047,36098
39143,17130,36276
39259,17219,36465
39381,17316,36666
39508,17416,36874
39634,17513,37076
39755,17605,37267
39869,17692,37449
39977,17776,37627
40080,17856,37801
40177,17926,37961
40260,17985,38100
40326,18030,38217
40379,18066,38310
40424,18095,38384
40461,18117,38441
40482,18128,38476
40487,18128,38486
40480,18122,38480
40469,18118,38467
40455,18113,38446
40437,18104,38415
40416,18091,38377
40391,18074,38332
40359,18051,38275
40321,18024,38209
40285,17993,38138
40248,17957,38071
40209,17920,38011
40172,17884,37957
40137,17849,37904
40101,17817,37852
40066,17791,37800
40030,17771,37746
39992,17754,37690
39953,17734,37632
39913,17712,37570
39872,17685,37500
39832,17656,37427
39791,17623,37356
39747,17590,37285
39708,17559,37218
39675,17533,37159
39643,17510,37105
39608,17487,37049
39575,17464,36994
39548,17443,36950
39525,17424,36918
39507,17410,36901
39499,17405,36895
39500,17406,36899
39503,17411,36909
39504,17422,36918
39508,17438,36927
39516,17456,36939
39528,17473,36956
39545,17487,36978
39571,17503,37006
39604,17518,37041
39638,17531,37077
39665,17541,37107
39685,17549,37134
39701,17557,37164
39712,17566,37194
39718,17573,37215
39721,17578,37226
39720,17584,37232
39718,17595,37240
39717,17606,37247
39713,17614,37248
39705,17614,37245
39691,17604,37235
39675,17588,37217
39659,17568,37194
39640,17545,37167
39619,17522,37133
39598,17501,37088
39580,17481,37038
39562,17462,36989
39539,17443,36940
39514,17423,36891
39490,17404,36846
39465,17382,36804
39436,17357,36757
39403,17332,36705
39365,17308,36651
39325,17283,36599
39289,17260,36551
39257,17236,36508
39226,17210,36467
39196,17183,36427
39169,17158,36388
39144,17137,36345
39116,17118,36296
39083,17099,36241
39045,17080,36182
39004,17060,36122
38966,17039,36068
38934,17017,36025
38905,16997,35986
38881,16979,35946
38862,16962,35907
38845,16944,35871
38830,16929,35836
38816,16920,35801
38799,16912,35770
38779,16904,35740
38755,16897,35709
38729,16890,35679
38703,16881,35653
38677,16869,35631
38655,16859,35611
38639,16851,35594
38627,16842,35581
38618,16833,35569
38614,16823,35548
38611,16810,35520
38604,16792,35490
38590,16771,35457
38573,16756,35423
38556,16748,35396
38537,16740,35373
38519,16732,35354
38506,16724,35337
38494,16714,35322
38481,16701,35307
38468,16685,35286
38458,16669,35263
38450,16657,35240
38439,16644,35216
38423,16630,35188
38400,16616,35155
38372,16603,35122
38342,16593,35092
38312,16582,35060
38282,16569,35025
38257,16556,34991
38237,16541,34960
38222,16526,34935
38216,16515,34924
38218,16507,34930
38227,16504,34946
38247,16510,34975
38281,16532,35022
38330,16570,35092
38394,16621,35187
38472,16688,35307
38565,16766,35454
38673,16858,35631
38798,16965,35835
38936,17081,36055
39083,17200,36289
39230,17316,36531
39372,17424,36772
39512,17528,37009
39654,17629,37244
39797,17728,37475
39934,17821,37697
40063,17907,37905
40183,17985,38095
40292,18053,38262
40381,18110,38399
40454,18156,38505
40514,18192,38588
40556,18215,38646
40577,18231,38678
40586,18245,38692
40585,18260,38696
40579,18269,38692
40566,18271,38678
40545,18265,38654
40516,18248,38623
40481,18225,38583
40444,18198,38534
40406,18171,38478
40371,18142,38420
40335,18111,38361
40299,18079,38301
40265,18050,38244
40232,18025,38195
40201,17999,38153
40170,17973,38113
40141,17948,38072
40114,17927,38031
40086,17906,37986
40050,17882,37935
40009,17860,37884
39974,17845,37840
39944,17832,37799
39914,17815,37753
39888,17796,37709
39865,17775,37666
39841,17751,37619
39822,17728,37572
39806,17706,37531
39787,17682,37494
39765,17654,37457
39745,17627,37422
39734,17611,37397
39732,17605,37384
39735,17606,37378
39740,17610,37370
39742,17614,37364
39742,17618,37365
39743,17620,37372
39748,17620,37379
39753,17623,37384
39758,17628,37392
39765,17636,37405
39775,17648,37424
39789,17665,37448
39800,17684,37476
39806,17700,37498
39811,17714,37514
39818,17726,37529
39824,17735,37542
39825,17739,37546
39821,17739,37541
39813,17735,37531
39804,17729,37519
39794,17727,37507
39782,17722,37492
39769,17712,37476
39756,17696,37460
39742,17677,37440
39732,17660,37421
39724,17647,37409
39714,17636,37398
39701,17625,37381
39682,17611,37357
39658,17591,37325
39631,17569,37286
39603,17546,37239
39573,17522,37188
39535,17494,37133
39492,17458,37073
39450,17420,37006
39414,17385,36941
39380,17356,36883
39340,17326,36827
39298,17297,36769
39261,17273,36717
39233,17255,36673
39208,17238,36631
39182,17222,36587
39155,17204,36545
39127,17183,36503
39097,17158,36458
39068,17132,36407
39040,17109,36355
39013,17090,36303
38986,17072,36250
38955,17053,36192
38922,17030,36129
38886,17005,36066
38850,16983,36010
38812,16965,35964
38775,16950,35926
38735,16931,35891
38694,16910,35855
38660,16893,35822
38635,16878,35796
38617,16861,35773
38601,16841,35745
38585,16821,35713
38570,16801,35684
38550,16782,35659
38528,16761,35630
38505,16738,35596
38481,16718,35560
38457,16700,35525
38433,16683,35491
38415,16669,35463
38401,16658,35442
38386,16648,35420
38370,16638,35391
38351,16628,35355
38327,16616,35317
38303,16606,35279
38283,16601,35243
38269,16599,35211
38255,16597,35186
38231,16588,35160
38201,16573,35129
38170,16557,35096
38142,16539,35064
38116,16522,35034
38093,16505,35003
38074,16491,34974
38056,16479,34950
38038,16470,34933
38028,16467,34923
38035,16473,34930
38059,16492,34959
38097,16519,35014
38152,16558,35100
38224,16607,35216
38310,16663,35356
38413,16730,35518
38533,16810,35700
38661,16900,35899
38795,16997,36114
38937,17103,36341
39082,17215,36573
39225,17327,36804
39364,17433,37030
39496,17531,37247
39620,17624,37455
39737,17712,37656
39845,17793,37842
39943,17867,38004
40030,17933,38146
40107,17992,38271
40172,18044,38378
40223,18086,38462
40257,18115,38522
40276,18132,38562
40282,18140,38581
40280,18139,38578
40269,18133,38559
40249,18122,38533
40221,18110,38501
40188,18093,38458
40155,18070,38411
40125,18042,38367
40093,18010,38323
40058,17975,38271
40019,17936,38214
39977,17897,38156
39938,17862,38097
39904,17834,38038
39872,17810,37979
39836,17783,37918
39798,17754,37854
39761,17727,37789
39727,17703,37727
39695,17682,37673
39665,17665,37626
39640,17653,37583
39619,17644,37545
39597,17634,37509
39568,17617,37465
39535,17595,37415
39501,17570,37370
39465,17541,37329
39426,17510,37287
39390,17480,37243
39361,17456,37205
39341,17439,37177
39329,17429,37156
39327,17429,37144
39331,17434,37142
39337,17442,37145
39342,17450,37151
39347,17459,37165
39358,17474,37193
39370,17492,37227
39383,17511,37261
39398,17529,37293
39418,17545,37321
39440,17557,37341
39460,17567,37351
39477,17575,37359
39493,17583,37372
39513,17593,37395
39532,17606,37421
39545,17618,37446
39551,17627,37468
39555,17633,37486
39561,17638,37497
39568,17640,37501
39572,17637,37501
39574,17629,37495
39573,17619,37482
39567,17607,37463
39553,17593,37440
39537,17579,37408
39518,17562,37364
39498,17546,37317
39476,17528,37268
39451,17508,37213
39422,17484,37154
39389,17456,37096
39353,17426,37041
39321,17398,36988
39293,17371,36935
39265,17341,36881
39232,17309,36827
39196,17283,36777
39157,17262,36733
39112,17240,36688
39063,17212,36639
39017,17185,36589
38978,17159,36542
38940,17132,36498
38901,17102,36452
38862,17073,36402
38828,17044,36357
38798,17015,36318
38770,16989,36280
38747,16969,36243
38730,16953,36209
38715,16935,36171
38699,16916,36127
38684,16902,36082
38668,16889,36042
38648,16872,36004
38623,16854,35966
38600,16839,35929
38582,16830,35898
38564,16823,35870
38539,16811,35842
38508,16795,35813
38477,16777,35787
38449,16759,35764
38425,16744,35742
38404,16733,35718
38387,16723,35693
38371,16714,35670
38354,16705,35647
38337,16696,35621
38324,16689,35600
38312,16683,35581
38302,16679,35558
38298,16673,35532
38298,16668,35508
38296,16662,35484
38285,16652,35454
38270,16637,35422
38256,16621,35394
38242,16604,35369
38230,16587,35341
38220,16572,35314
38209,16559,35293
38197,16549,35275
38182,16544,35257
38169,16545,35246
38162,16551,35251
38164,16562,35274
38185,16580,35318
38223,16608,35386
38273,16643,35473
38337,16689,35579
38416,16747,35701
38509,16818,35843
38613,16902,36010
38726,16998,36196
38842,17100,36393
38963,17204,36600
39091,17309,36817
39220,17411,37032
39345,17506,37237
39463,17593,37433
39577,17671,37621
39685,17740,37794
39788,17805,37951
39885,17866,38091
39972,17921,38213
40044,17971,38315
40101,18010,38396
40145,18041,38459
40174,18063,38505
40188,18076,38535
40192,18080,38550
40189,18075,38552
40176,18058,38538
40155,18034,38504
40130,18007,38456
40100,17976,38402
40061,17944,38342
40018,17914,38277
39978,17889,38213
39941,17868,38151
39903,17846,38088
39863,17822,38023
39824,17798,37958
39785,17772,37897
39747,17744,37837
39711,17718,37778
39679,17695,37718
39649,17673,37660
39614,17651,37600
39571,17624,37535
39526,17595,37471
39485,17564,37410
39450,17534,37348
39416,17510,37286
39383,17487,37225
39349,17461,37169
39317,17432,37118
39294,17410,37074
39282,17397,37042
39274,17389,37021
39270,17386,37005
39270,17386,36991
39271,17383,36981
39272,17380,36981
39277,17381,36991
39290,17387,37012
39308,17393,37045
39332,17401,37086
39360,17414,37131
39391,17430,37175
39421,17450,37217
39452,17475,37260
39483,17504,37296
39509,17532,37325
39529,17556,37351
39540,17575,37377
39542,17588,37398
39540,17597,37414
39542,17604,37429
39546,17612,37444
39550,17616,37455
39555,17618,37462
39560,17618,37466
39558,17612,37461
39548,17599,37444
39536,17584,37426
39527,17571,37411
39518,17553,37389
39507,17533,37354
39499,17515,37317
39488,17496,37281
39470,17475,37238
39444,17455,37190
39415,17439,37141
39384,17421,37091
39350,17399,37035
39312,17376,36977
39271,17352,36920
39231,17326,36868
39194,17299,36817
39163,17275,36768
39137,17252,36720
39112,17227,36676
39085,17202,36632
39057,17178,36586
39030,17154,36540
39000,17130,36495
38969,17106,36448
38938,17083,36403
38911,17062,36369
38887,17044,36340
38862,17025,36307
38837,17006,36268
38814,16988,36234
38793,16973,36206
38776,16963,36181
38764,16959,36158
38755,16959,36134
38746,16956,36108
38735,16949,36078
38720,16939,36047
38700,16927,36020
38680,16916,35998
38665,16911,35981
38657,16909,35968
38655,16907,35960
38650,16901,35948
38643,16890,35925
38638,16876,35896
38634,16862,35868
38628,16849,35841
38620,16838,35811
38608,16825,35781
38592,16810,35749
38574,16792,35714
38554,16774,35672
38531,16756,35633
38504,16737,35603
38475,16721,35580
38448,16708,35561
38424,16695,35544
38401,16679,35526
38378,16659,35499
38360,16642,35471
38350,16628,35450
38350,16620,35438
38360,16621,35438
38379,16632,35456
38410,16657,35503
38454,16696,35580
38510,16747,35679
38577,16807,35794
38658,16877,35933
38755,16958,36098
38866,17048,36286
38995,17150,36497
39138,17264,36730
39284,17382,36974
39430,17499,37221
39582,17617,37470
39736,17735,37722
39886,17853,37971
40029,17967,38207
40165,18073,38425
40288,18166,38624
40395,18246,38798
40490,18314,38947
40575,18375,39078
40649,18425,39191
40709,18463,39281
40755,18490,39347
40789,18508,39389
40811,18516,39414
40822,18517,39422
40825,18513,39414
40823,18509,39396
40813,18500,39373
40795,18489,39342
40770,18476,39301
40742,18459,39255
40708,18436,39203
40670,18409,39146
40628,18379,39086
40591,18350,39029
40563,18324,38980
40539,18300,38934
40516,18275,38887
40492,18248,38847
40468,18225,38819
40446,18209,38798
40429,18199,38780
40412,18191,38761
40392,18180,38734
40369,18166,38698
40345,18150,38654
40316,18129,38603
40285,18106,38553
40255,18087,38503
40231,18074,38453
40208,18062,38401
40184,18049,38352
40164,18040,38309
40150,18036,38273
40142,18034,38246
40133,18027,38225
40126,18018,38204
40124,18008,38188
40126,17999,38181
40125,17989,38181
40122,17981,38185
40124,17978,38196
40132,17980,38218
40147,17989,38248
40166,18001,38280
40185,18016,38312
40204,18028,38345
40221,18037,38378
40236,18042,38407
40251,18046,38435
40264,18049,38462
40276,18054,38487
40290,18062,38509
40303,18065,38529
40307,18062,38544
40301,18054,38551
40293,18050,38551
40284,18050,38552
40272,18050,38550
40257,18049,38541
40244,18048,38526
40230,18043,38506
40208,18029,38473
40174,18008,38426
40136,17984,38373
40100,17959,38321
40066,17933,38272
40035,17907,38223
40007,17880,38171
39981,17850,38116
39955,17819,38060
39931,17795,38002
39913,17777,37950
39897,17762,37907
39879,17746,37869
39858,17729,37827
39838,17718,37785
39812,17709,37742
39778,17697,37695
39742,17682,37642
39705,17668,37586
39670,17654,37537
39634,17640,37494
39599,17625,37451
39566,17606,37407
39533,17584,37364
39498,17559,37316
39462,17534,37262
39427,17510,37215
39395,17489,37181
39368,17474,37157
39349,17466,37139
39339,17462,37126
39333,17457,37117
39326,17446,37102
39314,17430,37077
39302,17412,37049
39289,17396,37019
39277,17383,36986
39265,17374,36951
39255,17365,36919
39249,17357,36896
39241,17347,36876
39226,17332,36851
39207,17311,36821
39187,17287,36787
39172,17266,36755
39162,17255,36730
39156,17250,36716
39150,17250,36706
39141,17252,36695
39131,17257,36686
39120,17262,36680
39108,17260,36670
39091,17247,36649
39067,17224,36617
39036,17196,36580
39003,17168,36539
38972,17142,36494
38944,17119,36452
38921,17100,36418
38901,17087,36390
38890,17080,36370
38894,17085,36367
38913,17103,36387
38947,17131,36429
38995,17167,36490
39059,17215,36576
39143,17277,36694
39244,17349,36837
39357,17428,36998
39485,17516,37183
39622,17611,37388
39760,17710,37605
39901,17815,37831
40049,17924,38068
40200,18030,38310
40349,18133,38548
40493,18235,38780
40630,18334,39003
40757,18426,39213
40873,18513,39408
40978,18592,39586
41071,18661,39746
41147,18717,39883
41208,18761,39992
41259,18797,40079
41297,18824,40145
41320,18836,40184
41326,18835,40196
41320,18826,40187
41305,18811,40162
41282,18791,40127
41259,18773,40087
41238,18758,40044
41210,18742,39999
41175,18726,39953
41141,18712,39904
41111,18702,39855
41083,18687,39805
41052,18664,39747
41021,18638,39685
40994,18614,39629
40971,18594,39582
40951,18578,39538
40932,18563,39494
40913,18549,39452
40890,18531,39412
40860,18509,39370
40825,18487,39326
40787,18465,39281
40747,18440,39233
40703,18409,39181
40662,18376,39127
40624,18345,39073
40586,18320,39024
40549,18299,38979
40516,18281,38936
40489,18264,38898
40465,18243,38863
40441,18224,38827
40422,18213,38797
40410,18210,38777
40404,18211,38768
40405,18216,38768
40412,18227,38778
40420,18241,38795
40424,18248,38811
40423,18246,38820
40422,18240,38826
40428,18236,38842
40442,18237,38866
40460,18241,38890
40480,18250,38916
40498,18262,38942
40508,18271,38962
40515,18278,38973
40522,18283,38977
40526,18284,38979
40523,18282,38977
40517,18277,38968
40509,18270,38953
40498,18260,38937
40485,18247,38916
40468,18234,38889
40449,18220,38860
40427,18205,38835
40403,18193,38811
40384,18185,38786
40371,18183,38767
40361,18178,38750
40347,18165,38721
40327,18147,38679
40304,18129,38633
40279,18110,38591
40253,18088,38552
40228,18064,38515
40202,18041,38481
40174,18019,38448
40144,18000,38411
40114,17983,38368
40084,17967,38325
40050,17949,38279
40012,17925,38229
39975,17899,38179
39942,17871,38137
39912,17843,38101
39885,17817,38068
39863,17796,38041
39846,17777,38019
39832,17760,37997
39814,17740,37965
39788,17716,37921
39757,17688,37871
39723,17658,37820
39691,17628,37768
39667,17606,37721
39651,17591,37685
39641,17581,37658
39632,17574,37631
39623,17570,37603
39616,17566,37578
39605,17560,37549
39590,17550,37512
39573,17539,37474
39553,17525,37439
39530,17509,37407
39506,17493,37378
39485,17479,37351
39468,17466,37325
39452,17454,37296
39438,17446,37267
39428,17442,37241
39416,17439,37219
39395,17433,37197
39371,17425,37175
39352,17418,37156
39338,17410,37142
39326,17402,37127
39318,17396,37107
39315,17394,37088
39310,17391,37070
39304,17386,37049
39300,17383,37024
39296,17381,37006
39291,17379,36993
39286,17375,36977
39282,17374,36957
39280,17376,36941
39283,17382,36937
39292,17392,36944
39309,17404,36966
39337,17420,37011
39381,17445,37081
39441,17481,37174
39519,17532,37294
39613,17593,37438
39723,17662,37599
39850,17742,37778
39985,17834,37973
40123,17937,38183
40256,18046,38398
40384,18153,38611
40506,18256,38821
40625,18354,39026
40740,18445,39225
40851,18530,39415
40958,18609,39596
41054,18677,39764
41138,18735,39909
41211,18784,40024
41270,18822,40110
41310,18850,40172
41333,18869,40212
41340,18884,40233
41337,18894,40242
41326,18894,40240
41308,18883,40226
41286,18869,40203
41261,18854,40178
41236,18836,40152
41215,18816,40119
41198,18794,40077
41181,18774,40034
41155,18751,39986
41119,18724,39931
41081,18698,39876
41047,18674,39825
41014,18653,39772
40979,18635,39718
40948,18620,39665
40921,18604,39618
40896,18590,39574
40873,18576,39529
40850,18560,39479
40823,18542,39426
40795,18526,39376
40772,18514,39330
40757,18508,39291
40749,18506,39260
40743,18504,39234
40732,18494,39204
40719,18482,39177
40709,18470,39158
40700,18457,39139
40692,18445,39115
40689,18440,39097
40693,18439,39091
40701,18440,39091
40714,18445,39093
40731,18456,39103
40751,18468,39124
40772,18480,39150
40794,18494,39176
40816,18509,39205
40835,18521,39234
40846,18526,39259
40854,18531,39280
40864,18536,39308
40873,18538,39337
40882,18538,39360
40897,18544,39377
40915,18554,39393
40929,18564,39404
40934,18570,39402
40930,18573,39389
40921,18570,39368
40905,18562,39347
40886,18552,39326
40866,18545,39302
40842,18538,39279
40814,18528,39257
40780,18513,39229
40744,18492,39195
40714,18468,39164
40689,18445,39136
40663,18421,39103
40638,18395,39064
40614,18367,39027
40587,18339,38989
40555,18311,38941
40525,18286,38886
40498,18262,38833
40470,18240,38782
40440,18218,38730
40407,18197,38676
40375,18177,38624
40342,18158,38571
40311,18139,38514
40285,18122,38460
40262,18105,38412
40238,18086,38363
40214,18065,38315
40194,18045,38274
40171,18023,38235
40144,17998,38195
40118,17973,38153
40097,17948,38112
40077,17924,38073
40055,17901,38033
40033,17884,37994
40012,17871,37959
39993,17858,37929
39973,17843,37899
39954,17828,37871
39937,17813,37846
39921,17798,37826
39907,17785,37808
39894,17776,37787
39878,17769,37764
39861,17766,37741
39845,17764,37713
39834,17763,37683
39828,17763,37658
39821,17763,37638
39813,17761,37615
39806,17760,37591
39799,17758,37568
39790,17755,37544
39778,17750,37513
39762,17739,37473
39743,17727,37433
39723,17715,37397
39703,17702,37362
39686,17689,37329
39671,17675,37304
39655,17660,37280
39638,17646,37256
39624,17637,37236
39611,17631,37226
39599,17629,37223
39592,17633,37225
39595,17643,37240
39614,17659,37275
39653,17685,37333
39712,17724,37415
39785,17774,37521
39869,17832,37649
39965,17901,37794
40070,17980,37954
40183,18067,38132
40303,18158,38325
40430,18255,38529
40567,18359,38738
40707,18467,38945
40840,18568,39144
40965,18662,39331
41083,18751,39504
41196,18836,39667
41299,18909,39816
41386,18967,39945
41460,19018,40057
41524,19066,40157
41576,19107,40244
41618,19141,40317
41650,19166,40374
41670,19176,40413
41675,19173,40433
41671,19162,40434
41664,19150,40423
41656,19137,40403
41641,19120,40371
41620,19098,40327
41593,19074,40278
41563,19048,40229
41530,19022,40179
41501,19000,40127
41481,18985,40082
41467,18975,40047
41453,18965,40015
41430,18951,39976
41402,18935,39934
41377,18921,39893
41355,18911,39852
41336,18902,39810
41315,18892,39768
41289,18873,39721
41260,18845,39667
41231,18812,39610
41200,18777,39558
41167,18745,39516
41135,18715,39478
41107,18688,39439
41082,18665,39404
41057,18643,39373
41031,18621,39340
41005,18604,39305
40983,18593,39277
40966,18588,39255
40953,18586,39238
40943,18585,39227
40938,18588,39224
40937,18591,39224
40934,18591,39223
40933,18589,39223
40939,18592,39234
40952,18602,39252
40963,18615,39269
40975,18630,39284
40989,18645,39297
41002,18656,39308
41014,18664,39317
41027,18669,39327
41038,18668,39336
41042,18662,39342
41042,18654,39343
41044,18649,39344
41048,18646,39344
41049,18643,39338
41044,18639,39321
41035,18633,39298
41021,18628,39275
41005,18623,39252
40988,18616,39224
40968,18607,39190
40945,18599,39155
40918,18592,39121
40885,18582,39081
40847,18566,39037
40801,18542,38990
40754,18513,38939
40708,18485,38885
40665,18459,38833
40625,18434,38786
40591,18410,38739
40567,18386,38692
40548,18363,38646
40529,18338,38600
40510,18310,38550
40491,18281,38494
40472,18251,38440
40451,18218,38388
40426,18185,38339
40403,18160,38294
40381,18140,38256
40357,18122,38222
40330,18106,38184
40305,18093,38144
40284,18082,38109
40263,18071,38078
40241,18058,38047
40220,18043,38013
40198,18023,37978
40177,18002,37946
40155,17980,37910
40136,17958,37874
40121,17939,37842
40109,17922,37811
40100,17906,37778
40094,17895,37749
40089,17891,37727
40082,17890,37705
40073,17887,37682
40059,17879,37660
40039,17863,37638
40016,17841,37612
39992,17817,37579
39968,17792,37541
39941,17768,37503
39915,17747,37468
39893,17733,37438
39876,17724,37415
39862,17717,37399
39847,17709,37381
39832,17703,37358
39814,17695,37330
39788,17681,37296
39757,17662,37256
39725,17642,37211
39698,17623,37168
39672,17603,37126
39647,17583,37081
39626,17568,37041
39609,17560,37010
39592,17552,36986
39574,17543,36961
39552,17535,36934
39529,17528,36908
39507,17521,36881
39489,17516,36855
39481,17516,36838
39485,17523,36842
39498,17537,36869
39520,17559,36914
39557,17592,36982
39612,17638,37080
39682,17695,37203
39765,17760,37341
39862,17836,37500
39975,17923,37679
40101,18017,37871
40236,18117,38063
40378,18222,38260
40522,18328,38461
40663,18435,38661
40797,18539,38851
40923,18635,39031
41039,18722,39198
41141,18796,39348
41228,18859,39478
41304,18910,39588
41367,18952,39679
41419,18985,39753
41461,19014,39814
41500,19037,39863
41534,19055,39900
41558,19062,39921
41567,19056,39927
41564,19044,39924
41554,19028,39917
41540,19010,39900
41524,18992,39871
41506,18977,39838
41483,18963,39802
41456,18950,39759
41430,18937,39710
41402,18923,39660
41370,18902,39614
41334,18878,39570
41300,18854,39530
41274,18832,39498
41253,18812,39471
41237,18796,39447
41227,18781,39424
41216,18764,39400
41201,18744,39371
41184,18725,39339
41168,18711,39308
41149,18698,39277
41123,18681,39242
41092,18661,39200
41061,18642,39158
41032,18626,39119
41002,18611,39081
40975,18604,39047
40952,18602,39019
40933,18600,38992
40915,18595,38962
40899,18587,38931
40889,18580,38910
40884,18574,38900
40884,18568,38896
40891,18562,38898
40902,18558,38907
40914,18557,38920
40923,18559,38931
40928,18564,38940
40930,18574,38950
40933,18587,38961
40936,18601,38972
40940,18613,38979
40945,18623,38985
40945,18630,38992
40941,18635,38997
40936,18637,38998
40931,18637,38996
40924,18631,38987
40915,18621,38969
40907,18607,38947
40897,18590,38927
40885,18571,38908
40873,18551,38886
40860,18529,38860
40845,18505,38831
40825,18480,38801
40803,18459,38770
40780,18443,38738
40751,18427,38704
40715,18408,38663
40677,18388,38611
40639,18366,38550
40602,18342,38490
40569,18320,38438
40537,18301,38390
40510,18279,38342
40488,18254,38296
40466,18225,38251
40442,18197,38204
40414,18172,38159
40383,18148,38120
40354,18124,38084
40327,18102,38046
40298,18082,38006
40267,18063,37967
40239,18049,37929
40214,18035,37888
40193,18020,37847
40169,18000,37807
40141,17972,37761
40112,17942,37713
40087,17919,37672
40066,17905,37642
40044,17894,37612
40023,17886,37580
40006,17881,37553
39993,17876,37529
39977,17863,37502
39959,17844,37472
39940,17821,37444
39918,17800,37417
39893,17783,37388
39866,17770,37360
39840,17759,37332
39813,17750,37304
39790,17743,37270
39772,17738,37237
39761,17733,37211
39751,17726,37188
39742,17717,37161
39735,17707,37136
39729,17693,37111
39717,17673,37081
39700,17651,37046
39685,17632,37016
39670,17618,36989
39652,17605,36958
39633,17593,36919
39614,17580,36879
39590,17564,36841
39564,17545,36800
39541,17526,36755
39519,17506,36713
39498,17483,36677
39477,17463,36648
39459,17448,36624
39443,17432,36604
39425,17414,36585
39402,17394,36563
39379,17376,36538
39361,17360,36519
39351,17349,36512
39352,17346,36519
39365,17355,36545
39391,17376,36593
39431,17409,36662
39482,17451,36744
39543,17500,36837
39613,17557,36949
39693,17621,37080
39780,17690,37219
39871,17763,37363
39970,17838,37516
40073,17913,37675
40178,17990,37838
40287,18072,38004
40395,18155,38169
40497,18232,38324
40591,18304,38466
40680,18370,38599
40764,18429,38724
40838,18477,38834
40898,18514,38927
40947,18546,39007
40989,18575,39075
41019,18597,39126
41039,18611,39156
41052,18622,39172
41061,18632,39181
41060,18640,39181
41053,18650,39170
41044,18657,39149
41029,18656,39118
41010,18648,39079
40992,18638,39041
40973,18627,39005
40951,18610,38973
40930,18589,38940
40911,18565,38909
40894,18543,38885
40880,18524,38866
40867,18509,38845
40854,18498,38819
40845,18492,38792
40837,18486,38768
40828,18478,38742
40814,18468,38710
40795,18454,38674
40769,18432,38632
40739,18405,38585
40713,18377,38539
40687,18348,38497
40658,18319,38454
40626,18294,38410
