green_channel,red_channel,ir_channel
53882,10139,50716
53910,10171,50778
53965,10227,50884
54050,10323,51032
54163,10465,51226
54300,10644,51472
54465,10849,51762
54655,11065,52084
54859,11281,52422
55064,11503,52769
55270,11737,53117
55480,11976,53458
55681,12198,53784
55862,12393,54085
56025,12566,54345
56163,12711,54557
56270,12826,54729
56351,12918,54876
56414,12993,54998
56464,13053,55085
56495,13093,55141
56509,13112,55167
56516,13119,55172
56512,13111,55154
56495,13076,55104
56465,13022,55023
56420,12955,54925
56363,12881,54818
56302,12805,54709
56243,12735,54607
56183,12668,54510
56118,12598,54407
56053,12527,54300
55993,12456,54190
55932,12388,54083
55869,12322,53985
55809,12258,53889
55760,12200,53798
55715,12148,53717
55669,12097,53643
55628,12046,53565
55591,11998,53481
55552,11955,53402
55515,11913,53342
55481,11872,53289
55450,11834,53227
55422,11809,53156
55395,11795,53098
55371,11781,53060
55349,11766,53040
55329,11756,53041
55321,11754,53055
55327,11760,53075
55340,11776,53101
55354,11808,53140
55366,11846,53193
55388,11884,53256
55419,11916,53323
55451,11943,53394
55487,11973,53464
55532,12015,53531
55582,12067,53592
55632,12117,53651
55669,12153,53707
55684,12169,53737
55679,12170,53739
55658,12164,53727
55634,12147,53713
55611,12120,53697
55583,12088,53668
55544,12054,53618
55502,12021,53559
55469,11991,53500
55447,11954,53442
55427,11906,53385
55405,11853,53322
55386,11808,53253
55368,11772,53179
55342,11727,53100
55309,11672,53018
55276,11623,52932
55240,11577,52839
55196,11524,52753
55138,11460,52678
55067,11388,52590
54984,11315,52485
54900,11248,52384
54826,11187,52303
54766,11129,52234
54711,11069,52163
54655,11009,52089
54596,10951,52012
54537,10896,51931
54481,10839,51852
54428,10779,51777
54382,10723,51706
54344,10676,51640
54312,10637,51580
54290,10607,51534
54275,10585,51490
54254,10566,51437
54227,10549,51387
54204,10535,51343
54183,10520,51299
54161,10503,51252
54136,10486,51211
54114,10465,51184
54102,10445,51163
54097,10428,51136
54097,10413,51112
54097,10395,51090
54094,10377,51064
54076,10359,51033
54046,10326,50995
54009,10278,50952
53969,10227,50901
53926,10177,50836
53888,10130,50767
53862,10089,50707
53847,10060,50660
53835,10044,50621
53821,10040,50586
53809,10040,50569
53801,10043,50567
53804,10059,50571
53824,10093,50593
53865,10148,50653
53932,10223,50756
54032,10329,50909
54160,10472,51115
54307,10647,51365
54469,10842,51652
54644,11045,51969
54826,11249,52302
55010,11455,52637
55195,11670,52970
55374,11885,53296
55543,12082,53605
55705,12257,53888
55854,12416,54132
55988,12556,54330
56103,12666,54483
56199,12751,54604
56273,12816,54705
56329,12866,54784
56371,12902,54836
56402,12927,54862
56419,12939,54867
56415,12935,54852
56394,12914,54814
56357,12873,54751
56301,12816,54665
56232,12746,54563
56152,12663,54450
56068,12571,54329
55981,12475,54199
55890,12374,54062
55803,12274,53923
55712,12172,53787
55611,12071,53664
55511,11971,53552
55421,11880,53446
55343,11802,53344
55271,11725,53242
55203,11642,53144
55147,11567,53048
55091,11499,52946
55025,11434,52838
54963,11370,52732
54921,11315,52636
54889,11278,52560
54855,11257,52506
54825,11240,52470
54799,11221,52445
54775,11205,52419
54752,11196,52403
54738,11197,52406
54747,11210,52432
54778,11238,52475
54821,11275,52526
54868,11315,52591
54914,11355,52665
54967,11405,52737
55025,11464,52806
55081,11516,52877
55135,11566,52946
55183,11617,53005
55220,11663,53065
55249,11704,53136
55270,11734,53198
55285,11755,53239
55299,11770,53276
55303,11775,53309
55292,11769,53321
55272,11760,53310
55245,11743,53284
55215,11717,53247
55182,11684,53197
55138,11641,53128
55084,11583,53039
55034,11516,52941
54995,11449,52839
54956,11385,52733
54915,11323,52622
54871,11260,52519
54817,11191,52421
54749,11119,52316
54673,11047,52208
54603,10979,52105
54541,10917,52001
54482,10856,51889
54428,10797,51784
54382,10744,51700
54339,10702,51628
54291,10664,51555
54240,10612,51480
54188,10545,51395
54131,10477,51303
54070,10417,51221
54009,10356,51149
53958,10291,51083
53914,10233,51020
53865,10182,50959
53815,10137,50903
53775,10095,50851
53754,10054,50796
53746,10019,50746
53729,9990,50703
53690,9963,50659
53644,9944,50611
53609,9935,50565
53584,9927,50530
53569,9917,50502
53559,9900,50469
53549,9870,50430
53532,9829,50392
53504,9780,50353
53470,9730,50305
53440,9686,50255
53415,9649,50202
53383,9615,50143
53349,9593,50088
53323,9582,50039
53303,9579,50009
53291,9588,50008
53293,9614,50036
53320,9659,50100
53385,9726,50223
53483,9828,50412
53605,9971,50654
53747,10146,50933
53916,10349,51242
54113,10581,51569
54327,10834,51903
54538,11087,52239
54746,11326,52572
54961,11556,52902
55174,11779,53216
55367,11981,53501
55529,12153,53751
55670,12297,53966
55800,12424,54155
55908,12531,54314
55982,12612,54433
56024,12665,54514
56040,12693,54569
56039,12699,54594
56030,12688,54586
56007,12659,54547
55969,12611,54480
55925,12550,54396
55878,12483,54303
55826,12413,54199
55766,12338,54087
55693,12252,53963
55605,12149,53823
55507,12032,53674
55402,11908,53526
55296,11785,53384
55196,11674,53245
55099,11572,53104
55012,11472,52963
54940,11377,52823
54873,11285,52680
54800,11191,52535
54724,11098,52397
54655,11020,52266
54590,10959,52146
54520,10896,52035
54449,10821,51935
54384,10752,51847
54332,10705,51773
54297,10686,51721
54278,10683,51703
54269,10691,51714
54275,10714,51738
54302,10756,51775
54343,10807,51832
54384,10853,51904
54427,10905,51977
54480,10966,52050
54545,11036,52141
54621,11115,52256
54706,11201,52380
54788,11289,52503
54853,11369,52615
54907,11436,52711
54961,11491,52789
55006,11534,52851
55030,11561,52894
55040,11564,52916
55048,11553,52925
55051,11544,52926
55049,11542,52916
55040,11538,52897
55021,11521,52865
54992,11491,52810
54963,11458,52738
54931,11423,52661
54894,11377,52577
54847,11320,52488
54793,11261,52396
54734,11191,52297
54671,11107,52192
54608,11019,52087
54545,10935,51981
54486,10855,51879
54433,10780,51779
54379,10705,51680
54324,10632,51578
54268,10562,51476
54205,10494,51374
54134,10426,51267
54071,10364,51167
54019,10311,51081
53971,10264,51004
53920,10217,50932
53863,10168,50860
53808,10114,50780
53757,10055,50693
53707,9999,50605
53660,9949,50511
53616,9904,50419
53574,9866,50340
53538,9834,50276
53508,9805,50227
53478,9772,50189
53445,9733,50156
53411,9696,50131
53367,9660,50100
53321,9624,50061
53280,9591,50018
53247,9559,49968
53223,9525,49919
53198,9487,49874
53176,9447,49831
53156,9412,49795
53129,9377,49760
53098,9345,49721
53073,9323,49688
53054,9312,49662
53043,9317,49653
53052,9348,49686
53094,9412,49773
53178,9517,49915
53306,9664,50111
53472,9844,50367
53664,10052,50684
53875,10279,51039
54098,10523,51418
54325,10780,51802
54552,11042,52183
54785,11302,52552
55021,11556,52904
55239,11795,53231
55431,12011,53523
55605,12201,53781
55765,12372,54016
55909,12527,54234
56030,12659,54417
56133,12766,54555
56218,12854,54660
56282,12915,54729
56315,12937,54753
56321,12927,54741
56310,12902,54712
56280,12860,54663
56230,12790,54583
56167,12701,54477
56088,12597,54357
55992,12484,54228
55887,12370,54089
55780,12258,53941
55679,12151,53786
55585,12044,53632
55495,11940,53487
55417,11851,53359
55348,11770,53237
55269,11683,53110
55181,11590,52985
55103,11501,52866
55032,11416,52748
54952,11331,52627
54860,11250,52509
54764,11175,52394
54671,11097,52284
54585,11014,52188
54512,10933,52108
54452,10866,52030
54403,10814,51952
54371,10776,51888
54365,10757,51847
54380,10763,51827
54410,10791,51826
54451,10835,51861
54498,10889,51931
54557,10952,52020
54624,11028,52116
54690,11108,52210
54746,11178,52298
54797,11244,52385
54850,11314,52476
54899,11381,52575
54939,11435,52667
54977,11480,52738
55011,11516,52798
55033,11535,52849
55044,11541,52884
55050,11540,52901
55050,11535,52905
55034,11521,52894
54998,11497,52863
54960,11463,52816
54934,11428,52763
54908,11394,52712
54868,11359,52653
54821,11317,52578
54779,11264,52492
54733,11204,52402
54671,11136,52304
54604,11061,52195
54551,10992,52089
54505,10933,51993
54452,10876,51894
54386,10807,51788
54314,10726,51680
54249,10648,51571
54197,10585,51460
54151,10533,51350
54110,10480,51241
54074,10422,51136
54036,10370,51041
53988,10323,50952
53934,10267,50857
53888,10205,50765
53847,10151,50685
53805,10101,50608
53757,10049,50532
53708,9993,50459
53660,9940,50379
53613,9891,50291
53565,9844,50208
53517,9800,50142
53472,9760,50087
53432,9723,50041
53404,9686,50008
53383,9647,49986
53363,9609,49968
53337,9569,49938
53302,9530,49898
53259,9497,49848
53217,9469,49789
53176,9441,49726
53138,9412,49660
53119,9388,49601
53118,9365,49556
53110,9330,49520
53091,9290,49494
53078,9264,49482
53079,9266,49495
53092,9297,49539
53127,9358,49630
53202,9462,49780
53325,9615,49987
53488,9803,50253
53679,10018,50580
53901,10262,50955
54148,10525,51348
54391,10792,51735
54623,11058,52111
54851,11321,52478
55081,11581,52841
55304,11830,53195
55506,12063,53527
55687,12281,53832
55846,12476,54104
55981,12635,54335
56094,12766,54529
56194,12873,54680
56276,12949,54781
56327,12988,54842
56351,13003,54872
56364,12999,54867
56364,12976,54829
56335,12934,54765
56280,12873,54679
56215,12800,54579
56154,12730,54472
56097,12667,54361
56034,12602,54250
55970,12535,54136
55905,12462,54014
55835,12375,53878
55757,12279,53737
55677,12186,53608
55605,12103,53494
55535,12026,53389
55464,11951,53286
55394,11881,53184
55322,11810,53086
55253,11735,52994
55193,11654,52903
55137,11571,52809
55080,11495,52708
55022,11422,52597
54956,11351,52482
54888,11287,52383
54832,11235,52317
54789,11194,52280
54754,11166,52252
54733,11153,52228
54731,11155,52225
54749,11172,52252
54785,11201,52299
54836,11243,52352
54895,11296,52407
54951,11354,52466
55007,11423,52540
55064,11497,52633
55123,11565,52737
55187,11627,52839
55247,11686,52930
55300,11737,53002
55343,11775,53052
55378,11804,53092
55411,11826,53130
55435,11839,53165
55444,11846,53193
55444,11849,53208
55437,11848,53203
55421,11843,53175
55393,11830,53133
55359,11800,53080
55322,11750,53014
55278,11681,52937
55228,11609,52854
55175,11540,52758
55122,11472,52659
55067,11407,52575
55009,11344,52500
54942,11282,52421
54867,11226,52338
54795,11172,52258
54735,11118,52179
54687,11063,52093
54640,11004,51987
54591,10941,51867
54542,10875,51753
54486,10806,51647
54418,10731,51532
54349,10654,51407
54280,10577,51291
54211,10502,51195
54151,10439,51114
54102,10392,51043
54054,10349,50986
54003,10302,50939
53951,10255,50894
53895,10211,50844
53841,10174,50788
53802,10148,50730
53774,10123,50673
53748,10086,50618
53721,10040,50560
53690,9995,50498
53658,9955,50437
53631,9913,50381
53606,9866,50331
53577,9815,50285
53543,9761,50241
53507,9711,50198
53470,9674,50152
53438,9652,50105
53412,9633,50061
53395,9612,50028
53395,9602,50017
53414,9610,50024
53442,9632,50045
53480,9675,50093
53541,9757,50192
53642,9888,50362
53786,10063,50606
53968,10269,50909
54177,10500,51244
54399,10754,51595
54628,11025,51962
54860,11301,52347
55092,11574,52740
55325,11836,53123
55540,12078,53482
55726,12296,53809
55893,12487,54099
56053,12653,54344
56200,12799,54546
56323,12922,54709
56417,13015,54830
56482,13076,54912
56524,13109,54962
56550,13126,54991
56563,13127,54998
56555,13106,54979
56522,13062,54939
56467,12999,54879
56405,12926,54793
56337,12843,54690
56254,12758,54580
56164,12677,54462
56073,12596,54343
55989,12516,54231
55919,12445,54122
55858,12378,54009
55802,12312,53893
55750,12248,53784
55702,12188,53688
55659,12135,53594
55612,12083,53494
55550,12019,53393
55476,11941,53303
55399,11854,53216
55319,11765,53123
55235,11681,53031
55158,11606,52948
55098,11544,52870
55045,11492,52786
54990,11444,52702
54941,11398,52634
54905,11356,52585
54884,11325,52549
54874,11312,52533
54876,11318,52543
54899,11339,52574
54947,11377,52625
55012,11439,52693
55085,11516,52769
55159,11595,52849
55225,11666,52935
55286,11728,53021
55335,11780,53096
55365,11820,53152
55380,11850,53197
55393,11873,53248
55410,11892,53305
55424,11907,53352
55426,11914,53377
55413,11912,53383
55395,11908,53383
55379,11902,53382
55361,11890,53379
55339,11867,53359
55309,11830,53310
55274,11786,53243
55240,11740,53172
55208,11690,53082
55175,11639,52976
55134,11583,52875
55085,11516,52778
55034,11452,52679
54984,11400,52587
54934,11349,52507
54880,11287,52432
54821,11218,52354
54757,11152,52271
54687,11088,52187
54617,11015,52102
54547,10928,52004
54474,10838,51889
54405,10756,51766
54347,10680,51651
54296,10611,51549
54252,10555,51462
54219,10518,51391
54191,10496,51334
54168,10479,51288
54150,10458,51244
54137,10430,51192
54119,10394,51132
54090,10358,51071
54054,10328,51017
54014,10298,50971
53970,10263,50933
53924,10228,50893
53877,10193,50847
53831,10160,50799
53786,10131,50756
53748,10104,50719
53716,10076,50675
53689,10048,50617
53665,10019,50554
53639,9985,50492
53617,9945,50429
53601,9904,50374
53581,9866,50328
53549,9835,50287
53514,9812,50248
53492,9794,50222
53489,9783,50222
53512,9797,50266
53564,9846,50353
53638,9930,50479
53739,10054,50653
53879,10223,50889
54054,10430,51169
54247,10653,51468
54447,10883,51780
54662,11121,52106
54893,11368,52445
55122,11613,52792
55337,11846,53139
55543,12072,53484
55735,12287,53805
55900,12481,54086
56041,12657,54334
56171,12815,54548
56289,12945,54710
56387,13040,54823
56461,13109,54904
56509,13152,54955
56527,13164,54974
56515,13143,54956
56479,13098,54911
56426,13037,54853
56364,12969,54779
56301,12899,54690
56233,12830,54595
56160,12756,54492
56088,12671,54371
56019,12581,54236
55958,12495,54103
55896,12413,53973
55825,12328,53840
55747,12239,53706
55674,12150,53574
55610,12067,53452
55553,11990,53347
55505,11916,53256
55461,11846,53172
55413,11778,53087
55349,11704,52989
55266,11620,52879
55181,11539,52775
55107,11470,52694
55043,11412,52637
54989,11367,52593
54948,11338,52557
54914,11318,52522
54884,11305,52491
54865,11307,52473
54866,11323,52472
54887,11342,52485
54915,11358,52513
54945,11379,52562
54988,11416,52625
55040,11464,52690
55082,11514,52751
55115,11566,52815
55152,11623,52888
55195,11680,52968
55240,11734,53050
55282,11779,53123
55319,11814,53178
55356,11843,53217
55393,11862,53249
55417,11873,53276
55424,11876,53288
55413,11865,53274
55384,11841,53240
55347,11808,53200
55310,11774,53159
55272,11743,53115
55237,11720,53068
55211,11704,53021
55190,11685,52968
55166,11649,52901
55134,11593,52819
55091,11526,52727
55033,11457,52630
54964,11388,52536
54892,11314,52440
54824,11231,52336
54759,11142,52226
54686,11054,52116
54608,10972,52012
54539,10901,51913
54491,10840,51822
54449,10789,51743
54399,10736,51666
54345,10677,51585
54293,10616,51506
54239,10559,51428
54188,10506,51350
54144,10459,51273
54105,10413,51203
54074,10366,51146
54057,10326,51105
54049,10306,51073
54042,10301,51038
54036,10299,50999
54033,10302,50972
54029,10308,50955
54012,10302,50928
53977,10277,50879
53935,10241,50818
53896,10204,50761
53855,10164,50704
53806,10119,50637
53755,10073,50570
53722,10032,50512
53704,9993,50461
53688,9956,50423
53672,9928,50397
53657,9908,50370
53641,9888,50338
53629,9868,50314
53623,9854,50306
53628,9852,50311
53649,9868,50338
53691,9915,50411
53762,10002,50536
53859,10128,50706
53989,10288,50930
54158,10478,51204
54358,10695,51512
54573,10932,51841
54792,11183,52180
55005,11436,52515
55202,11679,52837
55386,11902,53140
55561,12097,53424
55725,12275,53688
55873,12445,53934
56010,12595,54156
56130,12712,54336
56227,12799,54468
56307,12864,54562
56370,12908,54623
56409,12930,54647
56425,12931,54644
56419,12918,54623
56400,12887,54579
56366,12840,54509
56310,12780,54421
56233,12706,54316
56146,12617,54192
56055,12515,54054
55963,12410,53916
55876,12316,53790
55793,12223,53677
55703,12122,53568
55617,12028,53459
55537,11950,53352
55457,11881,53253
55383,11816,53167
55316,11751,53077
55250,11681,52968
55181,11605,52853
55109,11524,52744
55037,11441,52634
54973,11365,52513
54919,11299,52393
54874,11246,52296
54836,11201,52221
54809,11162,52165
54791,11134,52130
54781,11127,52122
54779,11138,52134
54788,11160,52161
54813,11194,52215
54847,11239,52290
54879,11285,52368
54913,11332,52444
54961,11388,52530
55031,11451,52625
55113,11517,52714
55190,11587,52791
55252,11655,52864
55300,11711,52934
55343,11753,52993
55383,11791,53048
55413,11824,53100
55430,11850,53146
55442,11872,53183
55455,11889,53211
55465,11898,53228
55460,11898,53231
55435,11886,53216
55397,11855,53180
55352,11802,53126
55306,11742,53050
55263,11686,52957
55218,11628,52856
55166,11566,52760
55113,11504,52678
55060,11438,52600
54997,11365,52511
54924,11292,52415
54852,11227,52319
54788,11166,52223
54727,11095,52122
54667,11012,52021
54619,10935,51923
54573,10867,51824
54515,10801,51723
54447,10741,51624
54381,10694,51535
54331,10660,51467
54293,10630,51417
54258,10599,51370
54220,10561,51312
54183,10519,51246
54152,10481,51194
54127,10446,51159
54108,10411,51125
54092,10380,51086
54074,10357,51045
54055,10337,50995
54037,10319,50928
54024,10301,50855
54018,10283,50798
54014,10265,50760
54008,10246,50723
53995,10222,50671
53976,10193,50616
53953,10159,50568
53930,10118,50523
53903,10072,50477
53872,10031,50435
53841,10005,50401
53813,9996,50379
53794,10006,50375
53791,10038,50396
53815,10095,50454
53865,10170,50552
53947,10266,50693
54072,10397,50886
54229,10565,51131
54400,10765,51418
54578,10985,51738
54765,11211,52082
54960,11435,52432
55156,11653,52765
55345,11861,53071
55531,12060,53362
55721,12255,53647
55907,12442,53918
56073,12611,54162
56212,12758,54369
56324,12881,54536
56414,12979,54664
56478,13045,54748
56507,13074,54791
56510,13078,54803
56497,13066,54790
56469,13033,54745
56432,12987,54677
56385,12937,54602
56327,12882,54521
56263,12818,54424
56197,12744,54307
56134,12663,54174
56073,12572,54032
56005,12472,53890
55933,12369,53748
55858,12266,53608
55780,12168,53485
55699,12075,53385
55612,11985,53298
55518,11897,53200
55428,11811,53088
55349,11731,52976
55274,11653,52872
55198,11572,52771
55122,11494,52663
55057,11425,52551
55005,11366,52452
54968,11314,52368
54946,11269,52300
54931,11233,52243
54919,11207,52200
54910,11197,52183
54912,11204,52196
54931,11229,52237
54964,11278,52301
55001,11341,52376
55040,11403,52457
55083,11461,52544
55132,11520,52628
55184,11578,52706
55238,11633,52788
55291,11693,52877
55340,11759,52962
55386,11813,53032
55428,11851,53084
55461,11878,53114
55488,11901,53129
55513,11917,53145
55529,11927,53167
55528,11925,53177
55509,11910,53164
55481,11885,53135
55459,11852,53098
55440,11812,53054
55408,11765,52998
55358,11709,52930
55297,11646,52862
55234,11583,52796
55173,11528,52725
55119,11481,52643
55068,11438,52554
55013,11393,52461
54959,11341,52359
54907,11278,52253
54850,11205,52148
54789,11131,52042
54730,11067,51941
54674,11011,51850
54628,10960,51767
54592,10910,51689
54558,10861,51615
54517,10810,51542
54470,10760,51471
54424,10712,51399
54378,10660,51327
54333,10609,51261
54300,10565,51198
54273,10528,51131
54238,10492,51057
54194,10452,50984
54149,10404,50918
54107,10353,50861
54065,10305,50803
54022,10262,50736
53983,10223,50674
53953,10186,50621
53938,10155,50575
53926,10127,50532
53905,10098,50483
53888,10076,50442
53878,10064,50414
53862,10055,50396
53839,10049,50384
53830,10051,50381
53840,10070,50402
53861,10109,50455
53897,10168,50537
53965,10258,50660
54068,10385,50837
54198,10548,51068
54351,10743,51343
54535,10963,51650
54747,11196,51978
54979,11433,52324
55220,11681,52677
55457,11935,53023
55680,12173,53357
55881,12386,53675
56058,12581,53969
56207,12758,54226
56322,12901,54443
56409,13006,54618
56479,13084,54754
56535,13148,54856
56571,13196,54926
56586,13221,54964
56589,13226,54973
56581,13214,54959
56560,13186,54917
56529,13143,54848
56494,13093,54761
56453,13030,54657
56403,12950,54535
56350,12862,54404
56296,12772,54268
56233,12681,54131
56156,12591,54000
56074,12499,53870
56001,12412,53738
55937,12335,53606
55877,12260,53482
55819,12179,53367
55759,12095,53253
55692,12014,53139
55623,11939,53033
55567,11871,52943
55521,11807,52857
55465,11738,52762
55398,11666,52663
55330,11604,52580
55272,11552,52521
55222,11505,52482
55187,11473,52464
55172,11471,52472
55172,11495,52500
55183,11526,52544
55205,11558,52599
55240,11597,52659
55282,11641,52719
55328,11684,52778
55384,11733,52846
55444,11788,52918
55491,11842,52979
55527,11893,53035
55562,11941,53092
55602,11987,53148
55639,12032,53202
55673,12075,53257
55716,12119,53315
55767,12158,53367
55810,12179,53396
55830,12179,53396
55825,12164,53370
55803,12140,53331
55769,12109,53285
55725,12066,53238
55673,12014,53188
55619,11962,53130
55562,11908,53061
55505,11853,52986
55458,11797,52911
55422,11744,52837
55392,11697,52759
55360,11650,52672
55326,11604,52578
55289,11558,52484
55241,11502,52397
55188,11436,52319
55140,11370,52240
55090,11305,52153
55028,11237,52057
54966,11171,51967
54920,11119,51896
54884,11079,51843
54839,11039,51788
54783,10998,51723
54726,10964,51661
54678,10936,51609
54634,10901,51556
54594,10859,51488
54555,10819,51410
54516,10786,51344
54483,10758,51298
54463,10733,51268
54455,10712,51237
54453,10693,51186
54442,10666,51116
54415,10624,51040
54373,10567,50964
54329,10503,50894
54294,10443,50832
54264,10400,50778
54236,10373,50730
54207,10356,50692
54189,10356,50680
54198,10386,50716
54237,10448,50796
54300,10541,50917
54393,10669,51090
54529,10836,51318
54702,11037,51586
54890,11252,51876
55082,11467,52179
55285,11681,52493
55501,11897,52815
55715,12113,53140
55922,12329,53457
56124,12544,53759
56316,12745,54039
56488,12912,54289
56632,13043,54500
56748,13149,54666
56840,13237,54791
56913,13311,54886
56968,13372,54968
56999,13416,55029
57003,13430,55058
56984,13420,55058
56955,13397,55036
56918,13362,54995
56866,13310,54934
56804,13250,54859
56749,13191,54768
56700,13126,54658
56640,13046,54529
56567,12959,54395
56494,12873,54267
56420,12789,54147
56333,12697,54027
56236,12599,53907
56145,12505,53785
56063,12417,53663
55991,12336,53547
55930,12260,53442
55875,12190,53348
55819,12124,53256
55759,12055,53154
55695,11983,53042
55630,11907,52935
55576,11840,52842
55531,11782,52763
55484,11732,52694
55439,11696,52643
55412,11675,52611
55408,11668,52597
55418,11680,52612
55431,11710,52650
55451,11750,52704
55487,11794,52771
55547,11847,52850
55620,11913,52932
55688,11988,53011
55745,12054,53094
55792,12109,53184
55838,12158,53272
55880,12198,53351
55923,12228,53419
55971,12256,53472
56015,12283,53501
56046,12308,53512
56065,12323,53515
56072,12329,53512
56065,12326,53509
56055,12318,53508
56045,12303,53498
56023,12280,53473
55991,12256,53440
55947,12230,53402
55892,12189,53355
55831,12129,53290
55772,12067,53204
55718,12010,53108
55662,11950,53008
55614,11887,52913
55574,11828,52821
55536,11770,52726
55500,11717,52643
55461,11671,52577
55417,11630,52513
55370,11589,52437
55320,11538,52356
55267,11478,52275
55212,11416,52185
55157,11354,52088
55106,11289,51986
55051,11225,51885
54998,11167,51796
54954,11118,51719
54918,11075,51644
54881,11033,51574
54844,10994,51516
54813,10964,51464
54788,10939,51420
54766,10917,51383
54745,10895,51342
54721,10862,51285
54687,10822,51215
54658,10786,51150
54634,10749,51086
54599,10707,51023
54558,10664,50980
54515,10624,50951
54475,10588,50929
54447,10564,50924
54430,10559,50943
54429,10578,50992
54455,10625,51081
54521,10711,51218
54637,10846,51416
54797,11028,51663
54986,11240,51936
55189,11467,52235
55395,11702,52559
55602,11940,52898
55815,12175,53243
56034,12412,53587
56257,12651,53925
56477,12888,54254
56683,13109,54554
56866,13299,54801
57028,13460,54994
57171,13596,55154
57285,13704,55286
57361,13777,55385
57406,13829,55462
57431,13866,55516
57440,13882,55541
57437,13876,55539
57417,13847,55513
57374,13790,55462
57308,13710,55383
57227,13619,55283
57140,13529,55173
57051,13438,55053
56963,13342,54927
56886,13246,54796
56820,13160,54663
56765,13087,54538
56714,13025,54423
56659,12962,54314
56599,12899,54203
56541,12832,54085
56485,12758,53966
56431,12689,53855
56380,12629,53753
56324,12568,53656
56254,12498,53561
56175,12428,53478
56102,12361,53406
56040,12295,53343
55989,12242,53297
55949,12209,53268
55921,12185,53250
55904,12164,53243
55897,12157,53250
55893,12164,53267
55897,12173,53292
55917,12187,53326
55955,12219,53375
56001,12272,53443
56058,12338,53519
56123,12402,53588
56187,12464,53649
56256,12534,53716
56327,12603,53792
56383,12654,53864
56421,12690,53919
56449,12723,53958
56472,12759,53993
56494,12791,54034
56517,12814,54076
56534,12826,54108
56545,12831,54119
56552,12823,54102
56548,12802,54065
56521,12767,54009
56476,12720,53943
56421,12665,53875
56364,12606,53804
56305,12543,53715
56242,12474,53614
56179,12405,53522
56121,12345,53438
56065,12286,53355
56005,12222,53273
55946,12164,53193
55890,12117,53122
55838,12069,53055
55793,12009,52978
55747,11950,52897
55696,11897,52822
55652,11851,52753
55611,11804,52682
55561,11753,52605
55499,11700,52528
55439,11642,52444
55391,11579,52357
55350,11521,52280
55306,11469,52211
55261,11413,52138
55217,11351,52057
55183,11300,51981
55159,11267,51917
55142,11244,51862
55126,11221,51813
55110,11197,51766
55087,11174,51720
55052,11139,51669
55006,11088,51617
54959,11039,51575
54917,11004,51546
54882,10982,51521
54850,10961,51479
54821,10936,51419
54804,10912,51364
54790,10894,51323
54772,10878,51289
54754,10867,51266
54754,10874,51261
54775,10905,51288
54811,10959,51360
54868,11038,51481
54961,11148,51645
55086,11288,51849
55240,11460,52102
55426,11665,52400
55635,11897,52725
55858,12149,53066
56079,12400,53413
56297,12646,53763
56510,12886,54101
56710,13109,54410
56897,13310,54687
57071,13491,54931
57231,13656,55140
57373,13799,55321
57487,13912,55469
57568,13986,55576
57622,14023,55649
57657,14033,55690
57677,14023,55698
57676,13992,55678
57652,13939,55635
57610,13873,55576
57555,13809,55506
57490,13746,55422
57423,13681,55322
57365,13615,55209
57314,13548,55093
57259,13479,54978
57194,13405,54858
57124,13328,54736
57047,13245,54611
56963,13156,54479
56878,13064,54344
56793,12976,54208
56709,12895,54073
56629,12817,53948
56544,12741,53839
56452,12665,53731
56360,12584,53615
56275,12503,53502
56198,12428,53399
56129,12357,53305
56075,12291,53234
56044,12238,53189
56028,12198,53164
56016,12170,53156
56017,12158,53173
56029,12168,53212
56044,12197,53268
56071,12237,53334
56107,12285,53399
56148,12337,53463
56202,12395,53533
56268,12460,53602
56337,12532,53668
56406,12603,53739
56467,12664,53811
56511,12709,53871
56538,12739,53916
56561,12761,53950
56585,12783,53984
56600,12803,54022
56599,12812,54049
56592,12809,54058
56584,12796,54054
56560,12774,54038
56518,12743,54009
56473,12705,53963
56436,12661,53904
56401,12612,53838
56370,12563,53771
56342,12521,53712
56312,12481,53652
56274,12430,53578
56227,12370,53490
56178,12309,53397
56137,12249,53302
56102,12193,53204
56067,12146,53104
56029,12102,53011
55979,12050,52924
55916,11990,52837
55842,11929,52751
55761,11866,52673
55680,11798,52599
55606,11728,52527
55549,11665,52458
55509,11609,52382
55478,11560,52301
55450,11520,52231
55421,11482,52170
55386,11440,52110
55348,11391,52056
55306,11337,52005
55259,11285,51946
55209,11239,51880
55166,11194,51812
55136,11152,51748
55105,11113,51683
55066,11076,51622
55033,11049,51576
55012,11036,51540
54990,11022,51499
54955,10998,51449
54912,10971,51406
54878,10945,51377
54853,10921,51347
54829,10899,51311
54808,10873,51274
54801,10855,51240
54810,10848,51209
54824,10842,51177
54832,10838,51148
54840,10844,51145
54859,10872,51177
54891,10919,51242
54949,10993,51358
55042,11105,51538
55174,11261,51767
55334,11449,52036
55511,11654,52343
55704,11875,52670
55908,12102,52993
56111,12318,53304
56303,12522,53604
56486,12724,53901
56670,12927,54188
56841,13114,54446
56992,13278,54669
57127,13419,54862
57244,13538,55023
57334,13636,55153
57393,13704,55246
57432,13748,55306
57459,13779,55339
57470,13791,55346
57457,13781,55330
57421,13751,55296
57376,13705,55243
57333,13651,55169
57292,13598,55081
57243,13537,54984
57183,13463,54872
57120,13378,54742
57054,13282,54601
56971,13174,54458
56868,13060,54314
56757,12940,54168
56645,12818,54030
56546,12712,53901
56465,12621,53779
56392,12535,53664
56316,12452,53553
56238,12366,53446
56162,12274,53339
56096,12188,53230
56041,12118,53123
55990,12051,53018
55940,11977,52916
55889,11910,52831
55839,11858,52771
55790,11817,52733
55746,11791,52715
55719,11794,52725
55716,11821,52759
55729,11860,52803
55745,11895,52847
55766,11931,52902
55806,11980,52963
55865,12039,53021
55928,12095,53082
55986,12150,53156
56044,12213,53236
56098,12274,53315
56148,12331,53393
56202,12393,53474
56254,12451,53553
56293,12497,53620
56320,12531,53664
56333,12541,53682
56332,12529,53675
56325,12506,53643
56311,12476,53595
56287,12444,53543
56251,12412,53489
56209,12373,53427
56161,12323,53359
56101,12263,53291
56040,12200,53228
55989,12140,53168
55948,12081,53109
55910,12026,53051
55877,11977,52989
55846,11931,52921
55805,11879,52846
55750,11818,52758
55683,11746,52661
55611,11672,52565
55547,11608,52482
55500,11567,52410
55460,11538,52338
55419,11506,52265
55386,11474,52199
55363,11449,52138
55344,11430,52070
55329,11412,52000
55313,11389,51938
55298,11360,51882
55283,11323,51828
55262,11280,51773
55231,11236,51713
55193,11194,51649
55151,11150,51586
55108,11108,51530
55067,11074,51484
55027,11043,51437
54978,11004,51380
54922,10954,51318
54872,10902,51264
54831,10856,51208
54793,10812,51145
54758,10773,51093
54728,10740,51056
54702,10712,51021
54679,10686,50985
54666,10667,50967
54667,10671,50976
54688,10704,51022
54737,10770,51119
54820,10873,51264
54930,11001,51444
55060,11152,51659
55215,11328,51909
55403,11531,52190
55624,11757,52494
55858,11999,52813
56079,12240,53134
56279,12463,53445
56468,12667,53740
56649,12860,54016
56816,13035,54263
56964,13190,54482
57089,13320,54665
57196,13423,54805
57287,13507,54905
57365,13575,54981
57417,13620,55031
57438,13637,55043
57437,13629,55023
57413,13597,54980
57360,13543,54918
57294,13475,54836
57225,13399,54741
57141,13311,54634
57046,13217,54519
56948,13121,54403
56847,13023,54278
56750,12922,54147
56660,12826,54022
56575,12742,53899
56501,12666,53777
56445,12598,53669
56398,12537,53571
56344,12473,53475
56281,12396,53381
56209,12307,53276
56124,12203,53151
56029,12090,53020
55938,11987,52892
55858,11901,52778
55786,11832,52679
55719,11776,52593
55665,11731,52523
55631,11699,52467
55617,11684,52425
55611,11680,52403
55602,11676,52398
55603,11681,52406
55626,11707,52426
55671,11751,52458
55726,11806,52504
55789,11865,52564
55856,11920,52628
55917,11972,52689
55968,12023,52761
56008,12074,52844
56041,12129,52937
56072,12182,53036
56094,12223,53124
56104,12249,53185
56109,12262,53218
56109,12263,53232
56106,12252,53231
56107,12242,53219
56108,12236,53205
56097,12223,53190
56068,12199,53168
56030,12162,53132
55988,12117,53080
55945,12067,53018
55907,12023,52949
55871,11984,52870
55829,11941,52783
55777,11891,52692
55723,11843,52599
55675,11792,52502
55628,11732,52393
55577,11659,52278
55515,11577,52170
55446,11491,52064
55373,11404,51954
55304,11313,51843
55242,11229,51738
55193,11160,51641
55150,11097,51547
55108,11042,51461
55072,10994,51386
55036,10947,51311
54994,10896,51225
54948,10844,51139
54897,10796,51066
54839,10753,51001
54783,10710,50935
54735,10673,50872
54687,10641,50820
54637,10604,50775
54588,10559,50730
54542,10512,50687
54501,10470,50647
54461,10432,50602
54424,10390,50545
54390,10346,50478
54358,10303,50408
54327,10263,50345
54299,10225,50290
54289,10201,50249
54303,10200,50228
54334,10224,50238
54385,10274,50299
54466,10356,50405
54574,10474,50550
54706,10624,50747
54858,10805,51008
55026,11014,51315
55215,11244,51649
55422,11483,51992
55635,11721,52327
55838,11945,52648
56027,12156,52950
56212,12358,53233
56388,12538,53498
56544,12686,53738
56676,12814,53947
56786,12931,54133
56884,13034,54288
56970,13117,54399
57041,13176,54470
57086,13208,54505
57104,13210,54498
57105,13188,54464
57093,13157,54416
57067,13123,54351
57025,13076,54266
56961,13012,54164
56880,12938,54055
56796,12862,53943
56713,12777,53829
56628,12685,53711
56545,12585,53585
56460,12476,53450
56368,12363,53314
56278,12259,53191
56194,12170,53085
56115,12093,52985
56041,12022,52886
55969,11959,52794
55902,11903,52707
55839,11847,52617
55776,11783,52512
55704,11708,52394
55625,11626,52280
55547,11540,52178
55477,11458,52082
55416,11387,51994
55371,11335,51933
55351,11306,51896
55344,11294,51866
55338,11290,51844
55336,11291,51843
55346,11303,51857
55372,11330,51886
55414,11373,51934
55462,11421,51988
55505,11465,52038
55547,11505,52098
55586,11542,52165
55620,11579,52231
55645,11618,52294
55666,11653,52350
55683,11680,52394
55687,11693,52422
55678,11691,52433
55674,11682,52430
55683,11672,52419
55691,11662,52400
55691,11652,52377
55683,11637,52350
55667,11610,52310
55633,11572,52257
55579,11527,52199
55525,11480,52140
55485,11438,52083
55446,11397,52025
55390,11348,51959
55322,11286,51881
55259,11221,51802
55200,11161,51730
55141,11104,51659
55082,11038,51578
55025,10965,51490
54974,10898,51395
54937,10848,51299
54912,10810,51215
54885,10770,51137
54845,10721,51050
54793,10664,50951
54741,10603,50849
54698,10543,50752
54667,10484,50662
54635,10429,50582
54591,10378,50512
54535,10327,50445
54479,10274,50379
54432,10220,50309
54391,10175,50234
54357,10143,50166
54325,10115,50118
54289,10082,50084
54256,10050,50058
54217,10017,50026
54167,9976,49980
54115,9933,49922
54068,9884,49848
54022,9827,49765
53975,9771,49693
53936,9728,49638
53908,9704,49595
53886,9691,49569
53872,9686,49564
53869,9690,49576
53885,9714,49617
53934,9770,49707
54021,9866,49843
54141,10000,50022
54288,10170,50248
54456,10373,50521
54641,10594,50822
54846,10826,51138
55063,11060,51462
55272,11284,51779
55469,11493,52087
55657,11693,52389
55833,11880,52667
55996,12049,52915
56148,12202,53147
56289,12342,53364
56418,12461,53553
56525,12552,53701
56601,12612,53804
56649,12645,53864
56673,12652,53889
56675,12643,53895
56662,12627,53889
56635,12599,53856
56590,12548,53783
56528,12472,53674
56449,12382,53539
56360,12283,53389
56266,12179,53248
56166,12076,53123
56060,11976,53004
55953,11879,52883
55851,11780,52756
55759,11684,52634
55680,11597,52526
55604,11517,52422
55528,11442,52317
55455,11377,52211
55383,11312,52113
55302,11238,52016
55212,11155,51910
55124,11074,51795
55048,11007,51683
54982,10942,51580
54924,10866,51481
54878,10797,51386
54846,10749,51304
54823,10711,51241
54809,10676,51197
54800,10650,51173
54798,10636,51163
54810,10640,51172
54830,10659,51198
54852,10686,51230
54879,10723,51279
54909,10762,51344
54936,10797,51399
54963,10831,51444
54993,10868,51496
55020,10902,51559
55045,10935,51621
55069,10971,51671
55085,11005,51702
55090,11034,51723
55089,11051,51744
55088,11055,51761
55087,11053,51769
55075,11045,51761
55048,11029,51741
55017,11004,51718
54985,10964,51682
54954,10907,51627
54913,10840,51552
54857,10776,51457
54791,10721,51354
54723,10667,51260
54655,10607,51172
54590,10546,51079
54525,10482,50969
54451,10406,50845
54364,10320,50718
54282,10230,50592
54211,10141,50467
54141,10054,50343
54075,9976,50228
54016,9908,50129
53963,9845,50040
53909,9780,49947
53844,9716,49849
53769,9656,49751
53689,9598,49656
53606,9543,49570
53532,9493,49494
53481,9455,49421
53452,9430,49357
53428,9406,49301
53391,9365,49230
53342,9308,49141
53288,9244,49044
53230,9177,48955
53174,9112,48881
53130,9054,48815
53099,9005,48762
53081,8966,48731
53067,8928,48709
53050,8891,48681
53028,8854,48646
52998,8816,48602
52966,8779,48554
52933,8743,48504
52897,8703,48450
52858,8663,48395
52818,8634,48337
52786,8618,48282
52777,8623,48259
52796,8656,48282
52851,8721,48351
52938,8812,48475
53048,8920,48653
53179,9054,48880
53333,9222,49149
53504,9419,49447
53688,9634,49760
53879,9859,50078
54074,10088,50397
54272,10318,50707
54468,10543,51011
54655,10747,51303
54829,10920,51567
54986,11065,51796
55114,11183,51993
55216,11282,52167
55296,11360,52306
55346,11409,52394
55369,11429,52435
55375,11432,52446
55366,11424,52443
55340,11404,52422
55302,11366,52368
55252,11310,52291
55188,11242,52205
55114,11166,52104
55041,11086,51987
54974,11007,51869
54908,10924,51753
54836,10838,51630
54761,10752,51502
54684,10665,51380
54607,10574,51262
54532,10491,51149
54465,10424,51045
54393,10355,50946
54310,10270,50843
54220,10179,50734
54127,10092,50627
54028,10008,50516
53926,9916,50392
53827,9811,50261
53738,9703,50135
53660,9604,50019
53594,9522,49914
53541,9459,49826
53493,9413,49751
53451,9385,49687
53421,9370,49635
53404,9365,49605
53398,9372,49596
53398,9389,49602
53403,9409,49630
53417,9426,49683
53441,9448,49755
53473,9479,49832
53502,9514,49898
53524,9553,49958
53543,9596,50008
53558,9634,50039
53567,9662,50051
53573,9682,50064
53577,9697,50085
53572,9697,50102
53558,9680,50120
53539,9652,50137
53517,9624,50140
53490,9601,50119
53462,9577,50077
53440,9549,50024
53415,9515,49951
53382,9473,49863
53349,9433,49788
53316,9392,49720
53272,9345,49640
53223,9289,49558
53173,9224,49484
53118,9148,49414
53060,9073,49353
52998,9001,49296
52930,8926,49237
52865,8853,49165
52804,8782,49071
52740,8710,48960
52673,8639,48850
52601,8573,48738
52528,8514,48611
52457,8456,48468
52386,8396,48327
52315,8335,48194
52245,8274,48059
52173,8213,47926
52100,8149,47807
52030,8083,47700
51972,8021,47608
51925,7961,47533
51883,7898,47469
51846,7839,47412
51810,7790,47357
51772,7744,47307
51737,7702,47265
51707,7669,47217
51671,7639,47148
51622,7601,47066
51572,7559,46987
51531,7518,46912
51493,7470,46836
51451,7412,46767
51411,7355,46708
51375,7304,46650
51341,7263,46591
51306,7226,46540
51269,7191,46500
51233,7167,46471
51202,7163,46454
51188,7183,46455
51207,7233,46486
51265,7319,46559
51360,7439,46679
51486,7585,46843
51638,7756,47059
51811,7951,47334
52004,8165,47664
52211,8390,48032
52431,8619,48420
52655,8845,48816
52876,9071,49216
53091,9292,49612
53293,9500,49986
53477,9688,50314
53634,9846,50580
53760,9976,50788
53859,10086,50942
53933,10178,51052
53988,10240,51127
54015,10262,51162
54014,10254,51151
53992,10228,51103
53955,10185,51029
53905,10132,50938
53847,10076,50837
53788,10014,50727
53727,9938,50605
53660,9855,50477
53582,9766,50335
53493,9671,50180
53399,9576,50034
53306,9480,49896
53217,9384,49757
53137,9292,49625
53058,9200,49509
52973,9100,49403
52888,9000,49300
52808,8907,49192
52729,8818,49082
52651,8734,48975
52580,8658,48861
52513,8579,48728
52436,8497,48580
52353,8422,48434
52281,8366,48304
52217,8327,48191
52156,8295,48100
52105,8267,48033
52064,8239,47980
52031,8212,47945
52018,8194,47946
52025,8182,47980
52041,8178,48038
52065,8189,48110
52099,8213,48183
52142,8251,48258
52196,8308,48349
52253,8377,48453
52302,8448,48558
52352,8525,48660
52410,8610,48747
52472,8687,48806
52524,8744,48838
52560,8783,48856
52580,8807,48870
52588,8815,48887
52594,8816,48917
52607,8822,48953
52619,8826,48975
52619,8815,48966
52606,8792,48932
52587,8765,48897
52562,8735,48860
52527,8693,48801
52477,8632,48712
52416,8561,48599
52348,8482,48467
52276,8397,48328
52200,8312,48203
52128,8235,48104
52063,8168,48028
51998,8103,47957
51932,8037,47873
51874,7974,47770
51825,7921,47658
51775,7875,47554
51715,7833,47471
51645,7791,47398
51569,7739,47318
51498,7681,47231
51444,7627,47149
51404,7579,47082
51370,7529,47028
51346,7481,46988
51331,7443,46956
51316,7407,46914
51292,7364,46853
51261,7317,46795
51232,7274,46747
51209,7241,46698
51186,7211,46648
51156,7175,46602
51117,7132,46549
51078,7090,46487
51033,7046,46431
50977,6993,46380
50917,6931,46317
50858,6865,46236
50813,6804,46147
50781,6757,46070
50755,6724,46008
50734,6701,45956
50719,6677,45908
50705,6649,45864
50692,6626,45830
50682,6617,45821
50686,6631,45857
50727,6689,45961
50811,6797,46135
50933,6944,46359
51087,7123,46615
51269,7335,46908
51474,7572,47231
51684,7820,47564
51889,8071,47905
52096,8326,48257
52301,8575,48604
52485,8805,48930
52642,9010,49230
52775,9190,49504
52890,9345,49743
52990,9469,49937
53081,9562,50084
53159,9628,50195
53222,9674,50288
53264,9695,50357
53277,9685,50385
53268,9652,50369
53246,9604,50320
53214,9545,50250
53166,9471,50160
53106,9392,50054
53038,9310,49928
52952,9219,49783
52854,9131,49632
52757,9050,49483
52666,8973,49331
52578,8891,49180
52491,8796,49029
52415,8694,48874
52349,8591,48722
52278,8487,48572
52196,8381,48423
52109,8277,48275
52015,8169,48117
51913,8056,47945
51811,7945,47770
51708,7846,47603
51609,7763,47448
51513,7686,47304
51427,7613,47174
51363,7556,47069
51321,7519,47004
51296,7500,46973
51283,7488,46954
51280,7484,46945
51286,7493,46961
51306,7519,47009
51345,7559,47089
51402,7607,47185
51465,7655,47289
51528,7706,47410
51596,7769,47550
51670,7842,47691
51744,7920,47825
51813,7999,47953
51872,8077,48067
51925,8157,48161
51973,8231,48233
52008,8285,48286
52037,8324,48331
52064,8357,48366
52079,8374,48379
52083,8372,48376
52079,8352,48359
52058,8312,48324
52028,8264,48286
52002,8219,48258
51980,8178,48231
51952,8138,48189
51912,8094,48131
51863,8045,48065
51800,7990,47982
51727,7929,47877
51657,7868,47765
51594,7809,47664
51535,7749,47564
51477,7684,47446
51423,7619,47311
51368,7552,47171
51305,7479,47028
51237,7404,46891
51173,7328,46770
51107,7245,46669
51035,7161,46588
50963,7082,46526
50897,7010,46465
50834,6944,46392
50775,6884,46310
50723,6833,46230
50666,6790,46152
50601,6748,46073
50540,6716,45996
50492,6697,45930
50454,6683,45874
50414,6660,45817
50372,6625,45749
50338,6582,45674
50306,6529,45590
50270,6469,45491
50238,6412,45384
50210,6361,45283
50178,6324,45206
50147,6301,45150
50120,6284,45096
50103,6272,45054
50099,6272,45052
50114,6292,45094
50158,6337,45174
50248,6414,45304
50379,6527,45501
50540,6678,45764
50730,6872,46079
50940,7094,46427
51162,7336,46807
51399,7597,47213
51634,7866,47617
51855,8135,48009
52062,8398,48383
52260,8646,48723
52450,8875,49033
52629,9082,49316
52790,9258,49559
52935,9403,49762
53067,9520,49938
53174,9609,50088
53250,9667,50206
53303,9702,50289
53330,9718,50324
53322,9713,50318
53291,9696,50286
53245,9666,50227
53178,9617,50140
53089,9548,50031
52986,9462,49899
52877,9361,49747
52768,9259,49588
52664,9156,49429
52564,9045,49266
52472,8930,49106
52390,8816,48949
52316,8699,48788
52247,8577,48632
52174,8455,48479
52090,8332,48320
51994,8210,48163
51893,8099,48009
51796,8005,47848
51700,7916,47675
51595,7819,47496
51489,7718,47326
51393,7627,47168
51314,7553,47026
51248,7494,46915
51193,7450,46840
51150,7417,46793
51127,7397,46776
51123,7391,46797
51139,7399,46842
51177,7429,46907
51232,7480,47005
51298,7547,47136
51375,7623,47286
51453,7697,47432
51525,7759,47556
51586,7813,47671
51641,7869,47792
51694,7928,47920
51748,7988,48049
51800,8046,48168
51842,8091,48262
51873,8123,48326
51894,8145,48363
51901,8156,48363
51896,8155,48329
51887,8148,48271
51873,8136,48199
51850,8130,48130
51824,8130,48065
51794,8119,47988
51753,8093,47894
51702,8058,47793
51642,8012,47691
51577,7957,47592
51522,7904,47500
51483,7854,47409
51448,7804,47308
51409,7749,47199
51369,7690,47088
51329,7628,46976
51283,7563,46868
51221,7498,46775
51141,7427,46691
51056,7353,46607
50975,7288,46529
50904,7229,46458
50844,7168,46381
50788,7099,46286
50731,7028,46187
50674,6956,46097
50614,6880,46002
50553,6801,45893
50495,6723,45776
50436,6645,45665
50380,6576,45580
50335,6523,45523
50301,6484,45482
50271,6454,45450
50240,6428,45417
50209,6402,45378
50186,6380,45337
50166,6359,45295
50144,6333,45239
50120,6301,45169
50099,6272,45105
50089,6254,45066
50092,6249,45058
50103,6251,45074
50131,6270,45120
50189,6317,45206
50286,6403,45344
50418,6537,45539
50581,6717,45799
50774,6937,46125
50994,7188,46497
51235,7464,46902
51484,7752,47327
51729,8047,47755
51969,8344,48180
52191,8628,48588
52391,8885,48968
52570,9113,49314
52727,9308,49619
52864,9472,49878
52988,9602,50085
53093,9696,50236
53173,9759,50338
53229,9799,50399
53258,9815,50424
53262,9809,50419
53246,9790,50393
53217,9766,50356
53179,9740,50313
53128,9702,50261
53064,9652,50193
52993,9590,50109
52912,9510,50008
52826,9417,49888
52744,9322,49751
52669,9233,49607
52594,9142,49461
52511,9045,49312
52427,8945,49155
52351,8845,48989
52280,8742,48812
52210,8637,48622
52134,8526,48426
52049,8408,48247
51962,8294,48101
51877,8190,47969
51797,8092,47826
51725,8000,47690
51668,7917,47584
51625,7842,47503
51594,7775,47427
51576,7725,47365
51569,7700,47335
51569,7696,47336
51575,7702,47353
51582,7716,47387
51593,7739,47440
51609,7773,47501
51633,7820,47571
51665,7882,47656
51698,7957,47750
51738,8045,47853
51797,8143,47955
51862,8234,48043
51918,8307,48113
51968,8368,48179
52019,8423,48244
52062,8465,48288
52093,8487,48317
52126,8500,48351
52158,8508,48394
52181,8508,48442
52195,8501,48483
52202,8483,48498
52192,8449,48486
52159,8396,48455
52114,8335,48407
52062,8275,48339
52001,8216,48256
51930,8154,48171
51858,8092,48089
51793,8037,48011
51740,7989,47936
51695,7942,47852
51644,7891,47745
51577,7836,47621
51501,7782,47501
51422,7729,47392
51348,7674,47280
51288,7619,47163
51240,7561,47047
51191,7497,46928
51133,7424,46803
51069,7350,46682
51009,7284,46576
50951,7224,46482
50896,7168,46403
50853,7125,46344
50822,7090,46297
50802,7053,46250
50791,7011,46198
50782,6960,46135
50761,6902,46072
50730,6846,46022
50693,6799,45988
50656,6761,45969
50621,6727,45961
50594,6699,45954
50577,6679,45936
50565,6665,45910
50556,6654,45883
50551,6643,45848
50542,6628,45793
50527,6612,45727
50518,6604,45680
50526,6612,45666
50552,6648,45685
50596,6722,45745
50669,6837,45868
50783,6997,46063
50935,7199,46324
51117,7428,46631
51327,7669,46970
51565,7923,47338
51829,8188,47729
52105,8448,48127
52375,8696,48529
52629,8937,48925
52860,9165,49293
53064,9370,49619
53239,9555,49903
53392,9727,50145
53519,9877,50347
53617,9998,50510
53694,10085,50630
53757,10145,50713
53795,10178,50758
53795,10182,50766
53762,10160,50746
53714,10114,50706
53664,10047,50649
53619,9968,50577
53571,9885,50493
53508,9802,50389
53430,9720,50272
53343,9628,50151
53256,9532,50026
53167,9439,49895
53068,9348,49750
52962,9252,49586
52851,9147,49405
52741,9038,49220
52638,8927,49037
52544,8819,48866
52468,8717,48716
52405,8620,48585
52337,8520,48460
52263,8418,48344
52185,8322,48240
52103,8240,48137
52029,8178,48039
51965,8128,47949
51901,8076,47861
51842,8027,47783
51798,7994,47729
51768,7975,47695
51753,7968,47683
51762,7973,47695
51788,7982,47726
51823,7999,47778
51863,8030,47850
51906,8079,47931
51959,8148,48020
52022,8227,48120
52085,8305,48225
52144,8374,48333
52209,8437,48439
52281,8502,48536
52350,8573,48620
52414,8645,48692
52471,8708,48757
52513,8754,48810
52538,8782,48849
52552,8794,48872
52551,8786,48871
52536,8769,48849
52515,8750,48807
52488,8725,48749
52455,8694,48688
52417,8659,48629
52383,8622,48574
52362,8580,48522
52351,8534,48472
52337,8479,48415
52306,8418,48355
52261,8353,48290
52207,8282,48206
52144,8208,48106
52070,8139,47994
51989,8074,47877
51907,8010,47760
51833,7949,47654
51772,7895,47559
51720,7847,47469
51668,7792,47381
51620,7730,47300
51587,7672,47224
51557,7623,47145
51518,7580,47063
51474,7542,46981
51438,7506,46898
51408,7462,46822
51373,7404,46753
51332,7344,46691
51289,7290,46632
51250,7242,46574
51221,7206,46514
51193,7180,46441
51156,7150,46348
51115,7114,46253
51082,7077,46165
51062,7042,46094
51047,7012,46044
51028,6984,46003
51004,6962,45962
50979,6947,45919
50961,6937,45882
50961,6935,45868
50984,6949,45893
51026,6985,45954
51087,7049,46052
51178,7144,46204
51305,7276,46422
51465,7449,46703
51649,7657,47028
51851,7887,47382
52068,8135,47751
52289,8393,48122
52503,8648,48489
52704,8889,48853
52893,9115,49206
53068,9323,49531
53225,9503,49823
53366,9656,50071
53488,9782,50268
53580,9876,50424
53640,9936,50544
53674,9975,50627
53694,10002,50671
53703,10015,50669
53698,10003,50625
53671,9964,50550
53622,9905,50455
53558,9835,50346
53487,9758,50224
53407,9668,50083
53315,9567,49926
53218,9461,49761
53124,9352,49600
53036,9246,49456
52956,9145,49324
52880,9045,49202
52806,8950,49088
52732,8864,48969
52655,8785,48835
52573,8706,48695
52488,8623,48552
52401,8535,48403
52324,8450,48262
52261,8368,48131
52201,8282,48010
52141,8198,47903
52081,8121,47803
52022,8057,47712
51969,8014,47640
51931,7991,47589
51917,7986,47555
51922,7996,47542
51941,8016,47553
51971,8050,47583
52004,8091,47623
52045,8134,47679
52101,8178,47762
52169,8226,47874
52245,8285,48002
52321,8355,48129
52389,8432,48247
52454,8510,48351
52521,8584,48443
52591,8649,48532
52655,8703,48621
52711,8757,48697
52757,8810,48746
52786,8852,48772
52803,8875,48784
52812,8880,48785
52811,8869,48773
52796,8847,48758
52763,8813,48738
52711,8766,48697
52640,8710,48632
52564,8648,48556
52497,8587,48478
52435,8528,48399
52373,8472,48309
52312,8418,48203
52252,8362,48086
52189,8301,47968
52121,8233,47857
52053,8160,47748
51991,8088,47641
51933,8016,47541
51877,7949,47450
51825,7892,47364
51775,7835,47272
51731,7776,47174
51700,7717,47075
51673,7653,46987
51642,7593,46914
51609,7540,46845
51570,7485,46774
51521,7431,46704
51464,7385,46630
51401,7340,46545
51324,7281,46453
51242,7211,46370
51165,7148,46294
51091,7096,46209
51022,7042,46109
50969,6978,45995
50925,6913,45886
50878,6852,45795
50834,6798,45712
50798,6756,45628
50769,6720,45548
50746,6680,45481
50721,6637,45432
50691,6602,45408
50666,6589,45415
50663,6604,45453
50693,6654,45535
50763,6743,45678
50874,6875,45880
51024,7050,46134
51212,7271,46440
51433,7525,46789
51671,7791,47167
51906,8052,47559
52138,8305,47956
52369,8554,48353
52593,8790,48729
52797,9001,49061
52975,9189,49354
53124,9358,49609
53247,9500,49819
53349,9608,49989
53435,9683,50130
53505,9738,50241
53556,9776,50317
53590,9796,50358
53596,9790,50359
53573,9759,50317
53527,9711,50251
53467,9646,50179
53400,9567,50099
53330,9486,50000
53247,9405,49879
53153,9319,49742
53061,9227,49597
52978,9129,49448
52902,9029,49296
52833,8936,49156
52764,8847,49027
52686,8756,48890
52600,8665,48745
52511,8583,48598
52425,8509,48448
52337,8431,48292
52242,8341,48132
52144,8240,47976
52047,8138,47823
51947,8041,47668
51854,7948,47516
51773,7860,47379
51702,7774,47269
51639,7700,47187
51582,7643,47123
51536,7598,47073
51511,7569,47044
51513,7565,47049
51545,7588,47093
51595,7626,47168
51652,7671,47266
51717,7728,47382
51787,7796,47503
51857,7870,47628
51924,7952,47747
51988,8034,47850
52051,8116,47951
52117,8200,48063
52179,8279,48169
52227,8341,48249
52266,8391,48311
52296,8429,48359
52311,8448,48385
52313,8448,48388
52315,8437,48378
52311,8415,48365
52286,8377,48350
52246,8329,48328
52197,8269,48282
52140,8200,48209
52083,8135,48129
52029,8081,48049
51969,8029,47955
51907,7974,47846
51851,7921,47734
51799,7865,47622
51744,7798,47516
51687,7724,47414
51630,7649,47305
51574,7574,47192
51517,7501,47089
51463,7433,46992
51413,7375,46894
51364,7327,46796
51315,7278,46702
51272,7224,46617
51222,7159,46533
51160,7085,46446
51096,7014,46364
51030,6948,46275
50962,6887,46169
50894,6836,46052
50831,6785,45926
50770,6725,45798
50710,6665,45677
50649,6599,45564
50580,6517,45456
50511,6432,45359
50454,6359,45277
50407,6298,45203
50359,6242,45129
50304,6190,45056
50254,6152,44986
50220,6140,44933
50210,6150,44914
50230,6182,44939
50293,6243,45021
50402,6347,45175
50545,6498,45400
50717,6694,45683
50918,6930,46012
51144,7192,46388
51383,7467,46807
51630,7742,47242
51879,8011,47668
52119,8266,48073
52341,8500,48449
52548,8719,48786
52740,8923,49078
52910,9106,49333
53062,9268,49564
53196,9410,49760
53308,9522,49914
53393,9598,50037
53454,9647,50134
53493,9670,50191
53509,9667,50204
53505,9648,50196
53485,9620,50178
53456,9586,50149
53416,9543,50102
53362,9481,50025
53293,9402,49912
53218,9315,49778
53139,9220,49644
53056,9118,49511
52974,9019,49377
52894,8931,49244
52815,8848,49109
52742,8764,48971
52674,8673,48820
52602,8575,48657
52515,8465,48485
52416,8347,48319
52313,8232,48161
52212,8122,48000
52123,8017,47841
52052,7930,47706
51996,7868,47593
51945,7827,47488
51897,7798,47387
51860,7781,47302
51835,7775,47239
51821,7782,47193
51814,7803,47182
51811,7835,47210
51808,7870,47258
51810,7905,47307
51833,7944,47361
51885,7995,47431
51963,8061,47529
52058,8141,47655
52162,8226,47798
52270,8313,47945
52381,8407,48101
52482,8498,48262
52557,8568,48406
52614,8619,48525
52665,8670,48627
52713,8723,48715
52746,8763,48779
52764,8789,48809
52777,8807,48809
52781,8815,48789
52770,8808,48749
52750,8790,48690
52726,8773,48627
52690,8753,48562
52641,8722,48490
52592,8678,48407
52550,8627,48313
52515,8575,48221
52486,8521,48145
52458,8467,48080
52426,8412,48014
52385,8352,47942
52329,8281,47874
52266,8200,47802
52212,8123,47712
52162,8053,47616
52104,7985,47520
52045,7922,47418
51991,7859,47306
51930,7783,47187
51859,7701,47078
51791,7625,46977
51725,7549,46871
51661,7474,46756
51613,7407,46648
51583,7358,46558
51556,7315,46479
51526,7264,46395
51499,7210,46307
51477,7163,46227
51454,7118,46153
51422,7069,46080
51379,7020,46021
51332,6985,45989
51290,6966,45984
51257,6960,46002
51239,6967,46039
51243,6990,46090
51273,7034,46162
51332,7111,46278
51432,7237,46464
51580,7418,46733
51766,7640,47068
51973,7879,47439
52192,8125,47821
52424,8382,48211
52669,8649,48610
52920,8915,48997
53162,9170,49347
53389,9412,49657
53594,9636,49937
53767,9835,50182
53912,10003,50385
54030,10144,50552
54123,10259,50694
54203,10348,50818
54273,10413,50910
54327,10452,50957
54363,10467,50976
54380,10465,50980
54365,10445,50956
54322,10408,50909
54268,10359,50849
54212,10297,50766
54149,10220,50662
54079,10130,50550
54010,10039,50440
53946,9955,50337
53878,9872,50227
53799,9786,50098
53720,9704,49965
53650,9629,49837
53586,9558,49698
53520,9482,49540
53449,9401,49371
53374,9316,49206
53300,9233,49059
53225,9150,48924
53142,9060,48781
53057,8971,48642
52980,8895,48523
52913,8828,48418
52854,8769,48336
52809,8721,48284
52777,8688,48252
52760,8670,48232
52758,8668,48234
52772,8690,48264
52794,8730,48315
52822,8778,48378
52853,8828,48452
52892,8879,48533
52944,8935,48613
53016,9000,48710
53106,9075,48832
53204,9156,48964
53298,9232,49088
53386,9300,49199
53474,9368,49299
53559,9437,49391
53631,9504,49468
53687,9562,49529
53727,9609,49584
53748,9641,49631
53750,9658,49659
53741,9658,49660
53727,9648,49633
53703,9634,49591
53661,9612,49544
53605,9580,49494
53544,9539,49438
53474,9484,49364
53397,9413,49263
53329,9338,49152
53269,9261,49046
53213,9179,48938
53160,9093,48828
53115,9011,48735
53086,8948,48662
53064,8900,48601
53038,8857,48531
53004,8812,48443
52964,8761,48342
52925,8710,48230
52889,8667,48116
52851,8628,48014
52807,8587,47926
52765,8545,47847
52727,8502,47772
52693,8455,47707
52666,8415,47669
52646,8383,47655
52628,8342,47636
52615,8295,47598
52617,8256,47550
52630,8230,47504
52638,8213,47469
52627,8200,47441
52603,8187,47403
52576,8174,47346
52556,8168,47286
52557,8181,47254
52584,8221,47271
52631,8288,47348
52695,8386,47489
52791,8524,47703
52929,8705,47978
53104,8917,48308
53312,9152,48687
53544,9400,49093
53781,9650,49497
54015,9895,49880
54253,10142,50251
54493,10391,50617
54724,10631,50961
54938,10853,51260
55130,11048,51520
55306,11219,51751
55461,11371,51950
55590,11497,52122
55693,11598,52270
55767,11676,52382
55811,11723,52451
55825,11741,52484
55818,11740,52495
55806,11730,52492
55790,11716,52477
55758,11691,52456
55713,11650,52423
55664,11595,52365
55606,11531,52283
55539,11456,52189
55462,11369,52079
55377,11273,51958
55291,11171,51829
55204,11070,51686
55118,10973,51543
55039,10887,51413
54967,10816,51294
54903,10749,51180
54847,10685,51069
54796,10631,50970
54755,10583,50875
54718,10532,50769
54679,10475,50666
54649,10424,50584
54625,10380,50518
54604,10338,50457
54595,10304,50402
54603,10289,50359
54622,10294,50338
54643,10311,50345
54655,10329,50374
54667,10350,50425
54693,10386,50497
54734,10434,50585
54789,10486,50672
54849,10545,50750
54912,10610,50827
54974,10671,50904
55030,10727,50981
55087,10782,51053
55135,10833,51115
55168,10878,51181
55197,10921,51258
55227,10962,51333
55262,11000,51396
55302,11038,51447
55340,11073,51479
55363,11095,51486
55374,11106,51464
55383,11110,51429
55385,11102,51388
55366,11074,51329
55329,11029,51259
55281,10973,51198
55233,10914,51140
55190,10855,51077
55151,10794,51003
55113,10736,50921
55076,10681,50836
55033,10627,50748
54979,10572,50662
54921,10515,50578
54862,10459,50497
54800,10406,50427
54737,10352,50370
54676,10296,50314
54626,10242,50249
54595,10194,50176
54570,10147,50092
54542,10098,50014
54508,10056,49953
54466,10020,49897
54423,9988,49841
54388,9963,49791
54364,9945,49749
54343,9925,49714
54320,9895,49684
54294,9857,49649
54265,9820,49610
54231,9784,49571
54191,9741,49521
54148,9696,49467
54110,9658,49423
54070,9620,49380
54023,9577,49328
53985,9536,49267
53961,9505,49213
53939,9476,49170
53919,9443,49130
53912,9416,49090
53924,9404,49061
53951,9405,49055
53987,9424,49088
54039,9473,49172
54115,9562,49315
54223,9689,49515
54377,9857,49771
54576,10067,50083
54797,10310,50434
55020,10569,50802
55246,10836,51181
55472,11111,51567
55696,11388,51950
55920,11658,52325
56142,11915,52685
56359,12155,53017
56567,12374,53314
56760,12571,53572
56932,12741,53798
57076,12880,53984
57187,12983,54121
57273,13057,54217
57336,13110,54284
57365,13134,54319
57360,13129,54316
57333,13100,54286
57292,13053,54244
57241,12997,54194
57186,12931,54131
57133,12857,54055
57083,12788,53975
57039,12732,53898
56999,12682,53819
56961,12637,53738
56923,12601,53656
56883,12564,53567
56839,12515,53469
56786,12455,53371
56732,12396,53282
56692,12347,53206
56656,12305,53142
56615,12263,53090
56572,12217,53039
56533,12170,52978
56494,12120,52903
56453,12070,52825
56422,12034,52764
56399,12012,52717
56371,11992,52683
56347,11977,52664
56339,11973,52657
56349,11976,52657
56365,11969,52649
56374,11954,52635
56384,11945,52632
56391,11951,52650
56398,11973,52694
56416,12011,52758
56450,12063,52829
56496,12116,52896
56543,12159,52956
56584,12199,53013
56626,12247,53080
56671,12303,53156
56712,12353,53227
56742,12390,53284
56766,12418,53327
56784,12439,53361
56791,12450,53387
56792,12454,53403
56787,12453,53408
56775,12444,53402
56752,12423,53382
56725,12392,53343
56694,12357,53294
56654,12313,53238
56604,12256,53172
56550,12194,53092
56497,12133,53000
56446,12075,52908
56399,12016,52822
56360,11967,52739
56328,11930,52660
56301,11892,52577
56274,11846,52493
56239,11793,52408
56194,11742,52329
56149,11694,52258
56109,11651,52188
56070,11610,52127
56022,11571,52078
55970,11531,52028
55925,11494,51976
55884,11458,51924
55840,11414,51869
55802,11368,51813
55777,11332,51762
55757,11303,51711
55733,11274,51655
55714,11250,51604
55698,11234,51564
55682,11220,51534
55666,11202,51509
55641,11172,51482
55609,11135,51448
55582,11101,51406
55562,11072,51356
55544,11047,51307
55523,11024,51274
55505,11006,51251
55491,10992,51229
55469,10973,51202
55439,10943,51166
55408,10908,51125
55383,10877,51086
55373,10852,51057
55369,10827,51021
55357,10797,50968
55337,10770,50915
55318,10755,50877
55308,10756,50854
55303,10766,50851
55304,10785,50875
55320,10822,50939
55355,10887,51048
55413,10985,51201
55512,11119,51400
55657,11287,51637
55830,11477,51898
56020,11682,52179
56235,11907,52487
56472,12149,52826
56708,12397,53182
56932,12635,53531
57148,12860,53859
57350,13067,54164
57525,13246,54442
57670,13394,54678
57792,13520,54870
57903,13633,55029
58002,13724,55152
58081,13789,55242
58140,13835,55304
58183,13873,55344
58210,13897,55368
58217,13905,55380
58204,13901,55377
58177,13884,55362
58135,13850,55332
58083,13804,55285
58028,13757,55228
57975,13707,55161
57923,13647,55077
57876,13583,54980
57836,13522,54881
57793,13463,54790
57741,13407,54708
57683,13348,54632
57627,13288,54565
57582,13237,54504
57540,13190,54433
57494,13137,54347
57443,13080,54260
57390,13029,54181
57338,12980,54111
57283,12926,54044
57226,12872,53981
57181,12830,53930
57159,12812,53892
57160,12813,53859
57178,12819,53829
57199,12827,53812
57217,12836,53810
57235,12843,53815
57254,12848,53821
57279,12863,53829
57316,12891,53855
57353,12924,53895
57380,12950,53940
57400,12970,53992
57419,12994,54052
57438,13022,54108
57457,13052,54159
57476,13086,54212
57492,13126,54266
57503,13162,54320
57515,13197,54374
57525,13230,54426
57533,13251,54466
57539,13251,54482
57540,13242,54481
57537,13235,54471
57529,13224,54452
57509,13201,54425
57475,13170,54385
57442,13132,54327
57416,13089,54256
57393,13049,54180
57369,13013,54111
57344,12976,54053
57317,12937,53996
57290,12899,53936
57265,12861,53871
57233,12813,53792
57192,12756,53707
57154,12701,53624
57126,12653,53547
57103,12612,53475
57070,12573,53405
57024,12532,53345
56974,12493,53297
56924,12456,53251
56879,12424,53211
56848,12396,53182
56825,12372,53155
56797,12344,53126
56761,12310,53090
56727,12276,53051
56696,12245,53012
56657,12208,52966
56613,12166,52923
56578,12131,52888
56560,12105,52856
56556,12089,52823
56556,12081,52791
56556,12076,52767
56551,12070,52751
56544,12061,52740
56538,12048,52722
56526,12030,52687
56503,12007,52649
56476,11986,52622
56448,11969,52606
56423,11957,52591
56403,11946,52568
56375,11920,52535
56336,11877,52498
56296,11830,52452
56261,11786,52398
56226,11739,52345
56191,11696,52300
56162,11667,52265
56136,11650,52238
56107,11637,52217
56087,11628,52212
56083,11633,52219
56094,11654,52239
56117,11687,52281
56154,11741,52352
56217,11828,52464
56317,11950,52619
56441,12096,52803
56582,12261,53021
56751,12446,53272
56940,12643,53537
57127,12837,53814
57314,13028,54109
57510,13226,54412
57707,13426,54703
57890,13620,54973
58057,13801,55217
58215,13972,55441
58363,14131,55641
58489,14264,55808
58586,14368,55944
58664,14453,56056
58725,14519,56143
58762,14555,56192
58781,14566,56205
58792,14562,56200
58786,14540,56180
58763,14496,56133
58734,14440,56068
58697,14381,56002
58645,14316,55934
58578,14241,55863
58503,14162,55788
58430,14089,55712
58365,14026,55638
58313,13968,55559
58269,13916,55484
58225,13874,55417
58177,13835,55347
58136,13795,55270
58108,13761,55197
58088,13728,55136
58064,13696,55087
58031,13662,55043
57992,13620,54995
57949,13573,54945
57908,13530,54892
57875,13495,54838
57857,13474,54790
57850,13459,54753
57839,13441,54722
57819,13415,54696
57802,13391,54680
57790,13373,54674
57781,13362,54669
57780,13359,54668
57781,13371,54684
57783,13395,54715
57793,13430,54751
57817,13475,54792
57851,13522,54838
57890,13566,54883
57933,13612,54931
57979,13665,54995
58026,13724,55068
58071,13778,55132
58111,13822,55182
58147,13861,55227
58181,13899,55266
58212,13926,55282
58233,13931,55269
58236,13915,55239
58227,13890,55205
58213,13864,55171
58187,13831,55133
58153,13790,55085
58117,13752,55030
58079,13716,54976
58035,13672,54919
57980,13618,54854
57921,13563,54785
57865,13508,54713
57811,13450,54642
57756,13391,54569
57693,13326,54494
57623,13261,54420
57563,13203,54349
57516,13155,54278
57475,13113,54206
57431,13063,54136
57384,13010,54068
57344,12965,54008
57309,12923,53956
57281,12886,53907
57260,12859,53855
57246,12839,53811
57236,12824,53773
57222,12803,53729
57197,12771,53682
57165,12734,53636
57135,12699,53589
57114,12665,53543
57096,12634,53498
57073,12608,53457
57047,12593,53432
57025,12588,53429
57002,12584,53436
56971,12569,53435
56933,12541,53425
56893,12506,53409
56856,12471,53392
56824,12442,53371
56796,12415,53346
56774,12389,53319
56758,12364,53286
56745,12340,53250
56734,12324,53224
56724,12320,53202
56710,12314,53175
56685,12304,53144
56650,12288,53118
56613,12266,53096
56585,12245,53070
56564,12227,53032
56540,12201,52981
56508,12167,52927
56473,12136,52875
56437,12103,52821
56398,12065,52768
56357,12031,52725
56328,12004,52690
56314,11994,52666
56311,11997,52669
56332,12016,52716
56394,12074,52814
56491,12173,52961
56611,12301,53146
56751,12457,53360
56909,12636,53598
57079,12831,53855
57263,13043,54138
57455,13261,54434
57648,13471,54721
57836,13668,54993
58013,13853,55249
58175,14025,55485
58319,14181,55702
58442,14319,55898
58540,14438,56068
58621,14535,56208
58688,14607,56314
58738,14646,56378
58772,14656,56407
58798,14654,56421
58812,14647,56430
58806,14624,56427
58784,14589,56402
58757,14547,56358
58727,14503,56299
58694,14454,56224
58657,14398,56139
58613,14345,56058
58561,14295,55983
58503,14242,55913
58446,14192,55853
58392,14148,55800
58334,14097,55739
58273,14036,55670
58216,13973,55600
58161,13912,55528
58107,13859,55453
58062,13813,55381
58022,13769,55313
57982,13728,55246
57942,13687,55181
57904,13643,55124
57875,13609,55078
57858,13593,55034
57844,13577,54988
57835,13559,54949
57829,13546,54928
57824,13543,54920
57823,13552,54919
57819,13558,54923
57813,13556,54935
57814,13559,54956
57822,13572,54983
57840,13595,55023
57871,13631,55080
57905,13672,55140
57927,13707,55187
57939,13734,55220
57950,13758,55251
57964,13781,55284
57978,13805,55318
57993,13830,55351
58009,13849,55387
58028,13864,55422
58051,13878,55449
58079,13888,55459
58101,13891,55450
58100,13881,55424
58074,13849,55383
58030,13803,55330
57984,13758,55278
57942,13722,55235
57896,13681,55185
57846,13630,55124
57795,13581,55068
57744,13543,55021
57699,13510,54973
57663,13475,54916
57641,13446,54850
57628,13415,54778
57603,13370,54699
57561,13311,54612
57517,13244,54525
57475,13179,54437
57432,13119,54350
57393,13062,54264
57363,13014,54184
57342,12976,54116
57318,12941,54062
57283,12908,54020
57235,12876,53987
57175,12846,53953
57118,12817,53916
57072,12791,53884
57027,12770,53859
56984,12747,53830
56945,12719,53792
56910,12693,53750
56878,12663,53701
56847,12626,53647
56815,12588,53600
56784,12554,53569
56757,12527,53543
56734,12501,53515
56719,12478,53488
56706,12459,53461
56688,12443,53431
56678,12432,53412
56682,12428,53401
56690,12428,53384
56694,12426,53367
56696,12422,53352
56695,12414,53324
56689,12402,53293
56681,12386,53273
56666,12362,53258
56637,12329,53234
56597,12289,53195
56550,12242,53143
56494,12188,53077
56431,12132,53000
56372,12082,52931
56320,12045,52883
56274,12014,52854
56236,11986,52835
56203,11962,52811
56167,11932,52779
56131,11895,52749
56105,11862,52723
56093,11835,52695
56090,11816,52674
56098,11814,52674
56123,11837,52697
56165,11885,52744
56227,11963,52820
56308,12068,52933
56416,12198,53096
56551,12351,53303
56703,12522,53547
56873,12713,53827
57056,12916,54125
57230,13113,54415
57391,13296,54692
57551,13473,54956
57705,13646,55208
57838,13799,55436
57941,13923,55622
58023,14019,55760
58096,14093,55870
58160,14153,55958
58203,14191,56016
58220,14201,56040
58219,14192,56044
58207,14179,56036
58189,14161,56016
58163,14129,55980
58135,14088,55923
58106,14042,55847
58077,13994,55765
58040,13944,55683
57988,13890,55601
57930,13832,55514
57880,13768,55418
57835,13704,55322
57792,13643,55233
57750,13582,55146
57697,13519,55059
57629,13458,54978
57557,13401,54907
57489,13348,54848
57419,13295,54784
57344,13239,54709
57272,13183,54630
57211,13133,54556
57159,13085,54489
57107,13038,54424
57057,12995,54365
57021,12959,54322
56999,12931,54289
56980,12905,54255
56970,12887,54227
56980,12887,54222
57005,12905,54234
57031,12933,54249
57050,12962,54274
57071,12991,54317
57101,13027,54375
57133,13074,54441
57171,13127,54509
57221,13183,54577
57272,13236,54645
57311,13283,54709
57339,13319,54768
57360,13342,54817
57379,13363,54857
57397,13388,54883
57407,13400,54887
57407,13391,54870
57402,13373,54840
57401,13353,54797
57401,13328,54748
57390,13297,54697
57357,13261,54642
57305,13213,54578
57245,13153,54509
57186,13089,54436
57129,13027,54360
57074,12967,54289
57021,12909,54227
56970,12856,54168
56920,12809,54105
56874,12760,54035
56831,12708,53960
56783,12656,53878
56724,12602,53790
56662,12552,53701
56604,12506,53619
56552,12456,53547
56511,12412,53484
56485,12382,53427
56470,12355,53376
56464,12333,53334
56462,12318,53297
56456,12302,53260
56441,12277,53218
56418,12242,53170
56397,12207,53121
56375,12176,53078
56338,12138,53043
56293,12094,53012
56259,12058,52987
56233,12032,52967
56208,12010,52947
56179,11989,52928
56150,11969,52905
56122,11950,52875
56086,11919,52837
56049,11882,52796
56018,11856,52759
55987,11833,52729
55954,11811,52707
55926,11794,52694
55895,11777,52682
55857,11759,52666
55820,11738,52642
55789,11712,52607
55761,11686,52572
55729,11661,52536
55694,11628,52492
55666,11595,52438
55649,11571,52384
55639,11554,52341
55628,11536,52304
55615,11516,52264
55594,11494,52220
55567,11471,52175
55539,11442,52118
55506,11405,52044
55470,11362,51965
55438,11316,51893
55416,11278,51835
55402,11254,51798
55401,11250,51787
55424,11277,51817
55476,11337,51894
55553,11425,52015
55656,11543,52175
55784,11692,52373
55928,11859,52606
56073,12030,52861
56219,12203,53121
56369,12375,53373
56517,12538,53621
56657,12693,53870
56789,12840,54109
56908,12975,54332
57013,13095,54533
57102,13200,54701
57175,13290,54835
57233,13362,54931
57280,13411,54990
57317,13438,55025
57342,13451,55038
57358,13453,55027
57363,13443,54992
57353,13421,54945
57330,13392,54897
57300,13357,54846
57265,13319,54790
57224,13275,54731
57176,13219,54665
57121,13159,54589
57062,13103,54506
57007,13048,54416
56958,12985,54316
56902,12915,54212
56834,12844,54114
56765,12777,54022
56701,12704,53928
56630,12623,53829
56556,12542,53734
56494,12470,53644
56441,12405,53554
56391,12344,53471
56346,12292,53392
56309,12246,53315
56281,12206,53252
56251,12167,53205
56219,12131,53164
56196,12104,53126
56184,12090,53101
56182,12090,53095
56180,12101,53105
56182,12119,53133
56193,12144,53174
56221,12180,53227
56269,12228,53286
56320,12280,53337
56359,12321,53379
56384,12355,53418
56400,12387,53467
56410,12413,53520
56417,12431,53571
56427,12449,53624
56438,12472,53677
56449,12503,53732
56461,12533,53782
56472,12551,53812
56487,12561,53818
56500,12564,53810
56500,12560,53794
56488,12544,53768
56466,12516,53729
56435,12476,53681
56397,12430,53623
56363,12384,53551
56330,12338,53474
56284,12286,53398
56231,12231,53327
56179,12173,53265
56131,12113,53200
56081,12045,53116
56033,11976,53016
55990,11920,52919
55952,11874,52829
55904,11824,52741
55841,11765,52661
55769,11701,52585
55701,11638,52501
55636,11574,52414
55572,11509,52337
55512,11445,52263
55458,11386,52191
55415,11344,52135
55384,11322,52097
55365,11313,52060
55347,11304,52012
55324,11291,51961
55303,11273,51912
55279,11251,51861
55246,11220,51813
55211,11179,51775
55183,11139,51746
55167,11115,51728
55158,11100,51709
55141,11078,51677
55117,11050,51641
55091,11029,51614
55061,11014,51594
55033,11000,51579
55011,10984,51561
54997,10971,51536
54989,10959,51507
54980,10944,51471
54966,10923,51429
54947,10894,51378
54929,10857,51316
54912,10819,51249
54893,10780,51181
54868,10743,51115
54829,10701,51054
54781,10651,50995
54731,10602,50939
54679,10560,50889
54629,10522,50839
54599,10498,50799
54589,10495,50784
54583,10504,50788
54574,10510,50806
54575,10522,50840
54609,10560,50902
54687,10635,50992
54793,10739,51109
54915,10863,51257
55054,11010,51438
55206,11170,51647
55366,11338,51877
55533,11521,52127
55697,11709,52391
55846,11885,52657
55983,12049,52919
56115,12201,53176
56236,12339,53413
56348,12464,53620
56455,12580,53802
56556,12684,53956
56633,12769,54081
56677,12828,54165
56693,12855,54201
56694,12850,54200
56685,12831,54179
56668,12809,54142
56643,12780,54079
56613,12737,53995
56584,12685,53903
56547,12621,53804
56492,12544,53702
56425,12462,53603
56353,12385,53512
56283,12308,53422
56219,12235,53334
56164,12171,53249
56116,12115,53162
56074,12064,53080
56031,12011,53011
55975,11954,52953
55914,11901,52901
55866,11864,52855
55827,11836,52816
55781,11798,52765
55724,11748,52694
55672,11694,52616
55632,11645,52540
55601,11604,52470
55572,11567,52405
55551,11535,52349
55545,11509,52300
55547,11489,52256
55540,11470,52220
55528,11449,52193
55524,11439,52172
55532,11444,52164
55547,11465,52174
55564,11493,52206
55571,11520,52252
55577,11548,52307
55599,11585,52368
55633,11634,52438
55667,11681,52503
55692,11717,52554
55711,11742,52593
55735,11764,52629
55761,11786,52669
55781,11804,52705
55793,11814,52729
55807,11826,52746
55822,11845,52764
55834,11864,52779
55834,11871,52784
55820,11861,52777
55791,11840,52759
55744,11809,52726
55683,11759,52673
55616,11693,52595
55552,11622,52499
55499,11555,52399
55456,11497,52311
55418,11448,52239
55382,11407,52179
55351,11370,52124
55316,11329,52065
55277,11278,51999
55234,11223,51929
55184,11166,51855
55124,11104,51775
55056,11036,51688
54990,10969,51598
54928,10909,51510
54866,10852,51429
54814,10803,51354
54779,10765,51290
54756,10735,51231
54735,10705,51175
54707,10673,51125
54667,10636,51073
54625,10595,51016
54591,10557,50953
54559,10515,50889
54523,10470,50827
54483,10426,50769
54442,10385,50716
54406,10345,50667
54372,10302,50614
54341,10260,50560
54323,10228,50521
54319,10204,50489
54315,10183,50451
54300,10160,50403
54275,10137,50351
54247,10124,50316
54226,10122,50295
54209,10117,50268
54183,10095,50232
54145,10058,50190
54105,10020,50144
54074,9991,50109
54050,9971,50085
54031,9959,50062
54014,9949,50038
53993,9935,50006
53966,9915,49964
53930,9890,49918
53887,9854,49864
53844,9807,49814
53814,9759,49781
53799,9718,49755
53796,9694,49736
53806,9693,49727
53832,9719,49739
53877,9774,49784
53935,9850,49873
54007,9942,50012
54101,10052,50194
54224,10188,50402
54364,10341,50625
54511,10502,50867
54663,10678,51129
54816,10857,51396
54965,11029,51651
55110,11193,51897
55249,11353,52128
55385,11508,52330
55510,11643,52496
55614,11748,52626
55698,11825,52726
55765,11876,52797
55810,11905,52845
55839,11921,52887
55855,11925,52917
55857,11917,52924
55855,11898,52917
55850,11866,52895
55833,11825,52859
55802,11780,52816
55756,11729,52763
55696,11668,52687
55627,11600,52591
55556,11531,52481
55488,11464,52364
55428,11403,52255
55375,11348,52161
55324,11294,52081
55277,11244,52009
55231,11194,51927
55178,11140,51837
55115,11082,51747
55048,11014,51655
54984,10939,51562
54930,10873,51469
54882,10816,51383
54831,10762,51306
54770,10705,51237
54707,10646,51176
54653,10593,51117
54611,10547,51068
54581,10513,51040
54555,10491,51023
54524,10466,51003
54496,10440,50992
54479,10425,50991
54469,10419,50993
54465,10419,50994
54465,10430,51003
54464,10450,51024
54468,10475,51057
54481,10503,51100
54508,10539,51157
54551,10580,51214
54597,10617,51250
54637,10645,51266
54673,10669,51279
54708,10697,51298
54730,10723,51316
54735,10733,51323
54729,10723,51308
54716,10702,51276
54702,10686,51243
54692,10672,51208
54674,10646,51170
54639,10602,51130
54593,10550,51083
54545,10493,51027
54489,10429,50963
54425,10363,50896
54359,10301,50824
54301,10244,50745
54254,10191,50659
54215,10140,50566
54171,10085,50467
54121,10028,50370
54077,9980,50284
54041,9946,50218
54005,9913,50170
53964,9864,50122
53922,9802,50060
53877,9740,49984
53827,9683,49897
53769,9623,49810
53703,9563,49718
53636,9509,49617
53567,9464,49526
53499,9424,49446
53439,9384,49370
53397,9349,49303
53364,9314,49250
53335,9272,49204
53310,9233,49176
53295,9206,49170
53289,9191,49178
53281,9168,49181
53267,9134,49161
53248,9102,49115
53222,9071,49050
53191,9039,48985
53157,9006,48921
53127,8980,48847
53097,8962,48775
53061,8943,48716
53023,8917,48659
52988,8882,48603
52955,8842,48562
52922,8794,48531
52887,8737,48494
52861,8684,48448
52844,8641,48403
52823,8607,48356
52799,8582,48303
52771,8562,48248
52736,8539,48191
52690,8510,48135
52642,8479,48080
52609,8452,48029
52594,8435,47990
52588,8426,47971
52591,8425,47966
52599,8431,47975
52610,8446,48015
52629,8473,48092
52661,8514,48197
52710,8573,48322
52781,8652,48466
52877,8756,48635
52993,8882,48834
53125,9026,49048
53282,9184,49263
53466,9356,49482
53664,9540,49716
53852,9723,49956
54014,9891,50186
54150,10042,50386
54270,10183,50559
54372,10306,50713
54449,10399,50843
54505,10461,50940
54544,10499,51005
54563,10515,51045
54568,10517,51074
54568,10509,51081
54561,10494,51059
54548,10474,51028
54521,10440,50992
54473,10391,50942
54412,10337,50875
54353,10285,50795
54296,10231,50706
54233,10174,50608
54162,10117,50510
54097,10061,50420
54041,10004,50332
53985,9937,50236
53922,9852,50130
53851,9759,50019
53778,9674,49910
53708,9601,49805
53644,9541,49708
53590,9491,49629
53540,9445,49564
53486,9399,49498
53427,9358,49439
53367,9319,49389
53317,9278,49338
53276,9233,49290
53235,9182,49246
53197,9134,49207
53169,9101,49178
53152,9081,49150
53135,9067,49120
53118,9058,49099
53111,9058,49089
53115,9064,49083
53124,9065,49073
53139,9065,49071
53157,9072,49096
53172,9082,49137
53187,9094,49184
53216,9118,49243
53253,9154,49307
53281,9192,49360
53300,9226,49404
53319,9258,49447
53344,9290,49489
53371,9322,49524
53388,9343,49537
53393,9348,49519
53382,9339,49483
53356,9319,49446
53323,9286,49403
53288,9238,49345
53254,9186,49284
53221,9139,49228
53175,9090,49167
53118,9039,49101
53062,8997,49037
53014,8959,48972
52965,8915,48913
52918,8865,48862
52879,8819,48806
52844,8775,48743
52802,8726,48670
52751,8670,48580
52702,8611,48478
52664,8558,48380
52633,8506,48285
52595,8454,48188
52554,8409,48088
52518,8375,47989
52481,8349,47905
52437,8328,47847
52385,8303,47795
52327,8265,47730
52265,8211,47660
52207,8154,47600
52159,8099,47554
52124,8047,47516
52102,7998,47478
52077,7953,47437
52049,7912,47390
52019,7879,47339
51985,7851,47293
51956,7827,47248
51930,7799,47194
51903,7761,47136
51884,7721,47079
51871,7688,47027
51851,7662,46973
51825,7638,46918
51796,7618,46872
51765,7598,46823
51735,7577,46763
51707,7554,46710
51680,7527,46679
51649,7495,46660
51611,7456,46635
51572,7415,46605
51536,7374,46564
51500,7331,46509
51460,7286,46446
51415,7237,46380
51373,7192,46315
51341,7155,46255
51323,7128,46206
51314,7109,46182
51312,7103,46192
51324,7114,46236
51352,7143,46293
51396,7189,46360
51461,7255,46444
51547,7343,46553
51648,7451,46694
51770,7585,46876
51908,7744,47096
52052,7926,47339
52201,8124,47599
52349,8321,47866
52492,8503,48124
52632,8673,48369
52766,8822,48595
52891,8941,48797
53001,9032,48971
53092,9102,49118
53169,9155,49246
53228,9187,49353
53262,9200,49428
53280,9203,49478
53286,9204,49509
53276,9199,49514
53249,9189,49490
53206,9173,49436
53151,9144,49352
53093,9101,49257
53035,9050,49166
52974,8989,49074
52907,8919,48976
52839,8844,48871
52767,8765,48753
52694,8685,48634
52622,8607,48524
52553,8532,48409
52493,8466,48294
52440,8407,48190
52387,8346,48090
52332,8280,47977
52276,8222,47862
52224,8172,47760
52168,8116,47655
52102,8046,47537
52035,7971,47417
51977,7910,47318
51922,7866,47258
51866,7835,47233
51819,7818,47225
51784,7813,47231
51763,7820,47251
51755,7833,47276
51764,7849,47287
51789,7866,47284
51828,7888,47280
51877,7919,47285
51930,7954,47292
51981,7991,47308
52023,8030,47343
52044,8064,47396
52044,8088,47457
52033,8102,47518
52020,8110,47580
52013,8115,47633
52019,8123,47673
52026,8134,47712
52035,8151,47754
52058,8177,47796
52086,8203,47829
52100,8207,47840
52095,8185,47819
52080,8149,47774
52059,8103,47711
52030,8050,47638
51994,7995,47562
51955,7943,47482
51918,7899,47405
51883,7866,47349
51845,7837,47307
51802,7799,47251
51752,7749,47171
51698,7693,47083
51648,7646,47000
51606,7610,46922
51565,7570,46843
51526,7526,46777
51496,7487,46734
51471,7452,46692
51444,7410,46625
51414,7363,46537
51387,7319,46439
51361,7277,46337
51332,7234,46237
51305,7193,46153
51276,7152,46085
51238,7106,46019
51190,7055,45956
51145,7006,45907
51117,6970,45884
51103,6945,45885
51094,6923,45899
51082,6898,45911
51065,6873,45901
51048,6855,45866
51029,6841,45826
51008,6824,45784
50988,6807,45736
50971,6789,45679
50945,6764,45611
50908,6730,45544
50868,6699,45499
50830,6671,45466
50794,6642,45430
50765,6612,45390
50742,6578,45348
50715,6537,45307
50678,6487,45272
50640,6438,45249
50609,6394,45224
50577,6347,45177
50536,6294,45109
50495,6248,45044
50473,6231,45013
50475,6241,45022
50492,6267,45057
50532,6319,45127
50604,6409,45250
50700,6525,45425
50807,6652,45633
50929,6790,45852
51077,6948,46076
51255,7127,46310
51449,7317,46559
51644,7510,46816
51825,7700,47074
51986,7886,47319
52123,8055,47535
52237,8203,47716
52338,8332,47866
52430,8449,48003
52503,8546,48137
52557,8614,48247
52592,8655,48330
52615,8675,48403
52629,8680,48471
52631,8674,48518
52619,8654,48527
52598,8615,48500
52569,8556,48438
52527,8484,48349
52472,8408,48241
52402,8325,48120
52318,8237,47987
52227,8150,47850
52130,8063,47715
52029,7982,47588
51929,7911,47473
51838,7852,47370
51763,7804,47277
51707,7764,47196
51661,7723,47117
51619,7675,47038
51580,7623,46960
51546,7570,46883
51512,7514,46807
51475,7457,46726
51438,7400,46644
51401,7343,46567
51362,7285,46490
51318,7226,46398
51273,7173,46296
51238,7137,46215
51209,7116,46168
51191,7098,46148
51184,7083,46147
51192,7077,46161
51212,7085,46187
51234,7107,46220
51261,7142,46260
51298,7190,46320
51341,7244,46405
51379,7293,46497
51405,7331,46573
51423,7360,46633
51443,7391,46690
51468,7434,46749
51492,7477,46807
51512,7509,46853
51535,7537,46888
51558,7559,46913
51581,7570,46929
51605,7574,46950
51622,7572,46985
51626,7560,47017
51616,7532,47027
51600,7491,47008
51589,7456,46964
51574,7428,46903
51545,7400,46839
51500,7362,46767
51442,7315,46672
51380,7267,46558
51322,7221,46434
51266,7176,46315
51211,7134,46213
51165,7093,46128
51125,7049,46063
51081,6996,46007
51034,6934,45939
50990,6871,45868
50948,6813,45821
50901,6756,45793
50851,6696,45759
50802,6631,45709
50761,6567,45647
50732,6509,45575
50709,6454,45490
50686,6400,45399
50662,6346,45309
50641,6301,45226
50620,6269,45153
50588,6245,45086
50553,6226,45025
50526,6212,44977
50509,6199,44934
50492,6186,44898
50468,6175,44864
50436,6167,44821
50394,6159,44770
50346,6142,44711
50301,6122,44655
50271,6106,44610
50249,6094,44571
50229,6081,44532
50208,6063,44500
50186,6040,44479
50164,6024,44464
50141,6017,44447
50115,6013,44420
50094,6002,44388
50075,5976,44361
50053,5942,44351
50042,5918,44369
50047,5912,44410
50064,5914,44458
50099,5928,44516
50166,5976,44608
50264,6068,44745
50387,6201,44920
50532,6372,45128
50696,6574,45371
50873,6789,45646
51054,7003,45958
51235,7208,46299
51415,7404,46643
51591,7598,46970
51758,7783,47262
51918,7958,47519
52076,8128,47757
52219,8285,47969
52337,8413,48135
52437,8516,48256
52524,8602,48338
52592,8669,48393
52631,8710,48434
52638,8721,48461
52630,8708,48465
52617,8680,48451
52595,8642,48431
52560,8592,48399
52508,8522,48332
52442,8440,48240
52367,8351,48152
52288,8255,48067
52213,8160,47970
52141,8075,47867
52069,7998,47758
51997,7923,47630
51926,7852,47485
51862,7788,47344
51804,7730,47216
51752,7678,47106
51698,7626,47008
51637,7570,46912
51569,7507,46812
51504,7447,46705
51447,7398,46598
51385,7351,46509
51311,7295,46438
51235,7234,46369
51164,7176,46294
51105,7122,46228
51065,7076,46185
51047,7044,46171
51043,7030,46189
51044,7023,46232
51045,7022,46278
51060,7038,46317
51096,7076,46355
51141,7127,46401
51189,7190,46458
51236,7262,46529
51275,7332,46601
51308,7389,46668
51343,7435,46742
51382,7476,46820
51418,7506,46887
51446,7524,46944
51471,7537,47000
51502,7556,47061
51535,7574,47106
51553,7577,47117
51554,7567,47099
51547,7555,47070
51538,7539,47039
51527,7515,47011
51515,7485,46975
51506,7456,46934
51497,7432,46902
51486,7411,46879
51468,7389,46848
51435,7360,46790
51389,7318,46710
51340,7269,46630
51290,7215,46549
51235,7157,46457
51177,7096,46356
51112,7028,46245
51039,6957,46124
50970,6895,46003
50912,6845,45889
50857,6796,45783
50801,6745,45682
50756,6697,45595
50727,6649,45525
50704,6598,45476
50678,6549,45448
50655,6507,45424
50633,6470,45394
50606,6438,45358
50568,6409,45308
50523,6378,45236
50474,6341,45151
50423,6304,45072
50376,6269,45004
50327,6227,44937
50285,6182,44871
50257,6138,44820
50232,6093,44776
50205,6047,44735
50177,6005,44705
50148,5967,44680
50118,5942,44652
50091,5936,44622
50070,5941,44589
50052,5945,44543
50036,5947,44483
50023,5952,44431
50013,5958,44390
50002,5957,44351
49983,5941,44310
49954,5912,44267
49924,5879,44230
49906,5859,44219
49915,5870,44258
49958,5918,44353
50032,5998,44498
50138,6110,44690
50269,6248,44911
50416,6408,45154
50582,6591,45433
50773,6798,45747
50981,7023,46077
51197,7253,46415
51417,7485,46751
51630,7719,47074
51818,7945,47380
51970,8147,47666
52092,8317,47927
52197,8461,48161
52291,8580,48353
52371,8668,48503
52448,8730,48627
52527,8776,48722
52604,8807,48782
52667,8822,48816
52708,8819,48825
52731,8803,48803
52737,8776,48764
52720,8738,48724
52680,8682,48677
52620,8615,48609
52546,8543,48509
52464,8461,48387
52384,8375,48261
52309,8298,48139
52236,8228,48019
52166,8163,47902
52100,8104,47785
52041,8048,47660
51982,7987,47521
51922,7921,47375
51865,7859,47240
51813,7806,47117
51763,7757,47006
51709,7707,46909
51652,7651,46816
51593,7590,46713
51528,7524,46610
51458,7460,46525
51393,7406,46466
51340,7361,46422
51297,7318,46383
51258,7277,46350
51220,7241,46328
51189,7212,46316
51176,7198,46312
51188,7205,46322
51218,7230,46345
51260,7265,46375
51307,7303,46409
51355,7347,46452
51408,7401,46504
51467,7464,46566
51523,7527,46641
51564,7580,46731
51594,7624,46823
51627,7667,46914
51666,7711,47012
51702,7747,47109
51730,7768,47176
51755,7778,47208
51779,7781,47226
51796,7777,47243
51802,7764,47256
51801,7747,47252
51788,7723,47223
51762,7694,47171
51729,7663,47115
51688,7629,47064
51640,7589,47015
51583,7547,46967
51523,7502,46911
51457,7448,46836
51386,7383,46738
51320,7323,46627
51262,7278,46521
51206,7242,46436
51145,7207,46365
51084,7165,46289
51024,7114,46197
50966,7056,46093
50914,6996,45990
50872,6938,45903
50837,6880,45830
50801,6813,45762
50766,6744,45703
50749,6687,45654
50747,6647,45610
50741,6618,45573
50726,6596,45541
50714,6583,45509
50711,6574,45475
50718,6567,45448
50728,6562,45429
50724,6554,45398
50701,6537,45340
50668,6512,45260
50624,6479,45173
50578,6448,45088
50537,6426,45014
50502,6415,44969
50467,6407,44950
50428,6393,44942
50391,6372,44940
50357,6343,44938
50320,6302,44922
50282,6257,44894
50256,6219,44870
50244,6188,44846
50240,6162,44807
50227,6133,44748
50207,6101,44681
50191,6072,44625
50176,6050,44590
50164,6035,44579
50163,6029,44595
50186,6044,44646
50248,6095,44742
50352,6191,44883
50496,6329,45070
50673,6507,45314
50868,6721,45614
51064,6953,45938
51257,7188,46271
51453,7430,46623
51659,7680,46990
51865,7929,47351
52058,8159,47689
52235,8361,47997
52399,8540,48267
52547,8695,48485
52669,8818,48647
52771,8915,48769
52858,8991,48862
52919,9043,48930
52946,9064,48968
52943,9060,48978
52919,9040,48966
52889,9013,48940
52856,8977,48904
52808,8922,48846
52750,8853,48758
52690,8776,48655
52627,8690,48549
52565,8601,48434
52503,8514,48306
52436,8430,48174
52360,8346,48040
52275,8259,47903
52188,8177,47769
52106,8107,47647
52033,8045,47542
51974,7990,47462
51922,7939,47401
51873,7888,47348
51826,7833,47290
51777,7773,47214
51725,7711,47125
51671,7649,47030
51621,7592,46944
51582,7546,46878
51558,7517,46830
51540,7496,46786
51519,7475,46741
51500,7457,46702
51490,7453,46679
51487,7466,46685
51493,7493,46715
51521,7535,46769
51566,7586,46840
51616,7629,46907
51673,7668,46970
51739,7714,47044
51806,7762,47122
51866,7810,47205
51912,7852,47299
51944,7887,47391
51965,7919,47464
51975,7943,47505
51973,7960,47515
51966,7972,47503
51954,7978,47473
51943,7981,47434
51941,7986,47399
51943,7989,47366
51937,7981,47327
51926,7967,47281
51909,7954,47241
51877,7934,47204
51832,7901,47160
51788,7859,47114
51749,7808,47064
51708,7749,47004
51666,7684,46934
51626,7616,46859
51588,7549,46784
51554,7490,46711
51517,7433,46649
51470,7369,46601
51416,7299,46555
51363,7228,46495
51308,7157,46422
51248,7088,46347
51193,7033,46285
51153,7003,46242
51129,6991,46213
51109,6984,46192
51091,6980,46174
51078,6975,46146
51065,6965,46112
51051,6949,46076
51036,6928,46025
51011,6901,45956
50975,6867,45871
50944,6834,45776
50919,6809,45683
50896,6790,45608
50872,6772,45559
50841,6748,45522
50806,6718,45477
50771,6694,45425
50735,6674,45382
50704,6654,45343
50680,6636,45311
50659,6616,45294
50640,6591,45282
50623,6564,45273
50604,6533,45277
50577,6496,45289
50542,6450,45294
50510,6403,45284
50488,6371,45265
50473,6355,45233
50457,6346,45181
50438,6339,45111
50421,6337,45044
50405,6333,44997
50391,6324,44982
50389,6326,44993
50416,6356,45028
50472,6419,45104
50548,6515,45236
50637,6634,45412
50749,6776,45612
50895,6945,45848
51071,7138,46131
51260,7343,46448
51455,7552,46783
51658,7759,47119
51863,7963,47444
52056,8160,47741
52234,8344,47990
52400,8513,48200
52554,8667,48393
52685,8798,48571
52781,8895,48712
52843,8960,48805
52880,8999,48859
52904,9025,48879
52917,9037,48866
52913,9035,48837
52894,9026,48818
52861,9012,48808
52813,8985,48788
52752,8935,48742
52678,8867,48667
52600,8790,48569
52522,8705,48456
52448,8616,48344
52388,8536,48242
52342,8464,48143
52303,8387,48038
52259,8307,47930
52204,8226,47817
52144,8147,47702
52085,8076,47593
52021,8011,47491
51945,7952,47396
51868,7897,47302
51805,7844,47207
51751,7787,47126
51700,7722,47058
51654,7658,46989
51615,7602,46922
51588,7563,46860
51574,7546,46808
51569,7546,46777
51572,7555,46761
51582,7570,46760
51603,7594,46775
51636,7621,46804
51670,7649,46844
51698,7678,46891
51727,7713,46944
51761,7758,47005
51799,7815,47078
51833,7880,47170
51860,7946,47271
51880,8004,47361
51900,8051,47434
51927,8085,47494
51958,8106,47545
51988,8111,47587
52014,8112,47621
52034,8118,47654
52046,8131,47684
52055,8140,47694
52059,8129,47684
52052,8105,47673
52041,8078,47656
52026,8052,47622
52005,8030,47579
51975,8009,47530
51944,7982,47460
51914,7949,47375
51882,7907,47292
51842,7856,47213
51795,7798,47134
51738,7735,47047
51679,7670,46956
51626,7608,46867
51577,7546,46781
51523,7479,46705
51468,7418,46638
51422,7372,46568
51381,7335,46489
51346,7304,46407
51319,7274,46326
51293,7237,46259
51262,7191,46204
51220,7136,46149
51171,7078,46094
51127,7034,46046
51092,7001,45990
51058,6966,45924
51018,6925,45864
50980,6884,45814
50951,6853,45767
50924,6830,45715
50892,6814,45668
50849,6797,45619
50800,6775,45564
50756,6747,45516
50729,6722,45490
50716,6702,45470
50711,6682,45438
50707,6664,45398
50705,6653,45351
50705,6651,45303
50701,6657,45267
50689,6662,45249
50667,6661,45240
50631,6647,45220
50591,6621,45187
50565,6590,45164
50554,6566,45159
50557,6555,45167
50565,6547,45187
50580,6539,45214
50620,6546,45252
50692,6591,45316
50782,6670,45414
50887,6782,45555
51018,6934,45750
51162,7119,45990
51307,7316,46255
51463,7517,46534
51641,7726,46839
51831,7937,47162
52014,8134,47482
52183,8302,47781
52350,8451,48049
52523,8597,48291
52690,8736,48513
52832,8860,48711
52941,8963,48868
53016,9041,48966
53057,9088,49004
53068,9109,49007
53064,9116,48994
53052,9114,48976
53037,9101,48956
53013,9070,48929
52972,9013,48880
52919,8937,48805
52869,8857,48714
52816,8772,48607
52753,8677,48482
52684,8579,48347
52622,8492,48218
52562,8418,48104
52488,8339,47994
52398,8251,47890
52309,8167,47805
52227,8095,47727
52149,8031,47634
52076,7974,47534
52015,7923,47438
51957,7874,47341
51887,7824,47235
51806,7777,47130
51732,7739,47035
51675,7714,46950
51627,7695,46878
51584,7675,46823
51547,7655,46786
51526,7648,46767
51523,7656,46758
51529,7665,46753
51540,7669,46751
51561,7679,46760
51594,7698,46785
51638,7726,46825
51698,7767,46873
51769,7821,46930
51838,7877,46998
51905,7932,47087
51969,7989,47192
52025,8042,47286
52067,8088,47359
52105,8126,47411
52137,8156,47444
52160,8180,47459
52177,8198,47457
52189,8207,47446
52192,8211,47437
52185,8210,47434
52177,8205,47438
52177,8190,47446
52175,8161,47454
52160,8120,47459
52129,8075,47462
52089,8027,47468
52048,7974,47462
52016,7922,47424
51996,7876,47360
51981,7834,47296
51965,7799,47233
51938,7769,47161
51894,7735,47076
51834,7696,46981
51768,7655,46882
51707,7616,46789
51656,7578,46707
51620,7535,46629
51591,7486,46545
51559,7429,46454
51516,7363,46363
51472,7299,46280
51436,7244,46210
51402,7196,46157
51363,7155,46126
51326,7124,46110
51294,7103,46089
51264,7091,46058
51229,7085,46023
51193,7085,45993
51162,7087,45956
51138,7086,45901
51115,7078,45836
51085,7058,45771
51053,7031,45716
51026,7000,45671
51007,6974,45630
50995,6954,45591
50980,6933,45540
50966,6903,45478
50962,6865,45420
50966,6825,45374
50972,6792,45346
50974,6764,45326
50962,6733,45303
50940,6701,45278
50920,6679,45253
50897,6662,45217
50868,6644,45177
50844,6637,45154
50832,6646,45147
50824,6664,45156
50827,6697,45195
50857,6755,45278
50922,6848,45417
51026,6977,45617
51164,7136,45870
51328,7318,46158
51514,7523,46466
51711,7743,46786
51908,7970,47105
52103,8193,47413
52295,8405,47707
52472,8593,47981
52634,8758,48238
52790,8913,48488
52932,9049,48722
53052,9158,48930
53156,9254,49115
53245,9340,49274
53315,9409,49389
53363,9457,49457
53388,9488,49493
53391,9503,49501
53383,9502,49479
53367,9485,49440
53345,9454,49393
53319,9412,49336
53286,9358,49275
53238,9286,49210
53171,9193,49122
53093,9087,49005
53018,8976,48864
52947,8865,48714
52871,8759,48569
52791,8665,48433
52715,8582,48302
52639,8506,48170
52560,8436,48043
52482,8372,47921
52401,8306,47797
52323,8238,47675
52253,8174,47566
52198,8119,47475
52151,8067,47400
52104,8019,47334
52057,7979,47269
52016,7951,47204
51987,7940,47152
51962,7943,47131
51937,7954,47133
51927,7972,47152
51935,7994,47198
51958,8011,47264
51995,8032,47332
52038,8062,47400
52082,8100,47461
52133,8145,47520
52185,8196,47590
52229,8243,47661
52265,8285,47717
52302,8329,47766
52340,8385,47826
52371,8442,47891
52394,8487,47949
52419,8523,48014
52449,8554,48086
52482,8575,48138
52506,8580,48152
52520,8572,48141
52531,8564,48130
52539,8552,48116
52537,8530,48086
52531,8508,48044
52525,8489,47997
52513,8465,47945
52486,8425,47879
52440,8373,47796
52382,8316,47706
52325,8261,47626
52274,8214,47572
52231,8173,47532
52186,8128,47484
52138,8078,47418
52094,8027,47342
52054,7983,47273
52008,7934,47213
51955,7877,47150
51898,7817,47080
51845,7764,47006
51793,7722,46924
51740,7684,46837
51692,7646,46757
51654,7611,46686
51621,7574,46615
51586,7524,46542
51554,7465,46464
51533,7409,46383
51522,7363,46304
51516,7322,46230
51501,7281,46162
51473,7239,46104
51434,7196,46056
51386,7151,46015
51334,7111,45988
51288,7087,45982
51260,7081,45994
51246,7084,46014
51236,7090,46033
51227,7090,46030
51223,7085,46000
51218,7076,45968
51208,7060,45943
51202,7042,45915
51199,7028,45882
51186,7012,45847
51162,6997,45808
51133,6984,45763
51097,6973,45721
51057,6968,45696
51018,6973,45688
50988,6989,45692
50977,7021,45714
51000,7069,45763
51060,7141,45851
51146,7243,45986
51253,7376,46175
51387,7542,46423
51544,7735,46717
51726,7949,47038
51935,8177,47372
52164,8411,47716
52401,8644,48069
52635,8869,48416
52856,9078,48749
53061,9268,49060
53248,9440,49340
53407,9594,49572
53523,9720,49749
53597,9813,49875
53648,9874,49955
53685,9910,49997
53707,9923,50011
53720,9921,50017
53728,9912,50029
53726,9895,50035
53709,9859,50018
53682,9812,49980
53638,9761,49921
53576,9702,49828
53506,9634,49702
53431,9557,49556
53350,9474,49406
53266,9392,49269
53187,9316,49151
53119,9247,49048
53061,9187,48954
53011,9130,48860
52960,9068,48761
52904,9002,48668
52840,8933,48579
52771,8862,48480
52706,8795,48373
52654,8737,48264
52615,8688,48155
52576,8640,48050
52528,8585,47952
52476,8527,47864
52426,8474,47791
52384,8430,47751
52358,8406,47753
52351,8404,47785
52356,8414,47832
52360,8425,47878
52369,8440,47922
52396,8471,47961
52441,8523,48005
52495,8587,48070
52555,8658,48152
52619,8734,48233
52676,8806,48309
52728,8873,48386
52780,8934,48464
52832,8988,48531
52872,9026,48578
52901,9050,48618
52926,9063,48662
52942,9060,48706
52947,9044,48745
52947,9030,48788
52945,9023,48840
52941,9023,48885
52938,9025,48915
52927,9021,48939
52908,9006,48959
52886,8981,48952
52865,8944,48909
52836,8890,48830
52793,8824,48725
52736,8756,48607
52669,8693,48491
52598,8642,48381
52536,8602,48270
52488,8569,48153
52448,8535,48039
52404,8495,47932
52357,8444,47836
52307,8383,47760
52257,8320,47704
52212,8263,47661
52172,8217,47620
52137,8184,47578
52099,8150,47533
52059,8110,47479
52019,8068,47409
51976,8022,47322
51935,7976,47237
51904,7938,47175
51883,7901,47129
51858,7858,47088
51828,7817,47061
51803,7784,47042
51783,7750,47006
51764,7715,46947
51748,7688,46887
51739,7672,46836
51727,7660,46791
51699,7648,46747
51663,7642,46712
51634,7643,46683
51608,7634,46640
51574,7609,46581
51533,7573,46519
51492,7534,46463
51454,7500,46423
51423,7474,46409
51403,7457,46409
51393,7446,46409
51385,7438,46405
51374,7427,46397
51372,7414,46393
51380,7404,46398
51390,7399,46416
51407,7406,46458
51450,7441,46534
51520,7511,46646
51612,7615,46796
51732,7752,46995
51879,7917,47245
52051,8107,47526
52236,8317,47813
52421,8539,48095
52600,8760,48366
52777,8974,48632
52955,9186,48908
53133,9389,49194
53300,9574,49467
53455,9743,49713
53598,9898,49930
53721,10033,50121
53827,10148,50296
53926,10248,50457
54011,10325,50592
54070,10367,50697
54106,10383,50770
54131,10389,50818
54147,10388,50844
54144,10371,50841
54114,10335,50803
54065,10287,50736
54016,10236,50653
53966,10180,50553
53909,10113,50433
53844,10032,50305
53767,9935,50175
53679,9833,50041
53589,9736,49901
53503,9651,49769
53426,9578,49656
53358,9512,49566
53301,9455,49492
53251,9405,49418
53200,9357,49340
53146,9309,49272
53092,9257,49206
53044,9202,49122
53005,9152,49022
52974,9107,48922
52949,9071,48833
52932,9048,48759
52917,9031,48703
52898,9013,48667
52880,8999,48641
52868,8998,48627
52860,9005,48632
52861,9019,48654
52877,9044,48687
52910,9080,48728
52952,9121,48775
52993,9163,48834
53032,9215,48910
53074,9282,49006
53111,9350,49114
53138,9412,49221
53161,9469,49320
53189,9519,49411
53224,9561,49500
53259,9590,49578
53288,9606,49628
53312,9611,49649
53331,9601,49648
53347,9582,49636
53361,9569,49630
53375,9562,49633
53380,9549,49637
53374,9528,49639
53355,9499,49623
53324,9463,49582
53286,9423,49535
53242,9382,49485
53181,9339,49415
53104,9292,49328
53020,9240,49232
52934,9186,49131
52857,9132,49023
52795,9077,48919
52744,9020,48835
52699,8966,48777
52662,8918,48734
52628,8869,48695
52591,8812,48651
52550,8750,48593
52515,8695,48513
52484,8647,48411
52456,8603,48300
52429,8567,48197
52407,8543,48106
52381,8526,48032
52341,8502,47970
52294,8471,47903
52252,8435,47829
52222,8399,47761
52199,8364,47713
52184,8338,47693
52178,8321,47702
52176,8305,47730
52169,8282,47760
52154,8247,47771
52133,8199,47744
52112,8149,47692
52094,8110,47645
52077,8086,47602
52061,8072,47560
52049,8062,47525
52044,8054,47499
52042,8036,47459
52030,8002,47396
52000,7953,47325
51957,7896,47252
51909,7840,47181
51854,7786,47118
51800,7737,47065
51760,7701,47027
51743,7694,47013
51749,7716,47030
51775,7754,47080
51815,7804,47155
51863,7869,47256
51927,7960,47399
52022,8083,47598
52151,8242,47852
52308,8436,48144
52482,8648,48453
52670,8867,48760
52868,9092,49061
53063,9319,49346
53243,9536,49616
53406,9745,49879
53561,9952,50139
53709,10146,50384
53841,10308,50600
53962,10436,50783
54072,10544,50941
54166,10635,51079
54241,10700,51199
54299,10744,51296
54338,10771,51368
54359,10778,51413
54361,10770,51427
54346,10749,51412
54318,10714,51367
54279,10670,51295
54230,10623,51219
54184,10575,51138
54144,10521,51038
54108,10457,50918
54072,10383,50784
54024,10301,50643
53960,10212,50502
53882,10119,50369
53794,10028,50255
53713,9942,50160
53646,9868,50077
53587,9807,50008
53529,9755,49956
53481,9716,49915
53444,9686,49867
53405,9649,49803
53361,9603,49727
53315,9551,49639
53265,9496,49539
53219,9443,49451
53186,9400,49396
53174,9372,49371
53175,9351,49354
53174,9332,49348
53177,9323,49368
53195,9335,49409
53219,9363,49450
53240,9398,49483
53263,9439,49515
53291,9488,49550
53329,9545,49593
53372,9602,49653
53414,9657,49739
53462,9716,49840
53507,9773,49927
53547,9819,49993
53587,9862,50045
53626,9905,50088
53656,9936,50118
53682,9948,50139
53697,9945,50162
53700,9937,50190
53702,9929,50207
53699,9917,50200
53690,9905,50177
53671,9890,50143
53631,9859,50089
53570,9812,50011
53500,9762,49917
53433,9714,49813
53375,9668,49710
53321,9616,49599
53272,9560,49488
53231,9509,49398
53192,9461,49323
53145,9409,49251
53093,9354,49179
53053,9299,49111
53024,9238,49044
52986,9163,48978
52934,9079,48909
52871,8992,48838
52803,8908,48769
52732,8827,48709
52662,8755,48657
52601,8696,48608
52556,8654,48566
52530,8628,48536
52512,8612,48508
52490,8595,48458
52462,8574,48389
52441,8561,48329
52429,8560,48287
52419,8561,48258
52409,8557,48236
52397,8548,48212
52370,8534,48171
52328,8517,48116
52286,8505,48064
52252,8498,48024
52224,8490,47981
52203,8478,47939
52197,8464,47911
52200,8444,47894
52199,8417,47877
52192,8386,47857
52179,8348,47822
52156,8305,47777
52130,8269,47737
52097,8235,47699
52047,8199,47651
51994,8170,47596
51957,8154,47534
51932,8141,47468
51908,8123,47408
51893,8108,47362
51895,8105,47333
51917,8124,47341
51959,8169,47404
52022,8247,47515
52108,8362,47666
52220,8507,47860
52354,8667,48095
52507,8836,48366
52673,9016,48660
52846,9204,48970
53022,9393,49295
53198,9579,49621
53376,9764,49934
53560,9949,50229
53743,10133,50502
53917,10317,50753
54076,10494,50986
54217,10654,51199
54339,10787,51385
54442,10891,51531
54516,10965,51628
54558,11006,51672
54567,11015,51673
54550,11003,51650
54521,10973,51616
54480,10923,51566
54425,10859,51498
54356,10787,51411
54275,10708,51303
54189,10627,51187
54105,10540,51070
54028,10445,50942
53961,10349,50806
53899,10260,50670
53838,10182,50541
53782,10114,50430
53729,10053,50336
53672,9989,50243
53608,9920,50139
53540,9851,50024
53469,9781,49907
53400,9705,49793
53344,9631,49693
53296,9567,49610
53246,9508,49537
53192,9453,49473
53135,9407,49408
53083,9369,49337
53045,9339,49276
53030,9324,49242
53035,9329,49242
53049,9348,49271
53070,9374,49321
53099,9410,49389
53129,9461,49464
53158,9517,49537
53192,9573,49612
53235,9626,49696
53287,9674,49788
53339,9719,49893
53389,9765,50018
53443,9814,50150
53500,9866,50266
53559,9918,50359
53614,9962,50424
53657,9996,50463
53688,10023,50478
53702,10047,50470
53699,10059,50442
53687,10057,50404
53669,10051,50357
53643,10032,50292
53610,10000,50224
53577,9966,50171
53543,9935,50122
53507,9901,50070
53469,9858,50020
53432,9800,49967
53398,9736,49906
53363,9680,49854
53326,9629,49811
53287,9580,49753
53240,9526,49663
53183,9462,49555
53120,9397,49453
53055,9331,49360
52984,9265,49262
52914,9211,49168
52854,9167,49080
52797,9122,48985
52744,9074,48881
52694,9024,48772
52642,8973,48664
52602,8929,48574
52585,8892,48507
52575,8853,48454
52553,8807,48413
52522,8757,48389
52491,8706,48370
52467,8662,48354
52454,8634,48351
52446,8622,48348
52438,8618,48323
52427,8616,48275
52416,8614,48220
52405,8608,48170
52389,8589,48125
52369,8563,48092
52354,8544,48077
52341,8532,48063
52320,8513,48033
52290,8486,47991
52255,8454,47945
52218,8428,47900
52183,8402,47859
52153,8375,47829
52131,8355,47812
52113,8345,47797
52096,8350,47792
52086,8365,47800
52086,8388,47819
52104,8422,47853
52147,8473,47911
52218,8547,48006
52325,8645,48153
52456,8766,48351
52607,8912,48595
52783,9088,48880
52972,9287,49192
53163,9499,49525
53362,9718,49871
53562,9938,50207
53748,10147,50516
53917,10338,50798
54074,10509,51053
54219,10669,51282
54341,10816,51484
54439,10944,51661
54519,11048,51814
54580,11130,51939
54619,11192,52031
54649,11232,52087
54672,11245,52112
54675,11234,52112
54659,11206,52087
54631,11166,52043
54591,11114,51985
54541,11055,51905
54489,10997,51808
54433,10929,51700
54371,10845,51585
54304,10759,51470
54229,10674,51347
54153,10586,51217
54085,10508,51095
54024,10442,50975
53960,10374,50849
53888,10299,50717
53814,10224,50593
53746,10151,50480
53680,10080,50375
53612,10006,50273
53540,9928,50174
53469,9852,50087
53405,9783,50014
53350,9726,49957
53302,9672,49914
53260,9626,49883
53227,9590,49854
53209,9565,49826
53210,9561,49815
53226,9587,49825
53258,9635,49848
53298,9692,49883
53338,9752,49932
53390,9821,50000
53463,9896,50083
53540,9961,50168
53607,10012,50259
53667,10065,50362
53725,10127,50466
53777,10191,50556
53820,10242,50623
53858,10279,50667
53887,10311,50695
53895,10334,50715
53891,10343,50731
53884,10350,50745
53874,10354,50747
53859,10340,50729
53844,10310,50694
53824,10278,50640
53797,10243,50569
53763,10202,50497
53720,10153,50431
53672,10108,50360
53627,10072,50288
53582,10031,50225
53536,9976,50160
53493,9918,50091
53453,9864,50027
53417,9815,49972
53382,9769,49910
53338,9719,49823
53277,9661,49715
53207,9599,49604
53146,9542,49506
53096,9481,49417
53044,9410,49334
52997,9343,49266
52959,9294,49211
52919,9261,49153
52875,9236,49091
52831,9208,49036
52790,9176,48989
52752,9138,48943
52719,9095,48901
52693,9058,48868
52672,9029,48835
52644,9005,48793
52601,8979,48741
52556,8956,48687
52521,8941,48631
52489,8921,48574
52463,8894,48525
52451,8870,48496
52450,8853,48481
52448,8837,48466
52441,8819,48446
52430,8804,48420
52415,8789,48385
52399,8774,48356
52386,8763,48335
52371,8748,48312
52353,8732,48287
52335,8712,48258
52312,8685,48217
52292,8660,48174
52277,8641,48142
52268,8629,48124
52268,8620,48120
52280,8615,48122
52309,8618,48131
52356,8639,48160
52425,8685,48231
52516,8764,48356
52630,8882,48545
52769,9039,48796
52931,9231,49098
53113,9456,49435
53305,9708,49785
53503,9969,50132
53696,10220,50473
53885,10459,50813
54072,10690,51149
54249,10911,51470
54418,11109,51771
54573,11279,52038
54713,11419,52250
54835,11533,52415
54939,11620,52553
55020,11676,52660
55070,11706,52730
55087,11716,52773
55083,11708,52795
55065,11692,52790
55039,11676,52762
55004,11649,52717
54959,11605,52658
54908,11552,52582
54847,11484,52482
54773,11398,52362
54700,11303,52233
54638,11214,52110
54576,11133,51998
54500,11055,51886
54419,10973,51769
54351,10896,51650
54298,10835,51540
54250,10788,51447
54203,10745,51363
54160,10696,51276
54112,10644,51183
54054,10590,51098
53992,10534,51017
53925,10475,50930
53858,10417,50847
53799,10364,50779
53756,10323,50721
53729,10295,50668
53717,10274,50624
53719,10260,50597
53730,10259,50591
53742,10269,50600
53756,10282,50620
53772,10304,50659
53793,10346,50721
53827,10400,50801
53873,10460,50886
53921,10522,50964
53967,10585,51042
54012,10645,51118
54050,10696,51182
54086,10737,51245
54128,10773,51301
54169,10802,51342
54211,10829,51380
54253,10854,51419
54281,10871,51450
54294,10878,51470
54302,10872,51476
54305,10867,51471
54297,10861,51455
54277,10843,51424
54242,10808,51380
54192,10758,51320
54142,10703,51252
54098,10647,51177
54051,10586,51089
54000,10522,50998
53942,10450,50899
53871,10370,50786
53791,10282,50671
53712,10195,50562
53644,10124,50457
53586,10073,50365
53532,10024,50290
53479,9971,50223
53429,9919,50156
53377,9869,50089
53328,9822,50022
53288,9782,49949
53251,9744,49869
53212,9705,49789
53180,9671,49725
53157,9639,49672
53132,9594,49611
53099,9539,49554
53066,9488,49515
53033,9443,49483
52994,9406,49447
52944,9371,49402
52889,9341,49350
52844,9324,49297
52809,9309,49238
52779,9289,49172
52753,9263,49109
52736,9240,49050
52730,9222,49005
52725,9204,48982
52715,9184,48971
52701,9163,48958
52679,9137,48936
52650,9111,48906
52620,9098,48874
52593,9088,48837
52569,9073,48792
52546,9053,48745
52531,9037,48713
52524,9024,48693
52525,9007,48672
52533,8987,48659
52545,8970,48662
52552,8955,48676
52561,8951,48701
52580,8968,48747
52612,9010,48815
52659,9079,48904
52719,9182,49031
52806,9328,49210
52926,9507,49435
53072,9706,49697
53243,9923,50002
53434,10152,50337
53636,10385,50682
53842,10614,51021
54050,10836,51349
54257,11049,51667
54454,11249,51963
54630,11428,52225
54784,11584,52460
54921,11724,52680
55041,11850,52879
55144,11960,53043
55228,12050,53170
55293,12114,53267
55338,12150,53333
55365,12160,53359
55365,12148,53346
55338,12112,53297
55292,12059,53215
55229,11992,53110
55152,11911,52995
55072,11825,52878
55003,11741,52765
54941,11660,52657
54871,11574,52549
54796,11490,52442
54725,11416,52344
54659,11352,52241
54600,11292,52133
54551,11235,52030
54511,11180,51937
54471,11129,51852
54424,11080,51768
54367,11023,51681
54307,10956,51588
54252,10893,51492
54202,10835,51397
54159,10784,51318
54119,10740,51260
54080,10703,51216
54048,10678,51177
54027,10662,51147
54018,10654,51128
54012,10650,51117
54014,10650,51120
54028,10655,51135
54046,10665,51151
54060,10675,51176
54078,10690,51220
54109,10724,51285
54151,10771,51363
54191,10814,51442
54228,10858,51517
54270,10913,51590
54314,10973,51660
54348,11022,51716
54371,11060,51763
54392,11090,51801
54408,11112,51824
54427,11133,51841
54446,11147,51861
54454,11145,51870
54447,11131,51857
54435,11113,51829
54422,11091,51796
54401,11063,51758
54371,11031,51703
54336,10995,51639
54299,10953,51567
54257,10909,51484
54213,10869,51404
54174,10825,51333
54137,10766,51252
54091,10695,51150
54039,10623,51045
53983,10557,50953
53926,10495,50866
53870,10437,50784
53815,10381,50712
53759,10329,50649
53706,10287,50591
53663,10251,50532
53614,10204,50453
53556,10140,50357
53504,10076,50266
53467,10029,50188
53437,9992,50111
53403,9952,50039
53369,9914,49985
53339,9882,49948
53307,9848,49915
53269,9816,49878
53236,9793,49838
53203,9773,49793
53170,9749,49751
53150,9727,49722
53140,9702,49699
53130,9673,49686
53120,9644,49685
53112,9620,49681
53108,9604,49664
53105,9594,49632
53092,9578,49589
53074,9553,49539
53059,9526,49489
53047,9500,49452
53032,9473,49425
53015,9447,49391
52999,9424,49347
52984,9406,49297
52964,9394,49251
52944,9384,49210
52927,9368,49178
52909,9346,49157
52888,9319,49142
52870,9300,49141
52862,9299,49155
52863,9312,49183
52880,9342,49239
52934,9405,49335
53024,9506,49471
53133,9637,49653
53261,9799,49886
53417,9997,50161
53595,10215,50457
53780,10435,50757
53974,10654,51058
54174,10878,51360
54378,11108,51662
54579,11332,51970
54772,11542,52277
54953,11737,52568
55114,11913,52830
55247,12066,53056
55351,12184,53241
55432,12263,53376
55494,12319,53468
55540,12359,53529
55564,12375,53569
55565,12360,53584
55541,12323,53562
55498,12268,53506
55446,12207,53431
55387,12143,53350
55318,12070,53258
55240,11994,53152
55164,11921,53032
55097,11856,52913
55038,11795,52808
54976,11730,52704
54907,11663,52592
54839,11602,52485
54776,11543,52396
54718,11477,52321
54660,11408,52243
54606,11339,52154
54561,11277,52065
54529,11221,51987
54499,11172,51920
54460,11128,51853
54417,11088,51785
54373,11041,51720
54324,10982,51649
54278,10929,51572
54242,10890,51502
54217,10859,51443
54204,10831,51393
54197,10812,51350
54187,10802,51317
54178,10808,51312
54179,10828,51339
54198,10859,51388
54236,10900,51442
54285,10951,51500
54333,10996,51564
54382,11037,51639
54438,11087,51721
54499,11149,51803
54553,11210,51888
54592,11256,51968
54616,11285,52028
54635,11305,52073
54655,11326,52114
54675,11349,52153
54689,11366,52180
54697,11378,52187
54707,11389,52179
54713,11389,52160
54703,11365,52122
54679,11321,52064
54645,11268,51987
54598,11213,51904
54538,11161,51824
54470,11105,51746
54402,11047,51670
54340,10988,51597
54279,10922,51513
54213,10848,51415
54151,10773,51310
54099,10698,51207
54050,10624,51107
54003,10557,51020
53952,10498,50947
53896,10444,50871
53840,10395,50783
53792,10350,50694
53756,10308,50606
53724,10269,50518
53688,10234,50439
53656,10201,50372
53630,10163,50312
53597,10120,50259
53552,10077,50206
53510,10034,50151
53477,9996,50094
53453,9965,50034
53438,9950,49987
53434,9955,49961
53435,9970,49947
53435,9980,49935
53423,9973,49908
53396,9952,49864
53358,9921,49808
53312,9878,49742
53262,9830,49674
53220,9790,49621
53189,9759,49596
53163,9731,49586
53137,9703,49572
53122,9680,49554
53118,9657,49537
53104,9625,49521
53082,9587,49512
53062,9552,49506
53046,9520,49493
53031,9493,49470
53017,9471,49437
53000,9450,49392
52968,9424,49330
52921,9393,49262
52877,9370,49208
52851,9368,49177
52849,9382,49172
52875,9408,49202
52928,9457,49279
53001,9533,49400
53096,9641,49570
53219,9784,49788
53371,9961,50045
53540,10168,50331
53721,10389,50642
53909,10607,50960
54102,10828,51273
54299,11051,51578
54496,11263,51869
54683,11462,52142
54860,11655,52406
55025,11833,52662
55171,11983,52892
55292,12101,53087
55389,12193,53248
55460,12261,53365
55504,12300,53437
55534,12320,53478
55557,12329,53494
55561,12322,53479
55541,12292,53432
55501,12242,53363
55444,12173,53276
55380,12091,53178
55311,12008,53074
55236,11930,52963
55152,11851,52842
55071,11765,52717
55003,11682,52601
54938,11608,52497
54868,11535,52393
54798,11461,52290
54736,11394,52198
54679,11339,52118
54615,11287,52040
54547,11228,51956
54481,11160,51860
54421,11088,51747
54363,11019,51629
54313,10954,51532
54268,10894,51454
54222,10841,51378
54175,10799,51307
54131,10768,51249
54103,10749,51208
54094,10745,51192
54101,10757,51195
54122,10778,51215
54157,10812,51263
54205,10863,51332
54260,10925,51404
54311,10979,51475
54352,11018,51541
54390,11060,51602
54434,11117,51667
54479,11172,51740
54521,11213,51809
54561,11253,51865
54596,11294,51914
54625,11325,51958
54659,11349,51999
54689,11373,52038
54707,11388,52070
54715,11396,52098
54720,11402,52111
54718,11405,52103
54702,11393,52079
54671,11366,52049
54632,11332,52021
54594,11295,51995
54559,11252,51956
54520,11198,51895
54477,11138,51824
54431,11081,51750
54370,11020,51671
54300,10952,51588
54241,10889,51499
54192,10837,51406
54147,10784,51316
54112,10733,51224
54083,10688,51126
54061,10645,51028
54040,10595,50928
54007,10537,50824
53954,10477,50724
53891,10415,50636
53831,10362,50563
53784,10326,50505
53749,10300,50453
53715,10272,50394
53681,10239,50325
53651,10205,50266
53627,10176,50220
53596,10142,50171
53554,10098,50120
53512,10057,50079
53476,10023,50044
53440,9990,50011
53395,9951,49970
53344,9912,49918
53303,9882,49863
53274,9859,49808
53248,9834,49760
53222,9806,49722
53199,9778,49693
53185,9754,49675
53175,9728,49651
53159,9700,49612
53142,9677,49573
53131,9653,49539
53118,9614,49498
53092,9565,49452
53055,9514,49411
53010,9465,49381
52962,9418,49366
52917,9374,49348
52882,9331,49307
52860,9288,49252
52852,9251,49203
52852,9226,49169
52861,9226,49164
52886,9259,49206
52937,9324,49291
53012,9421,49405
53108,9548,49550
53231,9704,49738
53387,9893,49983
53567,10113,50276
53756,10349,50587
53950,10583,50897
54143,10807,51198
54333,11027,51492
54520,11240,51785
54699,11434,52076
54867,11617,52357
55020,11790,52614
55153,11941,52833
55268,12068,53014
55366,12171,53153
55449,12248,53253
55514,12295,53319
55553,12314,53354
55573,12315,53366
55572,12300,53352
55543,12262,53296
55489,12202,53203
55422,12132,53100
55344,12055,52995
55256,11971,52883
55165,11884,52770
55073,11797,52663
54990,11716,52558
54921,11641,52455
54855,11564,52348
54789,11479,52233
54728,11395,52117
54669,11311,52004
54601,11222,51881
54526,11130,51743
54450,11037,51597
54376,10943,51452
54310,10854,51317
54246,10773,51193
54179,10703,51082
54116,10647,50989
54053,10600,50909
53993,10560,50841
53948,10529,50784
53919,10509,50740
53902,10505,50727
53903,10517,50747
53919,10541,50786
53940,10570,50836
53972,10604,50895
54018,10654,50964
54078,10719,51045
54141,10786,51143
54198,10851,51250
54251,10910,51354
54301,10961,51453
54352,11013,51550
54399,11069,51646
54443,11121,51734
54494,11168,51804
54548,11210,51859
54602,11250,51906
54651,11289,51940
54689,11313,51952
54716,11319,51939
54735,11319,51904
54746,11316,51856
54740,11303,51799
54716,11276,51741
54670,11237,51685
54611,11190,51621
54552,11134,51547
54494,11073,51464
54431,11012,51383
54371,10950,51307
54314,10890,51234
54254,10834,51164
54200,10781,51101
54152,10730,51034
54104,10672,50954
54051,10605,50866
53997,10537,50779
53951,10475,50693
53913,10414,50601
53874,10353,50500
53839,10297,50407
53802,10249,50330
53753,10200,50260
53701,10151,50185
53648,10101,50101
53596,10051,50020
53548,10004,49955
53505,9960,49900
53471,9923,49857
53447,9893,49835
53428,9867,49821
53408,9838,49794
53386,9805,49749
53363,9771,49694
53343,9745,49647
53325,9727,49614
53305,9714,49584
53280,9695,49546
53245,9665,49490
53209,9632,49425
53178,9604,49369
53144,9576,49328
53112,9548,49310
53086,9526,49314
53060,9506,49322
53034,9484,49327
53017,9468,49329
53005,9458,49328
52986,9440,49318
52963,9415,49296
52953,9401,49275
52958,9401,49252
52971,9416,49238
52997,9447,49251
53045,9496,49293
53120,9574,49367
53219,9685,49486
53340,9829,49662
53494,10007,49905
53677,10214,50207
53877,10437,50542
54086,10673,50888
54300,10916,51237
54518,11160,51585
54731,11396,51914
54923,11608,52216
55092,11796,52496
55248,11967,52741
55391,12120,52948
55511,12244,53127
55602,12341,53279
55665,12416,53402
55709,12468,53496
55742,12504,53565
55758,12520,53604
55749,12511,53603
55725,12483,53574
55705,12448,53526
55678,12406,53453
55633,12347,53362
55575,12276,53258
55508,12193,53129
55435,12104,52990
55360,12014,52851
55281,11925,52712
55207,11836,52582
55142,11748,52455
55080,11666,52328
55024,11594,52214
54969,11528,52115
54906,11466,52026
54840,11403,51950
54773,11337,51874
54708,11267,51786
54651,11203,51693
54593,11144,51604
54531,11082,51521
54469,11021,51442
54409,10961,51361
54357,10906,51288
54320,10866,51233
54298,10837,51191
54286,10817,51163
54284,10818,51150
54293,10841,51159
54319,10877,51190
54366,10922,51236
54419,10969,51291
54467,11012,51346
54513,11052,51405
54565,11101,51468
54623,11154,51532
54686,11208,51606
54752,11273,51690
54821,11352,51776
54885,11430,51859
54937,11496,51933
54979,11544,51993
55010,11575,52035
55030,11596,52067
55039,11604,52084
55035,11590,52085
55017,11562,52070
54995,11528,52040
54978,11498,52003
54957,11476,51967
54930,11454,51927
54903,11430,51875
54875,11401,51808
54840,11363,51732
54802,11319,51654
54761,11274,51572
54714,11223,51495
54664,11167,51417
54606,11102,51322
54536,11027,51217
54464,10953,51117
54401,10890,51022
54346,10834,50934
54293,10777,50853
54240,10713,50777
54185,10639,50694
54120,10562,50606
54048,10487,50521
53979,10416,50441
53919,10352,50359
53867,10295,50274
53824,10241,50197
53793,10193,50125
53772,10158,50050
53747,10125,49980
53711,10086,49916
53672,10047,49858
53635,10019,49807
53599,9999,49763
53561,9986,49726
53520,9975,49697
53476,9965,49671
53429,9948,49641
53383,9920,49606
53346,9887,49566
53321,9857,49528
53309,9831,49501
53303,9803,49482
53294,9771,49464
53285,9739,49448
53267,9705,49425
53238,9673,49389
53214,9657,49347
53199,9651,49298
53179,9637,49239
53158,9618,49187
53147,9607,49151
53150,9604,49128
53171,9609,49134
53211,9628,49184
53279,9680,49282
53374,9771,49430
53493,9899,49627
53636,10065,49867
53801,10268,50142
53981,10494,50446
54184,10730,50772
54413,10978,51117
54651,11237,51476
54883,11498,51834
55106,11741,52178
55318,11957,52495
55514,12151,52781
55693,12333,53039
55843,12494,53263
55954,12618,53444
56039,12707,53581
56108,12770,53680
56158,12810,53744
56186,12829,53777
56194,12830,53792
56183,12810,53787
56156,12776,53754
56121,12733,53696
56083,12681,53621
56042,12622,53543
55999,12558,53460
55947,12488,53364
55877,12414,53255
55802,12334,53145
55730,12250,53034
55660,12169,52911
55591,12096,52786
55524,12029,52681
55461,11968,52601
55399,11914,52529
55343,11871,52456
55290,11831,52376
55236,11783,52291
55183,11728,52205
55123,11665,52115
55050,11593,52017
54982,11520,51925
54928,11455,51841
54878,11394,51760
54828,11336,51679
54785,11286,51609
54756,11247,51554
54742,11226,51525
54739,11224,51524
54740,11240,51544
54747,11266,51578
54758,11293,51622
54774,11322,51671
54795,11359,51729
54816,11403,51787
54844,11441,51837
54887,11474,51886
54937,11516,51942
54987,11564,52000
55040,11612,52061
55094,11655,52124
55142,11695,52186
55181,11730,52246
55210,11756,52291
55227,11770,52313
55237,11774,52320
55246,11766,52315
55251,11748,52296
55246,11727,52266
55232,11706,52227
55207,11678,52180
55170,11638,52127
55125,11596,52075
55077,11553,52013
55020,11506,51929
54951,11455,51835
54880,11398,51750
54811,11334,51674
54748,11267,51602
54692,11205,51528
54642,11150,51448
54585,11091,51360
54529,11025,51271
54484,10962,51187
54443,10906,51103
54401,10855,51018
54361,10803,50933
54317,10739,50848
54265,10673,50759
54213,10620,50673
54171,10571,50591
54140,10520,50508
54117,10477,50425
54103,10449,50347
54088,10423,50282
54060,10390,50229
54018,10353,50173
53970,10314,50109
53920,10273,50047
53870,10230,49991
53821,10187,49933
53778,10149,49877
53754,10123,49840
53746,10109,49826
53739,10098,49808
53728,10085,49777
53715,10067,49744
53703,10042,49707
53688,10018,49667
53666,10002,49631
53640,9981,49596
53615,9949,49560
53602,9912,49522
53599,9876,49475
53600,9839,49424
53596,9805,49381
53583,9778,49351
53568,9762,49333
53555,9760,49330
53548,9772,49345
53550,9808,49382
53571,9877,49455
53624,9982,49576
53710,10114,49747
53830,10266,49969
53984,10442,50238
54161,10648,50544
54351,10875,50875
54552,11110,51211
54764,11339,51533
54976,11564,51843
55185,11791,52149
55382,12004,52444
55559,12189,52714
55715,12353,52964
55846,12500,53188
55957,12619,53372
56054,12708,53519
56129,12775,53633
56179,12825,53716
56213,12854,53765
56231,12856,53784
56230,12842,53783
56206,12817,53759
56165,12770,53701
56114,12705,53623
56059,12641,53540
56000,12580,53451
55934,12507,53344
55863,12417,53221
55795,12328,53089
55729,12249,52952
55659,12171,52815
55595,12091,52686
55534,12020,52570
55462,11957,52464
55384,11888,52357
55305,11806,52241
55226,11722,52122
55148,11647,52008
55075,11583,51912
55011,11519,51831
54954,11449,51754
54899,11379,51673
54839,11311,51581
54779,11246,51489
54728,11188,51412
54697,11141,51350
54682,11110,51305
54678,11103,51290
54688,11117,51308
54712,11145,51348
54742,11180,51400
54779,11219,51459
54823,11263,51520
54863,11311,51577
54888,11358,51633
54910,11400,51690
54948,11448,51755
55001,11510,51828
55054,11577,51904
55101,11630,51983
55140,11662,52053
