green_channel,red_channel,ir_channel
19203,36705,44911
19179,36677,44835
19118,36596,44702
19040,36498,44553
18997,36454,44464
18966,36426,44393
18899,36347,44268
18828,36264,44141
18800,36241,44077
18781,36228,44019
18727,36162,43902
18669,36092,43787
18648,36076,43731
18629,36057,43670
18571,35979,43551
18519,35906,43444
18508,35892,43400
18495,35872,43346
18442,35799,43236
18393,35739,43144
18379,35731,43107
18356,35709,43047
18298,35638,42931
18249,35585,42837
18232,35573,42790
18198,35536,42714
18131,35454,42589
18082,35397,42497
18066,35383,42449
18032,35340,42362
17971,35259,42235
17930,35211,42153
17916,35201,42106
17877,35150,42006
17810,35064,41871
17771,35022,41790
17756,35009,41745
17708,34947,41645
17638,34856,41512
17601,34817,41434
17583,34806,41381
17531,34742,41271
17460,34654,41139
17423,34615,41058
17399,34594,40991
17340,34518,40862
17268,34426,40718
17233,34387,40634
17208,34361,40563
17149,34283,40435
17083,34200,40304
17053,34173,40234
17030,34152,40167
16973,34079,40041
16915,34002,39922
16893,33977,39867
16870,33950,39808
16811,33869,39685
16755,33796,39571
16738,33779,39518
16720,33754,39453
16663,33674,39333
16610,33607,39232
16593,33591,39184
16568,33561,39113
16509,33483,38991
16461,33427,38897
16444,33416,38851
16411,33378,38775
16348,33296,38652
16303,33242,38564
16290,33229,38519
16256,33183,38433
16193,33098,38302
16150,33049,38214
16132,33034,38162
16089,32977,38061
16022,32891,37925
15982,32851,37842
15962,32840,37790
15912,32778,37682
15844,32689,37544
15809,32650,37463
15794,32636,37405
15746,32568,37289
15680,32476,37151
15644,32436,37071
15624,32414,37009
15575,32348,36899
15524,32283,36800
15520,32292,36794
15547,32341,36846
15569,32375,36901
15622,32447,37028
15749,32619,37297
15919,32838,37647
16091,33045,38012
16294,33292,38448
16563,33622,39000
16849,33964,39582
17108,34261,40127
17376,34567,40697
17682,34924,41325
17974,35260,41925
18213,35524,42441
18443,35787,42944
18691,36080,43459
18905,36330,43903
19061,36505,44249
19208,36676,44575
19364,36866,44901
19477,37003,45149
19537,37073,45314
19601,37152,45482
19684,37255,45661
19735,37310,45772
19750,37318,45827
19785,37357,45916
19844,37427,46037
19875,37453,46109
19887,37451,46154
19936,37506,46260
20013,37600,46407
20061,37651,46508
20093,37679,46589
20166,37764,46733
20261,37877,46904
20321,37937,47021
20364,37977,47122
20447,38069,47280
20544,38176,47449
20600,38229,47558
20642,38267,47655
20718,38356,47806
20792,38448,47952
20816,38477,48022
20822,38491,48070
20853,38543,48157
20876,38580,48213
20846,38544,48172
20804,38497,48106
20787,38490,48073
20756,38459,48003
20674,38356,47850
20588,38247,47691
20537,38186,47577
20476,38111,47440
20375,37987,47248
20283,37882,47079
20232,37831,46969
20174,37764,46842
20089,37661,46679
20030,37594,46560
20014,37580,46503
19986,37547,46431
19934,37481,46333
19908,37454,46286
19919,37472,46290
19913,37458,46262
19881,37414,46207
19876,37413,46205
19895,37445,46236
19881,37430,46213
19841,37382,46159
19833,37380,46158
19846,37404,46180
19822,37372,46135
19774,37308,46052
19757,37288,46012
19757,37285,45981
19719,37226,45887
19664,37147,45773
19639,37119,45710
19623,37103,45653
19567,37031,45528
19499,36947,45392
19465,36916,45314
19437,36889,45238
19368,36804,45102
19295,36712,44967
19258,36674,44892
19220,36633,44811
19140,36537,44664
19064,36449,44524
19029,36420,44448
18995,36385,44365
18924,36296,44228
18861,36220,44109
18838,36202,44049
18807,36169,43971
18739,36084,43845
18686,36022,43747
18671,36011,43702
18641,35980,43633
18579,35908,43519
18538,35868,43442
18533,35875,43415
18507,35852,43353
18450,35781,43247
18414,35739,43180
18406,35732,43146
18374,35685,43060
18317,35603,42938
18286,35566,42870
18278,35564,42838
18239,35516,42749
18178,35437,42625
18149,35408,42555
18138,35404,42511
18091,35347,42411
18023,35262,42288
17989,35226,42224
17971,35208,42176
17917,35137,42067
17850,35050,41941
17820,35017,41874
17800,34998,41817
17746,34926,41699
17682,34843,41575
17655,34812,41512
17635,34788,41452
17580,34711,41335
17522,34635,41224
17500,34615,41176
17479,34593,41120
17419,34517,41003
17360,34447,40895
17338,34433,40849
17314,34408,40790
17253,34330,40674
17199,34268,40575
17183,34259,40530
17160,34236,40462
17103,34165,40343
17056,34115,40250
17044,34109,40208
17019,34076,40138
16965,33996,40020
16927,33941,39936
16916,33923,39893
16883,33873,39809
16823,33786,39683
16784,33738,39602
16769,33731,39559
16728,33687,39464
16663,33610,39334
16625,33576,39257
16609,33571,39212
16562,33518,39114
16495,33436,38986
16461,33402,38914
16445,33394,38862
16394,33336,38751
16326,33257,38619
16289,33228,38545
16268,33215,38487
16215,33150,38371
16154,33068,38243
16128,33035,38172
16111,33012,38107
16065,32938,37990
16018,32865,37884
16019,32860,37865
16038,32882,37886
16042,32883,37897
16073,32926,37975
16173,33068,38187
16306,33250,38470
16439,33415,38765
16612,33624,39135
16854,33921,39623
17112,34232,40142
17346,34503,40638
17595,34795,41174
17884,35139,41767
18160,35462,42329
18393,35727,42823
18627,36001,43320
18879,36300,43836
19093,36548,44281
19254,36722,44634
19413,36896,44976
19579,37087,45317
19699,37219,45576
19768,37291,45757
19843,37381,45944
19927,37485,46133
19970,37531,46242
19983,37537,46296
20025,37586,46393
20086,37666,46513
20112,37693,46571
20117,37691,46595
20160,37743,46676
20227,37819,46786
20260,37845,46850
20280,37856,46906
20342,37927,47030
20420,38018,47179
20463,38060,47276
20498,38093,47365
20573,38183,47517
20657,38284,47676
20701,38329,47771
20736,38367,47856
20808,38454,47992
20876,38539,48112
20897,38559,48153
20908,38566,48179
20945,38612,48244
20963,38634,48270
20925,38580,48204
20876,38519,48123
20853,38498,48073
20810,38451,47983
20718,38339,47819
20627,38235,47662
20570,38176,47550
20501,38097,47409
20402,37978,47220
20325,37891,47069
20288,37858,46979
20240,37807,46872
20167,37720,46739
20123,37670,46658
20118,37666,46631
20094,37637,46574
20049,37580,46489
20037,37569,46462
20055,37592,46476
20044,37568,46442
20006,37516,46377
20002,37517,46371
20021,37549,46398
20003,37528,46367
19964,37477,46307
19961,37476,46298
19976,37494,46303
19951,37456,46243
19903,37391,46157
19886,37372,46119
19875,37362,46085
19823,37294,45982
19759,37213,45861
19727,37182,45792
19697,37154,45722
19625,37068,45585
19546,36975,45444
19510,36938,45360
19478,36903,45273
19407,36814,45124
19337,36731,44984
19308,36708,44909
19275,36676,44827
19203,36587,44689
19136,36507,44570
19110,36482,44509
19077,36444,44427
19007,36357,44288
18949,36289,44173
18930,36272,44111
18901,36234,44026
18839,36151,43899
18796,36097,43809
18787,36089,43767
18759,36051,43693
18697,35972,43579
18655,35925,43506
18641,35916,43471
18603,35868,43389
18539,35787,43271
18501,35750,43204
18485,35745,43168
18438,35695,43077
18371,35619,42954
18339,35594,42887
18331,35597,42849
18290,35548,42752
18230,35472,42629
18206,35445,42562
18199,35437,42513
18154,35374,42406
18095,35293,42287
18069,35264,42229
18053,35247,42178
17999,35177,42064
17938,35097,41941
17915,35070,41878
17894,35048,41818
17832,34971,41698
17765,34892,41579
17739,34867,41520
17713,34839,41455
17651,34753,41327
17594,34673,41210
17578,34652,41157
17560,34626,41093
17503,34545,40968
17453,34478,40859
17440,34467,40805
17418,34439,40731
17357,34358,40604
17306,34298,40501
17286,34285,40447
17253,34245,40365
17191,34160,40241
17147,34101,40154
17135,34085,40112
17105,34042,40033
17050,33966,39916
17018,33927,39844
17012,33924,39807
16978,33880,39719
16916,33803,39595
16880,33770,39523
16865,33766,39485
16818,33714,39392
16749,33635,39269
16713,33606,39203
16698,33603,39163
16649,33547,39064
16583,33466,38945
16554,33437,38885
16543,33428,38842
16501,33368,38737
16447,33291,38618
16426,33266,38559
16412,33251,38510
16363,33181,38400
16305,33103,38284
16284,33080,38227
16270,33063,38167
16221,32991,38043
16166,32917,37923
16141,32897,37867
16113,32873,37807
16053,32797,37693
16005,32738,37605
16011,32752,37608
16032,32781,37641
16044,32791,37677
16097,32854,37801
16223,33014,38053
16378,33203,38358
16537,33387,38686
16742,33635,39110
17009,33962,39640
17276,34284,40185
17522,34575,40720
17794,34906,41308
18100,35281,41940
18382,35617,42520
18629,35899,43039
18885,36201,43577
19149,36516,44118
19363,36762,44569
19530,36945,44943
19704,37145,45325
19878,37352,45691
19997,37487,45958
20074,37570,46157
20172,37684,46373
20278,37806,46581
20339,37861,46706
20376,37884,46794
20443,37952,46925
20520,38034,47065
20559,38064,47147
20589,38082,47221
20660,38159,47359
20743,38253,47512
20791,38301,47614
20837,38345,47720
20927,38447,47893
21026,38554,48068
21088,38611,48183
21149,38674,48307
21250,38796,48493
21350,38910,48672
21405,38964,48788
21461,39024,48913
21555,39135,49092
21634,39225,49244
21662,39252,49324
21693,39282,49404
21756,39353,49512
21796,39392,49564
21782,39366,49535
21768,39349,49507
21774,39361,49498
21745,39327,49430
21667,39232,49294
21596,39155,49173
21549,39109,49076
21473,39020,48923
21363,38885,48722
21277,38787,48563
21222,38729,48440
21143,38632,48272
21049,38509,48085
20997,38442,47969
20976,38417,47898
20924,38352,47785
20855,38271,47661
20830,38251,47609
20831,38265,47595
20800,38232,47536
20755,38183,47470
20750,38192,47471
20760,38221,47491
20733,38197,47454
20697,38155,47406
20700,38162,47412
20708,38175,47419
20674,38129,47355
20633,38072,47277
20630,38069,47251
20626,38062,47215
20574,37992,47110
20518,37922,47005
20497,37905,46956
20469,37876,46893
20397,37787,46766
20330,37706,46648
20302,37678,46583
20263,37635,46493
20181,37539,46343
20108,37458,46213
20075,37426,46136
20028,37371,46035
19946,37270,45885
19882,37197,45767
19855,37171,45695
19812,37119,45589
19738,37029,45445
19685,36974,45348
19664,36959,45295
19620,36908,45200
19548,36819,45071
19504,36772,44996
19484,36760,44953
19434,36703,44852
19365,36613,44713
19333,36572,44627
19323,36560,44573
19276,36498,44465
19206,36409,44333
19173,36373,44258
19159,36357,44204
19111,36289,44093
19047,36203,43965
19018,36170,43896
19000,36149,43838
18945,36073,43720
18879,35988,43593
18849,35958,43528
18823,35936,43468
18758,35857,43350
18689,35776,43233
18659,35754,43177
18633,35733,43116
18568,35660,42990
18506,35594,42872
18486,35586,42818
18462,35569,42753
18400,35492,42629
18346,35425,42519
18331,35411,42464
18307,35378,42386
18244,35289,42252
18191,35219,42143
18172,35199,42086
18137,35159,42001
18070,35074,41867
18021,35013,41769
18005,34996,41720
17966,34948,41637
17894,34861,41510
17845,34811,41424
17826,34798,41375
17785,34749,41278
17717,34666,41144
17677,34628,41063
17660,34620,41015
17614,34561,40909
17549,34471,40770
17520,34433,40689
17510,34424,40638
17461,34362,40532
17389,34271,40404
17353,34230,40333
17334,34211,40280
17281,34141,40169
17215,34055,40045
17183,34023,39981
17160,34003,39929
17104,33933,39818
17042,33857,39701
17018,33837,39643
16997,33821,39587
16942,33751,39470
16886,33681,39357
16867,33666,39307
16848,33647,39249
16793,33570,39127
16741,33499,39015
16725,33482,38963
16701,33453,38892
16633,33368,38758
16568,33296,38641
16540,33278,38582
16506,33244,38499
16436,33160,38363
16377,33098,38254
16349,33081,38197
16309,33037,38110
16240,32948,37978
16193,32890,37883
16180,32880,37839
16155,32844,37769
16114,32785,37686
16116,32790,37693
16174,32866,37796
16242,32945,37921
16324,33039,38091
16474,33227,38398
16682,33491,38814
16888,33746,39244
17101,34001,39702
17373,34329,40263
17682,34699,40880
17962,35023,41455
18224,35321,42011
18518,35661,42616
18817,36007,43217
19062,36282,43728
19275,36518,44187
19506,36782,44663
19723,37028,45101
19875,37193,45428
19996,37325,45701
20134,37486,45989
20256,37627,46237
20320,37689,46389
20368,37737,46518
20447,37831,46686
20516,37913,46825
20537,37929,46886
20556,37947,46949
20616,38023,47073
20673,38093,47186
20694,38112,47250
20732,38151,47345
20816,38249,47505
20893,38333,47651
20939,38374,47754
21005,38444,47893
21112,38566,48088
21201,38663,48253
21256,38713,48369
21330,38792,48519
21435,38910,48707
21512,38991,48850
21552,39030,48947
21613,39102,49080
21695,39201,49232
21740,39244,49310
21747,39242,49332
21773,39270,49384
21806,39309,49439
21786,39276,49400
21726,39196,49296
21687,39153,49216
21654,39123,49131
21571,39030,48968
21464,38909,48772
21392,38835,48626
21334,38776,48491
21239,38664,48298
21133,38543,48101
21073,38481,47976
21031,38435,47875
20958,38343,47731
20887,38259,47605
20867,38244,47561
20857,38241,47531
20814,38191,47454
20776,38152,47395
20787,38178,47411
20800,38201,47424
20774,38165,47380
20754,38137,47349
20775,38165,47375
20787,38179,47380
20755,38137,47325
20730,38108,47286
20740,38124,47294
20733,38113,47270
20686,38049,47190
20653,38007,47135
20650,38007,47117
20622,37975,47054
20558,37893,46935
20511,37839,46849
20492,37821,46800
20448,37766,46704
20375,37674,46567
20327,37623,46477
20304,37606,46421
20248,37542,46309
20169,37445,46162
20126,37396,46069
20106,37377,46005
20049,37306,45885
19971,37208,45738
19933,37162,45649
19917,37141,45585
19863,37071,45467
19791,36982,45336
19753,36948,45267
19727,36930,45214
19666,36860,45105
19597,36782,44991
19570,36763,44938
19553,36753,44891
19499,36686,44786
19442,36618,44680
19425,36607,44634
19410,36592,44585
19356,36518,44476
19304,36452,44381
19294,36446,44354
19280,36432,44313
19222,36360,44208
19168,36298,44118
19155,36290,44085
19135,36268,44027
19078,36194,43913
19033,36140,43824
19026,36135,43786
19004,36107,43718
18948,36034,43599
18906,35988,43515
18894,35985,43479
18865,35954,43406
18807,35879,43291
18771,35835,43218
18764,35827,43182
18732,35781,43096
18673,35700,42969
18637,35659,42891
18620,35648,42846
18571,35591,42747
18502,35505,42618
18468,35474,42550
18457,35474,42512
18410,35421,42417
18344,35337,42297
18313,35302,42233
18301,35288,42183
18252,35224,42071
18188,35146,41943
18159,35121,41877
18142,35107,41824
18089,35037,41712
18029,34958,41595
18007,34933,41541
17992,34917,41493
17940,34847,41385
17884,34774,41279
17864,34754,41233
17842,34727,41173
17778,34642,41047
17715,34561,40929
17691,34538,40873
17662,34510,40804
17597,34431,40675
17539,34365,40562
17519,34353,40504
17491,34325,40425
17427,34244,40293
17374,34182,40191
17355,34166,40139
17319,34125,40055
17249,34035,39922
17197,33974,39826
17179,33961,39779
17147,33923,39703
17094,33853,39603
17079,33834,39575
17110,33875,39625
17142,33905,39673
17180,33940,39748
17283,34067,39948
17443,34270,40254
17604,34461,40572
17775,34656,40922
18010,34932,41385
18283,35259,41918
18531,35546,42421
18766,35812,42918
19039,36129,43476
19322,36458,44041
19555,36723,44527
19759,36958,44974
19984,37227,45451
20199,37484,45898
20352,37656,46240
20477,37792,46531
20626,37959,46838
20763,38105,47105
20842,38175,47274
20904,38230,47417
20996,38329,47600
21075,38415,47753
21101,38436,47826
21125,38462,47899
21189,38548,48030
21249,38627,48143
21271,38653,48198
21307,38696,48276
21390,38794,48417
21464,38875,48541
21500,38908,48620
21553,38966,48733
21647,39073,48900
21723,39154,49037
21763,39188,49128
21823,39255,49257
21915,39365,49426
21982,39438,49548
22015,39465,49623
22068,39524,49733
22140,39610,49865
22170,39637,49922
22162,39613,49915
22176,39624,49935
22201,39651,49957
22172,39607,49888
22102,39515,49757
22058,39462,49657
22023,39425,49561
21938,39328,49392
21830,39203,49194
21759,39127,49050
21701,39064,48921
21605,38950,48737
21502,38828,48553
21445,38771,48445
21407,38733,48363
21337,38649,48236
21269,38573,48121
21252,38566,48083
21246,38569,48058
21202,38520,47980
21164,38479,47916
21173,38502,47925
21185,38523,47932
21159,38486,47881
21140,38457,47845
21164,38484,47870
21176,38497,47873
21141,38449,47811
21111,38413,47762
21115,38425,47760
21102,38412,47724
21048,38344,47626
21005,38295,47552
20993,38290,47522
20959,38253,47452
20887,38164,47329
20833,38104,47240
20811,38083,47186
20763,38024,47083
20685,37925,46936
20633,37865,46833
20608,37840,46764
20553,37769,46643
20474,37668,46493
20429,37618,46402
20410,37600,46346
20358,37532,46236
20285,37438,46099
20251,37400,46022
20237,37392,45972
20186,37334,45866
20118,37258,45745
20088,37235,45686
20072,37227,45642
20016,37164,45538
19950,37089,45424
19925,37071,45372
19910,37062,45325
19855,36994,45216
19797,36922,45107
19781,36908,45064
19769,36895,45019
19716,36824,44911
19664,36755,44812
19654,36747,44777
19640,36732,44731
19584,36655,44621
19534,36588,44524
19527,36580,44488
19511,36561,44432
19453,36486,44316
19402,36426,44221
19389,36416,44183
19363,36384,44117
19300,36303,43995
19254,36247,43901
19241,36237,43853
19206,36196,43767
19137,36109,43636
19091,36057,43551
19076,36046,43511
19037,35998,43424
18970,35914,43298
18928,35872,43222
18911,35863,43182
18862,35805,43087
18793,35717,42956
18764,35683,42880
18760,35681,42834
18717,35623,42728
18651,35535,42596
18620,35500,42524
18607,35489,42475
18557,35427,42370
18494,35349,42250
18468,35325,42191
18453,35316,42145
18396,35252,42037
18329,35179,41921
18301,35163,41866
18282,35153,41813
18224,35086,41696
18163,35016,41583
18141,34997,41533
18120,34970,41475
18058,34881,41348
17998,34795,41229
17980,34771,41178
17959,34742,41117
17898,34655,40990
17842,34578,40878
17825,34559,40828
17796,34529,40756
17726,34448,40628
17664,34386,40527
17639,34370,40478
17601,34328,40396
17531,34238,40261
17481,34178,40161
17466,34166,40108
17434,34125,40019
17372,34045,39888
17334,34002,39804
17325,34001,39766
17294,33965,39689
17244,33906,39594
17237,33911,39584
17276,33971,39651
17313,34011,39717
17365,34062,39821
17489,34211,40060
17671,34434,40399
17850,34644,40750
18042,34863,41140
18297,35163,41642
18589,35503,42202
18854,35799,42728
19109,36082,43253
19402,36420,43841
19701,36765,44430
19950,37043,44936
20176,37296,45412
20428,37588,45918
20666,37863,46389
20838,38055,46756
20984,38219,47083
21152,38418,47431
21300,38588,47732
21386,38673,47929
21457,38744,48103
21558,38859,48312
21642,38954,48483
21677,38985,48574
21718,39026,48671
21802,39123,48818
21878,39204,48943
21917,39235,49019
21974,39293,49133
22074,39403,49311
22160,39492,49467
22212,39539,49584
22288,39622,49746
22404,39754,49959
22503,39855,50136
22573,39918,50275
22669,40019,50457
22792,40158,50670
22880,40249,50822
22935,40297,50931
23018,40385,51087
23120,40497,51264
23175,40548,51367
23194,40560,51421
23240,40613,51507
23294,40680,51592
23289,40677,51585
23248,40631,51523
23235,40617,51488
23221,40599,51438
23149,40507,51296
23048,40387,51117
22979,40313,50980
22914,40243,50839
22804,40112,50628
22687,39974,50412
22617,39898,50266
22556,39832,50131
22459,39719,49943
22366,39617,49776
22326,39587,49691
22293,39567,49618
22225,39499,49501
22169,39449,49414
22167,39464,49402
22167,39470,49384
22130,39419,49316
22107,39384,49272
22129,39404,49287
22138,39405,49277
22106,39352,49214
22088,39323,49178
22105,39342,49184
22096,39331,49149
22043,39269,49059
22006,39231,49001
21994,39230,48982
21953,39189,48913
21880,39103,48796
21834,39057,48720
21814,39043,48673
21760,38979,48565
21677,38878,48419
21630,38824,48326
21605,38800,48260
21540,38723,48132
21452,38613,47972
21403,38556,47868
21376,38527,47787
21309,38445,47649
21224,38343,47494
21179,38298,47404
21150,38272,47331
21083,38189,47197
21006,38092,47056
20969,38053,46981
20941,38025,46914
20872,37942,46784
20796,37858,46650
20762,37836,46582
20733,37817,46516
20663,37741,46388
20592,37668,46269
20566,37655,46217
20538,37635,46156
20466,37553,46032
20399,37482,45923
20378,37470,45877
20352,37444,45817
20285,37359,45700
20231,37292,45602
20217,37278,45555
20189,37243,45477
20124,37154,45345
20076,37091,45240
20063,37075,45183
20028,37028,45091
19956,36934,44954
19902,36872,44856
19879,36849,44802
19831,36789,44702
19754,36690,44561
19705,36634,44470
19683,36612,44414
19631,36545,44301
19554,36448,44153
19515,36407,44069
19503,36400,44020
19457,36342,43916
19388,36254,43786
19358,36224,43716
19349,36221,43668
19301,36160,43559
19232,36076,43433
19198,36042,43368
19174,36021,43314
19110,35944,43194
19037,35859,43065
19006,35834,42999
18983,35819,42937
18919,35745,42810
18850,35666,42682
18819,35642,42620
18791,35617,42558
18721,35534,42431
18655,35456,42310
18632,35435,42254
18608,35406,42185
18543,35318,42054
18486,35242,41940
18470,35224,41888
18445,35196,41818
18376,35116,41694
18318,35057,41595
18297,35048,41549
18260,35011,41468
18184,34920,41330
18125,34851,41223
18102,34825,41165
18059,34770,41072
17984,34676,40935
17933,34619,40841
17915,34604,40788
17874,34549,40683
17804,34459,40541
17762,34414,40454
17745,34402,40403
17693,34340,40294
17616,34247,40151
17576,34207,40068
17561,34202,40018
17514,34146,39913
17454,34069,39798
17443,34060,39765
17466,34091,39788
17474,34096,39799
17497,34120,39858
17593,34245,40050
17739,34429,40332
17885,34603,40627
18060,34810,40988
18306,35111,41478
18586,35444,42024
18845,35739,42544
19114,36044,43087
19431,36409,43701
19745,36766,44304
20005,37052,44829
20254,37326,45339
20527,37637,45882
20771,37913,46371
20945,38102,46751
21102,38278,47099
21280,38486,47458
21429,38654,47751
21516,38745,47947
21595,38835,48132
21697,38953,48338
21769,39029,48489
21795,39047,48571
21836,39090,48674
21915,39179,48817
21974,39237,48918
22002,39249,48978
22055,39298,49086
22139,39390,49238
22198,39446,49350
22233,39475,49436
22308,39560,49589
22416,39688,49786
22494,39772,49935
22550,39830,50060
22648,39942,50246
22771,40081,50459
22851,40163,50607
22904,40214,50723
22992,40311,50882
23088,40415,51039
23131,40451,51114
23145,40460,51155
23186,40513,51234
23226,40562,51295
23209,40538,51263
23166,40486,51194
23150,40474,51157
23126,40448,51091
23042,40348,50933
22941,40237,50758
22876,40175,50634
22803,40100,50490
22682,39957,50273
22563,39819,50064
22491,39744,49925
22419,39668,49782
22312,39545,49593
22224,39449,49439
22191,39422,49362
22160,39388,49280
22097,39313,49163
22054,39269,49093
22055,39283,49089
22047,39279,49067
22009,39233,49008
21995,39222,48994
22017,39261,49030
22018,39265,49027
21986,39225,48980
21977,39220,48976
21997,39250,49002
21984,39232,48966
21938,39175,48883
21919,39159,48850
21920,39171,48843
21880,39127,48771
21812,39046,48659
21777,39013,48600
21762,39004,48558
21704,38937,48449
21623,38842,48312
21580,38799,48230
21555,38772,48157
21489,38688,48013
21409,38588,47856
21369,38544,47764
21339,38512,47685
21267,38424,47546
21189,38329,47408
21153,38292,47336
21122,38258,47264
21050,38166,47128
20977,38076,46998
20950,38049,46936
20921,38020,46870
20849,37935,46742
20782,37860,46628
20761,37846,46578
20735,37820,46515
20667,37737,46393
20608,37671,46293
20589,37661,46250
20560,37632,46182
20494,37555,46060
20446,37505,45967
20436,37505,45925
20408,37476,45851
20343,37396,45728
20298,37343,45643
20285,37333,45602
20246,37290,45520
20175,37209,45397
20130,37165,45318
20116,37157,45274
20075,37102,45175
20009,37014,45043
19979,36977,44971
19973,36970,44932
19932,36907,44834
19870,36816,44709
19844,36780,44644
19835,36771,44605
19786,36709,44508
19718,36627,44392
19688,36600,44336
19673,36589,44293
19617,36520,44186
19551,36437,44066
19526,36412,44006
19510,36396,43951
19455,36321,43832
19394,36240,43709
19372,36219,43654
19352,36207,43601
19291,36141,43486
19233,36080,43377
19216,36077,43334
19197,36062,43281
19135,35980,43162
19077,35906,43055
19058,35891,43008
19030,35862,42940
18957,35775,42813
18892,35699,42705
18865,35670,42649
18827,35619,42564
18753,35521,42425
18693,35453,42319
18664,35437,42263
18616,35390,42168
18537,35299,42025
18481,35241,41922
18460,35225,41862
18419,35172,41759
18352,35082,41620
18315,35037,41539
18305,35029,41499
18267,34972,41403
18204,34882,41272
18176,34845,41200
18170,34842,41163
18133,34795,41079
18085,34733,40992
18093,34748,41001
18144,34817,41080
18187,34871,41158
18249,34946,41287
18385,35117,41550
18572,35346,41899
18752,35556,42253
18950,35783,42660
19212,36090,43180
19499,36423,43739
19756,36712,44255
20015,37002,44782
20316,37348,45369
20609,37680,45935
20842,37934,46409
21062,38173,46858
21305,38450,47337
21521,38694,47763
21669,38852,48081
21799,38995,48369
21949,39171,48672
22071,39310,48913
22133,39374,49066
22193,39437,49215
22281,39532,49389
22345,39592,49510
22365,39599,49567
22404,39634,49650
22479,39718,49780
22533,39775,49875
22554,39795,49931
22604,39859,50039
22692,39969,50199
22756,40042,50320
22795,40078,50412
22870,40162,50564
22974,40281,50755
23043,40350,50889
23086,40385,50987
23167,40473,51137
23269,40588,51308
23327,40644,51409
23354,40663,51474
23412,40726,51586
23478,40799,51697
23488,40803,51725
23464,40774,51709
23466,40785,51724
23462,40791,51719
23399,40718,51618
23312,40618,51478
23256,40562,51373
23196,40501,51245
23084,40374,51035
22965,40243,50815
22889,40171,50658
22817,40098,50503
22707,39967,50295
22606,39850,50109
22558,39805,50006
22515,39762,49909
22436,39671,49771
22373,39603,49666
22363,39602,49635
22352,39592,49591
22307,39534,49503
22280,39500,49453
22295,39522,49469
22295,39523,49463
22259,39477,49411
22243,39462,49391
22263,39492,49412
22259,39484,49386
22218,39429,49312
22197,39409,49280
22201,39426,49283
22172,39397,49224
22112,39326,49118
22079,39295,49059
22066,39290,49026
22009,39224,48925
21926,39122,48783
21882,39070,48694
21858,39045,48629
21790,38962,48502
21699,38850,48347
21646,38791,48246
21608,38754,48161
21531,38664,48013
21443,38561,47854
21397,38516,47757
21363,38486,47671
21290,38402,47526
21212,38312,47380
21178,38284,47301
21149,38262,47226
21078,38182,47091
21007,38101,46966
20981,38077,46912
20957,38051,46855
20892,37967,46736
20831,37892,46629
20815,37877,46586
20796,37853,46529
20734,37771,46409
20679,37703,46306
20662,37689,46257
20632,37654,46182
20561,37570,46054
20505,37511,45958
20486,37503,45915
20449,37466,45840
20375,37382,45717
20323,37329,45631
20307,37319,45587
20268,37272,45496
20196,37181,45361
20152,37131,45277
20137,37118,45231
20095,37059,45130
20024,36966,44989
19987,36925,44907
19973,36918,44859
19924,36856,44754
19851,36763,44622
19816,36723,44549
19801,36710,44502
19748,36643,44394
19675,36555,44264
19640,36520,44192
19620,36499,44134
19560,36421,44011
19488,36331,43871
19455,36300,43794
19430,36284,43726
19365,36212,43600
19295,36134,43474
19266,36113,43416
19243,36094,43359
19181,36018,43238
19120,35943,43124
19099,35922,43077
19075,35891,43020
19009,35798,42896
18948,35716,42784
18927,35697,42736
18898,35667,42672
18829,35583,42549
18772,35516,42446
18754,35502,42397
18723,35465,42318
18654,35377,42186
18600,35313,42083
18582,35296,42030
18547,35253,41942
18478,35165,41805
18426,35106,41704
18403,35086,41643
18357,35030,41539
18284,34937,41398
18235,34887,41309
18212,34872,41257
18158,34809,41147
18080,34714,41005
18038,34673,40926
18021,34667,40883
17971,34612,40783
17902,34529,40655
17870,34504,40585
17862,34508,40544
17825,34467,40457
17784,34421,40381
17802,34454,40409
17864,34537,40508
17923,34602,40613
18008,34699,40785
18173,34900,41099
18383,35155,41494
18586,35393,41892
18814,35657,42347
19104,36002,42912
19410,36358,43505
19682,36661,44050
19957,36967,44605
20271,37323,45217
20569,37655,45797
20806,37909,46288
21030,38153,46763
21278,38430,47257
21495,38668,47686
21644,38824,48010
21779,38972,48311
21935,39146,48621
22056,39273,48862
22121,39332,49015
22189,39401,49172
22284,39507,49358
22349,39573,49491
22373,39592,49568
22418,39643,49682
22499,39733,49835
22557,39784,49941
22588,39803,50015
22653,39876,50151
22750,39992,50332
22819,40068,50468
22873,40120,50583
22972,40232,50766
23098,40377,50985
23182,40468,51147
23243,40534,51278
23341,40652,51458
23457,40787,51649
23527,40859,51771
23574,40902,51865
23652,40989,52006
23731,41076,52142
23755,41090,52198
23757,41080,52222
23789,41115,52280
23815,41139,52314
23781,41087,52255
23724,41016,52166
23697,40991,52110
23658,40952,52022
23563,40842,51846
23462,40731,51665
23402,40677,51538
23333,40613,51393
23219,40488,51184
23113,40373,50993
23056,40315,50868
22993,40247,50731
22895,40134,50554
22819,40051,50421
22787,40025,50358
22741,39980,50279
22664,39894,50162
22616,39843,50092
22616,39849,50085
22605,39831,50052
22568,39779,49988
22560,39771,49975
22587,39806,50001
22583,39794,49974
22548,39742,49905
22544,39736,49888
22563,39765,49902
22542,39738,49850
22489,39673,49755
22468,39654,49705
22464,39659,49674
22417,39604,49574
22343,39516,49443
22306,39476,49366
22285,39453,49304
22220,39373,49177
22139,39277,49036
22098,39236,48956
22066,39203,48885
21992,39111,48749
21904,39009,48607
21856,38968,48529
21814,38932,48451
21728,38837,48304
21642,38741,48159
21602,38706,48081
21564,38671,47999
21485,38581,47856
21414,38500,47728
21392,38478,47665
21365,38445,47587
21292,38354,47449
21227,38277,47333
21207,38258,47273
21180,38225,47187
21114,38143,47049
21062,38085,46947
21047,38076,46902
21009,38038,46825
20934,37950,46695
20880,37890,46598
20859,37874,46545
20811,37824,46449
20731,37733,46313
20678,37681,46226
20657,37665,46176
20610,37606,46073
20537,37514,45933
20498,37473,45850
20485,37467,45803
20435,37409,45698
20360,37322,45561
20322,37289,45481
20308,37284,45428
20258,37224,45320
20191,37139,45191
20161,37108,45120
20145,37093,45065
20087,37022,44950
20016,36933,44824
19986,36902,44759
19968,36884,44700
19914,36812,44580
19851,36735,44460
19826,36715,44405
19803,36694,44348
19739,36613,44227
19674,36533,44113
19650,36513,44063
19624,36487,44002
19557,36399,43875
19495,36319,43761
19475,36301,43711
19448,36275,43649
19377,36193,43528
19315,36127,43423
19291,36115,43372
19257,36082,43294
19187,35996,43161
19133,35933,43055
19114,35917,42999
19079,35870,42911
19008,35777,42778
18956,35716,42682
18934,35701,42629
18890,35650,42532
18819,35557,42396
18775,35502,42313
18756,35480,42268
18706,35413,42162
18630,35316,42016
18585,35269,41925
18562,35252,41866
18503,35181,41747
18422,35080,41596
18376,35033,41502
18350,35016,41436
18289,34949,41315
18212,34862,41178
18174,34830,41103
18151,34815,41045
18093,34744,40926
18028,34657,40798
18001,34627,40737
17982,34611,40691
17929,34547,40596
17880,34491,40520
17887,34515,40543
17922,34571,40611
17949,34608,40676
18019,34694,40819
18176,34884,41104
18369,35110,41453
18552,35314,41806
18766,35558,42229
19044,35885,42758
19328,36217,43300
19579,36502,43803
19842,36802,44331
20140,37142,44902
20411,37443,45424
20628,37675,45866
20842,37911,46307
21070,38171,46761
21255,38375,47138
21384,38506,47424
21514,38644,47707
21657,38800,47992
21754,38899,48193
21803,38943,48321
21867,39016,48472
21947,39113,48637
21989,39154,48731
22005,39161,48782
22062,39223,48888
22148,39319,49026
22194,39361,49108
22218,39376,49168
22284,39451,49292
22373,39553,49444
22423,39603,49544
22458,39636,49635
22539,39729,49798
22636,39840,49981
22694,39897,50102
22740,39944,50212
22828,40049,50383
22924,40162,50557
22976,40216,50663
23018,40262,50758
23098,40356,50903
23173,40434,51023
23192,40439,51054
23200,40437,51071
23237,40481,51131
23253,40500,51152
23208,40439,51081
23154,40372,50993
23129,40346,50933
23082,40293,50827
22980,40177,50646
22885,40073,50479
22827,40018,50358
22752,39939,50204
22639,39810,50002
22548,39714,49841
22499,39673,49743
22435,39608,49621
22345,39509,49473
22290,39456,49385
22277,39452,49353
22246,39412,49285
22195,39342,49195
22185,39324,49173
22209,39350,49197
22199,39335,49172
22166,39292,49120
22172,39304,49127
22201,39346,49159
22188,39331,49128
22148,39284,49070
22142,39287,49066
22150,39307,49075
22115,39268,49015
22061,39207,48933
22046,39198,48905
22039,39196,48879
21986,39131,48780
21919,39051,48668
21892,39024,48613
21870,39000,48554
21803,38914,48427
21730,38824,48299
21697,38793,48234
21661,38759,48159
21582,38667,48014
21509,38584,47879
21483,38562,47808
21449,38529,47725
21367,38441,47580
21294,38366,47457
21266,38343,47397
21231,38302,47320
21157,38210,47191
21100,38144,47090
21083,38128,47043
21049,38089,46967
20979,38003,46842
20931,37949,46754
20919,37944,46712
20887,37908,46633
20823,37832,46516
20786,37795,46449
20779,37797,46422
20743,37754,46343
20680,37674,46228
20650,37643,46171
20643,37646,46146
20599,37598,46063
20531,37519,45948
20500,37496,45892
20491,37500,45860
20442,37446,45765
20377,37368,45646
20356,37345,45588
20354,37341,45548
20312,37279,45445
20256,37197,45327
20240,37169,45270
20231,37151,45221
20176,37077,45108
20111,36997,44991
20087,36977,44941
20072,36964,44894
20019,36896,44783
19967,36832,44681
19958,36831,44645
19947,36823,44598
19889,36750,44482
19832,36680,44377
19817,36668,44337
19795,36644,44279
19730,36563,44160
19674,36498,44064
19658,36488,44023
19630,36459,43952
19564,36377,43822
19512,36318,43717
19496,36307,43661
19461,36266,43569
19391,36178,43431
19339,36121,43333
19319,36107,43283
19277,36056,43192
19206,35963,43061
19161,35911,42982
19146,35896,42940
19101,35836,42842
19031,35741,42708
18996,35699,42633
18986,35689,42591
18939,35624,42490
18871,35531,42360
18839,35494,42290
18825,35485,42243
18769,35418,42133
18694,35330,42003
18658,35302,41938
18639,35294,41895
18586,35232,41799
18532,35166,41709
18532,35176,41710
18560,35218,41754
18575,35235,41782
18618,35284,41866
18737,35430,42076
18889,35613,42342
19028,35769,42600
19194,35957,42920
19422,36230,43355
19661,36512,43815
19863,36741,44228
20072,36979,44661
20324,37272,45152
20563,37542,45614
20746,37744,46001
20926,37949,46385
21131,38187,46790
21306,38381,47130
21423,38502,47381
21540,38625,47627
21678,38776,47888
21778,38877,48078
21823,38917,48192
21878,38978,48323
21957,39072,48478
22003,39117,48567
22013,39116,48602
22049,39158,48682
22113,39236,48800
22144,39267,48865
22150,39269,48897
22197,39326,48993
22274,39420,49128
22316,39462,49212
22340,39479,49273
22409,39554,49400
22502,39660,49556
22557,39711,49654
22596,39743,49736
22672,39830,49879
22758,39930,50033
22796,39967,50117
22819,39986,50180
22881,40055,50290
22942,40118,50385
22946,40109,50388
22929,40082,50363
22939,40100,50378
22936,40102,50364
22872,40027,50256
22795,39942,50132
22754,39907,50056
22702,39859,49956
22604,39749,49782
22515,39651,49620
22472,39613,49520
22426,39563,49409
22344,39461,49254
22283,39383,49138
22271,39367,49095
22250,39337,49039
22196,39268,48944
22167,39237,48895
22181,39263,48908
22182,39261,48894
22152,39219,48844
22151,39214,48840
22182,39253,48876
22184,39252,48862
22155,39211,48809
22156,39213,48808
22180,39249,48838
22163,39230,48803
22115,39176,48727
22102,39174,48704
22111,39196,48704
22074,39157,48638
22011,39083,48537
21985,39057,48485
21978,39046,48442
21927,38976,48332
21854,38885,48201
21817,38849,48131
21791,38826,48073
21723,38744,47951
21647,38650,47820
21618,38614,47753
21597,38586,47687
21532,38500,47552
21457,38413,47417
21422,38389,47351
21388,38363,47282
21310,38274,47148
21236,38192,47027
21208,38172,46974
21179,38147,46909
21109,38063,46780
21051,37994,46672
21042,37984,46628
21028,37963,46565
20972,37889,46449
20928,37835,46361
20922,37830,46329
20897,37800,46266
20831,37720,46155
20782,37667,46078
20767,37659,46045
20726,37618,45968
20653,37533,45846
20609,37485,45770
20599,37477,45735
20561,37429,45649
20495,37346,45529
20460,37313,45465
20453,37315,45436
20412,37267,45347
20346,37188,45226
20318,37161,45165
20316,37164,45132
20276,37109,45037
20213,37023,44914
20189,36989,44854
20181,36978,44815
20130,36913,44714
20064,36832,44601
20038,36811,44554
20024,36805,44516
19969,36742,44413
19905,36668,44301
19878,36647,44253
19856,36632,44209
19792,36562,44101
19729,36491,43995
19709,36480,43953
19689,36465,43901
19628,36388,43783
19573,36317,43675
19566,36308,43634
19552,36290,43578
19493,36213,43461
19441,36150,43363
19429,36140,43321
19407,36108,43251
19346,36023,43124
19297,35960,43025
19284,35948,42980
19250,35909,42905
19181,35821,42782
19133,35763,42695
19119,35751,42653
19080,35705,42567
19008,35618,42435
18959,35569,42350
18941,35559,42303
18895,35503,42200
18822,35412,42060
18783,35373,41982
18772,35371,41942
18728,35318,41845
18662,35234,41717
18632,35202,41651
18623,35200,41614
18578,35148,41522
18521,35082,41426
18515,35087,41421
18547,35134,41470
18567,35152,41498
18607,35188,41569
18720,35320,41771
18874,35504,42048
19014,35664,42319
19174,35849,42637
19397,36115,43061
19639,36400,43514
19848,36633,43922
20060,36870,44348
20316,37168,44840
20567,37456,45316
20764,37669,45711
20956,37874,46100
21176,38121,46530
21371,38338,46910
21503,38475,47193
21628,38607,47460
21777,38772,47753
21898,38896,47986
21962,38950,48134
22028,39014,48287
22123,39120,48472
22190,39192,48609
22214,39216,48686
22259,39270,48796
22343,39368,48947
22406,39429,49055
22439,39450,49129
22504,39520,49265
22605,39632,49445
22676,39702,49575
22721,39742,49675
22807,39841,49840
22921,39977,50041
22993,40058,50184
23039,40104,50296
23129,40206,50470
23243,40336,50671
23313,40410,50807
23357,40457,50915
23438,40553,51074
23528,40659,51236
23569,40695,51317
23590,40704,51367
23645,40755,51456
23694,40800,51525
23680,40768,51497
23639,40713,51435
23627,40702,51410
23606,40682,51360
23529,40592,51222
23442,40497,51074
23397,40459,50986
23350,40411,50883
23256,40298,50711
23169,40195,50553
23133,40157,50460
23092,40111,50355
23009,40010,50201
22945,39936,50084
22933,39928,50039
22915,39906,49980
22865,39839,49886
22839,39807,49837
22855,39832,49849
22854,39832,49831
22816,39788,49773
22803,39781,49760
22823,39815,49788
22814,39805,49766
22772,39751,49697
22758,39738,49674
22768,39758,49681
22741,39726,49625
22684,39658,49528
22663,39643,49487
22665,39660,49477
22624,39618,49404
22557,39542,49295
22530,39518,49239
22524,39514,49198
22472,39449,49090
22397,39358,48963
22363,39319,48897
22344,39293,48842
22283,39210,48720
22211,39116,48586
22181,39081,48513
22158,39055,48443
22087,38971,48308
22009,38885,48178
21976,38862,48119
21949,38840,48058
21879,38760,47933
21813,38686,47819
21798,38676,47772
21783,38657,47717
21720,38575,47600
21663,38503,47500
21652,38493,47462
21631,38468,47403
21566,38386,47284
21510,38324,47187
21497,38317,47146
21469,38288,47078
21403,38208,46956
21358,38157,46865
21353,38155,46824
21326,38118,46747
21262,38037,46629
21221,37993,46556
21212,37990,46523
21173,37946,46437
21103,37864,46313
21063,37830,46247
21052,37834,46220
21008,37787,46136
20939,37706,46020
20908,37677,45965
20900,37677,45940
20849,37619,45851
20775,37531,45729
20744,37494,45662
20735,37475,45614
20685,37402,45501
20617,37312,45370
20588,37282,45303
20572,37270,45253
20515,37202,45144
20448,37122,45029
20423,37101,44976
20406,37087,44925
20344,37012,44810
20275,36935,44698
20250,36919,44652
20228,36900,44599
20163,36818,44475
20102,36745,44361
20088,36739,44315
20071,36726,44256
20010,36653,44135
19959,36589,44034
19949,36579,43993
19925,36549,43926
19857,36462,43802
19800,36399,43706
19783,36390,43669
19751,36356,43605
19685,36274,43488
19639,36222,43408
19627,36215,43374
19592,36171,43295
19522,36084,43168
19477,36036,43085
19462,36028,43039
19421,35978,42938
19352,35888,42801
19313,35840,42724
19302,35822,42681
19257,35752,42574
19190,35655,42430
19160,35619,42347
19150,35618,42296
19097,35562,42188
19022,35476,42058
18987,35445,41989
18970,35436,41942
18915,35372,41836
18851,35296,41722
18834,35285,41682
18836,35295,41670
18810,35262,41616
18793,35241,41591
18843,35310,41680
18929,35419,41827
19007,35504,41967
19115,35625,42177
19296,35841,42515
19503,36084,42899
19689,36290,43257
19898,36523,43659
20162,36828,44148
20423,37124,44633
20637,37357,45057
20854,37596,45496
21108,37882,45980
21341,38135,46416
21518,38316,46769
21693,38501,47123
21889,38715,47499
22045,38876,47804
22143,38970,48026
22244,39081,48255
22364,39223,48504
22445,39315,48684
22483,39354,48804
22547,39427,48959
22642,39535,49145
22706,39596,49271
22743,39624,49359
22820,39707,49508
22927,39827,49693
22997,39896,49823
23043,39935,49928
23133,40033,50099
23249,40164,50306
23327,40242,50461
23385,40298,50598
23489,40415,50797
23611,40551,51012
23689,40628,51165
23750,40689,51304
23851,40809,51500
23959,40936,51696
24017,40999,51817
24060,41047,51922
24141,41146,52076
24215,41236,52208
24230,41249,52250
24233,41246,52272
24270,41289,52335
24289,41310,52358
24243,41250,52284
24185,41179,52193
24161,41154,52141
24119,41103,52048
24022,40982,51872
23928,40870,51704
23875,40810,51584
23808,40730,51433
23700,40604,51232
23612,40510,51070
23567,40476,50971
23506,40419,50851
23414,40324,50699
23354,40273,50603
23340,40276,50566
23308,40249,50495
23253,40188,50397
23235,40175,50362
23253,40202,50377
23238,40181,50343
23198,40124,50277
23201,40122,50272
23229,40154,50301
23213,40128,50266
23166,40066,50197
23154,40055,50180
23158,40065,50179
23116,40016,50107
23049,39942,50006
23022,39923,49962
23008,39918,49927
22948,39846,49821
22875,39755,49697
22845,39721,49633
22822,39697,49571
22754,39611,49440
22681,39519,49306
22653,39491,49237
22629,39467,49164
22556,39381,49023
22480,39298,48892
22448,39275,48830
22416,39245,48757
22340,39154,48616
22271,39071,48488
22248,39049,48424
22216,39016,48343
22138,38924,48206
22073,38851,48095
22052,38835,48041
22017,38797,47956
21940,38704,47814
21880,38634,47704
21860,38614,47645
21819,38566,47552
21741,38474,47415
21685,38418,47325
21665,38406,47279
21620,38356,47185
21545,38271,47053
21501,38232,46978
21487,38229,46941
21441,38174,46846
21367,38085,46717
21332,38048,46649
21322,38043,46610
21273,37983,46507
21198,37891,46373
21161,37853,46298
21142,37838,46246
21082,37766,46129
21005,37674,45996
20967,37641,45926
20943,37626,45870
20879,37556,45752
20808,37474,45626
20783,37449,45563
20765,37430,45505
20701,37348,45382
20632,37263,45256
20605,37239,45196
20579,37213,45131
20510,37124,44999
20443,37039,44875
20421,37017,44819
20396,36985,44753
20325,36893,44627
20258,36811,44515
20235,36789,44461
20202,36754,44384
20127,36667,44250
20065,36601,44143
20043,36588,44092
20009,36554,44015
19940,36471,43888
19886,36417,43793
19867,36409,43744
19827,36367,43656
19756,36278,43524
19708,36224,43440
19692,36215,43400
19650,36168,43308
19582,36085,43177
19546,36049,43102
19536,36043,43060
19488,35982,42955
19415,35886,42816
19378,35845,42741
19365,35837,42698
19314,35772,42593
19242,35680,42460
19207,35644,42387
19186,35630,42336
19125,35562,42222
19050,35476,42091
19014,35444,42026
18988,35425,41972
18921,35347,41851
18843,35258,41721
18807,35228,41655
18778,35206,41593
18708,35126,41463
18637,35043,41335
18609,35018,41274
18582,34989,41205
18512,34896,41070
18449,34815,40953
18438,34806,40922
18437,34808,40905
18415,34776,40862
18427,34789,40887
18512,34897,41031
18622,35025,41214
18725,35134,41405
18871,35300,41686
19079,35549,42076
19290,35796,42478
19482,36012,42862
19709,36271,43310
19980,36581,43821
20230,36856,44293
20441,37082,44715
20668,37338,45172
20911,37621,45646
21108,37841,46036
21259,38001,46352
21424,38188,46691
21597,38384,47030
21713,38503,47274
21786,38569,47451
21881,38673,47660
21986,38793,47874
22040,38848,48008
22065,38869,48102
22127,38942,48245
22205,39036,48401
22243,39073,48492
22271,39097,48571
22345,39181,48718
22433,39281,48879
22478,39326,48979
22519,39366,49083
22609,39473,49261
22707,39588,49449
22765,39646,49579
22824,39706,49717
22930,39831,49926
23034,39953,50129
23089,40010,50259
23144,40071,50390
23241,40189,50571
23328,40288,50720
23360,40318,50792
23391,40355,50870
23454,40437,50984
23492,40484,51047
23474,40457,51027
23456,40436,51007
23463,40448,51011
23434,40415,50953
23350,40318,50817
23273,40239,50693
23222,40197,50595
23140,40111,50439
23024,39979,50233
22937,39886,50074
22883,39832,49958
22803,39735,49792
22701,39611,49603
22644,39550,49493
22620,39537,49438
22565,39478,49335
22492,39397,49215
22471,39379,49170
22480,39394,49164
22451,39358,49106
22406,39302,49037
22409,39309,49038
22430,39338,49061
22407,39308,49021
22370,39262,48969
22375,39274,48979
22389,39296,48994
22357,39255,48936
22315,39201,48868
22315,39204,48863
22316,39208,48850
22268,39146,48763
22216,39082,48677
22207,39079,48654
22193,39069,48615
22130,38994,48502
22068,38924,48395
22046,38913,48346
22015,38886,48275
21940,38798,48138
21874,38722,48018
21849,38701,47952
21806,38658,47856
21721,38563,47702
21654,38495,47584
21629,38477,47524
21587,38430,47433
21510,38336,47297
21457,38278,47206
21437,38264,47162
21392,38211,47070
21315,38119,46938
21268,38071,46859
21251,38060,46820
21204,38002,46728
21133,37910,46605
21099,37874,46541
21093,37874,46509
21048,37820,46416
20979,37733,46293
20951,37699,46226
20946,37689,46178
20900,37622,46072
20833,37536,45950
20804,37508,45893
20787,37498,45853
20730,37431,45752
20663,37353,45639
20637,37334,45590
20621,37328,45547
20561,37262,45437
20493,37187,45325
20469,37170,45279
20448,37153,45233
20383,37073,45118
20321,36996,45010
20305,36981,44969
20285,36958,44915
20217,36872,44790
20153,36797,44677
20134,36783,44627
20110,36755,44557
20044,36672,44427
19989,36610,44322
19974,36600,44276
19942,36563,44200
19873,36474,44068
19821,36414,43966
19807,36405,43917
19772,36365,43830
19702,36279,43697
19655,36230,43608
19641,36223,43564
19601,36177,43473
19533,36093,43345
19496,36057,43274
19487,36058,43241
19446,36007,43148
19380,35921,43021
19348,35887,42954
19339,35882,42915
19289,35819,42810
19216,35723,42674
19182,35683,42600
19168,35669,42550
19114,35601,42439
19044,35516,42309
19016,35491,42244
19002,35482,42195
18948,35416,42083
18883,35340,41966
18860,35324,41916
18845,35315,41872
18789,35246,41764
18728,35170,41656
18709,35152,41611
18693,35131,41556
18636,35048,41431
18583,34974,41320
18579,34973,41293
18582,34982,41282
18557,34953,41246
18561,34964,41277
18636,35068,41427
18733,35190,41614
18823,35294,41802
18956,35456,42074
19155,35702,42454
19357,35945,42848
19537,36149,43221
19750,36390,43652
20008,36685,44146
20246,36944,44603
20445,37151,45008
20659,37386,45443
20892,37650,45897
21080,37854,46270
21219,38000,46572
21371,38175,46896
21531,38364,47223
21636,38478,47458
21700,38541,47626
21791,38646,47827
21895,38769,48034
21949,38824,48160
21973,38844,48244
22032,38914,48377
22104,39001,48520
22134,39031,48597
22152,39048,48661
22218,39132,48796
22299,39234,48947
22339,39279,49037
22371,39314,49125
22449,39411,49284
22536,39514,49449
22578,39555,49548
22619,39598,49649
22707,39702,49819
22795,39801,49977
22832,39831,50059
22866,39865,50142
22943,39961,50285
23008,40041,50403
23015,40047,50439
23018,40049,50469
23057,40093,50532
23072,40103,50543
23030,40042,50467
22986,39988,50390
22965,39968,50339
22905,39905,50227
22794,39779,50043
22697,39678,49881
22633,39620,49758
22545,39522,49586
22424,39382,49369
22335,39289,49208
22285,39243,49100
22211,39159,48950
22119,39045,48781
22075,38995,48695
22071,38992,48665
22038,38946,48591
21987,38878,48498
21979,38875,48476
21996,38905,48489
21973,38880,48445
21929,38828,48386
21928,38831,48394
21946,38851,48420
21922,38812,48377
21882,38758,48314
21882,38765,48310
21890,38785,48311
21852,38743,48241
21804,38686,48159
21799,38683,48135
21798,38679,48105
21747,38607,48001
21688,38529,47894
21667,38511,47848
21638,38488,47788
21561,38399,47651
21489,38317,47520
21463,38296,47451
21429,38260,47364
21348,38162,47214
21275,38080,47087
21246,38053,47018
21203,38004,46922
21119,37901,46767
21053,37826,46646
21028,37804,46584
20986,37755,46492
20908,37659,46352
20853,37598,46254
20834,37587,46202
20790,37539,46106
20710,37447,45970
20658,37397,45888
20637,37386,45849
20586,37328,45754
20509,37236,45622
20473,37198,45551
20464,37194,45515
20417,37133,45414
20347,37040,45280
20318,37005,45210
20313,37002,45167
20266,36943,45065
20202,36863,44943
20180,36843,44887
20172,36841,44847
20122,36777,44744
20060,36697,44630
20039,36675,44580
20022,36660,44532
19960,36583,44416
19890,36501,44300
19861,36481,44251
19835,36460,44197
19766,36378,44074
19697,36301,43961
19673,36289,43917
19648,36273,43862
19581,36195,43741
19523,36128,43636
19514,36121,43594
19499,36099,43534
19442,36020,43411
19391,35959,43310
19379,35954,43265
19354,35925,43191
19290,35841,43061
19240,35782,42961
19224,35772,42909
19187,35730,42820
19117,35641,42686
19073,35589,42599
19063,35581,42560
19029,35534,42475
18965,35447,42349
18926,35405,42277
18911,35398,42245
18862,35343,42155
18789,35256,42029
18754,35225,41963
18746,35227,41930
18702,35177,41836
18636,35097,41711
18609,35071,41647
18604,35068,41605
18559,35008,41501
18495,34924,41378
18468,34896,41318
18451,34882,41271
18392,34810,41159
18323,34725,41038
18295,34699,40982
18273,34680,40929
18211,34602,40806
18145,34519,40681
18122,34498,40622
18101,34478,40558
18036,34396,40423
17973,34319,40301
17954,34306,40251
17933,34286,40192
17869,34205,40067
17810,34135,39960
17796,34125,39921
17779,34105,39868
17730,34037,39769
17706,34006,39724
17740,34054,39776
17784,34113,39852
17821,34159,39937
17910,34274,40126
18068,34476,40434
18236,34681,40766
18400,34870,41105
18613,35123,41536
18876,35436,42047
19122,35716,42531
19343,35959,42987
19595,36248,43503
19871,36567,44049
20104,36827,44519
20300,37039,44935
20520,37288,45387
20745,37548,45839
20907,37726,46191
21024,37854,46473
21164,38016,46777
21309,38182,47065
21397,38270,47254
21453,38320,47397
21539,38418,47583
21627,38524,47765
21664,38565,47873
21689,38594,47969
21762,38686,48128
21847,38786,48289
21889,38826,48380
21929,38869,48477
22019,38981,48653
22114,39097,48834
22165,39151,48956
22219,39211,49094
22322,39338,49303
22423,39459,49501
22479,39517,49633
22543,39585,49779
22651,39710,49980
22745,39810,50150
22791,39843,50251
22846,39888,50365
22936,39980,50518
22998,40036,50621
23009,40034,50650
23027,40052,50691
23066,40106,50756
23065,40109,50751
23010,40047,50669
22965,40007,50603
22938,39989,50550
22868,39908,50415
22761,39776,50221
22685,39692,50071
22636,39643,49947
22546,39540,49759
22427,39405,49538
22346,39328,49382
22292,39283,49265
22199,39185,49100
22091,39069,48926
22034,39019,48830
22002,38997,48767
21938,38925,48657
21871,38843,48546
21857,38827,48513
21861,38830,48502
21824,38774,48433
21780,38711,48366
21785,38713,48371
21799,38725,48376
21765,38678,48307
21724,38633,48239
21726,38649,48237
21724,38655,48220
21674,38592,48126
21627,38534,48038
21625,38536,48011
21613,38523,47963
21551,38447,47844
21494,38381,47739
21477,38366,47686
21439,38323,47603
21353,38222,47458
21280,38143,47340
21243,38115,47271
21187,38058,47162
21094,37950,47002
21022,37874,46881
20988,37846,46810
20933,37781,46697
20846,37672,46543
20790,37606,46439
20765,37583,46376
20710,37517,46258
20631,37417,46106
20592,37372,46017
20581,37364,45968
20531,37304,45862
20456,37215,45726
20422,37183,45654
20412,37177,45611
20364,37115,45508
20296,37032,45388
20267,37008,45334
20253,37002,45297
20197,36936,45191
20128,36854,45071
20103,36831,45016
20088,36817,44969
20029,36741,44853
19963,36659,44730
19939,36638,44670
19918,36620,44606
19850,36537,44472
19779,36453,44343
19754,36431,44283
19726,36406,44215
19652,36321,44081
19586,36244,43964
19568,36228,43913
19544,36199,43846
19478,36112,43720
19426,36043,43619
19415,36032,43575
19387,35998,43496
19317,35909,43360
19261,35846,43257
19243,35834,43206
19205,35792,43115
19131,35701,42977
19079,35645,42883
19061,35635,42836
19017,35585,42742
18944,35495,42609
18899,35452,42532
18883,35446,42493
18836,35392,42393
18765,35304,42257
18731,35268,42182
18722,35264,42141
18676,35204,42039
18605,35115,41910
18572,35082,41842
18562,35076,41797
18514,35010,41690
18447,34920,41563
18419,34887,41502
18404,34870,41457
18345,34794,41343
18272,34705,41213
18237,34676,41144
18212,34658,41082
18146,34581,40957
18078,34501,40836
18056,34485,40787
18038,34474,40738
17975,34400,40616
17912,34328,40502
17894,34315,40456
17875,34293,40397
17815,34208,40268
17761,34131,40152
17747,34114,40098
17724,34086,40022
17660,34002,39883
17603,33936,39769
17584,33921,39714
17549,33878,39627
17480,33781,39483
17429,33712,39376
17414,33695,39325
17378,33650,39239
17308,33563,39107
17259,33515,39020
17243,33509,38980
17204,33465,38893
17139,33386,38771
17111,33362,38719
17118,33386,38728
17110,33377,38712
17102,33361,38707
17161,33436,38824
17277,33586,39044
17390,33723,39276
17517,33873,39551
17718,34113,39949
17966,34407,40418
18195,34667,40864
18423,34925,41325
18701,35250,41873
18992,35591,42444
19235,35864,42947
19459,36113,43428
19716,36409,43956
19964,36693,44460
20150,36897,44864
20313,37077,45227
20500,37292,45614
20664,37479,45950
20761,37578,46176
20841,37660,46371
20950,37786,46603
21037,37890,46798
21067,37921,46907
21095,37955,47017
21163,38042,47176
21221,38110,47304
21238,38122,47372
21273,38162,47471
21354,38265,47632
21423,38349,47769
21459,38389,47864
21520,38466,48003
21623,38598,48198
21707,38695,48358
21760,38747,48476
21842,38841,48643
21959,38981,48853
22042,39075,49006
22088,39123,49115
22162,39214,49273
22258,39332,49455
22306,39386,49563
22321,39398,49622
22372,39457,49725
22441,39536,49835
22454,39543,49858
22428,39510,49827
22428,39516,49828
22430,39524,49817
22373,39454,49711
22285,39350,49562
22226,39293,49455
22166,39237,49338
22052,39107,49139
21922,38960,48922
21836,38871,48768
21758,38789,48617
21640,38652,48405
21525,38523,48206
21464,38466,48087
21409,38414,47974
21313,38303,47805
21225,38204,47663
21190,38176,47605
21154,38146,47545
21077,38061,47427
21013,37994,47336
20999,37988,47312
20978,37965,47267
20918,37886,47165
20873,37829,47094
20867,37824,47076
20840,37793,47023
20771,37711,46913
20719,37658,46837
20700,37651,46803
20657,37604,46718
20579,37511,46584
20527,37458,46496
20507,37441,46443
20454,37374,46327
20370,37269,46167
20318,37216,46059
20292,37194,45983
20224,37111,45839
20128,36990,45655
20071,36919,45525
20036,36876,45417
19958,36774,45242
19856,36645,45044
19791,36574,44913
19743,36524,44804
19654,36415,44635
19553,36292,44454
19494,36234,44344
19446,36194,44250
19360,36100,44094
19271,36003,43940
19231,35969,43860
19200,35940,43786
19131,35854,43651
19062,35773,43527
19039,35761,43477
19018,35745,43423
18954,35668,43302
18895,35602,43196
18886,35603,43159
18875,35596,43107
18824,35529,42992
18781,35478,42900
18778,35481,42864
18759,35460,42796
18698,35380,42666
18649,35323,42568
18634,35317,42524
18600,35279,42445
18529,35189,42316
18478,35130,42226
18459,35116,42182
18414,35066,42090
18336,34975,41954
18287,34929,41871
18268,34921,41831
18220,34864,41733
18146,34769,41599
18107,34727,41526
18094,34721,41486
18046,34658,41382
17971,34563,41247
17934,34525,41173
17918,34514,41122
17864,34447,41004
17790,34358,40864
17753,34324,40788
17731,34306,40728
17669,34232,40602
17597,34144,40467
17564,34115,40403
17540,34096,40350
17476,34015,40229
17406,33928,40106
17376,33901,40054
17350,33876,39999
17284,33791,39873
17220,33713,39751
17199,33700,39699
17176,33682,39641
17108,33602,39518
17043,33531,39411
17021,33520,39367
16994,33494,39299
16928,33409,39167
16874,33343,39061
16859,33330,39017
16833,33294,38941
16769,33205,38809
16721,33145,38713
16708,33137,38674
16675,33097,38596
16606,33008,38466
16556,32951,38378
16536,32936,38330
16492,32877,38227
16418,32779,38078
16371,32728,37984
16349,32715,37929
16295,32652,37811
16218,32553,37655
16176,32510,37565
16160,32501,37513
16110,32436,37401
16038,32341,37263
16003,32303,37189
15985,32289,37137
15932,32219,37018
15863,32131,36879
15832,32101,36808
15811,32085,36753
15752,32011,36632
15687,31930,36507
15667,31918,36462
15667,31930,36447
15644,31903,36403
15641,31902,36413
15708,32000,36557
15814,32141,36772
15919,32267,36996
16066,32443,37306
16291,32720,37754
16540,33020,38248
16768,33283,38721
17018,33572,39240
17318,33928,39836
17612,34269,40410
17860,34548,40915
18110,34834,41433
18384,35157,41987
18623,35432,42477
18804,35631,42872
18982,35832,43260
19176,36058,43655
19324,36227,43966
19414,36328,44187
19510,36444,44418
19620,36582,44656
19689,36659,44811
19718,36685,44901
19772,36749,45029
19848,36841,45179
19882,36875,45262
19890,36872,45307
19937,36926,45416
20011,37016,45559
20049,37056,45645
20071,37076,45716
20138,37159,45862
20231,37269,46039
20287,37325,46157
20330,37368,46264
20417,37475,46440
20514,37598,46630
20565,37659,46753
20606,37705,46865
20689,37808,47036
20775,37911,47198
20810,37942,47273
20833,37960,47331
20888,38026,47440
20931,38076,47522
20917,38050,47510
20893,38014,47481
20901,38025,47491
20889,38009,47457
20817,37916,47331
20741,37823,47197
20702,37779,47104
20646,37710,46971
20543,37584,46770
20453,37483,46595
20405,37438,46480
20342,37370,46344
20247,37259,46171
20178,37186,46051
20153,37170,45998
20115,37126,45915
20051,37046,45797
20020,37014,45740
20025,37029,45737
20007,37003,45690
19968,36946,45614
19967,36946,45605
19990,36979,45634
19972,36958,45602
19929,36905,45539
19926,36907,45536
19946,36935,45558
19924,36903,45510
19878,36843,45434
19867,36837,45414
19867,36849,45404
19820,36797,45321
19757,36725,45218
19733,36707,45173
19717,36696,45130
19655,36620,45012
19582,36534,44883
19552,36506,44815
19527,36478,44741
19458,36387,44595
19384,36294,44448
19353,36261,44369
19319,36221,44284
19238,36117,44129
19162,36022,43989
19132,35995,43920
19098,35961,43835
19022,35866,43685
18954,35787,43557
18927,35764,43492
18889,35721,43404
18818,35627,43265
18765,35562,43161
18749,35549,43115
18714,35508,43034
18645,35421,42904
18600,35372,42820
18589,35373,42786
18554,35337,42706
18489,35258,42583
18453,35222,42512
18445,35224,42479
18407,35177,42391
18343,35096,42266
18313,35068,42201
18310,35073,42171
18270,35024,42077
18209,34944,41953
18186,34919,41890
18184,34916,41852
18141,34855,41750
18080,34769,41628
18056,34739,41570
18046,34727,41527
17994,34659,41419
17930,34577,41297
17906,34556,41238
17891,34546,41187
17835,34473,41069
17770,34393,40949
17745,34372,40897
17721,34351,40840
17656,34266,40708
17591,34182,40579
17569,34161,40517
17545,34133,40446
17481,34045,40312
17423,33970,40197
17407,33959,40151
17384,33935,40086
17322,33856,39963
17272,33797,39867
17260,33795,39828
17233,33767,39759
17171,33687,39636
17128,33633,39547
17119,33628,39513
17091,33593,39442
17030,33515,39323
16992,33470,39246
16985,33467,39213
16951,33423,39129
16887,33339,39003
16851,33300,38934
16840,33297,38906
16798,33245,38819
16732,33160,38694
16705,33131,38632
16702,33136,38605
16663,33085,38514
16603,33004,38394
16579,32976,38334
16573,32970,38293
16530,32907,38186
16471,32823,38057
16445,32797,37993
16429,32790,37943
16375,32724,37826
16310,32643,37698
16282,32616,37635
16263,32596,37575
16205,32519,37448
16145,32441,37323
16123,32425,37268
16102,32412,37212
16042,32338,37092
15986,32271,36989
15978,32269,36969
15979,32272,36957
15959,32235,36909
15968,32238,36924
16046,32334,37059
16147,32453,37238
16242,32559,37430
16381,32729,37722
16588,32990,38140
16808,33259,38585
17012,33501,39022
17250,33786,39527
17532,34125,40101
17796,34434,40644
18025,34694,41135
18271,34981,41657
18535,35292,42195
18753,35540,42647
18921,35727,43023
19101,35938,43417
19286,36162,43809
19413,36309,44102
19496,36399,44323
19601,36523,44567
19715,36660,44807
19773,36723,44954
19798,36745,45049
19858,36813,45185
19934,36899,45328
19969,36926,45399
19988,36935,45449
20050,37003,45564
20125,37086,45694
20156,37110,45760
20176,37127,45822
20242,37210,45958
20320,37305,46105
20362,37347,46195
20405,37391,46296
20494,37496,46472
20583,37597,46643
20628,37635,46742
20675,37679,46846
20768,37784,47013
20849,37875,47161
20877,37898,47235
20904,37925,47308
20966,38000,47418
21005,38043,47481
20987,38017,47464
20970,37996,47446
20978,38011,47453
20955,37985,47399
20883,37896,47273
20822,37827,47162
20789,37795,47079
20726,37720,46942
20625,37598,46752
20547,37517,46607
20501,37480,46505
20429,37399,46352
20333,37287,46170
20279,37232,46060
20260,37218,46004
20213,37158,45904
20152,37077,45787
20139,37063,45743
20153,37085,45738
20132,37057,45684
20097,37009,45615
20106,37019,45615
20132,37046,45636
20118,37013,45594
20090,36964,45538
20101,36973,45543
20118,36991,45555
20088,36949,45498
20045,36896,45431
20039,36898,45421
20035,36898,45404
19988,36837,45311
19937,36775,45216
19925,36770,45181
19905,36754,45128
19835,36669,45001
19765,36586,44880
19734,36560,44818
19697,36521,44734
19614,36422,44583
19536,36334,44450
19498,36297,44371
19450,36241,44267
19369,36137,44113
19308,36062,43993
19284,36036,43923
19242,35981,43820
19166,35884,43674
19111,35823,43571
19087,35805,43515
19041,35750,43415
18968,35654,43276
18926,35606,43191
18911,35599,43145
18863,35547,43046
18788,35460,42912
18749,35427,42840
18734,35425,42801
18682,35368,42703
18611,35280,42576
18578,35244,42510
18567,35231,42465
18517,35162,42357
18447,35075,42231
18414,35046,42167
18395,35034,42118
18340,34966,42004
18277,34883,41875
18252,34858,41810
18235,34842,41753
18176,34768,41633
18110,34688,41512
18081,34665,41457
18053,34643,41401
17984,34561,41279
17916,34480,41163
17890,34457,41112
17863,34427,41050
17796,34338,40923
17737,34260,40808
17719,34240,40751
17693,34209,40670
17624,34124,40528
17566,34058,40411
17546,34045,40351
17514,34009,40262
17448,33925,40123
17400,33868,40019
17388,33857,39967
17359,33815,39880
17301,33730,39748
17264,33680,39658
17255,33668,39607
17220,33617,39508
17158,33528,39374
17121,33483,39295
17106,33472,39251
17059,33414,39148
16991,33324,39011
16957,33286,38931
16942,33276,38880
16891,33213,38771
16823,33125,38638
16794,33089,38568
16781,33075,38519
16734,33007,38406
16674,32922,38279
16651,32895,38214
16638,32883,38160
16585,32815,38038
16521,32737,37906
16489,32715,37838
16459,32699,37775
16389,32622,37645
16318,32541,37517
16287,32517,37454
16257,32489,37385
16191,32401,37249
16127,32319,37121
16101,32296,37060
16071,32265,36988
16005,32178,36857
15946,32105,36743
15925,32087,36685
15896,32053,36604
15832,31970,36469
15779,31909,36362
15761,31895,36307
15730,31858,36227
15673,31781,36111
15644,31744,36053
15662,31774,36077
15683,31803,36110
15703,31826,36161
15780,31927,36332
15918,32110,36620
16067,32294,36931
16227,32483,37275
16449,32752,37736
16717,33080,38281
16969,33376,38803
17207,33653,39314
17483,33984,39890
17774,34334,40485
18018,34615,41002
18231,34851,41469
18466,35120,41965
18696,35387,42440
18866,35575,42813
18999,35725,43127
19148,35906,43458
19284,36074,43755
19363,36165,43953
19422,36229,44115
19508,36332,44308
19588,36425,44472
19620,36451,44550
19647,36472,44616
19710,36549,44739
19768,36619,44851
19783,36630,44896
19804,36649,44954
19875,36732,45084
19945,36809,45209
19976,36834,45287
20019,36875,45395
20110,36974,45564
20192,37060,45711
20235,37098,45809
20293,37161,45938
20390,37276,46119
20466,37364,46266
20504,37402,46361
20562,37465,46489
20648,37564,46648
20705,37621,46750
20721,37626,46794
20755,37657,46864
20805,37710,46946
20808,37702,46943
20768,37644,46875
20745,37619,46836
20735,37610,46803
20679,37538,46689
20591,37428,46528
20534,37367,46411
20492,37328,46306
20408,37232,46135
20307,37115,45945
20247,37054,45822
20203,37014,45723
20124,36924,45575
20039,36828,45431
20001,36794,45366
19984,36777,45320
19938,36714,45228
19894,36656,45150
19895,36664,45147
19903,36680,45153
19878,36646,45107
19860,36624,45078
19886,36664,45119
19910,36696,45150
19889,36667,45114
19871,36641,45085
19892,36666,45105
19901,36674,45096
19863,36623,45022
19828,36581,44962
19826,36583,44946
19804,36558,44890
19743,36482,44776
19698,36430,44691
19687,36423,44650
19652,36381,44567
19578,36292,44434
19522,36235,44339
19495,36219,44283
19442,36162,44179
19359,36064,44035
19305,36010,43940
19280,35988,43876
19225,35917,43753
19149,35816,43598
19110,35769,43505
19092,35756,43447
19038,35695,43337
18966,35609,43204
18932,35575,43131
18919,35561,43078
18870,35495,42967
18809,35414,42844
18788,35389,42788
18781,35380,42747
18736,35320,42648
18685,35253,42544
18672,35243,42502
18667,35236,42464
18622,35171,42363
18572,35102,42261
18559,35087,42222
18544,35070,42177
18487,34994,42064
18432,34920,41959
18417,34905,41917
18399,34882,41861
18339,34802,41742
18284,34738,41640
18274,34733,41597
18256,34713,41530
18199,34639,41408
18153,34585,41318
18142,34583,41286
18112,34554,41221
18042,34471,41101
17988,34414,41013
17970,34403,40972
17934,34360,40894
17870,34275,40774
17830,34228,40700
17819,34222,40663
17784,34174,40573
17722,34087,40446
17690,34047,40374
17679,34041,40338
17633,33987,40244
17566,33902,40117
17537,33870,40048
17529,33867,40007
17486,33812,39908
17426,33734,39788
17404,33709,39731
17398,33703,39692
17357,33643,39594
17302,33569,39485
17285,33551,39436
17276,33545,39394
17227,33482,39285
17172,33411,39173
17155,33397,39127
17142,33387,39083
17090,33320,38973
17038,33252,38870
17026,33242,38835
17014,33230,38790
16961,33159,38677
16909,33095,38574
16898,33088,38535
16879,33070,38479
16819,32993,38360
16763,32928,38258
16745,32916,38209
16717,32886,38131
16655,32806,37997
16608,32748,37891
16594,32737,37839
16566,32700,37756
16507,32619,37627
16468,32568,37541
16457,32562,37504
16425,32524,37430
16367,32452,37321
16341,32428,37273
16352,32452,37285
16350,32452,37275
16347,32447,37279
16406,32526,37400
16522,32678,37623
16639,32820,37859
16769,32971,38133
16964,33209,38529
17200,33498,38998
17413,33749,39442
17618,33988,39887
17865,34283,40400
18124,34589,40929
18339,34830,41385
18535,35048,41814
18756,35308,42278
18968,35560,42716
19120,35735,43052
19249,35883,43348
19402,36063,43672
19539,36222,43957
19616,36299,44139
19675,36362,44292
19760,36467,44477
19826,36549,44624
19839,36558,44683
19852,36567,44737
19904,36626,44838
19946,36666,44910
19947,36651,44920
19959,36656,44955
20010,36715,45048
20049,36755,45119
20054,36750,45145
20081,36778,45211
20150,36861,45334
20206,36922,45429
20233,36944,45488
20284,37003,45597
20366,37106,45752
20419,37169,45857
20437,37191,45917
20481,37250,46019
20548,37336,46144
20575,37362,46197
20568,37345,46197
20589,37369,46236
20623,37411,46287
20609,37387,46255
20562,37323,46171
20543,37301,46119
20533,37290,46069
20475,37216,45944
20395,37117,45795
20351,37071,45705
20321,37043,45630
20255,36963,45499
20184,36877,45370
20162,36852,45313
20154,36836,45269
20111,36768,45173
20070,36706,45093
20080,36715,45095
20099,36732,45106
20083,36698,45062
20074,36675,45037
20110,36718,45083
20142,36758,45121
20130,36741,45096
20123,36733,45086
20156,36778,45134
20178,36805,45157
20154,36772,45116
20138,36753,45094
20156,36779,45114
20153,36776,45093
20109,36718,45013
20079,36684,44961
20081,36695,44953
20059,36671,44902
20002,36601,44803
19966,36564,44741
19960,36559,44708
19926,36508,44618
19863,36419,44486
19827,36377,44402
19813,36368,44347
19762,36307,44234
19688,36214,44090
19651,36175,44007
19637,36164,43956
19583,36101,43848
19508,36014,43719
19471,35980,43651
19452,35962,43600
19396,35887,43490
19330,35798,43367
19306,35768,43308
19295,35754,43263
19246,35684,43157
19189,35607,43047
19174,35590,43005
19165,35583,42966
19118,35524,42863
19072,35469,42770
19070,35475,42748
19068,35475,42720
19022,35413,42625
18978,35355,42538
18973,35355,42515
18959,35341,42478
18900,35268,42377
18847,35209,42289
18836,35206,42253
18815,35186,42190
18758,35116,42072
18717,35067,41983
18713,35066,41948
18691,35037,41883
18635,34961,41772
18599,34918,41700
18596,34919,41677
18572,34885,41612
18517,34810,41505
18485,34776,41442
18478,34780,41416
18444,34738,41337
18386,34662,41223
18360,34635,41163
18357,34638,41134
18317,34587,41046
18253,34503,40926
18225,34468,40864
18220,34459,40826
18180,34396,40729
18122,34311,40610
18098,34283,40552
18087,34275,40510
18035,34211,40406
17972,34136,40288
17947,34118,40229
17935,34113,40177
17888,34053,40063
17835,33989,39952
17822,33981,39909
17815,33977,39870
17772,33919,39771
17730,33862,39679
17725,33860,39651
17715,33852,39615
17662,33781,39512
17610,33716,39419
17597,33706,39385
17577,33683,39328
17517,33604,39209
17467,33544,39112
17456,33535,39071
17432,33501,39000
17371,33414,38874
17326,33354,38777
17314,33342,38728
17280,33303,38642
17213,33216,38507
17166,33160,38412
17149,33147,38359
17108,33097,38259
17039,33010,38120
16994,32966,38034
16972,32955,37989
16919,32896,37890
16846,32808,37762
16810,32774,37694
16798,32770,37658
16752,32714,37564
16690,32632,37448
16672,32611,37405
16685,32631,37412
16683,32624,37400
16694,32634,37426
16773,32740,37583
16901,32905,37830
17027,33059,38092
17177,33241,38414
17393,33510,38857
17640,33810,39347
17864,34069,39802
18091,34334,40272
18360,34657,40807
18621,34970,41323
18826,35205,41751
19015,35420,42159
19228,35670,42602
19417,35890,43002
19547,36031,43307
19675,36169,43596
19835,36348,43909
19973,36490,44163
20055,36558,44325
20130,36625,44480
20224,36720,44655
20283,36772,44770
20291,36765,44814
20309,36777,44879
20356,36832,44983
20377,36853,45042
20361,36830,45058
20370,36848,45123
20418,36915,45238
20450,36952,45314
20465,36963,45367
20519,37033,45487
20606,37141,45652
20660,37200,45766
20691,37226,45850
20763,37307,45995
20863,37420,46172
20924,37482,46291
20964,37519,46383
21041,37609,46528
21136,37715,46684
21190,37761,46770
21225,37782,46827
21294,37849,46929
21365,37920,47022
21382,37923,47030
21376,37904,47008
21398,37927,47027
21412,37940,47025
21371,37881,46939
21319,37810,46839
21304,37787,46790
21282,37755,46724
21211,37659,46589
21142,37572,46465
21119,37545,46407
21092,37510,46335
21024,37425,46208
20971,37367,46114
20969,37374,46089
20964,37370,46050
20925,37319,45968
20904,37296,45926
20926,37326,45944
20936,37334,45938
20912,37297,45891
20909,37290,45887
20939,37329,45930
20946,37333,45929
20921,37295,45888
20920,37293,45894
20947,37327,45933
20942,37314,45912
20908,37266,45850
20905,37266,45841
20924,37294,45862
20905,37268,45819
20861,37209,45737
20853,37200,45706
20864,37210,45693
20833,37159,45613
20779,37082,45505
20760,37054,45453
20751,37041,45410
20697,36971,45298
20629,36885,45170
20602,36857,45104
20584,36838,45049
20524,36766,44936
20458,36691,44825
20437,36677,44780
20421,36666,44732
20366,36598,44619
20313,36535,44516
20304,36534,44485
20294,36529,44447
20238,36465,44345
20187,36410,44255
20183,36414,44228
20175,36402,44185
20126,36334,44084
20085,36281,44007
20082,36279,43985
20061,36254,43932
20003,36178,43821
19962,36126,43737
19958,36120,43702
19932,36084,43631
19871,36003,43516
19830,35952,43444
19820,35943,43417
19784,35897,43343
19718,35813,43227
19681,35772,43161
19671,35767,43132
19632,35717,43050
19572,35638,42939
19548,35614,42888
19548,35627,42869
19512,35590,42789
19456,35523,42679
19435,35509,42626
19433,35515,42599
19394,35465,42513
19340,35394,42410
19324,35379,42367
19318,35377,42334
19270,35316,42238
19211,35242,42131
19191,35223,42085
19177,35212,42039
19121,35144,41927
19062,35074,41816
19044,35061,41771
19026,35045,41721
18966,34970,41606
18909,34900,41499
18897,34888,41458
18885,34870,41408
18834,34797,41298
18789,34741,41207
18782,34743,41177
18768,34729,41125
18718,34660,41019
18678,34609,40941
18674,34610,40918
18656,34588,40868
18605,34520,40768
18572,34478,40697
18572,34479,40669
18552,34448,40603
18504,34378,40494
18479,34345,40427
18481,34347,40394
18455,34306,40307
18400,34225,40183
18370,34191,40113
18360,34188,40080
18317,34133,39989
18254,34046,39866
18228,34016,39805
18223,34019,39774
18180,33971,39685
18117,33901,39573
18092,33884,39521
18085,33886,39484
18044,33837,39390
17998,33780,39298
18001,33791,39296
18032,33835,39344
18048,33852,39382
18088,33899,39479
18202,34044,39702
18357,34234,39989
18504,34403,40270
18674,34602,40609
18908,34882,41057
19155,35177,41533
19369,35419,41965
19590,35668,42415
19853,35973,42931
20104,36258,43425
20300,36472,43840
20492,36682,44247
20712,36925,44677
20901,37127,45046
21030,37256,45323
21153,37390,45596
21294,37554,45886
21399,37672,46109
21452,37724,46250
21512,37790,46397
21596,37886,46560
21650,37938,46657
21664,37942,46698
21699,37980,46776
21761,38052,46884
21790,38077,46935
21793,38067,46951
21835,38108,47029
21905,38188,47148
21942,38223,47218
21957,38234,47269
22013,38302,47387
22094,38400,47536
22137,38447,47631
22163,38476,47707
22234,38561,47844
22323,38661,47995
22369,38700,48080
22397,38719,48147
22462,38785,48268
22528,38851,48380
22541,38846,48413
22536,38824,48423
22564,38851,48473
22583,38869,48494
22547,38819,48427
22498,38760,48347
22484,38751,48318
22460,38728,48264
22386,38642,48135
22315,38563,48013
22290,38544,47950
22263,38517,47870
22200,38440,47740
22153,38388,47643
22154,38394,47611
22145,38383,47566
22105,38329,47482
22090,38308,47443
22117,38340,47462
22128,38346,47452
22109,38310,47404
22116,38310,47404
22154,38352,47453
22165,38358,47461
22146,38329,47431
22157,38343,47450
22192,38387,47498
22189,38375,47482
22157,38324,47424
22158,38321,47415
22177,38345,47431
22154,38311,47384
22104,38246,47306
22092,38230,47279
22094,38230,47263
22050,38172,47176
21986,38097,47065
21962,38080,47012
21950,38078,46971
21896,38019,46870
21832,37945,46758
21808,37924,46705
21790,37906,46650
21731,37829,46532
21667,37748,46413
21644,37722,46358
21621,37694,46296
21556,37607,46168
21493,37530,46050
21476,37515,45999
21457,37496,45941
21395,37425,45827
21340,37367,45733
21328,37363,45700
21308,37343,45645
21254,37273,45537
21217,37225,45457
21218,37227,45434
21202,37206,45385
21150,37141,45290
21119,37104,45230
21122,37113,45215
21103,37088,45159
21050,37021,45057
21020,36991,45002
21017,36997,44985
20986,36959,44916
20928,36885,44810
20900,36855,44758
20894,36855,44737
20852,36805,44657
20789,36730,44545
20766,36710,44493
20767,36717,44466
20729,36669,44380
20670,36597,44270
20648,36576,44218
20641,36574,44181
20596,36517,44084
20540,36443,43973
20523,36422,43924
20515,36413,43882
20467,36352,43781
20413,36286,43678
20400,36275,43636
20391,36264,43592
20341,36195,43486
20289,36128,43388
20277,36119,43356
20262,36105,43316
20205,36034,43213
20156,35973,43123
20150,35970,43093
20139,35956,43044
20087,35888,42939
20048,35838,42859
20048,35840,42831
20035,35818,42772
19984,35744,42654
19944,35692,42563
19934,35687,42522
19905,35656,42452
19843,35581,42337
19801,35536,42259
19789,35531,42224
19752,35492,42150
19688,35414,42039
19652,35379,41979
19647,35387,41959
19615,35354,41888
19560,35290,41782
19540,35271,41732
19541,35281,41712
19506,35236,41633
19448,35160,41524
19424,35131,41469
19418,35124,41430
19373,35062,41328
19307,34981,41204
19277,34952,41136
19258,34935,41076
19200,34863,40956
19131,34779,40832
19102,34752,40775
19082,34733,40723
19023,34658,40607
18960,34577,40488
18937,34553,40432
18916,34530,40373
18857,34452,40253
18804,34382,40149
18796,34376,40120
18794,34378,40103
18768,34348,40061
18773,34359,40086
18852,34463,40232
18960,34595,40428
19068,34718,40643
19223,34900,40951
19446,35166,41369
19680,35435,41805
19896,35674,42227
20140,35949,42707
20422,36272,43246
20683,36565,43753
20906,36810,44211
21143,37077,44697
21397,37369,45200
21607,37604,45629
21770,37783,45989
21945,37982,46367
22128,38189,46738
22256,38323,47012
22338,38405,47217
22439,38516,47444
22545,38634,47665
22600,38685,47801
22623,38700,47891
22676,38759,48018
22742,38831,48144
22764,38847,48203
22770,38849,48245
22821,38910,48348
22889,38984,48460
22917,39005,48519
22936,39022,48581
23001,39100,48710
23076,39189,48848
23112,39228,48934
23152,39272,49032
23242,39377,49200
23336,39481,49366
23386,39527,49470
23439,39579,49584
23536,39689,49758
23626,39786,49914
23672,39824,50003
23722,39869,50099
23807,39958,50233
23871,40019,50325
23883,40020,50348
23896,40031,50377
23936,40079,50431
23950,40091,50432
23918,40043,50367
23894,40011,50316
23894,40009,50288
23862,39964,50205
23794,39877,50075
23751,39823,49984
23737,39804,49927
23697,39743,49819
23633,39655,49680
23601,39618,49599
23592,39613,49559
23546,39559,49473
23482,39482,49367
23458,39464,49329
23459,39476,49326
23428,39445,49276
23386,39396,49213
23389,39403,49213
23410,39431,49231
23393,39409,49197
23365,39376,49156
23378,39394,49174
23401,39417,49197
23380,39382,49154
23349,39338,49101
23355,39341,49100
23358,39341,49089
23312,39281,49008
23259,39220,48923
23242,39209,48888
23215,39187,48835
23140,39105,48715
23066,39026,48604
23034,39001,48547
22993,38961,48470
22910,38864,48335
22835,38782,48217
22797,38748,48145
22746,38694,48043
22660,38594,47893
22595,38519,47774
22568,38493,47707
22526,38443,47611
22454,38356,47478
22404,38304,47390
22387,38292,47345
22349,38245,47259
22285,38161,47136
22249,38117,47060
22240,38103,47015
22198,38045,46918
22131,37958,46792
22098,37923,46724
22088,37917,46688
22043,37863,46598
21978,37785,46484
21950,37760,46425
21941,37757,46386
21893,37702,46290
21831,37629,46177
21806,37609,46122
21793,37604,46082
21742,37546,45984
21682,37477,45876
21661,37459,45821
21648,37448,45768
21597,37382,45657
21539,37309,45547
21518,37287,45499
21497,37266,45451
21436,37191,45347
21375,37122,45250
21355,37108,45211
21332,37088,45159
21272,37013,45047
21220,36947,44947
21207,36933,44900
21183,36906,44829
21119,36831,44704
21065,36774,44603
21045,36761,44551
21008,36723,44468
20937,36636,44336
20883,36573,44236
20859,36552,44180
20813,36505,44087
20738,36422,43955
20686,36374,43864
20663,36363,43808
20617,36316,43710
20549,36240,43583
20511,36209,43512
20499,36209,43475
20458,36163,43387
20398,36087,43275
20377,36059,43221
20378,36060,43193
20344,36014,43111
20291,35944,43008
20273,35919,42959
20269,35908,42921
20226,35845,42822
20166,35768,42708
20141,35743,42650
20127,35730,42598
20076,35667,42489
20017,35597,42373
19993,35575,42309
19970,35552,42241
19907,35476,42113
19844,35402,41991
19817,35382,41932
19788,35355,41868
19720,35272,41745
19655,35196,41632
19629,35172,41576
19596,35137,41505
19527,35052,41379
19466,34983,41273
19441,34963,41218
19404,34923,41139
19333,34835,41012
19281,34773,40918
19268,34762,40878
19247,34736,40824
19210,34686,40758
19212,34692,40768
19271,34771,40866
19342,34857,40987
19422,34947,41139
19560,35112,41399
19751,35343,41748
19936,35558,42094
20116,35761,42443
20342,36021,42868
20597,36314,43337
20818,36558,43755
21017,36773,44144
21246,37030,44572
21483,37298,44999
21667,37498,45346
21819,37659,45646
21988,37847,45969
22151,38024,46271
22258,38127,46481
22336,38197,46647
22434,38298,46834
22520,38390,46995
22549,38414,47072
22561,38422,47126
22605,38473,47219
22644,38517,47296
22638,38504,47306
22633,38495,47319
22673,38543,47391
22713,38585,47456
22715,38579,47470
22731,38590,47509
22796,38664,47615
22860,38732,47717
22891,38754,47778
22937,38795,47869
23025,38887,48010
23098,38958,48122
23134,38984,48184
23186,39033,48276
23268,39121,48410
23327,39176,48506
23351,39187,48554
23392,39225,48630
23454,39295,48728
23478,39319,48767
23462,39297,48756
23463,39305,48775
23479,39331,48804
23451,39298,48757
23390,39224,48659
23355,39190,48598
23337,39176,48550
23277,39105,48440
23197,39008,48304
23159,38964,48224
23142,38945,48169
23092,38881,48065
23029,38805,47954
23007,38787,47904
22999,38784,47871
22959,38735,47790
22918,38684,47713
22924,38693,47704
22941,38712,47708
22922,38681,47664
22902,38651,47629
22925,38676,47657
22951,38697,47681
22937,38665,47645
22923,38641,47616
22945,38673,47642
22961,38694,47653
22934,38656,47605
22912,38625,47569
22927,38644,47580
22928,38645,47566
22888,38595,47496
22859,38562,47441
22859,38570,47424
22835,38547,47370
22775,38476,47267
22732,38430,47194
22720,38422,47162
22687,38381,47093
22626,38306,46986
22590,38269,46919
22584,38268,46887
22552,38226,46809
22494,38150,46697
22464,38115,46634
22452,38108,46597
22405,38051,46506
22336,37965,46388
22303,37930,46323
22289,37922,46280
22239,37866,46184
22175,37791,46072
22153,37771,46017
22150,37771,45979
22112,37723,45890
22063,37665,45797
22053,37661,45766
22049,37667,45744
22004,37617,45666
21952,37558,45587
21939,37547,45564
21932,37536,45538
21888,37473,45452
21842,37414,45372
21835,37409,45350
21823,37401,45317
21772,37340,45224
21727,37286,45142
21724,37285,45115
21713,37270,45070
21660,37202,44971
21613,37151,44893
21600,37149,44864
21577,37129,44811
21523,37063,44711
21486,37021,44637
21480,37024,44608
21453,37001,44549
21395,36936,44452
21356,36896,44390
21345,36892,44364
21312,36854,44292
21257,36781,44182
21229,36744,44117
21223,36737,44082
21185,36684,43996
21124,36599,43882
21095,36561,43825
21085,36552,43796
21038,36496,43711
20970,36416,43602
20936,36382,43544
20920,36368,43502
20869,36306,43403
20805,36231,43293
20778,36214,43245
20765,36214,43212
20714,36165,43121
20656,36105,43024
20637,36093,42983
20625,36087,42946
20576,36028,42852
20525,35965,42761
20513,35952,42731
20501,35937,42695
20452,35870,42598
20404,35810,42508
20393,35804,42477
20378,35791,42433
20324,35723,42327
20274,35660,42231
20259,35645,42184
20234,35616,42114
20171,35541,41996
20117,35488,41908
20098,35481,41870
20062,35451,41802
19994,35371,41686
19940,35314,41600
19914,35297,41553
19872,35253,41469
19809,35177,41352
19776,35143,41293
19783,35163,41293
19784,35166,41278
19784,35165,41272
19842,35240,41367
19952,35380,41549
20060,35507,41734
20175,35636,41941
20348,35840,42247
20560,36091,42614
20749,36304,42954
20928,36498,43289
21146,36738,43684
21377,36991,44092
21565,37186,44435
21731,37357,44749
21923,37564,45098
22110,37766,45430
22245,37897,45676
22354,38001,45883
22484,38135,46114
22597,38255,46310
22653,38306,46418
22692,38340,46503
22758,38412,46622
22810,38465,46711
22812,38453,46723
22812,38441,46734
22849,38479,46792
22877,38503,46829
22863,38477,46809
22860,38470,46807
22898,38515,46858
22931,38546,46895
22934,38538,46895
22955,38557,46931
23013,38624,47017
23054,38669,47079
23066,38676,47109
23103,38716,47183
23174,38798,47298
23225,38846,47374
23249,38859,47414
23302,38907,47496
23379,38982,47600
23417,39003,47641
23419,38981,47633
23440,38995,47656
23470,39028,47689
23453,39001,47651
23405,38937,47571
23389,38911,47530
23384,38900,47495
23335,38836,47394
23263,38752,47274
23224,38717,47208
23199,38695,47157
23138,38622,47054
23072,38545,46951
23055,38530,46915
23054,38532,46893
23022,38492,46825
22994,38458,46769
23015,38484,46785
23043,38515,46808
23034,38493,46779
23025,38476,46764
23055,38514,46809
23077,38543,46840
23057,38513,46811
23044,38489,46794
23072,38517,46832
23090,38531,46851
23067,38495,46813
23053,38475,46792
23073,38498,46811
23075,38497,46797
23038,38448,46727
23011,38421,46682
23011,38433,46678
22989,38415,46637
22936,38355,46550
22904,38323,46495
22899,38321,46472
22865,38278,46400
22803,38199,46296
22768,38160,46241
22757,38148,46213
22713,38090,46130
22645,38004,46016
22614,37970,45954
22605,37966,45917
22557,37913,45825
22491,37839,45715
22465,37818,45664
22456,37819,45633
22413,37772,45549
22359,37713,45456
22344,37706,45421
22341,37709,45398
22303,37660,45321
22256,37600,45242
22248,37592,45221
22247,37589,45201
22207,37535,45123
22162,37479,45046
22156,37475,45026
22149,37470,44998
22104,37413,44912
22065,37366,44839
22065,37373,44828
22058,37371,44805
22011,37315,44729
21971,37271,44670
21971,37277,44661
21964,37267,44626
21920,37211,44540
21886,37178,44480
21887,37189,44468
21874,37172,44425
21827,37110,44337
21798,37074,44283
21800,37078,44268
21780,37052,44212
21730,36990,44120
21701,36960,44073
21693,36957,44056
21654,36910,43986
21590,36831,43882
21556,36794,43829
21544,36786,43805
21496,36731,43727
21428,36651,43620
21397,36622,43567
21386,36618,43536
21341,36565,43450
21279,36493,43346
21253,36470,43296
21238,36460,43256
21186,36400,43159
21126,36328,43054
21106,36307,43008
21094,36296,42971
21044,36234,42879
20989,36165,42788
20973,36147,42755
20959,36133,42717
20908,36071,42618
20854,36014,42521
20837,36011,42478
20818,36002,42424
20761,35939,42318
20711,35884,42228
20700,35878,42195
20682,35860,42144
20623,35789,42039
20574,35731,41956
20562,35719,41923
20539,35685,41863
20483,35605,41755
20442,35551,41676
20430,35542,41644
20398,35506,41578
20336,35432,41473
20297,35395,41409
20291,35404,41394
20275,35394,41360
20252,35371,41330
20283,35416,41396
20371,35527,41549
20463,35632,41706
20565,35745,41891
20730,35938,42183
20941,36183,42543
21132,36396,42879
21312,36594,43214
21534,36845,43613
21775,37112,44028
21974,37323,44377
22150,37505,44697
22351,37723,45053
22546,37934,45393
22685,38076,45649
22797,38190,45869
22930,38338,46115
23052,38471,46334
23120,38535,46467
23171,38584,46576
23249,38673,46718
23316,38746,46833
23337,38756,46874
23361,38764,46915
23423,38822,47006
23475,38870,47079
23480,38864,47094
23490,38871,47122
23541,38929,47200
23585,38973,47257
23598,38972,47270
23630,38996,47318
23701,39068,47423
23758,39117,47508
23782,39126,47555
23830,39166,47643
23915,39250,47779
23979,39306,47879
24013,39327,47942
24070,39382,48046
24153,39467,48177
24205,39509,48249
24225,39515,48280
24272,39559,48354
24333,39625,48446
24351,39634,48471
24337,39606,48454
24348,39618,48471
24368,39646,48492
24342,39614,48441
24288,39551,48355
24266,39528,48308
24256,39516,48265
24206,39447,48162
24142,39367,48047
24118,39342,47990
24103,39328,47940
24051,39263,47840
23998,39197,47749
23989,39189,47726
23990,39193,47714
23956,39154,47654
23929,39125,47610
23947,39152,47635
23965,39174,47660
23946,39145,47629
23937,39126,47610
23972,39164,47648
24000,39194,47671
23988,39172,47641
23983,39160,47628
24013,39192,47660
24027,39200,47661
24000,39159,47611
23983,39137,47585
23997,39155,47599
23988,39141,47578
23942,39085,47513
23914,39057,47477
23916,39066,47471
23894,39037,47417
23844,38972,47322
23822,38945,47269
23823,38944,47246
23792,38897,47174
23737,38821,47073
23715,38794,47026
23712,38797,47006
23669,38752,46933
23601,38678,46830
23568,38647,46775
23555,38639,46741
23506,38586,46655
23444,38517,46559
23421,38500,46522
23410,38495,46496
23362,38440,46417
23305,38376,46334
23288,38363,46308
23277,38356,46283
23229,38300,46200
23181,38245,46119
23172,38243,46094
23163,38238,46061
23117,38180,45968
23073,38127,45886
23069,38128,45867
23060,38120,45840
23010,38058,45759
22968,38009,45693
22965,38011,45679
22950,37998,45643
22897,37936,45553
22853,37891,45485
22846,37890,45462
22824,37865,45411
22767,37795,45314
22729,37749,45248
22724,37745,45222
22699,37711,45161
22641,37640,45060
22605,37600,44998
22594,37593,44970
22555,37550,44897
22490,37477,44793
22456,37447,44741
22447,37449,44718
22407,37407,44644
22346,37340,44542
22318,37322,44494
22309,37326,44470
22265,37278,44391
22205,37212,44294
22184,37195,44251
22175,37194,44220
22127,37143,44131
22066,37076,44030
22045,37057,43986
22035,37046,43953
21987,36981,43864
21934,36908,43769
21917,36887,43728
21902,36870,43685
21847,36802,43582
21788,36734,43484
21766,36722,43446
21744,36706,43404
21685,36638,43308
21631,36577,43225
21617,36568,43197
21596,36550,43152
21535,36480,43053
21483,36424,42971
21470,36417,42935
21447,36394,42875
21393,36325,42772
21356,36278,42697
21351,36273,42666
21326,36242,42605
21265,36170,42501
21221,36127,42432
21205,36123,42400
21168,36084,42330
21106,36012,42226
21071,35978,42166
21061,35974,42135
21025,35927,42056
20967,35852,41949
20940,35825,41897
20938,35832,41877
20908,35801,41821
20870,35762,41769
20889,35795,41811
20955,35883,41921
21018,35959,42035
21098,36054,42196
21247,36230,42468
21435,36446,42798
21608,36636,43109
21791,36835,43441
22025,37095,43849
22270,37365,44271
22475,37580,44636
22672,37785,44990
22897,38028,45383
23109,38253,45750
23264,38407,46034
23402,38546,46297
23565,38721,46587
23707,38870,46833
23794,38949,46991
23870,39022,47136
23970,39129,47310
24051,39210,47442
24085,39234,47508
24122,39264,47584
24189,39330,47697
24237,39368,47772
24249,39361,47800
24281,39383,47859
24350,39452,47963
24404,39498,48038
24431,39511,48084
24487,39563,48177
24575,39653,48310
24640,39709,48402
24684,39740,48469
24762,39820,48592
24866,39930,48749
24934,39994,48858
24979,40033,48944
25059,40118,49080
25156,40225,49234
25210,40280,49331
25242,40310,49402
25309,40382,49516
25387,40463,49633
25419,40488,49684
25429,40489,49711
25470,40530,49780
25511,40570,49841
25504,40550,49827
25481,40512,49785
25488,40513,49776
25489,40503,49749
25440,40432,49651
25382,40359,49550
25360,40337,49501
25333,40309,49439
25265,40230,49320
25204,40161,49217
25188,40148,49176
25171,40126,49129
25117,40054,49039
25075,40000,48977
25074,40001,48971
25066,39989,48949
25026,39937,48886
25005,39914,48854
25023,39940,48872
25026,39946,48867
24998,39914,48830
24994,39913,48832
25023,39950,48872
25030,39955,48871
25008,39925,48835
25010,39928,48838
25034,39958,48868
25024,39941,48844
24988,39890,48786
24982,39883,48775
24995,39903,48784
24967,39871,48732
24913,39808,48644
24894,39789,48602
24890,39788,48573
24843,39736,48487
24776,39666,48384
24744,39642,48333
24721,39631,48291
24655,39567,48194
24581,39493,48089
24549,39469,48038
24526,39451,47990
24465,39382,47888
24400,39314,47789
24377,39303,47750
24360,39294,47706
24309,39235,47606
24261,39179,47518
24253,39174,47490
24239,39159,47450
24182,39088,47354
24127,39029,47272
24110,39019,47241
24085,38996,47192
24023,38925,47094
23972,38874,47018
23956,38864,46984
23924,38832,46921
23861,38759,46818
23817,38712,46749
23807,38705,46723
23780,38671,46662
23723,38598,46563
23688,38556,46503
23677,38548,46475
23635,38503,46398
23565,38430,46288
23524,38399,46227
23503,38395,46196
23448,38340,46111
23373,38258,45998
23337,38226,45940
23325,38223,45909
23279,38172,45826
23214,38098,45723
23186,38070,45673
23171,38057,45638
23119,37994,45546
23056,37920,45440
23032,37897,45386
23018,37885,45339
22963,37822,45236
22899,37749,45133
22871,37727,45088
22847,37708,45044
22784,37638,44944
22718,37572,44847
22691,37561,44806
22661,37543,44757
22593,37466,44649
22530,37394,44552
22504,37376,44511
22472,37349,44454
22403,37271,44340
22344,37205,44243
22323,37187,44198
22291,37154,44132
22225,37077,44021
22174,37024,43938
22159,37014,43899
22127,36978,43829
22062,36899,43718
22014,36847,43641
21994,36832,43602
21952,36787,43525
21884,36710,43413
21841,36672,43342
21821,36666,43301
21772,36617,43210
21700,36537,43091
21658,36500,43024
21637,36488,42984
21582,36429,42891
21507,36344,42773
21468,36308,42707
21448,36293,42657
21393,36229,42549
21324,36146,42427
21288,36108,42364
21261,36081,42313
21195,36003,42206
21119,35917,42090
21080,35886,42028
21052,35866,41975
20991,35802,41874
20933,35740,41785
20924,35741,41772
20932,35760,41785
20927,35757,41781
20955,35793,41837
21058,35924,42014
21193,36089,42245
21322,36235,42477
21485,36420,42772
21707,36674,43156
21935,36925,43545
22133,37137,43898
22344,37367,44279
22583,37636,44703
22798,37867,45085
22966,38037,45402
23137,38214,45723
23324,38410,46054
23475,38559,46319
23579,38654,46516
23691,38765,46721
23816,38894,46932
23900,38967,47070
23943,38992,47151
24001,39047,47255
24072,39119,47370
24103,39138,47418
24105,39125,47428
24138,39157,47483
24190,39217,47562
24204,39231,47588
24202,39223,47596
24244,39266,47662
24307,39331,47752
24335,39351,47795
24352,39357,47832
24411,39417,47934
24485,39497,48053
24524,39533,48123
24557,39565,48193
24632,39650,48322
24713,39740,48454
24756,39775,48529
24793,39806,48602
24862,39883,48723
24922,39950,48825
24933,39956,48855
24942,39961,48882
24986,40010,48952
25016,40037,48994
24997,40003,48966
24978,39971,48939
24989,39974,48941
24976,39947,48898
24915,39862,48786
24859,39790,48685
24833,39757,48625
24786,39699,48534
24708,39605,48403
24653,39547,48310
24635,39536,48263
24603,39500,48187
24546,39436,48087
24523,39413,48041
24532,39425,48037
24517,39400,47994
24483,39352,47932
24486,39356,47931
24513,39392,47964
24506,39384,47947
24480,39353,47911
24495,39374,47933
24532,39419,47978
24530,39413,47968
24512,39386,47942
24530,39409,47969
24558,39443,48007
24542,39424,47985
24511,39391,47949
24517,39404,47962
24529,39419,47975
24500,39376,47921
24461,39324,47856
24454,39319,47840
24442,39310,47813
24382,39246,47722
24319,39184,47631
24296,39174,47596
24270,39156,47549
24201,39083,47443
24139,39021,47351
24119,39012,47315
24092,38990,47260
24027,38918,47152
23974,38863,47064
23958,38854,47024
23928,38824,46963
23867,38752,46863
23826,38707,46795
23821,38704,46768
23796,38674,46707
23738,38607,46611
23701,38571,46556
23696,38570,46538
23667,38533,46479
23610,38466,46390
23580,38439,46350
23572,38440,46340
23530,38393,46275
23467,38318,46181
23442,38295,46143
23439,38302,46131
23400,38262,46062
23340,38198,45970
23318,38182,45931
23310,38181,45909
23264,38129,45832
23203,38060,45739
23177,38042,45699
23161,38036,45665
23106,37977,45572
23043,37910,45474
23018,37895,45431
22998,37881,45386
22939,37814,45283
22878,37747,45187
22856,37733,45153
22832,37714,45112
22768,37641,45014
22709,37574,44928
22689,37561,44902
22666,37541,44864
22607,37470,44770
22561,37411,44689
22554,37401,44655
22536,37376,44596
22479,37308,44490
22436,37265,44412
22426,37265,44380
22397,37237,44316
22334,37164,44209
22288,37116,44138
22270,37103,44104
22229,37059,44028
22160,36982,43915
22114,36943,43845
22093,36935,43806
22043,36883,43719
21967,36798,43603
21924,36757,43544
21907,36745,43515
21860,36690,43430
21793,36612,43317
21762,36584,43257
21749,36581,43220
21701,36529,43131
21636,36458,43027
21609,36440,42979
21595,36438,42942
21544,36385,42850
21482,36318,42750
21457,36298,42702
21441,36281,42656
21387,36214,42561
21336,36153,42480
21337,36162,42483
21360,36194,42516
21368,36203,42533
21405,36248,42607
21514,36379,42790
21647,36533,43014
21764,36660,43227
21908,36818,43490
22108,37045,43834
22310,37271,44180
22478,37452,44490
22657,37650,44829
22873,37890,45212
23071,38099,45557
23228,38254,45835
23389,38419,46119
23565,38608,46418
23704,38748,46655
23797,38832,46824
23897,38929,47004
24011,39041,47194
24085,39103,47316
24121,39119,47385
24176,39167,47483
24247,39235,47595
24273,39248,47643
24269,39229,47652
24300,39258,47713
24356,39316,47801
24375,39330,47839
24377,39327,47859
24421,39379,47937
24485,39453,48038
24517,39481,48091
24542,39499,48140
24609,39570,48250
24683,39654,48373
24714,39685,48440
24735,39707,48503
24799,39782,48621
24867,39860,48737
24891,39883,48790
24912,39903,48840
24971,39971,48940
25023,40024,49022
25026,40011,49030
25027,39999,49033
25059,40032,49076
25071,40041,49086
25027,39983,49024
24983,39926,48960
24971,39910,48929
24941,39870,48861
24868,39781,48738
24807,39714,48639
24779,39692,48588
24731,39644,48511
24651,39555,48398
24596,39498,48325
24579,39487,48298
24544,39449,48238
24487,39384,48153
24463,39365,48122
24471,39386,48132
24450,39370,48103
24409,39327,48051
24404,39332,48058
24426,39367,48100
24415,39358,48092
24383,39323,48057
24389,39337,48074
24416,39375,48107
24402,39360,48080
24368,39321,48030
24368,39327,48032
24375,39343,48041
24340,39304,47989
24290,39249,47921
24277,39242,47902
24266,39240,47881
24212,39180,47799
24151,39111,47710
24124,39089,47671
24093,39064,47620
24018,38984,47507
23945,38909,47400
23915,38889,47351
23886,38865,47292
23818,38789,47175
23758,38722,47075
23740,38708,47034
23714,38683,46978
23646,38607,46872
23587,38548,46787
23564,38537,46749
23523,38499,46681
23446,38415,46565
23389,38356,46485
23367,38340,46451
23326,38298,46385
23257,38222,46281
23212,38180,46221
23199,38175,46197
23164,38136,46130
23101,38067,46032
23066,38040,45985
23053,38042,45966
23009,37995,45893
22943,37916,45788
22912,37884,45737
22903,37878,45710
22857,37821,45625
22791,37742,45517
22758,37713,45463
22739,37703,45427
22682,37642,45333
22611,37567,45224
22579,37547,45174
22556,37538,45138
22494,37475,45047
22421,37404,44951
22386,37385,44911
22356,37369,44870
22292,37299,44771
22229,37230,44678
22207,37214,44644
22185,37192,44600
22125,37114,44492
22068,37041,44392
22050,37023,44347
22024,36998,44285
21956,36921,44167
21893,36857,44068
21869,36843,44022
21835,36812,43954
21764,36737,43836
21708,36686,43744
21686,36680,43700
21647,36646,43629
21577,36568,43518
21527,36516,43441
21509,36503,43402
21470,36456,43323
21406,36374,43209
21365,36332,43142
21350,36323,43111
21309,36273,43031
21244,36193,42920
21208,36162,42865
21193,36159,42841
21143,36107,42762
21072,36028,42654
21036,35998,42598
21019,35990,42559
20965,35931,42463
20894,35853,42349
20858,35825,42290
20834,35811,42244
20771,35746,42139
20695,35670,42022
20657,35645,41964
20629,35626,41911
20565,35555,41801
20495,35481,41692
20465,35458,41642
20438,35434,41590
20373,35358,41477
20312,35288,41369
20293,35276,41322
20277,35262,41276
20231,35205,41192
20205,35176,41153
20239,35223,41209
20293,35288,41299
20341,35339,41395
20431,35444,41572
20583,35630,41851
20745,35822,42148
20895,35991,42438
21080,36199,42787
21307,36457,43196
21519,36692,43582
21701,36887,43930
21902,37109,44312
22124,37354,44717
22314,37548,45061
22469,37699,45352
22642,37878,45670
22825,38071,45993
22959,38201,46236
23057,38287,46422
23177,38407,46634
23306,38541,46847
23388,38613,46985
23439,38650,47081
23518,38727,47215
23606,38815,47351
23649,38847,47423
23673,38862,47477
23732,38927,47584
23803,39003,47698
23839,39025,47757
23869,39040,47816
23941,39110,47937
24018,39190,48064
24055,39222,48140
24093,39259,48229
24175,39353,48383
24259,39444,48532
24301,39481,48621
24347,39526,48719
24435,39628,48876
24516,39718,49017
24549,39748,49098
24584,39784,49187
24651,39861,49317
24695,39911,49411
24692,39906,49441
24692,39913,49481
24717,39952,49548
24711,39953,49564
24661,39900,49517
24623,39866,49482
24609,39865,49467
24563,39824,49395
24480,39740,49274
24419,39687,49189
24381,39661,49131
24312,39592,49022
24220,39494,48881
24163,39443,48795
24133,39421,48739
24069,39352,48632
23989,39264,48508
23953,39232,48448
23940,39230,48416
23892,39181,48339
23832,39120,48258
23816,39113,48242
23818,39123,48245
23785,39085,48197
23745,39040,48146
23748,39051,48157
23759,39069,48170
23730,39034,48124
23695,38997,48076
23696,39011,48084
23696,39020,48081
23654,38971,48013
23610,38922,47950
23604,38923,47940
23588,38914,47914
23527,38846,47828
23469,38785,47754
23450,38774,47729
23421,38746,47683
23352,38666,47578
23290,38604,47490
23263,38587,47444
23223,38547,47367
23148,38463,47245
23090,38403,47157
23064,38380,47110
23013,38324,47024
22929,38232,46900
22868,38175,46818
22839,38157,46773
22788,38104,46684
22716,38023,46566
22677,37987,46502
22663,37981,46470
22613,37929,46383
22540,37846,46267
22503,37814,46207
22487,37809,46175
22436,37758,46090
22368,37683,45985
22340,37658,45935
22328,37650,45900
22281,37594,45809
22221,37525,45708
22200,37511,45663
22187,37507,45625
22133,37446,45529
22068,37372,45427
22039,37348,45379
22014,37329,45328
21951,37258,45215
21885,37189,45105
21857,37174,45057
21824,37152,45002
21751,37074,44890
21683,37001,44789
21658,36980,44746
21628,36949,44687
21556,36864,44569
21492,36793,44466
21467,36772,44415
21429,36734,44341
21354,36653,44221
21293,36596,44131
21266,36582,44088
21223,36542,44015
21152,36461,43901
21103,36408,43823
21085,36392,43782
21046,36342,43700
20975,36257,43580
20928,36212,43506
20906,36202,43463
20855,36150,43370
20780,36067,43247
20738,36029,43177
20719,36016,43137
20665,35953,43041
20590,35865,42918
20550,35827,42851
20529,35811,42802
20474,35748,42694
20406,35666,42572
20375,35637,42512
20356,35624,42470
20298,35561,42371
20230,35486,42259
20197,35460,42204
20172,35441,42154
20110,35371,42048
20046,35297,41942
20019,35275,41893
19992,35250,41838
19926,35173,41721
19861,35101,41611
19834,35085,41561
19804,35065,41501
19736,34993,41385
19677,34932,41287
19658,34921,41243
19630,34895,41180
19564,34818,41069
19509,34759,40982
19486,34744,40941
19446,34704,40868
19375,34620,40748
19323,34563,40659
19304,34547,40615
19267,34503,40537
19208,34428,40428
19180,34399,40379
19192,34426,40393
19198,34439,40399
19207,34453,40423
19274,34543,40556
19391,34693,40779
19506,34831,41005
19631,34974,41255
19816,35190,41605
20040,35449,42015
20242,35671,42396
20434,35876,42772
20666,36132,43208
20910,36398,43655
21106,36602,44032
21278,36780,44379
21479,36998,44762
21678,37214,45128
21824,37360,45409
21945,37481,45654
22088,37634,45921
22215,37774,46157
22285,37846,46310
22339,37903,46446
22420,37996,46619
22489,38070,46760
22509,38078,46825
22531,38091,46891
22593,38161,47011
22650,38224,47118
22665,38237,47172
22690,38268,47247
22757,38353,47374
22816,38422,47482
22840,38449,47548
22881,38502,47649
22960,38601,47801
23025,38675,47926
23056,38708,48009
23105,38769,48128
23185,38863,48286
23239,38921,48400
23263,38943,48476
23316,39002,48592
23393,39088,48735
23432,39124,48817
23438,39122,48851
23467,39158,48920
23503,39210,49000
23489,39202,49001
23443,39154,48951
23425,39142,48933
23415,39139,48915
23358,39071,48821
23277,38977,48696
23230,38929,48619
23192,38889,48550
23113,38797,48419
23023,38697,48278
22972,38654,48195
22934,38624,48120
22862,38549,48000
22790,38478,47894
22766,38465,47858
22749,38456,47827
22699,38401,47748
22659,38359,47690
22667,38377,47699
22675,38388,47699
22641,38346,47642
22614,38317,47599
22628,38339,47612
22633,38345,47607
22597,38300,47551
22571,38272,47521
22581,38289,47537
22575,38278,47521
22532,38221,47456
22502,38188,47419
22502,38195,47420
22479,38169,47380
22421,38102,47294
22380,38065,47240
22361,38059,47212
22311,38011,47130
22231,37930,47012
22179,37891,46940
22149,37879,46894
22085,37816,46793
22000,37723,46663
21952,37678,46585
21926,37658,46530
21865,37588,46420
21786,37496,46291
21745,37455,46219
21717,37432,46158
21651,37355,46038
21573,37267,45909
21536,37233,45842
21510,37213,45786
21446,37144,45672
21377,37071,45555
21351,37052,45496
21330,37037,45439
21274,36971,45327
21218,36907,45226
21200,36896,45190
21180,36881,45148
21119,36810,45050
21061,36748,44967
21041,36741,44942
21015,36719,44898
20951,36644,44797
20896,36585,44716
20876,36576,44684
20844,36544,44621
20776,36463,44504
20721,36404,44413
20701,36391,44367
20663,36353,44289
20597,36275,44171
20552,36228,44091
20537,36218,44053
20499,36173,43975
20431,36091,43858
20387,36047,43784
20366,36032,43741
20315,35973,43645
20240,35887,43519
20198,35849,43449
20177,35841,43408
20119,35782,43308
20040,35696,43181
19998,35660,43108
19977,35645,43055
19925,35578,42948
19859,35495,42830
19830,35465,42770
19813,35447,42724
19760,35377,42621
19696,35295,42510
19669,35266,42458
19649,35246,42410
19591,35175,42305
19527,35103,42201
19501,35086,42156
19477,35065,42103
19414,34988,41987
19353,34915,41878
19333,34899,41830
19311,34877,41772
19250,34803,41658
19195,34743,41562
19177,34737,41520
19150,34717,41456
19086,34648,41338
19034,34596,41243
19014,34589,41194
18977,34554,41113
18910,34472,40985
18861,34415,40893
18843,34400,40846
18806,34354,40765
18742,34270,40645
18699,34219,40568
18679,34204,40526
18635,34152,40435
18568,34071,40311
18528,34033,40240
18510,34025,40206
18467,33976,40130
18416,33912,40047
18418,33918,40047
18460,33977,40109
18493,34019,40167
18539,34073,40263
18652,34212,40477
18809,34400,40765
18955,34564,41051
19110,34738,41372
19320,34982,41787
19552,35252,42237
19757,35478,42648
19958,35702,43064
20194,35976,43535
20426,36241,43990
20610,36441,44366
20781,36627,44728
20976,36849,45125
21150,37044,45481
21264,37165,45745
21366,37279,45987
21492,37429,46254
21596,37549,46471
21646,37601,46603
21696,37658,46731
21774,37751,46886
21831,37811,46998
21846,37819,47050
21872,37849,47124
21931,37924,47244
21973,37974,47335
21984,37984,47388
22020,38028,47484
22090,38116,47628
22141,38174,47739
22163,38201,47821
22215,38270,47956
22296,38372,48125
22348,38429,48241
22378,38457,48326
22447,38535,48467
22537,38639,48635
22587,38690,48747
22614,38714,48830
22674,38788,48960
22749,38877,49093
22779,38905,49150
22782,38904,49173
22812,38943,49231
22841,38981,49273
22815,38951,49233
22767,38894,49161
22745,38875,49124
22718,38846,49069
22641,38752,48941
22555,38652,48807
22505,38606,48724
22457,38558,48631
22369,38456,48479
22285,38364,48340
22247,38331,48267
22209,38294,48190
22135,38211,48066
22073,38145,47968
22057,38136,47931
22038,38118,47881
21986,38057,47789
21953,38022,47732
21958,38038,47731
21950,38032,47708
21912,37982,47646
21895,37963,47621
21910,37988,47639
21904,37980,47618
21865,37929,47557
21845,37913,47536
21853,37931,47547
21835,37909,47505
21789,37852,47427
21768,37834,47394
21763,37841,47382
21717,37795,47308
21649,37717,47199
21617,37687,47136
21602,37678,47088
21547,37614,46981
21471,37524,46852
21433,37481,46779
21408,37454,46718
21342,37375,46598
21263,37283,46464
21221,37243,46385
21190,37214,46313
21125,37138,46187
21056,37062,46063
21027,37043,46003
21003,37025,45944
20940,36953,45825
20878,36882,45712
20857,36864,45660
20833,36838,45602
20769,36759,45487
20708,36690,45387
20687,36674,45343
20661,36646,45281
20595,36569,45167
20538,36508,45077
20520,36495,45036
20489,36461,44966
20425,36380,44850
20376,36324,44766
20358,36311,44727
20319,36272,44650
20250,36194,44530
20199,36147,44448
20178,36136,44403
20134,36087,44313
20066,36003,44190
20025,35961,44120
20008,35952,44085
19960,35899,43999
19893,35817,43880
19862,35784,43814
19854,35779,43773
19812,35719,43676
19750,35632,43554
19722,35593,43485
19708,35573,43434
19654,35504,43327
19586,35423,43209
19554,35395,43147
19531,35380,43090
19469,35313,42972
19403,35239,42849
19377,35220,42790
19357,35209,42739
19301,35143,42629
19244,35075,42523
19225,35058,42477
19204,35037,42423
19140,34962,42310
19078,34893,42208
19052,34876,42163
19019,34849,42099
18949,34769,41977
18889,34702,41875
18867,34683,41827
18839,34648,41756
18776,34569,41636
18723,34510,41542
18702,34496,41495
18665,34458,41420
18598,34376,41300
18551,34321,41214
18535,34309,41172
18501,34268,41093
18441,34192,40980
18405,34153,40913
18392,34147,40877
18354,34099,40788
18292,34020,40661
18259,33988,40585
18245,33985,40537
18197,33932,40433
18126,33852,40300
18087,33818,40223
18066,33804,40169
18011,33739,40063
17940,33653,39939
17906,33615,39870
17887,33588,39813
17834,33510,39698
17773,33424,39576
17748,33392,39515
17734,33374,39466
17692,33314,39376
17657,33267,39312
17673,33296,39343
17712,33357,39417
17743,33402,39485
17807,33489,39624
17942,33669,39887
18104,33876,40198
18255,34057,40501
18435,34268,40866
18669,34548,41326
18907,34827,41794
19113,35061,42225
19332,35315,42687
19582,35608,43195
19812,35867,43663
20000,36067,44063
20189,36276,44464
20392,36508,44879
20557,36692,45226
20673,36812,45500
20792,36941,45777
20919,37088,46051
21002,37180,46245
21041,37221,46372
21096,37292,46523
21167,37385,46683
21198,37422,46768
21203,37423,46811
21242,37472,46904
21301,37549,47022
21324,37578,47086
21333,37588,47135
21387,37652,47250
21463,37739,47390
21506,37778,47479
21539,37809,47562
21617,37899,47709
21710,38004,47874
21764,38060,47989
21810,38109,48104
21894,38212,48278
21979,38314,48449
22019,38360,48555
22053,38403,48654
22125,38495,48799
22193,38576,48924
22212,38589,48974
22224,38598,49019
22267,38653,49102
22294,38685,49147
22271,38647,49108
22246,38606,49062
22250,38602,49040
22230,38566,48969
22160,38472,48829
22092,38395,48705
22049,38362,48615
21984,38295,48484
21883,38180,48305
21804,38093,48164
21760,38049,48068
21698,37978,47942
21612,37878,47794
21560,37825,47705
21541,37814,47663
21500,37769,47585
21444,37701,47489
21429,37687,47460
21439,37708,47472
21418,37685,47441
21380,37638,47391
21383,37644,47398
21406,37674,47422
21393,37654,47385
21361,37616,47329
21363,37623,47326
21369,37638,47329
21332,37596,47268
21283,37540,47193
21270,37533,47169
21263,37530,47142
21214,37472,47050
21155,37408,46953
21131,37394,46909
21107,37376,46854
21042,37298,46732
20977,37220,46612
20951,37194,46550
20920,37160,46479
20844,37073,46353
20771,36998,46241
20736,36975,46180
20693,36935,46095
20613,36843,45960
20546,36771,45853
20519,36748,45799
20483,36705,45723
20417,36622,45604
20371,36568,45517
20359,36559,45468
20328,36520,45380
20265,36441,45252
20223,36393,45164
20207,36378,45112
20166,36323,45014
20101,36238,44886
20065,36202,44813
20050,36198,44773
20001,36145,44682
19932,36064,44564
19901,36037,44502
19892,36037,44466
19849,35985,44376
19790,35910,44270
19769,35885,44222
19764,35879,44192
19723,35823,44104
19672,35756,44003
19660,35745,43960
19657,35746,43924
19614,35694,43830
19562,35634,43735
19547,35625,43700
19537,35614,43662
19487,35548,43563
19432,35485,43470
19412,35475,43434
19387,35458,43386
19322,35382,43273
19261,35311,43169
19241,35292,43122
19215,35261,43057
19150,35179,42935
19095,35115,42836
19079,35104,42793
19052,35074,42724
18990,34996,42607
18944,34943,42521
18931,34938,42480
18900,34908,42404
18839,34837,42286
18800,34795,42208
18790,34790,42170
18757,34750,42090
18697,34676,41978
18659,34642,41916
18643,34639,41883
18596,34588,41791
18530,34504,41665
18498,34468,41593
18488,34460,41551
18444,34402,41452
18380,34315,41329
18351,34278,41263
18338,34263,41217
18289,34202,41113
18226,34126,40994
18198,34099,40931
18178,34081,40878
18120,34010,40770
18055,33933,40654
18028,33908,40595
18009,33892,40541
17954,33824,40428
17894,33752,40314
17870,33733,40259
17848,33712,40199
17788,33634,40079
17731,33563,39973
17715,33551,39936
17699,33535,39897
17655,33474,39816
17633,33442,39779
17669,33486,39835
17719,33544,39919
17762,33589,40008
17850,33691,40186
18000,33875,40477
18162,34070,40798
18314,34251,41127
18506,34484,41533
18744,34772,42012
18973,35036,42469
19176,35262,42893
19402,35521,43360
19650,35810,43857
19861,36049,44292
20033,36241,44669
20219,36460,45063
20411,36687,45449
20550,36841,45742
20644,36941,45967
20752,37064,46208
20862,37188,46435
20915,37243,46574
20935,37263,46665
20982,37323,46787
21035,37391,46903
21045,37399,46951
21044,37392,46983
21085,37439,47074
21139,37501,47174
21157,37516,47222
21174,37533,47277
21235,37611,47399
21305,37696,47524
21339,37731,47595
21375,37770,47682
21453,37868,47835
21530,37958,47981
21563,37991,48064
21597,38030,48156
21672,38121,48298
21737,38194,48413
21759,38209,48464
21783,38233,48524
21836,38295,48619
21863,38322,48663
21845,38290,48637
21834,38271,48618
21843,38283,48623
21818,38256,48572
21749,38175,48457
21691,38115,48358
21657,38084,48279
21595,38011,48146
21503,37900,47975
21437,37830,47853
21401,37796,47768
21336,37722,47638
21252,37627,47487
21209,37587,47403
21197,37583,47359
21157,37535,47273
21105,37469,47180
21094,37461,47156
21104,37477,47159
21078,37444,47110
21038,37399,47051
21037,37409,47055
21048,37431,47072
21020,37398,47028
20984,37352,46976
20987,37360,46981
20995,37374,46983
20960,37336,46922
20921,37297,46861
20919,37308,46856
20915,37310,46840
20867,37250,46757
20819,37188,46674
20807,37176,46640
20787,37153,46583
20724,37075,46464
20665,37009,46359
20643,36990,46305
20609,36947,46222
20536,36849,46083
20474,36771,45966
20446,36741,45895
20401,36687,45793
20324,36590,45649
20267,36525,45545
20243,36504,45486
20199,36452,45388
20128,36366,45257
20081,36320,45177
20060,36311,45133
20011,36261,45037
19939,36181,44906
19903,36149,44831
19893,36144,44790
19849,36086,44696
19782,36002,44579
19752,35971,44521
19744,35964,44486
19700,35907,44395
19640,35829,44283
19615,35803,44227
19604,35797,44186
19555,35740,44092
19493,35670,43988
19467,35649,43942
19446,35635,43900
19388,35567,43800
19328,35496,43699
19307,35481,43654
19289,35463,43603
19233,35388,43493
19178,35319,43390
19164,35308,43349
19145,35289,43295
19085,35214,43179
19030,35151,43076
19015,35143,43033
18994,35122,42972
18938,35053,42855
18892,35005,42761
18880,35002,42717
18851,34973,42647
18786,34898,42528
18735,34846,42439
18717,34834,42394
18682,34794,42314
18618,34714,42193
18574,34665,42109
18556,34650,42059
18514,34596,41959
18446,34510,41827
18406,34466,41750
18388,34453,41709
18338,34393,41614
18269,34305,41492
18237,34271,41428
18230,34268,41394
18192,34216,41303
18137,34142,41187
18115,34118,41125
18106,34111,41079
18060,34052,40975
18000,33975,40858
17975,33949,40801
17960,33933,40750
17908,33865,40637
17848,33792,40521
17824,33771,40466
17804,33755,40413
17748,33687,40300
17691,33619,40191
17672,33603,40140
17652,33582,40085
17597,33506,39971
17549,33439,39870
17540,33432,39831
17525,33418,39777
17470,33348,39666
17421,33291,39574
17407,33281,39537
17383,33254,39480
17329,33185,39379
17296,33152,39322
17305,33179,39335
17315,33200,39350
17320,33204,39366
17373,33272,39477
17490,33417,39696
17618,33568,39940
17752,33721,40212
17938,33945,40591
18171,34227,41052
18391,34480,41498
18600,34714,41939
18848,35002,42456
19119,35318,43010
19353,35582,43500
19561,35811,43948
19793,36078,44427
20031,36351,44899
20215,36553,45281
20364,36714,45609
20527,36903,45956
20683,37084,46278
20781,37189,46503
20851,37261,46683
20939,37368,46887
21019,37468,47064
21051,37502,47159
21074,37524,47241
21131,37596,47371
21187,37663,47486
21204,37671,47538
21227,37688,47601
21296,37767,47731
21368,37847,47860
21405,37881,47941
21452,37933,48048
21544,38042,48218
21628,38140,48376
21673,38187,48485
21733,38252,48619
21830,38365,48802
21911,38453,48951
21955,38491,49048
22016,38553,49169
22108,38655,49326
22173,38721,49435
22197,38738,49488
22234,38779,49566
22285,38843,49657
22293,38850,49675
22259,38806,49629
22241,38790,49605
22232,38788,49583
22176,38720,49477
22082,38607,49317
22013,38531,49194
21958,38475,49084
21866,38366,48915
21758,38237,48728
21691,38164,48600
21644,38112,48493
21564,38014,48336
21478,37914,48179
21437,37879,48096
21412,37866,48035
21354,37806,47928
21296,37747,47831
21284,37749,47803
21282,37758,47785
21245,37715,47716
21212,37676,47660
21224,37696,47672
21233,37712,47677
21199,37672,47619
21169,37639,47574
21178,37661,47586
21177,37666,47576
21132,37614,47507
21094,37572,47453
21092,37574,47443
21073,37548,47398
21017,37469,47294
20974,37413,47212
20961,37399,47169
20924,37353,47084
20850,37261,46951
20794,37199,46854
20768,37176,46793
20719,37117,46684
20640,37022,46538
20585,36967,46439
20555,36943,46375
20494,36872,46259
20414,36774,46114
20370,36727,46025
20349,36714,45967
20294,36651,45856
20220,36565,45722
20186,36530,45646
20173,36518,45591
20124,36453,45481
20060,36374,45357
20034,36351,45296
20020,36342,45246
19967,36277,45133
19904,36201,45013
19882,36181,44953
19868,36169,44897
19818,36104,44785
19764,36039,44679
19748,36029,44637
19731,36012,44589
19671,35938,44480
19612,35869,44382
19594,35858,44346
19572,35838,44295
19509,35761,44183
19451,35693,44084
19432,35674,44035
19404,35639,43960
19341,35556,43831
19290,35496,43731
19275,35486,43684
19244,35454,43612
19181,35378,43496
19136,35328,43415
19125,35322,43378
19097,35285,43303
19039,35211,43189
18999,35173,43120
18982,35169,43086
18938,35122,42996
18873,35043,42869
18840,35011,42794
18830,35010,42748
18786,34954,42641
18717,34865,42503
18682,34823,42420
18666,34805,42362
18617,34735,42250
18550,34644,42121
18520,34605,42053
18505,34583,42005
18458,34511,41903
18402,34433,41793
18382,34412,41742
18370,34399,41695
18321,34335,41587
18267,34269,41482
18253,34258,41439
18244,34248,41394
18197,34181,41288
18148,34120,41188
18136,34118,41149
18121,34109,41099
18063,34043,40989
18009,33986,40895
17991,33982,40860
17964,33962,40805
17899,33887,40692
17844,33829,40602
17826,33817,40561
17797,33779,40486
17737,33693,40356
17693,33632,40254
17680,33616,40196
17648,33574,40105
17588,33494,39977
17549,33447,39892
17536,33435,39843
17497,33387,39745
17431,33304,39613
17392,33265,39537
17376,33259,39499
17331,33206,39413
17270,33128,39304
17249,33109,39265
17260,33133,39277
17255,33130,39267
17257,33136,39286
17325,33227,39422
17442,33374,39642
17557,33507,39873
17693,33661,40158
17897,33901,40561
18136,34182,41027
18355,34432,41475
18577,34685,41948
18844,35000,42502
19119,35323,43066
19353,35588,43567
19580,35844,44057
19836,36143,44586
20072,36419,45077
20245,36614,45470
20402,36793,45832
20578,37001,46212
20728,37175,46534
20817,37272,46760
20897,37363,46966
21004,37491,47192
21090,37586,47364
21128,37621,47463
21173,37668,47576
21247,37754,47725
21299,37812,47833
21318,37828,47889
21359,37876,47983
21437,37969,48126
21495,38032,48236
21529,38064,48317
21595,38142,48455
21692,38258,48636
21761,38334,48770
21808,38382,48877
21891,38480,49041
21998,38605,49237
22065,38674,49375
22107,38711,49478
22183,38794,49626
22273,38895,49784
22318,38939,49877
22342,38957,49940
22399,39018,50044
22459,39082,50141
22466,39080,50153
22448,39054,50130
22455,39068,50141
22452,39072,50129
22392,39003,50029
22316,38912,49902
22270,38865,49813
22216,38809,49699
22115,38689,49512
22014,38572,49328
21955,38513,49204
21894,38448,49073
21793,38332,48889
21703,38237,48731
21664,38204,48640
21625,38164,48543
21555,38080,48410
21505,38025,48317
21500,38030,48290
21484,38014,48243
21436,37955,48156
21410,37927,48110
21421,37946,48116
21409,37938,48089
21365,37890,48021
21343,37873,47993
21349,37889,47999
21327,37861,47953
21279,37796,47866
21261,37774,47827
21266,37782,47816
21232,37737,47743
21169,37658,47636
21135,37628,47577
21117,37624,47536
21060,37565,47431
20982,37478,47300
20939,37438,47222
20911,37413,47156
20846,37334,47029
20768,37236,46886
20726,37188,46799
20694,37150,46717
20623,37060,46579
20547,36965,46441
20511,36928,46365
20479,36899,46290
20409,36819,46154
20341,36740,46025
20314,36719,45958
20286,36695,45885
20218,36618,45754
20157,36550,45640
20137,36535,45588
20108,36507,45521
20037,36423,45397
19975,36350,45291
19952,36326,45235
19919,36283,45152
19852,36193,45018
19801,36129,44915
19783,36113,44861
19747,36070,44775
19678,35988,44647
19633,35942,44558
19621,35938,44514
19586,35899,44427
19520,35821,44305
19477,35780,44232
19455,35771,44189
19404,35714,44092
19333,35627,43965
19299,35588,43892
19288,35575,43844
19241,35509,43740
19171,35418,43610
19136,35379,43538
19119,35364,43486
19066,35300,43376
19000,35219,43248
18970,35193,43179
18950,35180,43121
18892,35112,43002
18824,35033,42875
18794,35005,42810
18771,34980,42747
18710,34900,42622
18647,34820,42500
18620,34798,42442
18594,34773,42380
18530,34690,42254
18469,34615,42139
18449,34599,42088
18424,34573,42026
18359,34492,41905
18302,34424,41800
18286,34411,41750
18262,34382,41678
18199,34306,41553
18148,34253,41453
18130,34248,41404
18096,34219,41325
18031,34145,41203
17985,34101,41118
17971,34099,41079
17939,34061,40999
17878,33983,40881
17839,33940,40807
17825,33931,40766
17788,33880,40674
17728,33797,40549
17698,33759,40478
17687,33750,40438
17639,33692,40342
17568,33604,40217
17533,33566,40148
17516,33551,40105
17465,33485,40002
17397,33397,39878
17364,33360,39809
17341,33339,39752
17283,33266,39632
17215,33182,39499
17184,33153,39426
17162,33135,39360
17105,33066,39235
17044,32992,39113
17021,32973,39057
16999,32954,39000
16942,32879,38883
16887,32811,38778
16876,32804,38744
16870,32800,38720
16842,32758,38666
16843,32755,38671
16911,32844,38795
17006,32961,38968
17100,33068,39159
17238,33234,39447
17444,33488,39855
17665,33750,40294
17877,33988,40732
18122,34268,41236
18407,34602,41804
18673,34908,42342
18903,35168,42835
19144,35452,43358
19403,35759,43898
19622,36009,44361
19795,36206,44757
19977,36424,45171
20166,36650,45579
20305,36804,45890
20403,36903,46122
20518,37030,46365
20636,37167,46596
20700,37233,46736
20732,37260,46827
20791,37327,46955
20855,37406,47084
20876,37426,47143
20881,37429,47185
20924,37483,47285
20980,37553,47396
21002,37573,47452
21022,37591,47512
21087,37671,47642
21161,37763,47785
21197,37805,47877
21237,37853,47985
21324,37960,48165
21413,38066,48343
21460,38118,48460
21509,38177,48581
21596,38285,48751
21672,38374,48892
21700,38399,48960
21729,38430,49031
21789,38500,49133
21826,38535,49183
21809,38503,49155
21792,38478,49127
21793,38485,49121
21761,38451,49055
21682,38358,48920
21613,38285,48803
21565,38242,48712
21487,38157,48565
21380,38029,48374
21300,37943,48229
21252,37895,48121
21179,37809,47968
21091,37698,47794
21045,37645,47690
21031,37632,47632
20988,37578,47532
20930,37507,47424
20917,37497,47389
20929,37516,47384
20907,37487,47330
20868,37443,47270
20869,37454,47278
20883,37482,47304
20860,37455,47269
20826,37416,47223
20833,37429,47237
20847,37447,47254
20819,37406,47205
20784,37360,47148
20786,37365,47146
20783,37365,47130
20735,37304,47045
20685,37244,46960
20671,37237,46928
20649,37219,46876
20584,37144,46758
20526,37081,46655
20507,37069,46602
20478,37034,46519
20410,36943,46380
20352,36872,46266
20328,36849,46199
20286,36801,46099
20211,36707,45950
20156,36640,45836
20132,36615,45768
20087,36559,45661
20013,36469,45517
19966,36418,45420
19948,36405,45366
19904,36351,45264
19836,36263,45126
19799,36219,45045
19784,36204,45000
19735,36139,44902
19666,36048,44779
19632,36015,44713
19620,36012,44673
19573,35956,44578
19509,35875,44465
19480,35847,44411
19466,35839,44373
19413,35778,44272
19348,35703,44159
19324,35684,44107
19312,35674,44062
19263,35610,43956
19208,35542,43848
19190,35528,43801
19176,35514,43749
19120,35442,43633
19064,35373,43526
19047,35361,43484
19028,35342,43431
18968,35267,43313
18913,35204,43210
18899,35198,43168
18878,35176,43109
18817,35097,42993
18765,35036,42895
18746,35024,42846
18711,34987,42765
18639,34900,42634
18585,34838,42534
18567,34823,42483
18532,34779,42399
18468,34693,42273
18426,34640,42190
18413,34627,42147
18376,34577,42057
18314,34496,41931
18279,34460,41857
18269,34458,41819
18227,34407,41725
18163,34325,41598
18132,34293,41528
18121,34287,41484
18075,34230,41383
18007,34146,41259
17974,34114,41193
17957,34100,41141
17902,34034,41026
17834,33950,40895
17801,33917,40824
17777,33895,40763
17714,33820,40639
17644,33736,40506
