green_channel,red_channel,ir_channel
21554,45271,16892
21537,45260,16867
21516,45243,16839
21497,45224,16811
21483,45202,16787
21471,45183,16767
21465,45171,16756
21468,45171,16761
21483,45186,16788
21517,45218,16847
21574,45269,16947
21657,45343,17094
21769,45444,17288
21911,45572,17528
22084,45723,17806
22282,45895,18114
22498,46079,18441
22723,46268,18774
22948,46456,19102
23166,46637,19413
23368,46805,19700
23546,46955,19957
23698,47084,20178
23828,47192,20363
23936,47277,20513
24021,47340,20631
24085,47387,20719
24130,47422,20783
24162,47445,20826
24185,47459,20852
24200,47465,20862
24210,47466,20857
24216,47461,20841
24218,47450,20816
24215,47436,20786
24207,47419,20750
24195,47401,20710
24178,47383,20670
24158,47367,20633
24135,47351,20601
24112,47336,20575
24094,47326,20555
24081,47321,20544
24074,47318,20542
24073,47315,20544
24076,47317,20550
24083,47324,20558
24092,47334,20566
24102,47344,20574
24111,47353,20581
24120,47362,20586
24132,47370,20589
24141,47376,20588
24144,47380,20585
24142,47381,20579
24136,47376,20569
24124,47364,20551
24107,47348,20528
24085,47328,20499
24058,47302,20464
24027,47273,20423
23995,47244,20379
23962,47217,20334
23930,47191,20288
23899,47165,20239
23869,47139,20191
23844,47117,20145
23826,47100,20104
23811,47087,20069
23799,47076,20040
23793,47069,20017
23790,47064,19997
23784,47058,19979
23780,47051,19963
23778,47044,19951
23780,47038,19944
23785,47036,19943
23797,47040,19947
23814,47048,19954
23832,47058,19960
23851,47068,19967
23870,47078,19971
23886,47087,19970
23896,47090,19963
23900,47088,19951
23899,47083,19936
23894,47076,19918
23881,47066,19895
23863,47053,19866
23843,47040,19832
23821,47022,19797
23799,47000,19761
23777,46974,19722
23753,46948,19680
23729,46922,19636
23706,46897,19592
23689,46873,19550
23676,46854,19510
23663,46840,19472
23646,46828,19434
23625,46814,19395
23600,46797,19352
23573,46775,19306
23544,46750,19256
23512,46722,19205
23477,46694,19154
23440,46665,19101
23400,46631,19046
23359,46595,18989
23317,46559,18931
23274,46525,18873
23230,46491,18818
23184,46458,18768
23139,46429,18722
23097,46402,18678
23058,46374,18632
23023,46347,18588
22990,46321,18547
22959,46295,18505
22929,46269,18462
22898,46243,18418
22867,46213,18372
22834,46181,18323
22802,46147,18272
22769,46114,18223
22733,46080,18174
22693,46047,18127
22654,46017,18084
22616,45993,18046
22582,45975,18014
22555,45962,17985
22536,45949,17955
22522,45936,17923
22511,45924,17890
22501,45910,17855
22487,45893,17816
22466,45871,17773
22439,45846,17730
22411,45819,17688
22384,45793,17649
22359,45770,17610
22337,45752,17577
22322,45741,17552
22313,45738,17536
22307,45742,17531
22307,45754,17542
22321,45774,17574
22359,45806,17634
22423,45857,17731
22516,45932,17874
22641,46034,18069
22802,46165,18315
22991,46322,18603
23200,46495,18917
23422,46678,19245
23649,46864,19576
23871,47045,19896
24078,47214,20196
24264,47364,20470
24428,47498,20714
24567,47616,20925
24684,47717,21102
24781,47800,21245
24859,47868,21358
24921,47921,21441
24967,47957,21497
24999,47977,21531
25016,47987,21547
25019,47988,21548
25009,47979,21535
24991,47960,21510
24968,47936,21480
24943,47911,21451
24918,47889,21427
24896,47871,21407
24876,47853,21391
24861,47836,21380
24852,47823,21370
24848,47816,21361
24849,47814,21354
24854,47816,21349
24861,47821,21347
24868,47825,21348
24876,47830,21349
24882,47836,21352
24886,47842,21354
24891,47847,21356
24897,47849,21358
24901,47846,21359
24902,47841,21359
24901,47835,21356
24894,47827,21350
24883,47815,21340
24868,47799,21323
24853,47780,21300
24838,47759,21270
24820,47735,21233
24795,47710,21191
24766,47683,21144
24733,47654,21093
24698,47619,21039
24659,47580,20981
24621,47542,20921
24582,47506,20862
24543,47473,20806
24507,47445,20756
24478,47424,20713
24454,47406,20677
24434,47391,20648
24419,47380,20625
24411,47372,20606
24407,47364,20594
24403,47353,20586
24399,47343,20580
24397,47333,20574
24399,47327,20566
24403,47326,20560
24408,47331,20554
24415,47337,20549
24421,47340,20542
24424,47340,20532
24426,47336,20521
24427,47330,20507
24426,47323,20492
24424,47316,20476
24424,47309,20457
24424,47301,20433
24423,47291,20403
24417,47278,20365
24408,47261,20322
24395,47240,20272
24379,47216,20218
24356,47188,20163
24327,47160,20108
24294,47133,20055
24261,47107,20003
24229,47079,19953
24200,47053,19905
24176,47029,19858
24153,47006,19812
24129,46982,19764
24105,46959,19716
24080,46937,19668
24057,46912,19624
24033,46884,19577
24007,46858,19527
23980,46835,19477
23953,46814,19429
23928,46795,19382
23907,46776,19333
23886,46757,19280
23861,46734,19227
23832,46711,19178
23799,46688,19131
23761,46665,19087
23722,46639,19042
23684,46608,18998
23647,46576,18954
23614,46544,18910
23584,46513,18868
23557,46485,18824
23532,46458,18781
23508,46434,18739
23481,46411,18698
23451,46391,18657
23425,46371,18618
23400,46350,18577
23375,46326,18534
23348,46300,18488
23318,46271,18438
23286,46244,18388
23254,46220,18341
23225,46197,18297
23197,46173,18253
23167,46148,18209
23135,46123,18166
23106,46099,18127
23082,46078,18091
23060,46057,18056
23038,46036,18023
23017,46016,17993
22997,45999,17967
22976,45984,17943
22952,45969,17916
22926,45957,17886
22898,45945,17856
22871,45933,17826
22844,45916,17794
22819,45897,17758
22795,45879,17724
22774,45864,17693
22757,45850,17657
22743,45833,17618
22728,45814,17577
22712,45794,17537
22694,45774,17496
22674,45753,17453
22654,45736,17411
22635,45723,17371
22618,45710,17330
22600,45695,17290
22581,45681,17252
22559,45664,17215
22536,45644,17180
22512,45624,17147
22489,45608,17121
22468,45595,17103
22453,45588,17100
22450,45589,17116
22470,45604,17163
22516,45641,17249
22594,45704,17383
22707,45794,17571
22854,45912,17811
23032,46056,18101
23237,46225,18429
23461,46414,18787
23693,46613,19164
23926,46813,19543
24153,47008,19911
24369,47193,20254
24566,47360,20563
24743,47509,20836
24897,47642,21073
25028,47758,21272
25133,47854,21432
25213,47929,21554
25274,47988,21641
25317,48032,21699
25343,48060,21731
25353,48074,21743
25353,48074,21744
25344,48064,21734
25328,48048,21711
25307,48024,21679
25281,47996,21642
25253,47969,21602
25229,47944,21561
25211,47920,21523
25195,47895,21490
25180,47873,21462
25168,47855,21438
25160,47842,21421
25153,47834,21413
25149,47832,21411
25149,47834,21415
25155,47838,21423
25164,47843,21437
25175,47851,21456
25187,47863,21477
25200,47874,21494
25211,47884,21509
25219,47894,21519
25224,47903,21522
25226,47908,21518
25221,47905,21509
25208,47894,21492
25192,47878,21467
25173,47858,21435
25151,47837,21397
25123,47814,21355
25093,47789,21309
25062,47761,21260
25029,47730,21209
24995,47695,21156
24960,47659,21101
24927,47627,21047
24896,47598,20994
24870,47571,20947
24849,47550,20906
24832,47533,20874
24818,47519,20848
24805,47507,20826
24794,47501,20808
24786,47498,20795
24779,47496,20785
24774,47494,20777
24770,47491,20772
24769,47486,20768
24769,47478,20764
24768,47466,20758
24766,47452,20752
24761,47442,20749
24753,47437,20747
24742,47431,20740
24730,47425,20727
24720,47425,20712
24711,47428,20693
24703,47431,20668
24695,47432,20638
24687,47428,20604
24676,47418,20568
24660,47403,20528
24640,47385,20482
24618,47365,20433
24595,47343,20380
24569,47319,20326
24541,47293,20276
24514,47268,20228
24486,47244,20184
24459,47223,20142
24434,47203,20098
24408,47181,20050
24380,47157,20000
24348,47130,19949
24314,47102,19898
24281,47073,19847
24248,47046,19797
24212,47017,19744
24170,46984,19687
24130,46952,19629
24091,46920,19571
24051,46888,19510
24012,46856,19450
23976,46828,19396
23944,46805,19349
23916,46786,19308
23890,46769,19269
23864,46753,19229
23838,46733,19187
23811,46712,19146
23786,46689,19104
23758,46665,19063
23725,46637,19023
23688,46605,18978
23648,46571,18926
23609,46541,18874
23572,46514,18827
23537,46490,18784
23504,46471,18744
23476,46455,18709
23451,46442,18679
23431,46432,18655
23417,46425,18635
23404,46417,18615
23389,46407,18590
23373,46396,18562
23358,46386,18532
23342,46377,18501
23324,46366,18469
23304,46350,18435
23280,46331,18399
23254,46309,18360
23229,46289,18322
23205,46268,18287
23181,46248,18248
23156,46226,18207
23131,46205,18166
23107,46185,18129
23083,46167,18096
23060,46148,18068
23036,46129,18042
23016,46114,18017
22997,46102,17995
22978,46092,17974
22961,46083,17949
22947,46076,17919
22936,46069,17885
22922,46058,17847
22906,46046,17811
22892,46037,17776
22877,46028,17744
22860,46017,17714
22841,46003,17682
22820,45985,17649
22798,45963,17616
22775,45940,17582
22750,45918,17549
22725,45899,17516
22701,45883,17484
22679,45868,17454
22654,45853,17425
22629,45837,17399
22602,45819,17377
22576,45802,17361
22555,45789,17353
22549,45786,17359
22561,45796,17388
22593,45823,17448
22648,45874,17549
22732,45954,17702
22850,46062,17909
23000,46195,18166
23180,46353,18469
23389,46533,18811
23616,46726,19178
23849,46924,19553
24080,47119,19922
24305,47307,20278
24517,47483,20609
24709,47644,20907
24881,47789,21167
25033,47917,21387
25161,48028,21568
25264,48120,21711
25344,48193,21817
25403,48248,21893
25443,48285,21943
25467,48305,21970
25479,48313,21978
25480,48314,21970
25472,48308,21951
25457,48297,21924
25440,48282,21891
25418,48266,21856
25396,48248,21822
25372,48228,21788
25346,48206,21754
25319,48185,21723
25297,48164,21695
25282,48148,21672
25273,48140,21658
25267,48138,21650
25266,48142,21646
25269,48150,21645
25273,48158,21647
25279,48167,21654
25285,48174,21662
25289,48178,21667
25291,48178,21671
25293,48175,21675
25297,48170,21676
25301,48163,21671
25302,48155,21663
25299,48147,21655
25292,48138,21645
25280,48129,21631
25265,48120,21614
25245,48107,21589
25223,48092,21555
25199,48073,21513
25170,48053,21465
25138,48031,21414
25104,48004,21360
25072,47975,21304
25043,47947,21251
25018,47920,21202
24995,47894,21158
24976,47873,21121
24962,47858,21089
24950,47849,21061
24940,47843,21036
24933,47836,21016
24929,47831,21002
24928,47830,20993
24925,47831,20986
24924,47834,20978
24926,47839,20971
24930,47844,20964
24935,47846,20958
24940,47845,20952
24943,47843,20944
24943,47840,20933
24941,47835,20920
24937,47827,20900
24929,47813,20876
24919,47796,20852
24906,47776,20827
24888,47756,20797
24865,47736,20763
24839,47717,20727
24813,47701,20690
24785,47684,20652
24756,47667,20611
24729,47646,20568
24702,47623,20521
24673,47598,20469
24641,47569,20412
24606,47538,20351
24572,47508,20286
24541,47481,20220
24511,47458,20156
24482,47433,20093
24451,47404,20031
24416,47372,19969
24376,47338,19909
24338,47308,19853
24304,47281,19802
24270,47256,19752
24237,47232,19701
24205,47206,19648
24174,47180,19597
24147,47154,19550
24122,47132,19508
24099,47116,19470
24078,47106,19432
24061,47097,19394
24045,47085,19356
24028,47068,19318
24011,47046,19277
23992,47025,19238
23971,47005,19201
23948,46985,19164
23924,46965,19123
23896,46943,19077
23866,46920,19030
23838,46898,18986
23809,46877,18943
23779,46854,18901
23747,46832,18861
23715,46813,18822
23684,46796,18783
23653,46780,18746
23625,46768,18714
23602,46756,18686
23586,46745,18662
23571,46735,18640
23558,46722,18620
23547,46709,18600
23533,46696,18574
23513,46681,18543
23492,46665,18509
23472,46648,18475
23453,46629,18442
23434,46610,18409
23415,46590,18375
23394,46572,18341
23370,46555,18307
23345,46538,18274
23318,46520,18241
23290,46498,18206
23262,46475,18168
23234,46453,18130
23208,46432,18092
23185,46412,18057
23163,46394,18024
23142,46377,17994
23123,46364,17969
23109,46354,17946
23099,46347,17923
23093,46345,17901
23088,46347,17879
23079,46346,17857
23066,46340,17833
23050,46330,17806
23031,46318,17777
23013,46303,17745
22995,46285,17713
22975,46264,17680
22953,46243,17645
22932,46222,17605
22912,46202,17567
22891,46183,17534
22869,46168,17509
22851,46157,17498
22842,46155,17506
22849,46171,17540
22879,46205,17607
22933,46262,17714
23016,46343,17867
23131,46448,18068
23280,46576,18315
23460,46725,18603
23665,46892,18927
23886,47074,19278
24118,47267,19642
24351,47463,20005
24575,47654,20356
24782,47832,20685
24971,47992,20983
25138,48133,21246
25279,48256,21470
25393,48360,21656
25485,48445,21803
25556,48509,21914
25606,48553,21991
25641,48583,22038
25663,48603,22062
25674,48613,22065
25673,48613,22049
25661,48605,22018
25640,48590,21977
25611,48568,21929
25576,48543,21877
25541,48518,21825
25508,48492,21777
25476,48466,21731
25446,48441,21689
25421,48417,21651
25398,48395,21615
25377,48375,21583
25357,48359,21558
25339,48347,21540
25324,48341,21526
25311,48338,21513
25300,48336,21500
25292,48334,21489
25285,48332,21480
25277,48329,21474
25271,48324,21470
25266,48320,21466
25258,48315,21458
25249,48308,21448
25238,48295,21432
25222,48277,21410
25200,48258,21383
25174,48237,21350
25146,48214,21312
25119,48190,21270
25095,48171,21225
25073,48154,21177
25050,48137,21129
25024,48118,21081
24995,48097,21034
24965,48072,20989
24938,48045,20946
24915,48020,20904
24895,47996,20865
24873,47975,20829
24852,47958,20797
24834,47945,20770
24818,47932,20750
24807,47923,20735
24801,47919,20726
24798,47916,20724
24797,47916,20728
24799,47919,20731
24803,47925,20731
24809,47930,20725
24817,47936,20714
24825,47939,20701
24830,47940,20687
24828,47938,20671
24821,47933,20651
24813,47925,20626
24800,47912,20595
24779,47893,20557
24752,47870,20514
24719,47844,20464
24682,47816,20409
24641,47789,20350
24598,47761,20289
24555,47734,20229
24514,47708,20169
24472,47679,20106
24429,47647,20043
24388,47615,19981
24349,47582,19921
24309,47548,19863
24272,47513,19806
24237,47480,19749
24206,47451,19691
24175,47427,19634
24143,47404,19579
24106,47380,19526
24067,47355,19472
24027,47329,19419
23990,47305,19368
23955,47282,19317
23921,47258,19266
23887,47232,19214
23854,47206,19162
23822,47182,19112
23790,47159,19064
23758,47136,19018
23730,47113,18974
23704,47093,18931
23677,47078,18891
23654,47063,18856
23634,47048,18823
23617,47035,18794
23603,47026,18768
23592,47021,18745
23584,47016,18724
23575,47010,18704
23565,47001,18683
23554,46992,18658
23542,46983,18630
23528,46969,18599
23512,46953,18568
23494,46935,18540
23475,46917,18516
23458,46899,18491
23441,46882,18464
23423,46864,18436
23406,46845,18406
23390,46827,18375
23373,46811,18345
23355,46798,18321
23335,46787,18298
23314,46773,18272
23290,46757,18243
23263,46739,18210
23237,46721,18174
23211,46703,18138
23190,46685,18104
23174,46672,18076
23158,46662,18054
23143,46654,18036
23127,46645,18016
23109,46634,17991
23090,46623,17967
23074,46613,17945
23062,46603,17923
23053,46592,17901
23044,46583,17879
23033,46575,17857
23014,46563,17832
22990,46547,17800
22963,46528,17761
22936,46507,17720
22911,46489,17687
22892,46478,17666
22884,46475,17660
22891,46485,17678
22919,46513,17729
22972,46563,17821
23049,46637,17958
23156,46733,18143
23291,46848,18374
23451,46983,18647
23630,47134,18950
23825,47299,19278
24027,47474,19620
24230,47653,19962
24428,47827,20291
24615,47992,20598
24790,48145,20880
24950,48286,21132
25094,48412,21352
25216,48520,21538
25317,48610,21689
25396,48679,21801
25452,48725,21878
25488,48752,21922
25507,48764,21940
25510,48760,21936
25501,48745,21915
25481,48724,21878
25454,48699,21829
25420,48670,21772
25382,48636,21711
25340,48602,21648
25297,48568,21586
25254,48532,21526
25210,48498,21467
25165,48465,21409
25119,48436,21352
25073,48409,21300
25029,48386,21254
24992,48363,21216
24962,48340,21182
24936,48320,21151
24915,48304,21122
24900,48290,21095
24889,48278,21069
24881,48265,21043
24872,48252,21016
24861,48239,20987
24845,48223,20951
24823,48202,20908
24795,48179,20862
24765,48157,20814
24734,48135,20766
24704,48117,20717
24675,48099,20668
24650,48077,20617
24626,48053,20562
24601,48028,20503
24578,48004,20445
24556,47979,20392
24538,47955,20343
24523,47935,20303
24510,47920,20271
24497,47907,20248
24486,47897,20233
24475,47890,20224
24467,47885,20217
24463,47882,20215
24463,47881,20218
24465,47881,20224
24467,47883,20233
24467,47886,20242
24467,47890,20247
24467,47895,20247
24466,47901,20245
24462,47904,20240
24457,47904,20231
24451,47901,20217
24439,47896,20201
24423,47888,20181
24406,47879,20158
24388,47869,20129
24367,47854,20094
24344,47834,20054
24321,47812,20012
24295,47790,19967
24266,47768,19918
24236,47745,19863
24207,47722,19804
24176,47700,19744
24144,47675,19683
24109,47648,19621
24074,47620,19560
24038,47593,19504
24001,47566,19448
23964,47543,19390
23924,47521,19327
23883,47500,19264
23844,47479,19204
23807,47453,19145
23771,47425,19089
23739,47397,19038
23709,47372,18991
23680,47346,18950
23651,47322,18913
23622,47297,18877
23592,47272,18841
23563,47246,18801
23538,47223,18758
23515,47201,18715
23496,47181,18675
23476,47159,18641
23456,47135,18611
23435,47116,18582
23411,47100,18555
23383,47084,18529
23355,47066,18504
23330,47052,18480
23308,47041,18456
23286,47032,18433
23266,47025,18409
23247,47018,18386
23232,47013,18365
23222,47009,18345
23213,47003,18325
23202,46996,18304
23193,46991,18283
23186,46986,18262
23180,46979,18241
23173,46970,18219
23165,46962,18197
23157,46954,18177
23148,46946,18154
23135,46940,18128
23120,46935,18101
23105,46929,18077
23090,46923,18054
23075,46915,18031
23061,46905,18007
23049,46891,17982
23038,46876,17959
23024,46859,17936
23006,46841,17913
22986,46821,17888
22965,46799,17863
22944,46777,17842
22927,46760,17828
22920,46753,17830
22929,46758,17860
22956,46781,17922
23007,46827,18023
23087,46897,18168
23196,46992,18361
23336,47112,18600
23503,47255,18882
23693,47416,19197
23900,47591,19534
24114,47772,19879
24327,47958,20223
24538,48139,20554
24739,48309,20861
24920,48464,21138
25080,48601,21382
25217,48720,21590
25330,48816,21758
25419,48891,21890
25485,48944,21988
25527,48977,22053
25546,48995,22090
25549,49002,22102
25540,48998,22093
25523,48985,22069
25497,48965,22033
25463,48940,21989
25426,48910,21938
25387,48879,21884
25349,48847,21829
25313,48816,21779
25277,48788,21730
25244,48762,21683
25216,48739,21639
25194,48717,21598
25171,48697,21561
25146,48681,21531
25124,48669,21506
25108,48659,21484
25095,48652,21464
25088,48647,21447
25083,48643,21430
25079,48640,21414
25074,48634,21398
25065,48624,21382
25055,48613,21363
25044,48600,21343
25031,48584,21320
25015,48562,21288
24993,48539,21249
24964,48514,21204
24931,48489,21154
24895,48462,21101
24858,48432,21046
24821,48398,20989
24785,48364,20932
24751,48333,20876
24719,48306,20821
24688,48283,20768
24658,48261,20717
24630,48240,20669
24607,48223,20627
24589,48210,20593
24574,48201,20571
24563,48193,20556
24557,48185,20546
24554,48176,20537
24554,48168,20530
24553,48164,20526
24551,48160,20524
24551,48159,20522
24552,48159,20521
24553,48159,20522
24558,48161,20526
24562,48166,20528
24564,48169,20526
24561,48169,20516
24551,48164,20498
24532,48156,20474
24508,48144,20444
24481,48128,20408
24454,48109,20366
24423,48085,20318
24388,48057,20263
24352,48028,20203
24317,47996,20139
24283,47964,20075
24250,47931,20012
24218,47897,19950
24186,47864,19889
24154,47834,19828
24119,47805,19767
24081,47775,19705
24040,47746,19643
23999,47720,19582
23957,47693,19520
23918,47667,19461
23880,47642,19405
23845,47619,19353
23814,47595,19299
23784,47572,19244
23755,47549,19192
23728,47527,19144
23701,47503,19098
23674,47478,19056
23646,47452,19012
23618,47424,18967
23589,47397,18924
23565,47372,18884
23546,47352,18848
23530,47336,18813
23513,47320,18780
23496,47304,18750
23481,47289,18724
23466,47276,18698
23453,47266,18673
23442,47263,18650
23434,47262,18627
23427,47258,18603
23419,47249,18580
23409,47238,18558
23396,47223,18531
23382,47208,18504
23369,47194,18480
23353,47179,18458
23336,47167,18438
23316,47158,18421
23294,47152,18405
23270,47147,18386
23248,47139,18363
23230,47132,18341
23219,47127,18320
23211,47124,18300
23207,47120,18279
23204,47115,18257
23198,47109,18233
23189,47099,18207
23176,47086,18183
23162,47075,18160
23148,47064,18140
23133,47050,18121
23114,47035,18103
23092,47021,18084
23067,47006,18065
23043,46989,18049
23026,46976,18046
23024,46975,18065
23041,46991,18119
23087,47030,18215
23164,47097,18360
23274,47193,18555
23410,47315,18799
23571,47458,19087
23755,47621,19410
23956,47798,19753
24168,47982,20107
24380,48166,20460
24583,48342,20798
24771,48505,21108
24943,48655,21387
25096,48792,21633
25228,48909,21844
25338,49005,22017
25426,49078,22153
25494,49131,22255
25542,49169,22326
25573,49195,22368
25590,49211,22389
25594,49215,22393
25588,49209,22382
25575,49196,22355
25558,49178,22315
25537,49160,22269
25511,49140,22221
25481,49118,22172
25450,49094,22121
25420,49069,22073
25394,49044,22030
25370,49018,21989
25345,48993,21950
25321,48972,21915
25304,48956,21885
25290,48943,21857
25276,48929,21832
25265,48915,21809
25256,48902,21788
25249,48892,21768
25242,48885,21750
25233,48879,21734
25223,48874,21722
25215,48868,21712
25206,48862,21702
25194,48854,21691
25178,48843,21675
25158,48827,21648
25138,48807,21612
25116,48785,21569
25090,48764,21522
25063,48747,21471
25035,48727,21417
25007,48703,21360
24980,48676,21302
24948,48644,21247
24912,48613,21195
24876,48584,21147
24842,48558,21102
24807,48534,21058
24775,48511,21017
24745,48486,20977
24719,48461,20940
24695,48438,20907
24676,48422,20878
24665,48411,20854
24659,48406,20832
24658,48404,20816
24660,48402,20803
24659,48396,20794
24657,48385,20785
24654,48374,20775
24648,48363,20760
24637,48348,20741
24624,48329,20719
24609,48310,20696
24594,48294,20669
24579,48281,20641
24562,48269,20609
24542,48258,20571
24519,48246,20529
24494,48231,20484
24468,48213,20439
24441,48195,20392
24410,48176,20343
24378,48156,20292
24346,48132,20237
24310,48107,20177
24272,48080,20116
24234,48053,20055
24197,48026,19994
24164,47998,19934
24133,47970,19876
24104,47941,19817
24081,47914,19756
24062,47891,19698
24043,47870,19643
24024,47853,19590
24004,47837,19540
23985,47825,19495
23967,47814,19454
23951,47803,19415
23935,47787,19375
23921,47770,19336
23906,47753,19301
23891,47734,19265
23872,47712,19226
23851,47688,19189
23829,47665,19155
23805,47646,19122
23783,47629,19089
23764,47614,19057
23746,47599,19027
23728,47586,19000
23711,47574,18977
23696,47561,18955
23680,47544,18931
23665,47525,18905
23651,47507,18880
23640,47491,18858
23630,47477,18841
23621,47466,18826
23614,47457,18814
23605,47451,18802
23591,47445,18789
23576,47441,18774
23561,47440,18756
23543,47441,18735
23523,47438,18710
23501,47431,18683
23481,47418,18654
23465,47403,18626
23449,47387,18600
23434,47372,18575
23420,47358,18549
23408,47345,18526
23395,47331,18500
23378,47314,18469
23359,47297,18436
23340,47281,18404
23322,47265,18371
23307,47247,18335
23296,47229,18301
23286,47214,18268
23272,47200,18238
23257,47186,18213
23247,47174,18199
23248,47169,18202
23261,47178,18230
23291,47207,18291
23343,47257,18394
23424,47330,18545
23539,47426,18747
23685,47547,18993
23861,47693,19280
24061,47862,19606
24280,48049,19963
24511,48248,20339
24745,48450,20713
24975,48645,21069
25193,48827,21399
25394,48993,21698
25578,49143,21958
25740,49275,22181
25877,49387,22370
25989,49477,22527
26074,49549,22646
26132,49602,22725
26170,49635,22773
26190,49651,22796
26197,49654,22799
26193,49650,22788
26182,49640,22764
26164,49625,22730
26142,49605,22688
26116,49582,22642
26088,49557,22594
26060,49533,22549
26034,49511,22510
26010,49488,22475
25989,49466,22442
25972,49447,22412
25957,49432,22385
25946,49422,22361
25942,49418,22343
25940,49415,22329
25937,49413,22319
25934,49409,22312
25930,49406,22305
25925,49403,22296
25918,49400,22286
25909,49396,22274
25899,49390,22262
25890,49383,22250
25880,49374,22239
25868,49362,22227
25853,49345,22212
25837,49324,22192
25816,49300,22167
25792,49274,22136
25764,49251,22102
25734,49230,22062
25704,49210,22016
25677,49188,21965
25652,49169,21910
25629,49149,21854
25605,49126,21798
25580,49100,21743
25555,49075,21691
25530,49048,21642
25503,49019,21592
25475,48991,21542
25446,48967,21494
25416,48947,21452
25386,48927,21414
25358,48908,21377
25332,48889,21343
25309,48871,21312
25288,48852,21285
25268,48832,21259
25251,48813,21231
25237,48796,21204
25225,48779,21178
25209,48764,21158
25192,48750,21142
25174,48738,21126
25155,48726,21103
25135,48713,21076
25111,48696,21044
25083,48675,21008
25053,48654,20967
25023,48634,20926
24992,48615,20885
24963,48597,20841
24936,48577,20794
24912,48557,20744
24887,48536,20690
24862,48512,20632
24836,48485,20570
24808,48454,20504
24778,48422,20438
24742,48391,20371
24701,48361,20303
24657,48332,20237
24613,48305,20174
24572,48280,20115
24535,48255,20057
24501,48229,19997
24464,48201,19936
24426,48175,19879
24387,48150,19825
24353,48125,19774
24322,48101,19726
24295,48077,19682
24271,48058,19643
24250,48043,19606
24230,48028,19572
24209,48012,19538
24191,47994,19502
24175,47975,19464
24161,47958,19429
24149,47944,19397
24139,47930,19365
24128,47917,19333
24118,47910,19304
24106,47905,19276
24095,47897,19248
24086,47887,19220
24079,47879,19193
24072,47872,19166
24063,47864,19137
24049,47855,19107
24032,47844,19075
24012,47829,19042
23989,47808,19009
23962,47784,18975
23935,47760,18940
23910,47741,18908
23887,47726,18882
23865,47714,18861
23848,47704,18842
23836,47697,18821
23828,47692,18801
23822,47687,18784
23816,47680,18770
23810,47673,18758
23802,47666,18746
23791,47659,18732
23779,47649,18715
23767,47637,18690
23753,47624,18660
23736,47609,18630
23715,47592,18602
23693,47573,18573
23669,47551,18542
23645,47528,18511
23618,47505,18480
23590,47485,18446
23560,47466,18410
23532,47446,18373
23505,47426,18335
23479,47408,18301
23455,47392,18273
23438,47380,18249
23426,47370,18232
23418,47365,18227
23416,47368,18238
23425,47380,18266
23449,47403,18318
23492,47443,18401
23557,47501,18524
23652,47585,18694
23778,47696,18914
23933,47831,19183
24113,47987,19494
24315,48159,19840
24534,48347,20210
24763,48543,20590
24993,48739,20966
25216,48926,21324
25421,49100,21652
25607,49260,21945
25769,49401,22203
25907,49521,22424
26021,49617,22609
26111,49691,22756
26179,49746,22865
26228,49784,22938
26261,49808,22978
26280,49822,22995
26288,49829,22995
26286,49826,22978
26275,49815,22948
26259,49801,22911
26239,49785,22871
26218,49768,22827
26200,49754,22783
26183,49742,22741
26165,49730,22703
26150,49718,22667
26136,49705,22632
26122,49692,22598
26110,49680,22569
26102,49668,22545
26097,49655,22527
26091,49643,22513
26088,49633,22500
26085,49625,22486
26081,49621,22470
26078,49620,22455
26079,49622,22444
26082,49625,22434
26085,49629,22425
26086,49632,22416
26084,49631,22407
26081,49625,22398
26076,49616,22385
26071,49601,22365
26064,49583,22339
26050,49563,22308
26032,49547,22272
26013,49534,22232
25993,49521,22189
25970,49507,22142
25943,49487,22095
25914,49462,22046
25883,49433,21996
25851,49403,21945
25818,49374,21893
25787,49346,21840
25759,49319,21789
25733,49295,21742
25707,49274,21703
25683,49256,21670
25662,49241,21642
25641,49228,21619
25620,49220,21602
25601,49211,21590
25584,49204,21580
25568,49200,21571
25556,49195,21562
25545,49189,21553
25537,49182,21542
25531,49175,21529
25524,49168,21514
25512,49159,21494
25496,49147,21468
25479,49134,21438
25466,49121,21403
25459,49108,21363
25457,49096,21318
25452,49083,21272
25438,49067,21225
25411,49045,21173
25376,49020,21119
25338,48990,21062
25297,48957,21000
25249,48921,20936
25197,48883,20873
25148,48847,20810
25107,48813,20749
25071,48781,20691
25039,48749,20632
25009,48717,20573
24984,48689,20519
24962,48664,20467
24938,48640,20413
24914,48617,20358
24888,48597,20304
24864,48578,20250
24841,48560,20196
24819,48541,20143
24796,48518,20093
24771,48495,20044
24742,48474,19998
24710,48455,19953
24678,48434,19907
24646,48411,19860
24618,48389,19813
24591,48368,19771
24566,48348,19735
24543,48332,19707
24525,48322,19685
24508,48313,19663
24491,48302,19639
24475,48287,19613
24461,48269,19586
24447,48251,19561
24433,48233,19536
24419,48214,19508
24402,48195,19474
24380,48176,19437
24353,48159,19398
24326,48142,19361
24301,48127,19328
24280,48113,19301
24262,48103,19279
24246,48095,19257
24231,48087,19235
24218,48080,19215
24205,48072,19198
24189,48062,19177
24172,48049,19152
24154,48035,19125
24132,48019,19095
24105,48000,19065
24073,47978,19032
24041,47953,18995
24008,47924,18955
23979,47897,18916
23955,47877,18879
23934,47864,18847
23915,47857,18820
23900,47855,18797
23889,47854,18776
23877,47848,18752
23863,47837,18725
23845,47824,18697
23821,47807,18671
23793,47787,18648
23764,47766,18625
23737,47747,18602
23715,47731,18581
23697,47716,18561
23682,47705,18540
23671,47699,18519
23667,47697,18499
23669,47696,18481
23676,47699,18474
23692,47709,18488
23723,47735,18532
23775,47782,18615
23852,47851,18741
23960,47945,18918
24100,48062,19147
24267,48197,19420
24457,48350,19731
24667,48522,20074
24890,48708,20440
25120,48900,20814
25346,49094,21184
25564,49282,21539
25769,49456,21867
25954,49611,22161
26117,49746,22416
26255,49866,22635
26370,49971,22816
26465,50057,22956
26542,50123,23058
26602,50170,23122
26643,50200,23153
26665,50213,23153
26669,50210,23129
26661,50196,23087
26643,50173,23037
26616,50144,22983
26582,50112,22925
26546,50078,22864
26506,50045,22807
26466,50011,22754
26429,49977,22707
26397,49946,22664
26372,49922,22627
26351,49906,22593
26334,49894,22565
26321,49884,22541
26311,49876,22520
26301,49869,22500
26291,49862,22477
26281,49854,22455
26270,49846,22436
26260,49838,22423
26250,49829,22414
26238,49820,22405
26221,49810,22394
26203,49797,22376
26181,49779,22353
26154,49756,22326
26121,49732,22298
26084,49709,22267
26045,49688,22229
26007,49664,22183
25969,49637,22132
25933,49609,22078
25898,49582,22024
25864,49556,21969
25832,49532,21914
25803,49508,21857
25774,49482,21802
25748,49455,21749
25722,49429,21701
25698,49404,21658
25676,49381,21620
25656,49363,21590
25640,49351,21566
25629,49344,21550
25622,49341,21541
25620,49341,21535
25619,49341,21532
25616,49339,21528
25611,49335,21521
25604,49328,21511
25598,49318,21499
25591,49304,21480
25578,49284,21454
25560,49263,21425
25539,49242,21392
25514,49221,21355
25487,49201,21313
25458,49182,21268
25427,49162,21221
25397,49143,21176
25370,49130,21130
25344,49121,21086
25321,49113,21043
25300,49106,21002
25279,49097,20962
25257,49084,20920
25235,49067,20872
25209,49042,20816
25178,49010,20752
25141,48971,20683
25099,48927,20613
25054,48882,20544
25011,48837,20476
24972,48795,20412
24937,48756,20350
24904,48720,20291
24873,48691,20237
24841,48666,20187
24808,48643,20139
24777,48621,20094
24747,48601,20051
24718,48584,20010
24691,48570,19970
24669,48558,19933
24650,48546,19898
24632,48535,19862
24615,48525,19826
24600,48514,19788
24585,48502,19750
24569,48488,19715
24550,48473,19683
24529,48459,19654
24505,48446,19626
24479,48435,19600
24452,48425,19577
24428,48413,19556
24408,48400,19535
24394,48388,19514
24383,48377,19492
24373,48368,19470
24363,48359,19447
24353,48348,19423
24343,48335,19399
24331,48325,19378
24319,48316,19360
24307,48306,19342
24292,48296,19321
24276,48284,19297
24261,48271,19269
24246,48260,19240
24228,48248,19212
24205,48234,19183
24178,48218,19151
24148,48199,19119
24119,48178,19086
24094,48157,19055
24071,48137,19026
24050,48120,19000
24031,48104,18975
24013,48091,18951
23994,48081,18929
23974,48075,18908
23954,48067,18890
23935,48059,18875
23916,48051,18861
23900,48045,18851
23892,48045,18849
23897,48055,18866
23918,48079,18912
23960,48120,18993
24030,48179,19114
24131,48261,19279
24259,48366,19490
24412,48493,19744
24589,48638,20035
24784,48800,20355
24992,48975,20694
25204,49156,21040
25410,49333,21379
25605,49500,21695
25784,49656,21980
25944,49797,22231
26086,49920,22447
26211,50024,22629
26314,50108,22774
26395,50174,22887
26457,50223,22969
26499,50255,23020
26522,50271,23044
26528,50275,23047
26518,50267,23031
26495,50247,22996
26463,50218,22946
26423,50182,22885
26376,50141,22816
26323,50096,22741
26268,50051,22662
26216,50006,22585
26166,49963,22512
26120,49922,22441
26078,49887,22376
26039,49855,22317
26006,49827,22264
25978,49803,22216
25954,49782,22173
25932,49763,22132
25910,49744,22092
25888,49725,22050
25864,49705,22008
25839,49681,21964
25810,49656,21915
25775,49627,21860
25737,49593,21800
25697,49556,21740
25655,49520,21682
25610,49486,21624
25563,49454,21566
25517,49422,21511
25477,49391,21457
25445,49365,21404
25423,49349,21355
25408,49338,21310
25399,49331,21270
25393,49328,21236
25387,49326,21207
25382,49321,21181
25378,49312,21157
25375,49301,21138
25371,49294,21126
25365,49287,21118
25357,49282,21114
25350,49278,21115
25344,49276,21117
25339,49275,21119
25335,49276,21119
25332,49277,21119
25329,49280,21120
25328,49281,21120
25329,49281,21119
25329,49281,21117
25327,49279,21113
25324,49277,21107
25321,49272,21094
25320,49266,21074
25317,49258,21047
25311,49249,21017
25303,49239,20983
25290,49226,20944
25271,49209,20900
25247,49188,20849
25219,49162,20795
25187,49135,20741
25151,49109,20688
25117,49086,20635
25083,49063,20584
25048,49038,20536
25015,49013,20489
24984,48991,20441
24959,48972,20394
24940,48957,20347
24924,48946,20300
24907,48935,20253
24889,48921,20204
24867,48903,20152
24843,48882,20100
24815,48858,20051
24785,48835,20006
24753,48811,19964
24719,48785,19922
24685,48758,19880
24651,48731,19838
24618,48704,19798
24588,48678,19761
24561,48656,19727
24539,48638,19697
24521,48624,19670
24505,48612,19647
24491,48601,19626
24478,48589,19607
24469,48579,19587
24464,48573,19568
24461,48572,19553
24458,48573,19542
24452,48572,19530
24440,48564,19514
24423,48552,19494
24403,48537,19472
24382,48520,19449
24358,48498,19423
24332,48474,19396
24305,48453,19368
24282,48437,19340
24264,48424,19311
24250,48413,19285
24239,48400,19261
24230,48392,19241
24223,48388,19224
24216,48389,19209
24208,48388,19196
24199,48385,19184
24189,48377,19174
24178,48364,19162
24169,48350,19147
24160,48336,19131
24150,48323,19115
24141,48314,19103
24136,48309,19099
24138,48311,19109
24152,48325,19138
24183,48356,19195
24239,48407,19293
24324,48483,19441
24440,48584,19641
24582,48708,19886
24749,48852,20169
24935,49012,20485
25136,49183,20825
25345,49361,21179
25554,49540,21530
25755,49714,21865
25940,49877,22173
26109,50026,22449
26259,50156,22688
26390,50267,22890
26499,50358,23056
26584,50429,23186
26646,50481,23281
26687,50515,23343
26709,50533,23377
26716,50539,23388
26710,50534,23379
26695,50520,23352
26673,50500,23313
26647,50478,23266
26619,50453,23209
26588,50426,23146
26555,50399,23082
26521,50372,23018
26488,50345,22953
26454,50320,22888
26419,50294,22827
26383,50263,22773
26347,50230,22721
26310,50193,22672
26273,50159,22624
26236,50128,22576
26199,50101,22529
26163,50074,22484
26129,50048,22446
26098,50020,22412
26066,49989,22380
26037,49959,22346
26012,49934,22311
25993,49914,22276
25975,49899,22246
25959,49886,22217
25941,49874,22184
25920,49859,22145
25897,49841,22099
25874,49823,22050
25851,49807,21998
25828,49791,21946
25804,49773,21895
25779,49754,21845
25752,49732,21796
25724,49707,21749
25699,49681,21704
25678,49659,21661
25662,49642,21626
25650,49630,21599
25641,49622,21577
25636,49613,21557
25632,49605,21543
25630,49602,21533
25632,49604,21531
25636,49609,21532
25642,49615,21534
25648,49621,21536
25652,49626,21540
25654,49630,21543
25650,49631,21540
25641,49625,21528
25629,49614,21509
25614,49601,21486
25596,49588,21459
25576,49575,21426
25558,49559,21389
25541,49542,21350
25525,49526,21311
25507,49513,21272
25491,49501,21231
25475,49485,21188
25460,49466,21142
25441,49444,21091
25415,49425,21035
25386,49406,20977
25355,49386,20917
25322,49363,20859
25288,49340,20806
25254,49318,20757
25221,49295,20707
25187,49271,20658
25151,49246,20610
25116,49219,20563
25084,49191,20515
25056,49165,20470
25028,49141,20429
25005,49118,20391
24986,49099,20355
24973,49083,20321
24963,49068,20288
24950,49052,20255
24932,49036,20222
24907,49017,20188
24877,48999,20153
24845,48977,20115
24810,48949,20073
24771,48921,20030
24733,48896,19992
24700,48876,19960
24673,48858,19933
24654,48844,19908
24643,48833,19888
24637,48823,19869
24634,48813,19849
24633,48808,19831
24631,48808,19816
24624,48807,19803
24611,48802,19791
24597,48791,19779
24582,48777,19767
24566,48763,19753
24548,48749,19739
24529,48736,19722
24509,48723,19700
24489,48713,19679
24470,48703,19658
24452,48693,19636
24434,48684,19612
24419,48677,19587
24404,48669,19559
24391,48659,19530
24376,48644,19498
24359,48625,19466
24338,48603,19438
24316,48581,19413
24292,48558,19393
24270,48539,19378
24256,48528,19372
24254,48526,19380
24266,48538,19410
24294,48568,19472
24345,48620,19573
24424,48696,19719
24533,48799,19912
24674,48925,20152
24846,49070,20435
25044,49232,20753
25258,49405,21095
25478,49583,21451
25697,49761,21806
25910,49936,22152
26110,50103,22479
26294,50260,22778
26459,50403,23044
26605,50532,23275
26729,50643,23468
26831,50734,23621
26910,50805,23739
26969,50856,23822
27007,50890,23871
27028,50911,23892
27037,50919,23894
27035,50915,23881
27024,50902,23855
27007,50885,23820
26983,50864,23775
26955,50838,23723
26923,50808,23669
26890,50776,23616
26858,50744,23563
26826,50714,23510
26798,50683,23458
26774,50655,23412
26755,50629,23370
26739,50607,23334
26726,50590,23306
26716,50579,23284
26708,50572,23264
26703,50569,23247
26699,50567,23232
26696,50566,23219
26694,50567,23207
26693,50566,23194
26691,50563,23179
26688,50556,23161
26683,50549,23144
26675,50541,23126
26662,50528,23104
26647,50511,23074
26631,50493,23037
26612,50473,22993
26590,50450,22947
26563,50425,22900
26533,50399,22851
26504,50374,22803
26476,50351,22757
26449,50329,22713
26423,50307,22669
26397,50287,22628
26372,50269,22588
26349,50252,22550
26328,50233,22514
26312,50215,22483
26299,50200,22453
26288,50188,22427
26278,50179,22406
26270,50173,22388
26266,50169,22375
26267,50165,22366
26269,50158,22357
26268,50153,22347
26268,50149,22336
26265,50146,22325
26260,50141,22314
26253,50133,22301
26247,50124,22284
26237,50116,22264
26220,50105,22241
26200,50089,22215
26178,50073,22185
26158,50058,22150
26139,50043,22109
26115,50023,22063
26087,49999,22013
26057,49973,21963
26027,49948,21912
25998,49924,21859
25971,49900,21804
25946,49878,21747
25920,49855,21688
25890,49830,21627
25861,49803,21566
25830,49774,21505
25795,49743,21444
25756,49711,21386
25717,49676,21329
25681,49640,21270
25649,49608,21211
25619,49582,21154
25590,49559,21100
25564,49538,21051
25540,49516,21007
25520,49494,20965
25502,49471,20924
25486,49448,20885
25471,49424,20848
25456,49401,20812
25441,49382,20776
25425,49364,20739
25407,49347,20701
25388,49327,20663
25367,49306,20624
25343,49284,20582
25319,49263,20541
25293,49242,20502
25268,49221,20466
25240,49201,20433
25210,49184,20403
25177,49170,20377
25142,49157,20353
25110,49142,20328
25081,49129,20304
25059,49117,20281
25041,49105,20258
25022,49092,20236
25002,49079,20214
24979,49065,20190
24954,49047,20160
24929,49029,20130
24905,49009,20101
24882,48992,20070
24860,48979,20042
24842,48966,20015
24828,48952,19989
24817,48940,19967
24806,48930,19946
24793,48921,19926
24781,48915,19909
24770,48910,19891
24760,48901,19870
24748,48885,19846
24732,48868,19820
24712,48851,19791
24688,48835,19759
24664,48822,19728
24642,48811,19700
24624,48803,19677
24613,48801,19666
24617,48806,19675
24642,48826,19713
24691,48867,19790
24768,48933,19915
24873,49024,20093
25007,49144,20325
25171,49291,20607
25365,49460,20933
25581,49646,21289
25809,49843,21663
26042,50044,22039
26269,50239,22406
26485,50423,22752
26687,50594,23068
26871,50750,23348
27036,50889,23595
27178,51006,23808
27296,51102,23984
27393,51177,24122
27469,51233,24223
27523,51273,24289
27554,51297,24327
27568,51306,24342
27568,51303,24341
27559,51293,24324
27541,51281,24293
27517,51263,24252
27488,51240,24206
27456,51213,24157
27422,51184,24103
27384,51150,24047
27349,51114,23991
27318,51081,23940
27290,51049,23894
27265,51020,23852
27244,50994,23816
27228,50972,23785
27217,50955,23758
27205,50941,23734
27192,50931,23714
27180,50921,23696
27171,50911,23680
27165,50904,23665
27161,50902,23654
27155,50902,23647
27146,50902,23640
27134,50905,23630
27121,50906,23617
27106,50902,23600
27089,50895,23577
27073,50883,23550
27056,50865,23518
27036,50843,23476
27010,50817,23426
26980,50788,23369
26946,50753,23311
26911,50717,23252
26877,50681,23193
26843,50647,23134
26810,50615,23078
26776,50586,23022
26742,50561,22967
26707,50541,22921
26673,50523,22883
26643,50506,22850
26620,50490,22821
26601,50477,22794
26584,50465,22770
26572,50453,22753
26566,50446,22739
26567,50440,22728
26571,50436,22718
26577,50433,22707
26580,50429,22693
26581,50423,22678
26580,50417,22660
26578,50410,22639
26576,50403,22615
26573,50393,22589
26567,50382,22562
26559,50369,22531
26547,50355,22496
26531,50341,22457
26513,50328,22415
26494,50315,22369
26474,50301,22322
26450,50286,22277
26423,50269,22233
26394,50249,22188
26365,50226,22142
26334,50200,22092
26301,50174,22037
26266,50148,21975
26231,50120,21909
26194,50090,21844
26154,50058,21784
26110,50026,21727
26062,49995,21673
26011,49964,21620
25967,49936,21566
25932,49910,21511
25900,49884,21458
25868,49858,21406
25839,49833,21357
25814,49811,21311
25793,49790,21267
25774,49767,21224
25754,49746,21183
25736,49730,21144
25719,49713,21106
25702,49696,21071
25687,49679,21037
25676,49664,21002
25664,49650,20968
25653,49635,20935
25641,49619,20900
25629,49601,20862
25614,49582,20826
25596,49561,20793
25580,49544,20763
25564,49528,20735
25544,49513,20708
25521,49496,20683
25496,49479,20656
25469,49463,20626
25445,49448,20594
25425,49437,20562
25409,49427,20533
25395,49417,20506
25380,49407,20481
25366,49400,20458
25353,49392,20437
25336,49385,20418
25319,49377,20401
25304,49369,20383
25290,49360,20364
25278,49353,20343
25267,49344,20324
25255,49333,20307
25245,49322,20292
25233,49313,20275
25220,49306,20254
25209,49299,20229
25200,49292,20202
25192,49287,20172
25181,49281,20139
25168,49272,20104
25154,49258,20071
25139,49240,20041
25124,49223,20011
25110,49207,19983
25095,49190,19957
25079,49173,19933
25064,49156,19909
25046,49140,19884
25025,49123,19859
25003,49107,19834
24984,49094,19814
24971,49088,19807
24970,49094,19822
24990,49118,19868
25036,49164,19954
25112,49232,20090
25221,49326,20281
25366,49447,20527
25544,49592,20825
25749,49757,21166
25975,49942,21538
26212,50142,21929
26453,50346,22323
26690,50545,22704
26917,50738,23063
27128,50916,23388
27320,51072,23675
27489,51204,23919
27631,51315,24123
27743,51408,24290
27828,51481,24418
27890,51535,24511
27933,51574,24571
27963,51604,24606
27981,51623,24618
27987,51630,24613
27986,51631,24599
27982,51628,24577
27976,51621,24550
27969,51609,24518
27959,51593,24481
27943,51574,24438
27920,51552,24393
27891,51529,24345
27862,51508,24293
27836,51491,24245
27812,51473,24203
27792,51457,24168
27777,51443,24137
27766,51431,24112
27759,51422,24091
27753,51414,24071
27743,51402,24051
27731,51385,24030
27719,51368,24009
27710,51356,23989
27703,51349,23973
27695,51346,23961
27687,51343,23950
27679,51336,23937
27669,51324,23917
27655,51310,23892
27637,51294,23863
27613,51273,23827
27584,51248,23785
27551,51219,23737
27513,51186,23682
27473,51150,23625
27433,51115,23569
27397,51084,23519
27368,51059,23474
27346,51041,23433
27329,51029,23395
27315,51020,23357
27307,51014,23319
27302,51009,23285
27297,51001,23252
27291,50994,23223
27289,50989,23197
27290,50987,23176
27295,50984,23159
27304,50982,23145
27315,50981,23133
27325,50979,23123
27334,50974,23116
27339,50970,23112
27339,50966,23105
27331,50959,23097
27318,50950,23086
27302,50937,23070
27284,50924,23050
27266,50913,23029
27251,50903,23006
27238,50896,22983
27229,50888,22959
27221,50877,22931
27210,50865,22901
27196,50851,22866
27178,50834,22821
27156,50813,22768
27134,50790,22713
27109,50766,22654
27081,50738,22592
27051,50707,22527
27018,50674,22461
26982,50641,22395
26942,50606,22327
26898,50570,22257
26853,50534,22188
26806,50499,22121
26759,50467,22057
26712,50433,21999
26667,50398,21946
26624,50364,21895
26580,50332,21847
26538,50306,21802
26500,50284,21758
26464,50262,21713
26430,50235,21667
26394,50207,21621
26358,50177,21576
26323,50148,21531
26291,50122,21487
26263,50100,21446
26240,50081,21410
26223,50067,21379
26209,50058,21354
26194,50053,21333
26182,50050,21311
26171,50045,21286
26163,50035,21257
26157,50024,21226
26151,50014,21198
26145,50005,21170
26137,49996,21146
26125,49986,21124
26110,49975,21100
26095,49962,21076
26079,49947,21050
26060,49932,21023
26041,49916,20994
26021,49898,20966
25998,49877,20938
25973,49857,20911
25947,49837,20881
25920,49817,20847
25894,49798,20812
25872,49780,20778
25851,49763,20745
25833,49747,20713
25820,49733,20683
25807,49719,20657
25788,49706,20631
25766,49694,20605
25741,49683,20578
25713,49671,20552
25683,49655,20528
25654,49635,20505
25628,49612,20479
25603,49589,20452
25581,49568,20425
25562,49550,20399
25548,49535,20374
25535,49524,20348
25522,49514,20321
25505,49501,20293
25487,49487,20263
25471,49473,20233
25455,49460,20204
25437,49447,20177
25416,49433,20148
25393,49418,20117
25369,49404,20089
25344,49390,20064
25320,49375,20041
25301,49364,20023
25290,49359,20014
25291,49361,20020
25308,49374,20049
25347,49403,20110
25409,49452,20209
25499,49523,20351
25621,49619,20541
25776,49744,20780
25959,49895,21066
26164,50066,21393
26387,50253,21752
26626,50452,22134
26869,50657,22528
27110,50861,22916
27338,51056,23280
27547,51235,23608
27734,51394,23895
27899,51533,24141
28042,51652,24348
28160,51751,24516
28253,51826,24648
28321,51881,24744
28369,51919,24809
28397,51942,24846
28405,51948,24858
28395,51940,24846
28374,51923,24817
28348,51900,24776
28323,51874,24727
28300,51848,24673
28275,51821,24617
28249,51796,24560
28224,51770,24505
28202,51745,24453
28185,51725,24405
28174,51714,24363
28167,51707,24328
28159,51701,24299
28155,51696,24276
28156,51690,24256
28160,51686,24235
28165,51682,24216
28171,51676,24199
28174,51670,24183
28174,51667,24164
28173,51667,24149
28172,51667,24137
28170,51664,24126
28166,51658,24112
28159,51647,24095
28147,51631,24072
28130,51613,24040
28107,51594,24002
28081,51573,23961
28052,51549,23919
28020,51522,23875
27986,51494,23830
27953,51466,23785
27924,51441,23741
27897,51418,23697
27871,51393,23651
27844,51370,23609
27817,51351,23572
27792,51333,23540
27771,51317,23510
27756,51306,23485
27749,51300,23468
27751,51294,23457
27759,51291,23450
27771,51290,23445
27784,51291,23442
27794,51291,23439
27800,51292,23436
27804,51292,23432
27809,51292,23425
27815,51292,23414
27822,51293,23401
27827,51296,23385
27830,51296,23368
27826,51293,23348
27813,51285,23325
27794,51275,23296
27770,51262,23261
27741,51244,23219
27708,51225,23174
27673,51202,23124
27635,51174,23069
27592,51139,23007
27548,51101,22940
27502,51060,22872
27455,51016,22804
27410,50972,22739
27370,50930,22676
27335,50895,22616
27301,50864,22557
27266,50836,22499
27232,50810,22440
27200,50783,22383
27169,50757,22327
27137,50733,22272
27106,50709,22215
27079,50685,22157
27053,50661,22100
27029,50639,22048
27005,50617,21999
26978,50596,21954
26950,50575,21909
26919,50554,21862
26886,50532,21816
26852,50511,21770
26819,50490,21727
26788,50471,21687
26762,50455,21648
26743,50442,21612
26727,50431,21577
26713,50422,21545
26703,50414,21513
26694,50402,21483
26684,50386,21456
26671,50368,21429
26656,50347,21399
26637,50323,21365
26614,50297,21328
26590,50274,21290
26566,50254,21251
26539,50236,21210
26511,50214,21167
26481,50193,21126
26452,50175,21090
26425,50158,21059
26402,50141,21031
26382,50128,21005
26367,50118,20980
26355,50111,20956
26346,50105,20933
26337,50098,20912
26329,50089,20892
26320,50081,20874
26307,50072,20856
26290,50059,20837
26273,50043,20817
26255,50027,20794
26235,50011,20770
26212,49998,20746
26189,49988,20723
26164,49978,20700
26137,49968,20678
26112,49956,20655
26088,49943,20627
26063,49927,20596
26036,49908,20563
26011,49886,20530
25987,49863,20497
25964,49844,20467
25943,49826,20440
25927,49812,20414
25916,49804,20392
25910,49800,20376
25907,49802,20371
25913,49812,20389
25936,49834,20439
25985,49875,20525
26060,49939,20653
26163,50029,20829
26296,50144,21055
26460,50283,21325
26650,50442,21632
26858,50620,21965
27080,50809,22313
27305,50998,22664
27525,51182,23006
27733,51358,23329
27925,51523,23625
28098,51669,23886
28246,51791,24107
28369,51891,24287
28466,51971,24433
28540,52031,24548
28591,52075,24632
28622,52104,24685
28636,52120,24710
28638,52123,24709
28629,52115,24685
28609,52095,24644
28579,52066,24592
28541,52033,24534
28497,51996,24470
28449,51955,24399
28400,51911,24324
28349,51866,24248
28297,51821,24170
28244,51776,24089
28193,51728,24011
28142,51680,23936
28093,51632,23863
28044,51588,23792
27998,51550,23725
27959,51520,23664
27928,51496,23610
27901,51475,23561
27876,51455,23515
27849,51431,23468
27819,51405,23418
27782,51378,23363
27742,51348,23307
27702,51315,23247
27664,51281,23186
27626,51248,23125
27587,51216,23069
27547,51185,23018
27509,51157,22970
27473,51135,22924
27442,51115,22879
27416,51098,22837
27395,51082,22798
27377,51067,22764
27361,51055,22735
27348,51043,22710
27338,51031,22692
27330,51020,22680
27324,51016,22675
27321,51017,22674
27323,51019,22677
27325,51021,22682
27326,51022,22686
27327,51024,22691
27333,51030,22698
27340,51040,22707
27345,51049,22712
27351,51055,22714
27360,51058,22716
27367,51057,22716
27369,51051,22709
27366,51040,22693
27361,51027,22670
27351,51014,22642
27335,51000,22609
27319,50986,22572
27300,50971,22531
27275,50954,22487
27249,50935,22441
27226,50918,22394
27205,50902,22348
27186,50886,22306
27165,50868,22264
27139,50850,22218
27108,50828,22167
27072,50802,22113
27032,50771,22056
26990,50739,21999
26949,50710,21943
26909,50681,21891
26870,50650,21842
26831,50620,21794
26794,50591,21744
26758,50565,21692
26724,50544,21639
26691,50524,21590
26661,50505,21547
26636,50488,21509
26613,50470,21472
26592,50452,21433
26569,50435,21395
26545,50420,21358
26521,50403,21322
26495,50385,21285
26467,50365,21247
26435,50342,21208
26403,50317,21172
26374,50291,21142
26350,50267,21116
26328,50241,21094
26306,50217,21071
26284,50196,21046
26259,50180,21021
26235,50169,20998
26215,50160,20975
26198,50154,20956
26181,50150,20938
26164,50146,20919
26153,50142,20900
26149,50140,20883
26149,50136,20865
26148,50131,20844
26145,50123,20822
26138,50113,20797
26127,50100,20771
26116,50089,20744
26103,50078,20716
26087,50065,20688
26071,50051,20663
26057,50037,20639
26045,50025,20612
26030,50012,20584
26007,49994,20556
25979,49973,20526
25947,49951,20495
25916,49929,20463
25886,49909,20434
25859,49892,20412
25836,49881,20399
25824,49877,20401
25826,49886,20422
25848,49911,20467
25893,49953,20545
25965,50016,20665
26065,50102,20828
26196,50214,21037
26354,50349,21290
26535,50497,21580
26735,50656,21896
26948,50825,22230
27167,50999,22572
27382,51175,22912
27583,51343,23234
27769,51497,23529
27933,51635,23790
28072,51757,24014
28186,51863,24202
28277,51951,24356
28349,52020,24479
28401,52071,24570
28436,52106,24629
28457,52125,24661
28468,52129,24670
28467,52121,24662
28456,52106,24637
28435,52084,24598
28406,52058,24548
28372,52027,24492
28332,51992,24428
28289,51953,24360
28245,51913,24289
28201,51872,24216
28156,51830,24139
28109,51789,24060
28063,51750,23981
28019,51713,23906
27979,51678,23834
27939,51647,23765
27899,51619,23701
27861,51594,23642
27827,51571,23587
27795,51548,23539
27766,51526,23495
27738,51504,23450
27708,51478,23401
27676,51450,23350
27644,51421,23302
27614,51390,23255
27583,51357,23206
27552,51327,23150
27522,51298,23093
27492,51271,23037
27463,51244,22980
27431,51216,22921
27399,51190,22866
27370,51168,22817
27345,51149,22775
27323,51132,22739
27304,51116,22708
27290,51105,22681
27285,51101,22662
27288,51100,22653
27294,51101,22650
27301,51103,22651
27310,51107,22656
27318,51112,22664
27325,51115,22674
27334,51118,22686
27345,51124,22696
27355,51130,22703
27363,51136,22708
27368,51140,22710
27371,51143,22708
27372,51144,22702
27373,51141,22693
27372,51136,22680
27369,51129,22662
27362,51121,22639
27352,51112,22613
27340,51099,22584
27326,51083,22553
27307,51065,22513
27283,51046,22464
27257,51027,22408
27229,51007,22349
27202,50987,22292
27174,50965,22239
27141,50943,22188
27105,50918,22139
27069,50895,22092
27034,50871,22044
26999,50845,21995
26967,50816,21944
26939,50789,21893
26912,50761,21842
26885,50734,21792
26855,50709,21740
26825,50686,21687
26793,50663,21638
26761,50640,21593
26729,50617,21551
26699,50595,21511
26673,50573,21472
26650,50552,21431
26627,50531,21391
26602,50505,21351
26576,50479,21313
26550,50456,21279
26522,50433,21246
26492,50411,21212
26463,50391,21180
26433,50372,21152
26406,50353,21125
26381,50336,21097
26357,50318,21069
26337,50303,21042
26321,50291,21017
26307,50282,20991
26296,50272,20965
26285,50262,20941
26270,50251,20921
26253,50239,20903
26238,50228,20889
26226,50218,20878
26216,50208,20868
26204,50199,20858
26190,50191,20846
26174,50187,20831
26157,50183,20810
26138,50175,20783
26117,50163,20753
26095,50147,20719
26072,50129,20684
26049,50109,20650
26031,50094,20623
26019,50085,20607
26013,50084,20603
26015,50093,20615
26031,50112,20651
26068,50145,20717
26127,50197,20823
26215,50274,20975
26339,50378,21178
26498,50509,21432
26686,50661,21730
26897,50832,22064
27121,51017,22423
27353,51210,22790
27582,51403,23151
27800,51591,23494
28004,51767,23812
28189,51927,24102
28352,52068,24355
28490,52187,24566
28602,52284,24738
28688,52363,24874
28749,52423,24976
28788,52464,25048
28810,52488,25092
28820,52497,25112
28818,52491,25110
28806,52475,25092
28785,52453,25063
28757,52425,25025
28722,52391,24976
28682,52354,24921
28642,52318,24863
28603,52286,24804
28564,52256,24747
28527,52228,24691
28492,52200,24637
28461,52172,24587
28434,52143,24538
28408,52114,24490
28383,52086,24443
28356,52058,24399
28329,52031,24358
28303,52008,24320
28279,51988,24285
28255,51970,24256
28233,51954,24229
28214,51939,24201
28197,51924,24172
28180,51910,24143
28162,51897,24113
28144,51885,24079
28127,51872,24042
28108,51858,24004
28089,51841,23962
28068,51822,23914
28043,51801,23860
28015,51778,23802
27986,51753,23744
27956,51730,23689
27928,51707,23638
27900,51684,23589
27873,51661,23543
27850,51638,23501
27831,51617,23464
27816,51598,23431
27804,51582,23399
27792,51567,23369
27781,51552,23343
27771,51541,23320
27759,51530,23302
27747,51520,23288
27738,51514,23279
27734,51512,23274
27732,51512,23272
27732,51512,23270
27731,51511,23267
27731,51508,23262
27730,51502,23254
27727,51493,23242
27723,51482,23225
27718,51470,23203
27709,51458,23177
27696,51445,23145
27679,51432,23108
27655,51417,23068
27623,51397,23025
27589,51373,22977
27558,51347,22927
27530,51320,22876
27504,51294,22824
27480,51270,22773
27453,51251,22723
27425,51235,22674
27397,51220,22623
27369,51200,22569
27339,51174,22515
27309,51143,22457
27277,51110,22397
27241,51075,22337
27204,51041,22278
27168,51009,22225
27134,50980,22174
27100,50952,22125
27066,50926,22076
27033,50903,22030
27002,50881,21985
26974,50858,21940
26948,50835,21895
26922,50812,21850
26901,50789,21806
26881,50765,21764
26858,50741,21722
26833,50718,21680
26809,50696,21637
26787,50675,21596
26766,50656,21560
26748,50640,21528
26731,50627,21500
26712,50614,21475
26693,50601,21452
26675,50589,21427
26655,50577,21401
26635,50562,21377
26615,50548,21354
26594,50536,21331
26574,50528,21309
26555,50518,21288
26540,50506,21268
26528,50494,21251
26515,50480,21234
26500,50463,21212
26485,50446,21188
26472,50427,21163
26461,50409,21137
26449,50392,21109
26435,50374,21079
26421,50357,21047
26405,50340,21015
26388,50325,20983
26371,50309,20954
26353,50294,20928
26337,50282,20912
26324,50278,20910
26321,50288,20926
26334,50315,20970
26371,50361,21050
26436,50430,21171
26535,50525,21341
26671,50649,21563
26843,50798,21833
27042,50965,22145
27262,51144,22490
27495,51332,22857
27733,51523,23233
27968,51712,23601
28189,51890,23949
28393,52056,24271
28580,52208,24565
28746,52343,24825
28885,52459,25043
29000,52554,25221
29092,52631,25361
29163,52692,25465
29216,52740,25537
29255,52779,25581
29283,52806,25604
29301,52821,25609
29311,52826,25600
29309,52821,25580
29298,52810,25553
29281,52794,25519
29260,52770,25478
29234,52739,25433
29203,52705,25385
29168,52670,25337
29134,52637,25290
29105,52607,25246
29075,52580,25203
29045,52556,25162
29019,52533,25126
28998,52515,25098
28982,52500,25075
28968,52489,25058
28958,52484,25042
28952,52482,25028
28952,52480,25016
28955,52478,25007
28962,52475,24999
28969,52472,24991
28970,52466,24978
28967,52459,24962
28960,52452,24942
28948,52440,24915
28931,52424,24883
28912,52406,24847
28889,52386,24811
28863,52364,24771
28838,52339,24727
28812,52312,24679
28787,52284,24629
28763,52257,24582
28741,52232,24537
28720,52209,24498
28699,52190,24462
28680,52174,24429
28664,52159,24397
28651,52144,24366
28642,52132,24337
28636,52120,24310
28630,52107,24286
28624,52096,24264
28618,52090,24244
28612,52089,24228
28604,52088,24215
28594,52085,24203
28581,52081,24191
28569,52077,24180
28557,52073,24168
28547,52066,24155
28536,52058,24140
28525,52051,24120
28512,52040,24095
28497,52024,24066
28480,52004,24036
28462,51983,24011
28443,51962,23986
28421,51941,23954
28396,51920,23915
28369,51900,23872
28341,51878,23824
28310,51853,23771
28272,51823,23714
28230,51789,23651
28188,51753,23585
28149,51718,23521
28112,51682,23458
28075,51645,23395
28039,51608,23332
28002,51570,23267
27964,51535,23204
27932,51507,23144
27903,51484,23087
27875,51461,23034
27846,51439,22986
27817,51419,22942
27787,51400,22897
27759,51383,22852
27734,51368,22807
27709,51353,22762
27681,51333,22715
27652,51308,22668
27622,51283,22621
27590,51257,22573
27560,51230,22525
27533,51205,22481
27506,51182,22440
27483,51159,22401
27461,51139,22366
27441,51119,22334
27423,51101,22299
27406,51086,22261
27387,51075,22220
27367,51063,22181
27351,51051,22145
27339,51039,22113
27331,51029,22088
27323,51023,22067
27309,51017,22046
27293,51007,22022
27277,50994,21997
27261,50979,21972
27240,50959,21946
27217,50935,21917
27195,50913,21887
27176,50895,21856
27159,50877,21827
27144,50859,21802
27129,50842,21780
27114,50826,21757
27101,50811,21730
27088,50795,21701
27074,50781,21668
27062,50769,21636
27050,50757,21606
27038,50747,21577
27025,50738,21550
27011,50731,21526
26994,50725,21505
26977,50717,21485
26959,50707,21462
26937,50692,21437
26911,50677,21410
26885,50663,21381
26860,50648,21353
26837,50632,21329
26819,50618,21312
26809,50614,21308
26814,50623,21325
26839,50646,21373
26892,50689,21463
26979,50756,21601
27101,50854,21793
27257,50982,22038
27443,51135,22332
27650,51310,22670
27875,51503,23041
28115,51707,23429
28362,51916,23820
28607,52124,24202
28840,52322,24566
29057,52505,24902
29254,52672,25200
29428,52820,25456
29576,52944,25671
29699,53047,25848
29798,53129,25986
29872,53190,26086
29923,53234,26152
29954,53262,26188
29970,53278,26197
29972,53283,26184
29959,53277,26156
29937,53260,26116
29906,53234,26070
29868,53201,26019
29828,53165,25966
29792,53126,25916
29759,53088,25870
29728,53051,25828
29701,53018,25792
29677,52988,25761
29654,52961,25733
29633,52937,25707
29613,52917,25682
29593,52902,25659
29574,52893,25637
29560,52887,25616
29549,52884,25594
29537,52882,25571
29526,52880,25548
29517,52876,25527
29510,52873,25512
29503,52867,25497
29496,52856,25480
29487,52841,25459
29475,52823,25436
29462,52801,25412
29449,52778,25384
29436,52756,25353
29421,52736,25319
29403,52718,25284
29383,52699,25246
29358,52681,25207
29330,52665,25166
29300,52649,25123
29274,52634,25080
29250,52621,25039
29230,52609,25000
29215,52597,24962
29202,52586,24928
29190,52574,24896
29177,52562,24867
29168,52550,24841
29161,52536,24819
29155,52522,24798
29157,52513,24783
29163,52508,24773
29169,52504,24767
29169,52498,24762
29166,52490,24753
29159,52480,24745
29150,52471,24736
29139,52462,24724
29127,52453,24708
29112,52441,24687
29094,52428,24662
29073,52414,24633
29050,52399,24603
29027,52383,24568
29004,52366,24529
28981,52347,24487
28961,52330,24442
28941,52317,24396
28919,52303,24348
28894,52284,24300
28868,52261,24253
28841,52235,24203
28813,52206,24150
28780,52175,24090
28746,52144,24026
28711,52114,23962
28675,52084,23899
28640,52052,23836
28605,52020,23771
28570,51988,23707
28532,51953,23642
28494,51917,23579
28457,51885,23518
28420,51858,23460
28378,51833,23403
28336,51809,23347
28297,51784,23294
28259,51757,23243
28219,51728,23194
28183,51702,23149
28152,51681,23111
28128,51663,23075
28110,51648,23037
28096,51634,23000
28085,51620,22964
28075,51605,22929
28064,51590,22895
28050,51575,22861
28035,51559,22827
28018,51542,22792
27999,51524,22755
27976,51504,22715
27950,51483,22674
27924,51461,22635
27899,51440,22597
27874,51421,22559
27849,51403,22524
27825,51386,22491
27803,51371,22460
27779,51357,22432
27757,51344,22407
27737,51331,22381
27715,51315,22351
27692,51297,22318
27669,51278,22288
27648,51259,22264
27628,51243,22243
27608,51227,22220
27590,51211,22195
27570,51197,22169
27546,51182,22141
27519,51166,22111
27492,51146,22077
27467,51124,22041
27446,51104,22002
27430,51088,21963
27418,51076,21926
27407,51065,21895
27394,51054,21865
27383,51043,21834
27371,51031,21803
27356,51020,21776
27340,51006,21749
27322,50991,21720
27301,50976,21692
27279,50961,21666
27257,50945,21640
27234,50929,21618
27209,50914,21596
27186,50900,21574
27168,50887,21552
27156,50875,21535
27149,50867,21530
27151,50868,21542
27173,50888,21584
27223,50930,21663
27303,50996,21790
27417,51091,21973
27566,51215,22215
27747,51367,22514
27956,51542,22856
28185,51734,23228
28425,51939,23616
28667,52147,24005
28907,52353,24382
29134,52547,24736
29343,52724,25057
29529,52884,25343
29691,53024,25595
29828,53141,25809
29941,53238,25982
30031,53315,26119
30097,53374,26224
30143,53413,26298
30172,53437,26340
30186,53447,26357
30190,53447,26352
30186,53437,26333
30177,53420,26301
30162,53397,26260
30144,53373,26213
30123,53350,26162
30097,53327,26110
30070,53302,26060
30044,53278,26014
30020,53257,25972
29999,53237,25933
29981,53219,25897
29965,53205,25861
29951,53197,25826
29941,53195,25796
29934,53191,25770
29929,53182,25747
29925,53172,25729
29920,53162,25713
29914,53152,25700
29907,53143,25689
29897,53133,25678
29883,53121,25666
29863,53109,25653
29840,53094,25636
29813,53076,25613
29784,53053,25583
29752,53024,25548
29721,52991,25508
29692,52958,25462
29664,52926,25413
29634,52895,25364
29605,52867,25313
29575,52844,25261
29550,52825,25212
29530,52809,25167
29513,52795,25129
29496,52785,25094
29479,52776,25059
29464,52768,25028
29452,52760,25003
29443,52751,24984
29439,52741,24968
29439,52732,24952
29441,52727,24938
29443,52724,24928
29442,52722,24918
29436,52716,24905
29428,52709,24891
29420,52703,24878
29412,52697,24864
29402,52688,24851
29392,52678,24839
29379,52669,24824
29365,52659,24802
29350,52647,24774
29336,52633,24739
29317,52616,24699
29294,52597,24655
29270,52579,24608
29246,52561,24560
29221,52542,24513
29190,52519,24463
29153,52492,24407
29113,52464,24348
29074,52437,24289
29037,52412,24228
29005,52385,24167
28976,52357,24105
28947,52329,24042
28918,52300,23979
28890,52270,23916
28863,52239,23855
28836,52210,23797
28808,52185,23742
28778,52160,23688
28749,52136,23637
28722,52115,23587
28694,52092,23536
28666,52068,23485
28638,52045,23432
28611,52022,23378
28585,51997,23323
28561,51971,23269
28533,51943,23217
28501,51912,23168
28465,51880,23120
28429,51850,23074
28394,51822,23028
28363,51798,22983
28334,51776,22939
28306,51758,22898
28281,51741,22863
28257,51724,22830
28234,51706,22801
28214,51689,22772
28197,51672,22742
28182,51657,22710
28168,51644,22678
28156,51633,22648
28145,51622,22620
28131,51613,22594
28114,51606,22571
28095,51598,22545
28076,51587,22516
28055,51571,22482
28033,51552,22446
28013,51530,22409
27994,51508,22371
27973,51483,22332
27950,51461,22296
27924,51444,22266
27897,51429,22236
27867,51413,22206
27838,51396,22178
27812,51379,22151
27789,51363,22123
27767,51348,22095
27748,51333,22067
27731,51319,22039
27719,51308,22014
27709,51298,21990
27700,51289,21969
27692,51280,21948
27683,51270,21926
27674,51256,21901
27661,51238,21874
27644,51220,21846
27624,51205,21816
27601,51191,21784
27578,51177,21751
27556,51162,21719
27537,51148,21688
27520,51137,21656
27501,51125,21625
27477,51108,21599
27452,51090,21574
27431,51075,21550
27415,51063,21533
27408,51057,21530
27416,51060,21553
27448,51083,21610
27508,51131,21711
27603,51208,21862
27734,51315,22067
27902,51452,22324
28103,51615,22630
28327,51797,22973
28566,51992,23340
28810,52194,23716
29051,52398,24091
29278,52597,24452
29490,52784,24790
29684,52957,25095
29858,53111,25363
30012,53242,25589
30140,53345,25770
30241,53423,25909
30317,53483,26007
30367,53524,26067
30394,53546,26096
30399,53550,26101
30387,53539,26085
30363,53517,26054
30332,53484,26008
30296,53448,25953
30259,53413,25893
30220,53378,25827
30180,53340,25759
30137,53302,25688
30095,53264,25619
30056,53229,25554
30021,53194,25492
29988,53162,25434
29954,53133,25380
29923,53108,25331
29898,53088,25288
29878,53074,25251
29859,53064,25222
29841,53055,25198
29824,53046,25175
29807,53033,25153
29791,53018,25131
29774,53000,25107
29755,52981,25079
29734,52961,25047
29713,52940,25010
29691,52917,24971
29666,52894,24929
29636,52873,24884
29605,52852,24838
29575,52833,24793
29546,52815,24748
29518,52796,24702
29491,52777,24657
29466,52761,24614
29445,52746,24577
29424,52732,24543
29402,52716,24512
29377,52700,24483
29355,52689,24457
29339,52681,24433
29327,52672,24411
29316,52661,24389
29310,52650,24367
29309,52642,24347
29310,52635,24329
29312,52628,24315
29316,52623,24303
29319,52618,24293
29321,52611,24285
29320,52600,24277
29315,52589,24268
29304,52577,24255
29288,52562,24236
29267,52543,24213
29246,52523,24189
29225,52504,24166
29200,52488,24142
29173,52472,24111
29146,52454,24074
29121,52436,24033
29097,52415,23989
29069,52392,23941
29038,52368,23889
29003,52343,23832
28967,52316,23770
28928,52288,23705
28887,52257,23636
28847,52225,23566
28809,52188,23493
28772,52149,23422
28734,52110,23357
28694,52074,23292
28652,52039,23230
28612,52007,23171
28574,51977,23115
28537,51948,23060
28500,51920,23004
28464,51892,22948
28431,51869,22891
28398,51847,22831
28365,51823,22770
28332,51799,22711
28301,51774,22654
28272,51747,22599
28242,51717,22544
28211,51685,22493
28181,51654,22446
28151,51628,22405
28121,51606,22367
28090,51586,22331
28062,51569,22298
28041,51556,22270
28025,51546,22244
28012,51540,22219
28002,51538,22198
27992,51536,22180
27979,51533,22164
27966,51527,22145
27949,51514,22123
27930,51495,22098
27910,51475,22070
27889,51455,22039
27866,51436,22008
27843,51417,21976
27819,51397,21944
27793,51378,21911
27763,51359,21877
27733,51340,21843
27707,51321,21811
27688,51306,21785
27672,51295,21763
27655,51285,21741
27637,51274,21716
27621,51263,21690
27603,51252,21663
27583,51237,21636
27562,51220,21605
27544,51201,21569
27525,51182,21530
27505,51163,21490
27484,51145,21452
27463,51127,21417
27443,51110,21384
27422,51094,21355
27403,51080,21333
27386,51069,21320
27374,51064,21318
27372,51068,21330
27382,51080,21359
27408,51104,21411
27454,51146,21494
27527,51208,21614
27632,51293,21777
27768,51404,21987
27931,51536,22239
28113,51685,22525
28311,51847,22835
28520,52018,23159
28733,52194,23486
28941,52370,23807
29139,52539,24110
29324,52697,24389
29494,52840,24641
29642,52967,24862
29764,53075,25047
29859,53159,25197
29930,53221,25312
29982,53264,25393
30017,53292,25441
30034,53307,25462
30038,53310,25459
30029,53302,25436
30012,53285,25394
29988,53260,25342
29956,53229,25283
29916,53194,25217
29870,53156,25147
29822,53117,25075
29774,53075,25000
29728,53034,24926
29684,52993,24854
29639,52955,24786
29594,52921,24720
29548,52890,24654
29501,52856,24587
29451,52818,24524
29400,52781,24467
29354,52745,24414
29317,52713,24361
29285,52682,24308
29253,52650,24257
29220,52621,24207
29190,52592,24158
29159,52563,24106
29123,52532,24049
29085,52500,23989
29046,52469,23930
29006,52439,23871
28966,52406,23812
28926,52373,23754
28890,52343,23697
28857,52318,23644
28828,52298,23598
28806,52282,23559
28789,52269,23526
28777,52257,23499
28769,52248,23479
28767,52246,23468
28771,52248,23467
28781,52253,23472
28795,52258,23478
28809,52267,23485
28822,52276,23492
28832,52284,23496
28840,52289,23497
28847,52292,23497
28850,52291,23496
28851,52290,23491
28849,52287,23483
28845,52285,23478
28840,52286,23476
28834,52285,23475
28826,52282,23473
28819,52280,23468
28812,52277,23459
28804,52272,23446
28795,52265,23426
28785,52255,23398
28773,52241,23364
28759,52226,23325
28740,52208,23278
28719,52186,23224
28693,52160,23164
28660,52131,23101
28621,52101,23040
28579,52067,22978
28537,52031,22915
28499,51996,22856
28465,51963,22801
28432,51930,22747
28396,51898,22694
28359,51868,22638
28323,51841,22581
28289,51815,22527
28255,51791,22475
28221,51769,22422
28188,51746,22370
28157,51721,22320
28127,51696,22272
28097,51673,22226
28069,51652,22183
28043,51632,22144
28018,51614,22107
27991,51595,22071
27962,51577,22034
27932,51558,21996
27901,51537,21958
27873,51513,21922
27848,51490,21888
27823,51469,21854
27795,51448,21820
27763,51427,21786
27732,51409,21755
27706,51394,21727
27684,51379,21701
27665,51362,21676
27647,51346,21650
27635,51334,21626
27628,51324,21606
27624,51315,21586
27622,51309,21565
27621,51306,21542
27619,51303,21518
27613,51297,21494
27601,51287,21472
27585,51276,21452
27570,51265,21432
27554,51251,21413
27536,51235,21392
27517,51218,21369
27497,51201,21343
27476,51186,21317
27455,51169,21290
27436,51155,21268
27423,51145,21255
27417,51142,21254
27422,51148,21269
27441,51164,21304
27480,51196,21366
27544,51248,21462
27635,51323,21599
27757,51421,21782
27909,51543,22010
28087,51686,22277
28288,51846,22577
28503,52017,22902
28723,52196,23241
28940,52377,23581
29147,52551,23908
29339,52712,24216
29514,52859,24496
29668,52991,24742
29802,53107,24954
29914,53205,25132
30002,53284,25275
30070,53345,25385
30122,53389,25463
30155,53415,25511
30173,53427,25530
30181,53427,25528
30179,53418,25508
30166,53403,25474
30143,53384,25431
30112,53360,25379
30075,53331,25318
30034,53299,25251
29990,53262,25181
29947,53224,25111
29908,53189,25043
29870,53157,24980
29835,53125,24921
29805,53094,24868
29779,53067,24819
29756,53044,24774
29735,53024,24730
29718,53005,24691
29701,52989,24659
29686,52974,24629
29673,52961,24601
29662,52946,24574
29650,52930,24549
29636,52911,24523
29617,52892,24493
29597,52871,24460
29576,52850,24423
29552,52830,24381
29527,52812,24335
29501,52792,24290
29473,52772,24245
29447,52749,24200
29424,52726,24155
29402,52704,24112
29384,52687,24072
29368,52676,24034
29356,52669,24000
29346,52665,23969
29340,52657,23941
29337,52646,23915
29334,52632,23891
29328,52615,23869
29317,52598,23852
29304,52585,23841
29293,52574,23830
29284,52567,23820
29276,52562,23813
29272,52562,23810
29272,52566,23808
29275,52572,23806
29279,52577,23808
29284,52583,23811
29287,52589,23813
29285,52594,23813
29278,52594,23808
29266,52590,23795
29250,52580,23775
29230,52566,23748
29207,52547,23711
29180,52522,23665
29149,52493,23614
29113,52461,23559
29074,52427,23500
29035,52392,23437
28995,52357,23373
28958,52322,23313
28924,52289,23255
28890,52258,23200
28855,52227,23146
28818,52196,23091
28780,52164,23035
28744,52132,22979
28708,52103,22921
28672,52076,22863
28636,52051,22803
28598,52026,22745
28558,52001,22687
28517,51976,22631
28478,51950,22574
28444,51923,22517
28415,51895,22460
28387,51869,22403
28356,51843,22346
28323,51816,22291
28290,51791,22245
28261,51768,22206
28234,51746,22165
28207,51724,22126
28180,51701,22089
28154,51676,22052
28128,51650,22013
28102,51627,21974
28076,51606,21937
28051,51591,21904
28032,51579,21876
28018,51569,21856
28008,51559,21839
28001,51550,21822
27995,51543,21808
27988,51536,21795
27977,51527,21782
27967,51518,21768
27961,51507,21752
27955,51498,21735
27949,51490,21718
27943,51483,21699
27933,51476,21678
27920,51468,21652
27903,51459,21622
27882,51448,21589
27858,51435,21556
27834,51417,21521
27814,51397,21485
27797,51379,21451
27775,51360,21417
27750,51340,21383
27724,51321,21349
27700,51306,21322
27678,51295,21301
27660,51286,21287
27646,51281,21283
27643,51285,21293
27658,51300,21324
27694,51331,21384
27753,51383,21483
27842,51459,21627
27960,51562,21817
28110,51689,22058
28291,51841,22345
28498,52015,22672
28723,52203,23028
28960,52398,23399
29199,52593,23768
29430,52781,24121
29646,52960,24450
29843,53124,24746
30019,53270,25006
30173,53398,25230
30303,53509,25415
30407,53599,25561
30485,53665,25672
30542,53711,25754
30580,53742,25810
30602,53758,25841
30609,53759,25851
30603,53751,25841
30589,53734,25815
30566,53711,25778
30535,53684,25733
30501,53654,25685
30466,53622,25636
30431,53592,25590
30398,53566,25546
30368,53542,25502
30339,53522,25460
30312,53506,25421
30290,53495,25385
30273,53488,25352
30259,53481,25324
30250,53474,25299
30243,53469,25277
30236,53462,25257
30231,53455,25240
30228,53448,25226
30225,53440,25210
30221,53429,25194
30215,53416,25182
30205,53401,25169
30191,53383,25154
30175,53365,25134
30156,53346,25110
30134,53324,25081
30107,53300,25047
30077,53274,25009
30048,53247,24968
30019,53222,24925
29988,53199,24881
29958,53180,24834
29929,53160,24787
29901,53140,24738
29875,53121,24692
29852,53101,24650
29832,53082,24614
29813,53063,24581
29794,53047,24548
29775,53032,24519
29757,53021,24493
29744,53012,24470
29737,53006,24450
29733,53000,24432
29733,52994,24415
29734,52989,24399
29734,52982,24383
29729,52972,24366
29722,52960,24351
29717,52948,24340
29712,52937,24333
29706,52927,24327
29698,52917,24319
29688,52905,24307
29674,52893,24287
29657,52879,24261
29639,52864,24232
29623,52848,24200
29609,52834,24167
29591,52818,24132
29569,52800,24091
29543,52780,24042
29516,52759,23984
29487,52737,23924
29457,52714,23861
29424,52691,23795
29387,52665,23731
29349,52634,23670
29309,52600,23609
29268,52566,23544
29226,52530,23478
29183,52491,23410
29140,52452,23340
29099,52415,23268
29061,52383,23199
29024,52353,23135
28986,52323,23073
28946,52292,23015
28902,52259,22961
28860,52225,22908
28822,52193,22857
28789,52167,22809
28757,52144,22764
28724,52124,22722
28692,52105,22680
28662,52087,22641
28634,52065,22602
28611,52043,22564
28593,52022,22528
28575,52003,22492
28556,51984,22455
28536,51964,22417
28516,51945,22381
28495,51928,22347
28474,51913,22315
28456,51902,22287
28438,51891,22262
28419,51878,22237
28400,51866,22208
28382,51854,22177
28363,51841,22146
28343,51827,22116
28323,51809,22085
28302,51789,22053
28285,51771,22022
28269,51755,21995
28253,51742,21968
28235,51729,21938
28214,51714,21905
28194,51696,21873
28172,51675,21843
28149,51651,21816
28125,51627,21790
28101,51604,21766
28076,51584,21745
28052,51566,21725
28028,51551,21704
28010,51541,21686
27998,51533,21670
27989,51525,21652
27980,51516,21632
27968,51508,21614
27955,51503,21597
27942,51501,21578
27926,51497,21557
27907,51490,21534
27884,51478,21506
27860,51464,21475
27838,51445,21442
27816,51422,21410
27795,51399,21382
27779,51381,21362
27774,51370,21355
27786,51371,21369
27818,51391,21415
27873,51436,21502
27959,51506,21638
28080,51605,21826
28240,51734,22068
28434,51891,22359
28653,52071,22694
28892,52266,23059
29139,52468,23437
29383,52669,23815
29617,52864,24183
29837,53049,24529
30041,53220,24846
30228,53374,25128
30390,53507,25370
30521,53620,25567
30628,53713,25721
30712,53788,25841
30774,53845,25927
30813,53886,25981
30834,53913,26008
30843,53925,26013
30841,53924,26000
30828,53911,25974
30807,53890,25939
30781,53866,25895
30752,53839,25845
30720,53810,25795
30685,53779,25744
30647,53746,25691
30611,53712,25634
30578,53679,25580
30547,53648,25532
30519,53621,25488
30494,53596,25449
30471,53572,25414
30448,53552,25385
30425,53539,25362
30403,53530,25343
30382,53522,25326
30366,53515,25311
30355,53512,25299
30345,53514,25289
30339,53517,25283
30337,53520,25280
30337,53522,25277
30335,53523,25271
30331,53521,25259
30325,53514,25243
30316,53503,25224
30305,53489,25202
30290,53470,25176
30272,53444,25145
30251,53418,25109
30228,53394,25070
30206,53372,25029
30180,53349,24986
30151,53325,24943
30121,53299,24899
30088,53272,24854
30056,53245,24808
30027,53215,24765
30004,53189,24727
29983,53169,24695
29968,53155,24670
29955,53142,24652
29942,53129,24636
29928,53119,24621
29915,53113,24608
29906,53109,24598
29901,53104,24587
29895,53100,24578
29888,53098,24569
29880,53097,24559
29873,53095,24547
29867,53092,24533
29859,53089,24518
29850,53083,24501
29837,53073,24481
29823,53061,24458
29807,53048,24432
29792,53034,24401
29775,53019,24363
29753,53003,24320
29728,52983,24271
29704,52960,24217
29680,52937,24160
29655,52912,24102
29626,52885,24044
29595,52856,23987
29562,52822,23928
29526,52784,23865
29486,52740,23800
29443,52696,23731
29401,52654,23664
29358,52612,23602
29316,52572,23542
29273,52536,23481
29232,52505,23418
29194,52479,23354
29161,52455,23293
29130,52432,23236
29100,52408,23181
29072,52386,23130
29044,52367,23084
29016,52347,23039
28988,52326,22995
28960,52306,22954
28929,52286,22914
28898,52264,22872
28872,52244,22830
28850,52225,22790
28831,52207,22750
28812,52188,22709
28792,52167,22667
28772,52146,22626
28754,52127,22587
28739,52111,22550
28725,52097,22514
28709,52083,22478
28688,52068,22442
28664,52051,22405
28639,52035,22366
28611,52018,22327
28578,52000,22287
28541,51979,22250
28498,51949,22212
28457,51915,22173
28420,51883,22137
28386,51853,22102
28354,51828,22069
28325,51807,22040
28298,51788,22012
28277,51772,21987
28260,51757,21964
28246,51744,21941
28235,51736,21920
28226,51730,21900
28215,51721,21880
28203,51712,21859
28188,51703,21840
28174,51697,21823
28160,51692,21805
28149,51687,21787
28136,51682,21769
28122,51674,21746
28105,51663,21719
28087,51648,21694
28069,51630,21669
28053,51611,21644
28037,51591,21617
28021,51572,21589
28002,51553,21558
27984,51536,21527
27963,51515,21494
27939,51493,21462
27912,51471,21434
27883,51451,21406
27855,51430,21374
27827,51410,21340
27803,51394,21310
27785,51384,21287
27776,51383,21279
27778,51391,21288
27797,51412,21320
27837,51447,21378
27902,51502,21472
27997,51580,21614
28125,51686,21809
28286,51821,22055
28477,51982,22349
28696,52164,22683
28934,52363,23049
29185,52571,23435
29437,52779,23823
29680,52978,24197
29910,53164,24546
30123,53336,24863
30315,53489,25141
30483,53622,25379
30626,53732,25577
30742,53819,25734
30830,53885,25855
30893,53933,25941
30933,53965,25997
30954,53986,26026
30960,53997,26034
30957,53998,26024
30946,53991,26002
30929,53978,25970
30908,53957,25926
30883,53934,25873
30857,53910,25816
30831,53886,25757
30805,53860,25700
30777,53832,25643
30748,53803,25588
30719,53774,25535
30692,53746,25485
30667,53720,25439
30647,53696,25398
30632,53678,25363
30623,53663,25335
30616,53648,25312
30611,53633,25292
30608,53619,25275
30602,53610,25260
30591,53601,25243
30577,53591,25225
30561,53581,25204
30542,53569,25181
30522,53556,25156
30504,53542,25131
30486,53527,25103
30466,53512,25072
30443,53496,25037
30415,53475,24998
30383,53448,24955
30350,53418,24908
30315,53390,24857
30279,53365,24804
30243,53342,24756
30211,53322,24715
30189,53306,24676
30174,53291,24642
30165,53281,24614
30159,53278,24594
30155,53281,24580
30151,53286,24572
30147,53292,24568
30140,53293,24562
30132,53288,24554
30125,53278,24544
30120,53267,24534
30116,53256,24523
30114,53248,24512
30114,53244,24503
30117,53242,24492
30120,53237,24477
30120,53227,24456
30114,53213,24431
30100,53196,24400
30079,53178,24364
30052,53157,24323
30021,53130,24273
29987,53100,24218
29949,53071,24163
29912,53042,24108
29878,53013,24051
29845,52983,23994
29809,52955,23939
29771,52928,23887
29734,52903,23835
29698,52877,23782
29661,52851,23725
29625,52824,23665
29589,52794,23604
29551,52763,23546
29513,52733,23491
29478,52702,23436
29442,52672,23378
29404,52643,23319
29360,52616,23261
29315,52588,23206
29272,52559,23153
29234,52531,23102
29200,52506,23054
29166,52481,23007
29131,52457,22960
29099,52433,22916
29071,52409,22873
29044,52386,22833
29018,52365,22797
28993,52343,22760
28968,52320,22720
28944,52298,22681
28925,52278,22645
28907,52255,22608
28887,52230,22570
28864,52205,22528
28839,52182,22486
28811,52160,22444
28782,52139,22405
28754,52119,22368
28727,52101,22333
28699,52085,22300
28673,52069,22269
28652,52058,22243
28638,52050,22217
28628,52040,22190
28619,52029,22160
28607,52015,22131
28591,51999,22102
28568,51981,22073
28542,51961,22045
28513,51940,22018
28482,51920,21993
28451,51906,21969
28421,51894,21945
28394,51882,21922
28369,51868,21899
28345,51852,21876
28321,51838,21852
28298,51822,21829
28275,51805,21806
28252,51786,21781
28227,51768,21753
28204,51751,21725
28184,51734,21697
28167,51717,21669
28146,51695,21640
28121,51671,21609
28093,51651,21579
28066,51635,21552
28044,51622,21528
28027,51612,21507
28014,51604,21487
28002,51598,21467
27988,51590,21445
27973,51580,21419
27959,51566,21392
27944,51549,21364
27928,51531,21335
27911,51514,21306
27892,51500,21277
27870,51487,21248
27847,51474,21219
27827,51466,21196
27812,51459,21180
27803,51455,21176
27803,51458,21189
27813,51472,21226
27843,51501,21292
27899,51550,21392
27985,51622,21537
28106,51722,21731
28263,51850,21973
28452,52003,22261
28666,52174,22587
28899,52360,22940
29146,52557,23308
29395,52758,23676
29634,52953,24029
29855,53136,24354
30056,53305,24647
30233,53455,24905
30384,53581,25125
30510,53679,25305
30609,53751,25446
30684,53804,25552
30735,53841,25624
30765,53865,25666
30777,53875,25678
30770,53870,25668
30748,53853,25641
30716,53829,25599
30677,53800,25545
30636,53768,25482
30592,53733,25413
30544,53692,25338
30492,53646,25258
30439,53598,25175
30385,53553,25092
30331,53509,25013
30278,53465,24939
30232,53424,24872
30192,53387,24810
30155,53354,24754
30120,53325,24704
30091,53300,24659
30067,53278,24617
30044,53259,24577
30017,53242,24536
29985,53225,24493
29951,53208,24450
29918,53189,24407
29886,53165,24363
29857,53139,24317
29826,53114,24272
29792,53087,24228
29758,53060,24183
29725,53035,24138
29693,53013,24094
29663,52994,24051
29636,52976,24010
29610,52956,23969
29585,52936,23929
29563,52916,23892
29542,52897,23858
29522,52879,23828
29505,52865,23802
29495,52855,23777
29489,52850,23753
29486,52847,23734
29482,52847,23718
29478,52848,23703
29478,52848,23690
29478,52847,23681
29476,52846,23676
29476,52844,23676
29479,52839,23677
29483,52834,23679
29486,52830,23681
29487,52824,23681
29485,52818,23680
29482,52814,23676
29478,52812,23668
29471,52810,23655
29460,52806,23637
29447,52796,23612
29432,52783,23579
29414,52767,23539
29391,52750,23494
29366,52733,23448
29344,52715,23400
29324,52697,23350
29304,52682,23298
29284,52669,23247
29263,52654,23194
29241,52637,23141
29216,52614,23088
29188,52586,23033
29155,52554,22974
29120,52519,22912
29085,52484,22850
29049,52451,22788
29014,52419,22728
28977,52387,22669
28938,52356,22610
28902,52325,22552
28866,52292,22494
28829,52262,22439
28792,52236,22388
28756,52212,22341
28723,52189,22297
28690,52167,22259
28659,52150,22228
28630,52135,22200
28604,52119,22174
28578,52103,22149
28553,52087,22126
28526,52069,22103
28499,52052,22080
28476,52036,22053
28456,52021,22024
28439,52007,21996
28422,51992,21971
28407,51975,21952
28394,51963,21941
28384,51957,21934
28377,51955,21928
28372,51957,21921
28367,51960,21916
28361,51963,21909
28354,51965,21898
28347,51964,21881
28337,51960,21861
28327,51951,21839
28317,51941,21815
28304,51931,21790
28287,51922,21766
28266,51908,21743
28244,51891,21720
28222,51871,21697
28201,51852,21676
28181,51835,21657
28159,51819,21636
28135,51802,21611
28110,51785,21582
28086,51766,21550
28063,51744,21517
28041,51721,21488
28019,51701,21462
27995,51684,21437
27971,51671,21416
27951,51662,21402
27938,51658,21395
27929,51658,21394
27929,51664,21401
27939,51675,21419
27965,51698,21456
28013,51735,21517
28086,51791,21613
28187,51867,21750
28317,51967,21935
28476,52092,22166
28658,52237,22438
28859,52397,22743
29073,52568,23071
29293,52745,23410
29509,52921,23746
29716,53090,24067
29909,53246,24362
30081,53387,24626
30231,53512,24857
30358,53622,25054
30463,53713,25214
30547,53786,25339
30611,53841,25433
30653,53874,25498
30674,53891,25536
30674,53897,25550
30661,53893,25544
30642,53883,25524
30622,53867,25491
30597,53844,25446
30566,53817,25393
30531,53784,25334
30491,53745,25270
30447,53704,25200
30400,53663,25127
30353,53624,25053
30307,53587,24978
30260,53549,24902
30213,53511,24827
30167,53474,24756
30122,53437,24688
30076,53399,24623
30028,53358,24560
29981,53316,24499
29934,53274,24438
29885,53232,24379
29837,53195,24323
29793,53160,24269
29754,53130,24214
29716,53103,24161
29678,53078,24108
29643,53052,24054
29610,53028,23998
29576,53005,23942
29542,52980,23885
29507,52955,23829
29474,52931,23775
29446,52907,23724
29423,52886,23676
29405,52868,23632
29393,52852,23596
29388,52838,23571
29387,52825,23556
29391,52816,23548
29398,52810,23546
29407,52809,23547
29417,52813,23549
29426,52821,23551
29430,52829,23555
29433,52836,23559
29434,52841,23563
29431,52846,23568
29431,52853,23572
29432,52859,23573
29434,52862,23573
29434,52860,23573
29431,52855,23572
29428,52852,23570
29425,52850,23562
29422,52847,23548
29416,52841,23531
29406,52829,23509
29394,52813,23483
29381,52798,23453
29369,52784,23418
29355,52769,23376
29335,52750,23330
29310,52729,23283
29280,52707,23237
29250,52688,23188
29219,52672,23138
29188,52656,23087
29155,52638,23034
29119,52616,22978
29081,52591,22921
29040,52561,22862
29000,52529,22799
28958,52495,22736
28916,52462,22674
28875,52430,22615
28836,52400,22559
28795,52370,22505
28753,52338,22454
28714,52306,22404
28678,52274,22356
28643,52242,22309
28605,52208,22264
28565,52175,22220
28526,52144,22178
28490,52117,22137
28458,52093,22099
28429,52073,22067
28402,52056,22038
28380,52042,22013
28360,52029,21992
28341,52016,21975
28324,52002,21959
28307,51988,21940
28293,51975,21918
28278,51963,21896
28264,51949,21875
28250,51935,21854
28238,51924,21830
28225,51914,21807
28208,51901,21784
28187,51884,21757
28167,51865,21729
28151,51850,21703
28137,51840,21682
28125,51831,21667
28116,51824,21653
28110,51821,21640
28107,51819,21626
28104,51816,21613
28101,51815,21602
28097,51814,21591
28089,51811,21579
28074,51810,21562
28059,51811,21544
28045,51810,21525
28034,51803,21507
28024,51794,21490
28017,51786,21478
28017,51783,21477
28027,51788,21495
28053,51804,21540
28101,51836,21618
28176,51889,21739
28282,51967,21909
28422,52072,22133
28596,52208,22409
28800,52371,22726
29028,52554,23071
29271,52752,23433
29518,52955,23797
29759,53155,24151
29987,53346,24485
30199,53524,24795
30392,53684,25075
30563,53824,25319
30707,53940,25525
30826,54035,25689
30918,54108,25815
30985,54161,25905
31028,54193,25960
31050,54207,25983
31053,54205,25986
31042,54190,25975
31022,54169,25950
30993,54146,25912
30955,54122,25863
30910,54098,25807
30865,54073,25749
30826,54048,25690
30790,54022,25631
30754,53995,25572
30715,53963,25513
30675,53927,25453
30639,53891,25397
30605,53855,25348
30569,53818,25300
30535,53782,25255
30504,53751,25215
30473,53726,25180
30448,53704,25149
30430,53687,25119
30414,53675,25095
30401,53665,25075
30389,53657,25055
30378,53648,25035
30369,53637,25012
30360,53625,24986
30349,53612,24956
30335,53599,24923
30317,53584,24889
30294,53566,24851
30271,53548,24809
30247,53529,24763
30218,53504,24715
30188,53477,24667
30159,53450,24619
30130,53422,24571
30101,53393,24525
30075,53366,24484
30053,53345,24449
30039,53331,24419
30031,53321,24393
30028,53313,24371
30024,53306,24352
30020,53302,24337
30018,53300,24327
30016,53300,24322
30014,53302,24316
30013,53306,24310
30012,53308,24304
30008,53305,24299
30001,53300,24293
29991,53291,24280
29978,53276,24260
29965,53258,24234
29951,53235,24205
29939,53213,24174
29928,53192,24142
29917,53175,24107
29902,53158,24068
29881,53141,24027
29859,53127,23984
29837,53113,23938
29812,53097,23891
29784,53082,23846
29756,53066,23802
29727,53050,23758
29699,53033,23711
29673,53014,23662
29645,52991,23611
29613,52965,23555
29579,52935,23494
29544,52901,23430
29507,52865,23365
29467,52830,23299
29428,52796,23234
29391,52763,23171
29353,52728,23112
29314,52692,23054
29277,52659,22999
29244,52632,22947
29213,52612,22901
29183,52598,22860
29156,52586,22822
29130,52573,22782
29104,52558,22739
29079,52542,22696
29053,52525,22655
29029,52505,22618
29008,52483,22587
28988,52463,22562
28971,52443,22538
28953,52425,22512
28938,52410,22484
28924,52398,22454
28912,52385,22420
28898,52371,22385
28881,52355,22348
28864,52337,22312
28846,52318,22277
28827,52298,22245
28807,52281,22216
28784,52267,22193
28761,52257,22173
28742,52246,22155
28726,52233,22135
28712,52219,22113
28700,52209,22092
28691,52204,22073
28684,52201,22058
28678,52199,22049
28669,52200,22040
28658,52199,22028
28648,52193,22012
28636,52185,21992
28620,52172,21965
28599,52155,21934
28573,52139,21902
28548,52123,21873
28529,52104,21842
28514,52083,21813
28500,52064,21786
28488,52050,21766
28482,52041,21752
28481,52039,21752
28489,52044,21771
28513,52062,21821
28560,52099,21914
28638,52163,22057
28754,52259,22253
28909,52384,22501
29098,52539,22797
29315,52716,23131
29553,52908,23495
29801,53109,23875
30048,53312,24255
30289,53513,24621
30519,53706,24965
30733,53886,25277
30928,54049,25555
31099,54190,25792
31243,54305,25988
31360,54397,26144
31449,54466,26261
31513,54514,26346
31553,54546,26402
31571,54563,26433
31574,54565,26442
31567,54555,26436
31551,54536,26417
31526,54512,26387
31501,54487,26350
31476,54464,26314
31452,54444,26278
31430,54424,26240
31410,54403,26199
31392,54382,26157
31373,54362,26116
31353,54345,26077
31333,54331,26039
31313,54317,26003
31291,54300,25972
31271,54283,25941
31253,54266,25909
31234,54246,25877
31214,54226,25848
31197,54209,25824
31182,54197,25805
31169,54186,25791
31158,54179,25781
31148,54175,25772
31140,54174,25764
31130,54172,25754
31121,54167,25739
31114,54159,25718
31106,54149,25690
31095,54135,25657
31080,54117,25622
31060,54096,25584
31033,54071,25542
30998,54042,25495
30958,54008,25444
30917,53973,25390
30880,53938,25336
30846,53906,25284
30817,53879,25237
30790,53852,25191
30763,53827,25148
30736,53801,25107
30708,53776,25073
30684,53758,25045
30666,53749,25025
30654,53747,25011
30645,53747,25001
30637,53749,24996
30631,53751,24995
30628,53752,24998
30630,53752,24998
30634,53754,24995
30639,53757,24989
30645,53755,24980
30645,53744,24969
30636,53730,24952
30623,53716,24928
30607,53702,24902
30588,53685,24876
30566,53667,24846
30542,53648,24812
30515,53624,24773
30487,53598,24728
30456,53574,24679
30423,53551,24629
30388,53527,24577
30357,53510,24528
30331,53499,24482
30307,53487,24432
30284,53471,24380
30261,53451,24328
30238,53427,24275
30212,53401,24220
30181,53374,24160
30147,53345,24096
30113,53315,24031
30082,53286,23970
30051,53259,23911
30019,53233,23853
29986,53204,23797
29954,53174,23741
29921,53142,23688
29885,53108,23635
29848,53072,23584
29808,53038,23536
29766,53006,23489
29724,52976,23442
29684,52948,23394
29649,52922,23349
29617,52898,23307
29588,52877,23268
29563,52861,23235
29545,52848,23208
29531,52837,23180
29517,52825,23149
29504,52811,23115
29490,52796,23083
29477,52782,23055
29464,52768,23028
29448,52752,23000
29430,52734,22971
29410,52716,22940
29388,52699,22906
29366,52682,22870
29343,52660,22832
29318,52638,22791
29290,52618,22750
29263,52597,22711
29240,52575,22674
29218,52553,22642
29195,52533,22611
29172,52516,22580
29146,52501,22552
29120,52484,22526
29094,52466,22501
29067,52446,22475
29041,52425,22448
29019,52406,22424
29001,52390,22403
28988,52379,22382
28975,52371,22358
28962,52363,22333
28949,52357,22310
28937,52350,22285
28924,52342,22259
28908,52331,22236
28891,52317,22214
28873,52302,22194
28855,52287,22172
28836,52271,22145
28816,52251,22112
28792,52231,22076
28763,52214,22038
28730,52199,22002
28694,52186,21967
28662,52174,21933
28634,52163,21903
28613,52153,21877
28596,52142,21857
28585,52134,21847
28582,52129,21857
28592,52137,21893
28627,52164,21965
28693,52217,22085
28795,52298,22261
28935,52412,22494
29113,52554,22780
29322,52721,23112
29556,52909,23479
29806,53114,23865
30066,53327,24258
30324,53539,24644
30574,53744,25013
30809,53938,25359
31027,54118,25674
31221,54279,25952
31389,54419,26189
31528,54535,26381
31637,54627,26529
31718,54697,26639
31774,54747,26717
31811,54780,26764
31833,54796,26782
31841,54797,26775
31834,54788,26754
31815,54771,26724
31791,54751,26686
31761,54725,26641
31726,54695,26591
31687,54660,26538
31647,54623,26482
31607,54586,26427
31568,54550,26377
31533,54518,26331
31506,54490,26288
31484,54466,26249
31466,54445,26216
31453,54428,26188
31443,54418,26167
31436,54413,26153
31429,54410,26141
31422,54406,26131
31415,54399,26123
31406,54391,26115
31395,54381,26102
31382,54370,26084
31372,54360,26064
31363,54350,26043
31356,54341,26020
31351,54332,25998
31343,54323,25975
31334,54315,25947
31322,54305,25914
31304,54290,25874
31284,54270,25833
31262,54246,25791
31239,54220,25749
31214,54193,25710
31185,54167,25675
31155,54145,25641
31130,54127,25610
31111,54114,25583
31093,54104,25558
31075,54093,25532
31059,54082,25506
31046,54073,25483
31038,54068,25465
31035,54066,25449
31037,54063,25434
31042,54060,25419
31050,54058,25406
31059,54055,25395
31067,54049,25382
31071,54039,25368
31071,54027,25354
31065,54014,25340
31056,54004,25326
31044,53996,25310
31031,53991,25292
31016,53983,25272
30998,53971,25251
30979,53955,25225
30958,53940,25194
30939,53926,25160
30921,53909,25121
30902,53889,25076
30879,53866,25025
30854,53839,24969
30828,53813,24911
30799,53788,24852
30766,53763,24791
30733,53737,24727
30699,53710,24660
30661,53680,24591
30621,53645,24520
30579,53609,24450
30537,53576,24382
30499,53544,24318
30462,53512,24259
30429,53481,24204
30398,53451,24151
30368,53419,24097
30334,53385,24042
30298,53351,23987
30261,53317,23931
30223,53284,23871
30185,53252,23810
30148,53219,23750
30116,53188,23694
30088,53160,23643
30063,53138,23596
30039,53124,23554
30017,53116,23518
29998,53113,23485
29975,53107,23453
29950,53099,23420
29929,53088,23385
29913,53074,23351
29898,53057,23321
29885,53039,23290
29874,53022,23258
29864,53006,23222
29856,52992,23185
29849,52979,23152
29840,52965,23123
29828,52950,23095
29816,52933,23067
29804,52916,23040
29789,52899,23015
29769,52883,22991
29745,52864,22965
29721,52842,22935
29698,52819,22904
29674,52798,22875
29648,52781,22845
29622,52766,22813
29597,52752,22784
29575,52740,22759
29556,52728,22737
29540,52718,22719
29528,52709,22704
29517,52702,22686
29507,52695,22662
29496,52686,22632
29481,52675,22599
29463,52659,22565
29447,52643,22531
29433,52628,22501
29420,52614,22474
29407,52602,22448
29390,52590,22422
29368,52576,22393
29342,52557,22361
29313,52535,22326
29284,52509,22290
29254,52482,22255
29223,52455,22219
29189,52431,22184
29154,52412,22153
29118,52396,22125
29086,52383,22102
29061,52376,22087
29047,52372,22086
29046,52375,22102
29064,52389,22142
29103,52420,22211
29169,52476,22318
29269,52560,22474
29402,52672,22681
29565,52810,22940
29756,52971,23246
29974,53151,23588
30207,53341,23954
30449,53536,24329
30690,53730,24701
30923,53919,25060
31141,54096,25394
31338,54257,25693
31512,54401,25956
31660,54525,26179
31781,54629,26363
31878,54713,26511
31953,54775,26621
32005,54820,26698
32037,54849,26748
32050,54865,26772
32048,54869,26776
32033,54863,26760
32007,54848,26729
31977,54826,26687
31943,54798,26637
31905,54766,26580
31864,54731,26519
31819,54697,26458
31773,54662,26396
31727,54627,26334
31685,54592,26273
31647,54556,26213
31612,54520,26155
31577,54486,26097
31541,54453,26042
31504,54424,25991
31465,54398,25943
31429,54376,25899
31395,54356,25860
31364,54336,25825
31334,54315,25795
31306,54294,25768
31281,54276,25742
31259,54259,25717
31242,54245,25691
31229,54231,25662
31215,54218,25632
31198,54203,25600
31180,54185,25566
31161,54166,25531
31138,54147,25496
31113,54129,25458
31089,54109,25418
31066,54088,25375
31044,54070,25334
31020,54053,25296
31000,54035,25261
30982,54019,25231
30966,54006,25204
30953,53996,25181
30942,53988,25165
30934,53982,25153
30928,53975,25142
30926,53970,25134
30929,53969,25132
30934,53971,25134
30941,53976,25137
30949,53981,25139
30957,53984,25140
30962,53983,25140
30965,53980,25139
30965,53977,25136
30966,53976,25130
30964,53975,25122
30956,53972,25110
30942,53966,25093
30924,53958,25073
30905,53947,25050
30886,53934,25021
30866,53921,24987
30844,53906,24947
30822,53889,24903
30801,53874,24854
30780,53855,24800
30754,53831,24741
30722,53804,24680
30685,53776,24617
30645,53748,24554
30600,53716,24489
30552,53682,24423
30504,53650,24356
30456,53616,24290
30409,53579,24228
30361,53539,24169
30311,53497,24110
30261,53455,24051
30215,53414,23992
30173,53377,23936
30135,53345,23884
30101,53318,23833
30070,53293,23784
30042,53270,23737
30016,53248,23693
29995,53234,23652
29979,53226,23614
29967,53217,23582
29959,53207,23553
29950,53197,23524
29938,53184,23499
29923,53169,23472
29904,53153,23443
29879,53132,23412
29850,53108,23381
29819,53084,23349
29789,53063,23320
29760,53046,23294
29735,53031,23266
29713,53018,23236
29697,53004,23209
29681,52991,23183
29666,52979,23158
29649,52970,23135
29633,52962,23113
29618,52956,23092
29605,52950,23071
29590,52942,23053
29571,52931,23037
29548,52918,23021
29526,52903,23002
29505,52885,22981
29486,52866,22958
29468,52849,22933
29451,52834,22906
29433,52822,22880
29416,52813,22856
29403,52802,22833
29390,52791,22809
29374,52776,22781
29354,52759,22752
29333,52739,22721
29312,52715,22689
29293,52691,22658
29276,52672,22634
29263,52664,22621
29259,52668,22622
29270,52682,22647
29304,52710,22707
29365,52757,22809
29457,52826,22961
29579,52918,23163
29731,53038,23415
29914,53190,23710
30123,53366,24042
30349,53557,24396
30583,53757,24756
30819,53957,25110
31050,54152,25450
31267,54335,25767
31467,54500,26053
31647,54646,26304
31804,54771,26517
31933,54873,26689
32034,54955,26818
32111,55015,26908
32164,55055,26963
32194,55077,26990
32201,55080,26992
32191,55065,26976
32167,55041,26949
32134,55011,26913
32091,54973,26868
32043,54932,26818
31996,54893,26761
31949,54854,26697
31901,54815,26628
31856,54777,26559
31814,54743,26493
31774,54715,26433
31736,54688,26381
31705,54663,26333
31680,54641,26288
31660,54623,26248
31643,54607,26210
31630,54591,26175
31620,54578,26144
31610,54567,26115
31599,54557,26086
31587,54544,26054
31571,54526,26020
31551,54503,25987
31523,54476,25948
31491,54446,25905
31456,54416,25860
31419,54388,25815
31381,54362,25768
31345,54339,25722
31309,54314,25674
31274,54289,25625
31244,54266,25577
31216,54247,25538
31189,54233,25506
31163,54223,25479
31141,54211,25453
31124,54201,25431
31114,54194,25411
31111,54192,25394
31115,54190,25376
31121,54187,25358
31128,54183,25344
31135,54183,25336
31144,54187,25333
31152,54191,25334
31159,54193,25336
31164,54197,25341
31170,54203,25347
31175,54208,25353
31177,54213,25360
31179,54218,25364
31180,54222,25366
31179,54224,25363
31174,54221,25354
31165,54216,25339
31153,54207,25314
31139,54195,25284
31122,54181,25252
31101,54162,25214
31077,54138,25166
31049,54111,25110
31017,54080,25049
30982,54044,24987
30944,54006,24925
30902,53968,24862
30857,53931,24797
30809,53897,24731
30760,53863,24665
30712,53828,24600
30665,53792,24536
30617,53757,24473
30570,53723,24412
30526,53692,24352
30482,53664,24293
30437,53638,24233
30393,53613,24174
30351,53586,24115
30309,53555,24056
30268,53522,23997
30230,53489,23942
30196,53457,23892
30166,53427,23844
30138,53400,23799
30111,53376,23758
30084,53353,23716
30058,53332,23674
30033,53312,23632
30008,53294,23592
29983,53277,23555
29957,53260,23522
29930,53244,23492
29906,53225,23464
29883,53204,23437
29860,53179,23411
29835,53152,23384
29809,53126,23355
29784,53102,23323
29762,53079,23289
29743,53060,23259
29725,53047,23233
29707,53039,23210
29693,53035,23190
29684,53033,23176
29679,53033,23165
29678,53032,23155
29675,53030,23144
29666,53025,23132
29652,53015,23114
29631,53003,23088
29607,52988,23057
29585,52970,23022
29562,52952,22987
29538,52935,22951
29518,52921,22915
29501,52910,22879
29485,52900,22846
29471,52889,22820
29461,52881,22806
29463,52882,22812
29484,52898,22846
29528,52932,22919
29598,52989,23040
29697,53070,23210
29828,53176,23430
29989,53307,23701
30178,53461,24017
30392,53637,24369
30623,53832,24741
30865,54036,25119
31110,54243,25491
31351,54447,25845
31581,54639,26173
31792,54812,26469
31976,54966,26726
32130,55098,26943
32255,55207,27121
32356,55293,27257
32437,55357,27355
32499,55399,27418
32541,55419,27452
32563,55422,27463
32568,55409,27455
32559,55386,27429
32537,55354,27389
32507,55319,27338
32471,55280,27281
32429,55241,27222
32387,55205,27165
32347,55174,27111
32310,55146,27059
32274,55120,27012
32241,55096,26969
32212,55075,26934
32187,55059,26904
32166,55051,26880
32152,55048,26860
32145,55048,26846
32141,55051,26835
32141,55054,26827
32145,55055,26821
32151,55052,26816
32157,55050,26811
32162,55049,26803
32166,55048,26794
32167,55045,26785
32166,55037,26774
32159,55026,26759
32148,55014,26738
32134,54999,26711
32116,54978,26677
32093,54953,26638
32069,54927,26597
32042,54900,26553
32016,54871,26508
31993,54845,26466
31972,54821,26429
31951,54796,26393
31931,54771,26356
31915,54750,26320
31900,54736,26284
31888,54726,26251
31876,54718,26225
31864,54713,26205
31853,54709,26187
31843,54704,26169
31832,54697,26153
31823,54691,26141
31815,54683,26131
31808,54673,26121
31804,54665,26114
31802,54664,26112
31799,54667,26110
31797,54668,26103
31794,54668,26094
31792,54668,26085
31790,54669,26075
31785,54671,26063
31776,54671,26045
31764,54666,26020
31749,54655,25987
31729,54636,25946
31704,54610,25900
31676,54580,25848
31641,54546,25788
31601,54512,25724
31560,54477,25657
31517,54443,25588
31473,54412,25517
31429,54381,25446
31385,54347,25376
31337,54309,25306
31288,54269,25236
31239,54231,25167
31190,54195,25100
31143,54162,25036
31098,54131,24974
31054,54099,24915
31014,54067,24855
30975,54036,24796
30936,54006,24736
30898,53974,24679
30862,53939,24625
30830,53908,24573
30800,53878,24525
30771,53850,24477
30742,53823,24426
30717,53798,24376
30695,53773,24330
30674,53750,24288
30653,53732,24250
30632,53718,24213
30610,53705,24179
30587,53692,24149
30568,53682,24123
30554,53674,24102
30545,53667,24080
30536,53658,24055
30528,53646,24024
30517,53633,23990
30505,53619,23956
30491,53604,23923
30476,53588,23890
30460,53570,23856
30442,53551,23823
30424,53534,23793
30405,53518,23764
30381,53500,23733
30353,53480,23702
30324,53458,23671
30294,53433,23640
30263,53409,23608
30233,53388,23578
30206,53374,23552
30180,53363,23527
30156,53355,23504
30131,53346,23480
30107,53332,23454
30085,53315,23427
30065,53299,23398
30044,53285,23365
30024,53272,23330
30003,53256,23297
29986,53240,23269
29972,53226,23248
29966,53219,23234
29973,53223,23238
30002,53243,23272
30059,53283,23349
30147,53347,23477
30268,53438,23659
30421,53559,23894
30607,53707,24176
30822,53879,24502
31059,54069,24860
31309,54273,25240
31563,54480,25626
31811,54682,26003
32046,54877,26360
32261,55062,26690
32454,55227,26985
32621,55370,27239
32764,55494,27448
32885,55598,27615
32984,55684,27741
33064,55752,27832
33126,55803,27894
33173,55839,27932
33201,55860,27951
33212,55869,27958
33210,55865,27951
33197,55850,27934
33179,55828,27908
33161,55804,27876
33143,55778,27844
33125,55753,27812
33107,55728,27779
33086,55705,27745
33064,55685,27709
33042,55667,27672
33023,55652,27637
33010,55641,27604
33002,55632,27573
32996,55625,27543
32994,55619,27517
32995,55615,27496
32994,55613,27478
32994,55613,27467
32994,55615,27463
32994,55618,27462
32994,55619,27460
32994,55618,27456
32992,55615,27451
32991,55610,27443
32990,55602,27432
32988,55592,27416
32985,55583,27397
32980,55574,27375
32976,55562,27348
32969,55548,27316
32961,55531,27280
32950,55512,27242
32933,55488,27197
32913,55461,27147
32893,55435,27096
32877,55412,27047
32857,55391,27002
32833,55371,26961
32811,55355,26929
32791,55342,26903
32776,55328,26880
32764,55313,26860
32751,55300,26839
32739,55292,26820
32731,55289,26805
32725,55285,26794
32721,55281,26785
32720,55276,26776
32722,55271,26770
32724,55268,26764
32723,55264,26756
32719,55260,26744
32711,55255,26729
32699,55248,26712
32685,55239,26694
32669,55228,26672
32650,55212,26646
32629,55195,26616
32604,55176,26582
32572,55153,26544
32536,55122,26502
32500,55088,26455
32463,55053,26404
32425,55018,26351
32384,54984,26295
32341,54951,26237
32298,54918,26175
32256,54885,26112
32215,54852,26048
32175,54820,25983
32137,54790,25920
32101,54763,25861
32067,54736,25802
32030,54708,25742
31990,54680,25681
31948,54648,25618
31905,54612,25553
31860,54573,25482
31815,54535,25409
31770,54497,25339
31728,54461,25270
31688,54424,25204
31649,54388,25141
31610,54355,25086
31571,54324,25037
31532,54297,24993
31495,54275,24952
31460,54256,24912
31429,54241,24874
31402,54230,24836
31380,54222,24800
31360,54209,24767
31340,54191,24734
31320,54171,24697
31300,54152,24658
31280,54131,24614
31257,54109,24570
31235,54087,24529
31215,54065,24492
31195,54044,24454
31174,54025,24419
31155,54009,24387
31136,53996,24358
31119,53987,24332
31102,53981,24305
31086,53975,24277
31074,53970,24248
31065,53962,24220
31058,53950,24191
31052,53935,24161
31046,53919,24131
31037,53901,24100
31025,53881,24067
31009,53860,24032
30991,53839,23996
30968,53816,23958
30943,53793,23921
30917,53772,23884
30890,53752,23849
30864,53733,23815
30836,53713,23782
30809,53694,23749
30785,53676,23716
30765,53657,23685
30748,53640,23657
30734,53625,23631
30723,53615,23607
30712,53608,23587
30700,53604,23569
30689,53600,23552
30677,53594,23532
30663,53586,23507
30648,53578,23479
30633,53566,23447
30612,53550,23411
30582,53528,23370
30545,53504,23326
30507,53479,23281
30471,53453,23240
30441,53429,23207
30421,53407,23187
30410,53394,23184
30414,53397,23210
30443,53421,23273
30503,53472,23381
30598,53552,23544
30729,53663,23767
30899,53810,24050
31105,53988,24389
31341,54189,24770
31598,54406,25174
31867,54632,25588
32139,54859,26002
32404,55077,26400
32654,55280,26768
32884,55466,27097
33089,55634,27384
33265,55782,27628
33410,55907,27828
33527,56007,27983
33618,56081,28099
33684,56130,28180
33727,56160,28230
33753,56175,28254
33763,56177,28261
33759,56169,28254
33742,56154,28235
33714,56132,28208
33681,56102,28172
33646,56067,28128
33609,56028,28078
33572,55993,28024
33531,55961,27969
33489,55932,27917
33451,55905,27870
33422,55883,27827
33400,55866,27789
33386,55851,27756
33379,55836,27725
33374,55822,27700
33368,55810,27680
33360,55799,27666
33351,55791,27656
33342,55785,27652
33333,55778,27651
33321,55770,27651
33308,55764,27652
33295,55758,27653
33282,55754,27654
33269,55749,27649
33258,55745,27638
33248,55739,27621
33238,55731,27601
33227,55722,27578
33213,55712,27551
33196,55700,27519
33177,55684,27481
33161,55664,27443
33147,55642,27405
33131,55617,27368
33110,55590,27326
33086,55562,27279
33060,55533,27232
33033,55504,27184
33006,55478,27139
32980,55455,27101
32957,55433,27072
32939,55415,27052
32929,55402,27037
32921,55393,27023
32915,55384,27009
32912,55379,26996
32912,55380,26987
32913,55384,26980
32913,55388,26975
32913,55393,26967
32913,55394,26954
32913,55391,26936
32911,55387,26914
32907,55382,26890
32898,55376,26867
32882,55367,26843
32862,55355,26818
32839,55340,26792
32816,55320,26763
32790,55296,26727
32761,55271,26683
32730,55250,26634
32698,55229,26583
32665,55205,26530
32631,55177,26477
32595,55148,26422
32557,55118,26364
32517,55084,26299
32477,55045,26227
32435,55005,26152
32391,54964,26075
32347,54924,25998
32305,54888,25920
32263,54853,25842
32220,54814,25766
32174,54774,25695
32126,54735,25626
32076,54695,25558
32024,54655,25491
31973,54616,25428
31924,54576,25365
31879,54538,25302
31836,54505,25246
31796,54477,25195
31758,54451,25145
31720,54426,25098
31682,54400,25053
31641,54373,25005
31600,54347,24956
31561,54323,24909
31527,54299,24865
31496,54271,24820
31466,54242,24772
31437,54212,24722
31407,54182,24667
31376,54154,24612
31344,54128,24559
31310,54105,24508
31278,54085,24461
31251,54067,24419
31228,54051,24383
31207,54034,24354
31186,54018,24328
31167,54004,24304
31150,53994,24283
31136,53984,24264
31124,53974,24245
31111,53965,24224
31095,53957,24200
31078,53948,24177
31060,53939,24153
31039,53928,24124
31017,53913,24091
30995,53895,24055
30974,53874,24016
30956,53853,23976
30937,53832,23935
30915,53811,23894
30893,53788,23852
30870,53763,23810
30846,53740,23770
30822,53719,23735
30800,53701,23707
30778,53684,23682
30756,53667,23657
30734,53652,23629
30713,53642,23598
30695,53631,23567
30680,53617,23536
30668,53604,23507
30657,53591,23478
30645,53577,23447
30631,53561,23417
30612,53545,23385
30588,53529,23351
30562,53512,23314
30532,53491,23272
30500,53464,23228
30468,53436,23186
30436,53409,23148
30406,53384,23113
30377,53362,23080
30348,53345,23049
30322,53331,23024
30301,53319,23007
30285,53312,23000
30281,53314,23007
30291,53331,23036
30319,53363,23092
30376,53416,23187
30471,53496,23331
30609,53607,23533
30787,53750,23797
30998,53923,24117
31237,54119,24483
31497,54329,24879
31766,54544,25290
32034,54760,25698
32293,54971,26092
32537,55170,26462
32759,55354,26798
32957,55521,27092
33126,55664,27344
33267,55780,27552
33381,55872,27715
33472,55946,27833
33543,56001,27914
33591,56037,27965
33618,56057,27989
33626,56061,27990
33619,56052,27972
33599,56030,27940
33570,56002,27900
33534,55972,27852
33495,55941,27795
33455,55913,27732
33414,55885,27666
33374,55853,27597
33334,55819,27529
33295,55786,27462
33257,55755,27397
33220,55727,27334
33186,55698,27276
33156,55669,27224
33133,55645,27178
33116,55629,27141
33102,55618,27113
33089,55610,27092
33079,55601,27072
33069,55592,27051
33058,55579,27028
33045,55562,27004
33029,55542,26975
33009,55519,26940
32982,55493,26902
32949,55467,26863
32917,55441,26824
32890,55416,26786
32865,55395,26750
32843,55379,26717
32826,55365,26683
32811,55351,26651
32798,55338,26619
32784,55324,26587
32771,55311,26553
32759,55298,26521
32748,55287,26489
32737,55279,26458
32726,55271,26428
32714,55260,26400
32702,55246,26374
32694,55231,26348
32686,55216,26326
32677,55203,26309
32665,55192,26296
32651,55181,26286
32637,55170,26274
32625,55160,26262
32614,55156,26248
32604,55153,26236
32593,55150,26224
32583,55146,26211
32575,55141,26196
32571,55135,26179
32566,55127,26158
32555,55114,26131
32536,55096,26101
32513,55076,26066
32489,55053,26026
32465,55026,25982
32438,54998,25933
32407,54970,25879
32376,54944,25823
32343,54919,25765
32307,54891,25705
32269,54862,25642
32229,54828,25572
32189,54790,25498
32147,54749,25424
32105,54708,25351
32061,54668,25281
32013,54631,25215
31962,54596,25149
31912,54562,25083
31861,54528,25017
31813,54491,24953
31767,54456,24891
31723,54422,24832
31681,54390,24775
31641,54360,24719
31604,54330,24667
31567,54304,24619
31532,54283,24576
31501,54266,24536
31473,54248,24496
31447,54229,24457
31421,54209,24419
31393,54185,24382
31363,54162,24345
31334,54140,24309
31304,54120,24274
31273,54103,24239
31242,54087,24204
31214,54070,24168
31189,54050,24132
31164,54028,24098
31140,54004,24065
31116,53983,24034
31091,53964,24002
31062,53942,23968
31032,53919,23936
31006,53898,23905
30985,53878,23873
30963,53858,23842
30941,53839,23811
30918,53821,23783
30893,53802,23758
30862,53780,23734
30827,53758,23707
30790,53736,23677
30754,53713,23644
30719,53692,23610
30688,53674,23580
30662,53661,23553
30639,53651,23527
30615,53641,23503
30592,53633,23481
30571,53627,23460
30551,53620,23438
30532,53608,23413
30512,53593,23381
30488,53574,23347
30465,53555,23311
30444,53535,23274
30424,53515,23234
30401,53496,23192
30373,53476,23150
30338,53454,23109
30303,53434,23072
30271,53417,23041
30244,53404,23021
30228,53398,23016
30228,53403,23032
30250,53423,23080
30294,53463,23168
30368,53525,23300
30474,53613,23481
30616,53728,23715
30792,53869,23994
30996,54032,24313
31218,54215,24666
31450,54408,25039
31687,54605,25416
31922,54801,25787
32151,54990,26140
32367,55168,26464
32565,55331,26751
32741,55474,26998
32890,55594,27204
33010,55687,27369
33102,55755,27493
33165,55801,27579
33204,55827,27628
33223,55835,27643
33223,55830,27630
33205,55815,27597
33170,55789,27550
33123,55752,27492
33066,55707,27426
33002,55657,27353
32934,55602,27274
32866,55546,27191
32795,55489,27103
32721,55433,27011
32646,55379,26917
32576,55328,26825
32513,55282,26738
32454,55241,26658
32399,55201,26582
32345,55161,26511
32297,55122,26449
32254,55090,26394
32217,55064,26345
32183,55041,26299
32151,55019,26254
32118,54995,26205
32082,54971,26155
32043,54943,26101
32003,54910,26045
31962,54873,25988
31919,54835,25931
31873,54798,25876
31830,54765,25823
31793,54738,25769
31764,54713,25715
31739,54689,25660
31714,54665,25610
31692,54643,25565
31673,54623,25523
31656,54605,25483
31637,54589,25450
31620,54577,25424
31607,54567,25403
31598,54558,25384
31591,54553,25369
31586,54551,25359
31584,54552,25353
31586,54551,25350
31589,54552,25353
31592,54555,25362
31595,54561,25376
31600,54570,25391
31605,54578,25403
31609,54585,25411
31608,54589,25417
31604,54589,25420
31596,54587,25421
31587,54583,25420
31575,54577,25414
31561,54568,25400
31545,54558,25378
31527,54544,25351
31509,54524,25319
31490,54500,25278
31468,54476,25231
31442,54453,25179
31411,54428,25122
31378,54402,25059
31341,54374,24993
31302,54344,24926
31264,54312,24859
31227,54280,24790
31190,54249,24718
31151,54218,24646
31112,54186,24576
31073,54151,24507
31033,54115,24439
30988,54080,24372
30940,54045,24307
30891,54011,24245
30844,53975,24186
30800,53938,24129
30760,53903,24073
30723,53870,24020
30687,53841,23973
30649,53815,23932
30612,53794,23898
30580,53777,23870
30551,53761,23842
30526,53745,23810
30504,53728,23777
30480,53709,23744
30459,53689,23710
30439,53669,23675
30422,53653,23644
30408,53638,23615
30392,53622,23587
30373,53606,23558
30354,53589,23530
30336,53574,23503
30318,53560,23476
30300,53547,23446
30279,53534,23415
30255,53520,23384
30230,53506,23353
30207,53495,23323
30187,53484,23295
30168,53470,23268
30151,53455,23241
30135,53441,23217
30117,53429,23195
30097,53416,23176
30079,53405,23160
30062,53397,23147
30048,53389,23133
30036,53384,23116
30026,53379,23099
30017,53373,23080
30009,53366,23058
30000,53356,23033
29990,53344,23007
29979,53331,22981
29971,53317,22956
29965,53305,22937
29966,53298,22926
29976,53300,22933
30000,53314,22964
30040,53345,23030
30105,53400,23142
30201,53482,23306
30330,53594,23524
30498,53736,23796
30701,53904,24114
30929,54092,24468
31173,54292,24842
31426,54497,25221
31678,54702,25596
31921,54903,25958
32149,55094,26298
32357,55268,26605
32541,55422,26874
32700,55554,27103
32834,55662,27292
32939,55742,27437
33014,55796,27540
33065,55829,27601
33095,55844,27625
33105,55841,27621
33097,55825,27596
33071,55797,27555
33029,55758,27501
32977,55714,27442
32924,55667,27379
32871,55618,27308
32820,55574,27235
32767,55534,27163
32714,55499,27093
32666,55466,27026
32621,55431,26961
32578,55398,26895
32539,55370,26833
32503,55346,26773
32466,55321,26714
32427,55295,26657
32390,55268,26604
32355,55238,26551
32322,55206,26500
32291,55175,26453
32262,55146,26407
32238,55120,26362
32217,55098,26319
32196,55079,26279
32176,55061,26241
32158,55044,26202
32140,55024,26161
32120,55001,26119
32097,54978,26079
32074,54960,26042
32050,54945,26005
32026,54931,25968
32004,54912,25932
31983,54891,25900
31960,54870,25870
31935,54850,25840
31911,54835,25808
31889,54823,25778
31870,54813,25752
31855,54805,25728
31844,54799,25704
31838,54794,25682
31835,54789,25664
31833,54783,25646
31832,54778,25634
31832,54771,25627
31836,54768,25624
31839,54769,25622
31843,54771,25620
31847,54772,25618
31850,54773,25611
31847,54770,25599
31839,54765,25580
31827,54758,25558
31809,54749,25533
31787,54735,25504
31762,54717,25471
31733,54694,25437
31701,54668,25401
31667,54639,25361
31636,54610,25316
31606,54580,25268
31575,54552,25217
31542,54524,25164
31509,54500,25111
31478,54477,25055
31447,54453,24995
31411,54426,24930
31373,54394,24859
31336,54361,24789
31300,54330,24723
31263,54299,24660
31227,54271,24600
31190,54241,24540
31151,54207,24478
31108,54172,24413
31064,54138,24349
31020,54105,24285
30978,54073,24219
30938,54040,24153
30900,54006,24091
30863,53973,24035
30824,53941,23985
30782,53909,23938
30741,53878,23892
30702,53852,23847
30667,53829,23804
30635,53809,23764
30605,53789,23726
30578,53769,23693
30551,53750,23664
30527,53734,23638
30506,53719,23615
30487,53704,23594
30471,53692,23572
30458,53682,23553
30449,53677,23534
30442,53673,23513
30432,53667,23486
30420,53659,23455
30405,53649,23424
30389,53637,23396
30370,53622,23366
30351,53605,23336
30332,53589,23307
30312,53572,23276
30292,53552,23243
30273,53531,23208
30257,53508,23176
30243,53486,23147
30227,53466,23121
30210,53449,23098
30191,53431,23077
30169,53413,23059
30144,53395,23044
30116,53376,23028
30088,53360,23011
30060,53344,22994
30037,53330,22974
30019,53317,22950
30005,53302,22922
29993,53287,22893
29982,53274,22868
29974,53262,22848
29971,53255,22836
29973,53256,22838
29985,53268,22861
30013,53295,22913
30062,53340,23003
30142,53408,23142
30260,53504,23334
30417,53630,23582
30606,53785,23882
30820,53964,24223
31059,54163,24596
31314,54372,24986
31574,54585,25379
31833,54795,25763
32083,54996,26127
32316,55183,26464
32527,55355,26768
32712,55507,27035
32874,55637,27261
33008,55744,27445
33115,55830,27589
33193,55897,27697
33249,55945,27770
33283,55973,27813
33300,55984,27828
33305,55982,27824
33300,55970,27805
33287,55952,27778
33266,55935,27746
33239,55917,27706
33207,55894,27660
33170,55866,27607
33131,55836,27549
33091,55807,27486
33050,55776,27419
33009,55742,27355
32967,55705,27292
32925,55667,27233
32888,55633,27180
32856,55605,27134
32831,55580,27094
32811,55562,27062
32797,55550,27039
32786,55541,27022
32776,55532,27009
32763,55520,27000
32748,55507,26997
32735,55497,26995
32725,55491,26990
32715,55486,26980
32704,55479,26962
32693,55469,26938
32683,55456,26907
32672,55441,26872
32656,55423,26831
32635,55402,26785
32612,55378,26733
32588,55349,26676
32560,55317,26618
32530,55284,26563
32500,55252,26508
32471,55220,26453
32444,55190,26402
32420,55163,26359
32398,55141,26323
32378,55124,26289
32358,55110,26258
32341,55098,26229
32328,55089,26206
32320,55082,26188
32317,55080,26175
32316,55083,26163
32320,55094,26154
32328,55109,26147
32335,55121,26139
32340,55125,26130
32342,55124,26120
32342,55120,26106
32340,55114,26087
32335,55107,26067
32330,55098,26045
32326,55086,26019
32321,55070,25987
32315,55051,25949
32306,55033,25907
32291,55014,25862
32268,54995,25812
32240,54977,25757
32211,54958,25696
32182,54933,25629
32150,54904,25560
32116,54874,25487
32080,54843,25411
32045,54809,25333
32007,54775,25256
31966,54737,25178
31924,54696,25098
31881,54654,25018
31836,54612,24941
31789,54571,24869
31742,54531,24799
31696,54493,24732
31652,54458,24670
31608,54425,24610
31567,54394,24553
31527,54367,24502
31486,54344,24456
31442,54322,24411
31399,54298,24364
31358,54273,24315
31318,54247,24266
31281,54219,24219
31246,54190,24178
31212,54161,24141
31183,54132,24106
31158,54105,24072
31135,54078,24039
31113,54053,24003
31090,54029,23966
31065,54008,23928
31039,53988,23889
31014,53969,23850
30986,53950,23813
30959,53931,23777
30932,53909,23742
30901,53885,23709
30870,53862,23675
30842,53841,23642
30817,53823,23611
30793,53803,23582
30771,53785,23552
30751,53771,23524
30735,53758,23499
30719,53747,23478
30707,53738,23457
30698,53730,23435
30689,53721,23413
30680,53712,23389
30671,53704,23365
30661,53694,23339
30646,53679,23312
30626,53659,23281
30602,53637,23248
30577,53613,23215
30553,53590,23185
30528,53570,23157
30505,53553,23132
30483,53539,23109
30462,53525,23084
30445,53513,23057
30433,53503,23031
30426,53494,23005
30421,53488,22982
30418,53485,22960
30416,53482,22935
30414,53476,22908
30412,53468,22880
30408,53459,22851
30401,53449,22823
30391,53437,22793
30377,53422,22761
30357,53404,22725
30333,53381,22685
30304,53356,22645
30272,53331,22606
30239,53308,22567
30209,53290,22535
30185,53277,22511
30167,53269,22498
30161,53272,22500
30175,53289,22528
30211,53324,22595
30273,53379,22707
30369,53463,22874
30505,53579,23102
30685,53727,23394
30906,53905,23746
31162,54110,24143
31441,54338,24570
31734,54577,25010
32029,54816,25447
32317,55047,25864
32587,55263,26250
32832,55462,26601
33052,55640,26912
33242,55796,27181
33399,55928,27405
33523,56035,27582
33616,56119,27717
33683,56177,27815
33727,56213,27879
33749,56229,27913
33752,56229,27922
33738,56217,27909
33712,56194,27881
33681,56163,27841
33650,56128,27793
33616,56091,27742
33581,56053,27685
33547,56019,27625
33517,55988,27562
33489,55960,27499
33462,55932,27440
33436,55906,27385
33411,55886,27333
33388,55871,27286
33367,55857,27244
33346,55843,27207
33326,55828,27174
33303,55813,27145
33281,55796,27123
33260,55780,27104
33239,55764,27087
33219,55749,27070
33201,55737,27058
33184,55729,27049
33167,55721,27040
33152,55713,27029
33141,55704,27015
33132,55692,26994
33118,55678,26965
33102,55661,26929
33084,55645,26891
33064,55629,26854
33043,55614,26817
33023,55598,26778
33005,55581,26738
32987,55564,26699
32970,55546,26658
32952,55527,26614
32930,55507,26569
32905,55486,26526
32878,55464,26486
32852,55440,26450
32830,55418,26417
32810,55399,26389
32794,55381,26366
32780,55365,26347
32769,55353,26332
