green_channel,red_channel,ir_channel
22726,46864,57748
22529,46693,57515
22380,46579,57343
22322,46559,57262
22203,46474,57106
21991,46299,56863
21846,46187,56701
21790,46152,56620
21660,46038,56445
21444,45846,56182
21303,45735,56005
21235,45696,55896
21076,45564,55680
20839,45360,55393
20690,45250,55215
20607,45202,55099
20429,45059,54877
20200,44867,54613
20086,44787,54482
20042,44766,54416
19908,44650,54247
19744,44505,54061
19708,44486,54017
19733,44519,54025
19664,44456,53935
19585,44383,53848
19642,44436,53909
19741,44517,54004
19740,44495,53994
19736,44476,54000
19854,44580,54144
19987,44694,54300
20011,44700,54347
20040,44717,54415
20181,44845,54601
20313,44960,54759
20334,44966,54798
20372,44996,54865
20508,45128,55029
20605,45217,55132
20587,45193,55114
20597,45203,55137
20693,45297,55243
20723,45320,55259
20640,45235,55156
20599,45201,55114
20639,45249,55153
20604,45221,55099
20469,45101,54944
20393,45048,54861
20388,45064,54850
20297,44990,54738
20124,44838,54543
20031,44769,54439
20008,44764,54394
19893,44666,54238
19708,44504,54019
19614,44438,53909
19579,44427,53853
19445,44317,53685
19254,44159,53470
19164,44101,53367
19118,44079,53298
18965,43946,53105
18770,43778,52878
18683,43719,52770
18628,43683,52681
18458,43534,52468
18261,43368,52243
18177,43317,52144
18114,43282,52056
17944,43141,51855
17772,43002,51667
17725,42981,51607
17688,42961,51543
17541,42835,51368
17407,42725,51225
17392,42732,51205
17367,42722,51155
17238,42611,50995
17138,42536,50883
17143,42562,50884
17110,42541,50829
16975,42420,50667
16889,42351,50574
16906,42376,50587
16865,42341,50527
16726,42213,50370
16655,42157,50294
16681,42194,50317
16641,42165,50265
16518,42059,50133
16478,42035,50094
16524,42088,50135
16486,42055,50080
16370,41947,49951
16340,41926,49920
16379,41969,49951
16322,41917,49872
16196,41806,49731
16164,41792,49691
16185,41827,49697
16100,41757,49586
15963,41641,49429
15935,41631,49391
15953,41664,49394
15864,41593,49284
15747,41500,49160
15758,41531,49175
15822,41599,49234
15802,41575,49206
15801,41565,49217
15963,41705,49409
16191,41893,49670
16363,42013,49887
16590,42179,50193
16987,42501,50693
17434,42856,51242
17817,43140,51734
18249,43474,52301
18818,43939,53018
19377,44386,53712
19830,44727,54297
20306,45099,54923
20863,45557,55630
21345,45940,56236
21685,46192,56691
22036,46469,57161
22445,46811,57672
22749,47050,58047
22912,47161,58273
23098,47310,58525
23330,47511,58808
23448,47598,58948
23443,47573,58956
23476,47602,59012
23552,47677,59100
23516,47642,59051
23383,47521,58904
23321,47478,58836
23313,47487,58805
23196,47387,58647
23005,47222,58423
22901,47151,58304
22848,47126,58227
22693,46996,58037
22492,46826,57813
22396,46766,57710
22338,46742,57638
22172,46607,57451
21976,46445,57245
21892,46392,57156
21833,46358,57079
21666,46215,56883
21487,46065,56682
21421,46026,56594
21366,45988,56496
21199,45842,56279
21030,45698,56077
20970,45660,55992
20907,45614,55890
20748,45476,55693
20622,45376,55551
20615,45387,55531
20595,45370,55479
20487,45263,55340
20425,45210,55273
20467,45260,55321
20465,45263,55314
20376,45181,55224
20355,45173,55220
20440,45267,55323
20474,45300,55357
20433,45255,55317
20475,45294,55376
20607,45418,55525
20666,45463,55591
20652,45437,55589
20725,45498,55684
20871,45620,55841
20923,45644,55890
20896,45599,55864
20945,45643,55926
21038,45731,56024
21016,45709,55997
20929,45629,55913
20934,45643,55934
20973,45687,55979
20897,45613,55892
20774,45498,55761
20757,45491,55739
20771,45509,55729
20668,45412,55590
20531,45293,55430
20501,45282,55386
20484,45279,55343
20351,45161,55178
20204,45036,55010
20161,45018,54953
20110,44989,54877
19937,44843,54676
19759,44705,54487
19686,44671,54404
19594,44611,54284
19396,44442,54049
19226,44302,53857
19162,44261,53771
19067,44179,53633
18873,44003,53395
18725,43883,53222
18675,43860,53150
18570,43780,53008
18369,43611,52772
18231,43509,52615
18186,43496,52548
18076,43414,52401
17882,43253,52175
17765,43168,52041
17733,43161,51984
17630,43079,51838
17461,42935,51635
17381,42882,51539
17374,42893,51513
17284,42816,51393
17137,42686,51227
17087,42654,51176
17096,42674,51177
17010,42597,51071
16879,42482,50930
16854,42474,50912
16873,42506,50932
16787,42435,50837
16667,42335,50718
16658,42345,50719
16682,42382,50739
16605,42315,50643
16513,42235,50544
16534,42262,50564
16570,42293,50583
16498,42216,50480
16421,42140,50381
16451,42171,50394
16474,42190,50387
16385,42104,50267
16300,42031,50172
16315,42057,50184
16311,42057,50160
16203,41960,50032
16123,41899,49950
16137,41933,49965
16108,41920,49920
15981,41811,49775
15898,41749,49688
15901,41770,49686
15842,41729,49610
15695,41606,49449
15615,41549,49365
15621,41567,49358
15573,41525,49288
15479,41436,49182
15484,41440,49195
15588,41533,49318
15673,41600,49434
15780,41677,49591
16055,41907,49942
16465,42248,50436
16848,42544,50911
17231,42831,51412
17750,43249,52078
18349,43733,52824
18861,44129,53473
19331,44490,54090
19898,44954,54816
20487,45439,55550
20947,45799,56136
21346,46108,56661
21813,46490,57252
22258,46852,57796
22549,47068,58165
22776,47237,58472
23060,47474,58836
23301,47670,59133
23388,47718,59253
23429,47735,59330
23535,47826,59469
23597,47876,59544
23529,47801,59476
23459,47735,59413
23471,47756,59425
23439,47733,59370
23298,47608,59199
23186,47522,59071
23161,47524,59034
23083,47468,58928
22907,47321,58724
22780,47232,58583
22735,47223,58520
22623,47144,58376
22427,46983,58147
22301,46892,58002
22257,46877,57937
22142,46786,57787
21957,46627,57574
21855,46553,57461
21825,46545,57412
21711,46450,57263
21535,46297,57054
21447,46238,56949
21418,46231,56893
21287,46118,56720
21102,45954,56502
21025,45898,56409
21000,45889,56360
20874,45773,56198
20719,45631,56019
20694,45617,55985
20722,45649,55995
20648,45579,55897
20556,45500,55801
20592,45550,55847
20661,45621,55916
20627,45581,55874
20591,45546,55847
20675,45631,55951
20763,45711,56047
20738,45675,56028
20719,45653,56033
20811,45741,56151
20890,45807,56236
20864,45768,56209
20862,45763,56227
20961,45859,56349
21022,45911,56412
20979,45861,56362
20972,45856,56364
21051,45936,56452
21068,45947,56457
20982,45860,56359
20940,45822,56317
20970,45854,56339
20923,45808,56266
20788,45678,56102
20711,45612,56008
20695,45607,55972
20593,45514,55833
20414,45352,55620
20308,45272,55498
20267,45251,55434
20145,45144,55271
19968,44990,55059
19885,44939,54959
19859,44943,54912
19740,44850,54759
19576,44716,54571
19510,44679,54497
19480,44674,54453
19343,44560,54290
19169,44412,54096
19095,44364,54008
19041,44334,53926
18873,44194,53723
18681,44038,53508
18595,43987,53404
18524,43944,53299
18354,43796,53081
18184,43650,52876
18123,43608,52788
18063,43563,52691
17904,43425,52496
17765,43311,52338
17735,43304,52299
17695,43276,52232
17564,43157,52070
17469,43079,51962
17469,43096,51957
17429,43072,51897
17300,42959,51745
17221,42900,51657
17232,42924,51655
17186,42887,51579
17054,42768,51416
16986,42715,51331
17007,42741,51330
16968,42699,51250
16859,42589,51107
16825,42566,51064
16863,42618,51098
16826,42586,51044
16731,42492,50936
16724,42487,50933
16775,42542,50986
16736,42505,50931
16640,42418,50823
16632,42425,50819
16668,42473,50849
16600,42416,50759
16486,42318,50628
16468,42318,50608
16481,42346,50615
16384,42265,50505
16254,42158,50377
16232,42156,50361
16236,42171,50356
16139,42082,50236
16033,41986,50117
16035,41998,50116
16046,42014,50115
15952,41930,50007
15856,41854,49915
15860,41877,49926
15851,41879,49909
15741,41781,49786
15654,41711,49700
15677,41744,49726
15696,41761,49732
15654,41715,49683
15694,41750,49746
15881,41921,49978
16092,42095,50235
16293,42242,50494
16625,42507,50909
17109,42905,51490
17586,43278,52067
18021,43607,52617
18547,44027,53286
19160,44526,54043
19692,44938,54708
20135,45266,55283
20628,45654,55915
21147,46077,56563
21539,46378,57063
21823,46585,57452
22146,46848,57886
22479,47124,58310
22676,47268,58570
22783,47336,58739
22948,47480,58975
23122,47639,59200
23163,47669,59269
23138,47644,59269
23189,47703,59345
23246,47765,59408
23177,47698,59325
23065,47595,59203
23040,47584,59170
23008,47566,59116
22849,47423,58923
22665,47264,58717
22580,47206,58612
22491,47142,58487
22298,46975,58250
22117,46826,58040
22048,46783,57944
21970,46723,57823
21800,46570,57607
21661,46456,57443
21619,46440,57383
21539,46379,57269
21364,46223,57055
21234,46118,56901
21198,46104,56840
21107,46032,56707
20925,45871,56481
20801,45769,56328
20756,45745,56255
20641,45650,56103
20449,45485,55884
20339,45406,55765
20316,45404,55730
20225,45326,55614
20079,45193,55450
20034,45164,55405
20071,45209,55438
20034,45172,55384
19954,45092,55295
19979,45119,55330
20066,45201,55421
20063,45189,55407
20023,45143,55364
20090,45206,55446
20197,45301,55563
20195,45287,55567
20160,45244,55548
20231,45312,55647
20326,45399,55754
20308,45373,55735
20265,45332,55701
20327,45398,55779
20396,45465,55848
20351,45419,55793
20298,45370,55739
20346,45421,55788
20378,45453,55804
20293,45373,55698
20212,45307,55610
20226,45335,55617
20210,45324,55567
20085,45206,55400
19984,45121,55279
19968,45124,55250
19896,45068,55153
19723,44914,54954
19598,44818,54819
19562,44811,54771
19462,44740,54644
19271,44582,54425
19148,44494,54286
19110,44483,54226
18997,44394,54076
18805,44224,53846
18686,44131,53706
18637,44104,53632
18504,43988,53455
18300,43805,53208
18178,43707,53057
18110,43661,52953
17945,43518,52736
17725,43329,52474
17606,43245,52331
17540,43208,52234
17376,43072,52027
17185,42907,51798
17112,42856,51697
17079,42840,51625
16939,42718,51440
16773,42577,51243
16720,42548,51169
16684,42533,51109
16539,42408,50932
16384,42278,50757
16338,42260,50700
16294,42241,50631
16142,42112,50441
16000,41995,50274
15972,41986,50227
15936,41961,50158
15802,41837,49987
15700,41749,49868
15706,41766,49864
15682,41745,49817
15562,41629,49677
15493,41569,49605
15525,41606,49636
15503,41586,49601
15386,41475,49471
15329,41430,49413
15362,41473,49440
15330,41448,49383
15210,41342,49240
15159,41310,49181
15183,41350,49195
15124,41307,49114
14990,41195,48963
14944,41171,48913
14971,41210,48931
14909,41154,48854
14786,41042,48725
14762,41029,48707
14798,41072,48738
14734,41014,48652
14618,40908,48520
14601,40902,48497
14621,40929,48504
14528,40843,48388
14401,40724,48240
14387,40713,48209
14399,40727,48194
14294,40634,48057
14166,40526,47907
14151,40527,47875
14149,40535,47842
14032,40433,47692
13910,40332,47552
13902,40338,47534
13894,40339,47506
13778,40236,47368
13663,40141,47246
13635,40132,47215
13587,40101,47152
13463,40000,47022
13402,39963,46974
13470,40039,47058
13551,40108,47146
13613,40149,47231
13808,40311,47481
14179,40622,47922
14564,40922,48381
14918,41182,48831
15389,41550,49425
15985,42027,50151
16529,42443,50819
16999,42787,51419
17543,43210,52106
18144,43695,52844
18631,44072,53449
19008,44353,53942
19430,44694,54487
19869,45057,55035
20165,45283,55414
20353,45415,55680
20587,45613,55998
20824,45821,56301
20917,45885,56431
20928,45874,56477
21010,45945,56597
21096,46025,56703
21041,45971,56646
20929,45871,56533
20909,45871,56516
20901,45877,56488
20769,45758,56317
20610,45618,56127
20551,45581,56048
20489,45538,55951
20309,45377,55721
20124,45220,55495
20043,45169,55376
19948,45099,55226
19740,44920,54964
19550,44769,54745
19466,44722,54636
19357,44639,54482
19152,44458,54227
18991,44328,54037
18929,44299,53956
18821,44217,53811
18622,44042,53567
18486,43931,53397
18445,43910,53320
18337,43821,53166
18146,43653,52934
18035,43569,52799
18015,43571,52754
17923,43498,52622
17762,43358,52424
17691,43314,52337
17700,43343,52329
17632,43286,52233
17512,43177,52099
17501,43175,52097
17563,43239,52164
17543,43216,52134
17491,43161,52081
17557,43224,52168
17677,43337,52309
17695,43348,52338
17682,43330,52342
17783,43421,52468
17913,43533,52611
17922,43525,52624
17897,43492,52615
17977,43564,52716
18061,43638,52807
18021,43588,52761
17963,43527,52703
18012,43576,52755
18052,43615,52782
17969,43536,52679
17894,43468,52595
17931,43510,52627
17945,43520,52616
17836,43414,52476
17745,43338,52373
17753,43364,52370
17707,43330,52291
17541,43179,52084
17416,43078,51938
17383,43074,51892
17279,43000,51760
17069,42827,51519
16925,42723,51357
16877,42704,51284
16753,42603,51113
16535,42414,50852
16398,42309,50690
16346,42282,50611
16208,42164,50425
15997,41973,50164
15882,41882,50014
15839,41859,49934
15694,41735,49742
15480,41548,49494
15367,41463,49366
15308,41429,49286
15141,41286,49082
14927,41102,48834
14830,41037,48711
14779,41012,48623
14616,40875,48420
14424,40716,48204
14357,40682,48122
14328,40678,48065
14190,40567,47895
14045,40448,47730
14028,40450,47700
14025,40459,47670
13905,40352,47522
13788,40250,47391
13790,40262,47383
13787,40264,47353
13670,40159,47208
13573,40076,47097
13586,40099,47097
13568,40085,47046
13440,39969,46886
13352,39903,46789
13369,39943,46801
13339,39932,46753
13216,39828,46611
13162,39792,46553
13214,39850,46598
13202,39838,46565
13096,39735,46441
13064,39705,46401
13116,39755,46441
13082,39721,46382
12958,39604,46237
12899,39555,46169
12893,39557,46151
12798,39474,46032
12644,39338,45858
12577,39287,45778
12566,39291,45745
12478,39220,45628
12362,39123,45498
12353,39133,45494
12403,39194,45551
12392,39186,45548
12395,39186,45573
12547,39319,45756
12778,39512,46018
12964,39648,46247
13184,39811,46545
13554,40111,47018
13981,40451,47551
14350,40723,48027
14741,41015,48545
15245,41414,49182
15748,41806,49808
16149,42097,50327
16540,42391,50846
16993,42758,51421
17382,43068,51908
17632,43250,52241
17886,43450,52584
18220,43733,53002
18488,43946,53322
18618,44030,53489
18760,44138,53673
18964,44316,53910
19069,44398,54022
19037,44359,53990
19037,44364,53999
19102,44434,54065
19068,44404,54008
18921,44272,53834
18835,44209,53734
18820,44217,53698
18710,44129,53549
18512,43962,53315
18395,43885,53179
18338,43866,53096
18173,43737,52886
17935,43540,52608
17796,43439,52442
17712,43382,52320
17521,43212,52067
17276,42996,51765
17140,42889,51584
17041,42821,51436
16821,42640,51158
16564,42434,50857
16433,42349,50693
16338,42290,50555
16134,42119,50298
15923,41942,50046
15847,41888,49937
15800,41853,49846
15652,41722,49654
15500,41596,49480
15450,41568,49418
15402,41531,49348
15275,41412,49201
15182,41332,49108
15199,41359,49130
15209,41372,49135
15150,41312,49077
15144,41305,49094
15246,41397,49219
15322,41456,49304
15332,41447,49326
15408,41504,49429
15574,41641,49619
15683,41720,49738
15713,41725,49781
15802,41793,49894
15953,41922,50067
16022,41970,50147
16012,41946,50147
16065,41987,50214
16163,42073,50317
16166,42067,50309
16097,41999,50234
16097,42003,50235
16135,42040,50262
16071,41976,50171
15946,41861,50026
15899,41830,49970
15880,41827,49935
15761,41725,49789
15609,41593,49614
15555,41558,49539
15525,41545,49476
15389,41434,49307
15228,41305,49126
15162,41268,49045
15101,41234,48962
14940,41102,48769
14770,40964,48571
14694,40917,48466
14615,40863,48344
14438,40715,48123
14270,40582,47929
14198,40541,47837
14114,40481,47723
13942,40333,47520
13796,40213,47354
13742,40175,47275
13658,40101,47148
13494,39951,46937
13379,39856,46788
13351,39845,46726
13271,39784,46606
13108,39649,46410
13001,39571,46282
12971,39565,46224
12879,39493,46090
12717,39352,45888
12623,39278,45767
12597,39268,45712
12500,39189,45584
12345,39058,45410
12275,39010,45329
12270,39019,45303
12193,38951,45194
12072,38842,45052
12041,38823,45011
12056,38849,45011
11985,38791,44917
11880,38701,44797
11864,38700,44779
11879,38725,44782
11795,38655,44678
11681,38559,44550
11661,38554,44522
11661,38564,44504
11567,38480,44386
11461,38390,44269
11455,38397,44258
11464,38415,44256
11398,38359,44182
11365,38337,44161
11470,38440,44292
11624,38574,44471
11752,38669,44632
11963,38833,44904
12331,39132,45349
12734,39447,45836
13098,39714,46308
13534,40046,46887
14084,40479,47592
14611,40882,48262
15059,41209,48848
15542,41577,49473
16080,42002,50143
16528,42345,50707
16862,42587,51150
17215,42862,51614
17600,43173,52093
17879,43384,52438
18049,43498,52667
18247,43652,52928
18465,43832,53196
18570,43907,53329
18583,43906,53368
18643,43965,53457
18729,44050,53554
18710,44034,53525
18623,43961,53429
18598,43957,53400
18590,43969,53376
18474,43872,53222
18311,43732,53018
18227,43670,52898
18153,43617,52780
17972,43457,52549
17761,43273,52300
17643,43183,52149
17544,43107,52007
17357,42944,51771
17167,42787,51545
17076,42730,51425
16988,42672,51292
16805,42518,51053
16631,42376,50834
16553,42327,50716
16458,42254,50568
16264,42087,50321
16088,41950,50111
16002,41903,49997
15888,41821,49838
15694,41662,49599
15554,41558,49430
15513,41543,49365
15434,41481,49257
15286,41348,49083
15210,41287,48993
15227,41312,48998
15195,41285,48949
15104,41199,48851
15096,41195,48852
15171,41266,48938
15191,41274,48961
15164,41233,48943
15225,41281,49024
15353,41391,49163
15409,41428,49220
15419,41425,49240
15520,41510,49361
15667,41635,49525
15720,41667,49589
15722,41655,49615
15807,41728,49732
15914,41822,49861
15913,41811,49871
15873,41766,49841
15923,41809,49895
15984,41859,49939
15931,41802,49859
15846,41730,49759
15849,41747,49750
15849,41757,49727
15743,41664,49596
15629,41566,49469
15603,41552,49431
15563,41523,49364
15424,41398,49193
15292,41287,49041
15246,41261,48972
15172,41202,48859
15004,41056,48653
14866,40946,48487
14808,40916,48403
14704,40839,48260
14515,40678,48032
14373,40566,47864
14311,40534,47778
14194,40445,47627
14002,40283,47403
13875,40184,47251
13825,40154,47168
13710,40053,47006
13526,39889,46779
13413,39798,46636
13366,39769,46553
13241,39667,46381
13054,39513,46160
12952,39441,46034
12913,39421,45962
12797,39320,45801
12636,39180,45605
12563,39130,45511
12533,39115,45454
12410,39011,45303
12249,38880,45132
12182,38846,45068
12149,38837,45028
12027,38736,44888
11892,38618,44735
11864,38597,44681
11855,38588,44635
11744,38488,44492
11626,38387,44353
11610,38381,44316
11593,38372,44271
11477,38270,44126
11367,38179,44001
11356,38183,43976
11337,38176,43931
11231,38089,43804
11154,38032,43722
11174,38061,43738
11169,38058,43712
11079,37977,43602
11027,37940,43548
11062,37983,43580
11056,37981,43560
10984,37914,43479
10993,37924,43494
11118,38035,43629
11235,38125,43756
11339,38198,43895
11574,38387,44195
11946,38688,44647
12315,38972,45107
12686,39247,45591
13183,39633,46225
13772,40095,46958
14301,40492,47632
14778,40843,48266
15321,41267,48976
15885,41714,49695
16337,42054,50283
16717,42332,50795
17147,42670,51355
17570,43006,51884
17855,43215,52251
18070,43364,52541
18340,43572,52884
18594,43766,53189
18715,43835,53339
18782,43866,53435
18907,43966,53589
19004,44046,53698
18972,44008,53664
18908,43949,53601
18911,43961,53603
18885,43947,53558
18747,43829,53391
18604,43715,53234
18535,43679,53155
18435,43610,53028
18246,43450,52804
18087,43323,52618
18012,43281,52515
17901,43199,52355
17711,43037,52112
17571,42924,51931
17509,42887,51829
17397,42796,51659
17210,42633,51412
17082,42526,51235
17024,42483,51125
16899,42373,50939
16703,42196,50686
16567,42085,50512
16485,42028,50395
16329,41898,50193
16120,41718,49940
15995,41625,49786
15932,41588,49689
15801,41479,49515
15637,41336,49320
15572,41289,49242
15566,41294,49222
15489,41226,49130
15394,41142,49032
15404,41159,49052
15456,41209,49107
15429,41175,49073
15389,41132,49036
15449,41189,49105
15534,41264,49188
15534,41255,49182
15532,41247,49185
15630,41333,49295
15734,41418,49405
15747,41413,49425
15764,41421,49464
15870,41518,49591
15958,41593,49686
15948,41572,49681
15949,41566,49701
16032,41636,49796
16079,41665,49832
16030,41603,49765
16004,41575,49737
16047,41616,49776
16033,41599,49736
15929,41496,49599
15866,41442,49516
15871,41456,49503
15808,41405,49413
15666,41278,49247
15585,41211,49150
15570,41206,49119
15485,41130,49012
15335,40994,48842
15256,40934,48749
15233,40928,48701
15131,40843,48559
14974,40707,48368
14891,40650,48263
14851,40629,48191
14720,40521,48016
14545,40374,47804
14456,40313,47691
14399,40277,47604
14249,40146,47414
14067,39989,47202
13979,39924,47088
13918,39881,46987
13770,39749,46792
13609,39609,46597
13546,39568,46508
13496,39536,46423
13352,39417,46244
13204,39301,46077
13154,39276,46009
13107,39246,45929
12974,39134,45760
12856,39041,45620
12832,39037,45575
12795,39011,45505
12674,38903,45357
12582,38827,45255
12578,38833,45244
12542,38802,45185
12429,38694,45043
12362,38634,44956
12373,38649,44947
12330,38611,44877
12207,38504,44733
12141,38454,44655
12148,38474,44643
12093,38433,44560
11969,38331,44416
11911,38297,44350
11917,38321,44341
11853,38270,44250
11734,38166,44114
11696,38136,44072
11713,38154,44078
11651,38097,43995
11546,38004,43876
11530,37999,43859
11572,38040,43890
11552,38015,43852
11531,37988,43829
11644,38085,43963
11839,38249,44192
12004,38372,44408
12217,38531,44699
12599,38840,45176
13064,39208,45743
13485,39519,46282
13936,39854,46876
14505,40302,47604
15087,40759,48341
15570,41122,48976
16042,41482,49608
16586,41916,50307
17091,42308,50939
17472,42582,51424
17830,42848,51890
18228,43166,52389
18552,43416,52788
18743,43549,53041
18923,43689,53288
19139,43873,53562
19268,43971,53721
19277,43957,53745
19302,43965,53785
19371,44022,53857
19354,44000,53824
19240,43896,53691
19173,43850,53614
19162,43862,53590
19074,43798,53472
18919,43663,53284
18835,43594,53175
18804,43574,53113
18689,43476,52954
18514,43329,52739
18415,43264,52606
18360,43240,52507
18216,43125,52310
18026,42968,52078
17918,42893,51947
17845,42846,51842
17684,42709,51634
17495,42546,51404
17401,42477,51278
17330,42429,51166
17160,42285,50948
16973,42129,50720
16880,42068,50592
16797,42014,50467
16622,41866,50247
16452,41723,50042
16387,41679,49944
16330,41636,49845
16191,41513,49665
16078,41419,49531
16071,41426,49516
16061,41422,49490
15980,41345,49395
15949,41317,49366
16023,41385,49449
16077,41422,49503
16063,41390,49493
16102,41414,49551
16227,41524,49695
16302,41587,49781
16300,41576,49790
16354,41620,49860
16482,41730,49993
16548,41775,50047
16541,41754,50030
16596,41795,50087
16707,41887,50198
16736,41897,50216
16698,41845,50167
16726,41863,50192
16795,41924,50254
16775,41900,50214
16696,41827,50122
16686,41831,50118
16705,41864,50137
16629,41802,50045
16510,41701,49911
16473,41683,49865
16460,41685,49833
16348,41589,49690
16207,41468,49526
16155,41435,49458
16114,41410,49396
15972,41289,49232
15819,41161,49065
15759,41124,48993
15702,41085,48912
15550,40954,48731
15399,40830,48561
15339,40799,48480
15267,40753,48374
15098,40616,48172
14943,40493,47995
14875,40449,47904
14782,40375,47772
14604,40220,47553
14461,40103,47382
14403,40067,47296
14305,39988,47160
14132,39841,46953
14016,39754,46813
13985,39747,46755
13904,39687,46637
13757,39562,46453
13675,39502,46345
13666,39506,46303
13592,39440,46183
13452,39313,46006
13383,39255,45914
13373,39252,45882
13286,39177,45768
13143,39056,45605
13078,39015,45531
13064,39017,45498
12970,38939,45377
12838,38826,45228
12801,38804,45182
12810,38819,45170
12732,38747,45062
12625,38650,44933
12609,38646,44906
12614,38662,44898
12525,38586,44790
12418,38499,44672
12406,38502,44649
12402,38509,44623
12299,38422,44495
12189,38332,44372
12171,38330,44344
12152,38320,44301
12039,38219,44162
11936,38131,44047
11930,38134,44033
11922,38125,44006
11850,38050,43918
11838,38037,43915
11955,38142,44057
12097,38257,44224
12229,38350,44394
12478,38548,44711
12882,38877,45200
13304,39204,45719
13704,39502,46243
14203,39892,46890
14801,40373,47641
15349,40800,48334
15827,41156,48960
16351,41564,49642
16906,42007,50351
17353,42349,50935
17706,42609,51414
18096,42916,51923
18500,43241,52424
18787,43455,52782
18985,43597,53048
19224,43795,53360
19461,43996,53651
19567,44070,53782
19598,44078,53829
19688,44155,53938
19773,44234,54031
19726,44190,53977
19622,44100,53871
19595,44090,53844
19568,44079,53798
19420,43953,53620
19244,43806,53416
19156,43747,53299
19063,43682,53161
18865,43516,52910
18667,43357,52672
18568,43296,52537
18461,43225,52383
18262,43064,52137
18082,42927,51929
17994,42881,51817
17881,42800,51659
17679,42628,51407
17511,42494,51204
17428,42443,51087
17300,42343,50909
17087,42162,50643
16925,42035,50439
16842,41984,50311
16702,41873,50111
16486,41694,49842
16340,41588,49664
16279,41557,49573
16166,41466,49421
16004,41328,49227
15932,41277,49144
15937,41294,49142
15882,41242,49073
15789,41154,48979
15797,41165,48998
15871,41232,49074
15872,41220,49067
15842,41180,49037
15916,41244,49123
16041,41351,49256
16082,41372,49298
16095,41369,49325
16208,41463,49461
16346,41575,49612
16385,41586,49650
16401,41582,49671
16508,41672,49793
16619,41763,49911
16623,41755,49915
16611,41743,49913
16689,41818,50001
16754,41874,50059
16711,41825,50002
16665,41781,49955
16702,41821,49994
16708,41832,49989
16610,41747,49877
16532,41687,49796
16537,41706,49792
16500,41678,49726
16368,41564,49564
16272,41489,49446
16246,41477,49391
16160,41402,49261
15989,41247,49057
15868,41142,48920
15814,41104,48850
15694,41004,48702
15501,40842,48484
15373,40749,48340
15310,40717,48258
15178,40615,48098
14990,40457,47884
14880,40372,47753
14826,40337,47669
14698,40227,47497
14528,40079,47287
14441,40018,47172
14400,40001,47102
14275,39905,46947
14117,39784,46772
14054,39756,46701
14024,39752,46653
13899,39656,46501
13745,39535,46328
13685,39501,46248
13643,39476,46173
13507,39357,45999
13361,39233,45825
13311,39202,45751
13269,39176,45677
13140,39064,45512
13020,38959,45365
12997,38945,45314
12967,38919,45250
12849,38813,45103
12754,38737,44996
12755,38749,44987
12737,38736,44947
12641,38649,44829
12582,38601,44765
12603,38628,44780
12577,38603,44734
12466,38500,44602
12404,38446,44530
12416,38464,44531
12370,38428,44464
12252,38329,44325
12195,38292,44256
12205,38316,44251
12147,38271,44166
12023,38167,44020
11969,38134,43955
11976,38152,43947
11911,38096,43858
11794,37993,43725
11757,37972,43686
11776,38000,43695
11734,37961,43634
11684,37914,43578
11766,37988,43677
11944,38137,43880
12100,38246,44071
12293,38382,44327
12647,38664,44767
13091,39016,45306
13495,39321,45819
13922,39649,46380
14468,40089,47076
15036,40543,47790
15506,40898,48404
15958,41239,49006
16481,41653,49675
16972,42035,50288
17334,42297,50753
17663,42543,51187
18035,42846,51661
18344,43093,52048
18518,43219,52289
18669,43339,52515
18856,43504,52766
18962,43590,52907
18948,43564,52912
18947,43561,52929
18996,43614,52985
18970,43596,52941
18849,43492,52794
18767,43435,52694
18742,43432,52645
18639,43351,52501
18457,43196,52277
18332,43102,52123
18260,43060,52021
18109,42937,51825
17893,42756,51567
17742,42648,51388
17637,42585,51250
17449,42437,51016
17211,42244,50733
17055,42131,50539
16938,42050,50372
16729,41879,50100
16484,41677,49797
16327,41566,49594
16202,41482,49416
15988,41307,49141
15754,41114,48858
15621,41018,48686
15518,40944,48537
15332,40788,48302
15149,40637,48084
15073,40588,47986
15016,40552,47905
14882,40441,47751
14770,40355,47634
14771,40374,47633
14784,40392,47629
14730,40338,47556
14714,40323,47538
14800,40402,47631
14875,40456,47701
14880,40441,47705
14934,40477,47778
15079,40601,47947
15187,40685,48068
15221,40695,48113
15305,40756,48220
15462,40886,48398
15552,40952,48500
15559,40941,48521
15616,40984,48597
15729,41080,48717
15761,41096,48743
15715,41044,48698
15727,41055,48719
15783,41109,48777
15748,41079,48736
15647,40991,48634
15614,40970,48602
15615,40980,48592
15522,40901,48477
15381,40782,48317
15320,40745,48243
15291,40735,48190
15168,40633,48033
15015,40505,47852
14951,40464,47763
14904,40435,47679
14758,40310,47489
14590,40169,47287
14507,40113,47179
14423,40056,47066
14237,39903,46849
14044,39750,46632
13942,39685,46505
13836,39613,46367
13646,39457,46144
13476,39324,45951
13404,39282,45852
13319,39220,45724
13153,39080,45509
13018,38974,45338
12967,38948,45254
12878,38881,45124
12708,38738,44918
12586,38646,44777
12548,38632,44719
12465,38569,44603
12311,38437,44418
12214,38365,44299
12185,38356,44244
12090,38283,44118
11933,38151,43935
11849,38092,43835
11832,38093,43796
11747,38027,43680
11611,37916,43519
11555,37886,43452
11557,37908,43440
11487,37857,43351
11381,37771,43235
11362,37769,43218
11387,37800,43233
11326,37740,43152
11227,37648,43038
11213,37638,43016
11224,37648,43013
11141,37568,42909
11032,37470,42788
11012,37461,42760
11010,37462,42735
10917,37377,42618
10820,37296,42512
10826,37314,42514
10853,37347,42528
10815,37312,42478
10819,37318,42492
10960,37451,42660
11143,37610,42872
11293,37735,43070
11524,37931,43381
11905,38245,43862
12316,38563,44375
12691,38837,44867
13142,39181,45458
13704,39622,46167
14233,40023,46839
14682,40350,47433
15170,40722,48071
15708,41150,48753
16157,41498,49332
16500,41754,49802
16870,42047,50295
17265,42368,50792
17551,42584,51148
17732,42704,51381
17940,42862,51639
18157,43038,51892
18253,43104,52001
18254,43092,52012
18296,43132,52066
18347,43188,52119
18284,43138,52041
18156,43031,51901
18091,42994,51833
18041,42972,51768
17890,42853,51586
17707,42706,51375
17615,42647,51260
17541,42603,51154
17371,42463,50942
17181,42309,50718
17081,42243,50587
16984,42177,50448
16786,42017,50205
16582,41855,49965
16467,41776,49813
16339,41681,49633
16116,41493,49351
15902,41319,49088
15772,41223,48912
15616,41099,48701
15373,40896,48407
15163,40731,48163
15043,40652,48010
14898,40540,47819
14688,40364,47565
14538,40252,47389
14484,40229,47313
14402,40169,47198
14273,40058,47040
14229,40026,46983
14277,40075,47024
14284,40079,47020
14246,40038,46980
14293,40077,47039
14415,40181,47170
14476,40219,47232
14493,40215,47259
14594,40294,47384
14746,40418,47556
14818,40463,47637
14842,40471,47679
14942,40560,47812
15074,40677,47969
15116,40699,48020
15121,40685,48036
15206,40756,48138
15303,40842,48246
15294,40828,48238
15254,40784,48201
15294,40820,48245
15332,40856,48274
15262,40790,48187
15172,40710,48088
15165,40712,48070
15148,40706,48029
15031,40609,47886
14917,40516,47756
14887,40506,47711
14836,40475,47630
14689,40357,47458
14562,40262,47319
14514,40239,47256
14427,40170,47136
14255,40018,46930
14122,39907,46775
14067,39872,46696
13963,39787,46554
13779,39630,46333
13647,39528,46177
13589,39495,46096
13476,39405,45948
13297,39254,45741
13184,39172,45615
13141,39155,45553
13036,39073,45418
12878,38940,45234
12802,38887,45138
12790,38890,45100
12706,38823,44982
12578,38714,44824
12534,38685,44760
12535,38693,44732
12453,38617,44610
12334,38512,44461
12302,38497,44412
12302,38511,44393
12212,38433,44278
12099,38333,44147
12080,38323,44116
12081,38328,44097
11988,38248,43983
11882,38166,43868
11870,38176,43856
11865,38188,43842
11769,38111,43730
11676,38041,43630
11680,38062,43629
11682,38072,43614
11595,37995,43513
11527,37937,43448
11559,37970,43487
11595,37997,43514
11583,37974,43496
11646,38024,43579
11845,38196,43814
12063,38373,44078
12262,38526,44347
12575,38778,44760
13030,39151,45330
13487,39509,45911
13912,39828,46477
14424,40225,47148
15019,40694,47903
15553,41097,48587
16010,41430,49193
16507,41814,49847
17030,42225,50512
17440,42533,51036
17753,42761,51453
18099,43040,51902
18446,43330,52335
18666,43503,52617
18798,43603,52811
18975,43757,53057
19153,43912,53285
19208,43947,53365
19199,43931,53378
19255,43986,53452
19313,44043,53507
19255,43988,53432
19156,43901,53321
19131,43892,53285
19099,43875,53227
18953,43748,53045
18782,43608,52849
18691,43550,52738
18589,43479,52602
18387,43310,52356
18186,43148,52120
18074,43068,51969
17946,42966,51787
17730,42780,51518
17537,42627,51288
17427,42554,51143
17285,42444,50948
17061,42257,50667
16874,42114,50433
16762,42044,50270
16598,41920,50044
16358,41722,49747
16173,41580,49523
16066,41512,49379
15912,41392,49179
15709,41221,48931
15590,41126,48781
15554,41102,48718
15473,41027,48611
15357,40920,48483
15337,40905,48463
15391,40954,48513
15386,40940,48501
15351,40900,48472
15410,40951,48552
15523,41051,48682
15564,41078,48730
15582,41084,48761
15695,41185,48898
15839,41315,49062
15889,41354,49130
15916,41371,49187
16031,41474,49338
16159,41581,49483
16184,41585,49508
16185,41570,49513
16264,41636,49601
16338,41697,49675
16311,41665,49645
16281,41635,49623
16338,41684,49687
16371,41713,49715
16295,41651,49634
16225,41605,49567
16238,41636,49577
16221,41631,49535
16115,41541,49393
16034,41483,49290
16025,41494,49263
15966,41451,49174
15820,41326,49000
15713,41245,48880
15677,41231,48834
15587,41157,48722
15427,41015,48541
15329,40935,48430
15297,40918,48382
15194,40834,48258
15024,40692,48074
14920,40616,47966
14874,40590,47907
14752,40491,47763
14582,40351,47573
14495,40291,47473
14461,40275,47415
14351,40181,47271
14205,40055,47097
14145,40015,47021
14118,40008,46972
14007,39917,46830
13873,39802,46667
13836,39780,46603
13831,39782,46559
13741,39693,46425
13632,39590,46289
13613,39578,46254
13606,39574,46223
13508,39484,46096
13405,39395,45973
13392,39393,45943
13372,39382,45895
13258,39285,45753
13154,39207,45637
13142,39217,45613
13115,39203,45562
13006,39108,45429
12926,39048,45342
12928,39067,45342
12894,39049,45292
12780,38953,45161
12709,38904,45089
12719,38933,45101
12687,38918,45060
12600,38846,44965
12599,38852,44970
12714,38956,45094
12832,39045,45221
12956,39126,45375
13214,39326,45697
13601,39635,46168
13981,39923,46650
14357,40206,47159
14853,40601,47814
15432,41069,48557
15953,41471,49238
16431,41837,49888
16983,42282,50619
17557,42746,51351
18016,43099,51943
18405,43391,52456
18839,43740,53016
19256,44075,53540
19534,44278,53905
19744,44426,54195
19999,44634,54524
20223,44819,54799
20307,44873,54918
20343,44888,54986
20435,44966,55103
20493,45016,55164
20423,44951,55085
20326,44874,54987
20297,44873,54954
20243,44844,54874
20091,44721,54688
19949,44617,54525
19884,44591,54445
19787,44527,54313
19603,44381,54090
19453,44274,53911
19381,44236,53805
19260,44143,53634
19057,43972,53382
18904,43850,53193
18824,43797,53077
18687,43684,52892
18480,43506,52638
18334,43389,52456
18252,43329,52335
18109,43199,52131
17907,43014,51871
17774,42904,51695
17696,42849,51572
17551,42726,51371
17369,42566,51137
17275,42496,51007
17235,42477,50931
17123,42387,50780
16989,42276,50619
16957,42261,50577
16967,42284,50581
16897,42226,50505
16814,42154,50426
16839,42184,50464
16903,42245,50538
16892,42230,50538
16879,42218,50553
16969,42303,50677
17075,42395,50806
17097,42400,50839
17125,42411,50883
17248,42511,51025
17364,42602,51148
17383,42602,51175
17408,42617,51221
17515,42711,51347
17590,42772,51426
17569,42741,51407
17566,42738,51423
17634,42805,51513
17654,42820,51535
17585,42751,51459
17552,42726,51428
17587,42768,51462
17560,42749,51418
17448,42653,51288
17387,42609,51218
17394,42625,51207
17336,42575,51115
17205,42458,50954
17131,42404,50863
17107,42399,50823
17004,42315,50694
16839,42177,50510
16742,42110,50406
16694,42085,50340
16569,41978,50179
16400,41831,49979
16309,41768,49871
16255,41741,49788
16116,41627,49604
15947,41483,49395
15864,41427,49284
15806,41391,49191
15660,41262,49001
15498,41117,48805
15431,41066,48711
15381,41029,48625
15246,40908,48450
15106,40787,48284
15063,40761,48220
15025,40737,48155
14900,40630,48004
14783,40536,47870
14753,40526,47825
14709,40497,47755
14581,40387,47603
14474,40303,47490
14454,40300,47462
14407,40267,47392
14286,40161,47247
14204,40100,47154
14204,40116,47139
14160,40085,47067
14043,39981,46924
13979,39930,46846
13992,39947,46842
13953,39909,46774
13847,39811,46644
13802,39777,46588
13818,39800,46589
13762,39754,46512
13648,39656,46383
13609,39633,46336
13626,39659,46337
13567,39606,46253
13459,39508,46130
13432,39491,46102
13454,39517,46119
13407,39473,46061
13352,39422,46007
13426,39490,46099
13584,39627,46280
13709,39725,46444
13877,39859,46679
14213,40139,47104
14643,40487,47636
15045,40795,48162
15485,41137,48752
16047,41599,49479
16635,42080,50224
17141,42474,50882
17642,42865,51543
18213,43330,52273
18751,43762,52952
19171,44083,53505
19569,44394,54044
20007,44754,54618
20382,45052,55097
20632,45237,55433
20868,45425,55756
21135,45654,56101
21320,45803,56338
21385,45839,56442
21449,45884,56546
21542,45965,56665
21551,45966,56673
21463,45879,56574
21402,45828,56505
21381,45815,56464
21281,45725,56327
21110,45571,56118
20996,45477,55970
20924,45425,55858
20772,45298,55657
20566,45128,55409
20437,45039,55247
20357,44994,55130
20200,44869,54925
20005,44708,54690
19895,44634,54555
19821,44591,54452
19665,44460,54252
19483,44304,54030
19392,44235,53903
19324,44184,53788
19159,44039,53569
18966,43877,53331
18853,43797,53183
18746,43720,53034
18550,43553,52790
18356,43392,52558
18260,43327,52431
18171,43264,52305
18007,43125,52105
17870,43016,51949
17844,43007,51905
17825,42993,51855
17744,42916,51744
17711,42889,51702
17779,42961,51772
17827,43006,51817
17805,42982,51802
17835,43010,51859
17952,43118,52005
18029,43179,52095
18038,43172,52111
18099,43217,52190
18227,43321,52331
18290,43360,52394
18281,43331,52388
18326,43363,52449
18420,43446,52556
18431,43451,52570
18376,43399,52522
18386,43416,52547
18437,43471,52606
18405,43442,52566
18325,43370,52477
18316,43372,52467
18337,43402,52477
18270,43341,52381
18164,43245,52248
18134,43230,52203
18117,43228,52166
17998,43129,52017
17848,43007,51846
17784,42970,51768
17734,42942,51691
17591,42824,51516
17441,42701,51344
17383,42669,51272
17324,42635,51189
17167,42510,51008
17013,42394,50839
16950,42362,50758
16876,42311,50649
16715,42172,50451
16571,42055,50288
16513,42015,50210
16427,41943,50085
16263,41799,49875
16133,41696,49712
16078,41666,49626
15978,41588,49485
15808,41442,49274
15695,41352,49130
15656,41331,49059
15563,41254,48923
15408,41116,48728
15315,41041,48615
15286,41025,48571
15194,40945,48459
15044,40815,48296
14965,40757,48217
14944,40752,48189
14857,40678,48082
14728,40563,47936
14674,40528,47877
14662,40532,47856
14576,40461,47753
14459,40362,47627
14432,40349,47594
14442,40365,47589
14370,40299,47494
14271,40210,47380
14259,40208,47355
14263,40220,47337
14176,40143,47223
14074,40058,47108
14058,40059,47085
14046,40059,47056
13943,39970,46929
13838,39880,46809
13823,39875,46779
13800,39862,46730
13686,39765,46595
13587,39690,46490
13579,39701,46477
13566,39696,46447
13495,39630,46364
13490,39628,46370
13613,39740,46520
13755,39856,46693
13888,39952,46871
14139,40151,47195
14537,40476,47686
14949,40799,48203
15348,41103,48726
15848,41501,49376
16443,41985,50126
16992,42417,50821
17479,42790,51454
18012,43217,52141
18572,43677,52848
19025,44035,53430
19385,44311,53914
19769,44619,54423
20147,44923,54906
20397,45106,55236
20560,45216,55473
20754,45371,55742
20932,45518,55976
20986,45548,56059
20978,45525,56074
21024,45562,56139
21061,45595,56180
20987,45525,56095
20872,45426,55973
20815,45392,55906
20749,45346,55807
20585,45204,55592
20404,45053,55367
20296,44976,55220
20174,44887,55047
19962,44715,54778
19760,44556,54528
19643,44476,54363
19510,44376,54177
19304,44208,53923
19129,44072,53712
19035,44008,53578
18909,43907,53397
18705,43733,53136
18531,43596,52921
18424,43520,52774
18271,43393,52567
18056,43205,52296
17902,43074,52094
17820,43012,51962
17687,42904,51774
17500,42750,51539
17383,42666,51392
17331,42641,51310
17223,42560,51167
17073,42442,50997
17005,42400,50927
17006,42415,50920
16961,42376,50850
16894,42316,50767
16921,42346,50800
17004,42420,50888
17023,42423,50902
17021,42406,50900
17110,42479,50997
17225,42579,51121
17252,42598,51159
17261,42604,51188
17363,42696,51313
17482,42798,51446
17510,42809,51483
17524,42808,51512
17612,42878,51617
17685,42936,51698
17658,42904,51674
17617,42870,51648
17642,42903,51689
17643,42909,51689
17548,42826,51584
17461,42752,51492
17446,42743,51470
17400,42698,51398
17272,42580,51241
17170,42499,51127
17135,42485,51081
17049,42422,50971
16886,42289,50779
16765,42201,50641
16712,42173,50565
16607,42091,50423
16440,41950,50217
16328,41863,50075
16271,41827,49984
16148,41726,49816
15966,41572,49597
15848,41482,49457
15781,41438,49361
15646,41327,49181
15464,41175,48954
15353,41095,48809
15279,41050,48703
15128,40929,48518
14944,40778,48314
14842,40707,48204
14772,40665,48120
14625,40547,47946
14459,40412,47758
14383,40360,47664
14332,40326,47583
14200,40213,47416
14064,40099,47254
14022,40074,47189
13988,40056,47126
13872,39958,46978
13757,39861,46841
13726,39841,46794
13688,39811,46734
13567,39706,46591
13459,39617,46469
13430,39600,46422
13379,39563,46342
13252,39460,46188
13155,39391,46078
13133,39391,46043
13078,39352,45958
12952,39247,45801
12872,39190,45706
12865,39200,45689
12813,39164,45620
12699,39074,45495
12645,39041,45439
12659,39066,45445
12618,39035,45384
12527,38955,45277
12514,38948,45262
12575,39005,45321
12600,39021,45343
12620,39026,45378
12764,39142,45559
13013,39344,45856
13252,39525,46156
13511,39722,46507
13902,40041,47023
14379,40429,47636
14820,40768,48214
15264,41104,48811
15809,41539,49524
16380,41997,50252
16851,42361,50866
17277,42692,51433
17757,43083,52048
18207,43448,52612
18522,43689,53025
18795,43901,53399
19127,44181,53828
19407,44413,54173
19525,44495,54336
19600,44549,54459
19739,44672,54637
19820,44744,54730
19759,44686,54664
19691,44635,54602
19701,44660,54613
19655,44628,54541
19494,44492,54346
19369,44403,54202
19330,44397,54144
19225,44319,54002
19020,44146,53756
18859,44022,53568
18757,43953,53436
18584,43812,53218
18339,43603,52925
18147,43454,52697
18007,43355,52520
17799,43184,52260
17537,42958,51941
17349,42802,51701
17217,42700,51513
17020,42535,51247
16789,42341,50953
16645,42230,50759
16547,42158,50611
16375,42011,50382
16180,41845,50140
16083,41775,50013
16029,41743,49928
15899,41638,49763
15758,41527,49603
15724,41513,49560
15726,41526,49544
15654,41468,49452
15587,41421,49379
15627,41473,49425
15686,41534,49488
15674,41521,49483
15688,41527,49519
15812,41631,49672
15943,41734,49820
15997,41762,49891
16072,41815,49998
16231,41946,50193
16362,42047,50345
16406,42067,50405
16476,42117,50499
16612,42231,50656
16691,42292,50740
16681,42274,50733
16706,42295,50771
16787,42366,50864
16798,42368,50875
16728,42299,50804
16707,42286,50790
16738,42323,50824
16693,42285,50766
16577,42181,50635
16521,42143,50575
16512,42152,50557
16423,42082,50445
16279,41962,50278
16207,41913,50189
16172,41899,50128
16043,41798,49967
15861,41658,49766
15760,41603,49664
15697,41579,49591
15550,41465,49421
15381,41329,49232
15313,41286,49145
15272,41261,49066
15134,41142,48880
14977,41009,48687
14914,40967,48599
14859,40927,48511
14707,40794,48322
14550,40658,48140
14487,40612,48055
14422,40556,47957
14264,40412,47765
14116,40284,47596
14063,40243,47520
13996,40183,47413
13842,40045,47220
13714,39942,47074
13672,39923,47018
13601,39870,46915
13454,39746,46733
13354,39672,46613
13332,39670,46573
13259,39614,46475
13114,39491,46309
13031,39433,46216
13024,39443,46193
12961,39391,46103
12836,39282,45959
12784,39247,45899
12795,39269,45901
12734,39216,45825
12618,39114,45701
12579,39086,45663
12590,39104,45666
12522,39047,45581
12415,38957,45466
12405,38962,45464
12459,39021,45524
12462,39021,45528
12479,39032,45563
12640,39177,45766
12892,39399,46068
13116,39588,46355
13383,39812,46716
13800,40169,47260
14288,40573,47878
14727,40918,48448
15188,41279,49061
15754,41733,49793
16319,42177,50513
16777,42518,51118
17218,42845,51712
17720,43233,52359
18173,43574,52930
18496,43799,53359
18794,44018,53770
19134,44286,54207
19400,44486,54534
19537,44576,54713
19661,44674,54887
19815,44811,55082
19876,44863,55158
19818,44809,55107
19780,44783,55080
19791,44803,55087
19719,44744,54988
19555,44603,54794
19440,44515,54657
19377,44479,54568
19236,44365,54383
19027,44190,54132
18884,44087,53960
18796,44031,53832
18629,43894,53609
18410,43711,53339
18269,43607,53163
18171,43542,53025
17988,43392,52788
17770,43208,52519
17641,43109,52349
17541,43034,52197
17339,42862,51935
17100,42663,51647
16953,42555,51454
16831,42465,51268
16619,42291,50984
16400,42116,50708
16287,42044,50551
16195,41984,50409
16025,41845,50191
15874,41726,50010
15841,41715,49957
15825,41710,49914
15739,41635,49806
15687,41591,49750
15738,41637,49803
15780,41665,49837
15751,41624,49806
15761,41627,49838
15860,41716,49967
15928,41773,50053
15930,41769,50072
15992,41826,50166
16141,41963,50348
16243,42047,50469
16277,42062,50520
16373,42135,50638
16534,42267,50813
16616,42323,50900
16617,42306,50915
16673,42348,50997
16769,42433,51113
16772,42432,51119
16704,42370,51059
16700,42376,51071
16728,42414,51105
16659,42355,51023
16535,42249,50890
16490,42223,50847
16479,42224,50826
16372,42130,50693
16230,42004,50527
16180,41969,50457
16154,41954,50403
16031,41849,50248
15886,41732,50084
15837,41705,50016
15796,41680,49941
15656,41561,49760
15509,41439,49582
15454,41402,49498
15394,41356,49400
15238,41223,49207
15087,41102,49034
15019,41061,48945
14927,40990,48817
14747,40831,48596
14593,40700,48415
14524,40647,48327
14424,40559,48202
14250,40405,48009
14125,40306,47882
14085,40287,47840
13997,40221,47737
13836,40088,47558
13734,40013,47446
13707,40003,47402
13622,39929,47289
13473,39794,47114
13391,39725,47013
13374,39715,46970
13292,39640,46851
13157,39522,46687
13103,39486,46616
13108,39503,46599
13039,39450,46499
12927,39358,46366
12902,39348,46332
12925,39375,46336
12865,39319,46248
12765,39232,46133
12755,39228,46116
12772,39246,46119
12692,39167,46021
12586,39070,45909
12576,39066,45892
12583,39071,45874
12491,38982,45746
12385,38889,45615
12373,38887,45590
12376,38895,45576
12308,38835,45499
12284,38814,45486
12409,38922,45633
12587,39063,45834
12744,39175,46034
12990,39370,46366
13393,39700,46880
13835,40048,47439
14254,40363,47996
14752,40754,48665
15357,41243,49454
15929,41691,50198
16420,42066,50856
16950,42486,51558
17531,42956,52299
18023,43341,52928
18406,43634,53442
18810,43958,53980
19232,44305,54525
19537,44545,54928
19737,44692,55215
19964,44872,55527
20198,45058,55826
20305,45126,55971
20315,45115,56007
20365,45152,56077
20423,45196,56127
20363,45126,56033
20237,45003,55871
20172,44951,55778
20116,44912,55688
19954,44773,55480
19754,44604,55243
19638,44522,55098
19538,44450,54954
19339,44283,54702
19127,44110,54448
19014,44033,54303
18916,43963,54160
18731,43803,53921
18551,43649,53694
18463,43587,53566
18362,43513,53420
18165,43347,53179
17977,43193,52962
17876,43118,52828
17748,43013,52649
17532,42828,52379
17347,42681,52157
17250,42612,52021
17120,42500,51838
16923,42323,51589
16789,42208,51419
16748,42182,51344
16669,42117,51226
16538,42002,51062
16489,41965,50995
16528,42003,51022
16518,41988,50998
16461,41928,50936
16485,41947,50972
16577,42027,51073
16603,42038,51098
16585,42005,51088
16653,42053,51180
16776,42153,51323
16822,42176,51377
16820,42162,51396
16894,42231,51511
16999,42327,51650
17014,42330,51678
16999,42301,51673
17072,42357,51762
17162,42427,51860
17146,42397,51844
17096,42343,51802
17127,42371,51842
17160,42398,51863
17090,42327,51763
17005,42249,51654
17001,42254,51631
16978,42242,51578
16851,42134,51417
16726,42036,51275
16690,42025,51228
16637,41993,51151
16497,41875,50986
16379,41782,50856
16344,41767,50805
16275,41711,50700
16125,41579,50509
16016,41490,50373
15981,41470,50313
15894,41396,50186
15731,41250,49979
15617,41155,49833
15568,41120,49752
15453,41018,49592
15268,40854,49364
15145,40756,49213
15083,40715,49122
14952,40602,48953
14768,40443,48739
14665,40365,48619
14622,40341,48549
14506,40245,48398
14351,40114,48218
14286,40067,48138
14264,40055,48093
14156,39960,47956
14015,39835,47794
13968,39796,47729
13954,39780,47682
13845,39675,47539
13709,39555,47385
13664,39523,47328
13637,39507,47277
13524,39413,47131
13409,39324,46992
13388,39323,46951
13369,39324,46905
13264,39240,46774
13166,39164,46669
13164,39173,46659
13158,39169,46630
13072,39086,46517
13007,39029,46438
13023,39049,46445
13012,39039,46413
12919,38953,46303
12859,38902,46238
12874,38921,46245
12843,38895,46192
12732,38800,46061
12667,38755,45989
12672,38775,45985
12623,38739,45912
12512,38643,45777
12475,38616,45726
12523,38660,45760
12541,38663,45760
12545,38648,45763
12674,38750,45915
12919,38955,46195
13154,39141,46482
13404,39337,46817
13799,39660,47327
14297,40065,47954
14762,40425,48559
15221,40777,49182
15786,41230,49930
16388,41714,50711
16891,42101,51377
17348,42450,51996
17870,42867,52677
18378,43274,53326
18753,43564,53833
19073,43816,54286
19447,44128,54778
19786,44406,55208
19990,44557,55480
20149,44674,55704
20353,44845,55966
20506,44972,56154
20526,44978,56195
20519,44970,56213
20563,45017,56271
20557,45017,56252
20445,44919,56113
20347,44841,55992
20314,44828,55930
20230,44761,55798
20058,44609,55576
19922,44498,55405
19854,44455,55302
19727,44351,55130
19525,44173,54884
19382,44053,54708
19306,43998,54599
19169,43883,54416
18967,43712,54173
18832,43610,54011
18760,43561,53902
18617,43439,53704
18419,43267,53452
18293,43172,53284
18217,43121,53156
18061,42990,52935
17860,42818,52679
17741,42725,52517
17657,42664,52385
17492,42522,52160
17305,42362,51924
17217,42298,51804
17169,42268,51723
17048,42162,51566
16925,42057,51420
16916,42059,51399
16944,42087,51412
16900,42045,51356
16867,42018,51329
16942,42092,51419
17028,42173,51516
17031,42177,51531
17049,42195,51571
17161,42297,51705
17263,42380,51815
17281,42376,51836
17318,42396,51892
17433,42488,52029
17510,42539,52112
17502,42509,52107
17522,42517,52145
17609,42589,52251
17641,42608,52292
17592,42556,52249
17592,42556,52258
17655,42617,52320
17653,42612,52294
17577,42537,52191
17552,42516,52149
17574,42541,52152
17514,42490,52063
17384,42380,51908
17314,42334,51825
17284,42325,51777
17167,42229,51629
16997,42085,51435
16904,42014,51328
16851,41974,51249
16711,41851,51068
16537,41699,50858
16451,41639,50749
16396,41609,50668
16254,41496,50491
16093,41368,50301
16029,41331,50216
15988,41310,50143
15858,41202,49973
15719,41089,49801
15672,41062,49725
15626,41032,49639
15486,40909,49451
15345,40785,49272
15292,40742,49183
15231,40686,49071
15082,40551,48872
14954,40441,48712
14919,40419,48649
14870,40376,48558
14746,40264,48395
14658,40196,48297
14652,40206,48292
14607,40174,48241
14489,40073,48121
14423,40023,48065
14435,40043,48082
14398,40011,48033
14288,39912,47916
14234,39868,47866
14242,39881,47870
14183,39831,47790
14065,39728,47653
14024,39703,47602
14048,39739,47608
14005,39708,47535
13917,39633,47420
13913,39631,47398
13959,39673,47421
13921,39639,47359
13841,39572,47271
13846,39587,47280
13883,39628,47312
13830,39580,47243
13747,39508,47146
13755,39523,47145
13790,39558,47159
13742,39508,47082
13688,39453,47013
13741,39498,47065
13830,39572,47153
13869,39593,47200
13958,39659,47325
14204,39866,47626
14515,40120,48001
14804,40345,48376
15170,40641,48864
15685,41068,49521
16225,41508,50209
16707,41891,50853
17229,42316,51563
17835,42818,52360
18396,43270,53095
18866,43634,53726
19359,44027,54381
19893,44467,55070
20338,44824,55646
20666,45080,56095
21001,45356,56550
21351,45651,57005
21586,45835,57319
21708,45918,57508
21853,46034,57715
22019,46174,57924
22077,46213,58001
22047,46173,57984
22058,46182,58009
22086,46212,58036
22010,46142,57936
21869,46018,57768
21790,45960,57665
21731,45923,57571
21574,45786,57362
21374,45610,57115
21256,45515,56959
21162,45441,56820
20976,45279,56584
20767,45105,56339
20647,45022,56190
20540,44947,56045
20342,44782,55801
20140,44613,55557
20032,44532,55406
19927,44447,55243
19730,44276,54981
19541,44118,54734
19444,44045,54579
19338,43955,54400
19149,43787,54139
18983,43649,53922
18902,43594,53798
18796,43512,53639
18620,43363,53415
18496,43268,53264
18461,43258,53213
18395,43214,53126
18274,43113,52990
18227,43078,52945
18271,43121,52995
18279,43122,52997
18238,43074,52951
18270,43096,52993
18376,43184,53109
18428,43215,53162
18433,43203,53174
18511,43265,53272
18640,43374,53418
18693,43409,53479
18694,43398,53499
18768,43460,53604
18878,43554,53734
18899,43562,53758
18874,43534,53741
18919,43582,53805
18984,43649,53878
18948,43620,53839
18876,43557,53769
18884,43568,53778
18901,43583,53782
18816,43498,53672
18702,43393,53541
18666,43364,53486
18628,43329,53411
18493,43202,53230
18347,43074,53050
18279,43027,52955
18200,42965,52836
18031,42818,52623
17876,42692,52438
17807,42649,52342
17718,42583,52214
17552,42442,52008
17416,42337,51848
17355,42302,51767
17253,42222,51630
17075,42076,51416
16943,41982,51259
16886,41955,51170
16779,41872,51016
16601,41721,50795
16477,41624,50640
16416,41582,50544
16291,41476,50374
16106,41319,50152
15991,41232,50012
15935,41200,49925
15813,41101,49760
15644,40961,49556
15554,40898,49442
15512,40878,49369
15396,40787,49210
15243,40664,49024
15173,40622,48938
15140,40609,48882
15025,40515,48733
14885,40399,48567
14836,40368,48504
14809,40355,48458
14693,40257,48315
14564,40150,48170
14532,40133,48129
14518,40124,48096
14427,40036,47976
14341,39953,47871
14347,39956,47864
14348,39955,47844
14262,39876,47738
14186,39815,47656
14200,39837,47662
14200,39839,47640
14119,39767,47536
14066,39728,47476
14094,39763,47497
14081,39754,47463
13981,39667,47339
13919,39620,47263
13929,39641,47258
13887,39608,47186
13769,39505,47044
13709,39461,46973
13726,39488,46980
13694,39466,46935
13621,39403,46860
13651,39434,46908
13791,39557,47076
13919,39658,47243
14057,39765,47446
14341,40002,47819
14744,40333,48323
15133,40636,48824
15535,40946,49364
16068,41376,50057
16669,41863,50815
17193,42272,51487
17684,42653,52133
18257,43120,52875
18833,43592,53613
19279,43944,54207
19670,44251,54743
20126,44628,55336
20554,44979,55876
20826,45183,56237
21048,45350,56549
21350,45602,56935
21612,45819,57252
21706,45886,57387
21775,45949,57508
21949,46124,57726
22056,46231,57838
21976,46161,57744
21902,46110,57676
21951,46178,57724
21922,46158,57657
21727,45980,57416
21590,45872,57256
21585,45892,57224
21479,45802,57063
21214,45566,56747
21034,45430,56541
20981,45417,56456
20818,45282,56236
20519,45011,55881
20299,44822,55620
20169,44718,55439
19938,44513,55138
19620,44231,54757
19409,44059,54496
19282,43964,54307
19053,43769,54004
18763,43523,53654
18602,43404,53452
18517,43349,53315
18325,43182,53055
18094,42980,52771
18003,42913,52649
17974,42897,52579
17834,42770,52389
17676,42630,52199
17669,42633,52173
17707,42673,52183
17630,42598,52075
17550,42528,51991
17621,42603,52073
17713,42691,52169
17681,42660,52139
17657,42642,52134
17771,42754,52271
17878,42851,52388
17861,42827,52382
17870,42837,52423
18009,42965,52589
18114,43049,52693
18100,43017,52671
18131,43040,52716
18270,43168,52872
18335,43216,52934
18271,43142,52869
18267,43135,52881
18361,43226,52983
18358,43218,52970
18235,43099,52840
18192,43062,52801
18241,43106,52839
18184,43044,52752
18027,42892,52569
17963,42837,52492
17973,42852,52476
17862,42749,52320
17664,42573,52088
17573,42513,51982
17543,42514,51929
17386,42390,51731
17169,42213,51482
17084,42163,51378
17050,42157,51316
16881,42019,51108
16672,41844,50873
16601,41802,50788
16566,41790,50722
16393,41647,50502
16192,41479,50266
16127,41436,50168
16077,41402,50063
15891,41243,49811
15701,41086,49573
15646,41062,49483
15583,41025,49374
15381,40852,49131
15195,40698,48925
15149,40671,48855
15085,40621,48744
14901,40459,48515
14758,40343,48351
14741,40337,48310
14691,40284,48210
14538,40134,48010
14442,40049,47895
14452,40061,47885
14396,40005,47791
14235,39860,47598
14143,39790,47494
14143,39803,47483
14064,39731,47381
13899,39584,47197
13824,39536,47115
13830,39567,47112
13742,39507,47004
13583,39379,46832
13529,39350,46780
13551,39385,46795
13474,39321,46701
13344,39208,46566
13335,39210,46562
13380,39257,46599
13305,39184,46501
13180,39070,46360
13172,39070,46342
13198,39101,46344
13098,39017,46214
12972,38914,46076
12991,38943,46092
13061,39010,46153
13045,38992,46132
13071,39011,46181
13285,39199,46438
13564,39433,46770
13782,39594,47062
14070,39818,47460
14541,40209,48064
15048,40618,48705
15473,40942,49275
15952,41321,49921
16560,41817,50687
17119,42257,51378
17542,42569,51928
17986,42918,52522
18504,43348,53189
18916,43680,53728
19179,43881,54108
19473,44119,54517
19828,44414,54963
20065,44593,55259
20166,44655,55414
20310,44774,55617
20498,44944,55846
20551,44984,55912
20486,44919,55854
20481,44924,55861
20514,44964,55887
20413,44873,55755
20223,44704,55535
20120,44628,55411
20059,44590,55315
19877,44432,55075
19638,44227,54786
19511,44136,54628
19421,44079,54497
19206,43901,54226
18957,43696,53931
18838,43612,53772
18746,43545,53624
18528,43354,53342
18289,43151,53056
18171,43068,52901
18057,42982,52735
17815,42771,52434
17570,42562,52144
17441,42469,51974
17299,42363,51777
17042,42154,51467
16817,41982,51200
16722,41928,51057
16617,41849,50885
16424,41684,50632
16293,41580,50466
16288,41588,50433
16255,41560,50365
16146,41461,50234
16123,41448,50218
16221,41543,50330
16269,41585,50381
16243,41554,50363
16306,41610,50451
16463,41754,50633
16546,41821,50727
16555,41817,50753
16655,41903,50888
16829,42057,51093
16904,42113,51184
16900,42099,51201
16984,42176,51321
17121,42299,51484
17148,42313,51522
17122,42280,51508
17203,42352,51608
17321,42453,51731
17308,42424,51707
17240,42348,51637
17274,42375,51679
17323,42416,51719
17234,42326,51611
17111,42212,51480
17106,42215,51473
17108,42225,51458
16979,42115,51303
16839,42005,51144
16813,42008,51101
16775,41993,51030
16610,41854,50832
16453,41729,50657
16412,41712,50595
16343,41658,50485
16153,41487,50253
15991,41351,50072
15936,41317,49999
15833,41232,49857
15621,41050,49609
15465,40937,49441
15418,40925,49381
15310,40843,49236
15109,40666,48993
14992,40574,48853
14981,40576,48813
14895,40499,48674
14723,40341,48443
14642,40273,48317
14646,40285,48274
14558,40205,48132
14389,40058,47925
14315,40007,47832
14305,40015,47802
14186,39916,47658
14005,39763,47467
13933,39720,47402
13911,39720,47378
13772,39605,47219
13593,39454,47026
13545,39430,46971
13542,39443,46948
13419,39339,46797
13272,39214,46640
13258,39213,46622
13271,39226,46613
13162,39122,46472
13038,39013,46331
13040,39026,46323
13051,39042,46312
12947,38949,46185
12870,38883,46103
12948,38957,46185
13054,39044,46288
13092,39066,46345
13217,39172,46529
13523,39438,46912
13856,39713,47323
14143,39935,47708
14535,40256,48237
15078,40713,48933
15592,41129,49598
16020,41460,50187
16524,41866,50867
17118,42356,51630
17612,42748,52272
17982,43030,52786
18402,43371,53351
18870,43756,53941
19199,44007,54368
19399,44144,54664
19652,44346,55013
19933,44584,55369
20065,44681,55545
20085,44683,55607
20174,44769,55742
20285,44880,55877
20249,44847,55834
20133,44746,55710
20112,44747,55688
20115,44765,55671
19980,44642,55497
19797,44479,55282
19730,44433,55189
19680,44400,55095
19493,44240,54851
19281,44064,54591
19186,44002,54452
19093,43932,54302
18869,43731,54014
18637,43527,53731
18520,43436,53564
18388,43327,53364
18129,43101,53036
17880,42898,52740
17746,42803,52557
17585,42676,52328
17320,42453,51993
17103,42283,51726
17005,42220,51579
16864,42107,51379
16631,41907,51092
16473,41781,50898
16429,41758,50819
16333,41682,50682
16162,41534,50475
16081,41474,50375
16108,41509,50379
16076,41477,50315
15980,41385,50206
15992,41398,50229
16101,41500,50348
16140,41530,50388
16127,41515,50389
16226,41606,50523
16397,41759,50725
16475,41817,50819
16505,41832,50872
16642,41954,51047
16817,42112,51253
16869,42149,51321
16870,42144,51347
16978,42244,51488
17102,42355,51633
17086,42331,51625
17030,42274,51586
17088,42322,51657
17150,42366,51709
17077,42281,51613
16988,42189,51511
17014,42209,51523
17031,42218,51509
16923,42110,51365
16822,42018,51244
16830,42033,51235
16808,42016,51177
16660,41891,50999
16536,41801,50869
16511,41807,50840
16433,41754,50732
16243,41595,50505
16102,41491,50343
16056,41477,50276
15941,41392,50123
15728,41216,49875
15591,41111,49717
15551,41086,49645
15435,40980,49479
15236,40798,49236
15128,40709,49101
15106,40697,49047
14999,40602,48893
14819,40446,48676
14729,40381,48566
14702,40372,48510
14576,40266,48342
14390,40110,48125
14303,40052,48024
14264,40035,47964
14121,39916,47786
13938,39761,47577
13865,39713,47489
13826,39690,47426
13673,39555,47244
13501,39404,47048
13458,39372,46980
13444,39365,46929
13322,39259,46769
13195,39155,46622
13191,39166,46603
13193,39177,46577
13079,39081,46434
12973,38994,46313
12985,39013,46310
12982,39008,46276
12864,38897,46132
12770,38818,46031
12783,38841,46038
12758,38823,45992
12626,38706,45842
12541,38640,45754
12560,38673,45768
12532,38657,45723
12425,38566,45608
12412,38567,45609
12539,38693,45755
12654,38795,45889
12747,38868,46025
12986,39073,46343
13382,39408,46834
13764,39709,47321
14132,39988,47821
14641,40398,48496
15257,40902,49280
15793,41321,49977
16274,41688,50632
16857,42157,51407
17479,42664,52211
17964,43039,52854
18368,43348,53416
18852,43746,54061
19334,44144,54685
19647,44384,55117
19880,44563,55466
20196,44832,55890
20493,45083,56265
20619,45173,56441
20684,45220,56553
20833,45358,56744
20952,45465,56875
20908,45415,56822
20829,45342,56736
20844,45364,56738
20817,45346,56675
20637,45189,56459
20453,45043,56263
20371,44998,56174
20252,44906,56024
20021,44703,55755
19839,44550,55548
19766,44506,55452
19638,44405,55280
19405,44206,54997
19239,44073,54790
19176,44034,54675
19037,43917,54464
18792,43704,54152
18619,43564,53928
18529,43501,53779
18343,43343,53516
18066,43104,53171
17881,42961,52937
17779,42893,52778
17588,42735,52513
17340,42527,52205
17215,42439,52045
17175,42425,51966
17049,42318,51786
16891,42181,51586
16867,42172,51542
16904,42213,51562
16836,42148,51474
16749,42065,51379
16803,42116,51437
16903,42205,51534
16888,42184,51517
16862,42159,51510
16977,42267,51652
17120,42392,51807
17148,42405,51841
17179,42427,51895
17338,42572,52089
17496,42707,52274
17530,42724,52334
17575,42757,52418
17732,42892,52612
17855,42989,52754
17850,42970,52766
17862,42982,52810
17966,43082,52936
18004,43109,52969
17919,43020,52873
17876,42984,52838
17929,43040,52892
17909,43018,52852
17780,42899,52704
17720,42855,52635
17754,42894,52646
17707,42849,52552
17570,42719,52371
17515,42672,52287
17532,42690,52273
17446,42607,52146
17277,42453,51948
17196,42391,51852
17173,42381,51802
17035,42262,51622
16830,42088,51386
16727,42020,51269
16668,41993,51192
16494,41852,50984
16276,41675,50741
16180,41616,50631
16124,41585,50548
15954,41435,50332
15766,41268,50104
15709,41228,50015
15678,41207,49937
15523,41068,49729
15355,40922,49521
15308,40892,49444
15257,40857,49355
15076,40704,49138
14902,40567,48939
14851,40546,48860
14791,40507,48753
14623,40360,48538
14492,40250,48381
14481,40251,48346
14433,40212,48259
14276,40075,48064
14169,39997,47943
14170,40018,47935
14117,39976,47859
13970,39840,47695
13901,39780,47624
13932,39811,47650
13882,39765,47586
13742,39635,47434
13686,39591,47372
13714,39623,47382
13646,39563,47284
13493,39430,47114
13433,39393,47050
13447,39421,47050
13366,39350,46943
13230,39227,46788
13211,39216,46760
13255,39260,46789
13199,39203,46707
13115,39126,46618
13182,39195,46701
13331,39330,46869
13408,39385,46972
13512,39467,47134
13811,39727,47514
14198,40056,47991
14515,40305,48423
14873,40591,48935
15414,41045,49652
16000,41528,50406
16479,41900,51054
16977,42295,51740
17609,42819,52559
18213,43312,53322
18657,43654,53914
19087,43997,54510
19605,44427,55182
20041,44775,55737
20307,44967,56106
20572,45176,56482
20903,45457,56913
21117,45627,57192
21168,45652,57292
21251,45724,57427
21407,45873,57617
21446,45905,57661
21348,45811,57561
21314,45785,57530
21358,45827,57559
21286,45752,57446
21104,45581,57231
21008,45504,57120
20979,45491,57062
20823,45355,56855
20580,45142,56567
20445,45041,56398
20371,44999,56276
20174,44837,56013
19922,44630,55705
19804,44556,55550
19737,44528,55440
19540,44367,55185
19303,44168,54901
19201,44098,54763
19129,44048,54643
18917,43861,54375
18683,43657,54102
18591,43588,53976
18512,43525,53846
18295,43330,53569
18076,43145,53307
18004,43103,53192
17931,43052,53060
17727,42878,52799
17556,42740,52595
17542,42744,52551
17520,42726,52483
17391,42602,52318
17329,42548,52253
17416,42633,52344
17468,42673,52385
17416,42617,52331
17449,42653,52389
17613,42812,52579
17707,42895,52685
17701,42879,52694
17790,42952,52813
17984,43119,53029
18078,43183,53127
18068,43152,53126
18157,43220,53236
18327,43363,53420
18368,43382,53465
18307,43316,53423
18349,43358,53497
18454,43461,53618
18428,43441,53590
18329,43357,53497
18344,43386,53533
18405,43449,53598
18325,43372,53501
18192,43252,53358
18186,43260,53351
18205,43290,53354
18076,43175,53194
17912,43031,53010
17883,43020,52969
17870,43019,52926
17712,42880,52732
17543,42739,52540
17516,42732,52490
17489,42716,52419
17319,42568,52201
17153,42437,52007
17116,42431,51948
17047,42389,51846
16840,42214,51612
16664,42071,51431
16612,42040,51374
16511,41957,51244
16293,41763,50986
16141,41638,50803
16107,41627,50733
16002,41543,50575
15788,41355,50307
15658,41252,50138
15638,41249,50074
15532,41155,49911
15332,40974,49664
15234,40895,49539
15232,40901,49505
15129,40805,49355
14941,40635,49133
14860,40576,49037
14857,40593,49012
14741,40502,48861
14557,40351,48653
14493,40318,48584
14496,40337,48571
14389,40241,48426
14239,40105,48246
14221,40097,48211
14243,40124,48208
14130,40025,48061
13986,39903,47902
13987,39917,47900
14019,39953,47923
13914,39862,47812
13797,39767,47705
13821,39804,47739
13851,39838,47758
13744,39739,47635
13641,39649,47531
13670,39682,47557
13683,39696,47548
13572,39595,47415
13493,39531,47329
13542,39582,47361
13552,39583,47331
13439,39468,47183
13374,39410,47108
13421,39463,47149
13403,39449,47111
13277,39334,46967
13231,39301,46920
13297,39374,46980
13282,39362,46943
13163,39255,46810
13129,39235,46777
13187,39297,46828
13150,39261,46767
13029,39144,46629
13016,39133,46615
13094,39208,46693
13092,39205,46695
13066,39178,46698
13215,39314,46907
13499,39564,47257
13743,39760,47572
14016,39977,47950
14495,40383,48572
15088,40880,49316
15598,41282,49979
16104,41679,50663
16767,42226,51524
17463,42795,52403
18001,43215,53116
18487,43600,53793
19073,44092,54575
19627,44549,55300
19992,44828,55818
20307,45073,56283
20710,45411,56815
21055,45690,57247
21217,45797,57473
21354,45891,57674
21574,46076,57946
21714,46188,58111
21689,46150,58104
21676,46137,58121
21754,46215,58216
21745,46200,58194
21593,46052,58025
21491,45968,57922
21490,45986,57911
21402,45913,57786
21195,45731,57541
21069,45637,57385
21042,45636,57315
20917,45534,57129
20692,45339,56849
20560,45239,56676
20509,45213,56576
20342,45074,56350
20089,44859,56054
19945,44754,55884
19867,44705,55769
19670,44535,55516
19416,44316,55212
19292,44228,55054
19226,44189,54942
19032,44023,54685
18798,43823,54400
18705,43763,54273
18655,43739,54181
18475,43588,53955
18282,43426,53729
18243,43408,53660
18232,43408,53604
18091,43282,53418
17959,43172,53265
17985,43212,53288
18028,43258,53318
17949,43186,53228
17903,43146,53191
18012,43246,53309
18111,43323,53400
18091,43283,53377
18116,43296,53431
18274,43433,53624
18384,43517,53750
18370,43490,53757
18418,43531,53846
18579,43680,54044
18661,43741,54141
18622,43688,54117
18656,43713,54178
18785,43828,54321
18809,43839,54336
18721,43748,54245
18720,43752,54255
18800,43830,54331
18765,43793,54271
18640,43677,54128
18623,43671,54103
18678,43728,54133
18608,43660,54019
18462,43522,53838
18424,43494,53784
18430,43509,53764
18297,43392,53592
18108,43230,53376
18052,43202,53310
18033,43208,53273
17873,43075,53084
17679,42914,52876
17624,42887,52816
17595,42875,52759
17429,42726,52546
17251,42570,52331
17214,42548,52261
17177,42522,52182
16997,42363,51962
16817,42219,51766
16771,42204,51707
16707,42163,51609
16512,41999,51384
16350,41872,51214
16318,41861,51166
16242,41796,51045
16040,41618,50795
15891,41506,50623
15859,41506,50573
15764,41434,50439
15561,41261,50199
15446,41174,50060
15452,41192,50031
15383,41130,49911
15217,40980,49705
15149,40930,49616
15184,40970,49622
15124,40910,49515
14977,40769,49329
14936,40733,49267
14973,40766,49274
14892,40683,49147
14735,40535,48955
14696,40507,48901
14722,40538,48903
14624,40446,48762
14474,40316,48588
14460,40324,48576
14499,40377,48611
14406,40303,48507
14281,40204,48385
14306,40245,48418
14368,40309,48468
14289,40235,48368
14190,40146,48263
14230,40189,48304
14266,40226,48330
14151,40122,48201
14034,40022,48084
14056,40052,48106
14069,40066,48100
13952,39962,47962
13861,39893,47874
13906,39948,47925
13914,39956,47918
13789,39842,47781
13707,39778,47712
13746,39828,47762
13729,39814,47724
13601,39697,47567
13555,39658,47508
13626,39725,47568
13616,39711,47535
13501,39601,47399
13472,39577,47359
13533,39638,47403
13491,39601,47335
13353,39483,47191
13327,39474,47177
13411,39556,47265
13422,39560,47278
13405,39539,47290
13569,39687,47512
13874,39952,47882
14123,40152,48207
14381,40361,48576
14841,40760,49188
15422,41252,49928
15916,41641,50580
16402,42019,51244
17055,42553,52087
17747,43115,52952
18272,43515,53640
18739,43875,54285
19318,44356,55046
19864,44806,55749
20207,45069,56233
20521,45323,56696
20985,45731,57295
21387,46074,57789
21536,46181,58013
21655,46278,58220
21921,46521,58553
22107,46682,58762
22075,46639,58743
22059,46632,58764
22179,46757,58908
22202,46775,58911
22046,46621,58724
21957,46546,58621
21993,46597,58635
21905,46524,58500
21656,46299,58208
21510,46176,58035
21495,46172,57976
21347,46036,57762
21061,45782,57421
20903,45663,57228
20861,45653,57141
20680,45500,56894
20393,45246,56554
20260,45145,56384
20228,45130,56299
20040,44955,56034
19763,44704,55697
19647,44622,55544
19602,44606,55447
19382,44417,55155
19097,44175,54819
18992,44112,54684
18940,44091,54592
18706,43891,54313
18441,43669,54024
18384,43644,53949
18376,43654,53901
18201,43496,53679
18033,43352,53488
18074,43408,53517
18135,43473,53550
18029,43373,53418
17950,43306,53348
18070,43424,53482
18179,43517,53579
18123,43452,53515
18119,43447,53537
18293,43608,53737
18412,43699,53852
18367,43635,53810
18397,43655,53874
18579,43821,54085
18660,43880,54167
18583,43788,54092
18610,43805,54138
18774,43954,54310
18810,43976,54326
18697,43866,54203
18700,43879,54221
18820,44001,54347
18794,43975,54307
18641,43836,54156
18624,43838,54161
18702,43923,54241
18614,43841,54126
18423,43665,53919
18390,43646,53887
18430,43691,53911
18293,43561,53729
18066,43352,53465
17970,43275,53348
17917,43235,53263
17718,43053,53019
17480,42843,52747
17388,42778,52627
17323,42733,52516
17111,42547,52251
16888,42357,51992
16815,42314,51897
16748,42272,51796
16537,42092,51546
16336,41928,51324
16287,41906,51256
16230,41867,51159
16035,41699,50922
15869,41564,50732
15839,41554,50675
15773,41497,50552
15576,41318,50299
15428,41198,50120
15401,41191,50064
15303,41105,49913
15081,40904,49639
14936,40788,49460
14908,40781,49395
14793,40686,49231
14577,40498,48971
14468,40416,48837
14469,40433,48809
14373,40351,48668
14189,40190,48448
14124,40148,48366
14153,40191,48371
14067,40119,48247
13902,39972,48055
13861,39944,48004
13891,39976,48010
13791,39881,47872
13629,39733,47689
13595,39717,47659
13607,39743,47671
13478,39634,47533
13312,39496,47369
13302,39505,47364
13337,39550,47390
13236,39467,47279
13124,39377,47169
13166,39429,47211
13222,39484,47248
13127,39394,47130
13028,39303,47024
13072,39347,47061
13107,39378,47067
12999,39278,46932
12908,39202,46835
12952,39251,46872
12959,39255,46850
12824,39133,46692
12726,39058,46599
12753,39098,46628
12722,39075,46574
12572,38944,46403
12500,38898,46335
12557,38970,46396
12549,38968,46376
12452,38881,46273
12485,38914,46320
12671,39081,46525
12814,39192,46688
12921,39265,46843
13204,39502,47209
13644,39879,47745
14025,40182,48229
14371,40445,48713
14893,40868,49401
15532,41393,50205
16059,41807,50889
16524,42174,51533
17139,42694,52348
17800,43250,53189
18252,43600,53794
18607,43869,54306
19111,44297,54970
19618,44731,55606
19878,44931,55969
20047,45058,56241
20364,45334,56645
20659,45582,56982
20709,45596,57049
20702,45570,57066
20849,45704,57233
20957,45796,57332
20834,45675,57199
20700,45559,57079
20739,45608,57121
20734,45604,57077
20532,45418,56827
20361,45283,56636
20350,45301,56601
20261,45227,56452
19992,44984,56124
19796,44831,55905
19756,44831,55840
19615,44724,55644
19321,44470,55291
19140,44326,55063
19107,44316,54967
18955,44184,54732
18670,43928,54372
18512,43803,54160
18474,43790,54062
18295,43638,53805
18002,43384,53450
17861,43275,53269
17822,43258,53180
17626,43088,52917
17344,42846,52588
17247,42787,52469
17248,42812,52435
17075,42659,52207
16841,42453,51944
16823,42456,51928
16896,42536,51992
16794,42444,51871
16663,42330,51743
16753,42426,51847
16897,42562,51986
16857,42516,51933
16802,42462,51891
16953,42601,52066
17119,42740,52237
17094,42694,52216
17082,42668,52234
17271,42833,52454
17443,42967,52626
17423,42922,52606
17431,42920,52642
17606,43078,52843
17713,43160,52942
17631,43068,52854
17603,43045,52852
17724,43167,52997
17733,43176,53001
17564,43021,52829
17482,42960,52760
17539,43027,52814
17475,42969,52719
17270,42782,52487
17198,42730,52409
17260,42803,52453
17176,42728,52323
16956,42528,52069
16876,42470,51977
16907,42514,51980
16778,42404,51801
16537,42198,51525
16444,42136,51415
16431,42142,51367
16248,41983,51128
15976,41745,50810
15836,41640,50645
15745,41571,50518
15514,41363,50237
15244,41124,49931
15121,41023,49782
15039,40955,49657
14831,40768,49397
14619,40584,49146
14556,40543,49049
14506,40510,48955
14321,40354,48730
14144,40212,48534
14108,40199,48484
14059,40167,48404
13880,40016,48193
13729,39900,48033
13712,39904,48005
13664,39865,47919
13495,39711,47712
13379,39615,47581
13385,39633,47577
13332,39589,47497
13171,39446,47308
13091,39385,47215
13127,39429,47233
13087,39393,47160
12945,39269,46999
12894,39239,46950
12938,39293,46990
12881,39244,46911
12732,39114,46746
12693,39086,46698
12739,39130,46723
12670,39067,46622
12526,38945,46459
12503,38942,46432
12550,38998,46464
12476,38937,46363
12349,38828,46219
12357,38846,46222
12418,38905,46271
12347,38837,46184
12246,38745,46086
12307,38805,46161
12432,38917,46292
12458,38931,46328
12512,38973,46424
12767,39197,46744
13095,39474,47142
13341,39668,47479
13642,39917,47912
14136,40341,48559
14667,40783,49236
15093,41120,49817
15557,41500,50464
16164,42009,51255
16733,42467,51982
17153,42782,52553
17587,43121,53151
18107,43545,53823
18526,43871,54360
18779,44047,54721
19056,44267,55119
19402,44559,55570
19599,44707,55832
19635,44709,55916
19768,44818,56098
20004,45026,56360
20077,45076,56425
19991,44986,56332
20014,45015,56363
20124,45130,56465
20059,45075,56365
19861,44905,56142
19797,44874,56069
19809,44912,56050
19638,44770,55826
19369,44542,55517
19264,44476,55389
19229,44467,55310
19012,44276,55025
18728,44027,54680
18613,43938,54507
18536,43878,54357
18285,43655,54031
17987,43394,53680
17835,43272,53481
17706,43164,53284
17429,42918,52933
17148,42681,52600
17023,42593,52432
16906,42505,52256
16655,42284,51937
16426,42091,51660
16348,42040,51544
16259,41972,51403
16050,41789,51143
15895,41660,50960
15891,41668,50929
15861,41640,50849
15726,41516,50671
15672,41477,50605
15757,41567,50685
15788,41595,50700
15722,41531,50633
15760,41572,50694
15926,41729,50885
16014,41800,50986
16010,41783,51006
16118,41874,51154
16326,42055,51394
16422,42121,51503
16419,42097,51523
16520,42177,51668
16690,42318,51870
16726,42331,51916
16677,42271,51878
16743,42329,51964
16860,42432,52081
16831,42394,52029
16736,42303,51921
16770,42343,51955
16838,42413,52009
16749,42335,51893
16612,42218,51742
16612,42234,51737
16632,42266,51733
16497,42153,51567
16341,42025,51396
16328,42028,51371
16317,42025,51329
16158,41882,51133
16004,41746,50958
15995,41740,50929
15964,41708,50861
15786,41542,50643
15629,41405,50464
15601,41392,50408
15523,41327,50278
15307,41139,50012
15142,41012,49825
15099,41004,49768
14986,40929,49620
14755,40744,49350
14609,40644,49179
14589,40653,49128
14491,40573,48980
14291,40396,48736
14194,40318,48614
14205,40336,48595
14113,40253,48458
13925,40088,48233
13845,40030,48134
13852,40051,48113
13742,39957,47966
13556,39796,47753
13498,39757,47679
13514,39780,47666
13404,39679,47520
13233,39529,47332
13195,39509,47292
13213,39535,47292
13096,39431,47148
12939,39300,46980
12932,39309,46968
12964,39345,46981
12858,39249,46850
12733,39143,46715
12755,39170,46732
12792,39200,46744
12685,39094,46607
12575,38990,46482
12607,39017,46497
12625,39026,46483
12496,38904,46329
12384,38809,46216
12411,38843,46241
12420,38853,46230
12326,38767,46127
12318,38767,46143
12486,38929,46348
12653,39076,46553
12767,39165,46731
13029,39388,47096
13484,39775,47666
13922,40130,48223
14304,40430,48756
14826,40865,49465
15489,41423,50313
16062,41886,51060
16536,42257,51718
17109,42730,52490
17753,43265,53311
18244,43648,53950
18607,43916,54455
19045,44267,55038
19508,44645,55621
19790,44856,55997
19954,44973,56256
20202,45186,56601
20461,45410,56927
20538,45463,57038
20532,45448,57063
20639,45548,57199
20757,45652,57318
20703,45589,57241
20596,45481,57118
20613,45494,57121
20628,45503,57099
20478,45360,56904
20307,45209,56705
20266,45187,56638
20205,45145,56533
19990,44960,56269
19781,44791,56027
19707,44748,55916
19603,44670,55754
19362,44463,55456
19156,44298,55215
19076,44250,55098
18941,44140,54900
18680,43914,54576
18485,43762,54338
18414,43725,54219
18266,43604,54002
18005,43374,53673
17836,43232,53450
17784,43190,53336
17643,43055,53115
17403,42834,52807
17273,42726,52632
17248,42719,52562
17129,42618,52388
16941,42456,52166
16889,42428,52103
16936,42485,52132
16878,42434,52046
16770,42336,51926
16808,42380,51976
16923,42490,52098
16918,42482,52091
16882,42447,52071
17005,42562,52228
17182,42718,52431
17218,42740,52485
17225,42739,52525
17381,42877,52721
17557,43024,52920
17576,43024,52958
17571,43011,52988
17702,43129,53153
17827,43232,53288
17797,43189,53261
17761,43153,53243
17850,43239,53348
17905,43290,53399
17810,43204,53298
17737,43145,53234
17787,43198,53284
17783,43191,53250
17646,43057,53081
17562,42982,52985
17593,43015,53002
17540,42967,52917
17361,42802,52708
17254,42716,52589
17250,42730,52569
17152,42649,52432
16944,42469,52187
16826,42384,52049
16798,42382,51994
16659,42269,51805
16430,42072,51529
16313,41988,51380
16280,41977,51305
16132,41852,51101
15917,41669,50842
15835,41614,50733
15821,41617,50681
15677,41490,50482
15477,41318,50243
15413,41280,50160
15390,41275,50112
15220,41125,49904
15008,40940,49666
14944,40893,49581
14912,40868,49509
14735,40706,49286
14549,40542,49072
14521,40524,49022
14509,40510,48968
14355,40369,48768
14211,40248,48598
14216,40267,48582
14208,40268,48538
14062,40144,48356
13943,40053,48227
13963,40087,48235
13947,40075,48184
13807,39947,48008
13726,39879,47913
13774,39927,47943
13756,39906,47890
13618,39777,47724
13561,39733,47666
13622,39796,47728
13595,39770,47683
13456,39643,47532
13414,39612,47492
13475,39669,47544
13431,39620,47472
13288,39489,47310
13253,39470,47274
13302,39527,47315
13228,39468,47223
13070,39339,47063
13036,39332,47043
13083,39390,47087
13018,39332,47003
12916,39240,46903
12985,39309,46998
13160,39466,47198
13260,39543,47333
13390,39646,47533
13741,39949,47986
14201,40337,48554
14582,40644,49055
15001,40986,49632
15618,41507,50429
16276,42049,51262
16798,42451,51960
17320,42854,52671
17972,43380,53512
18579,43862,54283
18994,44172,54852
19384,44478,55406
19871,44885,56044
20276,45209,56563
20496,45358,56881
20725,45533,57217
21054,45814,57637
21270,45988,57908
21300,45994,57979
21367,46055,58098
21536,46218,58305
21593,46267,58370
21500,46175,58277
21474,46154,58256
21535,46215,58306
21467,46148,58203
21270,45969,57977
21170,45896,57859
21153,45904,57813
21001,45781,57614
20749,45571,57324
20614,45478,57165
20561,45455,57074
20395,45316,56850
20167,45119,56569
20067,45044,56429
20018,45010,56327
19821,44828,56058
19573,44603,55746
19475,44530,55599
19413,44490,55477
19191,44293,55188
18938,44072,54888
18845,44007,54760
18779,43963,54643
18565,43781,54373
18364,43621,54134
18341,43631,54077
18285,43603,53976
18020,43379,53681
17796,43205,53460
17799,43237,53462
17782,43228,53412
17589,43048,53190
17482,42958,53089
17590,43065,53201
17642,43099,53228
17531,42984,53108
17539,42997,53149
17735,43184,53379
17821,43251,53477
17747,43169,53424
17817,43229,53534
18053,43435,53791
18137,43490,53878
18068,43408,53826
18152,43481,53949
18364,43670,54180
18394,43677,54205
18288,43566,54106
18351,43631,54196
18518,43787,54367
18483,43744,54316
18334,43602,54170
18373,43645,54224
18490,43755,54330
18392,43657,54201
18214,43496,54012
18246,43544,54050
18333,43636,54122
18196,43513,53956
18008,43354,53758
18034,43403,53781
18083,43465,53800
17902,43313,53582
17699,43148,53365
17707,43175,53357
17706,43175,53309
17484,42962,53034
17272,42776,52797
17263,42788,52761
17216,42755,52659
16967,42535,52356
16773,42382,52140
16779,42418,52121
16721,42378,52003
16478,42162,51704
16323,42039,51530
16344,42078,51531
16253,42000,51387
15990,41759,51070
15860,41647,50908
15901,41688,50909
15805,41588,50752
15552,41354,50457
15451,41283,50343
15497,41346,50361
15379,41243,50189
15124,41020,49898
15049,40974,49811
15102,41044,49840
14974,40938,49667
14739,40739,49404
14706,40730,49358
14782,40809,49398
14663,40695,49227
14463,40512,49003
14473,40532,49013
14552,40607,49072
14413,40475,48900
14222,40306,48696
14256,40358,48725
14337,40447,48779
14200,40329,48612
14039,40195,48447
14101,40267,48509
14174,40333,48554
14030,40194,48380
13895,40075,48241
13971,40154,48316
14020,40194,48336
13862,40042,48153
13745,39944,48043
13828,40033,48130
13849,40058,48124
13679,39908,47934
13589,39844,47861
13683,39946,47968
13679,39942,47944
13503,39777,47752
13446,39733,47705
13560,39842,47818
13545,39822,47777
13385,39669,47603
13403,39687,47635
13618,39874,47861
13727,39951,47979
13756,39960,48056
14019,40193,48412
14481,40592,48974
14835,40866,49433
15139,41087,49881
15683,41535,50608
16366,42101,51468
16871,42494,52144
17290,42822,52766
17904,43349,53607
18577,43925,54482
19018,44268,55093
19372,44535,55618
19910,44982,56320
20452,45426,56988
20724,45619,57365
20913,45755,57667
21270,46062,58122
21590,46333,58501
21641,46357,58600
21645,46359,58668
21818,46535,58900
21938,46651,59036
21817,46537,58917
21705,46442,58821
21775,46522,58893
21773,46526,58859
21557,46335,58616
21400,46216,58462
21428,46264,58480
21363,46205,58365
21117,45972,58066
20975,45854,57899
21003,45894,57891
20903,45798,57724
20636,45545,57397
20507,45440,57230
20533,45482,57206
20401,45361,57005
20115,45100,56671
19983,45004,56520
19977,45028,56480
19792,44875,56239
19482,44609,55887
19352,44523,55736
19336,44539,55680
19139,44374,55420
18859,44132,55096
18788,44094,55006
18813,44137,54996
18647,43986,54778
18429,43791,54529
18441,43816,54529
18521,43895,54582
18395,43773,54429
18241,43638,54282
18324,43732,54385
18457,43856,54509
18394,43785,54430
18335,43731,54389
18503,43899,54590
18677,44056,54776
18648,44008,54755
18648,43994,54783
18859,44181,55014
19027,44315,55172
18984,44251,55125
18987,44248,55159
19176,44417,55373
19280,44488,55465
19187,44379,55367
19179,44373,55390
19339,44530,55574
19373,44557,55600
19228,44416,55449
19207,44403,55443
19336,44527,55577
19306,44490,55526
19109,44303,55316
19058,44267,55272
19141,44353,55343
19047,44261,55213
18814,44047,54956
18749,44007,54888
18795,44068,54909
18651,43941,54717
18399,43724,54432
18337,43697,54356
18359,43742,54346
18176,43584,54116
17917,43361,53832
17868,43342,53771
17877,43368,53747
17668,43179,53488
17406,42950,53198
17361,42930,53132
17351,42935,53075
17122,42731,52794
16878,42522,52523
16856,42519,52477
16839,42506,52405
16608,42290,52113
16394,42099,51861
16395,42113,51828
16364,42093,51742
16129,41889,51458
15947,41746,51258
15972,41790,51263
15936,41761,51179
15711,41559,50916
15577,41456,50777
15635,41528,50824
15595,41493,50739
15380,41302,50487
15290,41243,50389
15377,41344,50457
15335,41308,50367
15138,41130,50135
15094,41107,50084
15200,41219,50174
15146,41172,50082
14954,41004,49870
14938,41008,49856
15053,41127,49953
14989,41066,49849
14811,40903,49649
14824,40923,49661
14938,41031,49756
14853,40948,49633
14677,40790,49442
14705,40827,49476
14801,40921,49562
14680,40805,49413
14502,40643,49219
14549,40692,49260
14644,40778,49328
14516,40656,49169
14359,40519,49009
14425,40593,49082
14505,40669,49145
14360,40536,48984
14213,40415,48848
14281,40496,48925
14332,40549,48952
14169,40404,48767
14034,40301,48646
14105,40382,48721
14126,40396,48707
13949,40224,48498
13841,40130,48390
13918,40209,48461
13907,40191,48406
13723,40012,48183
13665,39963,48124
13804,40095,48270
13854,40131,48319
13791,40066,48287
13938,40202,48508
14317,40538,48967
14619,40778,49345
14846,40944,49687
15301,41327,50302
15943,41876,51110
16452,42284,51782
16870,42608,52391
17485,43125,53222
18203,43727,54139
18710,44121,54823
19093,44414,55396
19651,44890,56149
20246,45392,56901
20548,45611,57326
20736,45741,57646
21155,46110,58197
21592,46496,58726
21707,46573,58910
21732,46577,59014
21998,46818,59341
22255,47042,59612
22197,46974,59557
22096,46886,59481
22234,47033,59636
22330,47126,59708
22131,46940,59484
21938,46784,59296
21985,46860,59336
21960,46851,59265
21666,46588,58932
21441,46405,58698
21454,46443,58685
21363,46363,58521
21041,46068,58133
20846,45913,57914
20872,45965,57907
20749,45855,57713
20419,45552,57321
20267,45435,57135
20323,45510,57137
20192,45393,56921
19869,45099,56535
19742,45005,56377
19784,45060,56371
19608,44896,56124
19273,44592,55743
19168,44520,55617
19214,44580,55617
19028,44411,55366
18723,44139,55024
18676,44119,54967
18754,44204,55014
18599,44054,54807
18376,43849,54563
18439,43924,54636
18599,44083,54792
18508,44001,54690
18379,43893,54582
18542,44063,54777
18759,44266,54997
18707,44211,54948
18638,44152,54919
18844,44344,55164
19043,44511,55369
18964,44414,55295
18901,44348,55267
19099,44526,55490
19245,44642,55622
19121,44506,55489
19046,44437,55442
19207,44593,55624
19276,44646,55671
19109,44481,55491
19051,44441,55460
19210,44604,55633
19223,44608,55616
19012,44405,55380
18952,44363,55322
19088,44500,55439
19033,44440,55332
18772,44189,55030
18693,44122,54935
18781,44209,54991
18648,44083,54804
18339,43804,54465
18244,43741,54369
18294,43810,54400
18110,43650,54170
17790,43373,53821
17708,43331,53729
17746,43388,53728
17537,43202,53454
17227,42933,53104
17172,42913,53033
17197,42957,53023
16953,42744,52729
16646,42484,52397
16618,42491,52355
16644,42537,52340
16394,42326,52048
16125,42099,51762
16147,42130,51755
16186,42156,51725
15952,41929,51418
15729,41728,51156
15774,41783,51167
15790,41804,51122
15544,41590,50829
15354,41442,50629
15424,41523,50675
15424,41516,50610
15186,41289,50319
15048,41176,50179
15144,41278,50269
15118,41246,50198
14874,41016,49917
14757,40929,49805
14827,41016,49873
14761,40965,49778
14534,40765,49529
14459,40714,49457
14548,40806,49534
14489,40746,49435
14296,40566,49216
14280,40560,49201
14400,40675,49312
14346,40622,49231
14175,40469,49051
14190,40499,49076
14308,40615,49182
14229,40536,49071
14056,40379,48885
14085,40419,48924
14193,40521,49019
14090,40421,48885
13923,40273,48710
13970,40335,48766
14068,40432,48849
13947,40319,48700
13793,40180,48538
13861,40247,48599
13949,40322,48650
13812,40194,48474
13662,40074,48316
13721,40148,48373
13759,40188,48389
13580,40029,48194
13439,39915,48062
13526,40006,48146
13595,40067,48191
13506,39981,48099
13540,40014,48179
13832,40270,48528
14106,40487,48848
14268,40594,49084
14601,40871,49552
15168,41359,50271
15660,41758,50907
16025,42034,51439
16553,42471,52170
17246,43053,53053
17781,43466,53747
18150,43726,54280
18651,44129,54961
19249,44623,55714
19628,44909,56216
19832,45048,56548
20170,45334,57018
20569,45679,57514
20726,45793,57730
20736,45782,57802
20899,45935,58035
21108,46127,58277
21074,46084,58242
20936,45955,58112
20984,46018,58179
21068,46111,58252
20908,45972,58061
20685,45786,57823
20671,45806,57794
20676,45831,57750
20446,45629,57462
20193,45415,57174
20150,45404,57099
20091,45366,56982
19804,45112,56637
19534,44884,56332
19475,44854,56232
19375,44773,56062
19067,44497,55687
18814,44287,55394
18761,44265,55291
18632,44159,55079
18312,43877,54683
18085,43698,54414
18038,43684,54318
17878,43547,54081
17550,43253,53685
17359,43100,53454
17339,43105,53387
17185,42974,53166
16896,42718,52824
16782,42631,52682
16826,42684,52691
16718,42585,52533
16502,42391,52287
16493,42393,52269
16627,42518,52387
16597,42478,52334
16483,42370,52229
16581,42473,52364
16788,42667,52591
16811,42675,52612
16765,42627,52591
16932,42785,52809
17160,42990,53072
17171,42979,53103
17133,42928,53105
17312,43090,53334
17518,43273,53564
17490,43235,53552
17431,43182,53530
17587,43333,53716
17739,43467,53868
17667,43386,53793
17601,43320,53750
17740,43450,53906
17840,43532,53988
17721,43407,53847
17633,43326,53761
17730,43423,53849
17746,43436,53819
17551,43257,53585
17425,43158,53450
17469,43218,53477
17403,43160,53358
17159,42935,53066
17030,42837,52920
17061,42891,52928
16951,42801,52770
16683,42559,52462
16569,42464,52325
16602,42504,52318
16467,42383,52123
16186,42137,51801
16069,42057,51667
16072,42086,51638
15895,41936,51406
15608,41687,51079
15514,41628,50963
15528,41659,50935
15348,41498,50698
15082,41268,50402
15023,41240,50336
15038,41270,50325
14847,41101,50088
14606,40893,49818
14590,40898,49782
14625,40940,49776
14447,40779,49551
14246,40603,49327
14266,40631,49327
14297,40661,49313
14110,40493,49079
13931,40342,48882
13970,40394,48910
13994,40421,48896
13814,40258,48677
13676,40144,48530
13746,40220,48586
13767,40239,48562
13598,40084,48359
13506,40013,48274
13602,40115,48376
13606,40118,48352
13431,39959,48151
13364,39915,48089
13466,40025,48190
13441,40004,48137
13260,39837,47935
13225,39812,47902
13341,39922,48009
13301,39878,47938
13120,39710,47744
13110,39711,47745
13240,39840,47878
13217,39820,47846
13110,39725,47758
13229,39841,47931
13503,40088,48256
13645,40195,48444
13763,40275,48642
14146,40600,49143
14667,41036,49780
15031,41310,50264
15372,41568,50761
15949,42057,51527
16582,42590,52344
16989,42905,52933
17344,43186,53493
17898,43662,54248
18425,44095,54927
18670,44251,55295
18901,44410,55659
19386,44814,56254
19820,45167,56757
19941,45239,56942
20050,45324,57133
20377,45621,57515
20608,45816,57748
20546,45743,57688
20520,45730,57701
20701,45915,57904
20751,45960,57924
20542,45768,57689
20435,45696,57594
20526,45811,57683
20448,45750,57559
20145,45480,57213
20002,45377,57054
20051,45449,57065
19904,45324,56851
19563,45025,56461
19419,44926,56295
19450,44977,56277
19269,44811,56013
18928,44501,55604
18808,44414,55436
18830,44454,55382
18613,44259,55067
18265,43949,54646
18158,43873,54488
18153,43885,54411
17888,43644,54056
17525,43328,53634
17426,43273,53503
17409,43285,53436
17131,43045,53097
16806,42775,52744
16774,42788,52700
16808,42847,52697
16588,42658,52441
16371,42476,52223
16459,42571,52313
16585,42678,52410
16476,42556,52269
16377,42450,52168
16511,42560,52305
16631,42647,52407
16555,42555,52330
16538,42536,52356
16735,42715,52597
16875,42825,52746
16828,42758,52713
16865,42789,52806
17081,42986,53075
17182,43063,53193
17098,42970,53125
17128,43002,53197
17314,43182,53407
17347,43209,53430
17213,43078,53289
17224,43087,53311
17375,43222,53453
17352,43185,53392
17177,43018,53193
17163,43016,53179
17261,43114,53261
17162,43025,53130
16942,42836,52897
16910,42833,52868
16972,42908,52911
16828,42782,52724
16588,42579,52463
16547,42572,52421
16571,42614,52425
16379,42439,52189
16134,42217,51912
16111,42207,51862
16128,42225,51827
15917,42027,51558
15679,41817,51285
15668,41827,51242
15675,41841,51190
15459,41647,50917
15245,41470,50679
15248,41499,50669
15227,41496,50614
14990,41292,50344
14790,41134,50138
14803,41168,50132
14765,41136,50037
14529,40918,49748
14369,40786,49569
14403,40833,49579
14343,40782,49462
14100,40564,49171
13973,40466,49031
14023,40531,49063
13942,40465,48940
13697,40252,48661
13604,40189,48555
13673,40269,48593
13588,40196,48454
13360,39998,48192
13303,39971,48130
13383,40060,48187
13292,39972,48044
13087,39781,47800
13072,39774,47770
13165,39859,47836
13061,39758,47693
12869,39583,47485
12883,39607,47506
12978,39699,47591
12870,39591,47448
12706,39436,47261
12760,39493,47315
12861,39589,47414
12735,39475,47289
12571,39335,47147
12631,39406,47229
12719,39489,47311
12594,39374,47179
12483,39281,47091
12627,39420,47264
12803,39569,47457
12817,39560,47507
12927,39646,47691
13322,39989,48168
13739,40334,48656
14014,40542,49030
14412,40869,49581
15059,41414,50390
15658,41892,51133
16087,42213,51728
16621,42656,52478
17329,43263,53402
17899,43722,54152
18292,44015,54721
18840,44472,55454
19527,45064,56294
19950,45400,56829
20116,45506,57111
20424,45765,57545
20846,46131,58058
20992,46230,58254
20931,46146,58249
21057,46260,58442
21291,46472,58703
21252,46418,58652
21055,46227,58455
21083,46262,58491
21201,46376,58583
21041,46220,58369
20771,45977,58067
20750,45989,58033
20788,46050,58034
20542,45833,57740
20234,45567,57409
20204,45570,57357
20214,45603,57307
19943,45373,56974
19653,45139,56652
19641,45164,56604
19627,45166,56518
19334,44899,56154
19059,44663,55839
19048,44676,55781
18991,44631,55637
18668,44338,55239
18402,44118,54941
18386,44128,54882
18286,44042,54693
17951,43740,54280
17735,43569,54038
17757,43616,54034
17658,43529,53871
17362,43261,53519
17248,43180,53386
17359,43307,53475
17310,43263,53377
17086,43048,53121
17074,43042,53110
17258,43213,53285
17245,43187,53247
17082,43023,53083
17157,43094,53188
17399,43315,53442
17418,43313,53454
17307,43196,53364
17445,43326,53553
17708,43563,53846
17722,43551,53863
17630,43453,53799
17791,43613,54016
18026,43839,54289
17982,43792,54265
17868,43682,54184
18028,43827,54375
18227,43998,54575
18129,43892,54468
17984,43760,54336
18110,43886,54463
18238,43997,54551
18073,43834,54346
17898,43684,54166
17984,43784,54247
18033,43838,54255
17809,43641,53995
17631,43501,53815
17707,43594,53879
17709,43595,53826
17459,43361,53530
17299,43228,53366
17369,43304,53421
17311,43241,53303
17024,42970,52963
16880,42854,52803
16945,42936,52842
16844,42850,52683
16532,42571,52320
16359,42434,52118
16354,42443,52067
16203,42301,51843
15914,42041,51500
15797,41956,51358
15812,41988,51338
15650,41840,51120
15370,41587,50804
15280,41521,50701
15299,41551,50686
15126,41393,50458
14864,41159,50158
14806,41122,50079
14822,41146,50056
14627,40965,49804
14377,40743,49515
14354,40741,49472
14383,40781,49469
14189,40609,49239
13965,40419,49003
13974,40449,49005
14012,40495,49009
13835,40344,48794
13662,40212,48613
13719,40288,48667
13768,40340,48690
13599,40192,48499
13462,40087,48365
13541,40179,48434
13577,40210,48423
13409,40048,48211
13304,39956,48093
13392,40043,48166
13398,40042,48126
13217,39874,47913
13140,39819,47843
13242,39926,47947
13221,39906,47897
13035,39732,47681
12990,39702,47634
13108,39820,47741
13071,39788,47674
12886,39625,47472
12870,39627,47465
13002,39757,47601
12973,39723,47564
12835,39598,47444
12917,39684,47571
13168,39911,47858
13285,39995,48004
13367,40047,48149
13725,40354,48609
14243,40790,49233
14617,41072,49716
14972,41340,50227
15590,41857,51040
16297,42445,51939
16794,42828,52624
17246,43179,53288
17911,43736,54162
18577,44288,55003
18982,44595,55571
19358,44892,56131
19958,45406,56898
20490,45844,57550
20683,45964,57846
20842,46076,58120
21217,46406,58581
21496,46640,58894
21465,46588,58894
21455,46579,58947
21657,46777,59188
21737,46846,59252
21554,46669,59052
21466,46608,58983
21586,46742,59107
21549,46706,59027
21280,46453,58715
21164,46365,58583
21243,46462,58631
21126,46359,58450
20803,46063,58076
20670,45959,57915
20712,46017,57906
20535,45857,57647
20189,45540,57233
20070,45449,57072
20102,45497,57044
19895,45314,56756
19552,45010,56358
19460,44950,56235
19489,45000,56223
19271,44819,55956
18942,44545,55598
18828,44478,55464
18792,44467,55378
18550,44244,55063
18268,43983,54726
18227,43952,54642
18242,43965,54594
18044,43779,54330
17834,43599,54090
17867,43646,54106
17928,43697,54126
17780,43546,53943
17654,43431,53817
17761,43541,53936
17857,43631,54026
17756,43534,53930
17713,43503,53926
17897,43678,54140
18033,43791,54276
17978,43724,54233
18006,43747,54308
18228,43944,54562
18349,44030,54681
18283,43949,54624
18330,43989,54709
18543,44180,54947
18607,44219,55009
18492,44096,54903
18516,44120,54953
18682,44277,55126
18673,44257,55095
18511,44101,54917
18515,44114,54922
18638,44236,55031
18566,44166,54928
18364,43983,54712
18349,43986,54701
18436,44079,54769
18321,43972,54611
18110,43782,54377
18100,43793,54361
18158,43863,54391
17995,43715,54178
17759,43506,53915
17738,43508,53884
17758,43544,53875
17540,43357,53619
17282,43141,53341
17256,43140,53292
17252,43141,53231
17017,42927,52936
16778,42725,52666
16765,42735,52620
16742,42722,52536
16502,42504,52238
16294,42327,52004
16298,42350,51980
16255,42315,51878
16007,42093,51581
15831,41949,51390
15857,41987,51396
15801,41930,51287
15565,41711,51004
15442,41615,50864
15498,41689,50897
15426,41632,50780
15188,41419,50506
15098,41354,50404
15174,41440,50453
15093,41373,50320
14860,41170,50046
14797,41134,49968
14881,41224,50026
14791,41138,49892
14570,40938,49648
14537,40921,49614
14627,41010,49687
14523,40921,49552
14320,40750,49333
14323,40777,49335
14419,40874,49407
14312,40758,49248
14132,40584,49034
14162,40629,49058
14252,40722,49125
14126,40600,48959
13962,40451,48781
14029,40520,48848
14128,40611,48932
14001,40493,48795
13865,40377,48675
13954,40469,48780
14034,40540,48848
13885,40401,48686
13754,40293,48566
13836,40383,48653
13875,40421,48669
13700,40262,48473
13578,40163,48356
13656,40245,48425
13660,40243,48384
13478,40073,48169
13410,40023,48109
13559,40170,48265
13638,40236,48332
13602,40192,48308
13767,40342,48536
14172,40703,49020
14498,40969,49431
14735,41142,49791
15199,41526,50418
15867,42084,51249
16399,42497,51939
16812,42804,52542
17414,43303,53362
18135,43909,54285
18645,44310,54976
19037,44613,55560
19643,45136,56369
20315,45716,57203
20672,45988,57686
20868,46123,58023
21270,46475,58573
21700,46850,59111
21806,46913,59292
21803,46890,59372
22043,47109,59685
22292,47330,59961
22218,47248,59900
22083,47128,59795
22207,47254,59928
22316,47350,59998
22124,47158,59758
21922,46976,59538
21968,47041,59566
21962,47046,59504
21674,46785,59161
21429,46582,58893
21432,46615,58864
21360,46556,58719
21048,46272,58347
20846,46108,58130
20885,46166,58143
20801,46088,57989
20492,45802,57619
20331,45678,57435
20378,45749,57447
20255,45643,57250
19920,45336,56846
19731,45174,56606
19706,45161,56517
19522,44990,56251
19201,44702,55868
19065,44604,55696
19074,44638,55658
18910,44497,55436
18639,44259,55133
18572,44225,55065
18625,44297,55103
18494,44184,54936
18286,44003,54713
18305,44037,54742
18418,44146,54851
18330,44051,54744
18194,43916,54613
18299,44016,54743
18470,44170,54920
18423,44116,54873
18351,44048,54824
18520,44208,55018
18718,44379,55211
18689,44333,55178
18656,44295,55168
18842,44466,55386
19004,44606,55560
18935,44531,55503
18887,44488,55488
19049,44637,55669
19155,44717,55757
19045,44594,55633
18990,44540,55594
19120,44663,55729
19145,44677,55723
18966,44505,55519
18884,44442,55442
18974,44540,55530
18930,44499,55460
18711,44298,55223
18635,44244,55147
18723,44339,55215
18653,44279,55099
18425,44080,54839
18358,44043,54764
18426,44126,54806
18308,44024,54640
18054,43804,54353
17980,43761,54263
18014,43808,54263
17847,43656,54042
17576,43409,53731
17502,43357,53631
17512,43378,53591
17307,43192,53320
17025,42948,52996
16965,42919,52908
16964,42939,52862
16742,42747,52586
16484,42527,52298
16462,42529,52254
16477,42554,52220
16269,42371,51962
16051,42189,51723
16062,42216,51712
16071,42225,51672
15858,42024,51409
15665,41857,51194
15693,41897,51195
15683,41891,51127
15460,41688,50847
15295,41551,50654
15339,41602,50664
15313,41572,50570
15095,41371,50297
14978,41284,50168
15052,41377,50233
15015,41352,50162
14806,41165,49926
14735,41116,49857
14841,41221,49955
14800,41176,49883
14594,40985,49659
14544,40952,49613
14644,41052,49698
14573,40979,49588
14364,40782,49351
14337,40767,49316
14434,40866,49390
14338,40779,49251
14130,40593,49019
14122,40596,49012
14216,40683,49089
14106,40575,48942
13912,40405,48735
13933,40447,48764
14029,40547,48843
13905,40434,48686
13725,40278,48498
13773,40340,48551
13861,40432,48620
13714,40305,48445
13539,40161,48264
13594,40226,48312
13658,40283,48336
13495,40125,48125
13336,39984,47947
13400,40051,47998
13442,40090,48012
13279,39938,47832
13184,39859,47756
13338,40009,47930
13480,40130,48076
13481,40115,48108
13628,40247,48348
14040,40617,48873
14426,40935,49357
14700,41138,49753
15158,41516,50381
15840,42098,51242
16413,42562,51981
16827,42877,52585
17390,43343,53367
18085,43924,54259
18553,44276,54890
18836,44465,55345
19320,44868,56019
19944,45403,56795
20302,45679,57265
20471,45789,57552
20835,46099,58040
21282,46484,58564
21429,46581,58740
21408,46540,58761
21593,46715,59006
21821,46931,59266
21734,46850,59181
21536,46681,58994
21591,46762,59059
21687,46873,59131
21482,46691,58885
21217,46460,58598
21223,46490,58578
21244,46520,58534
20973,46271,58195
20693,46026,57877
20685,46042,57832
20654,46026,57733
20345,45751,57359
20068,45523,57053
20059,45548,57006
19993,45500,56860
19672,45213,56465
19429,45017,56193
19429,45044,56153
19323,44947,55958
18985,44633,55536
18776,44460,55285
18786,44491,55248
18638,44358,55019
18280,44035,54592
18105,43902,54383
18140,43961,54371
17989,43831,54152
17663,43542,53784
17565,43478,53677
17665,43585,53752
17567,43489,53607
17330,43271,53352
17352,43304,53378
17539,43482,53546
17498,43433,53466
17343,43286,53304
17453,43398,53440
17682,43611,53680
17653,43568,53643
17534,43449,53543
17690,43599,53743
17922,43813,53999
17874,43756,53965
17765,43651,53894
17939,43815,54104
18149,44000,54314
18064,43905,54224
17945,43795,54134
18098,43942,54313
18243,44066,54443
18103,43920,54277
17974,43801,54150
18107,43929,54277
18189,43994,54314
17996,43807,54083
17857,43691,53944
17965,43801,54040
17972,43800,53996
17724,43568,53709
17579,43458,53569
17658,43557,53640
17590,43498,53520
17294,43228,53178
17153,43124,53028
17219,43215,53067
17096,43116,52884
16770,42830,52513
16642,42740,52366
16709,42822,52392
16590,42714,52198
16295,42448,51845
16162,42343,51678
16149,42343,51619
15936,42149,51346
15602,41856,50974
15468,41761,50823
15441,41762,50761
15218,41571,50480
14921,41314,50142
14849,41269,50044
14857,41284,50003
14647,41087,49725
14384,40848,49417
14356,40834,49360
14375,40860,49338
14165,40675,49088
13931,40481,48843
13938,40510,48837
13966,40547,48826
13776,40378,48591
13598,40227,48392
13651,40285,48423
13682,40312,48407
13491,40135,48171
13334,40006,48005
13391,40078,48052
13393,40086,48015
13191,39904,47780
13068,39805,47656
13145,39886,47725
13126,39866,47663
12919,39677,47421
12832,39617,47335
12930,39731,47439
12899,39713,47395
12703,39541,47196
12660,39519,47171
12781,39643,47292
12736,39605,47230
12535,39427,47033
12502,39413,47024
12603,39515,47126
12519,39433,47019
12306,39236,46799
12283,39227,46782
12378,39323,46862
12288,39237,46740
12129,39089,46570
12223,39177,46676
12456,39379,46910
12536,39425,46992
12612,39472,47117
12978,39792,47570
13461,40206,48149
13772,40446,48573
14094,40699,49050
14692,41205,49816
15345,41746,50615
15774,42074,51196
16181,42396,51788
16793,42913,52584
17347,43362,53286
17613,43540,53698
17897,43754,54152
18425,44205,54828
18863,44564,55363
18999,44646,55583
19167,44783,55857
19543,45120,56310
19775,45305,56558
19724,45225,56516
19754,45251,56592
19968,45462,56840
19994,45483,56853
19771,45275,56616
19698,45228,56545
19813,45356,56634
19717,45271,56476
19405,44990,56119
19284,44902,55977
19334,44970,55982
19155,44815,55730
18806,44509,55324
18661,44409,55150
18644,44417,55081
18414,44211,54776
18064,43902,54370
17909,43789,54179
17847,43749,54057
17572,43498,53698
17215,43180,53275
17075,43080,53090
17004,43039,52955
16710,42783,52584
16373,42495,52187
16280,42439,52040
16237,42421,51920
15975,42195,51581
15710,41973,51274
15698,41988,51233
15715,42018,51198
15530,41856,50959
15381,41736,50787
15476,41840,50866
15557,41915,50913
15433,41796,50768
15369,41742,50722
15533,41895,50903
15651,41986,51010
15580,41900,50942
15603,41920,51012
15825,42132,51283
15948,42236,51423
15892,42173,51390
15963,42245,51514
16214,42480,51804
16322,42567,51926
16260,42494,51891
16345,42569,52031
16570,42777,52304
16613,42811,52373
16506,42705,52296
16568,42762,52395
16747,42925,52585
16723,42893,52544
16568,42750,52381
16600,42792,52418
16726,42916,52524
16636,42826,52391
16441,42644,52174
16443,42655,52170
16509,42717,52204
16349,42560,51989
16120,42352,51723
16111,42362,51695
16149,42408,51694
15957,42236,51458
15727,42044,51212
15726,42067,51190
15744,42092,51149
15530,41894,50872
15312,41702,50616
15312,41715,50580
15286,41695,50489
15030,41462,50172
14802,41269,49919
14788,41274,49878
14722,41217,49750
14453,40974,49424
14262,40816,49217
14279,40846,49215
14211,40782,49088
13961,40553,48782
13832,40453,48634
13888,40528,48674
13813,40468,48560
13563,40250,48283
13462,40177,48173
13532,40250,48210
13448,40165,48066
13206,39946,47784
13129,39898,47695
13185,39974,47729
13055,39867,47557
12799,39646,47271
12747,39613,47202
12819,39682,47245
12699,39566,47089
12491,39378,46869
12501,39397,46886
12604,39493,46977
12495,39389,46841
12316,39231,46659
12358,39288,46712
12453,39387,46803
12315,39265,46661
12133,39110,46496
12186,39172,46559
12273,39259,46631
12143,39146,46496
12023,39060,46411
12172,39217,46601
12371,39397,46823
12408,39418,46904
12538,39524,47125
12959,39888,47652
13414,40255,48199
13725,40477,48622
14147,40811,49205
14811,41364,50036
15418,41846,50786
15837,42155,51362
16346,42571,52065
17022,43145,52928
17549,43567,53606
17866,43795,54072
18303,44157,54672
18879,44654,55381
19211,44913,55799
19295,44948,55968
19528,45144,56294
19891,45461,56712
19993,45523,56824
19883,45399,56734
19961,45473,56847
20156,45657,57044
20079,45578,56940
19838,45362,56691
19826,45377,56684
19915,45480,56745
19731,45315,56506
19433,45057,56172
19388,45051,56102
19412,45100,56076
19151,44873,55752
18818,44591,55382
18761,44575,55290
18747,44587,55210
18448,44327,54840
18116,44046,54468
18061,44018,54367
18008,43973,54228
17671,43661,53800
17319,43350,53384
17195,43257,53194
17048,43135,52956
16690,42817,52516
16385,42566,52168
16307,42529,52048
16186,42437,51857
15882,42171,51491
15677,42006,51264
15684,42033,51247
15611,41965,51118
15379,41744,50836
15297,41677,50734
15417,41799,50829
15416,41796,50784
15261,41647,50604
15277,41663,50629
15470,41842,50831
15517,41873,50870
15435,41789,50803
15545,41894,50958
15800,42126,51246
15878,42182,51337
15839,42140,51336
15997,42289,51554
16256,42522,51851
16301,42543,51910
16240,42477,51884
16380,42608,52077
16590,42794,52315
16572,42757,52298
16475,42659,52218
16587,42768,52357
16740,42907,52510
16656,42818,52409
16528,42698,52280
16622,42792,52370
16725,42887,52436
16586,42752,52258
16430,42613,52094
16486,42678,52148
16522,42715,52152
16330,42541,51926
16163,42399,51750
16208,42450,51776
16196,42433,51716
15965,42217,51444
15792,42077,51263
15814,42119,51266
15746,42064,51142
15485,41834,50831
15331,41719,50661
15361,41773,50669
15268,41694,50522
15000,41454,50206
14876,41358,50059
14923,41415,50070
14819,41320,49903
14562,41092,49595
14471,41034,49481
14520,41102,49496
14391,40990,49313
14134,40762,49019
14066,40717,48938
14120,40771,48957
13978,40634,48756
13732,40413,48470
13687,40391,48410
13734,40449,48424
13578,40309,48212
13355,40113,47958
13359,40133,47956
13432,40207,48009
13283,40070,47829
13093,39899,47625
13136,39945,47660
13213,40014,47704
13058,39870,47513
12886,39721,47330
12939,39779,47373
12989,39824,47389
12816,39663,47180
12663,39533,47016
12731,39604,47076
12768,39634,47085
12593,39475,46905
12473,39382,46816
12564,39480,46928
12595,39504,46940
12434,39355,46768
12365,39310,46723
12489,39437,46862
12512,39451,46878
12373,39319,46754
12395,39357,46832
12639,39600,47135
12809,39752,47354
12896,39808,47518
13218,40072,47950
13761,40523,48599
14193,40857,49129
14538,41112,49605
15101,41581,50344
15818,42189,51238
16363,42622,51951
16800,42957,52579
17427,43477,53416
18128,44057,54299
18570,44390,54896
18889,44628,55384
19420,45088,56092
19986,45574,56789
20228,45747,57128
20344,45817,57351
20680,46108,57786
21019,46398,58176
21035,46382,58221
20972,46311,58206
21143,46473,58416
21290,46604,58557
21136,46447,58379
20966,46291,58199
21041,46375,58251
21066,46404,58216
20806,46169,57903
20579,45984,57659
20597,46030,57649
20537,45982,57517
20224,45696,57138
19997,45509,56883
19994,45533,56843
19873,45425,56639
19533,45115,56222
19336,44962,55987
19349,45006,55952
19201,44878,55718
18853,44563,55293
18663,44415,55054
18633,44419,54968
18435,44252,54692
18093,43946,54281
17920,43807,54066
17886,43792,53980
17684,43610,53707
17373,43336,53345
17265,43260,53206
17282,43292,53177
17125,43149,52961
16895,42942,52700
16884,42949,52689
16975,43044,52765
16885,42956,52644
16754,42832,52506
16861,42935,52627
17045,43100,52813
17030,43073,52800
16994,43033,52791
17189,43212,53017
17415,43407,53254
17424,43393,53273
17417,43376,53306
17611,43552,53549
17785,43699,53753
17738,43638,53736
17701,43597,53749
17857,43737,53941
17970,43822,54046
17882,43723,53948
17841,43686,53927
17976,43816,54075
18032,43855,54106
17908,43724,53962
17867,43692,53937
17988,43815,54069
18001,43823,54056
17848,43680,53875
17806,43655,53824
17905,43763,53901
17860,43727,53811
17660,43549,53580
17587,43499,53501
17629,43556,53527
17514,43455,53372
17278,43241,53101
17194,43180,53001
17217,43217,52992
17082,43096,52805
16854,42892,52536
16793,42850,52448
16817,42882,52428
16674,42752,52223
16459,42564,51967
16416,42547,51903
16424,42572,51878
16246,42417,51658
16023,42225,51414
15986,42212,51366
15989,42226,51334
15816,42071,51118
15626,41909,50904
15621,41919,50876
15629,41930,50836
15470,41779,50623
15331,41655,50451
15379,41702,50470
15409,41725,50454
15270,41592,50274
15170,41511,50167
15243,41594,50236
15268,41619,50227
15133,41490,50060
15061,41432,49988
15135,41516,50066
15118,41506,50028
14947,41355,49840
14871,41303,49769
14936,41383,49832
14890,41348,49756
14709,41186,49547
14652,41145,49485
14730,41224,49549
14682,41176,49467
14520,41021,49278
14497,41004,49248
14585,41084,49314
14520,41018,49207
14348,40866,49013
14328,40861,48993
14396,40927,49045
14300,40833,48912
14124,40674,48718
14121,40684,48721
14200,40762,48795
14125,40689,48709
14033,40607,48635
14179,40750,48826
14434,40981,49124
14575,41093,49318
14764,41248,49601
15217,41636,50182
15756,42083,50853
16164,42398,51415
16610,42755,52058
17268,43310,52930
17925,43850,53785
18397,44210,54454
18876,44594,55149
19498,45118,55972
20012,45531,56645
20287,45722,57073
20607,45979,57565
21101,46405,58202
21468,46700,58651
21599,46779,58853
21796,46948,59139
22130,47255,59539
22287,47383,59713
22224,47307,59663
22275,47355,59739
22462,47530,59926
22458,47513,59889
22277,47334,59679
22250,47316,59644
22349,47415,59718
22246,47314,59566
21993,47083,59282
21919,47037,59195
21950,47085,59191
21765,46922,58949
21465,46660,58610
21366,46598,58494
21355,46609,58445
21128,46402,58157
20827,46135,57813
20754,46094,57709
20744,46105,57649
20508,45894,57349
20230,45649,57027
20190,45630,56945
20184,45631,56863
19942,45410,56537
19675,45177,56203
19616,45145,56069
19565,45106,55926
19327,44887,55615
19109,44696,55366
19083,44686,55319
19041,44654,55238
18834,44469,55003
18687,44353,54862
18731,44414,54912
18735,44427,54899
18595,44307,54755
18556,44288,54745
18693,44425,54911
18748,44463,54969
18658,44361,54889
18684,44385,54950
18860,44555,55157
18919,44603,55227
18848,44525,55173
18916,44585,55278
19122,44764,55503
19187,44800,55566
19126,44725,55513
19207,44798,55623
19386,44962,55817
19392,44956,55819
19287,44854,55722
19342,44910,55793
19476,45034,55919
19424,44976,55834
19285,44844,55677
19312,44881,55705
19383,44956,55763
19252,44835,55604
19062,44665,55402
19059,44679,55397
19093,44723,55408
18930,44581,55217
18737,44420,55014
18734,44436,54998
18745,44452,54963
18572,44290,54730
18403,44141,54523
18417,44171,54510
18408,44171,54457
18206,43991,54215
18028,43844,54025
18022,43858,54007
17962,43813,53911
17729,43607,53645
17562,43473,53469
17563,43494,53449
17484,43422,53316
17247,43201,53022
17108,43084,52851
17124,43113,52832
17030,43030,52683
16795,42819,52403
16692,42742,52277
16738,42798,52285
16659,42723,52145
16456,42537,51896
16395,42494,51820
16449,42558,51854
16349,42471,51717
16145,42287,51486
16102,42262,51437
16153,42324,51474
16038,42226,51326
15844,42065,51112
15835,42081,51095
15907,42159,51136
15800,42055,50977
15630,41898,50774
15649,41928,50781
15721,42002,50834
15605,41893,50695
15456,41757,50544
15505,41807,50597
15583,41877,50651
15471,41767,50507
15350,41658,50376
15414,41727,50438
15466,41778,50466
15322,41648,50298
15193,41544,50172
15246,41607,50229
15262,41620,50221
15097,41465,50031
14983,41369,49910
15041,41433,49951
15031,41422,49893
14852,41258,49677
14763,41189,49584
14840,41274,49657
14823,41262,49615
14669,41126,49446
14656,41128,49448
14826,41288,49634
14915,41357,49734
14925,41350,49781
15135,41532,50069
15536,41881,50562
15855,42134,50980
16119,42335,51383
16596,42741,52043
17227,43277,52857
17725,43672,53529
18145,43994,54147
18740,44490,54962
19411,45052,55828
19883,45420,56469
20275,45725,57036
20859,46231,57800
21459,46753,58550
21766,46996,58983
21968,47153,59317
22360,47503,59831
22742,47838,60290
22835,47896,60436
22858,47904,59209
23074,48103,56112
23250,48252,53202
23150,48132,51733
23030,48009,51482
23115,48090,52222
23143,48111,53326
22921,47898,54384
22728,47734,55527
22742,47772,56776
22680,47724,57748
22398,47472,58313
22200,47321,58805
22201,47360,59310
22090,47275,59506
21787,47007,59382
21618,46879,59317
21637,46924,59349
21505,46807,59144
21193,46519,58731
21044,46392,58482
21056,46409,58370
20881,46241,58048
20543,45934,57590
20387,45820,57353
20368,45833,57250
20152,45646,56936
19818,45351,56531
19704,45277,56376
19729,45329,56354
19582,45205,56149
19349,45003,55882
19307,44984,55825
19348,45027,55839
19217,44892,55669
19047,44725,55486
19086,44769,55540
19186,44867,55644
19103,44790,55560
19001,44703,55479
19115,44818,55614
19262,44947,55755
19222,44892,55705
19188,44852,55689
19356,45004,55881
19516,45138,56048
19486,45096,56034
19483,45094,56079
19666,45268,56305
19805,45382,56455
19757,45317,56416
19759,45313,56452
19925,45464,56642
20005,45517,56705
19905,45399,56584
19879,45374,56565
19993,45487,56686
19976,45472,56653
19793,45304,56456
19725,45255,56391
19795,45334,56449
19722,45266,56340
19506,45069,56099
19429,45022,56017
19475,45093,56046
19365,45008,55892
19138,44815,55633
19074,44784,55554
19114,44842,55560
18981,44720,55368
18749,44507,55092
18691,44466,55012
18711,44495,54993
18543,44341,54765
18306,44132,54484
18257,44110,54412
18260,44128,54379
18064,43953,54137
17824,43747,53871
17788,43738,53814
17789,43749,53773
17597,43569,53533
17390,43383,53303
17379,43386,53276
17373,43381,53225
17176,43191,52976
16989,43023,52762
16990,43040,52733
16965,43018,52647
16754,42814,52375
16586,42662,52178
16595,42684,52160
16539,42644,52056
16307,42453,51788
16155,42356,51637
16174,42416,51656
16100,42375,51553
15872,42184,51295
15766,42110,51180
15827,42183,51216
15774,42133,51110
15582,41956,50878
15531,41919,50813
15620,42005,50878
15567,41946,50778
15392,41777,50567
15374,41761,50534
15467,41842,50599
15394,41759,50479
15211,41590,50271
15194,41594,50250
15266,41676,50300
15163,41579,50149
14984,41412,49939
14990,41426,49944
15060,41493,50006
14937,41373,49865
14765,41216,49691
14797,41259,49730
14872,41338,49792
14742,41223,49644
14581,41093,49483
14625,41155,49523
14683,41217,49547
14538,41085,49365
14391,40963,49209
14451,41030,49262
14514,41085,49298
14410,40988,49183
14375,40970,49185
14585,41172,49446
14816,41369,49719
14936,41456,49910
15191,41677,50295
15694,42119,50948
16182,42519,51574
16555,42800,52105
17066,43220,52815
17754,43805,53706
18318,44256,54449
18721,44556,55033
19281,45018,55787
19987,45615,56658
20470,45993,57269
20730,46176,57667
21116,46504,58209
21591,46921,58810
21809,47085,59112
21834,47078,59224
22022,47245,59501
22291,47487,59817
22299,47477,59834
22163,47343,59723
22233,47412,59826
22372,47537,59962
22246,47406,59804
22018,47197,59558
22013,47218,59546
22050,47272,59553
21821,47065,59283
21535,46814,58972
21491,46799,58902
21471,46796,58822
21196,46551,58482
20910,46310,58160
20873,46309,58084
20828,46283,57969
20537,46023,57609
20273,45802,57309
20247,45806,57243
20175,45752,57093
19872,45481,56716
19635,45288,56439
19618,45300,56375
19523,45217,56194
19228,44945,55819
19010,44763,55562
18957,44740,55474
18804,44612,55265
18506,44347,54917
18349,44224,54734
18369,44263,54719
18277,44183,54572
18062,43986,54320
18014,43953,54267
18122,44059,54368
18093,44024,54321
17957,43891,54187
18002,43937,54258
18173,44095,54442
18183,44087,54449
18104,44001,54387
18212,44103,54532
18409,44284,54748
18415,44280,54760
18342,44213,54718
18465,44332,54888
18645,44493,55093
18613,44449,55070
18524,44363,55005
18631,44473,55141
18762,44599,55274
18682,44514,55183
18579,44414,55087
18674,44503,55185
18762,44577,55247
18637,44452,55093
18516,44343,54965
18586,44413,55024
18619,44439,55021
18446,44275,54816
18303,44155,54671
18336,44202,54695
18301,44170,54614
18079,43963,54346
17925,43836,54177
17933,43862,54167
17837,43781,54022
17572,43546,53711
17418,43427,53537
17421,43454,53513
17295,43351,53334
17018,43112,53014
16883,43016,52855
16892,43051,52828
16754,42939,52631
16487,42710,52321
16376,42637,52190
16383,42668,52161
16224,42535,51942
15957,42307,51631
15865,42247,51512
15872,42265,51473
15700,42103,51234
15446,41872,50935
15382,41829,50851
15387,41847,50825
15201,41682,50590
14968,41485,50329
14953,41492,50293
14998,41537,50294
14848,41390,50093
14675,41228,49895
14714,41265,49914
14773,41315,49929
14626,41182,49741
14480,41062,49582
14534,41132,49634
14569,41172,49649
14398,41024,49462
14254,40912,49327
14302,40975,49379
14302,40984,49356
14115,40822,49149
13998,40732,49036
14071,40809,49103
14075,40800,49062
13915,40643,48862
13861,40602,48802
13969,40714,48910
13951,40705,48877
13772,40550,48692
13725,40526,48658
13830,40636,48758
13794,40603,48687
13620,40444,48488
13606,40441,48474
13736,40562,48595
13729,40544,48563
13640,40454,48477
13775,40576,48650
14077,40838,48996
14262,40973,49229
14411,41077,49472
14807,41415,50007
15342,41869,50682
15732,42172,51211
16093,42451,51739
16673,42945,52511
17312,43486,53332
17737,43817,53929
18100,44097,54479
18643,44555,55208
19180,45003,55892
19470,45216,56308
19703,45394,56678
20099,45738,57200
20452,46031,57638
20572,46100,57828
20700,46191,58041
21016,46464,58418
21232,46636,58641
21166,46550,58570
21122,46506,58543
21266,46641,58686
21290,46653,58667
21064,46445,58409
20914,46339,58266
20951,46413,58298
20867,46355,58161
20584,46109,57824
20392,45962,57606
20339,45944,57517
20146,45784,57260
19802,45485,56858
19605,45335,56622
19550,45313,56512
19343,45136,56229
19012,44846,55836
18850,44720,55628
18804,44697,55519
18579,44501,55213
18245,44214,54819
18091,44105,54624
18030,44072,54502
17788,43857,54179
17476,43586,53804
17369,43517,53653
17339,43512,53565
17123,43321,53279
16873,43101,52985
16846,43091,52938
16879,43124,52941
16726,42977,52759
16570,42838,52602
16639,42917,52681
16743,43015,52773
16668,42940,52688
16622,42902,52658
16800,43069,52856
16971,43212,53028
16951,43170,53019
16972,43175,53085
17189,43364,53346
17356,43494,53527
17336,43452,53523
17377,43487,53611
17583,43684,53861
17690,43777,53981
17619,43704,53925
17647,43738,53992
17829,43912,54202
17878,43947,54248
17758,43826,54126
17758,43835,54143
17892,43965,54272
17866,43932,54211
17692,43766,54012
17662,43746,53979
17742,43826,54044
17642,43732,53913
17419,43533,53672
17366,43501,53611
17413,43552,53623
17274,43419,53425
17039,43211,53151
16984,43188,53081
16998,43224,53064
16812,43063,52826
16560,42848,52544
16510,42825,52480
16505,42836,52441
16288,42646,52180
16035,42433,51902
16000,42427,51842
15998,42437,51786
15787,42251,51520
15570,42068,51275
15561,42078,51240
15547,42067,51173
15330,41864,50903
15138,41695,50681
15147,41715,50656
15120,41693,50567
14908,41502,50305
14757,41381,50143
14793,41436,50167
14758,41416,50089
14551,41241,49843
14439,41168,49724
14500,41247,49773
14454,41210,49687
14249,41028,49447
14169,40976,49358
14242,41063,49411
14178,41012,49301
13973,40829,49059
13924,40795,48997
14020,40882,49070
13963,40816,48974
13784,40647,48774
13772,40647,48766
13872,40747,48856
13792,40673,48748
13609,40507,48555
13608,40517,48562
13693,40604,48638
13586,40509,48499
13406,40351,48301
13429,40386,48325
13517,40475,48397
13405,40370,48254
13248,40228,48085
13305,40291,48145
13405,40386,48232
13299,40293,48123
13188,40204,48039
13317,40334,48203
13502,40495,48408
13543,40511,48477
13661,40599,48661
14048,40931,49133
14471,41276,49640
14759,41488,50038
15143,41796,50584
15761,42316,51379
16348,42791,52128
16770,43110,52725
17273,43515,53440
17939,44070,54317
18484,44503,55039
18826,44759,55555
19244,45109,56159
19783,45575,56860
20141,45861,57341
20303,45970,57620
20601,46230,58043
21023,46610,58556
