green_channel,red_channel,ir_channel
28343,40903,30408
28351,40912,30419
28353,40911,30416
28346,40898,30397
28327,40875,30365
28295,40842,30317
28250,40800,30253
28194,40747,30171
28127,40680,30072
28048,40602,29959
27958,40515,29832
27858,40422,29692
27748,40322,29541
27631,40215,29382
27508,40108,29216
27384,40003,29044
27261,39899,28869
27140,39795,28693
27020,39687,28516
26900,39579,28342
26782,39473,28175
26665,39371,28013
26549,39270,27852
26433,39167,27691
26317,39062,27532
26200,38959,27373
26082,38856,27213
25964,38751,27054
25847,38645,26896
25729,38539,26738
25612,38434,26579
25497,38333,26420
25385,38233,26263
25276,38134,26109
25170,38038,25959
25066,37946,25813
24963,37860,25672
24863,37778,25538
24768,37701,25411
24681,37631,25292
24603,37568,25184
24532,37510,25088
24469,37459,25004
24413,37414,24929
24361,37371,24862
24310,37327,24799
24260,37282,24735
24209,37236,24669
24156,37187,24600
24101,37133,24527
24043,37075,24449
23982,37016,24365
23918,36959,24274
23850,36900,24178
23782,36838,24078
23711,36771,23973
23639,36701,23866
23565,36629,23757
23492,36557,23647
23416,36486,23535
23337,36418,23422
23255,36350,23312
23172,36284,23210
23094,36220,23115
23020,36161,23025
22952,36108,22939
22888,36055,22856
22826,36001,22773
22764,35945,22689
22703,35886,22601
22641,35827,22509
22579,35768,22417
22519,35712,22324
22458,35657,22232
22396,35604,22142
22332,35553,22056
22267,35504,21972
22203,35455,21888
22141,35408,21802
22083,35364,21719
22032,35322,21641
21986,35281,21568
21946,35242,21501
21909,35205,21441
21874,35171,21384
21841,35138,21328
21805,35105,21273
21764,35071,21216
21718,35032,21155
21668,34989,21088
21612,34942,21013
21549,34891,20931
21482,34834,20842
21413,34772,20751
21341,34707,20659
21265,34642,20563
21188,34578,20462
21113,34512,20360
21039,34445,20257
20965,34376,20155
20896,34310,20055
20836,34251,19960
20780,34197,19872
20727,34147,19788
20678,34104,19708
20634,34068,19633
20593,34034,19564
20552,33999,19499
20515,33965,19441
20484,33933,19391
20458,33905,19350
20438,33884,19322
20430,33876,19315
20443,33890,19343
20489,33933,19417
20580,34020,19556
20729,34162,19783
20951,34373,20116
21258,34660,20567
21653,35028,21141
22134,35474,21830
22693,35988,22618
23316,36556,23490
23989,37167,24427
24699,37810,25412
25429,38469,26422
26162,39127,27432
26881,39767,28418
27565,40371,29351
28196,40924,30210
28760,41412,30975
29248,41828,31635
29656,42170,32184
29980,42440,32620
30223,42641,32950
30390,42780,33183
30492,42863,33328
30539,42898,33395
30537,42888,33398
30496,42844,33346
30419,42770,33249
30312,42674,33118
30186,42561,32959
30048,42437,32778
29902,42305,32583
29752,42171,32381
29602,42040,32181
29458,41914,31991
29324,41797,31819
29206,41693,31665
29103,41604,31532
29020,41533,31425
28955,41479,31348
28911,41443,31300
28887,41426,31280
28885,41429,31284
28898,41445,31307
28922,41465,31337
28946,41484,31364
28963,41498,31379
28969,41501,31375
28959,41490,31349
28928,41460,31294
28873,41410,31213
28799,41342,31107
28707,41260,30978
28599,41164,30830
28479,41058,30672
28354,40948,30509
28232,40838,30345
28118,40736,30189
28015,40645,30046
27924,40564,29918
27848,40496,29809
27788,40442,29719
27744,40403,29653
27716,40380,29608
27703,40368,29584
27704,40369,29577
27715,40380,29584
27733,40398,29603
27757,40419,29633
27789,40443,29669
27826,40471,29711
27864,40499,29756
27903,40530,29799
27937,40559,29836
27964,40584,29864
27982,40603,29882
27992,40614,29890
27992,40616,29884
27983,40607,29866
27961,40589,29834
27929,40560,29784
27885,40520,29718
27827,40467,29636
27756,40403,29539
27674,40327,29427
27583,40243,29299
27483,40152,29158
27374,40052,29005
27254,39943,28838
27125,39827,28657
26991,39704,28470
26854,39579,28279
26716,39454,28092
26579,39335,27913
26447,39223,27742
26321,39117,27575
26201,39012,27411
26085,38910,27255
25974,38814,27107
25865,38722,26966
25761,38630,26827
25663,38540,26687
25566,38451,26548
25467,38364,26408
25370,38278,26269
25277,38192,26135
25184,38105,26001
25092,38018,25867
25002,37934,25734
24916,37852,25606
24833,37774,25486
24755,37703,25376
24686,37642,25276
24625,37589,25187
24569,37539,25108
24516,37493,25037
24467,37449,24975
24420,37407,24919
24375,37370,24867
24334,37335,24814
24299,37302,24760
24265,37271,24707
24227,37238,24653
24183,37201,24593
24134,37160,24526
24080,37115,24455
24023,37065,24380
23963,37011,24300
23903,36954,24216
23839,36895,24129
23768,36833,24037
23693,36772,23942
23616,36712,23845
23536,36649,23745
23457,36582,23643
23379,36514,23540
23304,36449,23436
23229,36385,23333
23154,36322,23235
23080,36257,23137
23009,36189,23035
22939,36120,22931
22866,36049,22823
22788,35979,22715
22708,35907,22606
22623,35833,22496
22535,35760,22383
22449,35691,22270
22366,35626,22159
22289,35560,22050
22214,35490,21943
22142,35421,21837
22068,35351,21732
21994,35279,21627
21919,35207,21521
21845,35138,21415
21771,35073,21310
21696,35009,21208
21624,34948,21109
21559,34891,21013
21498,34835,20921
21439,34780,20832
21382,34728,20748
21325,34679,20667
21270,34633,20589
21219,34591,20513
21173,34550,20444
21133,34510,20381
21096,34472,20320
21060,34436,20261
21024,34404,20201
20988,34376,20140
20953,34350,20078
20915,34321,20014
20871,34289,19948
20824,34252,19877
20777,34212,19804
20730,34167,19731
20679,34118,19659
20627,34068,19587
20575,34022,19516
20528,33980,19449
20485,33941,19386
20444,33904,19328
20405,33868,19271
20365,33831,19214
20325,33793,19159
20285,33756,19104
20247,33720,19050
20207,33684,18997
20166,33648,18942
20123,33611,18885
20081,33572,18826
20038,33533,18764
19993,33492,18697
19948,33449,18626
19902,33405,18551
19855,33360,18475
19809,33317,18400
19766,33277,18331
19729,33240,18272
19699,33212,18227
19684,33199,18206
19692,33211,18225
19733,33258,18298
19818,33352,18440
19964,33501,18667
20183,33715,18999
20488,34002,19450
20882,34368,20026
21365,34808,20719
21926,35314,21515
22550,35874,22393
23222,36476,23328
23923,37104,24297
24636,37742,25279
25342,38370,26254
26028,38977,27201
26681,39553,28101
27286,40086,28938
27832,40562,29693
28307,40972,30352
28707,41311,30904
29026,41579,31343
29266,41777,31673
29431,41909,31900
29527,41980,32032
29562,41999,32079
29543,41976,32054
29478,41919,31971
29379,41833,31843
29255,41727,31682
29115,41606,31500
28966,41475,31304
28814,41343,31104
28667,41214,30907
28527,41090,30719
28398,40974,30544
28283,40869,30385
28180,40776,30245
28091,40697,30126
28018,40633,30028
27960,40588,29953
27921,40558,29904
27900,40542,29878
27895,40539,29873
27902,40545,29882
27917,40556,29900
27933,40569,29916
27944,40575,29922
27942,40572,29915
27927,40554,29890
27900,40521,29846
27857,40476,29783
27797,40419,29700
27722,40352,29596
27636,40277,29475
27547,40197,29344
27457,40117,29208
27367,40038,29074
27281,39963,28948
27203,39895,28834
27135,39836,28736
27078,39788,28655
27035,39751,28594
27007,39724,28551
26990,39707,28524
26984,39698,28511
26988,39695,28510
27001,39698,28521
27021,39707,28540
27044,39722,28566
27065,39737,28593
27079,39748,28616
27087,39755,28632
27086,39754,28637
27077,39744,28628
27057,39725,28605
27026,39697,28570
26988,39661,28522
26939,39615,28456
26875,39556,28370
26793,39486,28263
26697,39406,28140
26589,39317,28002
26474,39222,27854
26354,39123,27696
26229,39017,27528
26098,38905,27350
25961,38783,27163
25817,38651,26965
25663,38512,26757
25502,38368,26539
25334,38220,26313
25159,38070,26082
24981,37918,25850
24807,37765,25618
24639,37615,25391
24479,37470,25172
24326,37334,24964
24183,37205,24766
24046,37083,24578
23918,36966,24398
23799,36855,24227
23688,36751,24064
23581,36650,23908
23477,36553,23763
23377,36462,23627
23281,36381,23500
23189,36308,23383
23101,36239,23273
23017,36171,23169
22940,36105,23069
22869,36042,22976
22805,35987,22888
22748,35940,22809
22699,35900,22740
22653,35866,22678
22609,35834,22620
22571,35807,22569
22541,35786,22526
22516,35769,22489
22495,35753,22456
22475,35738,22426
22455,35723,22400
22436,35706,22375
22418,35690,22348
22403,35673,22320
22384,35655,22288
22360,35632,22250
22329,35605,22206
22292,35575,22156
22250,35541,22101
22201,35502,22037
22144,35454,21966
22084,35398,21887
22020,35336,21802
21954,35269,21714
21884,35201,21622
21812,35131,21525
21739,35062,21422
21662,34993,21318
21584,34926,21214
21509,34862,21111
21439,34801,21008
21371,34744,20906
21305,34690,20809
21243,34640,20719
21186,34591,20635
21134,34541,20558
21087,34496,20487
21045,34458,20420
21008,34425,20358
20973,34394,20298
20939,34361,20238
20903,34329,20180
20865,34300,20122
20822,34271,20064
20776,34239,20002
20727,34202,19938
20678,34162,19872
20629,34120,19804
20580,34078,19735
20533,34038,19669
20484,33997,19604
20432,33953,19536
20381,33908,19465
20331,33863,19392
20278,33817,19315
20222,33769,19236
20164,33718,19151
20104,33661,19061
20042,33602,18969
19979,33544,18877
19917,33486,18783
19853,33429,18688
19789,33371,18593
19728,33310,18499
19670,33251,18409
19613,33196,18322
19558,33143,18240
19506,33092,18165
19455,33047,18099
19409,33009,18039
19373,32979,17992
19350,32962,17966
19349,32965,17971
19378,32996,18020
19447,33066,18129
19565,33182,18312
19742,33353,18582
19984,33586,18950
20300,33885,19421
20692,34249,19994
21151,34671,20658
21665,35139,21393
22219,35638,22172
22794,36157,22975
23373,36679,23780
23942,37187,24569
24489,37671,25325
25006,38123,26037
25482,38537,26693
25906,38907,27284
26272,39230,27803
26585,39503,28245
26845,39726,28609
27049,39901,28893
27195,40028,29098
27287,40107,29225
27327,40141,29282
27321,40133,29276
27272,40087,29215
27184,40008,29105
27066,39902,28952
26924,39771,28760
26762,39623,28539
26585,39463,28295
26397,39294,28036
26201,39118,27769
26005,38942,27502
25813,38772,27240
25630,38609,26988
25457,38452,26748
25296,38304,26521
25148,38167,26307
25009,38038,26109
24875,37914,25920
24742,37791,25737
24609,37670,25557
24474,37547,25375
24336,37424,25186
24196,37301,24993
24054,37177,24800
23912,37053,24608
23772,36933,24420
23638,36820,24238
23516,36715,24069
23410,36621,23918
23317,36540,23788
23241,36474,23683
23183,36424,23605
23141,36390,23554
23115,36372,23526
23107,36366,23520
23116,36372,23534
23142,36392,23567
23182,36427,23621
23236,36478,23693
23305,36544,23784
23387,36620,23890
23477,36703,24007
23572,36789,24128
23665,36875,24249
23754,36959,24367
23835,37036,24476
23908,37101,24570
23966,37151,24647
24003,37186,24703
24024,37205,24736
24029,37212,24745
24018,37204,24731
23985,37179,24690
23934,37134,24625
23866,37071,24536
23780,36993,24421
23678,36901,24284
23566,36798,24129
23448,36686,23962
23325,36569,23786
23198,36449,23607
23072,36330,23428
22947,36214,23254
22822,36101,23080
22694,35988,22905
22567,35879,22733
22443,35774,22563
22321,35671,22397
22199,35568,22233
22077,35464,22069
21957,35359,21903
21839,35255,21737
21722,35153,21575
21610,35054,21417
21500,34955,21260
21391,34859,21105
21283,34763,20950
21180,34670,20795
21080,34582,20644
20983,34498,20499
20890,34418,20357
20805,34342,20222
20725,34271,20093
20648,34202,19975
20573,34136,19870
20503,34074,19776
20439,34016,19691
20380,33965,19616
20328,33921,19549
20282,33884,19490
20241,33850,19438
20205,33821,19391
20174,33796,19349
20145,33771,19308
20116,33745,19269
20089,33719,19230
20067,33695,19191
20047,33674,19157
20028,33657,19126
20010,33640,19095
19992,33623,19066
19973,33604,19036
19950,33584,18999
19921,33558,18955
19887,33528,18906
19850,33495,18852
19806,33459,18795
19756,33420,18733
19703,33379,18664
19648,33335,18590
19593,33289,18515
19541,33246,18439
19490,33203,18364
19439,33158,18290
19387,33111,18213
19335,33065,18134
19282,33021,18055
19229,32977,17980
19175,32934,17906
19126,32891,17834
19085,32851,17766
19048,32815,17706
19010,32784,17651
18975,32756,17601
18945,32731,17552
18917,32708,17507
18888,32687,17465
18858,32663,17424
18828,32636,17385
18794,32605,17344
18756,32573,17298
18715,32540,17247
18676,32507,17191
18637,32472,17131
18594,32433,17065
18546,32389,16994
18498,32340,16919
18448,32287,16843
18396,32237,16769
18344,32190,16698
18296,32146,16628
18252,32105,16557
18209,32065,16484
18164,32024,16408
18117,31983,16331
18068,31941,16252
18017,31896,16173
17966,31848,16094
17913,31798,16014
17857,31748,15935
17800,31701,15858
17746,31658,15787
17700,31624,15728
17666,31602,15689
17652,31598,15677
17668,31620,15707
17723,31678,15795
17821,31779,15950
17969,31927,16183
18171,32126,16503
18437,32382,16918
18773,32699,17434
19180,33075,18052
19655,33510,18764
20193,33996,19552
20776,34520,20394
21385,35064,21262
22000,35611,22130
22601,36145,22976
23171,36650,23777
23699,37113,24517
24177,37530,25186
24600,37898,25778
24967,38217,26290
25276,38484,26719
25526,38699,27064
25716,38861,27324
25847,38971,27505
25923,39034,27611
25948,39055,27648
25928,39036,27622
25869,38981,27544
25779,38898,27422
25665,38794,27266
25534,38676,27089
25391,38548,26897
25240,38415,26697
25085,38278,26491
24932,38143,26284
24784,38013,26086
24645,37894,25903
24521,37788,25738
24414,37698,25591
24323,37622,25466
24250,37560,25366
24194,37511,25288
24148,37471,25227
24114,37439,25178
24090,37412,25135
24068,37390,25098
24046,37370,25058
24023,37351,25014
23994,37327,24960
23956,37295,24895
23906,37251,24817
23844,37195,24728
23773,37131,24630
23696,37062,24524
23614,36991,24410
23531,36919,24289
23447,36847,24170
23364,36773,24058
23286,36703,23957
23217,36642,23868
23163,36591,23790
23122,36552,23725
23091,36525,23675
23072,36510,23643
23066,36507,23629
23075,36516,23636
23098,36540,23664
23134,36577,23706
23180,36621,23761
23234,36668,23826
23295,36719,23897
23359,36772,23972
23423,36824,24048
23483,36872,24118
23534,36911,24180
23575,36939,24229
23604,36958,24264
23620,36967,24284
23623,36967,24284
23612,36959,24265
23589,36940,24228
23551,36907,24174
23502,36862,24107
23441,36805,24026
23368,36738,23927
23282,36661,23808
23182,36574,23674
23073,36475,23527
22954,36370,23368
22829,36263,23199
22699,36154,23022
22563,36038,22838
22425,35913,22649
22284,35783,22454
22142,35653,22258
22002,35528,22066
21867,35408,21883
21737,35292,21708
21615,35184,21542
21501,35084,21385
21395,34994,21235
21298,34912,21095
21211,34840,20966
21134,34777,20852
21065,34720,20747
21003,34666,20652
20947,34616,20565
20896,34569,20483
20848,34522,20405
20801,34477,20329
20756,34432,20256
20715,34391,20191
20675,34356,20131
20636,34324,20074
20600,34292,20021
20567,34259,19971
20536,34227,19924
20505,34196,19879
20476,34167,19835
20448,34140,19791
20420,34111,19743
20388,34078,19690
20352,34043,19633
20312,34005,19574
20269,33965,19516
20227,33926,19458
20188,33890,19405
20155,33858,19356
20128,33830,19314
20107,33805,19279
20089,33785,19250
20070,33767,19224
20049,33748,19197
20029,33731,19171
20011,33717,19145
19994,33706,19117
19976,33695,19085
19954,33681,19050
19930,33663,19013
19905,33641,18974
19881,33618,18936
19857,33594,18897
19835,33570,18856
19813,33548,18810
19792,33526,18764
19770,33502,18718
19749,33478,18672
19727,33455,18628
19703,33432,18583
19676,33406,18536
19644,33376,18485
19607,33342,18429
19566,33306,18370
19522,33269,18305
19477,33232,18236
19431,33196,18168
19382,33159,18100
19333,33120,18030
19286,33082,17957
19240,33043,17886
19197,33000,17817
19155,32958,17753
19116,32919,17697
19079,32883,17645
19045,32851,17596
19014,32828,17551
18987,32810,17512
18965,32795,17477
18950,32779,17444
18936,32761,17411
18922,32742,17377
18906,32724,17342
18887,32702,17303
18865,32676,17260
18837,32647,17210
18803,32614,17154
18765,32580,17093
18724,32545,17029
18681,32508,16966
18639,32469,16907
18596,32428,16847
18554,32388,16786
18512,32352,16727
18474,32320,16671
18439,32289,16616
18407,32259,16567
18377,32234,16522
18352,32213,16485
18335,32201,16461
18332,32204,16461
18350,32227,16494
18402,32281,16575
18498,32376,16721
18650,32519,16949
18869,32721,17274
19163,32991,17709
19539,33335,18263
20001,33756,18939
20544,34250,19727
21160,34804,20603
21835,35405,21543
22551,36035,22526
23285,36678,23525
24017,37318,24522
24734,37945,25502
25424,38551,26447
26073,39125,27338
26671,39656,28158
27210,40131,28893
27679,40541,29532
28074,40884,30068
28392,41156,30501
28638,41359,30835
28815,41500,31075
28931,41585,31230
28989,41620,31309
28997,41613,31322
28963,41569,31278
28895,41498,31186
28803,41406,31055
28694,41302,30898
28572,41190,30722
28442,41073,30537
28308,40954,30350
28174,40835,30167
28043,40718,29992
27921,40608,29834
27815,40511,29693
27724,40429,29573
27649,40362,29476
27589,40308,29400
27545,40269,29341
27516,40245,29301
27501,40232,29279
27497,40228,29270
27500,40229,29269
27507,40231,29270
27507,40230,29266
27496,40222,29249
27476,40202,29212
27443,40169,29157
27396,40125,29088
27335,40071,29007
27264,40009,28914
27186,39938,28810
27103,39864,28699
27019,39788,28586
26939,39714,28474
26864,39641,28363
26792,39571,28255
26722,39505,28152
26656,39446,28060
26595,39394,27978
26539,39347,27907
26492,39308,27848
26456,39276,27799
26428,39249,27760
26408,39229,27729
26396,39218,27711
26396,39216,27704
26404,39223,27709
26419,39237,27723
26439,39256,27746
26463,39277,27773
26490,39300,27804
26519,39322,27838
26546,39344,27871
26569,39366,27901
26588,39383,27926
26602,39393,27941
26609,39394,27943
26604,39383,27928
26589,39360,27894
26560,39325,27841
26516,39279,27769
26458,39220,27678
26384,39151,27570
26297,39074,27445
26199,38988,27306
26093,38896,27153
25979,38798,26991
25856,38694,26822
25729,38584,26649
25598,38469,26473
25466,38354,26296
25335,38240,26117
25209,38128,25942
25087,38019,25769
24966,37909,25599
24848,37799,25429
24732,37690,25261
24617,37584,25095
24501,37482,24934
24383,37385,24778
24267,37290,24625
24155,37196,24475
24047,37102,24323
23942,37010,24173
23842,36921,24029
23746,36835,23891
23652,36748,23755
23559,36661,23620
23464,36574,23488
23371,36488,23360
23280,36403,23236
23191,36319,23114
23103,36237,22996
23016,36158,22884
22931,36084,22777
22850,36012,22672
22770,35944,22567
22689,35877,22460
22606,35809,22349
22518,35735,22234
22428,35659,22113
22336,35579,21985
22240,35498,21855
22143,35418,21727
22050,35340,21604
21961,35265,21486
21877,35191,21371
21799,35119,21262
21724,35050,21157
21651,34983,21055
21578,34916,20955
21507,34851,20857
21437,34791,20760
21369,34737,20667
21306,34684,20575
21245,34629,20484
21183,34573,20396
21119,34517,20310
21055,34460,20225
20991,34404,20138
20928,34349,20049
20867,34292,19959
20807,34237,19871
20749,34183,19783
20690,34131,19694
20632,34080,19602
20574,34026,19507
20516,33970,19410
20457,33914,19312
20397,33860,19214
20338,33807,19119
20281,33756,19028
20224,33704,18941
20169,33651,18857
20114,33601,18771
20061,33553,18683
20007,33504,18595
19951,33453,18509
19897,33405,18428
19844,33362,18351
19794,33321,18278
19745,33281,18206
19697,33241,18138
19648,33204,18074
19600,33170,18016
19558,33139,17961
19524,33111,17910
19493,33083,17859
19460,33054,17808
19425,33021,17754
19386,32985,17698
19344,32947,17641
19298,32907,17583
19250,32866,17519
19198,32823,17450
19143,32776,17375
19082,32723,17295
19020,32667,17212
18961,32611,17126
18905,32555,17039
18854,32502,16953
18805,32454,16876
18763,32414,16817
18738,32390,16782
18738,32389,16784
18772,32420,16840
18851,32496,16963
18987,32625,17168
19191,32816,17470
19470,33076,17882
19827,33410,18413
20266,33817,19063
20786,34293,19823
21377,34829,20672
22023,35411,21585
22702,36020,22536
23392,36639,23495
24076,37247,24440
24738,37833,25353
25366,38386,26220
25949,38896,27024
26479,39359,27754
26948,39769,28402
27351,40117,28960
27686,40399,29424
27953,40615,29789
28152,40772,30059
28284,40873,30242
28356,40923,30342
28373,40928,30369
28345,40895,30332
28280,40830,30242
28185,40738,30111
28069,40625,29951
27934,40498,29770
27788,40363,29575
27638,40224,29373
27488,40086,29167
27339,39952,28963
27194,39824,28764
27058,39705,28575
26931,39596,28401
26815,39497,28247
26712,39408,28111
26623,39331,27994
26547,39264,27897
26482,39210,27817
26429,39167,27751
26385,39133,27695
26348,39104,27646
26315,39077,27602
26284,39048,27556
26249,39013,27500
26208,38971,27432
26158,38922,27350
26095,38865,27255
26024,38803,27150
25946,38737,27038
25866,38668,26924
25784,38596,26810
25705,38529,26700
25632,38467,26599
25567,38412,26509
25512,38364,26430
25468,38326,26366
25436,38300,26321
25415,38285,26295
25407,38280,26288
25411,38283,26297
25424,38292,26317
25441,38305,26341
25461,38320,26369
25485,38338,26399
25509,38360,26434
25532,38384,26470
25555,38408,26504
25576,38430,26533
25595,38445,26557
25607,38452,26572
25610,38450,26575
25604,38441,26567
25593,38427,26548
25575,38408,26521
25548,38384,26486
25516,38356,26442
25477,38323,26386
25427,38281,26316
25367,38228,26231
25301,38165,26130
25229,38093,26014
25149,38014,25886
25062,37927,25748
24967,37837,25605
24864,37743,25454
24756,37643,25296
24644,37541,25134
24533,37440,24973
24419,37339,24813
24300,37235,24650
24177,37129,24483
24051,37017,24313
23921,36903,24140
23790,36792,23966
23659,36683,23792
23529,36574,23620
23399,36463,23450
23272,36355,23283
23152,36251,23122
23039,36156,22970
22932,36068,22829
22834,35989,22698
22747,35918,22577
22670,35852,22462
22598,35788,22355
22530,35725,22256
22464,35664,22162
22402,35607,22073
22343,35552,21990
22284,35501,21910
22229,35454,21833
22177,35410,21760
22126,35364,21689
22077,35314,21618
22029,35264,21546
21983,35216,21475
21938,35173,21406
21894,35134,21342
21850,35097,21280
21808,35061,21221
21765,35025,21162
21720,34986,21103
21675,34946,21044
21632,34906,20982
21589,34865,20919
21545,34823,20850
21500,34777,20778
21451,34731,20704
21400,34686,20630
21345,34641,20553
21289,34597,20476
21231,34553,20400
21172,34508,20325
21112,34461,20249
21050,34413,20175
20987,34365,20104
20926,34322,20036
20872,34280,19968
20822,34239,19899
20777,34197,19831
20734,34159,19766
20694,34123,19702
20653,34087,19637
20612,34049,19573
20572,34010,19508
20533,33970,19443
20494,33929,19376
20453,33887,19311
20410,33843,19247
20366,33802,19185
20319,33761,19121
20270,33720,19053
20219,33679,18982
20167,33638,18914
20117,33596,18849
20071,33556,18788
20031,33518,18727
19992,33482,18666
19950,33448,18606
19908,33413,18543
19868,33379,18479
19829,33347,18416
19791,33316,18354
19754,33285,18293
19720,33254,18236
19691,33223,18183
19665,33193,18132
19639,33164,18083
19613,33136,18037
19587,33111,18000
19565,33092,17977
19555,33088,17974
19567,33107,18004
19614,33160,18081
19707,33255,18224
19855,33401,18449
20070,33608,18768
20358,33880,19193
20724,34220,19726
21167,34626,20362
21681,35092,21089
22250,35603,21885
22853,36144,22725
23476,36701,23588
24105,37260,24454
24729,37812,25309
25333,38342,26135
25907,38839,26916
26439,39293,27636
26917,39700,28286
27334,40056,28855
27688,40353,29331
27973,40587,29708
28188,40759,29991
28333,40873,30185
28413,40930,30293
28434,40938,30322
28402,40905,30284
28325,40838,30191
28212,40739,30052
28070,40617,29873
27902,40472,29661
27712,40309,29417
27509,40133,29148
27298,39952,28862
27083,39765,28570
26865,39574,28277
26649,39384,27985
26438,39198,27699
26236,39019,27424
26042,38850,27165
25863,38696,26923
25703,38554,26699
25558,38421,26491
25423,38293,26297
25293,38171,26110
25167,38052,25929
25039,37933,25748
24906,37812,25564
24769,37690,25374
24629,37571,25183
24490,37454,24996
24357,37338,24815
24234,37228,24647
24123,37131,24498
24025,37049,24369
23943,36983,24265
23878,36932,24185
23831,36898,24130
23802,36880,24098
23790,36879,24087
23797,36890,24095
23817,36909,24122
23846,36937,24163
23885,36973,24215
23932,37014,24274
23984,37058,24339
24035,37105,24408
24088,37153,24480
24140,37198,24551
24188,37237,24617
24230,37270,24675
24265,37298,24722
24292,37322,24759
24309,37341,24790
24318,37352,24813
24322,37356,24827
24320,37355,24832
24314,37350,24827
24302,37340,24807
24283,37321,24770
24257,37293,24717
24220,37254,24646
24167,37205,24559
24101,37148,24457
24021,37079,24340
23928,36996,24210
23824,36899,24068
23708,36794,23916
23585,36683,23753
23457,36570,23582
23328,36456,23407
23199,36341,23230
23071,36227,23053
22948,36117,22879
22830,36010,22710
22715,35906,22547
22603,35807,22392
22499,35715,22248
22406,35631,22116
22324,35556,21999
22251,35491,21894
22186,35432,21798
22128,35378,21711
22078,35330,21636
22036,35288,21571
21999,35253,21513
21966,35227,21465
21938,35209,21427
21918,35199,21398
21901,35192,21373
21885,35185,21350
21870,35176,21329
21856,35166,21308
21843,35156,21284
21833,35149,21261
21827,35146,21243
21826,35148,21231
21827,35153,21224
21828,35157,21220
21828,35160,21218
21828,35161,21216
21828,35161,21210
21825,35157,21196
21818,35149,21176
21806,35135,21148
21787,35112,21115
21765,35084,21074
21738,35051,21026
21708,35014,20971
21673,34975,20913
21631,34935,20851
21584,34894,20786
21536,34850,20718
21490,34805,20650
21446,34759,20583
21403,34713,20518
21360,34668,20458
21319,34627,20403
21279,34591,20352
21241,34559,20304
21206,34529,20256
21172,34502,20206
21137,34475,20152
21099,34448,20093
21060,34420,20030
21018,34388,19964
20972,34351,19898
20923,34312,19831
20873,34271,19759
20821,34229,19683
20770,34184,19607
20716,34139,19531
20662,34095,19454
20612,34050,19376
20565,34007,19300
20516,33964,19225
20464,33921,19149
20412,33877,19075
20362,33833,19002
20313,33787,18929
20263,33737,18853
20212,33687,18775
20158,33634,18693
20099,33578,18607
20038,33517,18516
19975,33454,18422
19911,33392,18328
19846,33330,18234
19780,33271,18142
19719,33218,18054
19666,33173,17977
19626,33140,17925
19606,33127,17907
19616,33143,17935
19667,33200,18028
19772,33311,18198
19942,33484,18463
20192,33728,18838
20530,34047,19333
20956,34441,19950
21467,34906,20679
22053,35431,21499
22695,36002,22387
23374,36602,23319
24067,37214,24270
24761,37822,25216
25440,38414,26143
26093,38986,27036
26713,39529,27883
27291,40031,28671
27814,40482,29383
28272,40876,30006
28660,41212,30530
28975,41485,30951
29216,41692,31271
29387,41836,31496
29495,41925,31637
29549,41966,31705
29558,41963,31710
29529,41925,31664
29467,41856,31577
29379,41766,31457
29270,41662,31314
29151,41551,31155
29029,41438,30992
28909,41327,30829
28792,41220,30670
28682,41116,30519
28580,41019,30380
28487,40934,30256
28404,40862,30149
28336,40804,30061
28288,40763,29995
28258,40740,29952
28240,40731,29927
28231,40732,29917
28229,40738,29915
28230,40746,29919
28228,40751,29922
28219,40745,29915
28198,40726,29886
28162,40691,29834
28110,40641,29759
28042,40577,29662
27960,40497,29541
27860,40405,29400
27746,40303,29243
27623,40194,29077
27497,40083,28906
27370,39974,28736
27247,39868,28575
27131,39769,28427
27028,39680,28298
26940,39603,28188
26869,39542,28098
26816,39499,28029
26782,39470,27981
26766,39456,27954
26767,39454,27946
26785,39464,27955
26814,39485,27977
26848,39511,28010
26885,39543,28050
26924,39581,28093
26965,39618,28138
27004,39651,28184
27039,39679,28231
27072,39705,28274
27100,39726,28307
27116,39738,28326
27116,39740,28332
27104,39728,28322
27081,39706,28294
27046,39675,28247
27000,39637,28185
26948,39593,28110
26889,39540,28023
26823,39479,27926
26751,39411,27818
26674,39339,27704
26592,39263,27584
26508,39182,27455
26417,39095,27318
26316,39004,27171
26207,38907,27015
26090,38806,26848
25971,38702,26675
25854,38599,26500
25735,38496,26328
25615,38391,26158
25493,38284,25990
25374,38177,25828
25257,38074,25673
25147,37977,25524
25045,37886,25386
24953,37803,25259
24868,37727,25140
24793,37659,25028
24728,37600,24926
24667,37548,24835
24611,37504,24751
24561,37463,24674
24517,37425,24604
24473,37388,24539
24429,37352,24477
24384,37317,24417
24342,37280,24357
24301,37242,24297
24259,37202,24239
24215,37166,24184
24175,37134,24132
24138,37106,24085
24102,37079,24040
24069,37051,23996
24041,37024,23953
24015,36999,23910
23992,36976,23871
23972,36952,23835
23954,36926,23799
23936,36899,23762
23913,36873,23723
23883,36846,23683
23847,36814,23638
23801,36774,23587
23749,36728,23526
23693,36678,23454
23634,36625,23372
23567,36565,23280
23488,36498,23178
23400,36424,23063
23308,36344,22938
23212,36258,22803
23113,36166,22662
23012,36072,22519
22908,35979,22376
22803,35887,22234
22699,35794,22094
22600,35704,21956
22504,35617,21824
22409,35536,21696
22319,35462,21573
22235,35392,21456
22159,35325,21347
22090,35261,21244
22025,35201,21145
21966,35146,21051
21912,35097,20964
21860,35050,20884
21810,35005,20810
21763,34963,20738
21715,34922,20668
21663,34883,20600
21611,34847,20535
21564,34814,20475
21523,34783,20420
21485,34752,20369
21446,34719,20317
21406,34683,20262
21362,34642,20204
21314,34599,20145
21264,34554,20082
21215,34508,20015
21166,34462,19943
21118,34415,19868
21071,34366,19788
21023,34317,19706
20975,34268,19624
20928,34221,19543
20881,34176,19464
20838,34135,19388
20798,34098,19319
20763,34065,19260
20735,34039,19218
20721,34028,19198
20730,34040,19216
20773,34086,19285
20865,34177,19424
21018,34326,19652
21246,34547,19986
21563,34843,20436
21974,35216,21008
22470,35663,21697
23040,36175,22487
23669,36740,23358
24339,37342,24287
25035,37968,25251
25745,38603,26231
26451,39233,27206
27138,39839,28154
27787,40406,29048
28382,40922,29864
28909,41374,30582
29360,41757,31192
29729,42069,31692
30018,42311,32084
30231,42486,32372
30378,42604,32567
30468,42672,32683
30509,42698,32733
30515,42692,32729
30491,42658,32684
30444,42604,32609
30381,42536,32512
30308,42460,32398
30226,42377,32273
30134,42287,32140
30036,42195,32005
29937,42106,31871
29840,42023,31740
29747,41945,31616
29659,41871,31504
29579,41805,31406
29511,41751,31324
29457,41713,31261
29421,41688,31217
29402,41674,31190
29394,41667,31175
29392,41665,31170
29392,41664,31168
29390,41661,31162
29381,41653,31146
29360,41636,31117
29325,41607,31069
29276,41564,31001
29214,41508,30911
29138,41439,30802
29050,41358,30678
28952,41267,30539
28843,41167,30389
28729,41063,30235
28614,40960,30084
28505,40859,29937
28401,40767,29800
28305,40686,29676
28220,40615,29565
28147,40554,29471
28089,40506,29397
28048,40471,29345
28023,40450,29315
28014,40443,29304
28017,40449,29308
28030,40463,29324
28055,40484,29352
28088,40511,29390
28126,40544,29436
28167,40582,29484
28208,40622,29531
28249,40659,29573
28286,40693,29610
28315,40721,29641
28338,40739,29665
28351,40746,29678
28353,40744,29679
28345,40732,29671
28330,40713,29652
28310,40687,29621
28284,40655,29578
28248,40618,29522
28203,40576,29453
28149,40528,29375
28084,40473,29288
28011,40412,29191
27931,40343,29082
27843,40267,28961
27744,40183,28827
27635,40088,28681
27520,39986,28526
27403,39881,28370
27282,39774,28213
27163,39665,28052
27047,39553,27887
26933,39442,27724
26823,39331,27565
26717,39225,27412
26616,39127,27269
26518,39038,27133
26424,38957,27005
26334,38883,26884
26248,38814,26772
26170,38750,26669
26101,38693,26573
26040,38643,26484
25984,38597,26403
25933,38554,26330
25886,38516,26263
25847,38481,26202
25814,38451,26153
25787,38427,26113
25762,38404,26078
25738,38382,26043
25712,38360,26004
25681,38335,25960
25648,38306,25912
25615,38275,25862
25584,38242,25808
25550,38209,25752
25513,38173,25694
25474,38137,25636
25434,38098,25577
25394,38059,25517
25354,38020,25455
25314,37984,25393
25274,37949,25333
25233,37914,25276
25192,37879,25221
25148,37844,25165
25101,37806,25107
25052,37764,25048
25000,37720,24987
24948,37674,24922
24893,37627,24852
24835,37580,24775
24774,37529,24691
24711,37476,24604
24645,37420,24516
24575,37362,24428
24508,37301,24340
24445,37239,24255
24384,37178,24171
24323,37118,24085
24265,37060,23997
24211,37007,23911
24160,36958,23828
24109,36913,23747
24057,36865,23667
24005,36813,23587
23951,36757,23504
23890,36697,23418
23826,36636,23331
23759,36575,23240
23691,36516,23146
23622,36459,23049
23554,36403,22952
23489,36346,22854
23425,36291,22757
23360,36238,22663
23294,36184,22572
23231,36131,22485
23169,36080,22399
23108,36030,22313
23047,35979,22229
22986,35924,22145
22925,35867,22060
22864,35807,21975
22805,35749,21888
22746,35692,21799
22686,35636,21710
22623,35579,21619
22555,35520,21526
22484,35461,21430
22415,35403,21333
22351,35348,21244
22291,35293,21162
22233,35243,21085
22182,35199,21014
22144,35163,20957
22125,35143,20924
22132,35149,20933
22177,35191,21001
22273,35284,21142
22435,35437,21373
22675,35659,21708
22998,35955,22153
23402,36323,22710
23880,36756,23373
24425,37249,24128
25024,37789,24956
25659,38361,25836
26320,38950,26748
26987,39539,27667
27639,40113,28564
28261,40654,29414
28835,41152,30193
29344,41593,30883
29777,41966,31473
30134,42269,31956
30412,42503,32335
30616,42672,32612
30753,42782,32801
30832,42841,32911
30863,42857,32954
30855,42837,32942
30812,42785,32883
30743,42708,32786
30651,42611,32658
30540,42502,32508
30417,42388,32345
30286,42275,32172
30152,42164,31995
30020,42059,31820
29891,41957,31649
29767,41855,31484
29652,41756,31327
29548,41664,31182
29454,41577,31050
29372,41499,30934
29301,41430,30836
29240,41373,30752
29190,41326,30679
29147,41286,30612
29105,41248,30546
29061,41212,30477
29014,41174,30403
28960,41127,30319
28893,41070,30225
28813,41001,30120
28720,40924,30005
28621,40842,29884
28520,40761,29760
28426,40681,29638
28341,40604,29525
28269,40536,29427
28212,40481,29347
28170,40440,29286
28141,40413,29242
28126,40401,29217
28129,40403,29211
28148,40415,29221
28177,40436,29246
28213,40464,29286
28254,40495,29338
28296,40530,29402
28342,40568,29475
28394,40613,29556
28451,40663,29645
28509,40715,29735
28565,40768,29819
28617,40817,29892
28663,40858,29953
28699,40892,30000
28724,40918,30033
28736,40934,30052
28736,40938,30056
28722,40928,30045
28697,40907,30017
28661,40878,29974
28615,40839,29916
28559,40792,29844
28494,40736,29756
28419,40673,29654
28335,40604,29539
28246,40528,29414
28152,40446,29282
28054,40358,29144
27951,40264,29001
27842,40167,28850
27729,40066,28693
27612,39960,28531
27491,39851,28367
27367,39740,28201
27241,39627,28032
27114,39515,27864
26988,39405,27698
26863,39298,27532
26744,39191,27367
26631,39088,27206
26524,38990,27053
26425,38900,26908
26334,38818,26772
26247,38741,26645
26166,38667,26527
26092,38598,26419
26023,38532,26318
25957,38470,26224
25896,38411,26138
25840,38360,26057
25786,38314,25980
25729,38271,25903
25669,38227,25827
25608,38181,25755
25550,38134,25685
25496,38086,25617
25446,38039,25550
25398,37998,25484
25351,37961,25417
25300,37925,25350
25248,37887,25283
25194,37845,25216
25141,37799,25147
25088,37751,25077
25033,37704,25006
24979,37657,24932
24927,37609,24858
24876,37562,24785
24827,37515,24715
24778,37472,24649
24731,37431,24589
24685,37392,24531
24639,37356,24473
24597,37324,24417
24557,37293,24364
24519,37262,24310
24479,37230,24255
24439,37195,24199
24395,37154,24138
24348,37110,24072
24297,37063,24000
24243,37012,23923
24184,36956,23839
24124,36898,23752
24064,36838,23661
24002,36776,23565
23933,36711,23462
23858,36644,23355
23780,36574,23248
23701,36505,23141
23620,36440,23033
23537,36377,22924
23454,36316,22813
23371,36254,22706
23292,36196,22606
23222,36145,22517
23167,36104,22443
23130,36076,22392
23118,36069,22374
23142,36095,22404
23212,36162,22501
23343,36282,22683
23545,36466,22965
23823,36715,23352
24180,37031,23844
24615,37414,24436
25118,37860,25120
25678,38358,25883
26282,38895,26707
26916,39456,27570
27559,40023,28443
28189,40576,29297
28783,41096,30104
29323,41570,30839
29802,41985,31484
30211,42336,32033
30551,42622,32486
30821,42847,32846
31023,43015,33119
31162,43132,33313
31248,43205,33437
31284,43239,33498
31279,43238,33505
31244,43207,33467
31185,43152,33393
31105,43079,33292
31012,42991,33169
30907,42892,33028
30795,42789,32874
30680,42685,32712
30562,42581,32545
30439,42476,32376
30311,42369,32208
30186,42261,32044
30065,42158,31889
29954,42062,31746
29852,41973,31614
29757,41893,31497
29672,41821,31393
29596,41756,31300
29526,41695,31216
29462,41636,31136
29397,41576,31054
29329,41514,30965
29255,41448,30864
29173,41376,30750
29085,41297,30624
28989,41213,30487
28885,41123,30340
28776,41029,30188
28666,40932,30037
28557,40838,29892
28455,40753,29759
28361,40680,29644
28281,40621,29548
28221,40575,29472
28183,40543,29420
28163,40525,29391
28161,40522,29384
28177,40534,29399
28209,40561,29435
28255,40600,29489
28312,40647,29560
28377,40699,29644
28445,40753,29735
28517,40812,29830
28593,40875,29926
28670,40941,30021
28741,41006,30113
28800,41064,30195
28849,41114,30262
28884,41151,30309
28906,41172,30337
28911,41176,30345
28898,41166,30333
28870,41144,30302
28830,41109,30252
28775,41061,30185
28707,41003,30101
28633,40936,30004
28552,40863,29893
28466,40785,29770
28376,40702,29637
28280,40612,29496
28176,40518,29348
28066,40420,29194
27951,40315,29032
27828,40205,28862
27698,40088,28686
27564,39968,28506
27430,39851,28326
27296,39735,28149
27165,39624,27976
27040,39518,27808
26921,39419,27645
26807,39326,27488
26696,39235,27339
26594,39148,27198
26501,39068,27069
26418,38997,26951
26345,38937,26845
26283,38884,26749
26230,38835,26662
26184,38791,26585
26145,38754,26517
26113,38722,26458
26085,38695,26407
26058,38670,26363
26032,38646,26325
26006,38622,26289
25981,38601,26256
25958,38583,26227
25936,38566,26200
25917,38550,26175
25898,38537,26152
25880,38523,26129
25862,38509,26104
25845,38494,26079
25825,38476,26053
25800,38455,26022
25770,38429,25986
25736,38400,25943
25701,38365,25893
25665,38326,25838
25628,38282,25780
25587,38235,25716
25542,38187,25648
25491,38136,25576
25437,38084,25498
25381,38029,25413
25322,37972,25328
25260,37912,25241
25200,37851,25155
25144,37797,25073
25090,37752,24997
25039,37712,24925
24988,37673,24856
24938,37634,24786
24888,37593,24714
24838,37549,24641
24787,37503,24567
24739,37458,24492
24693,37412,24418
24648,37367,24345
24602,37323,24273
24554,37280,24202
24502,37233,24129
24448,37185,24050
24392,37136,23968
24336,37089,23883
24280,37044,23797
24225,36998,23709
24171,36948,23621
24119,36897,23537
24066,36848,23459
24013,36800,23384
23957,36749,23308
23898,36692,23229
23835,36631,23146
23770,36572,23060
23705,36514,22974
23642,36458,22887
23583,36402,22802
23526,36346,22717
23469,36290,22632
23409,36233,22545
23347,36175,22456
23283,36117,22363
23222,36064,22269
23163,36015,22179
23106,35966,22094
23051,35921,22014
22999,35881,21944
22956,35851,21894
22935,35839,21875
22949,35855,21904
23014,35917,22001
23146,36040,22192
23359,36234,22496
23666,36511,22927
24071,36876,23488
24574,37329,24180
25170,37864,24991
25843,38468,25903
26574,39120,26897
27339,39800,27942
28113,40485,29000
28869,41149,30028
29581,41771,30991
30227,42334,31861
30792,42827,32620
31269,43241,33265
31657,43576,33797
31960,43837,34219
32189,44031,34540
32352,44166,34770
32457,44250,34921
32513,44292,35007
32530,44301,35040
32520,44285,35034
32490,44252,34996
32443,44205,34931
32382,44145,34848
32312,44075,34751
32236,44004,34646
32155,43931,34538
32071,43856,34431
31991,43783,34331
31916,43715,34238
31847,43655,34155
31788,43605,34080
31738,43565,34017
31701,43537,33966
31678,43522,33929
31669,43518,33909
31669,43520,33905
31674,43528,33911
31684,43540,33925
31700,43555,33946
31715,43573,33967
31726,43588,33982
31729,43593,33984
31722,43586,33969
31704,43567,33937
31671,43536,33886
31622,43488,33812
31557,43425,33717
31480,43352,33608
31393,43275,33490
31298,43194,33366
31201,43109,33237
31101,43021,33107
31001,42935,32978
30906,42852,32853
30816,42772,32736
30734,42699,32631
30660,42635,32541
30596,42583,32464
30545,42543,32401
30511,42515,32352
30493,42496,32322
30487,42488,32310
30492,42490,32312
30506,42500,32328
30524,42516,32357
30546,42536,32391
30572,42558,32425
30597,42581,32458
30619,42598,32485
30636,42608,32502
30645,42613,32508
30644,42613,32500
30634,42604,32480
30612,42584,32446
30579,42551,32399
30533,42507,32337
30475,42451,32261
30407,42386,32171
30331,42313,32065
30243,42232,31945
30144,42143,31810
30036,42047,31664
29922,41947,31513
29802,41843,31354
29675,41733,31185
29544,41616,31006
29409,41492,30822
29272,41366,30632
29132,41238,30440
28992,41111,30248
28852,40988,30056
28713,40869,29862
28573,40753,29667
28433,40641,29473
28295,40529,29283
28159,40415,29098
28028,40299,28915
27901,40183,28735
27780,40071,28563
27663,39964,28401
27553,39868,28252
27452,39782,28116
27361,39705,27993
27278,39634,27885
27204,39570,27790
27140,39515,27708
27083,39465,27634
27030,39417,27567
26980,39373,27503
26933,39332,27440
26890,39291,27380
26849,39251,27326
26808,39212,27274
26769,39175,27222
26733,39138,27168
26699,39104,27114
26668,39073,27064
26640,39045,27016
26614,39018,26971
26591,38992,26928
26567,38970,26885
26537,38950,26840
26499,38929,26795
26460,38909,26750
26420,38885,26705
26381,38857,26656
26343,38823,26603
26305,38785,26548
26266,38744,26492
26224,38703,26433
26179,38662,26371
26130,38620,26305
26082,38578,26238
26034,38538,26168
25985,38496,26096
25935,38452,26023
25885,38404,25948
25831,38354,25873
25775,38303,25795
25717,38250,25712
25655,38194,25623
25590,38137,25531
25524,38080,25436
25458,38024,25337
25393,37970,25238
25332,37915,25142
25273,37859,25049
25216,37805,24959
25158,37751,24873
25098,37697,24791
25034,37640,24707
24968,37582,24621
24901,37522,24531
24837,37461,24441
24774,37401,24350
24712,37343,24257
24649,37288,24165
24584,37235,24071
24518,37182,23974
24452,37130,23876
24388,37078,23780
24329,37028,23689
24275,36980,23606
24224,36933,23529
24176,36888,23461
24131,36843,23397
24088,36799,23333
24046,36757,23267
23999,36714,23201
23948,36669,23133
23891,36622,23062
23830,36571,22988
23766,36518,22911
23699,36463,22830
23634,36404,22743
23567,36341,22650
23496,36273,22552
23418,36202,22447
23334,36129,22335
23248,36055,22216
23160,35977,22094
23073,35899,21971
22988,35824,21852
22911,35756,21740
22843,35695,21639
22787,35644,21557
22747,35610,21507
22736,35604,21506
22768,35638,21571
22863,35731,21722
23034,35898,21983
23297,36150,22372
23664,36494,22899
24137,36929,23563
24708,37449,24351
25359,38041,25246
26072,38687,26227
26829,39369,27267
27608,40064,28334
28383,40749,29388
29126,41399,30394
29811,41996,31322
30425,42529,32150
30958,42990,32865
31405,43374,33462
31763,43678,33942
32038,43909,34313
32236,44074,34585
32364,44182,34767
32432,44238,34872
32449,44249,34911
32422,44222,34893
32363,44164,34827
32280,44084,34730
32180,43991,34609
32067,43887,34468
31944,43776,34312
31815,43663,34145
31684,43549,33974
31554,43434,33802
31429,43321,33634
31311,43214,33475
31203,43115,33329
31109,43028,33199
31031,42957,33088
30969,42902,32997
30921,42863,32927
30884,42836,32873
30856,42819,32832
30838,42808,32801
30827,42801,32779
30818,42794,32766
30808,42787,32757
30795,42779,32744
30772,42763,32718
30737,42736,32676
30687,42694,32615
30624,42638,32537
30552,42572,32440
30467,42496,32328
30373,42409,32201
30274,42314,32065
30172,42217,31926
30070,42119,31787
29967,42025,31651
29868,41935,31522
29775,41853,31404
29692,41780,31296
29622,41719,31200
29566,41670,31119
29521,41631,31051
29488,41602,30998
29468,41585,30964
29462,41580,30950
29469,41589,30954
29487,41608,30975
29513,41633,31009
29545,41665,31053
29582,41701,31107
29618,41735,31164
29653,41766,31217
29683,41794,31262
29706,41815,31296
29720,41825,31317
29723,41826,31322
29714,41819,31311
29692,41800,31285
29661,41772,31243
29622,41734,31182
29572,41685,31104
29507,41622,31013
29428,41549,30910
29340,41469,30796
29245,41383,30672
29140,41291,30535
29025,41192,30387
28902,41087,30228
28779,40978,30061
28654,40865,29886
28528,40752,29704
28401,40637,29517
28271,40522,29329
28142,40408,29143
28017,40296,28959
27894,40188,28779
27770,40082,28604
27644,39977,28431
27518,39873,28263
27394,39770,28100
27274,39669,27945
27162,39573,27797
27057,39481,27656
26960,39395,27521
26868,39314,27393
26779,39240,27272
26699,39171,27161
26629,39109,27064
26569,39051,26978
26513,38997,26898
26459,38946,26822
26406,38896,26746
26357,38847,26671
26311,38801,26599
26267,38760,26531
26227,38722,26468
26189,38686,26408
26152,38652,26351
26115,38620,26295
26080,38591,26241
26046,38565,26190
26013,38539,26145
25983,38514,26101
25955,38491,26060
25929,38470,26018
25902,38447,25975
25873,38420,25930
25842,38388,25883
25806,38351,25833
25765,38312,25780
25724,38273,25726
25685,38233,25672
25645,38191,25614
25602,38146,25551
25555,38101,25480
25504,38054,25404
25453,38006,25324
25400,37957,25240
25346,37906,25154
25291,37855,25066
25233,37804,24980
25174,37752,24895
25111,37698,24810
25045,37639,24726
24974,37577,24637
24900,37512,24541
24823,37444,24438
24742,37372,24329
24660,37301,24220
24577,37230,24110
24495,37162,24002
24416,37100,23898
24342,37042,23797
24274,36988,23699
24212,36936,23604
24156,36884,23510
24102,36831,23419
24050,36776,23335
23996,36723,23254
23939,36669,23172
23878,36613,23087
23813,36555,22999
23742,36493,22904
23666,36428,22804
23584,36359,22701
23504,36290,22597
23429,36223,22496
23359,36159,22396
23294,36097,22297
23234,36040,22204
23179,35988,22119
23127,35936,22044
23078,35887,21974
23031,35841,21909
22985,35797,21847
22938,35755,21787
22891,35715,21725
22845,35678,21662
22800,35643,21600
22758,35607,21537
22717,35569,21473
22673,35530,21406
22627,35487,21334
22579,35441,21258
22529,35392,21178
22478,35343,21098
22430,35299,21022
22385,35259,20954
22349,35227,20898
22327,35208,20866
22329,35213,20868
22367,35255,20924
22458,35342,21054
22615,35487,21279
22852,35705,21619
23179,36007,22088
23602,36395,22686
24120,36865,23407
24720,37405,24234
25387,38002,25145
26103,38640,26119
26850,39305,27133
27606,39979,28163
28351,40640,29179
29066,41267,30149
29731,41843,31043
30327,42355,31844
30843,42797,32540
31276,43164,33126
31623,43457,33600
31886,43679,33968
32076,43837,34235
32200,43933,34409
32264,43978,34500
32275,43981,34520
32242,43950,34483
32170,43888,34398
32068,43798,34272
31941,43682,34111
31790,43547,33920
31621,43400,33704
31437,43243,33467
31245,43080,33215
31047,42911,32954
30849,42742,32691
30655,42575,32433
30470,42415,32186
30297,42265,31955
30142,42129,31745
30003,42006,31556
29879,41895,31385
29764,41792,31230
29658,41693,31088
29559,41600,30955
29461,41510,30822
29360,41419,30684
29254,41325,30538
29138,41229,30384
29013,41127,30222
28881,41017,30050
28747,40901,29872
28617,40783,29695
28491,40668,29524
28373,40564,29366
28270,40473,29228
28185,40398,29115
28120,40339,29028
28077,40299,28968
28056,40279,28937
28055,40282,28936
28071,40303,28964
28106,40337,29014
28156,40383,29084
28219,40443,29173
28294,40515,29278
28380,40594,29394
28471,40675,29514
28558,40755,29634
28642,40835,29750
28724,40909,29860
28801,40975,29961
28868,41030,30047
28923,41073,30114
28961,41103,30162
28981,41119,30190
28984,41121,30202
28969,41111,30195
28942,41088,30169
28904,41054,30121
28856,41008,30050
28798,40951,29959
28732,40883,29851
28653,40808,29730
28562,40724,29596
28461,40632,29450
28351,40532,29293
28233,40423,29126
28108,40307,28946
27975,40185,28754
27835,40059,28552
27686,39927,28345
27532,39790,28135
27375,39650,27922
27216,39511,27707
27057,39374,27491
26901,39242,27279
26753,39114,27075
26611,38992,26880
26471,38872,26691
26333,38754,26507
26200,38638,26330
26074,38528,26162
25957,38422,26002
25847,38319,25848
25744,38220,25701
25646,38127,25561
25549,38039,25427
25454,37955,25297
25364,37871,25169
25277,37786,25043
25191,37703,24922
25109,37623,24805
25030,37546,24690
24953,37472,24577
24876,37401,24468
24801,37335,24365
24731,37274,24268
24664,37218,24176
24598,37165,24088
24536,37119,24004
24477,37074,23926
24423,37031,23857
24375,36989,23798
24334,36953,23746
24296,36922,23697
24260,36893,23648
24224,36865,23600
24189,36837,23551
24155,36811,23500
24124,36785,23448
24094,36758,23398
24065,36733,23352
24038,36709,23309
24009,36683,23268
23975,36655,23222
23938,36623,23170
23901,36590,23112
23862,36555,23050
23819,36519,22984
23775,36480,22915
23730,36436,22842
23678,36388,22767
23619,36338,22687
23558,36287,22605
23498,36233,22520
23435,36175,22431
23370,36113,22340
23305,36051,22251
23243,35993,22163
23180,35938,22078
23117,35884,21994
23054,35830,21907
22990,35776,21815
22923,35720,21718
22852,35658,21613
22777,35591,21501
22698,35521,21380
22612,35447,21250
22518,35366,21115
22418,35281,20978
22315,35195,20839
22212,35109,20701
22115,35028,20571
22028,34956,20458
21955,34899,20371
21908,34862,20317
21897,34857,20312
21937,34897,20379
22042,34997,20541
22225,35170,20817
22497,35427,21216
22865,35771,21748
23331,36204,22411
23887,36716,23191
24517,37290,24067
25199,37908,25012
25910,38548,25996
26633,39197,26993
27352,39839,27982
28049,40456,28937
28702,41030,29833
29295,41549,30648
29820,42007,31365
30271,42397,31976
30643,42715,32477
30937,42961,32872
31159,43143,33168
31316,43270,33377
31416,43347,33510
31463,43378,33573
31466,43371,33576
31433,43334,33529
31371,43272,33440
31284,43189,33318
31177,43091,33172
31055,42983,33004
30918,42865,32818
30770,42738,32620
30617,42605,32415
30462,42470,32210
30309,42336,32009
30161,42206,31814
30022,42083,31629
29892,41969,31460
29771,41870,31310
29663,41785,31180
29570,41712,31068
29494,41652,30973
29431,41602,30889
29379,41558,30812
29330,41513,30736
29281,41462,30657
29227,41405,30570
29166,41342,30473
29096,41272,30366
29019,41197,30252
28938,41119,30132
28857,41041,30011
28778,40968,29892
28703,40901,29780
28637,40841,29678
28579,40787,29590
28530,40744,29518
28491,40714,29465
28466,40696,29430
28457,40690,29415
28464,40695,29420
28483,40711,29445
28516,40739,29488
28559,40774,29544
28613,40815,29612
28677,40863,29691
28747,40917,29779
28820,40978,29873
28897,41044,29972
28976,41111,30073
29053,41178,30174
29125,41240,30269
29189,41295,30355
29243,41341,30429
29285,41375,30484
29314,41396,30519
29329,41405,30534
29329,41402,30528
29314,41385,30502
29285,41358,30455
29239,41320,30391
29179,41270,30310
29109,41207,30211
29030,41132,30095
28939,41047,29961
28835,40953,29811
28719,40849,29648
28593,40738,29475
28460,40620,29292
28320,40496,29099
28175,40369,28899
28026,40239,28695
27876,40107,28487
27726,39971,28278
27578,39835,28069
27430,39701,27862
27282,39569,27661
27136,39438,27466
26995,39308,27275
26860,39182,27088
26729,39062,26907
26600,38948,26736
26475,38837,26572
26353,38731,26414
26239,38633,26261
26135,38544,26114
26040,38462,25975
25950,38382,25846
25865,38304,25724
25784,38230,25612
25709,38162,25508
25636,38099,25411
25568,38041,25319
25505,37989,25232
25448,37941,25151
25397,37896,25075
25348,37853,25004
25304,37814,24937
25266,37778,24877
25231,37744,24820
25198,37712,24768
25168,37685,24719
25139,37658,24670
25107,37629,24619
25070,37597,24567
25032,37564,24514
24991,37529,24461
24951,37493,24408
24912,37455,24355
24874,37417,24298
24834,37377,24238
24790,37336,24174
24741,37294,24108
24690,37250,24037
24637,37203,23962
24584,37156,23888
24532,37107,23814
24481,37055,23739
24428,37002,23661
24373,36951,23578
24315,36903,23490
24258,36856,23398
24201,36805,23303
24140,36749,23208
24077,36689,23113
24015,36628,23019
23952,36566,22926
23885,36505,22837
23818,36447,22748
23757,36394,22663
23699,36344,22583
23642,36296,22507
23587,36250,22431
23536,36206,22356
23488,36162,22282
23444,36119,22211
23399,36075,22138
23350,36031,22065
23297,35985,21995
23241,35937,21926
23184,35889,21856
23126,35839,21784
23064,35784,21705
22998,35724,21622
22932,35662,21535
22867,35599,21444
22803,35537,21351
22741,35478,21255
22680,35422,21157
22617,35367,21057
22549,35310,20953
22480,35251,20851
22415,35191,20754
22355,35134,20661
22298,35085,20577
22252,35046,20509
22221,35021,20467
22216,35021,20463
22251,35060,20516
22342,35151,20650
22504,35306,20888
22753,35538,21249
23104,35859,21748
23563,36275,22390
24122,36782,23169
24768,37369,24067
25485,38019,25061
26255,38713,26123
27054,39430,27227
27860,40152,28344
28654,40860,29440
29414,41528,30482
30121,42141,31441
30755,42688,32297
31306,43159,33039
31768,43553,33661
32138,43867,34160
32418,44104,34541
32615,44271,34814
32743,44377,34993
32813,44432,35091
32836,44446,35123
32819,44423,35102
32770,44373,35039
32693,44302,34944
32596,44215,34823
32483,44119,34683
32362,44015,34529
32240,43909,34366
32118,43801,34198
31994,43691,34026
31872,43580,33854
31755,43469,33688
31639,43362,33532
31527,43262,33387
31425,43172,33255
31339,43092,33140
31265,43024,33042
31205,42967,32960
31160,42923,32895
31128,42892,32846
31102,42871,32807
31081,42857,32776
31064,42844,32750
31044,42829,32719
31018,42808,32675
30986,42775,32618
30944,42731,32551
30890,42677,32469
30823,42612,32370
30743,42539,32259
30653,42458,32140
30555,42373,32017
30453,42287,31890
30352,42202,31762
30255,42115,31636
30161,42030,31513
30073,41949,31396
29992,41875,31287
29920,41810,31190
29857,41755,31108
29805,41713,31042
29765,41683,30993
29739,41664,30961
29728,41655,30948
29730,41657,30951
29744,41670,30967
29767,41692,30992
29794,41718,31022
29821,41744,31053
29847,41768,31080
29868,41787,31103
29882,41800,31121
29887,41804,31129
29884,41800,31126
29875,41789,31110
29860,41772,31081
29838,41748,31041
29808,41717,30990
29769,41678,30931
29720,41632,30862
29660,41580,30781
29593,41523,30688
29519,41459,30583
29436,41387,30465
29344,41304,30333
29241,41211,30187
29128,41108,30026
29006,40998,29851
28874,40880,29665
28735,40757,29468
28589,40629,29266
28439,40496,29059
28290,40359,28850
28144,40218,28642
27997,40078,28437
27850,39943,28236
27704,39813,28040
27561,39689,27850
27424,39570,27667
27293,39457,27487
27167,39347,27312
27049,39241,27142
26936,39136,26980
26827,39034,26824
26719,38937,26673
26616,38846,26526
26518,38760,26387
26426,38681,26257
26341,38609,26137
26262,38543,26024
26186,38479,25918
26112,38418,25816
26040,38359,25719
25970,38302,25630
25905,38247,25547
25846,38195,25468
25793,38148,25394
25743,38103,25323
25695,38058,25252
25646,38012,25178
25595,37961,25100
25542,37907,25022
25489,37852,24948
25440,37799,24879
25393,37751,24812
25348,37709,24747
25303,37670,24681
25258,37632,24615
25213,37595,24548
25165,37556,24479
25112,37516,24407
25055,37470,24332
24996,37420,24253
24935,37367,24172
24868,37309,24085
24798,37246,23990
24728,37180,23888
24658,37112,23782
24586,37042,23674
24514,36972,23564
24441,36902,23456
24364,36832,23353
24285,36761,23249
24206,36690,23143
24130,36620,23035
24056,36552,22925
23984,36485,22814
23913,36418,22705
23837,36350,22595
23756,36280,22485
23674,36210,22378
23592,36142,22269
23511,36077,22157
23430,36015,22047
23353,35955,21941
23278,35892,21839
23206,35828,21741
23137,35764,21646
23073,35702,21555
23012,35643,21466
22953,35586,21377
22893,35531,21288
22831,35476,21197
22767,35420,21104
22705,35362,21008
22642,35302,20910
22576,35243,20810
22506,35185,20708
22435,35124,20601
22359,35059,20492
22280,34991,20381
22197,34922,20270
22115,34852,20157
22035,34782,20044
21960,34713,19932
21888,34646,19820
21817,34580,19709
21749,34520,19607
21690,34468,19521
21642,34430,19457
21612,34407,19424
21613,34413,19434
21658,34460,19507
21760,34562,19663
21935,34731,19923
22196,34976,20306
22555,35307,20823
23017,35731,21481
23578,36243,22276
24228,36833,23189
24945,37482,24192
25706,38168,25256
26492,38875,26355
27283,39587,27464
28060,40286,28553
28806,40953,29593
29504,41569,30557
30138,42120,31424
30694,42600,32180
31168,43005,32820
31558,43337,33345
31868,43595,33757
32100,43784,34063
32256,43909,34273
32344,43979,34395
32377,43998,34441
32366,43975,34423
32317,43917,34352
32232,43829,34237
32120,43720,34088
31989,43594,33909
31840,43456,33709
31679,43311,33494
31512,43159,33266
31339,43003,33027
31160,42848,32784
30977,42695,32544
30797,42545,32311
30627,42401,32089
30469,42267,31879
30326,42143,31681
30199,42031,31501
30088,41929,31343
29991,41839,31206
29904,41757,31087
29825,41683,30981
29749,41616,30883
29672,41552,30786
29588,41487,30687
29498,41417,30581
29404,41338,30462
29304,41249,30331
29198,41150,30187
29088,41047,30038
28978,40945,29890
28870,40848,29746
28769,40756,29609
28680,40671,29480
28602,40595,29365
28533,40531,29265
28476,40480,29184
28435,40444,29123
28408,40422,29084
28394,40411,29064
28390,40409,29058
28393,40413,29065
28402,40422,29081
28417,40437,29104
28438,40457,29135
28468,40483,29173
28505,40513,29216
28545,40547,29261
28585,40582,29306
28626,40614,29351
28663,40643,29392
28693,40667,29428
28718,40687,29456
28734,40702,29474
28740,40707,29480
28736,40701,29469
28723,40684,29441
28698,40657,29397
28661,40621,29340
28611,40575,29270
28551,40519,29186
28479,40452,29088
28395,40377,28977
28301,40294,28852
28200,40203,28711
28094,40106,28559
27978,40005,28395
27854,39897,28222
27726,39784,28038
27593,39664,27847
27452,39538,27649
27304,39407,27443
27153,39274,27230
27001,39139,27014
26848,39002,26796
26694,38865,26578
26543,38731,26364
26393,38600,26153
26244,38470,25948
26098,38339,25749
25956,38211,25557
25821,38089,25372
25693,37973,25194
25574,37861,25023
25461,37756,24861
25352,37658,24711
25250,37567,24572
25157,37484,24443
25074,37409,24326
24996,37345,24222
24926,37290,24129
24863,37242,24047
24807,37199,23972
24754,37155,23901
24704,37114,23833
24660,37076,23767
24619,37042,23707
24578,37006,23649
24539,36966,23592
24503,36926,23536
24469,36888,23482
24433,36852,23431
24398,36819,23382
24365,36791,23336
24334,36766,23293
24305,36742,23250
24276,36717,23205
24242,36688,23158
24205,36658,23110
24164,36625,23061
24122,36588,23009
24078,36547,22952
24033,36501,22890
23987,36453,22823
23939,36401,22750
23890,36347,22673
23842,36294,22597
23791,36244,22520
23737,36195,22443
23683,36149,22364
23626,36104,22279
23566,36056,22190
23504,36006,22099
23443,35951,22009
23380,35892,21919
23314,35832,21826
23245,35773,21732
23176,35716,21640
23107,35660,21550
23037,35605,21460
22970,35551,21372
22906,35499,21288
22845,35449,21207
22787,35400,21128
22734,35354,21052
22688,35311,20981
22645,35270,20911
22601,35227,20839
22555,35184,20762
22506,35138,20681
22455,35091,20598
22402,35042,20515
22346,34991,20430
22287,34940,20345
22227,34888,20259
22168,34839,20178
22114,34799,20110
22071,34770,20062
22049,34760,20045
22059,34778,20078
22119,34838,20177
22240,34952,20361
22434,35131,20648
22712,35385,21052
23082,35721,21579
23542,36138,22228
24085,36631,22989
24695,37183,23839
25357,37779,24751
26050,38402,25703
26754,39037,26671
27454,39665,27633
28137,40275,28570
28787,40851,29459
29383,41375,30278
29911,41835,31008
30365,42225,31634
30744,42545,32151
31048,42794,32560
31277,42976,32864
31435,43094,33072
31528,43158,33196
31562,43175,33246
31544,43150,33227
31483,43089,33149
31382,42996,33020
31250,42874,32848
31092,42731,32640
30915,42570,32403
30720,42393,32138
30508,42203,31848
30284,42001,31542
30053,41795,31226
29818,41583,30905
29579,41368,30580
29342,41157,30253
29110,40952,29933
28883,40754,29623
28663,40567,29325
28453,40390,29042
28249,40217,28771
28046,40044,28507
27845,39873,28242
27649,39706,27974
27455,39540,27707
27263,39374,27443
27074,39207,27183
26889,39042,26927
26712,38885,26681
26547,38738,26453
26400,38605,26248
26272,38489,26069
26166,38391,25923
26084,38317,25815
26029,38272,25746
26000,38251,25715
26000,38255,25724
26028,38283,25771
26083,38335,25851
26162,38406,25959
26262,38495,26093
26377,38597,26249
26504,38712,26422
26638,38837,26608
26777,38969,26801
26917,39099,26993
27056,39224,27177
27187,39340,27349
27304,39443,27503
27404,39529,27634
27485,39594,27742
27541,39634,27821
27571,39653,27867
27577,39651,27878
27561,39630,27856
27525,39594,27806
27471,39547,27730
27402,39486,27629
27320,39412,27505
27224,39324,27363
27113,39223,27205
26993,39114,27036
26865,39003,26857
26730,38889,26672
26588,38772,26482
26444,38652,26289
26300,38530,26092
26156,38404,25889
26010,38274,25682
25861,38140,25471
25708,38001,25257
25552,37859,25040
25397,37717,24823
25244,37577,24610
25094,37444,24403
24949,37318,24201
24810,37199,24008
24681,37089,23830
24560,36983,23663
24448,36881,23506
24346,36785,23359
24256,36699,23226
24175,36622,23105
24097,36554,22998
24024,36492,22903
23960,36437,22818
23907,36389,22738
23860,36345,22665
23817,36304,22597
23775,36264,22534
23735,36226,22475
23696,36192,22420
23658,36158,22368
23619,36123,22314
23582,36088,22262
23546,36054,22211
23510,36019,22165
23477,35988,22124
23446,35962,22087
23418,35943,22052
23394,35927,22017
23374,35913,21982
23354,35896,21946
23332,35876,21908
23307,35849,21870
23281,35820,21831
23257,35793,21792
23231,35768,21751
23202,35743,21707
23169,35715,21660
23133,35687,21614
23100,35664,21572
23070,35644,21531
23041,35622,21488
23010,35596,21444
22978,35567,21396
22944,35537,21345
22908,35505,21291
22871,35471,21237
22833,35435,21181
22793,35396,21121
22753,35357,21054
22712,35315,20983
22664,35270,20906
22609,35221,20822
22547,35170,20731
22481,35114,20632
22412,35052,20528
22341,34989,20423
22272,34926,20319
22208,34867,20225
22156,34818,20150
22120,34786,20102
22112,34780,20095
22145,34814,20147
22232,34897,20278
22387,35042,20506
22625,35258,20849
22955,35557,21319
23381,35943,21920
23903,36413,22647
24507,36959,23485
25173,37565,24412
25885,38216,25400
26628,38895,26426
27382,39580,27466
28124,40250,28493
28834,40883,29475
29495,41465,30386
30088,41981,31202
30604,42424,31910
31038,42791,32504
31389,43083,32983
31659,43305,33354
31853,43462,33625
31980,43562,33808
32051,43615,33913
32076,43627,33952
32058,43605,33932
32007,43556,33865
31931,43484,33761
31831,43390,33625
31707,43276,33461
31564,43147,33274
31408,43008,33067
31242,42860,32843
31070,42708,32607
30898,42555,32365
30727,42407,32125
30556,42264,31892
30390,42127,31671
30234,41995,31463
30090,41868,31268
29957,41745,31084
29837,41631,30912
29728,41528,30754
29626,41437,30610
29531,41350,30475
29437,41264,30342
29343,41176,30206
29248,41085,30067
29148,40993,29924
29042,40899,29777
28930,40802,29629
28818,40702,29481
28710,40604,29338
28609,40515,29206
28520,40436,29088
28448,40371,28990
28392,40321,28914
28352,40287,28861
28329,40266,28829
28319,40256,28817
28321,40260,28825
28337,40278,28855
28367,40309,28905
28410,40353,28973
28466,40412,29055
28533,40480,29147
28613,40555,29246
28701,40633,29354
28792,40712,29468
28880,40791,29583
28964,40865,29696
29042,40930,29800
29110,40984,29891
29167,41030,29965
29211,41065,30020
29238,41084,30052
29248,41085,30060
29241,41071,30045
29217,41043,30006
29175,41001,29944
29112,40945,29858
29033,40872,29748
28941,40786,29619
28840,40689,29475
28731,40585,29316
28612,40477,29148
28488,40368,28973
28360,40260,28791
28229,40147,28601
28094,40031,28407
27955,39913,28214
27815,39793,28022
27675,39670,27827
27535,39546,27627
27392,39420,27424
27245,39289,27219
27097,39156,27014
26950,39025,26812
26805,38894,26612
26660,38763,26414
26518,38630,26217
26377,38500,26023
26238,38376,25834
26106,38257,25653
25980,38145,25482
25862,38042,25322
25752,37948,25173
25653,37862,25036
25565,37783,24913
25487,37715,24804
25419,37655,24707
25357,37603,24618
25300,37554,24536
25248,37506,24460
25199,37462,24390
25154,37420,24327
25116,37382,24272
25083,37350,24222
25055,37323,24179
25029,37300,24139
25005,37279,24098
24982,37259,24056
24957,37238,24013
24930,37216,23968
24901,37193,23920
24869,37168,23867
24837,37141,23813
24806,37110,23759
24777,37076,23705
24746,37043,23652
24714,37013,23602
24680,36984,23553
24647,36956,23507
24615,36927,23463
24580,36894,23418
24543,36862,23373
24504,36832,23329
24463,36798,23284
24422,36760,23234
24380,36720,23181
24337,36681,23123
24291,36640,23061
24243,36597,22994
24196,36555,22927
24149,36515,22858
24101,36476,22788
24053,36436,22716
24003,36393,22642
23950,36346,22564
23895,36296,22480
23837,36241,22388
23775,36182,22288
23708,36118,22185
23636,36050,22080
23560,35977,21974
23482,35902,21867
23405,35829,21763
23333,35763,21667
23273,35713,21592
23239,35687,21556
23246,35703,21580
23310,35776,21684
23453,35919,21894
23690,36144,22229
24029,36460,22699
24469,36866,23309
25004,37358,24055
25626,37926,24919
26322,38556,25882
27069,39232,26918
27847,39931,27996
28629,40628,29077
29386,41300,30121
30097,41926,31096
30744,42490,31977
31315,42982,32750
31804,43399,33407
32209,43741,33948
32533,44010,34380
32782,44212,34711
32961,44356,34952
33079,44448,35111
33148,44499,35201
33174,44512,35235
33161,44495,35221
33119,44456,35170
33056,44402,35090
32975,44334,34989
32883,44255,34868
32782,44168,34735
32677,44076,34594
32571,43983,34455
32466,43890,34319
32361,43800,34186
32261,43715,34059
32168,43635,33939
32087,43562,33829
32019,43497,33731
31964,43439,33649
31920,43390,33581
31886,43349,33525
31858,43315,33480
31832,43289,33444
31808,43265,33413
31785,43239,33384
31760,43210,33351
31730,43180,33309
31695,43147,33256
31647,43108,33188
31587,43058,33101
31514,42998,32997
31431,42926,32881
31336,42845,32752
31232,42756,32612
31123,42662,32466
31013,42566,32322
30907,42470,32182
30810,42381,32053
30728,42301,31941
30661,42236,31849
30610,42188,31777
30575,42156,31724
30551,42138,31687
30539,42130,31667
30538,42133,31665
30549,42145,31677
30570,42165,31703
30599,42193,31742
30633,42225,31787
30672,42257,31834
30713,42289,31881
30751,42319,31925
30782,42345,31964
30805,42365,31996
30820,42379,32018
30829,42385,32031
30831,42385,32034
30825,42378,32026
30811,42364,32007
30787,42344,31974
30753,42316,31927
30710,42281,31869
30659,42236,31801
30601,42182,31723
30536,42121,31632
30463,42057,31530
30381,41985,31416
30290,41904,31290
30192,41816,31151
30088,41723,31000
29978,41623,30837
29858,41514,30667
29732,41399,30490
29602,41279,30305
29470,41159,30116
29337,41038,29928
29202,40919,29744
29069,40802,29564
28937,40689,29388
28807,40579,29218
28684,40475,29053
28571,40376,28893
28467,40284,28737
28367,40200,28585
28272,40119,28441
28180,40040,28306
28093,39964,28180
28007,39889,28060
27924,39814,27945
27844,39740,27838
27768,39671,27738
27695,39608,27645
27626,39551,27556
27561,39498,27472
27502,39447,27391
27447,39395,27312
27397,39344,27238
27350,39295,27167
27304,39250,27100
27259,39208,27036
27213,39166,26975
27166,39124,26916
27119,39082,26859
27071,39038,26801
27023,38996,26740
26976,38954,26677
26928,38912,26612
26880,38871,26546
26832,38829,26478
26784,38786,26408
26738,38741,26336
26691,38697,26265
26644,38654,26197
26598,38613,26130
26555,38574,26065
26512,38533,25998
26464,38489,25926
26412,38443,25847
26357,38395,25765
26301,38346,25681
26242,38296,25596
26184,38246,25516
26131,38199,25442
26080,38154,25373
26031,38114,25304
25984,38075,25236
25939,38037,25167
25892,37998,25095
25843,37955,25021
25788,37906,24940
25725,37850,24852
25657,37786,24756
25583,37720,24655
25505,37651,24552
25426,37579,24444
25347,37506,24331
25266,37432,24216
25185,37358,24102
25108,37287,23993
25039,37224,23892
24982,37175,23812
24948,37150,23770
24954,37161,23785
25019,37224,23882
25158,37355,24080
25386,37566,24400
25712,37866,24858
26138,38259,25459
26663,38740,26197
27276,39300,27054
27961,39922,28004
28694,40583,29014
29445,41256,30044
30183,41912,31052
30880,42528,32002
31515,43087,32864
32076,43580,33624
32557,44001,34276
32958,44348,34818
33283,44627,35256
33538,44844,35600
33729,45002,35858
33860,45109,36041
33940,45175,36157
33980,45205,36216
33985,45206,36230
33965,45184,36208
33927,45145,36159
33876,45091,36088
33813,45027,36000
33743,44957,35904
33665,44886,35802
33581,44811,35695
33495,44733,35585
33413,44656,35475
33336,44580,35370
33263,44507,35268
33193,44441,35175
33131,44384,35089
33075,44334,35012
33025,44288,34945
32983,44250,34890
32953,44223,34847
32933,44206,34814
32920,44197,34788
32908,44193,34763
32894,44189,34735
32874,44180,34702
32847,44161,34662
32810,44130,34609
32760,44087,34541
32699,44032,34456
32628,43966,34352
32544,43890,34235
32450,43804,34107
32348,43713,33972
32244,43623,33835
32145,43536,33701
32053,43453,33576
31969,43377,33463
31897,43311,33367
31840,43257,33288
31798,43215,33225
31769,43184,33176
31752,43167,33145
31748,43161,33131
31755,43165,33135
31772,43178,33153
31796,43198,33183
31829,43225,33221
31866,43255,33265
31901,43286,33312
31933,43317,33360
31961,43346,33405
31983,43371,33443
31999,43389,33471
32006,43397,33489
32002,43392,33491
31985,43376,33475
31955,43350,33442
31917,43314,33395
31872,43269,33335
31822,43217,33262
31765,43160,33176
31699,43098,33081
31628,43032,32980
31553,42965,32875
31474,42894,32767
31391,42816,32653
31302,42734,32529
31206,42649,32394
31099,42560,32247
30986,42465,32092
30869,42360,31927
30746,42249,31756
30619,42133,31580
30489,42015,31397
30354,41897,31205
30216,41777,31007
30071,41652,30804
29924,41522,30598
29778,41390,30394
29636,41261,30195
29500,41139,30006
29368,41022,29828
29241,40910,29661
29119,40805,29502
29005,40709,29354
28902,40622,29219
28808,40540,29094
28720,40459,28976
28636,40380,28862
28558,40304,28753
28486,40232,28649
28416,40164,28550
28350,40103,28458
28288,40049,28375
28231,40001,28300
28177,39959,28231
28124,39921,28165
28074,39886,28102
28030,39852,28039
27989,39818,27977
27947,39783,27914
27904,39746,27851
27860,39708,27789
27815,39668,27730
27768,39628,27672
27725,39590,27617
27688,39558,27565
27657,39531,27518
27632,39508,27478
27612,39488,27443
27596,39471,27411
27580,39455,27379
27562,39436,27343
27541,39415,27305
27513,39393,27264
27478,39367,27218
27435,39334,27162
27387,39293,27097
27334,39244,27024
27275,39188,26945
27212,39126,26858
27145,39057,26762
27073,38984,26663
26999,38913,26561
26926,38846,26460
26855,38783,26364
26785,38722,26271
26717,38664,26178
26652,38614,26086
26589,38568,25994
26529,38522,25902
26467,38471,25810
26398,38412,25715
26324,38346,25619
26245,38274,25519
26160,38195,25412
26073,38116,25301
25981,38039,25186
25886,37958,25066
25790,37875,24938
25694,37793,24808
25600,37713,24677
25509,37633,24549
25423,37554,24425
25346,37482,24315
25280,37424,24225
25236,37386,24167
25229,37381,24157
25274,37424,24216
25383,37529,24369
25573,37709,24638
25857,37971,25038
26244,38323,25579
26733,38766,26259
27316,39293,27066
27982,39893,27981
28708,40544,28973
29462,41214,29998
30207,41873,31010
30913,42497,31972
31558,43066,32855
32127,43567,33638
32613,43995,34312
33020,44351,34877
33352,44639,35335
33613,44866,35695
33806,45036,35962
33940,45154,36150
34029,45233,36274
34079,45277,36342
34098,45288,36362
34091,45273,36344
34059,45235,36295
34004,45176,36217
33929,45102,36115
33839,45017,35992
33739,44924,35856
33633,44823,35710
33524,44718,35560
33415,44610,35408
33306,44502,35258
33199,44399,35114
33097,44306,34977
33003,44226,34852
32918,44159,34738
32842,44103,34637
32776,44052,34553
32721,44006,34481
32675,43964,34418
32634,43925,34360
32597,43884,34305
32556,43843,34248
32507,43797,34184
32449,43744,34111
32382,43680,34026
32306,43609,33927
32223,43533,33816
32136,43454,33697
32048,43373,33577
31963,43296,33462
31882,43224,33357
31813,43163,33266
31760,43115,33192
31724,43081,33138
31706,43062,33102
31705,43058,33086
31720,43069,33092
31750,43092,33118
31787,43125,33160
31831,43167,33217
31883,43218,33284
31944,43276,33362
32008,43339,33446
32071,43401,33529
32131,43459,33608
32187,43507,33682
32239,43544,33747
32283,43571,33799
32316,43589,33840
32333,43593,33865
32331,43584,33872
32311,43564,33857
32280,43533,33821
32237,43491,33765
32179,43438,33693
32109,43374,33606
32032,43302,33505
31947,43225,33390
31852,43141,33264
31749,43050,33128
31640,42954,32982
31524,42850,32828
31403,42742,32665
31279,42630,32493
31153,42518,32313
31026,42408,32133
30900,42301,31957
30779,42199,31786
30663,42102,31622
30549,42010,31465
30435,41917,31312
30320,41822,31162
30207,41728,31012
30095,41636,30866
29987,41545,30726
29886,41457,30591
29793,41372,30462
29706,41291,30342
29627,41217,30230
29556,41149,30125
29496,41091,30030
29443,41042,29945
29393,40997,29868
29347,40954,29798
29305,40916,29735
29265,40882,29679
29226,40850,29627
29190,40822,29577
29155,40795,29530
29122,40768,29485
29092,40740,29445
29067,40713,29411
29044,40691,29382
29022,40675,29358
29006,40662,29338
28993,40651,29319
28982,40638,29299
28971,40625,29278
28958,40610,29256
28945,40593,29233
28931,40575,29209
28915,40555,29184
28897,40536,29155
28876,40517,29124
28853,40499,29088
28828,40480,29049
28800,40457,29007
28771,40432,28966
28741,40406,28926
28711,40379,28881
28679,40351,28829
28642,40319,28772
28599,40285,28713
28552,40249,28652
28503,40211,28589
28454,40172,28523
28405,40130,28452
28356,40085,28376
28306,40035,28295
28251,39981,28209
28187,39922,28119
28115,39860,28023
28041,39796,27923
27969,39733,27822
27899,39673,27726
27837,39621,27643
27793,39586,27587
27779,39576,27571
27807,39602,27614
27894,39679,27735
28054,39824,27957
28301,40049,28296
28638,40359,28760
29064,40752,29346
29567,41216,30035
30125,41725,30799
30711,42254,31598
31300,42782,32399
31869,43287,33171
32399,43754,33892
32874,44169,34546
33292,44530,35122
33649,44835,35616
33947,45086,36028
34187,45289,36363
34373,45446,36626
34508,45560,36824
34599,45635,36964
34653,45677,37049
34674,45690,37088
34669,45682,37090
34643,45655,37062
34600,45616,37012
34546,45569,36945
34487,45515,36862
34421,45452,36764
34349,45382,36654
34272,45310,36540
34190,45234,36424
34106,45157,36305
34022,45081,36190
33940,45010,36081
33863,44946,35979
33790,44885,35883
33724,44829,35793
33665,44778,35709
33611,44733,35635
33561,44694,35569
33515,44658,35507
33473,44621,35444
33430,44582,35380
33381,44536,35306
33318,44480,35217
33242,44415,35111
33157,44342,34990
33067,44261,34859
32973,44173,34721
32876,44080,34580
32781,43987,34440
32691,43901,34310
32609,43825,34194
32539,43762,34098
32488,43716,34024
32457,43688,33976
32445,43676,33953
32450,43679,33957
32471,43694,33987
32503,43723,34036
32547,43764,34101
32605,43816,34179
32670,43875,34271
32739,43941,34368
32812,44008,34467
32885,44072,34563
32955,44132,34657
33020,44187,34744
33079,44236,34822
33129,44278,34889
33167,44313,34941
33194,44339,34975
33212,44356,34992
33218,44361,34991
33212,44353,34969
33191,44330,34928
33157,44295,34873
33108,44250,34805
33046,44193,34723
32972,44125,34627
32889,44048,34517
32799,43962,34395
32701,43869,34263
32594,43772,34120
32482,43671,33967
32368,43567,33808
32251,43459,33647
32131,43348,33482
32009,43236,33313
31885,43125,33141
31759,43015,32965
31635,42908,32791
31516,42806,32625
31404,42709,32468
31297,42617,32319
31196,42530,32177
31101,42448,32042
31014,42369,31915
30934,42292,31796
30857,42219,31683
30782,42150,31577
30711,42085,31477
30645,42023,31383
30585,41967,31296
30530,41916,31216
30479,41869,31142
30433,41827,31073
30394,41791,31010
30360,41761,30955
30329,41735,30905
30298,41710,30861
30269,41688,30821
30242,41668,30784
30213,41646,30748
30180,41623,30711
30147,41598,30670
30112,41571,30622
30074,41544,30570
30033,41514,30516
29994,41483,30463
29956,41449,30413
29921,41414,30367
29891,41380,30323
29866,41350,30282
29845,41322,30241
29822,41295,30200
29795,41266,30157
29765,41233,30110
29728,41194,30058
29684,41154,30000
29635,41112,29935
29584,41067,29868
29531,41021,29800
29477,40975,29727
29423,40928,29650
29366,40881,29572
29310,40832,29496
29256,40784,29423
29206,40739,29352
29159,40696,29280
29112,40653,29211
29064,40609,29144
29014,40563,29078
28965,40519,29011
28916,40476,28945
28870,40434,28878
28828,40392,28809
28785,40350,28739
28738,40303,28666
28687,40253,28589
28632,40201,28507
28573,40149,28420
28507,40096,28328
28437,40037,28231
28365,39972,28129
28290,39901,28020
28213,39828,27910
28135,39756,27799
28056,39687,27688
27977,39620,27581
27901,39557,27482
27832,39501,27395
27780,39459,27331
27757,39443,27309
27778,39468,27352
27862,39553,27483
28033,39715,27727
28308,39969,28108
28694,40322,28637
29184,40769,29310
29765,41299,30111
30415,41889,31005
31101,42507,31947
31794,43126,32894
32466,43725,33810
33091,44281,34666
33657,44777,35445
34157,45210,36132
34588,45582,36725
34953,45896,37225
35254,46153,37638
35494,46358,37972
35679,46513,38234
35817,46623,38433
35910,46695,38577
35968,46739,38671
35995,46759,38721
35996,46761,38730
35975,46746,38706
35934,46716,38657
35880,46672,38588
35815,46614,38501
35741,46544,38402
35663,46465,38293
35582,46381,38177
35501,46296,38061
35422,46216,37952
35348,46142,37851
35279,46075,37761
35216,46014,37682
35161,45964,37616
35116,45928,37564
35082,45904,37523
35057,45888,37493
35042,45877,37473
35033,45869,37459
35028,45864,37450
35022,45859,37442
35012,45851,37431
34997,45839,37409
34975,45820,37370
34942,45792,37316
34899,45753,37247
34845,45706,37162
34780,45650,37065
34707,45589,36960
34629,45524,36850
34551,45456,36739
34476,45391,36631
34404,45329,36529
34339,45270,36434
34286,45215,36350
34243,45169,36281
34208,45133,36228
34183,45104,36188
34165,45083,36163
34155,45072,36154
34154,45072,36159
34164,45083,36177
34184,45104,36206
34209,45134,36243
34239,45166,36285
34272,45199,36331
34309,45233,36379
34350,45268,36426
34390,45300,36470
34427,45329,36512
34457,45353,36549
34479,45369,36575
34490,45375,36590
34490,45370,36595
34479,45356,36589
34461,45338,36571
34436,45314,36537
34405,45286,36491
34369,45255,36437
34327,45220,36377
34280,45181,36311
34231,45139,36238
34175,45092,36154
34111,45037,36064
34040,44974,35964
33959,44903,35854
33869,44823,35732
33773,44737,35599
33674,44645,35458
33573,44546,35309
33467,44443,35155
33356,44342,34999
33242,44242,34843
33130,44145,34689
33023,44051,34543
32918,43960,34405
32816,43873,34270
32719,43790,34141
32627,43710,34018
32539,43634,33901
32459,43563,33791
32385,43498,33688
32318,43439,33592
32255,43383,33501
32194,43329,33415
32134,43277,33335
32076,43228,33260
32023,43180,33189
31978,43137,33123
31941,43099,33061
31903,43065,33002
31863,43031,32946
31822,42998,32892
31783,42966,32838
31744,42932,32783
31704,42898,32727
31666,42864,32669
31628,42831,32612
31590,42797,32554
31553,42763,32499
31517,42729,32449
31483,42698,32402
31451,42668,32357
31424,42641,32314
31398,42615,32270
31372,42587,32226
31346,42558,32183
31320,42533,32140
31293,42509,32093
31262,42484,32045
31227,42454,31996
31188,42419,31943
31141,42379,31881
31084,42335,31811
31022,42287,31736
30959,42235,31657
30893,42180,31572
30825,42123,31482
30756,42066,31391
30691,42009,31300
30631,41953,31212
30578,41897,31129
30527,41842,31046
30479,41789,30964
30429,41738,30883
30377,41687,30802
30324,41633,30720
30269,41578,30638
30213,41521,30555
30154,41464,30472
30092,41410,30386
30029,41358,30298
29968,41307,30212
29908,41255,30126
29847,41203,30039
29786,41149,29952
29726,41095,29866
29668,41042,29783
29613,40993,29704
29562,40948,29633
29513,40905,29571
29470,40863,29513
29435,40823,29458
29403,40785,29406
29369,40750,29354
29332,40720,29301
29294,40694,29246
29256,40667,29191
29218,40637,29136
29177,40605,29078
29135,40574,29022
29101,40550,28976
29085,40541,28952
29103,40560,28971
29176,40625,29058
29322,40756,29245
29558,40971,29559
29896,41279,30016
30342,41683,30621
30886,42173,31361
31501,42726,32203
32158,43314,33103
32825,43910,34016
33478,44491,34906
34093,45038,35752
34659,45540,36535
35165,45988,37243
35609,46380,37870
35992,46717,38416
36319,47003,38885
36592,47244,39282
36818,47443,39613
37002,47605,39884
37147,47732,40100
37259,47830,40265
37340,47901,40385
37394,47951,40469
37426,47978,40520
37440,47986,40541
37435,47973,40534
37412,47945,40504
37374,47907,40453
37325,47858,40386
37265,47798,40308
37198,47728,40219
37125,47656,40125
37051,47585,40029
36980,47515,39934
36913,47447,39843
36850,47384,39755
36790,47325,39674
36732,47270,39599
36680,47221,39533
36636,47179,39478
36602,47146,39434
36577,47124,39401
36559,47109,39375
36544,47098,39351
36530,47088,39326
36513,47075,39297
36491,47059,39263
36463,47036,39220
36425,47006,39163
36376,46967,39096
36318,46918,39019
36255,46862,38930
36190,46802,38831
36123,46739,38731
36051,46677,38634
35981,46617,38541
35919,46563,38458
35867,46515,38386
35827,46472,38325
35796,46436,38273
35776,46406,38232
35763,46385,38203
35757,46373,38185
35757,46370,38177
35763,46374,38180
35774,46386,38191
35791,46405,38213
35814,46430,38244
35838,46456,38282
35863,46481,38323
35890,46503,38363
35919,46525,38403
35947,46546,38440
35973,46567,38470
35995,46586,38492
36012,46602,38504
36020,46612,38510
36018,46610,38507
36008,46597,38494
35988,46576,38470
35957,46548,38434
35916,46511,38386
35870,46468,38325
35817,46415,38252
35756,46352,38164
35687,46284,38064
35610,46211,37954
35525,46133,37837
35432,46048,37712
35337,45957,37581
35242,45863,37443
35144,45771,37303
35043,45679,37160
34937,45587,37013
34829,45491,36861
34720,45393,36704
34610,45292,36540
34500,45191,36376
34391,45090,36215
34284,44990,36060
34178,44892,35912
34072,44794,35769
33969,44698,35629
33871,44605,35494
33775,44517,35363
33682,44435,35238
33592,44359,35121
33506,44288,35011
33422,44223,34908
33343,44162,34810
33271,44106,34717
33206,44056,34630
33145,44008,34550
33086,43961,34474
33029,43912,34402
32971,43859,34331
32913,43805,34257
32858,43752,34183
32804,43702,34107
32751,43653,34032
32698,43605,33956
32642,43556,33880
32584,43508,33801
32526,43457,33723
32469,43405,33645
32413,43353,33567
32360,43300,33490
32311,43246,33414
32262,43196,33342
32213,43149,33270
32161,43104,33196
32107,43059,33119
32050,43014,33039
31991,42967,32955
31929,42917,32867
31863,42862,32778
31795,42803,32685
31725,42743,32592
31655,42682,32498
31585,42620,32402
31510,42554,32303
31429,42483,32202
31344,42410,32097
31261,42337,31990
31178,42263,31880
31096,42188,31765
31014,42114,31646
30930,42037,31525
30844,41959,31404
30761,41885,31285
30679,41814,31169
30600,41745,31056
30524,41676,30948
30451,41611,30845
30376,41547,30743
30302,41483,30641
30229,41418,30540
30157,41354,30440
30084,41290,30337
30011,41223,30229
29938,41154,30119
29865,41084,30009
29794,41016,29904
29725,40952,29804
29661,40893,29710
29598,40838,29620
29535,40783,29532
29473,40730,29442
29414,40680,29352
29356,40631,29263
29297,40579,29179
29235,40526,29098
29170,40470,29016
29102,40413,28933
29034,40359,28853
28968,40304,28777
28906,40247,28703
28848,40192,28626
28791,40137,28544
28732,40079,28456
28666,40016,28356
28590,39947,28246
28509,39872,28129
28426,39795,28009
28342,39720,27893
28263,39652,27786
28193,39593,27692
28143,39552,27624
28127,39543,27603
28164,39583,27657
28278,39687,27816
28488,39876,28106
28808,40169,28550
29244,40574,29161
29798,41088,29934
30454,41691,30849
31182,42357,31860
31946,43050,32912
32706,43732,33953
33429,44375,34940
34091,44962,35847
34680,45485,36657
35190,45941,37366
35618,46329,37971
35973,46653,38477
36261,46914,38893
36489,47120,39225
36662,47278,39484
36787,47389,39675
36870,47457,39804
36915,47487,39877
36925,47487,39903
36902,47459,39887
36852,47406,39835
36779,47332,39750
36688,47241,39637
36582,47137,39499
36463,47021,39337
36334,46896,39156
36199,46764,38963
36058,46631,38766
35914,46501,38569
35771,46377,38375
35633,46259,38189
35502,46148,38019
35385,46048,37866
35284,45964,37733
35201,45897,37622
35136,45846,37533
35085,45806,37464
35043,45773,37406
35008,45740,37355
34972,45706,37303
34933,45666,37244
34884,45616,37172
34824,45554,37088
34754,45483,36990
34673,45406,36880
34586,45329,36759
34497,45255,36636
34409,45185,36517
34326,45119,36406
34256,45060,36307
34203,45014,36228
34163,44982,36173
34138,44962,36142
34127,44954,36130
34131,44956,36139
34147,44965,36166
34172,44980,36204
34206,45003,36251
34246,45036,36306
34288,45078,36369
34332,45124,36438
34380,45171,36509
34431,45216,36580
34479,45255,36650
34524,45292,36712
34566,45326,36764
34603,45357,36808
34631,45382,36843
34647,45397,36865
34654,45402,36873
34650,45396,36865
34630,45381,36842
34595,45356,36804
34549,45321,36752
34494,45275,36686
34430,45221,36607
34356,45159,36515
34274,45091,36409
34187,45017,36290
34096,44937,36161
34000,44854,36022
33900,44768,35876
33796,44674,35725
33685,44572,35567
33568,44462,35401
33445,44347,35225
33315,44223,35040
33178,44093,34847
33035,43961,34651
32888,43828,34450
32739,43696,34246
32590,43563,34042
32444,43436,33844
32305,43315,33655
32173,43197,33474
32051,43087,33306
31941,42988,33153
31841,42899,33020
31751,42824,32906
31672,42761,32805
31603,42705,32714
31540,42655,32633
31482,42609,32557
31427,42564,32486
31377,42520,32419
31333,42480,32359
31292,42447,32305
31253,42417,32258
31218,42389,32214
31190,42363,32176
31169,42343,32142
31152,42327,32111
31136,42311,32084
31120,42293,32059
31101,42275,32031
31079,42255,31997
31054,42236,31958
31029,42216,31917
31003,42195,31876
30978,42171,31831
30948,42144,31781
30914,42112,31726
30877,42078,31668
30839,42041,31609
30799,42002,31551
30757,41962,31495
30717,41924,31442
30678,41886,31389
30639,41849,31336
30598,41811,31283
30555,41773,31230
30513,41734,31173
30471,41692,31110
30424,41649,31044
30375,41606,30975
30324,41562,30903
30267,41514,30826
30206,41462,30744
30140,41406,30657
30070,41346,30566
29997,41282,30472
29924,41214,30375
29847,41142,30275
29769,41069,30172
29691,40999,30069
29612,40930,29963
29531,40862,29854
29451,40793,29738
29368,40718,29615
29278,40638,29485
29181,40553,29350
29079,40463,29209
28973,40369,29061
28865,40273,28910
28761,40177,28763
28663,40085,28625
28571,39999,28498
28485,39924,28386
28417,39864,28298
28378,39833,28250
28382,39843,28263
28445,39909,28362
28589,40049,28573
28833,40277,28918
29185,40603,29410
29648,41029,30048
30209,41543,30821
30847,42123,31701
31531,42741,32646
32229,43366,33605
32911,43972,34534
33550,44538,35406
34131,45052,36203
34642,45506,36914
35083,45898,37532
35456,46231,38061
35767,46505,38503
36021,46725,38864
36219,46896,39150
36368,47024,39368
36473,47115,39528
36539,47172,39636
36569,47198,39696
36569,47199,39714
36542,47179,39694
36495,47140,39641
36429,47082,39561
36349,47009,39459
36257,46926,39340
36156,46834,39207
36050,46733,39060
35935,46624,38900
35813,46511,38728
35687,46394,38550
35563,46278,38370
35440,46165,38194
35319,46055,38025
35201,45950,37866
35093,45856,37722
34996,45771,37597
34909,45696,37491
34831,45630,37400
34763,45571,37318
34698,45515,37240
34636,45458,37160
34572,45401,37074
34502,45341,36978
34424,45274,36869
34334,45198,36747
34234,45110,36611
34128,45015,36463
34018,44914,36309
33907,44813,36154
33802,44716,36003
33707,44628,35864
33624,44552,35743
33555,44492,35643
33499,44446,35563
33459,44415,35507
33435,44398,35472
33423,44394,35458
33425,44400,35464
33438,44415,35490
33461,44440,35535
33495,44473,35593
33539,44513,35662
33592,44558,35737
33651,44606,35816
33716,44657,35894
33781,44708,35968
33838,44756,36036
33885,44798,36096
33921,44830,36141
33943,44853,36171
33951,44864,36186
33943,44857,36179
33919,44834,36151
33877,44795,36101
33818,44739,36029
33742,44671,35934
33654,44593,35820
33552,44503,35688
33438,44407,35540
33316,44301,35378
33188,44185,35202
33055,44061,35015
32921,43936,34821
32786,43810,34623
32651,43685,34425
32514,43558,34226
32373,43430,34028
32229,43302,33829
32087,43178,33631
31949,43059,33437
31815,42946,33253
31687,42838,33077
31567,42733,32909
31452,42632,32748
31342,42534,32592
31239,42440,32442
31141,42350,32297
31046,42262,32156
30951,42177,32020
30859,42093,31890
30770,42012,31764
30683,41935,31644
30600,41860,31529
30519,41788,31416
30437,41718,31304
30353,41649,31193
30272,41580,31083
30196,41512,30978
30127,41449,30879
30065,41391,30790
30010,41342,30713
29962,41301,30646
29921,41268,30590
29889,41240,30544
29864,41217,30505
29842,41194,30473
29819,41171,30442
29795,41150,30406
29769,41130,30369
29739,41106,30327
29703,41075,30280
29662,41038,30227
29613,40996,30169
29560,40951,30105
29506,40902,30032
29449,40848,29951
29385,40790,29860
29313,40727,29763
29237,40662,29660
29159,40594,29554
29083,40528,29449
29008,40463,29346
28935,40398,29243
28863,40333,29142
28792,40268,29041
28721,40202,28940
28649,40136,28840
28575,40072,28741
28499,40009,28640
28423,39943,28537
28346,39873,28431
28268,39802,28321
28189,39730,28210
28109,39659,28100
28028,39589,27989
27944,39517,27874
27858,39444,27755
27773,39370,27636
27688,39293,27518
27602,39216,27403
27518,39139,27288
27437,39064,27172
27358,38991,27058
27279,38920,26944
27199,38849,26831
27118,38780,26718
27036,38709,26605
26953,38636,26492
26869,38559,26376
26779,38475,26257
26687,38389,26132
26591,38300,26001
26488,38208,25864
26379,38112,25721
26267,38014,25572
26153,37913,25417
26039,37813,25257
25928,37715,25095
25814,37619,24936
25701,37525,24780
25591,37434,24627
25485,37345,24480
25383,37258,24341
25287,37176,24213
25197,37101,24098
25122,37037,24001
25068,36989,23930
25045,36970,23902
25068,36994,23941
25157,37079,24074
25331,37242,24326
25610,37499,24722
26007,37861,25279
26524,38333,26002
27158,38913,26887
27900,39590,27920
28732,40346,29076
29622,41153,30308
30529,41970,31563
31409,42758,32781
32228,43487,33918
32962,44139,34944
33598,44704,35843
34135,45180,36607
34576,45572,37237
34927,45883,37740
35195,46120,38128
35392,46292,38415
35529,46409,38613
35612,46476,38737
35645,46500,38793
35636,46490,38790
35594,46453,38742
35527,46393,38660
35440,46316,38548
35341,46227,38413
35233,46130,38260
35118,46026,38095
34998,45916,37925
34878,45803,37752
34758,45692,37581
34640,45584,37415
34530,45485,37256
34428,45398,37106
34335,45319,36969
34251,45245,36847
34178,45178,36740
34114,45118,36649
34060,45068,36575
34012,45030,36518
33971,45000,36473
33936,44974,36435
33904,44949,36399
33869,44921,36357
33825,44884,36306
33775,44835,36240
33715,44775,36160
33640,44702,36062
33552,44617,35945
33456,44524,35812
33354,44427,35667
33249,44330,35517
33145,44235,35369
33045,44143,35225
32949,44059,35086
32860,43982,34955
32783,43914,34838
32715,43856,34738
32655,43806,34656
32605,43767,34591
32566,43739,34543
32540,43722,34514
32527,43715,34502
32523,43717,34508
32529,43727,34528
32549,43745,34560
32581,43773,34602
32620,43808,34653
32663,43846,34711
32706,43884,34773
32748,43922,34836
32788,43956,34895
32825,43983,34946
32855,44001,34986
32873,44009,35013
32877,44011,35024
32872,44004,35017
32856,43989,34994
32830,43965,34953
32793,43932,34895
32744,43887,34820
32683,43829,34730
32609,43759,34626
32523,43679,34506
32432,43592,34374
32332,43498,34230
32225,43399,34074
32111,43295,33908
31992,43187,33736
31867,43075,33555
31732,42957,33366
31589,42831,33167
31439,42698,32959
31283,42560,32744
31123,42418,32524
30963,42276,32302
30804,42136,32081
30646,41999,31859
30490,41863,31639
30337,41725,31420
30189,41589,31208
30046,41457,31007
29905,41331,30817
29767,41209,30635
29633,41094,30462
29508,40985,30299
29390,40884,30145
29282,40789,29998
29185,40703,29860
29097,40623,29734
29016,40546,29617
28941,40470,29505
28869,40398,29399
28799,40332,29299
28733,40270,29206
28669,40213,29120
28607,40160,29039
28543,40110,28959
28478,40061,28876
28411,40009,28788
28341,39951,28698
28268,39886,28604
28195,39817,28505
28117,39745,28401
28032,39670,28296
27946,39595,28192
27859,39518,28086
27772,39439,27975
27685,39360,27864
27597,39283,27748
27510,39209,27630
27425,39135,27511
27345,39062,27395
27268,38991,27282
27190,38921,27170
27111,38850,27060
27033,38782,26951
26955,38715,26841
26876,38647,26731
26796,38577,26619
26713,38506,26504
26626,38432,26385
26534,38356,26260
26438,38274,26130
26338,38188,25994
26232,38098,25855
26124,38006,25715
26018,37910,25575
25912,37810,25433
25807,37711,25294
25706,37616,25163
25612,37530,25040
25528,37455,24926
25454,37389,24819
25391,37332,24720
25335,37283,24633
25283,37240,24555
25234,37201,24481
25190,37166,24412
25150,37135,24346
25112,37104,24282
25073,37070,24218
25033,37033,24151
24990,36990,24079
24940,36944,24001
24883,36897,23919
24821,36848,23835
24759,36798,23751
24699,36747,23669
24642,36695,23590
24588,36645,23513
24536,36596,23439
24483,36548,23366
24431,36500,23294
24382,36451,23222
24332,36400,23149
24277,36347,23069
24217,36291,22982
24151,36234,22888
24082,36177,22791
24011,36120,22691
23943,36065,22590
23879,36015,22492
23822,35967,22398
23769,35922,22311
23723,35880,22237
23686,35846,22184
23665,35830,22164
23678,35844,22196
23744,35906,22301
23883,36032,22506
24108,36238,22833
24437,36539,23304
24877,36944,23928
25425,37451,24701
26072,38048,25613
26803,38723,26647
27605,39462,27782
28463,40246,28991
29348,41048,30234
30226,41837,31462
31063,42585,32626
31828,43266,33690
32502,43865,34627
33073,44371,35424
33540,44782,36078
33906,45103,36597
34180,45339,36992
34370,45502,37275
34493,45603,37461
34561,45654,37564
34583,45663,37599
34565,45637,37576
34514,45583,37507
34434,45505,37398
34333,45410,37256
34213,45298,37085
34077,45169,36892
33928,45030,36684
33768,44882,36464
33603,44727,36237
33437,44572,36005
33271,44416,35772
33106,44260,35542
32944,44111,35319
32789,43971,35108
32648,43842,34915
32525,43731,34747
32422,43640,34607
32338,43570,34494
32271,43515,34404
32221,43472,34331
32183,43435,34267
32149,43400,34207
32112,43361,34147
32069,43315,34083
32017,43265,34011
31955,43208,33930
31884,43145,33836
31805,43078,33732
31723,43009,33623
31645,42942,33516
31573,42880,33415
31509,42827,33326
31459,42783,33253
31424,42750,33199
31405,42730,33165
31402,42724,33150
31414,42729,33151
31439,42744,33172
31472,42772,33212
31511,42810,33267
31559,42858,33337
31619,42916,33423
31689,42982,33522
31770,43055,33631
31860,43130,33745
31952,43208,33862
32042,43285,33978
32129,43358,34089
32208,43424,34189
32275,43480,34274
32330,43525,34344
32371,43557,34395
32400,43578,34426
32415,43588,34441
32416,43585,34438
32404,43573,34418
32381,43550,34383
32346,43519,34331
32302,43478,34261
32247,43426,34173
32178,43361,34066
32091,43284,33939
31989,43196,33794
31874,43097,33634
31748,42988,33459
31610,42868,33270
31464,42737,33066
31310,42596,32849
31146,42445,32619
30974,42286,32382
30797,42123,32139
30617,41958,31893
30434,41792,31644
30250,41625,31392
30065,41460,31139
29883,41298,30889
29706,41142,30645
29534,40991,30411
29369,40845,30185
29210,40703,29967
29057,40565,29759
28911,40433,29559
28775,40306,29366
28648,40187,29184
28526,40076,29013
28410,39971,28854
28304,39871,28703
28206,39776,28560
28111,39687,28427
28022,39605,28305
27942,39529,28194
27871,39463,28092
27806,39407,28001
27746,39360,27921
27690,39318,27852
27641,39280,27793
27597,39249,27744
27556,39219,27698
27517,39191,27652
27481,39163,27606
27446,39132,27558
27407,39099,27503
27364,39061,27441
27315,39018,27369
27259,38966,27289
27193,38906,27199
27122,38840,27099
27047,38769,26989
26967,38694,26871
26883,38615,26747
26796,38535,26620
26706,38455,26492
26614,38373,26360
26518,38288,26227
26420,38201,26092
26321,38112,25960
26223,38027,25831
26134,37947,25709
26055,37873,25593
25980,37805,25484
25905,37741,25382
25830,37682,25284
25755,37623,25184
25677,37561,25080
25597,37495,24972
25513,37424,24859
25426,37349,24741
25337,37270,24621
25246,37187,24498
25154,37101,24371
25062,37014,24245
24970,36927,24121
24877,36842,23994
24783,36758,23863
24688,36673,23730
24590,36586,23594
24489,36496,23456
24388,36405,23316
24284,36311,23173
24176,36218,23024
24067,36127,22876
23958,36038,22728
23852,35949,22580
23748,35859,22432
23644,35765,22285
23541,35671,22138
23437,35577,21991
23334,35484,21846
23237,35396,21705
23147,35315,21574
23064,35239,21451
22987,35171,21340
22922,35116,21250
22880,35083,21195
22870,35078,21189
22904,35116,21252
23000,35214,21407
23174,35382,21676
23441,35631,22074
23806,35968,22606
24267,36393,23266
24811,36894,24042
25424,37455,24911
26089,38061,25851
26794,38698,26842
27516,39351,27858
28235,40003,28877
28935,40638,29872
29598,41239,30813
30208,41788,31671
30748,42268,32424
31207,42668,33060
31584,42990,33578
31877,43238,33977
32085,43415,34263
32213,43526,34445
32273,43579,34533
32272,43579,34538
32219,43532,34471
32121,43445,34346
31987,43323,34170
31822,43172,33951
31631,42999,33695
31422,42810,33412
31200,42608,33105
30968,42397,32782
30731,42185,32453
30496,41975,32124
30267,41770,31799
30043,41573,31483
29829,41385,31180
29626,41208,30893
29436,41039,30621
29257,40879,30366
29092,40733,30126
28941,40599,29903
28798,40473,29691
28657,40347,29484
28518,40219,29282
28382,40093,29084
28249,39969,28890
28119,39849,28704
27996,39733,28526
27882,39627,28366
27785,39539,28232
27706,39470,28127
27648,39420,28051
27613,39390,28008
27601,39382,27999
27612,39394,28021
27643,39424,28068
27693,39470,28141
27760,39528,28239
27840,39598,28357
27932,39677,28488
28033,39763,28627
28140,39854,28772
28250,39946,28922
28359,40040,29075
28467,40135,29223
28571,40230,29364
28668,40322,29497
28757,40408,29620
28838,40486,29733
28907,40552,29831
28962,40604,29910
29002,40639,29967
29024,40656,29997
29029,40656,30000
29015,40637,29977
28982,40600,29929
28931,40549,29854
28860,40484,29753
28771,40407,29628
28671,40318,29483
28559,40216,29319
28435,40101,29137
28297,39974,28940
28147,39837,28727
27988,39690,28502
27818,39535,28263
27639,39373,28013
27454,39208,27753
27265,39039,27485
27073,38868,27214
26881,38698,26943
26691,38529,26674
26503,38364,26410
26318,38202,26154
26137,38046,25906
25964,37899,25666
25799,37757,25437
25643,37618,25220
25497,37483,25014
25362,37358,24823
25237,37245,24649
25123,37146,24495
25024,37060,24360
24942,36990,24245
24874,36929,24146
24815,36874,24061
24764,36824,23987
24722,36781,23922
24687,36744,23867
24658,36713,23821
24636,36690,23783
24620,36674,23753
24611,36664,23731
24607,36662,23719
24610,36665,23713
24620,36674,23712
24634,36687,23714
24647,36702,23716
24654,36714,23714
24657,36720,23713
24655,36720,23711
24649,36716,23705
24641,36711,23695
24632,36705,23683
24623,36700,23673
24613,36697,23661
24603,36691,23649
24593,36684,23637
24586,36677,23627
24579,36671,23614
24571,36662,23599
24559,36650,23581
24542,36635,23558
24521,36614,23527
24497,36586,23487
24465,36548,23438
24424,36506,23380
24380,36462,23318
24336,36420,23254
24298,36382,23191
24263,36347,23130
24232,36315,23071
24204,36286,23016
24179,36258,22966
24153,36231,22920
24127,36205,22875
24102,36181,22830
24079,36162,22786
24056,36144,22745
24031,36125,22704
24006,36101,22659
23979,36072,22611
23947,36035,22556
23909,35995,22492
23866,35953,22424
23818,35910,22353
23766,35864,22277
23711,35818,22196
23654,35768,22111
23591,35713,22024
23523,35654,21931
23453,35592,21834
23383,35531,21737
23312,35469,21642
23243,35409,21550
23179,35352,21468
23126,35304,21401
23093,35278,21361
23094,35282,21365
23142,35329,21437
23256,35437,21603
23453,35622,21887
23746,35894,22306
24143,36261,22871
24647,36723,23581
25249,37273,24425
25934,37898,25385
26682,38581,26439
27480,39307,27567
28310,40058,28738
29149,40811,29916
29967,41540,31059
30736,42224,32130
31435,42843,33099
32051,43382,33948
32577,43836,34667
33012,44209,35260
33358,44504,35733
33622,44724,36094
33814,44878,36353
33940,44977,36525
34009,45030,36624
34029,45043,36660
34011,45025,36643
33961,44979,36582
33886,44911,36483
33790,44824,36354
33682,44723,36203
33563,44610,36032
33433,44487,35845
33291,44355,35644
33142,44221,35436
32993,44086,35226
32850,43950,35019
32714,43820,34820
32587,43701,34635
32470,43594,34471
32367,43502,34330
32279,43423,34210
32205,43357,34109
32145,43302,34026
32095,43255,33954
32052,43212,33888
32012,43171,33825
31970,43130,33759
31926,43087,33686
31874,43038,33602
31811,42978,33501
31734,42905,33382
31644,42823,33252
31549,42738,33119
31453,42654,32987
31360,42576,32863
31275,42505,32749
31203,42446,32651
31147,42399,32573
31110,42368,32523
31092,42355,32498
31092,42356,32499
31109,42370,32522
31138,42395,32563
31176,42428,32620
31225,42471,32691
31283,42520,32771
31346,42573,32856
31412,42628,32942
31477,42683,33025
31536,42736,33105
31589,42786,33179
31636,42830,33243
31676,42865,33295
31708,42893,33337
31731,42915,33368
31746,42929,33387
31752,42934,33391
31750,42929,33381
31735,42914,33356
31707,42887,33315
31664,42847,33254
31606,42795,33174
31534,42730,33077
31447,42653,32960
31344,42563,32822
31226,42459,32662
31096,42340,32482
30951,42208,32284
30794,42065,32066
30626,41912,31833
30451,41750,31590
30269,41579,31338
30082,41405,31080
29895,41232,30819
29712,41064,30561
29535,40905,30310
29364,40753,30070
29199,40606,29839
29041,40465,29618
28888,40330,29405
28740,40200,29199
28598,40074,28999
28464,39952,28806
28342,39836,28626
28229,39727,28460
28121,39625,28305
28018,39534,28160
27920,39452,28024
27827,39376,27896
27740,39303,27775
27662,39235,27664
27590,39173,27564
27527,39119,27475
27471,39072,27398
27421,39031,27331
27377,38993,27272
27335,38955,27215
27294,38921,27161
27253,38890,27112
27218,38864,27069
27188,38839,27032
27159,38814,26997
27129,38790,26963
27100,38765,26927
27074,38738,26887
27049,38711,26843
27024,38683,26797
26997,38653,26747
26966,38622,26692
26930,38589,26633
26892,38552,26569
26852,38513,26502
26809,38470,26432
26765,38425,26361
26716,38378,26290
26664,38331,26219
26609,38287,26144
26556,38243,26067
26504,38195,25990
26450,38144,25912
26394,38093,25834
26337,38044,25756
26281,37997,25680
26224,37949,25602
26166,37896,25521
26112,37839,25436
26061,37783,25349
26012,37732,25265
25957,37685,25181
25896,37637,25094
25829,37585,25004
25759,37530,24908
25686,37472,24810
25612,37412,24708
25539,37353,24608
25466,37291,24509
25392,37223,24407
25317,37152,24302
25241,37078,24195
25161,37002,24084
25077,36924,23971
24991,36845,23855
24906,36766,23739
24822,36690,23624
24741,36618,23515
24670,36555,23413
24611,36504,23323
24566,36469,23257
24549,36459,23234
24579,36491,23276
24669,36579,23402
24835,36737,23638
25095,36979,24005
25457,37313,24512
25921,37741,25160
26482,38258,25943
27129,38853,26846
27849,39513,27853
28622,40220,28940
29427,40952,30072
30236,41682,31205
31014,42379,32294
31737,43020,33303
32386,43592,34208
32951,44087,34992
33427,44500,35652
33817,44835,36193
34128,45098,36624
34363,45293,36949
34525,45427,37177
34626,45509,37322
34679,45547,37398
34690,45549,37416
34666,45521,37386
34612,45470,37318
34535,45399,37221
34441,45310,37097
34335,45209,36953
34216,45102,36792
34086,44988,36622
33949,44869,36444
33809,44748,36258
33669,44626,36071
33533,44504,35886
33402,44385,35705
33276,44271,35532
33159,44162,35369
33054,44062,35220
32961,43974,35089
32880,43900,34978
32811,43837,34883
32752,43782,34798
32700,43733,34722
32654,43689,34654
32610,43649,34589
32567,43606,34526
32520,43561,34459
32467,43511,34383
32408,43458,34296
32342,43397,34198
32269,43330,34089
32192,43259,33973
32112,43189,33856
32032,43120,33743
31955,43050,33636
31882,42983,33538
31816,42921,33452
31762,42867,33379
31720,42823,33319
31689,42790,33273
31667,42768,33243
31659,42760,33231
31666,42768,33238
31686,42790,33264
31717,42822,33307
31758,42863,33363
31809,42911,33430
31865,42965,33502
31921,43019,33578
31976,43070,33652
32029,43117,33720
32075,43160,33782
32113,43197,33834
32143,43223,33872
32159,43237,33894
32159,43239,33900
32146,43230,33889
32125,43210,33859
32094,43179,33810
32052,43136,33747
32000,43084,33672
31938,43025,33585
31867,42958,33488
31784,42881,33380
31692,42797,33257
31593,42704,33119
31486,42603,32966
31367,42499,32800
31238,42390,32625
31106,42277,32440
30972,42159,32247
30833,42033,32047
30688,41896,31837
30537,41752,31621
30382,41605,31400
30224,41459,31178
30065,41314,30956
29908,41169,30733
29752,41026,30512
29596,40885,30296
29440,40748,30084
29289,40616,29880
29143,40489,29684
29003,40365,29498
28869,40245,29325
28742,40134,29163
28624,40031,29007
28514,39935,28856
28412,39842,28712
28315,39750,28575
28222,39664,28449
28134,39585,28332
28054,39513,28222
27982,39450,28120
27915,39392,28026
27852,39337,27939
27793,39284,27855
27738,39233,27773
27681,39182,27693
27623,39132,27616
27564,39084,27544
27506,39038,27477
27448,38993,27413
27394,38952,27351
27345,38913,27288
27299,38875,27227
27257,38840,27167
27216,38807,27107
27176,38773,27042
27136,38739,26976
27094,38703,26909
27050,38663,26838
27003,38621,26765
26956,38578,26689
26908,38534,26615
26858,38486,26540
26805,38434,26461
26751,38378,26380
26694,38318,26295
26633,38256,26207
26572,38196,26117
26508,38137,26027
26444,38077,25936
26379,38020,25845
26315,37966,25753
26249,37912,25659
26181,37859,25565
26114,37805,25471
26048,37750,25380
25982,37696,25289
25914,37641,25196
25846,37586,25105
25781,37531,25016
25719,37474,24929
25656,37417,24841
25591,37357,24748
25523,37293,24650
25450,37222,24547
25372,37146,24437
25293,37066,24319
25212,36984,24195
25127,36898,24068
25037,36810,23937
24943,36720,23804
24848,36632,23670
24752,36545,23538
24659,36462,23409
24575,36388,23291
24509,36333,23200
24471,36307,23156
24478,36325,23184
24552,36406,23308
24711,36564,23550
24966,36808,23925
25322,37143,24437
25777,37567,25083
26326,38075,25858
26960,38656,26746
27665,39299,27731
28423,39986,28788
29209,40696,29886
29998,41403,30985
30760,42082,32045
31471,42714,33032
32111,43280,33920
32666,43768,34693
33130,44174,35343
33505,44500,35873
33794,44749,36285
34004,44925,36588
34145,45040,36792
34227,45103,36910
34256,45120,36954
34243,45098,36937
34196,45047,36872
34122,44974,36770
34025,44883,36636
33910,44775,36472
33779,44651,36283
33632,44516,36074
33472,44371,35852
33307,44218,35624
33137,44063,35393
32964,43907,35162
32794,43756,34938
32633,43614,34725
32481,43485,34524
32341,43366,34339
32216,43257,34172
32108,43161,34028
32017,43079,33905
31942,43012,33802
31878,42954,33715
31816,42902,33634
31752,42849,33553
31686,42789,33469
31616,42723,33376
31540,42650,33268
31458,42571,33145
31366,42484,33007
31267,42395,32860
31165,42308,32712
31064,42224,32570
30967,42144,32437
30877,42070,32318
30802,42005,32216
30744,41950,32133
30703,41910,32072
30677,41886,32036
30668,41881,32026
30676,41895,32041
30698,41924,32077
30732,41962,32129
30775,42008,32194
30825,42059,32272
30881,42113,32357
30943,42169,32447
31009,42227,32538
31076,42285,32628
31140,42342,32713
31199,42392,32789
31250,42433,32852
31290,42465,32902
31320,42487,32936
31341,42498,32955
31352,42498,32959
31349,42486,32947
31329,42462,32916
31291,42425,32863
31237,42375,32790
31171,42313,32696
31092,42236,32582
30999,42148,32447
30894,42051,32295
30778,41945,32130
30651,41830,31953
30515,41707,31764
30371,41577,31564
30217,41445,31355
30060,41310,31141
29903,41173,30927
29749,41037,30714
29599,40906,30504
29450,40775,30294
29304,40647,30088
29161,40523,29888
29024,40406,29696
28894,40291,29514
28774,40181,29341
28660,40076,29178
28553,39976,29026
28450,39881,28885
28350,39794,28752
28251,39709,28624
28151,39626,28500
28054,39543,28375
27962,39461,28252
27874,39379,28131
27786,39297,28014
27699,39217,27898
27616,39143,27786
27537,39075,27682
27465,39012,27586
27399,38955,27498
27339,38902,27417
27286,38855,27344
27239,38812,27281
27199,38772,27223
27163,38734,27167
27129,38699,27113
27094,38668,27059
27055,38636,27004
27013,38603,26947
26967,38565,26888
26918,38523,26824
26866,38476,26755
26810,38426,26682
26753,38375,26607
26693,38321,26529
26628,38265,26445
26561,38207,26360
26495,38148,26277
26430,38090,26197
26366,38035,26119
26305,37985,26041
26247,37939,25964
26192,37892,25890
26144,37846,25820
26101,37801,25755
26058,37758,25693
26016,37716,25630
25974,37675,25567
25927,37633,25500
25875,37588,25428
25819,37541,25352
25763,37497,25273
25708,37454,25193
25651,37408,25111
25589,37358,25025
25523,37303,24933
25451,37243,24837
25376,37179,24739
25301,37111,24641
25227,37043,24545
25157,36979,24452
25092,36924,24369
25038,36879,24300
25006,36853,24259
25007,36854,24262
25048,36895,24327
25146,36989,24471
25315,37149,24712
25566,37383,25066
25903,37697,25538
26328,38090,26132
26841,38559,26841
27432,39094,27651
28085,39682,28541
28777,40303,29486
29484,40935,30456
30181,41554,31413
30841,42135,32322
31444,42663,33151
31973,43126,33882
32419,43520,34505
32781,43841,35016
33064,44091,35417
33274,44274,35713
33418,44395,35918
33502,44463,36042
33532,44484,36093
33517,44467,36081
33467,44415,36015
33387,44340,35908
33283,44246,35768
33160,44135,35598
33016,44009,35403
32858,43870,35188
32692,43721,34956
32521,43563,34713
32345,43401,34465
32169,43240,34216
31996,43086,33977
31830,42941,33750
31673,42803,33539
31527,42673,33340
31390,42551,33153
31260,42433,32974
31133,42315,32802
31007,42200,32631
30879,42085,32456
30746,41965,32275
30607,41841,32089
30463,41713,31896
30318,41583,31699
30176,41456,31505
30036,41332,31317
29905,41217,31139
29789,41115,30977
29693,41030,30840
29619,40962,30733
29567,40914,30661
29537,40889,30622
29532,40887,30616
29548,40905,30641
29583,40938,30693
29636,40983,30765
29701,41038,30853
29776,41101,30953
29857,41172,31063
29943,41250,31178
30031,41333,31296
30118,41414,31416
30201,41491,31533
30281,41563,31642
30357,41632,31742
30425,41695,31836
30483,41752,31923
30534,41800,31999
30576,41838,32060
30611,41868,32103
30634,41889,32127
30644,41898,32132
30635,41893,32116
30606,41871,32073
30560,41829,32003
30496,41768,31911
30416,41689,31795
30320,41597,31656
30211,41495,31500
30090,41385,31330
29956,41267,31146
29813,41141,30953
29664,41006,30753
29510,40866,30547
29353,40724,30335
29196,40584,30122
29041,40447,29908
28890,40312,29694
28741,40177,29481
28596,40046,29273
28457,39916,29071
28321,39788,28874
28187,39666,28684
28057,39550,28503
27935,39442,28333
27819,39341,28176
27711,39248,28030
27613,39164,27896
27525,39089,27774
27443,39021,27661
27364,38955,27557
27291,38892,27461
27224,38836,27373
27163,38787,27292
27105,38744,27214
27049,38704,27139
26994,38664,27066
26936,38621,26991
26876,38571,26913
26816,38517,26834
26759,38460,26753
26704,38405,26671
26649,38352,26590
26597,38302,26513
26549,38255,26441
26503,38210,26375
26457,38167,26314
26414,38128,26256
26374,38093,26203
26338,38061,26152
26306,38033,26104
26278,38006,26057
26249,37979,26010
26215,37952,25962
26178,37924,25914
26139,37896,25865
26101,37868,25816
26062,37839,25767
26021,37809,25719
25980,37777,25670
25938,37743,25620
25894,37708,25569
25852,37673,25514
25810,37635,25455
25766,37593,25392
25719,37547,25324
25669,37494,25251
25613,37434,25169
25548,37368,25074
25474,37297,24969
25396,37225,24859
25317,37148,24745
25235,37066,24628
25153,36985,24507
25070,36906,24386
24984,36826,24262
24897,36751,24140
24810,36680,24021
24728,36614,23910
24653,36552,23811
24590,36498,23730
24548,36462,23676
24536,36457,23664
24568,36494,23714
24655,36587,23845
24813,36748,24079
25057,36984,24430
25394,37300,24906
25821,37696,25505
26330,38166,26219
26915,38701,27034
27560,39289,27933
28246,39911,28890
28956,40551,29877
29669,41184,30863
30357,41789,31810
30996,42346,32687
31568,42843,33470
32061,43272,34148
32471,43627,34716
32801,43910,35175
33057,44128,35530
33244,44288,35791
33369,44395,35969
33439,44452,36074
33461,44468,36117
33446,44449,36109
33402,44404,36058
33335,44337,35972
33250,44254,35858
33152,44158,35723
33044,44055,35574
32931,43947,35416
32814,43839,35251
32695,43733,35082
32574,43629,34916
32456,43528,34754
32343,43431,34598
32238,43341,34449
32144,43259,34312
32057,43183,34186
31979,43114,34075
31910,43052,33980
31848,42997,33898
31797,42950,33829
31756,42910,33774
31719,42875,33724
31679,42837,33671
31632,42795,33610
31575,42746,33536
31507,42685,33447
31426,42611,33339
31333,42527,33211
31231,42434,33068
31122,42338,32918
31011,42242,32766
30903,42150,32617
30803,42061,32476
30710,41979,32350
30627,41903,32238
30555,41837,32143
30495,41781,32066
30446,41738,32007
30409,41704,31965
30386,41682,31941
30377,41671,31930
30377,41671,31932
30386,41679,31946
30403,41694,31970
30427,41716,32001
30455,41744,32040
30489,41774,32087
30525,41806,32138
30562,41840,32189
30596,41873,32237
30628,41904,32279
30657,41930,32313
30681,41947,32335
30695,41954,32346
30697,41951,32342
30686,41938,32320
30656,41913,32277
30608,41874,32215
30545,41823,32134
30473,41763,32037
30395,41694,31924
30307,41615,31796
30207,41528,31653
30099,41433,31495
29985,41331,31327
29862,41219,31152
29731,41099,30974
29596,40976,30792
29459,40854,30610
29322,40735,30426
29189,40617,30242
29057,40500,30058
28924,40385,29875
28790,40270,29697
28660,40158,29524
28538,40051,29358
28425,39951,29200
28317,39856,29049
28214,39765,28903
28114,39678,28765
28020,39595,28633
27932,39520,28512
27854,39450,28402
27782,39388,28304
27717,39334,28216
27657,39287,28137
27604,39243,28064
27556,39202,27996
27511,39164,27930
27469,39126,27867
27429,39089,27810
27390,39054,27758
27353,39021,27705
27316,38989,27649
27280,38957,27592
27241,38921,27533
27197,38879,27471
27149,38832,27405
27096,38781,27334
27035,38728,27259
26970,38672,27178
26902,38613,27094
26833,38554,27007
26762,38494,26918
26691,38436,26829
26624,38379,26740
26562,38324,26653
26505,38273,26567
26451,38224,26484
26398,38178,26407
26350,38135,26334
26304,38094,26261
26257,38055,26188
26211,38015,26115
26163,37974,26043
26111,37930,25971
26056,37883,25897
26002,37833,25821
25950,37786,25745
25897,37739,25670
25843,37693,25594
25790,37646,25515
25736,37598,25434
25675,37544,25353
25611,37488,25273
25546,37432,25194
25482,37377,25114
25418,37322,25031
25354,37264,24945
25289,37205,24858
25223,37142,24767
25156,37077,24671
25086,37014,24570
25014,36950,24462
24939,36884,24351
24863,36813,24239
24787,36741,24130
24711,36670,24024
24635,36605,23919
24559,36543,23816
24487,36485,23721
24426,36436,23640
24386,36403,23584
24373,36396,23565
24401,36425,23603
24485,36503,23720
24636,36645,23936
24871,36864,24266
25199,37167,24719
25621,37553,25301
26130,38017,26008
26716,38554,26826
27369,39151,27734
28073,39793,28711
28807,40460,29727
29546,41125,30747
30260,41762,31732
30927,42349,32651
31526,42872,33477
32045,43322,34197
32481,43699,34808
32837,44002,35308
33115,44235,35701
33322,44404,35991
33463,44517,36191
33544,44584,36314
33574,44611,36369
33560,44602,36366
33513,44563,36317
33442,44502,36233
33354,44425,36123
33255,44335,35990
33147,44234,35840
33034,44129,35681
32919,44022,35520
32807,43917,35361
32703,43815,35210
32607,43720,35071
32519,43633,34946
32442,43560,34837
32378,43502,34746
32327,43458,34674
32287,43426,34624
32258,43403,34590
32239,43389,34567
32227,43384,34551
32219,43382,34540
32213,43378,34527
32203,43369,34509
32185,43352,34480
32152,43323,34436
32100,43279,34371
32032,43222,34284
31949,43152,34177
31852,43066,34053
31743,42967,33913
31625,42859,33760
31500,42745,33594
31370,42627,33422
31239,42508,33245
31112,42392,33070
30992,42286,32906
30883,42190,32760
30787,42107,32629
30707,42036,32517
30641,41975,32425
30591,41928,32353
30555,41894,32299
30527,41872,32262
30507,41860,32241
30498,41858,32234
30501,41867,32242
30514,41886,32259
30533,41909,32283
30556,41932,32308
30575,41951,32330
30586,41961,32344
30587,41962,32347
30579,41952,32336
30563,41931,32311
30536,41900,32273
30497,41857,32219
30445,41803,32148
30378,41739,32059
30298,41667,31954
30204,41584,31832
30100,41491,31694
29985,41388,31542
29862,41278,31378
29733,41168,31205
29603,41058,31026
29474,40948,30844
29345,40838,30661
29217,40727,30478
29086,40615,30292
28952,40499,30103
28815,40380,29913
28674,40260,29724
28533,40139,29536
28392,40020,29349
28255,39902,29164
28119,39781,28980
27986,39659,28796
27854,39539,28616
27724,39422,28440
27598,39306,28270
27478,39194,28105
27362,39087,27946
27247,38985,27792
27133,38884,27640
27020,38784,27490
26910,38686,27341
26800,38593,27194
26691,38502,27050
26587,38412,26906
26485,38322,26763
26384,38231,26619
26282,38138,26476
26178,38045,26336
26076,37956,26200
25980,37869,26067
25890,37786,25939
25804,37707,25817
25720,37634,25700
25635,37564,25586
25551,37495,25476
25467,37427,25370
25386,37359,25268
25307,37291,25170
25231,37227,25078
25158,37167,24987
25087,37110,24892
25018,37053,24795
24949,36996,24697
24879,36938,24598
24807,36881,24499
24733,36823,24398
24658,36762,24296
24585,36701,24196
24514,36639,24098
24445,36578,24002
24377,36516,23909
24312,36455,23819
24249,36396,23732
24185,36339,23646
24122,36282,23562
24060,36226,23480
24000,36171,23402
23941,36118,23328
23882,36065,23253
23822,36011,23173
23761,35956,23088
23701,35903,23001
23639,35851,22909
23573,35798,22814
23506,35741,22716
23439,35679,22618
23373,35614,22518
23307,35548,22416
23240,35481,22311
23175,35416,22207
23109,35354,22107
23044,35294,22010
22978,35232,21914
22909,35170,21817
22837,35106,21720
22763,35042,21625
22687,34980,21533
22613,34921,21443
22543,34863,21353
22474,34803,21260
22402,34739,21162
22328,34674,21059
22256,34612,20955
22186,34553,20853
22118,34495,20753
22051,34437,20655
21984,34381,20564
21924,34330,20484
21877,34291,20420
21849,34273,20384
21855,34285,20396
21907,34341,20475
22020,34451,20645
22211,34629,20928
22490,34886,21337
22862,35229,21877
23326,35655,22540
23869,36151,23311
24475,36702,24165
25125,37291,25080
25805,37905,26036
26501,38534,27015
27203,39164,27999
27892,39781,28966
28552,40369,29892
29166,40912,30748
29718,41397,31514
30196,41816,32175
30593,42161,32718
30906,42429,33145
31139,42625,33460
31297,42751,33670
31388,42819,33788
31418,42837,33824
31389,42807,33789
31311,42733,33691
31193,42624,33541
31045,42488,33348
30875,42335,33124
30693,42171,32880
30504,42002,32624
30314,41831,32364
30126,41662,32105
29944,41496,31855
29771,41338,31619
29609,41190,31401
29457,41054,31202
29320,40932,31024
29201,40831,30871
29104,40755,30749
29029,40700,30654
28974,40660,30580
28933,40631,30522
28901,40609,30471
28872,40586,30421
28838,40556,30362
28794,40514,30289
28735,40457,30199
28656,40384,30090
28562,40296,29960
28458,40198,29817
28349,40098,29666
28237,39996,29515
28128,39897,29367
28023,39804,29229
27929,39721,29105
27847,39653,29002
27783,39603,28921
27741,39573,28866
27723,39562,28840
27728,39570,28840
27753,39595,28863
27792,39631,28906
27842,39674,28968
27900,39723,29042
27964,39777,29124
28032,39837,29212
28101,39898,29304
28167,39956,29394
28227,40007,29477
28278,40051,29550
28318,40086,29609
28349,40112,29651
28366,40126,29674
28366,40130,29678
28353,40122,29665
28327,40104,29633
28288,40073,29583
28240,40028,29516
28182,39971,29434
28112,39901,29336
28032,39824,29223
27943,39742,29098
27849,39658,28964
27749,39570,28819
27643,39479,28666
27535,39387,28509
27424,39293,28348
27311,39195,28186
27197,39095,28020
27079,38991,27852
26957,38884,27679
26832,38776,27505
26705,38667,27331
26580,38558,27161
26460,38448,26994
26343,38339,26832
26228,38234,26674
26114,38132,26520
26002,38031,26370
25894,37934,26225
25789,37839,26080
25685,37748,25937
25583,37660,25799
25485,37576,25669
25394,37494,25543
25308,37419,25424
25229,37353,25313
25159,37297,25216
25101,37251,25136
25057,37215,25071
25023,37185,25017
24999,37162,24976
24982,37145,24946
24968,37131,24924
24956,37117,24905
24944,37103,24881
24931,37088,24852
24912,37073,24818
24887,37052,24781
24854,37026,24739
24818,36995,24691
24779,36961,24637
24735,36925,24577
24684,36885,24511
24630,36841,24438
24572,36792,24361
24513,36741,24280
24456,36689,24198
24399,36635,24113
24336,36579,24027
24268,36521,23936
24196,36460,23842
24122,36392,23747
24044,36319,23648
23963,36243,23546
23878,36167,23442
23792,36091,23337
23706,36016,23232
23621,35943,23126
23539,35868,23017
23457,35789,22905
23372,35711,22791
23286,35635,22674
23202,35562,22556
23120,35492,22438
23039,35426,22321
22963,35364,22209
22891,35307,22102
22825,35251,22000
22763,35195,21901
22704,35139,21806
22647,35084,21714
22589,35031,21626
22531,34978,21542
22475,34927,21460
22417,34877,21378
22357,34826,21302
22302,34781,21237
22261,34753,21193
22246,34751,21186
22269,34784,21237
22344,34865,21363
22483,35003,21578
22699,35207,21895
22998,35480,22320
23375,35824,22852
23826,36232,23484
24342,36699,24199
24905,37212,24979
25499,37754,25800
26108,38307,26643
26721,38858,27489
27324,39399,28324
27903,39918,29126
28449,40400,29878
28947,40833,30564
29387,41212,31169
29762,41532,31685
30068,41793,32108
30306,41995,32437
30481,42140,32673
30594,42233,32826
30649,42277,32905
30652,42274,32915
30610,42232,32867
30531,42157,32768
30424,42058,32626
30293,41938,32450
30140,41800,32247
29970,41647,32019
29787,41482,31773
29594,41309,31514
29391,41129,31248
29184,40946,30981
28982,40767,30720
28788,40597,30466
28607,40438,30226
28442,40295,30004
28292,40165,29799
28153,40045,29609
28023,39933,29430
27900,39826,29256
27777,39718,29082
27651,39602,28903
27517,39479,28715
27376,39351,28519
27229,39215,28316
27076,39075,28109
26920,38937,27899
26767,38806,27695
26624,38683,27504
26494,38570,27331
26381,38473,27182
26290,38397,27063
26225,38345,26977
26186,38317,26926
26174,38311,26909
26189,38327,26923
26227,38362,26966
26281,38411,27035
26347,38475,27125
26423,38549,27233
26506,38628,27350
26593,38706,27469
26680,38782,27585
26761,38853,27695
26833,38916,27794
26895,38970,27880
26945,39017,27952
26982,39055,28008
27005,39081,28046
27015,39094,28063
27012,39093,28058
26997,39079,28034
26970,39053,27993
26935,39015,27936
26891,38966,27864
26838,38908,27778
26773,38843,27681
26697,38771,27569
26610,38692,27443
26514,38609,27304
26409,38522,27157
26296,38426,27000
26178,38322,26838
26057,38212,26671
25934,38099,26497
25808,37983,26318
25679,37865,26133
25549,37748,25945
25419,37632,25757
25290,37517,25573
25165,37406,25392
25042,37299,25213
24920,37191,25036
24801,37083,24866
24689,36979,24705
24580,36881,24556
24474,36787,24414
24375,36698,24279
24283,36612,24148
24195,36531,24022
24112,36458,23905
24037,36394,23801
23971,36338,23710
23911,36288,23631
23860,36241,23562
23819,36198,23500
23786,36162,23447
23759,36133,23402
23736,36112,23365
23716,36094,23333
