green_channel,red_channel,ir_channel
20507,5577,13656
20415,5536,13574
20332,5499,13494
20249,5465,13413
20157,5427,13324
20068,5389,13234
19992,5354,13153
19921,5321,13079
19846,5284,13004
19771,5245,12930
19703,5209,12864
19632,5174,12802
19554,5136,12740
19482,5100,12684
19427,5073,12633
19377,5049,12583
19327,5022,12530
19291,4997,12475
19272,4980,12427
19255,4967,12384
19226,4952,12339
19189,4935,12296
19150,4919,12257
19102,4900,12217
19041,4875,12172
18984,4848,12123
18930,4820,12074
18865,4788,12017
18791,4753,11950
18728,4723,11883
18678,4699,11824
18625,4677,11769
18574,4657,11720
18541,4645,11689
18531,4646,11682
18540,4658,11697
18573,4683,11729
18646,4725,11791
18756,4780,11891
18888,4843,12020
19045,4915,12173
19237,5001,12359
19457,5102,12577
19690,5213,12815
19938,5335,13068
20206,5469,13338
20480,5609,13624
20749,5749,13914
21022,5889,14208
21302,6031,14507
21576,6170,14801
21831,6298,15079
22071,6414,15337
22301,6521,15577
22507,6617,15789
22677,6694,15966
22820,6754,16109
22939,6802,16226
23028,6839,16317
23078,6862,16380
23104,6876,16420
23113,6886,16444
23098,6887,16448
23062,6875,16433
23023,6856,16406
22990,6837,16379
22954,6818,16352
22919,6795,16324
22899,6778,16300
22894,6772,16288
22887,6771,16280
22878,6771,16271
22882,6776,16266
22896,6787,16272
22903,6797,16281
22904,6801,16285
22906,6804,16291
22903,6803,16296
22882,6792,16293
22850,6775,16279
22824,6760,16262
22807,6751,16249
22788,6743,16236
22767,6735,16217
22753,6730,16196
22744,6730,16175
22728,6728,16148
22710,6723,16115
22694,6715,16082
22678,6705,16053
22655,6689,16020
22631,6671,15984
22614,6659,15956
22598,6649,15937
22575,6638,15923
22556,6630,15915
22544,6628,15917
22531,6629,15920
22511,6625,15918
22494,6619,15914
22492,6617,15915
22489,6612,15912
22477,6601,15901
22466,6589,15890
22459,6582,15883
22451,6576,15878
22439,6569,15871
22436,6569,15866
22438,6573,15864
22427,6566,15858
22403,6550,15842
22376,6533,15819
22350,6515,15794
22310,6492,15763
22256,6462,15722
22201,6428,15671
22150,6394,15616
22095,6360,15553
22041,6328,15486
21994,6304,15426
21946,6284,15372
21886,6262,15317
21820,6240,15259
21759,6221,15201
21702,6200,15141
21639,6171,15077
21578,6139,15009
21531,6113,14945
21489,6087,14888
21442,6059,14832
21399,6033,14773
21365,6012,14717
21326,5991,14661
21272,5964,14598
21211,5936,14532
21147,5909,14465
21073,5879,14395
20991,5842,14319
20915,5803,14242
20855,5769,14172
20798,5736,14108
20738,5702,14044
20686,5673,13988
20648,5657,13942
20609,5648,13900
20562,5637,13851
20519,5622,13800
20480,5606,13752
20430,5586,13704
20373,5558,13650
20321,5529,13591
20280,5504,13534
20239,5480,13481
20199,5455,13431
20173,5439,13386
20157,5430,13348
20134,5422,13314
20101,5408,13279
20070,5396,13249
20038,5386,13220
19990,5371,13179
19925,5347,13127
19854,5319,13072
19777,5285,13013
19691,5245,12942
19603,5201,12863
19522,5161,12783
19450,5125,12704
19383,5091,12628
19328,5059,12556
19291,5034,12498
19272,5016,12453
19261,5001,12420
19262,4995,12410
19286,5006,12430
19331,5034,12476
19393,5072,12548
19487,5124,12650
19619,5196,12782
19768,5283,12938
19931,5375,13117
20124,5468,13323
20348,5573,13563
20589,5685,13829
20835,5803,14109
21093,5931,14400
21370,6070,14700
21651,6209,15004
21923,6343,15303
22189,6473,15595
22450,6601,15876
22691,6722,16135
22913,6833,16367
23121,6934,16576
23306,7025,16762
23450,7098,16913
23554,7151,17028
23633,7190,17115
23686,7221,17178
23704,7239,17218
23695,7245,17234
23677,7244,17237
23653,7237,17233
23617,7221,17219
23575,7195,17190
23543,7166,17157
23519,7140,17125
23500,7119,17094
23498,7108,17070
23523,7113,17061
23558,7131,17062
23581,7152,17066
23601,7171,17075
23622,7187,17090
23631,7197,17104
23620,7197,17108
23598,7190,17103
23568,7179,17089
23525,7162,17063
23463,7137,17025
23397,7110,16982
23342,7087,16942
23293,7065,16901
23248,7041,16856
23224,7021,16814
23224,7013,16783
23231,7014,16759
23234,7014,16736
23238,7015,16712
23241,7019,16694
23229,7020,16678
23202,7010,16659
23172,6992,16638
23142,6970,16618
23101,6940,16587
23050,6907,16543
23009,6880,16498
22979,6861,16457
22948,6845,16420
22915,6828,16385
22894,6816,16361
22878,6810,16351
22853,6806,16346
22825,6802,16338
22806,6803,16333
22788,6805,16331
22755,6794,16321
22706,6770,16295
22655,6739,16259
22604,6709,16217
22549,6680,16172
22497,6653,16126
22455,6633,16086
22415,6618,16048
22363,6602,16004
22308,6584,15953
22256,6565,15902
22198,6544,15852
22128,6517,15794
22053,6486,15729
21985,6455,15660
21914,6418,15586
21839,6376,15504
21774,6339,15422
21721,6310,15350
21666,6285,15284
21606,6255,15218
21552,6228,15157
21512,6208,15103
21466,6188,15050
21406,6159,14994
21346,6125,14935
21294,6095,14875
21245,6066,14810
21196,6037,14740
21157,6015,14675
21121,5999,14619
21074,5976,14566
21018,5949,14510
20969,5924,14454
20922,5900,14400
20862,5871,14340
20792,5837,14271
20732,5806,14204
20685,5778,14142
20639,5751,14081
20600,5728,14029
20582,5715,13992
20576,5709,13968
20567,5704,13947
20555,5695,13921
20544,5686,13890
20532,5677,13857
20512,5665,13822
20490,5654,13784
20476,5648,13750
20458,5642,13716
20422,5627,13677
20383,5609,13638
20347,5594,13601
20304,5576,13562
20248,5551,13515
20193,5524,13466
20147,5501,13417
20100,5479,13366
20053,5458,13312
20018,5440,13260
19997,5427,13215
19976,5416,13175
19944,5403,13136
19914,5392,13101
19889,5383,13069
19852,5367,13035
19800,5343,12989
19746,5316,12936
19697,5289,12882
19644,5261,12828
19594,5232,12779
19563,5213,12743
19559,5210,12728
19576,5222,12740
19617,5248,12785
19700,5294,12870
19822,5359,12999
19967,5433,13160
20137,5516,13348
20340,5618,13568
20565,5735,13818
20797,5857,14085
21035,5983,14361
21285,6118,14647
21545,6260,14939
21801,6402,15230
22049,6539,15513
22298,6673,15787
22543,6799,16046
22765,6910,16285
22962,7007,16502
23139,7095,16698
23290,7171,16868
23405,7228,17003
23494,7270,17105
23566,7301,17184
23608,7315,17237
23619,7314,17263
23619,7305,17274
23619,7297,17276
23607,7288,17269
23579,7276,17248
23550,7268,17219
23523,7262,17189
23494,7251,17156
23463,7232,17118
23437,7214,17084
23422,7203,17059
23410,7194,17041
23398,7188,17026
23399,7191,17019
23408,7199,17020
23410,7204,17017
23401,7201,17007
23389,7195,16993
23369,7183,16976
23330,7162,16950
23278,7134,16916
23230,7105,16879
23189,7079,16842
23148,7055,16804
23112,7038,16767
23096,7034,16742
23090,7038,16727
23078,7037,16712
23066,7032,16695
23070,7033,16682
23085,7040,16672
23097,7043,16662
23111,7042,16659
23133,7048,16658
23151,7058,16652
23151,7060,16638
23144,7059,16623
23138,7058,16609
23126,7054,16594
23107,7045,16578
23094,7038,16565
23094,7038,16565
23098,7045,16574
23095,7051,16577
23098,7058,16581
23102,7069,16589
23090,7075,16597
23065,7072,16595
23043,7063,16584
23027,7051,16568
23003,7033,16546
22968,7008,16514
22935,6988,16482
22913,6975,16451
22888,6961,16415
22854,6942,16374
22821,6923,16336
22793,6904,16302
22758,6882,16264
22716,6857,16222
22676,6834,16179
22636,6813,16137
22589,6793,16091
22531,6773,16033
22474,6756,15971
22415,6737,15907
22342,6703,15835
22261,6657,15756
22189,6610,15679
22126,6566,15608
22063,6529,15541
22005,6498,15479
21960,6474,15426
21917,6452,15376
21865,6425,15320
21813,6397,15259
21773,6374,15201
21738,6353,15141
21699,6331,15079
21664,6310,15020
21634,6293,14967
21594,6277,14916
21539,6254,14859
21481,6227,14800
21426,6199,14746
21365,6166,14689
21296,6127,14625
21235,6091,14561
21187,6064,14503
21140,6043,14447
21089,6023,14392
21045,6008,14343
21009,5997,14299
20963,5986,14253
20904,5967,14202
20843,5942,14149
20782,5914,14093
20712,5879,14029
20634,5839,13957
20565,5802,13880
20501,5766,13804
20430,5726,13727
20353,5680,13647
20284,5639,13574
20216,5607,13512
20137,5574,13451
20052,5538,13386
19980,5503,13324
19919,5475,13272
19857,5448,13223
19796,5418,13169
19748,5391,13116
19710,5369,13065
19673,5349,13016
19637,5329,12969
19608,5314,12931
19583,5304,12900
19554,5297,12875
19532,5296,12864
19533,5304,12877
19557,5321,12914
19605,5346,12977
19692,5384,13070
19824,5450,13205
19990,5540,13377
20181,5646,13579
20402,5768,13815
20654,5906,14083
20917,6049,14369
21178,6184,14657
21445,6312,14942
21715,6439,15228
21971,6559,15506
22209,6670,15769
22435,6776,16016
22641,6877,16244
22815,6970,16449
22958,7053,16625
23081,7127,16776
23183,7187,16899
23250,7227,16988
23287,7248,17043
23308,7256,17072
23314,7253,17081
23302,7237,17071
23278,7216,17042
23257,7198,17006
23240,7182,16971
23220,7166,16935
23198,7149,16898
23185,7142,16871
23178,7143,16857
23160,7141,16843
23132,7133,16822
23105,7124,16796
23079,7114,16770
23047,7097,16739
23011,7074,16704
22983,7050,16671
22953,7024,16639
22915,6995,16603
22880,6970,16564
22852,6952,16528
22817,6940,16495
22765,6927,16455
22709,6914,16409
22658,6899,16359
22593,6871,16303
22510,6834,16237
22430,6798,16166
22369,6770,16101
22317,6744,16045
22266,6719,15995
22232,6699,15953
22218,6691,15923
22209,6689,15900
22196,6685,15883
22189,6686,15879
22190,6690,15887
22184,6691,15893
22170,6687,15895
22162,6685,15900
22160,6687,15911
22152,6684,15917
22141,6676,15916
22142,6673,15917
22150,6676,15924
22150,6679,15928
22145,6679,15928
22146,6678,15932
22141,6676,15935
22116,6664,15922
22073,6641,15889
22020,6613,15845
21959,6582,15799
21892,6546,15747
21831,6510,15694
21786,6480,15647
21749,6455,15600
21708,6431,15548
21672,6413,15496
21646,6404,15453
21617,6398,15415
21573,6385,15375
21524,6366,15332
21477,6342,15281
21420,6313,15219
21350,6276,15147
21277,6233,15075
21211,6193,15008
21145,6156,14939
21077,6117,14867
21021,6082,14798
20983,6056,14738
20950,6037,14688
20916,6022,14642
20893,6013,14602
20882,6010,14571
20866,6009,14540
20836,5999,14503
20801,5981,14460
20767,5962,14417
20725,5941,14370
20671,5916,14314
20619,5890,14255
20571,5867,14201
20514,5844,14147
20449,5823,14094
20390,5808,14049
20340,5799,14012
20288,5784,13971
20234,5760,13926
20190,5735,13883
20157,5709,13844
20124,5682,13800
20096,5658,13749
20085,5645,13704
20084,5641,13670
20082,5641,13643
20079,5643,13620
20074,5645,13601
20056,5641,13584
20020,5629,13561
19979,5612,13529
19942,5593,13493
19900,5568,13452
19852,5537,13405
19815,5507,13359
19797,5484,13321
19792,5468,13294
19794,5458,13276
19819,5465,13276
19869,5493,13304
19928,5536,13359
19997,5586,13433
20090,5644,13532
20214,5714,13662
20356,5792,13822
20514,5877,14007
20699,5974,14223
20916,6085,14472
21157,6206,14742
21412,6333,15022
21683,6474,15315
21966,6625,15623
22242,6773,15932
22503,6909,16227
22753,7035,16505
22987,7149,16767
23193,7248,17006
23368,7331,17211
23522,7403,17385
23646,7464,17530
23727,7510,17642
23771,7539,17719
23790,7557,17770
23783,7562,17793
23739,7549,17783
23672,7520,17749
23602,7485,17701
23532,7446,17645
23464,7408,17585
23411,7379,17528
23377,7364,17484
23352,7358,17452
23325,7353,17428
23308,7346,17408
23301,7338,17392
23287,7326,17374
23261,7306,17350
23233,7283,17322
23208,7264,17295
23174,7244,17266
23129,7218,17228
23090,7192,17184
23064,7173,17146
23035,7158,17111
23000,7143,17076
22974,7130,17045
22959,7123,17022
22941,7118,17000
22920,7111,16973
22907,7103,16947
22901,7098,16928
22893,7091,16911
22884,7081,16890
22883,7073,16865
22887,7067,16844
22879,7061,16824
22860,7053,16800
22841,7047,16778
22822,7042,16762
22792,7033,16746
22753,7019,16723
22713,7006,16699
22675,6993,16682
22633,6979,16668
22601,6965,16659
22593,6962,16661
22604,6968,16668
22626,6979,16676
22664,6994,16689
22713,7018,16715
22760,7047,16746
22790,7070,16769
22808,7085,16780
22817,7089,16784
22806,7083,16782
22770,7063,16763
22719,7035,16726
22670,7006,16682
22614,6975,16633
22546,6940,16579
22482,6903,16521
22428,6872,16466
22377,6844,16410
22318,6815,16349
22261,6788,16288
22208,6765,16229
22148,6738,16168
22083,6705,16100
22027,6673,16031
21979,6645,15966
21922,6617,15900
21859,6588,15827
21804,6561,15754
21756,6537,15689
21700,6511,15629
21637,6482,15572
21583,6453,15521
21542,6426,15478
21504,6398,15434
21467,6371,15387
21441,6351,15343
21425,6342,15305
21404,6336,15271
21379,6329,15237
21359,6324,15207
21335,6316,15175
21294,6299,15133
21242,6276,15081
21190,6249,15020
21137,6217,14952
21079,6179,14878
21025,6141,14805
20987,6115,14745
20956,6098,14697
20921,6080,14657
20896,6063,14626
20885,6053,14604
20876,6048,14587
20859,6040,14567
20845,6031,14545
20840,6025,14523
20827,6016,14491
20799,5999,14444
20769,5975,14392
20741,5949,14343
20701,5915,14292
20637,5874,14233
20556,5830,14169
20466,5787,14100
20358,5741,14026
20246,5693,13951
20156,5651,13882
20094,5620,13823
20054,5601,13774
20036,5595,13741
20055,5608,13737
20110,5642,13770
20188,5691,13830
20291,5753,13916
20429,5832,14036
20592,5924,14188
20768,6020,14366
20962,6121,14571
21185,6233,14809
21430,6357,15076
21684,6491,15363
21949,6630,15662
22228,6779,15975
22507,6932,16297
22767,7080,16614
23012,7217,16919
23247,7345,17211
23467,7463,17487
23662,7564,17734
23842,7653,17950
24019,7738,18147
24181,7814,18321
24313,7874,18463
24420,7927,18581
24507,7973,18678
24566,8009,18751
24590,8027,18794
24597,8033,18815
24599,8031,18825
24587,8017,18826
24563,7998,18817
24549,7985,18806
24546,7980,18799
24538,7976,18797
24522,7970,18791
24509,7970,18779
24507,7975,18769
24504,7980,18764
24499,7982,18756
24502,7985,18748
24513,7989,18746
24521,7992,18745
24524,7990,18740
24529,7987,18736
24528,7984,18735
24511,7976,18726
24479,7958,18703
24444,7939,18670
24410,7920,18637
24374,7898,18598
24343,7877,18557
24327,7865,18526
24317,7861,18508
24301,7859,18491
24277,7855,18470
24253,7852,18450
24227,7848,18432
24195,7838,18405
24164,7819,18374
24145,7801,18351
24130,7785,18336
24109,7769,18322
24092,7757,18312
24084,7753,18311
24075,7752,18314
24063,7750,18313
24059,7750,18313
24074,7757,18323
24093,7767,18339
24111,7774,18351
24137,7785,18366
24169,7803,18388
24193,7818,18408
24201,7825,18416
24205,7827,18418
24206,7830,18423
24189,7825,18424
24157,7809,18413
24124,7790,18392
24097,7776,18367
24065,7763,18335
24026,7744,18294
23991,7725,18248
23962,7708,18205
23926,7686,18159
23882,7657,18103
23846,7629,18046
23819,7607,17996
23795,7587,17949
23770,7570,17902
23744,7558,17859
23705,7541,17815
23639,7512,17760
23555,7474,17690
23471,7436,17613
23386,7394,17532
23296,7346,17448
23208,7298,17363
23126,7256,17284
23048,7217,17208
22968,7177,17129
22895,7141,17054
22841,7115,16991
22796,7095,16934
22755,7075,16880
22725,7056,16829
22713,7045,16790
22706,7037,16757
22686,7028,16718
22655,7019,16676
22615,7008,16633
22551,6986,16580
22463,6951,16510
22369,6906,16426
22275,6857,16338
22168,6802,16246
22047,6745,16149
21929,6695,16058
21823,6647,15975
21718,6596,15895
21616,6545,15815
21531,6502,15739
21467,6470,15670
21411,6440,15604
21364,6411,15543
21335,6390,15492
21312,6380,15447
21282,6369,15399
21244,6351,15346
21204,6328,15292
21155,6303,15238
21084,6270,15177
20994,6229,15105
20904,6184,15029
20822,6139,14955
20746,6093,14882
20684,6053,14814
20651,6027,14760
20641,6011,14718
20640,6004,14689
20654,6007,14675
20686,6022,14680
20723,6045,14706
20760,6071,14747
20815,6105,14806
20902,6156,14894
21012,6221,15013
21145,6298,15163
21315,6391,15348
21528,6506,15573
21769,6638,15836
22027,6777,16122
22308,6925,16429
22608,7080,16759
22911,7236,17103
23205,7389,17444
23496,7537,17778
23786,7682,18108
24057,7819,18424
24302,7945,18715
24532,8067,18984
24741,8181,19226
24911,8274,19426
25033,8342,19584
25118,8388,19706
25170,8416,19793
25181,8420,19839
25157,8403,19845
25120,8375,19823
25073,8345,19784
25013,8311,19730
24949,8281,19673
24897,8258,19623
24851,8242,19581
24800,8223,19541
24747,8198,19500
24694,8170,19459
24640,8139,19415
24581,8105,19366
24523,8070,19315
24476,8039,19268
24432,8011,19224
24379,7981,19179
24322,7952,19134
24269,7926,19089
24210,7900,19041
24139,7869,18984
24072,7838,18922
24019,7816,18866
23970,7797,18813
23924,7779,18759
23892,7765,18711
23870,7756,18671
23841,7745,18634
23799,7727,18593
23756,7706,18548
23721,7690,18502
23682,7672,18458
23642,7650,18418
23618,7633,18389
23616,7630,18375
23627,7641,18374
23650,7660,18381
23691,7688,18402
23744,7722,18439
23794,7754,18485
23845,7783,18536
23909,7815,18595
23982,7853,18658
24053,7891,18722
24123,7923,18781
24198,7955,18836
24271,7988,18890
24328,8017,18940
24364,8036,18979
24389,8050,19008
24396,8059,19027
24381,8057,19032
24354,8049,19023
24329,8037,19005
24301,8023,18981
24262,8002,18945
24218,7977,18904
24179,7957,18866
24135,7939,18828
24076,7914,18775
24009,7884,18711
23936,7851,18640
23845,7811,18561
23732,7759,18468
23613,7698,18361
23499,7639,18253
23377,7578,18141
23246,7510,18020
23124,7441,17897
23017,7376,17784
22908,7313,17680
22793,7248,17575
22687,7188,17471
22598,7139,17378
22511,7096,17290
22422,7049,17202
22341,7000,17114
22272,6954,17026
22203,6909,16935
22128,6864,16844
22058,6828,16761
21991,6798,16684
21916,6767,16609
21837,6733,16536
21776,6705,16474
21737,6687,16424
21716,6675,16383
21718,6672,16353
21750,6685,16342
21804,6714,16349
21857,6749,16368
21904,6785,16390
21947,6822,16410
21981,6851,16422
21997,6867,16421
22001,6872,16408
22001,6870,16388
21993,6858,16363
21972,6840,16329
21948,6821,16293
21927,6806,16261
21901,6792,16229
21862,6772,16192
21824,6751,16153
21797,6733,16118
21770,6715,16081
21735,6694,16037
21701,6671,15988
21673,6651,15941
21635,6630,15893
21573,6601,15838
21495,6567,15777
21408,6531,15710
21300,6484,15632
21172,6427,15540
21041,6367,15441
20925,6316,15348
20827,6273,15269
20757,6242,15216
20739,6237,15206
20780,6260,15247
20869,6305,15339
21000,6372,15478
21184,6465,15666
21413,6585,15901
21662,6720,16168
21920,6861,16453
22190,7007,16756
22466,7157,17072
22738,7302,17386
23004,7442,17693
23273,7583,18001
23540,7728,18312
23796,7870,18611
24042,8004,18894
24288,8134,19166
24524,8259,19421
24736,8369,19648
24929,8465,19848
25110,8553,20024
25266,8628,20171
25380,8682,20281
25456,8720,20357
25502,8744,20406
25509,8750,20428
25472,8732,20419
25412,8695,20383
25348,8652,20332
25272,8605,20267
25190,8559,20191
25122,8527,20122
25077,8515,20071
25041,8509,20035
25010,8503,20004
24995,8500,19979
24996,8503,19964
24994,8502,19953
24981,8490,19938
24963,8473,19919
24940,8455,19896
24899,8429,19857
24831,8389,19796
24743,8340,19719
24641,8285,19631
24514,8219,19527
24365,8141,19403
24207,8058,19265
24049,7979,19124
23890,7899,18985
23736,7820,18850
23601,7751,18732
23480,7696,18636
23363,7646,18555
23258,7600,18478
23177,7561,18408
23116,7532,18348
23066,7509,18297
23029,7493,18256
23015,7489,18235
23007,7491,18225
22989,7486,18215
22970,7481,18204
22957,7478,18195
22941,7473,18189
22916,7462,18178
22899,7448,18166
22903,7445,18161
22915,7448,18160
22924,7453,18158
22944,7465,18161
22970,7480,18174
22986,7492,18191
22985,7496,18200
22979,7498,18198
22976,7498,18188
22958,7491,18166
22919,7473,18128
22877,7451,18083
22831,7426,18038
22769,7393,17989
22694,7352,17925
22621,7308,17850
22552,7265,17774
22476,7219,17693
22400,7171,17608
22343,7131,17528
22298,7100,17462
22251,7075,17403
22200,7054,17344
22150,7032,17285
22092,7007,17227
22012,6974,17159
21916,6932,17074
21821,6890,16979
21728,6848,16883
21631,6804,16787
21529,6756,16691
21434,6709,16597
21340,6661,16501
21235,6606,16397
21127,6546,16290
21029,6488,16187
20941,6436,16089
20857,6390,15994
20786,6353,15906
20732,6328,15836
20687,6307,15784
20642,6287,15735
20599,6268,15686
20557,6249,15634
20499,6220,15573
20416,6182,15500
20324,6140,15419
20238,6099,15346
20151,6060,15280
20067,6022,15214
20007,5993,15150
19968,5973,15095
19930,5958,15047
19890,5943,15001
19861,5932,14961
19847,5928,14932
19840,5926,14908
19839,5922,14883
19851,5923,14859
19866,5926,14842
19864,5927,14825
19845,5920,14803
19814,5906,14776
19775,5887,14745
19729,5862,14708
19686,5834,14668
19662,5815,14641
19664,5813,14639
19687,5825,14659
19738,5852,14704
19831,5904,14789
19963,5984,14926
20127,6080,15105
20325,6186,15320
20562,6306,15571
20828,6441,15853
21109,6581,16156
21403,6726,16470
21710,6879,16795
22012,7037,17125
22292,7187,17447
22554,7328,17754
22794,7457,18037
22996,7569,18289
23155,7657,18501
23285,7725,18675
23398,7781,18821
23487,7823,18941
23552,7850,19031
23610,7871,19101
23669,7895,19159
23718,7920,19207
23746,7936,19238
23765,7943,19253
23787,7949,19261
23803,7953,19259
23808,7951,19248
23812,7947,19239
23817,7948,19235
23813,7950,19230
23795,7947,19214
23773,7939,19191
23750,7925,19166
23712,7904,19135
23663,7876,19095
23614,7849,19049
23567,7821,19005
23520,7788,18962
23483,7757,18921
23471,7737,18891
23480,7732,18870
23491,7732,18852
23500,7736,18835
23511,7743,18822
23516,7747,18809
23507,7745,18792
23493,7741,18772
23486,7738,18757
23476,7735,18746
23457,7728,18730
23439,7723,18707
23428,7722,18688
23411,7723,18674
23384,7721,18657
23367,7721,18642
23371,7727,18639
23382,7733,18645
23393,7734,18650
23412,7735,18657
23447,7746,18677
23480,7762,18706
23495,7777,18733
23504,7793,18758
23521,7811,18780
23533,7818,18788
23522,7806,18776
23496,7786,18755
23468,7771,18740
23439,7756,18728
23409,7740,18714
23387,7728,18703
23374,7720,18694
23355,7712,18678
23329,7701,18653
23304,7689,18625
23279,7676,18596
23238,7657,18561
23183,7627,18515
23128,7591,18461
23070,7553,18404
22995,7511,18337
22909,7469,18257
22823,7435,18173
22735,7403,18089
22641,7363,17998
22548,7316,17902
22469,7273,17815
22398,7238,17743
22330,7207,17675
22270,7178,17608
22224,7154,17551
22185,7132,17504
22139,7106,17458
22094,7079,17410
22060,7053,17362
22031,7026,17310
21997,6998,17252
21961,6970,17191
21932,6948,17134
21898,6933,17076
21848,6912,17007
21795,6889,16935
21746,6863,16868
21688,6828,16797
21623,6787,16719
21566,6748,16645
21521,6718,16587
21480,6694,16541
21440,6672,16499
21412,6654,16465
21393,6641,16435
21362,6626,16398
21317,6608,16353
21273,6590,16309
21230,6573,16265
21176,6547,16210
21116,6514,16142
21061,6484,16074
21006,6459,16010
20938,6426,15941
20863,6385,15865
20785,6343,15789
20700,6298,15709
20601,6248,15617
20501,6199,15522
20418,6158,15440
20356,6128,15376
20310,6107,15330
20286,6099,15307
20298,6113,15317
20343,6147,15367
20412,6192,15451
20513,6251,15567
20654,6331,15717
20825,6425,15896
21013,6528,16102
21224,6640,16336
21462,6767,16600
21712,6899,16885
21960,7030,17177
22216,7161,17480
22479,7300,17792
22736,7439,18103
22978,7567,18397
23209,7685,18671
23435,7799,18925
23644,7905,19155
23826,7999,19359
23988,8085,19546
24131,8162,19714
24245,8222,19851
24329,8261,19953
24392,8288,20028
24432,8305,20079
24437,8304,20102
24416,8290,20102
24389,8272,20087
24355,8256,20062
24307,8233,20024
24255,8203,19977
24210,8175,19932
24168,8151,19892
24121,8124,19851
24070,8096,19808
24030,8073,19769
23997,8052,19738
23958,8026,19708
23921,7998,19675
23897,7977,19644
23877,7960,19612
23844,7942,19573
23800,7924,19530
23751,7910,19491
23699,7895,19455
23642,7875,19413
23590,7855,19368
23552,7842,19330
23524,7831,19295
23500,7820,19259
23490,7814,19227
23495,7815,19202
23500,7816,19179
23488,7812,19148
23472,7809,19113
23456,7808,19085
23422,7801,19059
23366,7782,19026
23304,7756,18985
23245,7730,18945
23182,7702,18905
23116,7668,18862
23064,7636,18826
23028,7611,18802
22998,7588,18782
22977,7569,18766
22974,7561,18760
22982,7564,18764
22983,7567,18770
22981,7567,18773
22986,7570,18779
22995,7574,18787
22990,7570,18787
22975,7559,18775
22963,7549,18756
22948,7542,18735
22915,7533,18707
22867,7518,18668
22813,7502,18621
22752,7483,18569
22675,7451,18503
22596,7408,18427
22533,7364,18350
22479,7326,18276
22425,7294,18205
22382,7267,18140
22352,7246,18087
22322,7230,18042
22278,7210,17993
22226,7189,17936
22170,7165,17876
22102,7131,17814
22020,7089,17743
21943,7045,17667
21878,7008,17595
21809,6975,17522
21730,6939,17441
21659,6904,17357
21602,6873,17278
21546,6842,17202
21486,6807,17119
21432,6773,17036
21384,6743,16960
21328,6711,16887
21267,6673,16814
21215,6636,16745
21173,6604,16685
21126,6572,16629
21072,6539,16572
21021,6513,16520
20969,6492,16472
20909,6467,16421
20844,6440,16366
20786,6421,16314
20735,6404,16264
20678,6383,16207
20620,6358,16145
20572,6335,16086
20532,6317,16034
20491,6300,15986
20454,6285,15939
20428,6273,15897
20400,6259,15858
20356,6237,15813
20308,6214,15761
20266,6193,15706
20220,6172,15650
20164,6146,15591
20105,6115,15530
20053,6085,15471
19999,6055,15413
19936,6023,15351
19878,5992,15288
19829,5966,15234
19779,5947,15191
19735,5930,15152
19715,5923,15122
19732,5933,15121
19777,5957,15153
19848,5995,15215
19962,6053,15315
20120,6132,15462
20301,6227,15649
20497,6332,15868
20718,6450,16117
20963,6578,16393
21209,6705,16681
21451,6829,16976
21704,6958,17276
21965,7092,17580
22220,7224,17881
22468,7353,18176
22718,7485,18463
22960,7615,18742
23175,7732,19001
23356,7828,19229
23510,7907,19428
23639,7975,19598
23734,8025,19729
23802,8056,19823
23856,8076,19891
23892,8087,19940
23901,8087,19967
23890,8079,19975
23868,8072,19970
23836,8061,19952
23785,8038,19914
23729,8010,19866
23680,7987,19819
23635,7968,19773
23593,7948,19721
23560,7930,19670
23543,7920,19633
23530,7914,19606
23512,7907,19582
23496,7899,19562
23483,7890,19544
23462,7876,19521
23421,7854,19487
23373,7831,19446
23327,7812,19402
23277,7789,19353
23217,7760,19299
23167,7733,19245
23130,7713,19199
23092,7692,19158
23056,7675,19120
23035,7670,19089
23027,7673,19067
23012,7671,19041
22985,7660,19009
22954,7645,18973
22919,7627,18935
22867,7602,18891
22802,7567,18837
22738,7528,18777
22680,7493,18723
22623,7460,18677
22571,7431,18633
22535,7410,18602
22509,7398,18585
22481,7388,18572
22458,7377,18558
22444,7370,18548
22436,7366,18544
22427,7362,18540
22423,7360,18533
22436,7365,18532
22456,7372,18536
22468,7375,18538
22478,7377,18534
22483,7379,18528
22471,7380,18516
22438,7370,18490
22398,7352,18455
22355,7333,18419
22300,7308,18371
22236,7278,18311
22180,7250,18250
22137,7230,18198
22096,7216,18154
22051,7198,18109
22015,7180,18061
21991,7163,18017
21958,7143,17970
21914,7119,17915
21874,7096,17854
21837,7072,17792
21789,7042,17726
21726,7005,17651
21660,6967,17575
21591,6931,17503
21504,6889,17424
21401,6836,17332
21294,6781,17236
21187,6729,17140
21075,6673,17035
20965,6617,16924
20869,6569,16821
20784,6529,16732
20696,6488,16647
20610,6447,16564
20534,6413,16488
20471,6388,16422
20413,6364,16359
20362,6341,16297
20326,6321,16245
20290,6301,16195
20240,6277,16141
20185,6251,16084
20135,6225,16027
20080,6197,15970
20015,6164,15909
19951,6131,15849
19902,6105,15794
19860,6080,15739
19822,6056,15683
19795,6035,15635
19778,6023,15598
19755,6015,15565
19725,6003,15528
19702,5992,15489
19691,5986,15457
19676,5976,15424
19653,5959,15384
19635,5943,15336
19620,5930,15290
19594,5915,15249
19550,5894,15204
19499,5871,15154
19442,5848,15102
19370,5821,15043
19292,5786,14975
19228,5750,14902
19178,5718,14836
19137,5691,14776
19106,5669,14725
19094,5658,14693
19101,5662,14687
19121,5681,14702
19159,5709,14740
19228,5750,14809
19327,5807,14917
19446,5873,15062
19593,5950,15242
19780,6043,15464
19993,6151,15717
20212,6266,15985
20440,6385,16265
20676,6508,16556
20911,6627,16851
21137,6739,17140
21363,6851,17425
21600,6970,17712
21838,7093,17995
22061,7212,18262
22275,7328,18512
22475,7436,18744
22645,7530,18949
22775,7603,19112
22872,7661,19233
22949,7706,19325
22998,7733,19388
23013,7740,19419
23008,7736,19428
22990,7723,19421
22948,7700,19394
22884,7667,19349
22816,7629,19295
22756,7593,19241
22701,7556,19182
22647,7520,19119
22608,7496,19063
22581,7484,19021
22551,7474,18986
22521,7463,18957
22503,7455,18934
22489,7447,18915
22465,7435,18893
22434,7419,18863
22409,7405,18832
22384,7391,18803
22343,7370,18766
22291,7342,18715
22239,7314,18661
22190,7287,18606
22139,7257,18546
22092,7231,18487
22061,7215,18438
22039,7206,18400
22010,7195,18363
21980,7180,18324
21951,7162,18286
21910,7140,18248
21858,7115,18205
21811,7090,18157
21776,7072,18114
21741,7058,18079
21696,7037,18046
21653,7017,18022
21621,7006,18009
21588,7000,17995
21554,6994,17978
21533,6991,17968
21528,6995,17969
21529,7001,17977
21529,7006,17984
21537,7013,17993
21552,7022,18005
21557,7026,18015
21547,7023,18014
21536,7017,18006
21524,7008,17995
21497,6992,17972
21453,6969,17933
21408,6946,17884
21357,6921,17829
21287,6888,17762
21199,6847,17683
21110,6806,17604
21023,6766,17531
20929,6722,17453
20836,6676,17366
20758,6633,17281
20696,6595,17205
20633,6559,17131
20573,6524,17061
20524,6498,17002
20476,6476,16948
20415,6454,16890
20348,6425,16823
20283,6390,16747
20210,6347,16662
20120,6294,16566
20022,6237,16463
19928,6186,16364
19834,6142,16272
19730,6096,16177
19629,6054,16083
19541,6019,15997
19459,5986,15916
19376,5952,15837
19303,5924,15763
19252,5905,15701
19208,5885,15644
19158,5861,15582
19111,5837,15520
19071,5817,15463
19025,5797,15408
18970,5774,15349
18918,5750,15291
18872,5728,15237
18821,5706,15183
18760,5682,15125
18703,5658,15067
18646,5634,15013
18578,5607,14958
18505,5575,14899
18442,5545,14843
18388,5514,14789
18329,5478,14731
18268,5440,14665
18219,5410,14599
18184,5387,14541
18153,5370,14486
18123,5354,14433
18103,5344,14389
18089,5342,14356
18071,5340,14325
18046,5334,14288
18019,5325,14249
17982,5312,14207
17927,5285,14154
17863,5247,14091
17803,5204,14023
17737,5159,13949
17661,5113,13871
17590,5072,13792
17536,5041,13725
17490,5020,13677
17448,5006,13646
17425,5006,13641
17439,5026,13670
17485,5061,13731
17559,5109,13822
17675,5176,13949
17839,5264,14121
18036,5368,14334
18248,5480,14575
18478,5600,14839
18729,5726,15124
18985,5854,15419
19244,5984,15717
19512,6113,16015
19783,6241,16315
20038,6365,16607
20270,6480,16879
20487,6586,17132
20682,6684,17363
20840,6766,17564
20963,6828,17732
21063,6874,17870
21139,6909,17976
21184,6930,18048
21207,6938,18093
21220,6943,18118
21224,6948,18127
21208,6946,18115
21171,6933,18085
21126,6916,18045
21077,6894,17996
21019,6863,17933
20957,6828,17860
20905,6800,17791
20861,6778,17728
20816,6756,17669
20776,6736,17618
20745,6725,17581
20716,6716,17556
20680,6703,17531
20644,6688,17507
20614,6673,17485
20575,6655,17457
20526,6634,17419
20486,6614,17377
20456,6598,17339
20421,6580,17300
20376,6558,17257
20340,6540,17215
20312,6530,17180
20276,6520,17147
20233,6504,17106
20194,6487,17063
20168,6471,17027
20145,6452,16996
20127,6434,16965
20122,6422,16944
20126,6416,16933
20121,6411,16924
20107,6406,16912
20096,6404,16900
20087,6403,16892
20065,6400,16884
20032,6394,16873
20000,6386,16862
19974,6375,16851
19944,6359,16838
19917,6341,16827
19907,6334,16826
19904,6334,16829
19897,6336,16830
19898,6341,16830
19912,6354,16836
19925,6366,16845
19922,6368,16848
19914,6361,16841
19906,6348,16825
19887,6329,16798
19847,6301,16759
19798,6270,16709
19752,6244,16655
19698,6218,16596
19631,6187,16530
19563,6159,16465
19500,6133,16405
19434,6103,16347
19358,6069,16282
19283,6036,16217
19221,6007,16161
19161,5975,16107
19099,5942,16046
19048,5911,15979
19010,5887,15919
18976,5866,15864
18941,5842,15805
18911,5820,15743
18878,5802,15685
18831,5784,15627
18775,5764,15562
18725,5744,15496
18681,5726,15431
18629,5702,15363
18573,5670,15291
18528,5639,15222
18490,5611,15163
18450,5584,15108
18410,5560,15055
18380,5543,15010
18348,5532,14972
18306,5518,14931
18259,5500,14885
18216,5479,14836
18171,5455,14787
18121,5425,14731
18073,5394,14670
18036,5369,14610
18000,5349,14552
17958,5330,14496
17915,5313,14444
17875,5299,14396
17827,5281,14348
17769,5257,14294
17715,5233,14238
17676,5211,14188
17640,5187,14142
17598,5162,14094
17561,5143,14049
17528,5128,14005
17485,5111,13954
17427,5087,13892
17366,5060,13830
17309,5035,13773
17246,5008,13715
17185,4980,13662
17147,4961,13629
17144,4959,13630
17174,4971,13666
17237,4999,13736
17347,5051,13844
17499,5127,13994
17673,5220,14183
17871,5324,14403
18098,5440,14654
18349,5569,14934
18615,5704,15230
18892,5843,15538
19184,5987,15858
19480,6137,16187
19765,6283,16509
20035,6418,16814
20295,6546,17104
20532,6661,17380
20733,6757,17625
20910,6838,17836
21073,6913,18020
21213,6979,18178
21322,7033,18305
21416,7079,18405
21506,7123,18490
21572,7160,18559
21606,7183,18605
21627,7194,18633
21636,7197,18647
21622,7190,18644
21588,7173,18629
21548,7152,18603
21515,7133,18572
21482,7111,18530
21437,7082,18479
21388,7055,18427
21339,7036,18383
21281,7017,18343
21217,6993,18293
21164,6968,18237
21125,6946,18186
21089,6927,18138
21055,6905,18093
21034,6888,18057
21022,6876,18027
21001,6865,17992
20972,6851,17948
20943,6835,17904
20907,6817,17864
20851,6790,17817
20779,6755,17758
20706,6720,17693
20630,6683,17626
20542,6642,17553
20451,6599,17470
20374,6563,17385
20306,6534,17308
20234,6506,17240
20168,6480,17180
20118,6461,17126
20071,6443,17080
20016,6422,17037
19967,6397,16996
19929,6372,16960
19893,6350,16930
19854,6329,16902
19823,6311,16878
19812,6302,16866
19810,6300,16862
19799,6297,16856
19785,6292,16848
19774,6289,16838
19759,6284,16823
19733,6274,16803
19704,6263,16782
19675,6252,16759
19630,6234,16727
19568,6204,16680
19509,6167,16623
19460,6134,16564
19410,6105,16506
19349,6074,16444
19288,6046,16382
19228,6020,16318
19160,5992,16245
19082,5958,16159
19007,5921,16070
18937,5884,15987
18861,5842,15906
18783,5797,15823
18715,5756,15740
18651,5719,15662
18582,5679,15583
18512,5641,15504
18449,5611,15429
18390,5583,15363
18322,5548,15296
18245,5504,15219
18166,5459,15135
18085,5416,15050
17997,5374,14960
17905,5332,14865
17822,5296,14776
17742,5263,14694
17660,5230,14620
17583,5200,14549
17519,5177,14485
17462,5155,14426
17401,5129,14367
17341,5104,14308
17298,5087,14256
17264,5074,14207
17227,5060,14158
17195,5043,14111
17172,5030,14074
17145,5020,14039
17105,5001,13995
17061,4978,13946
17022,4956,13897
16977,4930,13843
16923,4896,13781
16870,4862,13716
16824,4834,13656
16779,4809,13601
16733,4784,13545
16697,4766,13498
16670,4756,13460
16634,4746,13424
16586,4729,13380
16538,4708,13333
16490,4685,13286
16430,4655,13234
16364,4621,13173
16305,4589,13108
16248,4561,13040
16178,4533,12966
16101,4505,12891
16032,4480,12829
15976,4461,12788
15924,4443,12763
15888,4431,12757
15890,4434,12781
15935,4457,12841
16021,4496,12936
16148,4553,13068
16319,4631,13243
16520,4728,13460
16736,4839,13711
16973,4965,13987
17232,5100,14286
17505,5238,14599
17783,5373,14918
18067,5509,15237
18355,5649,15559
18629,5784,15875
18878,5905,16170
19108,6014,16441
19323,6116,16692
19516,6209,16920
19678,6287,17117
19817,6354,17284
19944,6414,17423
20046,6463,17535
20122,6498,17615
20187,6528,17670
20253,6559,17713
20307,6585,17743
20343,6604,17760
20370,6622,17773
20388,6637,17786
20387,6642,17787
20371,6635,17773
20353,6625,17750
20338,6613,17723
20320,6597,17692
20300,6578,17660
20294,6562,17637
20300,6553,17627
20303,6548,17623
20302,6546,17620
20306,6551,17621
20307,6557,17627
20296,6557,17631
20286,6551,17630
20285,6543,17626
20284,6534,17621
20278,6521,17610
20272,6508,17590
20270,6499,17569
20256,6489,17545
20219,6476,17512
20170,6463,17476
20117,6449,17438
20055,6432,17397
19989,6409,17348
19937,6385,17297
19904,6370,17257
19880,6363,17225
19852,6357,17195
19831,6354,17169
19823,6357,17152
19814,6357,17142
19796,6348,17129
19786,6338,17119
19788,6333,17116
19789,6330,17118
19783,6326,17119
19778,6323,17124
19776,6322,17131
19766,6318,17129
19753,6313,17118
19749,6309,17106
19751,6307,17098
19748,6306,17089
19743,6302,17076
19744,6300,17063
19739,6296,17053
19715,6286,17034
19679,6271,17001
19638,6256,16960
19586,6236,16911
19514,6207,16847
19437,6173,16771
19376,6143,16696
19320,6116,16626
19256,6086,16557
19192,6054,16486
19134,6021,16413
19075,5986,16340
19007,5949,16263
18946,5914,16185
18901,5886,16117
18859,5861,16056
18806,5835,15994
18746,5808,15930
18681,5780,15860
18603,5747,15783
18508,5702,15691
18408,5650,15588
18312,5597,15480
18210,5541,15366
18103,5482,15246
18002,5423,15129
17907,5370,15022
17807,5322,14924
17699,5275,14826
17600,5231,14731
17517,5196,14644
17438,5163,14561
17361,5127,14479
17303,5093,14402
17263,5068,14336
17222,5046,14277
17175,5023,14219
17128,5003,14164
17082,4986,14115
17024,4963,14059
16956,4933,13989
16885,4902,13913
16812,4870,13836
16733,4836,13759
16656,4799,13685
16592,4766,13615
16534,4741,13552
16468,4715,13491
16397,4687,13428
16331,4659,13364
16266,4631,13298
16199,4600,13228
16137,4572,13154
16084,4549,13085
16025,4523,13019
15948,4489,12949
15868,4451,12878
15792,4412,12805
15712,4370,12725
15626,4325,12639
15547,4283,12554
15484,4247,12480
15431,4215,12420
15380,4184,12366
15341,4165,12325
15326,4161,12307
15328,4167,12309
15352,4183,12333
15418,4215,12388
15531,4269,12483
15678,4342,12619
15848,4430,12790
16052,4535,12997
16284,4654,13238
16522,4778,13502
16760,4901,13782
17012,5025,14078
17281,5155,14386
17554,5288,14702
17825,5420,15018
18097,5553,15336
18365,5686,15651
18611,5813,15948
18830,5926,16214
19028,6023,16446
19199,6104,16646
19337,6163,16813
19443,6204,16952
19521,6238,17063
19572,6273,17143
19592,6295,17188
19590,6302,17201
19577,6298,17190
19554,6286,17162
19519,6264,17123
19479,6238,17078
19441,6215,17037
19394,6194,16995
19335,6168,16949
19278,6140,16901
19234,6117,16855
19187,6096,16804
19134,6072,16748
19087,6048,16695
19044,6031,16652
18990,6018,16615
18929,5994,16568
18877,5961,16509
18840,5929,16450
18797,5900,16393
18748,5872,16337
18708,5849,16284
18678,5830,16239
18642,5811,16198
18599,5789,16149
18559,5768,16093
18525,5751,16038
18482,5733,15983
18431,5712,15927
18387,5695,15877
18347,5683,15835
18298,5670,15792
18247,5655,15748
18213,5642,15710
18194,5630,15679
18174,5617,15650
18160,5607,15627
18163,5607,15616
18174,5616,15620
18178,5621,15626
18174,5619,15630
18170,5618,15635
18157,5615,15637
18125,5603,15631
18084,5585,15618
18046,5567,15601
18004,5549,15576
17949,5526,15540
17889,5500,15496
17827,5474,15450
17755,5445,15402
17671,5408,15347
17589,5369,15288
17523,5337,15234
17463,5312,15184
17405,5287,15131
17362,5268,15080
17334,5258,15032
17304,5250,14984
17254,5235,14924
17187,5210,14855
17120,5182,14784
17050,5148,14708
16971,5109,14625
16890,5069,14540
16812,5030,14453
16729,4988,14360
16641,4943,14262
16559,4900,14169
16480,4856,14082
16391,4809,13994
16301,4758,13900
16227,4715,13810
16163,4682,13733
16093,4652,13661
16021,4622,13591
15960,4597,13525
15900,4572,13463
15819,4538,13394
15721,4494,13312
15620,4448,13221
15519,4402,13127
15412,4355,13030
15310,4309,12930
15226,4270,12837
15153,4240,12757
15083,4216,12684
15022,4193,12617
14975,4173,12557
14930,4153,12500
14885,4130,12441
14846,4108,12379
14816,4092,12323
14785,4080,12274
14739,4062,12224
14685,4043,12173
14628,4023,12123
14559,3996,12071
14478,3960,12010
14395,3920,11943
14323,3885,11880
14252,3853,11816
14172,3815,11746
14095,3778,11670
14024,3748,11593
13947,3717,11514
13866,3684,11434
13798,3653,11364
13742,3628,11304
13689,3604,11249
13643,3582,11199
13621,3572,11165
13621,3578,11157
13631,3595,11169
13659,3620,11204
13719,3656,11271
13807,3703,11373
13914,3760,11501
14048,3826,11654
14223,3904,11838
14432,3997,12057
14659,4102,12308
14911,4219,12586
15191,4350,12889
15489,4492,13211
15791,4638,13542
16096,4786,13876
16408,4936,14211
16713,5081,14540
17002,5219,14857
17279,5351,15161
17539,5474,15445
17760,5578,15698
17932,5661,15909
18069,5731,16081
18179,5788,16222
18255,5824,16328
18296,5837,16395
18314,5837,16431
18319,5832,16450
18305,5822,16452
18271,5807,16435
18231,5789,16404
18200,5774,16370
18174,5758,16334
18151,5741,16297
18143,5730,16268
18150,5729,16251
18160,5734,16243
18166,5739,16237
18174,5747,16232
18181,5755,16231
18173,5758,16230
18157,5755,16224
18151,5754,16216
18159,5759,16215
18166,5766,16215
18168,5769,16214
18176,5772,16213
18188,5777,16211
18193,5779,16202
18199,5776,16189
18218,5777,16181
18238,5779,16179
18241,5774,16177
18230,5763,16169
18217,5752,16157
18200,5742,16142
18178,5731,16122
18163,5724,16106
18163,5723,16099
18160,5725,16098
18144,5725,16097
18129,5722,16094
18123,5720,16093
18115,5717,16093
18108,5714,16093
18115,5715,16099
18143,5724,16122
18176,5737,16155
18200,5746,16186
18226,5755,16216
18257,5767,16247
18277,5777,16273
18279,5780,16285
18273,5776,16287
18265,5773,16288
18247,5771,16282
18216,5765,16266
18183,5755,16243
18149,5744,16220
18106,5728,16193
18057,5711,16157
18019,5696,16116
17996,5682,16080
17977,5668,16045
17965,5659,16011
17967,5655,15982
17972,5655,15953
17963,5650,15919
17938,5638,15878
17906,5620,15831
17868,5599,15776
17820,5574,15712
17771,5547,15646
17732,5525,15589
17699,5505,15537
17658,5480,15484
17616,5453,15431
17587,5431,15381
17566,5414,15334
17546,5397,15289
17534,5385,15252
17539,5380,15228
17542,5379,15212
17533,5374,15196
17525,5371,15178
17519,5368,15160
17500,5359,15137
17465,5343,15103
17430,5322,15060
17401,5302,15015
17369,5282,14967
17334,5261,14919
17311,5246,14879
17301,5240,14849
17291,5238,14821
17274,5232,14788
17262,5223,14755
17254,5216,14726
17235,5205,14696
17208,5189,14661
17183,5174,14625
17163,5161,14591
17134,5148,14557
17091,5128,14518
17042,5103,14478
16990,5081,14437
16927,5060,14389
16855,5034,14331
16788,5010,14271
16730,4990,14219
16683,4975,14177
16667,4970,14157
16702,4986,14175
16785,5026,14242
16906,5087,14358
17071,5168,14527
17281,5273,14747
17523,5398,15009
17787,5535,15299
18072,5683,15615
18382,5845,15959
18708,6012,16325
19039,6178,16704
19378,6342,17093
19720,6506,17493
20049,6670,17895
20355,6826,18279
20644,6973,18639
20920,7115,18976
21172,7246,19282
21392,7361,19548
21591,7458,19777
21777,7548,19978
21939,7626,20149
22063,7686,20279
22156,7732,20377
22222,7767,20451
22257,7787,20500
22263,7792,20520
22259,7789,20521
22250,7783,20512
22231,7770,20491
22205,7753,20461
22189,7740,20432
22178,7732,20410
22161,7723,20385
22141,7711,20361
22125,7701,20343
22111,7694,20330
22091,7682,20311
22070,7664,20283
22062,7645,20254
22059,7630,20230
22049,7615,20208
22039,7603,20186
22032,7597,20166
22015,7591,20145
21975,7574,20116
21924,7549,20076
21875,7528,20032
21827,7511,19982
21777,7490,19922
21740,7468,19857
21723,7457,19805
21715,7451,19767
21704,7446,19730
21699,7443,19694
21702,7442,19663
21701,7441,19638
21685,7437,19612
21664,7430,19592
21646,7425,19580
21621,7415,19568
21593,7401,19554
21581,7395,19548
21590,7403,19558
21607,7420,19580
21629,7438,19605
21662,7459,19637
21707,7482,19676
21748,7501,19710
21783,7513,19736
21821,7527,19759
21855,7543,19784
21869,7552,19802
21862,7550,19804
21846,7542,19792
21819,7525,19769
21773,7496,19727
21713,7456,19662
21654,7416,19583
21597,7379,19500
21531,7340,19414
21460,7303,19329
21397,7272,19255
21331,7244,19192
21252,7214,19129
21176,7183,19063
21118,7158,18999
21069,7135,18938
21018,7111,18877
20972,7088,18814
20930,7070,18754
20879,7048,18696
20812,7014,18628
20743,6975,18550
20688,6941,18476
20640,6911,18407
20594,6884,18340
20561,6862,18281
20547,6849,18237
20540,6841,18205
20523,6830,18169
20501,6820,18132
20482,6813,18097
20450,6800,18058
20403,6777,18008
20361,6749,17955
20331,6724,17909
20304,6704,17869
20273,6687,17828
20249,6675,17789
20231,6667,17755
20205,6654,17719
20167,6635,17677
20128,6616,17633
20087,6597,17591
20036,6571,17546
19979,6541,17498
19933,6517,17454
19898,6502,17414
19860,6487,17374
19818,6471,17329
19786,6456,17283
19764,6444,17241
19740,6432,17198
19721,6421,17154
19721,6418,17119
19726,6417,17089
19720,6411,17059
19708,6399,17027
19695,6382,16993
19678,6362,16957
19651,6336,16916
19632,6313,16882
19638,6305,16869
19664,6315,16884
19705,6341,16930
19777,6390,17019
19886,6463,17156
20025,6554,17337
20192,6659,17559
20399,6780,17823
20657,6924,18135
20950,7082,18489
21263,7248,18873
21602,7423,19282
21963,7609,19713
22323,7799,20150
22665,7983,20577
22996,8159,20992
23315,8329,21390
23607,8490,21761
23871,8636,22096
24115,8768,22393
24337,8889,22657
24523,8988,22883
24671,9061,23067
24790,9115,23212
24878,9158,23322
24930,9184,23394
24951,9194,23427
24961,9199,23436
24965,9203,23434
24963,9199,23427
24962,9196,23415
24978,9206,23411
25010,9227,23419
25045,9250,23434
25082,9272,23450
25125,9294,23467
25169,9316,23481
25201,9333,23488
25228,9349,23492
25261,9370,23504
25289,9389,23519
25303,9399,23530
25312,9405,23539
25323,9412,23551
25327,9414,23560
25322,9408,23562
25323,9401,23562
25337,9400,23567
25353,9401,23573
25359,9400,23572
25364,9403,23567
25370,9410,23560
25360,9408,23544
25332,9395,23516
25305,9379,23486
25296,9375,23472
25301,9383,23474
25312,9393,23482
25334,9408,23499
25365,9429,23526
25388,9448,23552
25398,9458,23571
25408,9463,23586
25413,9461,23595
25398,9446,23589
25363,9423,23563
25322,9401,23528
25280,9382,23488
25225,9362,23440
25155,9337,23384
25081,9307,23326
25002,9274,23268
24911,9229,23203
24815,9176,23128
24735,9125,23051
24664,9083,22980
24592,9043,22915
24525,9006,22854
24471,8977,22800
24422,8950,22747
24363,8918,22687
24300,8882,22620
24239,8846,22548
24173,8809,22469
24103,8767,22384
24041,8727,22297
23996,8695,22217
23956,8664,22140
23913,8636,22064
23878,8616,21997
23854,8605,21941
23829,8594,21889
23792,8578,21827
23760,8562,21762
23743,8548,21703
23730,8534,21647
23712,8520,21588
23702,8511,21530
23704,8513,21487
23703,8518,21453
23697,8520,21417
23697,8519,21380
23709,8519,21348
23721,8514,21317
23733,8507,21282
23756,8506,21249
23788,8514,21223
23821,8523,21200
23857,8535,21177
23904,8557,21163
23960,8587,21159
24014,8614,21155
24070,8636,21144
24137,8659,21124
24209,8682,21100
24273,8703,21069
24333,8723,21034
24395,8744,21001
24446,8761,20966
24474,8768,20921
24483,8764,20868
24470,8748,20809
24422,8719,20739
24335,8670,20650
24224,8604,20542
24099,8533,20427
23953,8455,20310
23776,8367,20186
23580,8272,20055
23369,8172,19921
23134,8065,19782
22877,7949,19627
22624,7831,19461
22390,7719,19298
22164,7610,19141
21948,7506,18988
21763,7417,18851
21627,7355,18744
21537,7318,18672
21485,7301,18637
21478,7303,18646
21518,7332,18700
21591,7379,18788
21699,7442,18911
21852,7525,19075
22035,7625,19279
22230,7734,19513
22435,7850,19771
22658,7978,20054
22891,8114,20360
23123,8249,20677
23361,8382,20995
23612,8519,21316
23873,8663,21637
24122,8804,21944
24355,8933,22226
24577,9052,22481
24769,9153,22703
24909,9228,22881
24996,9276,23016
25044,9302,23108
25054,9307,23158
25022,9286,23160
24962,9244,23120
24895,9194,23052
24819,9140,22969
24731,9084,22875
24639,9030,22778
24556,8984,22684
24477,8944,22598
24399,8902,22512
24329,8860,22432
24271,8826,22363
24210,8794,22298
24144,8760,22227
24089,8729,22152
24044,8701,22081
23992,8670,22011
23924,8634,21936
23854,8599,21860
23784,8566,21782
23699,8526,21696
23603,8477,21598
23512,8426,21494
23426,8375,21386
23327,8315,21270
23218,8250,21151
23118,8189,21038
23028,8135,20936
22937,8085,20843
22851,8039,20755
22781,8001,20675
22721,7971,20602
22662,7944,20533
22609,7918,20466
22569,7899,20407
22538,7891,20362
22505,7884,20324
22475,7876,20288
22460,7876,20261
22451,7879,20242
22428,7876,20219
22400,7863,20193
22374,7845,20166
22345,7823,20134
22310,7800,20096
22281,7779,20056
22270,7766,20026
22267,7755,20001
22257,7742,19975
22241,7730,19950
22220,7717,19925
22182,7697,19892
22121,7664,19841
22051,7625,19775
21978,7586,19705
21890,7543,19625
21787,7490,19529
21690,7434,19420
21602,7387,19312
21509,7343,19206
21406,7295,19092
21307,7246,18977
21214,7202,18867
21115,7157,18757
21013,7108,18645
20922,7061,18541
20847,7020,18449
20779,6982,18359
20715,6944,18268
20660,6907,18181
20606,6871,18095
20536,6829,18002
20447,6779,17900
20351,6729,17795
20249,6679,17691
20135,6623,17579
20021,6566,17460
19924,6516,17346
19846,6476,17244
19772,6440,17151
19706,6405,17061
19648,6375,16974
19583,6343,16890
19500,6304,16801
19404,6259,16706
19305,6211,16610
19194,6158,16509
19076,6099,16403
18965,6041,16294
18867,5995,16194
18767,5955,16099
18662,5912,15998
18566,5868,15895
18473,5825,15794
18365,5777,15688
18237,5718,15571
18104,5651,15448
17972,5584,15329
17828,5515,15211
17675,5441,15089
17535,5371,14971
17409,5307,14861
17283,5246,14754
17155,5188,14644
17041,5139,14536
16938,5096,14435
16829,5049,14335
16718,4999,14232
16620,4952,14133
16532,4909,14043
16445,4865,13956
16358,4819,13870
16278,4779,13796
16208,4747,13739
16143,4724,13697
16093,4709,13670
16073,4709,13669
16087,4727,13705
16132,4756,13773
16215,4798,13871
16343,4861,14006
16508,4945,14176
16693,5044,14372
16897,5152,14586
17125,5267,14816
17361,5382,15051
17585,5486,15274
17791,5578,15481
17981,5662,15671
18147,5735,15842
18284,5798,15987
18405,5852,16109
18514,5902,16217
18604,5943,16309
18670,5973,16376
18725,6002,16427
18778,6029,16470
18820,6049,16499
18843,6056,16506
18854,6056,16494
18862,6053,16477
18854,6043,16452
18827,6022,16414
18795,5997,16369
18760,5970,16318
18706,5936,16253
18634,5892,16179
18565,5848,16108
18495,5806,16040
18410,5761,15970
18318,5714,15897
18238,5671,15827
18169,5634,15760
18097,5597,15694
18033,5563,15627
17994,5537,15569
17975,5522,15521
17965,5512,15479
17964,5507,15441
17976,5512,15415
17987,5522,15396
17980,5526,15372
17958,5521,15337
17928,5508,15297
17889,5488,15256
17843,5463,15214
17809,5442,15173
17795,5432,15143
17786,5426,15118
17769,5418,15096
17758,5412,15079
17761,5409,15072
17770,5412,15072
17778,5414,15074
17795,5419,15081
17824,5432,15093
17849,5444,15103
17867,5448,15108
17889,5450,15112
17916,5457,15120
17928,5464,15125
17916,5462,15114
17890,5450,15090
17858,5435,15062
17811,5415,15030
17747,5389,14987
17681,5361,14934
17625,5334,14881
17576,5307,14829
17528,5279,14775
17487,5256,14723
17452,5239,14680
17408,5218,14638
17355,5194,14590
17303,5171,14539
17248,5146,14486
17180,5112,14425
17104,5073,14353
17030,5034,14279
16955,4996,14207
16868,4956,14135
16770,4913,14059
16668,4870,13980
16555,4823,13899
16426,4770,13809
16297,4714,13712
16183,4661,13615
16080,4609,13518
15982,4557,13419
15895,4509,13321
15822,4468,13234
15749,4431,13158
15673,4393,13082
15604,4357,13006
15545,4326,12935
15483,4300,12867
15419,4274,12799
15366,4247,12736
15331,4226,12685
15300,4213,12643
15265,4201,12602
15243,4191,12562
15237,4188,12529
15231,4184,12499
15212,4172,12465
15192,4155,12427
15180,4140,12391
15165,4124,12356
15147,4109,12319
15143,4104,12285
15150,4107,12260
15149,4110,12235
15144,4109,12209
15142,4108,12186
15137,4103,12165
15115,4090,12138
15082,4069,12102
15055,4049,12064
15032,4031,12031
15008,4014,12002
14995,4003,11980
15011,4004,11979
15055,4020,12003
15120,4047,12052
15210,4088,12127
15335,4147,12233
15491,4224,12369
15671,4312,12526
15878,4411,12700
16118,4528,12899
16376,4656,13121
16637,4785,13353
16901,4912,13586
17164,5037,13820
17402,5153,14047
17603,5252,14253
17774,5336,14433
17925,5409,14592
18044,5466,14727
18125,5503,14831
18185,5529,14909
18234,5547,14967
18266,5556,15008
18286,5556,15034
18316,5556,15054
18353,5558,15065
18372,5555,15059
18366,5541,15036
18350,5521,15002
18339,5503,14965
18323,5486,14922
18302,5468,14873
18290,5455,14827
18287,5450,14789
18284,5448,14757
18285,5445,14728
18298,5449,14709
18318,5458,14699
18334,5465,14693
18349,5472,14691
18374,5481,14694
18393,5490,14699
18390,5491,14695
18373,5482,14677
18360,5471,14653
18350,5462,14628
18339,5454,14603
18325,5448,14578
18315,5446,14556
18300,5443,14535
18273,5433,14506
18238,5414,14469
18201,5393,14426
18164,5372,14381
18126,5348,14335
18099,5326,14290
18095,5314,14258
18103,5306,14235
18106,5299,14218
18115,5297,14210
18131,5303,14213
18139,5311,14221
18132,5314,14222
18123,5311,14217
18121,5308,14211
18114,5302,14201
18099,5294,14188
18093,5288,14176
18094,5284,14169
18086,5277,14161
18064,5267,14148
18045,5260,14132
18032,5257,14118
18010,5248,14099
17984,5231,14072
17970,5214,14041
17965,5200,14010
17952,5190,13979
17932,5180,13944
17913,5171,13909
17888,5157,13877
17845,5133,13837
17786,5097,13782
17721,5056,13717
17649,5015,13647
17563,4970,13570
17474,4921,13486
17401,4879,13407
17336,4844,13335
17269,4811,13270
17203,4781,13213
17146,4757,13166
17092,4736,13125
17038,4711,13083
16998,4687,13040
16977,4669,13002
16959,4652,12965
16935,4633,12924
16915,4620,12883
16903,4612,12845
16888,4604,12807
16855,4590,12764
16817,4574,12719
16779,4557,12672
16729,4535,12623
16669,4510,12569
16616,4485,12517
16577,4469,12475
16541,4460,12440
16504,4454,12406
16479,4454,12375
16462,4455,12348
16438,4451,12321
16410,4441,12288
16390,4430,12250
16377,4421,12214
16359,4410,12180
16337,4392,12142
16319,4375,12102
16305,4361,12067
16283,4344,12034
16257,4325,11998
16238,4311,11968
16218,4299,11941
16184,4279,11908
16141,4252,11866
16101,4223,11821
16065,4195,11778
16030,4167,11736
16007,4146,11701
16005,4137,11687
16020,4142,11690
16043,4160,11707
16084,4192,11740
16150,4235,11795
16233,4284,11874
16332,4335,11968
16454,4390,12079
16605,4456,12211
16773,4533,12357
16946,4617,12511
17132,4709,12674
17327,4808,12849
17513,4907,13028
17676,4995,13197
17824,5072,13353
17963,5139,13499
18078,5191,13628
18168,5224,13734
18247,5248,13822
18316,5271,13895
18367,5290,13953
18399,5302,13995
18426,5312,14023
18448,5322,14042
18457,5326,14055
18457,5325,14056
18460,5322,14048
18462,5316,14039
18451,5304,14022
18430,5287,13993
18416,5273,13959
18409,5268,13932
18401,5266,13910
18397,5264,13891
18413,5268,13884
18440,5278,13886
18457,5285,13885
18465,5289,13879
18476,5294,13875
18487,5297,13873
18489,5292,13870
18485,5283,13862
18487,5273,13857
18487,5262,13854
18477,5247,13844
18467,5235,13832
18458,5225,13821
18443,5212,13808
18422,5197,13783
18413,5184,13753
18422,5178,13729
18432,5175,13709
18439,5173,13692
18458,5178,13686
18486,5189,13688
18499,5197,13687
18489,5197,13676
18470,5190,13659
18451,5183,13644
18425,5174,13627
18391,5158,13605
18359,5142,13582
18332,5126,13559
18296,5105,13534
18254,5082,13506
18223,5063,13482
18207,5053,13464
18193,5047,13447
18180,5042,13428
18179,5040,13413
18187,5044,13406
18192,5050,13398
18191,5055,13384
18190,5060,13370
18179,5063,13360
18145,5058,13343
18092,5041,13311
18034,5014,13268
17978,4983,13223
17919,4949,13177
17865,4917,13131
17825,4894,13090
17788,4874,13054
17741,4854,13017
17692,4833,12976
17651,4813,12933
17604,4789,12889
17547,4759,12838
17492,4728,12783
17448,4706,12734
17404,4684,12689
17358,4659,12644
17321,4635,12602
17294,4616,12567
17263,4600,12533
17221,4581,12493
17177,4564,12446
17141,4547,12402
17103,4527,12364
17060,4507,12324
17027,4489,12283
17006,4476,12246
16984,4465,12210
16958,4455,12174
16934,4450,12143
16913,4446,12118
16885,4435,12089
16851,4418,12055
16826,4405,12022
16811,4396,11994
16795,4382,11965
16774,4362,11930
16760,4345,11896
16747,4333,11866
16719,4320,11832
16674,4302,11792
16623,4284,11750
16565,4264,11706
16495,4235,11656
16424,4199,11601
16369,4169,11553
16323,4148,11512
16277,4128,11473
16237,4113,11438
16211,4107,11411
16188,4104,11389
16159,4095,11365
16132,4083,11339
16118,4071,11314
16109,4061,11287
16095,4049,11255
16082,4038,11222
16074,4032,11194
16062,4029,11173
16042,4022,11154
16029,4015,11145
16035,4017,11153
16055,4030,11177
16085,4052,11215
16137,4084,11273
16224,4130,11355
16338,4183,11457
16470,4244,11577
16629,4320,11719
16807,4407,11880
16986,4494,12049
17158,4578,12217
17329,4660,12383
17494,4742,12544
17638,4815,12690
17761,4876,12818
17875,4927,12930
17973,4970,13027
18046,5002,13102
18101,5026,13155
18151,5047,13197
18187,5063,13232
18195,5064,13248
18180,5050,13247
18158,5030,13239
18136,5009,13226
18109,4984,13207
18087,4960,13181
18076,4942,13158
18068,4929,13140
18052,4913,13122
18038,4898,13104
18030,4886,13085
18014,4873,13062
17988,4855,13031
17963,4835,12993
17948,4822,12961
17928,4814,12936
17895,4802,12911
17860,4787,12888
17832,4777,12870
17802,4770,12854
17767,4759,12835
17740,4746,12815
17727,4733,12797
17717,4721,12776
17706,4711,12753
17705,4712,12733
17713,4718,12721
17713,4723,12710
17699,4722,12691
17681,4719,12666
17660,4715,12640
17623,4705,12613
17576,4685,12582
17538,4662,12553
17508,4640,12533
17476,4620,12517
17446,4603,12499
17428,4593,12482
17416,4588,12470
17397,4582,12455
17375,4574,12439
17361,4566,12425
17352,4562,12416
17340,4556,12406
17325,4548,12395
17315,4541,12389
17302,4536,12386
17279,4526,12378
17253,4516,12365
17230,4508,12346
17203,4496,12323
17166,4478,12292
17124,4457,12257
17090,4440,12228
17058,4423,12200
17019,4404,12167
16981,4387,12133
16948,4374,12101
16908,4359,12069
16854,4336,12032
16798,4310,11993
16750,4288,11951
16692,4265,11901
16622,4237,11840
16557,4206,11778
16504,4178,11725
16445,4150,11674
16374,4117,11616
16304,4085,11555
16238,4058,11500
16166,4032,11449
16089,4004,11398
16023,3975,11346
15971,3948,11300
15925,3921,11258
15885,3896,11220
15859,3877,11185
15837,3862,11153
15809,3848,11121
15780,3836,11086
15759,3829,11056
15737,3825,11030
15698,3816,10999
15646,3802,10959
15593,3788,10920
15533,3774,10883
15463,3752,10837
15396,3724,10781
15343,3695,10726
15300,3669,10679
15256,3642,10638
15217,3619,10599
15192,3605,10567
15168,3596,10539
15134,3582,10508
15096,3568,10476
15064,3555,10444
15027,3537,10409
14980,3513,10367
14936,3488,10321
14905,3469,10279
14876,3453,10237
14839,3434,10197
14802,3418,10163
14772,3407,10133
14736,3399,10107
14693,3387,10075
14653,3371,10037
14618,3351,9997
14572,3327,9951
14515,3302,9899
14462,3282,9846
14413,3264,9800
14361,3244,9758
14301,3220,9715
14242,3193,9677
14190,3167,9653
14142,3146,9639
14105,3132,9634
14092,3128,9646
14108,3138,9680
14142,3158,9732
14199,3188,9801
14291,3233,9891
14410,3294,10006
14538,3362,10140
14674,3435,10285
14821,3519,10435
14969,3605,10583
15104,3680,10722
15224,3744,10847
15330,3798,10964
15419,3842,11069
15487,3871,11152
15545,3892,11215
15605,3910,11267
15659,3925,11308
15694,3930,11336
15721,3928,11352
15743,3924,11362
15746,3916,11364
15722,3901,11352
15685,3883,11328
15644,3865,11300
15584,3839,11261
15507,3805,11211
15437,3774,11155
15388,3749,11103
15355,3728,11056
15330,3710,11014
15322,3699,10981
15327,3695,10960
15328,3695,10945
15320,3693,10929
15317,3693,10913
15322,3698,10901
15320,3702,10891
15312,3699,10879
15307,3693,10867
15301,3685,10855
15285,3672,10837
15258,3656,10810
15230,3642,10780
15196,3627,10753
15148,3607,10725
15093,3583,10693
15041,3562,10664
14987,3546,10635
14925,3528,10604
14867,3508,10571
14828,3487,10538
14801,3469,10511
14779,3454,10487
14774,3447,10467
14788,3450,10461
14806,3459,10468
14813,3466,10476
14821,3470,10482
14833,3473,10490
14837,3474,10498
14833,3474,10500
14831,3475,10498
14841,3482,10501
14853,3488,10507
14858,3487,10510
14869,3485,10510
14881,3488,10513
14878,3493,10515
14858,3492,10510
14841,3486,10500
14837,3481,10493
14831,3475,10484
14812,3463,10466
14793,3449,10440
14782,3439,10415
14769,3431,10388
14746,3419,10356
14724,3407,10325
14704,3397,10302
14675,3384,10281
14641,3369,10259
14614,3358,10242
14590,3352,10228
14557,3344,10209
14522,3332,10181
14500,3318,10150
14484,3306,10124
14459,3293,10098
14428,3279,10071
14403,3267,10046
14378,3257,10021
14346,3243,9991
14309,3226,9956
14274,3209,9919
14233,3190,9878
14181,3167,9833
14129,3144,9788
14092,3126,9751
14061,3114,9722
14031,3103,9695
14008,3093,9669
13996,3085,9647
13982,3077,9626
13954,3066,9600
13919,3055,9575
13882,3044,9552
13830,3029,9522
13766,3006,9485
13710,2983,9444
13666,2963,9403
13624,2943,9359
13582,2921,9315
13550,2901,9277
13531,2887,9249
13513,2877,9229
13489,2872,9209
13467,2870,9188
13455,2871,9173
13442,2871,9158
13429,2867,9138
13422,2861,9118
13418,2859,9104
13408,2856,9089
13390,2850,9067
13375,2845,9045
13361,2843,9025
13337,2837,9002
13308,2826,8976
13287,2818,8952
13279,2813,8935
13281,2809,8928
13301,2812,8939
13346,2829,8971
13412,2859,9024
13489,2897,9093
13585,2945,9179
13705,3003,9286
13833,3068,9411
13958,3131,9541
14095,3193,9675
14254,3263,9821
14421,3338,9974
14585,3412,10124
14753,3486,10277
14921,3561,10435
15077,3629,10588
15216,3686,10723
15348,3733,10839
15474,3778,10940
15577,3815,11025
15653,3844,11092
15720,3872,11148
15777,3898,11194
15809,3915,11224
15815,3920,11237
15808,3917,11239
15796,3907,11230
15766,3890,11209
15727,3867,11177
15692,3844,11144
15661,3825,11112
15622,3807,11080
15577,3786,11049
15535,3767,11020
15501,3751,10995
15465,3733,10970
15432,3717,10944
15421,3710,10923
15427,3714,10914
15440,3719,10913
15456,3723,10915
15474,3727,10920
15485,3729,10925
15476,3726,10922
15455,3719,10910
15437,3711,10895
15416,3699,10875
15386,3682,10848
15359,3667,10819
15347,3662,10798
15339,3665,10782
15327,3663,10766
15320,3660,10753
15325,3663,10753
15331,3669,10760
15331,3670,10765
15333,3670,10769
15351,3675,10779
15373,3682,10790
15389,3688,10800
15409,3692,10810
15433,3699,10823
15451,3705,10836
15460,3709,10848
15472,3716,10863
15488,3727,10882
15497,3737,10899
15501,3742,10911
15507,3746,10920
15513,3752,10931
15511,3753,10938
15506,3748,10937
15510,3744,10933
15521,3744,10931
15524,3743,10926
15518,3735,10918
15510,3726,10913
15499,3716,10914
15476,3701,10908
15440,3679,10890
15401,3657,10863
15354,3637,10829
15287,3610,10781
15212,3580,10722
15147,3552,10662
15086,3527,10607
15024,3502,10557
14972,3479,10514
14939,3465,10482
14913,3460,10458
14886,3455,10435
14867,3451,10415
14859,3451,10400
14850,3449,10384
14831,3438,10359
14811,3422,10326
14796,3408,10293
14774,3397,10254
14737,3380,10208
14695,3359,10161
14655,3339,10120
14608,3319,10082
14552,3294,10041
14498,3267,10000
14457,3244,9966
14419,3222,9939
14385,3200,9909
14368,3184,9876
14367,3173,9848
14366,3164,9820
14361,3158,9790
14361,3160,9764
14362,3169,9744
14351,3177,9724
14328,3179,9703
14302,3173,9683
14269,3163,9665
14223,3147,9641
14171,3124,9604
14127,3102,9562
14090,3085,9527
14055,3070,9495
14027,3056,9461
14015,3051,9434
14010,3050,9415
13998,3043,9397
13979,3030,9375
13965,3015,9353
13955,3001,9332
13946,2987,9310
13948,2978,9295
13970,2981,9296
14000,2995,9312
14029,3016,9343
14075,3049,9398
14144,3092,9477
14229,3140,9574
14324,3189,9679
14442,3246,9799
14591,3317,9942
14760,3397,10100
14938,3476,10266
15128,3558,10439
15324,3644,10622
15508,3731,10810
15670,3812,10992
15824,3887,11166
15977,3959,11334
16113,4022,11490
16226,4072,11625
16328,4115,11739
16423,4155,11835
16503,4188,11912
16567,4210,11973
16627,4229,12021
16682,4247,12064
16716,4260,12097
16730,4269,12117
16739,4276,12128
16745,4277,12134
16739,4272,12133
16732,4265,12128
16743,4260,12127
16766,4261,12129
16782,4265,12130
16797,4272,12134
16822,4286,12146
16846,4299,12161
16857,4303,12170
16862,4301,12174
16871,4301,12175
16876,4303,12172
16874,4303,12168
16877,4301,12164
16891,4303,12167
16903,4308,12173
16903,4311,12178
16902,4313,12182
16906,4315,12187
16903,4312,12188
16890,4304,12178
16883,4297,12162
16888,4296,12151
16891,4297,12140
16883,4293,12125
16874,4288,12113
16871,4287,12107
16864,4283,12103
16849,4274,12096
16842,4265,12091
16846,4260,12092
16845,4255,12093
16838,4251,12095
16837,4253,12106
16842,4259,12124
16839,4261,12137
16830,4262,12142
16830,4267,12146
16834,4274,12152
16828,4275,12156
16820,4274,12154
16827,4278,12154
16843,4288,12162
16852,4297,12175
16859,4303,12188
16872,4308,12197
16879,4308,12202
16863,4297,12195
16833,4280,12174
16807,4262,12147
16779,4243,12114
16743,4223,12078
16703,4203,12041
16664,4186,12007
16619,4170,11974
16562,4150,11934
16500,4129,11888
16443,4108,11844
16381,4084,11798
16314,4058,11745
16256,4034,11688
16219,4019,11643
16191,4010,11609
16161,3999,11579
16137,3987,11551
16121,3976,11524
16094,3964,11494
16054,3948,11460
16017,3931,11427
15989,3915,11394
15959,3892,11356
15924,3866,11311
15893,3844,11270
15863,3827,11237
15820,3808,11204
15766,3784,11165
15714,3760,11124
15658,3737,11082
15587,3710,11033
15516,3683,10980
15466,3661,10930
15432,3645,10885
15393,3626,10841
15354,3609,10799
15325,3598,10764
15298,3593,10733
15260,3583,10700
15223,3568,10670
15205,3555,10647
15195,3545,10625
15182,3536,10601
15168,3526,10575
15158,3515,10555
15137,3504,10535
15100,3490,10505
15061,3476,10471
15028,3464,10438
14993,3452,10403
14954,3436,10364
14924,3424,10324
14908,3418,10287
14889,3414,10251
14857,3404,10217
14828,3393,10189
14809,3383,10169
14787,3370,10152
14762,3352,10131
14750,3338,10114
14758,3333,10113
14779,3337,10132
14815,3350,10169
14882,3382,10232
14979,3429,10326
15094,3486,10445
15224,3554,10585
15379,3633,10744
15556,3721,10924
15743,3810,11116
15942,3900,11315
16165,3999,11525
16399,4102,11746
16616,4204,11969
16817,4302,12186
17014,4398,12399
17192,4487,12601
17335,4563,12780
17451,4624,12933
17555,4675,13064
17648,4720,13178
17724,4754,13270
17787,4776,13337
17845,4795,13390
17895,4812,13433
17925,4819,13461
17941,4819,13472
17950,4812,13471
17944,4799,13464
17920,4782,13449
17897,4767,13429
17885,4758,13413
17871,4752,13401
17849,4744,13390
17829,4737,13385
17821,4737,13387
17816,4739,13390
17806,4742,13388
17803,4744,13387
17815,4750,13391
17829,4755,13398
17838,4757,13403
17854,4763,13407
17873,4771,13409
17881,4772,13401
17872,4764,13382
17856,4750,13358
17839,4735,13337
17810,4717,13311
17776,4696,13279
17751,4679,13246
17733,4666,13221
17707,4656,13202
17677,4646,13181
17656,4637,13164
17637,4630,13155
17612,4622,13145
17586,4610,13129
17568,4600,13111
17557,4597,13099
17545,4597,13091
17538,4600,13088
17548,4610,13100
17570,4626,13125
17588,4639,13153
17602,4651,13178
17620,4666,13205
17633,4678,13229
17632,4682,13244
17628,4683,13253
17636,4687,13265
17646,4691,13274
17645,4690,13272
17640,4687,13263
17634,4685,13254
17613,4679,13238
17573,4662,13208
17528,4641,13170
17484,4619,13131
17425,4596,13085
17350,4568,13031
17282,4538,12976
17231,4513,12929
17183,4490,12890
17131,4465,12849
17083,4440,12810
17040,4419,12776
16986,4398,12741
16924,4372,12702
16867,4346,12659
16816,4322,12617
16761,4296,12571
16705,4265,12517
16661,4235,12456
16624,4212,12393
16579,4190,12328
16530,4167,12265
16489,4150,12214
16445,4135,12177
16384,4116,12139
16313,4091,12091
16249,4064,12039
16190,4039,11988
16128,4012,11938
16073,3987,11890
16034,3967,11851
16000,3953,11821
15964,3942,11792
15929,3930,11760
15895,3919,11726
15854,3905,11688
15804,3885,11644
15756,3863,11598
15720,3846,11559
15686,3835,11522
15648,3820,11480
15616,3804,11438
15590,3791,11403
15558,3778,11372
15514,3757,11336
15471,3731,11295
15433,3705,11254
15387,3678,11211
15332,3649,11163
15283,3624,11119
15245,3607,11081
15206,3588,11045
15161,3567,11006
15122,3548,10969
15087,3531,10935
15044,3512,10896
14995,3493,10850
14953,3476,10806
14921,3464,10770
14890,3454,10740
14868,3448,10716
14874,3453,10710
14909,3472,10728
14966,3503,10772
15046,3547,10842
15157,3607,10945
15289,3677,11078
15427,3750,11229
15576,3826,11394
15750,3912,11577
15939,4005,11778
16127,4098,11986
16318,4190,12197
16509,4282,12412
16686,4366,12624
16837,4434,12817
16972,4490,12989
17098,4543,13145
17203,4589,13280
17279,4625,13389
17335,4653,13475
17382,4675,13546
17412,4687,13602
17418,4686,13635
17409,4678,13648
17393,4666,13648
17359,4648,13633
17308,4623,13599
17259,4597,13553
17217,4574,13504
17166,4547,13449
17099,4515,13386
17034,4484,13327
16976,4457,13277
16909,4428,13231
16840,4396,13186
16785,4368,13144
16741,4345,13106
16696,4324,13068
16654,4305,13030
16629,4294,13000
16615,4293,12981
16601,4296,12966
16587,4298,12948
16575,4303,12931
16556,4307,12917
16516,4300,12895
16461,4280,12859
16408,4252,12815
16357,4220,12768
16301,4187,12717
16248,4157,12662
16205,4136,12616
16167,4120,12579
16124,4102,12542
16080,4084,12503
16038,4069,12468
15995,4055,12433
15953,4038,12398
15921,4022,12368
15907,4017,12353
15897,4022,12348
15880,4025,12342
15869,4028,12336
15867,4031,12333
15857,4028,12329
15835,4015,12319
15816,4000,12305
15806,3987,12295
15792,3974,12287
15769,3958,12274
15750,3945,12262
15736,3937,12255
15713,3929,12253
15677,3917,12245
15637,3905,12231
15598,3894,12213
15557,3882,12188
15515,3862,12150
15477,3841,12104
15443,3825,12062
15401,3812,12022
15351,3798,11978
15300,3785,11934
15249,3772,11896
15187,3753,11855
15116,3727,11801
15052,3700,11744
15001,3675,11690
14948,3648,11633
14892,3620,11575
14842,3597,11524
14789,3577,11477
14723,3555,11427
14654,3529,11371
14588,3500,11313
14518,3468,11255
14441,3434,11191
14371,3401,11126
14318,3375,11068
14270,3353,11016
14215,3330,10964
14164,3310,10917
14120,3294,10877
14067,3277,10833
14001,3253,10780
13937,3226,10725
13881,3203,10674
13819,3183,10622
13746,3161,10568
13679,3141,10517
13622,3124,10472
13562,3105,10430
13501,3085,10385
13454,3065,10336
13420,3049,10293
13387,3035,10255
13351,3020,10219
13327,3006,10185
13307,2995,10158
13275,2981,10129
13233,2961,10095
13195,2941,10062
13158,2924,10029
13112,2904,9989
13061,2883,9940
13017,2869,9892
12982,2862,9850
12940,2851,9812
12888,2831,9770
12839,2809,9726
12794,2788,9688
12747,2766,9653
12710,2744,9619
12703,2734,9598
12727,2743,9598
12769,2763,9623
12833,2794,9679
12926,2838,9764
13039,2893,9875
13163,2952,10006
13309,3023,10159
13486,3108,10337
13678,3200,10533
13878,3294,10738
14092,3395,10955
14319,3502,11181
14544,3606,11408
14755,3701,11628
14959,3791,11839
15162,3879,12042
15350,3958,12230
15512,4025,12393
15656,4085,12535
15785,4140,12663
15887,4185,12774
15962,4219,12864
16020,4242,12933
16065,4256,12983
16086,4260,13011
16087,4255,13017
16085,4245,13013
16078,4234,13003
16056,4220,12987
16024,4206,12962
15998,4195,12936
15970,4183,12906
15934,4165,12868
15899,4145,12827
15875,4130,12791
15856,4123,12764
15828,4120,12743
15800,4118,12723
15784,4121,12709
15773,4127,12699
15752,4126,12685
15730,4120,12664
15718,4110,12639
15706,4098,12617
15688,4085,12598
15674,4074,12581
15666,4067,12569
15651,4062,12561
15621,4051,12547
15587,4036,12531
15561,4022,12517
15536,4009,12505
15511,3994,12487
15499,3985,12465
15506,3986,12451
15520,3992,12445
15527,3997,12440
15534,4004,12440
15546,4014,12448
15546,4019,12457
15533,4018,12463
15522,4016,12469
15517,4013,12477
15509,4008,12481
15503,4003,12481
15515,4003,12484
15539,4011,12492
15558,4020,12502
15573,4027,12515
15591,4035,12531
15610,4044,12551
15619,4049,12569
15618,4048,12580
15616,4045,12587
15612,4042,12590
15593,4035,12580
15564,4021,12558
15540,4007,12532
15517,3996,12506
15489,3986,12479
15458,3978,12448
15428,3970,12417
15389,3958,12384
15335,3940,12340
15279,3920,12287
15228,3897,12233
15169,3869,12180
15106,3837,12125
15052,3807,12069
15013,3785,12016
14978,3769,11962
14936,3753,11906
14899,3735,11852
14866,3720,11810
14828,3705,11777
14776,3683,11744
14721,3657,11709
14666,3633,11671
14599,3607,11629
14520,3576,11576
14441,3544,11515
14374,3515,11455
14310,3487,11397
14255,3458,11340
14221,3435,11289
14200,3421,11247
14180,3410,11211
14158,3398,11173
14139,3384,11137
14117,3368,11102
14078,3345,11061
14026,3318,11012
13975,3293,10962
13924,3271,10914
13864,3248,10860
13798,3223,10802
13745,3202,10749
13703,3188,10706
13660,3176,10667
13615,3167,10629
13576,3160,10596
13536,3152,10566
13483,3137,10530
13428,3117,10486
13384,3097,10443
13344,3079,10403
13302,3060,10366
13271,3044,10335
13266,3037,10323
13277,3040,10329
13302,3052,10352
13357,3077,10402
13454,3120,10488
13579,3175,10608
13724,3241,10757
13899,3319,10938
14120,3410,11158
14375,3511,11402
14642,3624,11657
14919,3751,11922
15207,3887,12205
15485,4021,12495
15738,4146,12772
15968,4256,13034
16179,4354,13281
16363,4439,13506
16525,4512,13705
16680,4580,13885
16824,4646,14048
16943,4702,14192
17039,4747,14313
17128,4785,14415
17208,4821,14502
17265,4850,14575
17305,4871,14633
17347,4890,14677
17393,4905,14709
17429,4913,14725
17461,4919,14731
17505,4932,14741
17554,4954,14756
17591,4974,14769
17621,4991,14780
17644,5004,14789
17652,5012,14793
17643,5010,14785
17635,5004,14771
17637,5003,14764
17642,5003,14766
17645,5003,14768
17653,5004,14768
17671,5009,14772
17687,5014,14777
17693,5016,14774
17696,5016,14767
17696,5015,14760
17678,5008,14750
17641,4987,14725
17598,4958,14686
17559,4928,14642
17518,4899,14598
17471,4870,14552
17429,4848,14508
17394,4835,14475
17354,4825,14450
17311,4812,14426
17277,4798,14406
17254,4788,14391
17228,4781,14378
17196,4772,14360
17175,4763,14342
17166,4759,14330
17159,4758,14322
17150,4761,14318
17149,4769,14321
17149,4774,14329
17135,4773,14335
17114,4768,14333
17099,4765,14331
17086,4763,14328
17064,4752,14320
17041,4737,14306
17023,4723,14288
17007,4712,14269
16989,4698,14246
16971,4680,14221
16956,4668,14199
16936,4659,14181
16904,4652,14157
16870,4647,14128
16837,4644,14097
16794,4637,14065
16737,4621,14025
16678,4601,13980
16626,4580,13936
16567,4554,13885
16500,4518,13824
16439,4481,13765
16394,4452,13712
16352,4427,13661
16307,4403,13607
16274,4380,13553
16252,4361,13504
16224,4345,13457
16182,4324,13406
16134,4300,13348
16088,4278,13289
16039,4256,13225
15986,4229,13155
15935,4203,13087
15885,4180,13025
15826,4156,12965
15761,4131,12903
15697,4110,12847
15629,4091,12798
15547,4067,12747
15463,4033,12691
15390,3997,12635
15326,3964,12581
15263,3932,12528
15203,3903,12472
15154,3879,12421
15105,3859,12375
15044,3836,12327
14974,3808,12275
14905,3781,12219
14835,3754,12156
14759,3722,12085
14684,3686,12009
14617,3651,11936
14552,3619,11866
14486,3590,11795
14429,3565,11728
14384,3546,11670
14341,3530,11622
14294,3512,11577
14252,3494,11535
14215,3477,11496
14168,3456,11452
14108,3429,11404
14054,3403,11362
14019,3385,11337
14002,3374,11330
14007,3374,11344
14054,3396,11391
14147,3445,11478
14274,3512,11605
14433,3593,11767
14638,3690,11964
14891,3806,12200
15183,3938,12474
15509,4085,12782
15869,4246,13119
16252,4421,13486
16640,4602,13869
17027,4784,14257
17413,4968,14647
17784,5150,15033
18121,5316,15397
18420,5460,15725
18685,5585,16019
18917,5692,16277
19108,5779,16492
19268,5847,16666
19408,5905,16811
19526,5956,16933
19616,5997,17034
19687,6032,17120
19751,6067,17197
19805,6097,17258
19838,6113,17298
19857,6119,17324
19872,6125,17343
19881,6129,17355
19881,6130,17357
19881,6130,17351
19891,6135,17349
19899,6143,17350
19898,6146,17350
19897,6148,17355
19899,6151,17367
19894,6151,17380
19880,6148,17385
19869,6145,17385
19869,6146,17385
19868,6148,17383
19868,6149,17378
19884,6154,17374
19915,6164,17378
19947,6177,17385
19974,6189,17388
20002,6203,17390
20020,6214,17395
20009,6216,17393
19974,6206,17378
19931,6193,17355
19887,6178,17332
19838,6160,17305
19790,6137,17272
19760,6122,17246
19750,6119,17232
19756,6125,17233
19780,6141,17250
19832,6172,17288
19908,6212,17345
19993,6252,17415
20085,6291,17492
20186,6332,17577
20277,6372,17662
20341,6401,17735
20387,6420,17791
20424,6433,17834
20441,6439,17863
20433,6437,17872
20410,6430,17864
20384,6423,17848
20344,6410,17825
20284,6387,17792
20222,6358,17755
20167,6333,17718
20111,6309,17681
20050,6284,17639
19995,6262,17597
19959,6248,17559
19931,6238,17521
19902,6223,17477
19879,6207,17430
19860,6192,17389
19835,6176,17346
19805,6160,17296
19777,6147,17244
19745,6136,17195
19695,6122,17147
19629,6102,17096
19561,6077,17043
19492,6047,16993
19417,6010,16940
19342,5969,16882
19282,5935,16824
19229,5906,16769
19172,5875,16709
19118,5843,16643
19070,5815,16581
19018,5790,16523
18950,5764,16462
18867,5732,16391
18778,5697,16308
18681,5656,16215
18570,5609,16114
18454,5558,16010
18344,5507,15910
18240,5457,15819
18144,5410,15735
18067,5370,15660
18014,5345,15600
17973,5328,15553
17930,5314,15510
17893,5303,15468
17862,5292,15431
17822,5276,15394
17770,5255,15350
17720,5235,15303
17676,5217,15261
17618,5192,15214
17543,5155,15152
17471,5113,15078
17413,5072,15006
17358,5033,14934
17302,4995,14863
17257,4967,14801
17225,4950,14755
17197,4939,14717
17167,4932,14679
17145,4931,14642
17131,4933,14609
17110,4931,14578
17081,4922,14546
17054,4909,14519
17029,4892,14498
17004,4874,14477
16988,4860,14463
16993,4859,14466
17018,4876,14498
17070,4906,14563
17159,4951,14666
17294,5021,14813
17470,5118,15009
17675,5234,15249
17915,5365,15529
18192,5513,15848
18493,5670,16199
18801,5830,16560
19106,5988,16923
19405,6141,17281
19685,6283,17625
19933,6408,17939
20159,6515,18217
20369,6609,18465
20551,6689,18681
20700,6754,18864
20836,6811,19021
20963,6870,19162
21068,6928,19285
21144,6975,19383
21210,7012,19463
21272,7046,19532
21319,7072,19584
21344,7087,19611
21355,7091,19620
21358,7089,19616
21341,7077,19593
21305,7056,19551
21270,7035,19504
21242,7020,19462
21214,7008,19422
21191,6999,19381
21190,6997,19352
21210,7007,19344
21235,7023,19351
21268,7042,19368
21314,7068,19395
21367,7102,19436
21412,7133,19480
21440,7154,19511
21463,7170,19534
21478,7178,19544
21470,7168,19532
21441,7143,19497
21405,7114,19453
21359,7082,19402
21300,7049,19344
21239,7019,19287
21188,6999,19243
21146,6984,19209
21108,6970,19178
21087,6963,19156
21089,6967,19150
21104,6975,19156
21127,6982,19166
21168,6994,19180
21223,7014,19206
21275,7035,19240
21316,7056,19275
21361,7081,19318
21414,7109,19369
21453,7132,19415
21470,7141,19442
21478,7140,19453
21482,7136,19457
21472,7127,19453
21443,7108,19438
21410,7086,19419
21377,7069,19401
21333,7051,19377
21277,7028,19341
21220,7004,19301
21162,6980,19260
21088,6947,19207
21004,6906,19142
20928,6867,19071
20861,6833,18999
20782,6797,18918
20686,6754,18830
20585,6709,18742
20481,6662,18657
20370,6613,18569
20258,6560,18470
20153,6508,18366
20051,6458,18269
19949,6410,18173
19857,6363,18078
19786,6327,17992
19725,6299,17916
19660,6269,17844
19594,6239,17776
19529,6210,17712
19458,6178,17646
19375,6139,17569
19295,6096,17483
19231,6060,17401
19173,6031,17323
19112,6004,17246
19062,5983,17176
19031,5974,17123
19010,5972,17087
18992,5971,17056
18990,5974,17033
19007,5983,17023
19027,5996,17020
19040,6006,17012
19053,6014,17002
19069,6023,16992
19074,6027,16976
19064,6020,16950
19050,6006,16917
19030,5989,16879
18989,5967,16835
18932,5942,16786
18878,5919,16740
18834,5897,16700
18790,5873,16660
18750,5849,16615
18727,5834,16573
18716,5829,16537
18706,5826,16503
18696,5819,16470
18687,5813,16447
18667,5810,16428
18623,5802,16398
18565,5782,16348
18511,5753,16289
18458,5720,16224
18399,5682,16154
18339,5643,16083
18285,5609,16020
18222,5578,15962
18144,5546,15902
18069,5517,15845
18013,5495,15801
17973,5479,15773
17951,5471,15764
17965,5481,15786
18033,5515,15855
18145,5571,15972
18295,5647,16131
18492,5748,16336
18736,5875,16591
19007,6018,16887
19288,6164,17206
19585,6313,17541
19902,6470,17897
20223,6628,18265
20537,6785,18637
20851,6941,19010
21160,7097,19376
21442,7247,19720
21693,7384,20035
21922,7513,20326
22125,7630,20591
22283,7724,20813
22404,7794,20989
22504,7850,21126
22576,7890,21226
22605,7903,21279
22597,7893,21288
22572,7874,21269
22528,7849,21233
22463,7818,21178
22388,7781,21111
22318,7744,21039
22244,7709,20964
22156,7668,20880
22063,7621,20788
21980,7573,20698
21906,7531,20615
21836,7491,20533
21777,7455,20456
21736,7432,20395
21704,7414,20345
21663,7393,20298
21620,7374,20258
21581,7360,20225
21540,7346,20194
21489,7327,20155
21441,7307,20113
21401,7288,20068
21350,7260,20010
21283,7222,19936
21216,7182,19858
21160,7149,19789
21108,7120,19732
21058,7091,19679
21021,7069,19636
20995,7056,19604
20967,7049,19574
20935,7041,19544
20909,7035,19521
20893,7032,19507
20881,7028,19496
20874,7023,19487
20883,7024,19485
20901,7027,19493
20911,7028,19502
20914,7028,19509
20918,7030,19522
20917,7031,19537
20898,7028,19544
20873,7022,19543
20859,7019,19544
20850,7020,19548
20829,7016,19544
20802,7007,19533
20790,7000,19522
20786,6996,19509
20781,6991,19491
20782,6988,19471
20788,6991,19459
20784,6998,19453
20762,7000,19439
20731,6998,19414
20698,6990,19382
20651,6971,19343
20586,6940,19290
20514,6902,19227
20444,6865,19158
20365,6824,19081
20280,6776,18992
20204,6727,18900
20143,6687,18818
20089,6653,18747
20035,6619,18679
19992,6589,18615
19960,6568,18557
19922,6548,18505
19879,6526,18452
19839,6507,18399
19808,6490,18348
19776,6468,18292
19741,6443,18229
19707,6423,18169
19671,6406,18116
19624,6386,18062
19568,6363,18009
19513,6341,17960
19459,6323,17916
19403,6302,17873
19352,6279,17831
19318,6263,17793
19304,6259,17764
19305,6262,17745
19326,6272,17738
19368,6290,17749
19421,6315,17776
19470,6339,17803
19516,6360,17821
19566,6382,17836
19605,6397,17848
19620,6397,17850
19620,6386,17837
19618,6373,17817
19607,6360,17790
19585,6345,17756
19566,6331,17717
19556,6322,17681
19540,6315,17645
19508,6304,17604
19474,6295,17565
19446,6289,17533
19411,6283,17503
19364,6270,17470
19324,6258,17440
19306,6251,17428
19301,6249,17437
19314,6252,17467
19369,6274,17532
19476,6323,17640
19619,6398,17790
19793,6495,17979
20009,6612,18216
20259,6746,18500
20525,6889,18816
20807,7039,19155
21114,7200,19520
21438,7368,19904
21761,7535,20293
22078,7698,20675
22397,7862,21047
22705,8027,21405
22984,8179,21741
23234,8314,22046
23463,8437,22323
23660,8544,22564
23805,8626,22760
23904,8680,22909
23971,8716,23017
24005,8737,23091
24002,8742,23128
23981,8734,23134
23958,8718,23121
23922,8692,23091
23873,8660,23044
23827,8627,22989
23792,8601,22936
23756,8580,22884
23711,8556,22824
23665,8534,22760
23623,8514,22695
23569,8492,22626
23503,8461,22549
23438,8423,22468
23382,8386,22393
23318,8351,22319
23240,8311,22234
23168,8272,22144
23108,8240,22064
23045,8209,21991
22974,8175,21922
22911,8145,21861
22860,8123,21812
22813,8101,21766
22776,8079,21724
22762,8062,21689
22762,8057,21667
22757,8057,21652
22751,8058,21638
22758,8062,21629
22772,8070,21629
22779,8076,21631
22784,8077,21629
22789,8081,21636
22786,8091,21655
22774,8095,21670
22770,8090,21675
22792,8091,21686
22838,8106,21713
22894,8131,21751
22960,8165,21804
23043,8213,21879
23138,8270,21968
23229,8326,22053
23312,8375,22131
23388,8416,22201
23447,8447,22262
23484,8463,22306
23506,8468,22331
23525,8473,22348
23531,8474,22356
23522,8468,22352
23514,8462,22340
23511,8462,22328
23497,8463,22313
23471,8461,22295
23453,8459,22285
23453,8461,22284
23453,8459,22284
23445,8451,22272
23436,8442,22253
23426,8433,22231
23405,8421,22203
23377,8404,22167
23356,8386,22128
23338,8370,22090
23310,8352,22049
23280,8333,22005
23264,8320,21967
23257,8315,21939
23250,8312,21917
23248,8313,21894
23256,8317,21875
23269,8325,21859
23277,8330,21836
23283,8331,21807
23295,8330,21782
23306,8330,21762
23302,8324,21741
23284,8310,21713
23265,8295,21685
23235,8275,21652
23181,8246,21608
23113,8215,21556
23056,8191,21504
23006,8170,21452
22960,8148,21400
22933,8133,21356
22937,8133,21326
22953,8141,21311
22968,8151,21304
22987,8164,21300
23010,8178,21302
23022,8188,21302
23019,8188,21293
23012,8185,21277
23003,8182,21262
22975,8172,21239
22929,8151,21198
22882,8127,21145
22840,8105,21091
22793,8083,21034
22734,8059,20973
22680,8037,20916
22632,8016,20864
22577,7991,20809
22516,7958,20746
22459,7925,20682
22405,7889,20621
22343,7849,20559
22283,7810,20497
22242,7782,20451
22221,7767,20435
22216,7764,20447
22242,7776,20492
22314,7811,20581
22431,7871,20721
22579,7953,20910
22766,8054,21146
23002,8180,21431
23279,8330,21765
23583,8500,22136
23915,8687,22537
24284,8890,22972
24676,9103,23430
25067,9319,23895
25452,9537,24359
25827,9754,24816
26176,9957,25250
26479,10134,25643
26738,10285,25989
26963,10416,26283
27143,10518,26516
27270,10586,26687
27356,10627,26805
27412,10651,26882
27433,10660,26919
27418,10647,26913
27383,10619,26878
27340,10590,26832
27283,10562,26781
27216,10532,26722
27161,10504,26662
27131,10486,26613
27116,10475,26576
27112,10469,26549
27133,10475,26540
27176,10490,26550
27218,10506,26566
27248,10517,26578
27272,10528,26586
27284,10534,26586
27265,10526,26568
27220,10504,26532
27165,10476,26487
27099,10443,26436
27014,10402,26371
26921,10353,26290
26839,10307,26207
26765,10269,26130
26687,10233,26056
26605,10192,25979
26534,10152,25908
26476,10117,25842
26417,10084,25775
26362,10054,25709
26324,10031,25647
26289,10010,25585
26245,9984,25522
26198,9954,25458
26155,9924,25397
26100,9889,25334
26022,9847,25264
25943,9805,25200
25874,9767,25148
25809,9729,25108
25748,9692,25071
25706,9665,25040
25698,9657,25028
25710,9660,25032
25721,9668,25045
25736,9683,25069
25751,9702,25097
25749,9714,25115
25727,9710,25113
25694,9695,25095
25653,9674,25067
25596,9642,25024
25523,9600,24958
25444,9555,24879
25363,9511,24795
25271,9464,24707
25176,9412,24615
25088,9365,24528
25009,9325,24452
24931,9285,24378
24851,9243,24298
24779,9203,24218
24716,9168,24140
24654,9132,24062
24598,9100,23984
24555,9077,23911
24513,9057,23842
24457,9033,23770
24395,9002,23694
24330,8966,23615
24253,8920,23531
24155,8862,23435
24052,8799,23331
23958,8741,23232
23868,8688,23136
23776,8640,23038
23691,8597,22941
23615,8561,22852
23535,8527,22769
23445,8492,22682
23360,8458,22590
23286,8425,22503
23206,8387,22419
23118,8343,22329
23034,8297,22235
22960,8254,22146
22888,8213,22062
22809,8174,21979
22734,8140,21905
22667,8111,21841
22600,8080,21779
22535,8045,21715
22482,8014,21658
22446,7992,21611
22417,7975,21558
22392,7960,21501
22379,7951,21451
22370,7946,21409
22345,7936,21367
22309,7918,21323
22269,7898,21279
22222,7873,21234
22157,7838,21174
22087,7797,21104
22030,7761,21040
21986,7734,20987
21945,7712,20939
21911,7690,20891
21890,7674,20851
21874,7666,20820
21852,7661,20789
21831,7661,20757
21821,7666,20733
21819,7670,20719
21822,7677,20715
21838,7693,20726
21877,7719,20761
21933,7754,20822
22000,7796,20908
22089,7848,21022
22220,7919,21175
22388,8009,21370
22590,8115,21609
22834,8241,21897
23125,8393,22241
23446,8568,22634
23782,8756,23060
24141,8959,23513
24527,9179,23991
24920,9407,24481
25305,9632,24964
25688,9850,25432
26059,10059,25879
26394,10246,26286
26672,10401,26632
26894,10524,26913
27064,10617,27135
27176,10676,27293
27238,10705,27385
27270,10715,27428
27277,10712,27439
27255,10697,27422
27214,10673,27382
27177,10651,27337
27145,10632,27298
27108,10609,27263
27068,10587,27228
27040,10574,27202
27024,10568,27187
27006,10564,27175
26988,10561,27157
26980,10562,27133
26966,10561,27099
26934,10547,27050
26888,10521,26989
26839,10487,26923
26780,10447,26852
26713,10402,26777
26656,10361,26706
26618,10335,26654
26589,10319,26618
26558,10308,26587
26540,10305,26567
26539,10308,26561
26538,10310,26560
26529,10308,26557
26527,10310,26557
26538,10321,26566
26549,10335,26576
26548,10341,26573
26545,10342,26558
26537,10334,26529
26504,10307,26479
26439,10260,26401
26351,10204,26300
26249,10147,26191
26130,10086,26074
26000,10021,25953
25881,9961,25840
25779,9912,25748
25690,9872,25676
25611,9836,25618
25546,9805,25576
25494,9779,25551
25442,9752,25527
25389,9722,25498
25345,9695,25471
25305,9670,25445
25251,9638,25407
25179,9594,25345
25091,9545,25263
24976,9488,25160
24822,9412,25031
24642,9320,24876
24458,9222,24710
24272,9124,24539
24086,9026,24367
23920,8939,24201
23790,8868,24058
23687,8812,23938
23593,8765,23834
23515,8724,23747
23450,8689,23671
23378,8653,23594
23294,8610,23508
23214,8565,23420
23147,8525,23334
23077,8485,23246
22993,8440,23153
22910,8399,23059
22834,8365,22965
22754,8332,22868
22668,8294,22766
22592,8254,22663
22532,8221,22570
22477,8191,22490
22431,8165,22419
22405,8147,22362
22393,8139,22318
22377,8134,22282
22351,8125,22243
22325,8112,22205
22292,8095,22164
22243,8068,22109
22183,8034,22040
22131,8003,21966
22087,7976,21892
22034,7941,21816
21976,7905,21736
21934,7878,21663
21901,7859,21599
21864,7841,21544
21831,7831,21496
21816,7829,21458
21815,7833,21426
21821,7838,21393
21839,7846,21362
21875,7858,21342
21908,7869,21329
21923,7873,21312
21926,7868,21287
21916,7856,21253
21881,7835,21208
21817,7802,21145
21742,7762,21069
21665,7718,20986
21576,7665,20897
21478,7602,20796
21389,7541,20689
21312,7487,20586
21233,7437,20487
21148,7389,20388
21068,7349,20290
20989,7313,20195
20897,7272,20102
20791,7227,20007
20689,7184,19912
20598,7147,19828
20516,7115,19755
20451,7089,19701
20423,7077,19680
20445,7087,19707
20512,7121,19784
20626,7181,19913
20793,7270,20102
21009,7389,20353
21260,7530,20656
21542,7688,21002
21860,7863,21389
22204,8054,21808
22555,8248,22238
22912,8441,22671
23280,8637,23111
23648,8834,23552
23996,9025,23976
24320,9204,24372
24616,9370,24738
24872,9517,25061
25077,9635,25327
25245,9725,25538
25382,9795,25702
25481,9846,25819
25541,9878,25893
25578,9899,25928
25605,9917,25943
25612,9929,25946
25595,9925,25930
25568,9914,25898
25542,9898,25855
25506,9873,25803
25451,9836,25735
25387,9791,25652
25328,9745,25563
25265,9698,25466
25195,9646,25365
25130,9595,25269
25074,9551,25176
25012,9511,25079
24937,9473,24977
24863,9439,24877
24787,9405,24779
24692,9363,24677
24584,9310,24564
24477,9252,24447
24370,9190,24329
24254,9124,24207
24131,9052,24079
24014,8982,23953
23901,8917,23833
23782,8851,23714
23658,8781,23590
23542,8714,23471
23434,8655,23364
23322,8597,23264
23215,8543,23166
23136,8502,23081
23080,8474,23017
23037,8456,22970
23011,8448,22940
23007,8450,22925
23005,8456,22919
22991,8454,22910
22966,8446,22897
22935,8432,22880
22888,8408,22852
22822,8372,22811
22749,8333,22766
22681,8300,22725
22611,8268,22683
22539,8232,22634
22482,8201,22588
22437,8177,22549
22387,8153,22511
22329,8122,22467
22277,8090,22421
22236,8063,22379
22194,8038,22336
22145,8014,22285
22098,7991,22230
22047,7971,22175
21976,7943,22113
21888,7905,22036
21795,7861,21951
21698,7816,21865
21592,7765,21774
21488,7711,21673
21397,7661,21572
21314,7615,21476
21227,7567,21379
21144,7518,21283
21081,7473,21195
21024,7435,21111
20958,7401,21025
20888,7370,20934
20822,7345,20847
20754,7321,20762
20671,7286,20669
20573,7239,20566
20469,7189,20459
20357,7135,20349
20239,7077,20233
20132,7020,20117
20047,6969,20010
19970,6922,19909
19892,6880,19813
19822,6845,19728
19765,6821,19656
19706,6802,19593
19636,6779,19526
19567,6756,19458
19509,6734,19394
19448,6706,19328
19370,6668,19248
19289,6627,19161
19218,6586,19077
19145,6541,18994
19067,6497,18912
19001,6460,18835
18948,6429,18769
18892,6397,18707
18828,6363,18645
18767,6335,18587
18711,6312,18532
18648,6288,18472
18581,6259,18408
18530,6232,18350
18488,6208,18299
18439,6184,18247
18384,6159,18189
18340,6137,18129
18300,6117,18072
18252,6096,18012
18198,6073,17950
18152,6055,17895
18116,6042,17851
18087,6035,17820
18078,6038,17810
18112,6060,17839
18195,6104,17918
18324,6168,18047
18502,6257,18228
18733,6378,18468
19004,6520,18760
19297,6675,19090
19616,6842,19454
19957,7023,19848
20299,7210,20265
20632,7391,20688
20964,7572,21113
21296,7753,21536
21609,7920,21938
21891,8067,22301
22149,8196,22625
22390,8311,22915
22599,8409,23166
22766,8490,23376
22908,8559,23554
23031,8621,23704
23125,8668,23823
23185,8697,23907
23224,8715,23963
23241,8725,23996
23222,8724,23996
23170,8707,23962
23104,8679,23901
23027,8645,23825
22928,8598,23728
22815,8538,23611
22708,8478,23488
22614,8423,23373
22523,8371,23263
22439,8324,23154
22372,8289,23058
22321,8264,22982
22274,8239,22921
22232,8216,22867
22198,8198,22816
22161,8179,22768
22113,8155,22716
22060,8128,22659
22015,8107,22603
21970,8090,22548
21916,8067,22489
21859,8041,22426
21808,8015,22365
21758,7991,22304
21698,7961,22238
21638,7928,22168
21585,7895,22104
21530,7861,22043
21473,7826,21982
21430,7798,21928
21405,7781,21891
21384,7770,21870
21358,7761,21854
21338,7755,21846
21330,7755,21848
21321,7757,21850
21310,7757,21847
21311,7759,21845
21330,7770,21853
21348,7782,21864
21357,7791,21872
21365,7798,21882
21367,7802,21892
21347,7795,21890
21310,7778,21874
21272,7757,21847
21227,7732,21810
21165,7699,21757
21097,7661,21693
21041,7628,21633
20994,7602,21579
20940,7575,21525
20884,7546,21469
20836,7521,21413
20793,7495,21358
20743,7461,21296
20687,7422,21230
20635,7385,21165
20581,7349,21097
20511,7308,21017
20424,7261,20921
20328,7211,20817
20219,7159,20709
20091,7102,20590
19953,7047,20462
19825,6996,20342
19703,6945,20228
19581,6892,20109
19472,6838,19986
19377,6788,19868
19285,6738,19756
19191,6685,19644
19104,6631,19536
19018,6582,19435
18918,6534,19336
18804,6480,19232
18692,6424,19127
18590,6371,19027
18491,6318,18928
18393,6264,18829
18310,6217,18736
18237,6178,18653
18158,6139,18574
18069,6097,18493
17979,6054,18412
17888,6015,18333
17791,5974,18250
17698,5930,18161
17618,5888,18076
17552,5853,17998
17489,5821,17921
17432,5792,17847
17396,5770,17784
17374,5758,17735
17351,5745,17693
17322,5731,17657
17291,5722,17625
17251,5712,17590
17191,5694,17546
17124,5667,17493
17064,5638,17437
17004,5607,17376
16937,5572,17305
16876,5538,17230
16831,5512,17163
16788,5490,17102
16735,5467,17038
16680,5446,16974
16637,5431,16914
16602,5418,16862
16570,5406,16816
16552,5400,16786
16556,5407,16781
16572,5421,16800
16609,5442,16845
16690,5480,16925
16822,5541,17053
16990,5620,17229
17188,5716,17446
17423,5834,17706
17693,5973,18012
17981,6125,18354
18281,6286,18721
18600,6454,19111
18932,6625,19517
19257,6793,19928
19571,6957,20331
19885,7121,20727
20195,7284,21116
20485,7437,21483
20748,7576,21816
20989,7702,22115
21200,7813,22381
21365,7900,22602
21489,7965,22771
21587,8014,22897
21654,8049,22984
21683,8064,23030
21684,8061,23041
21676,8053,23030
21654,8040,22999
21608,8018,22947
21549,7988,22877
21486,7957,22804
21412,7924,22730
21319,7885,22652
21226,7848,22574
21145,7814,22502
21071,7781,22433
21000,7743,22365
20943,7705,22301
20910,7676,22250
20886,7654,22206
20862,7633,22163
20849,7616,22124
20846,7605,22094
20835,7597,22068
20812,7586,22036
20785,7576,22001
20756,7566,21967
20710,7547,21924
20648,7517,21866
20584,7481,21794
20520,7447,21719
20449,7408,21643
20373,7365,21560
20307,7329,21479
20249,7301,21411
20184,7276,21351
20116,7250,21290
20059,7223,21235
20008,7198,21194
19953,7172,21160
19901,7144,21124
19870,7124,21091
19858,7117,21070
19849,7116,21056
19848,7118,21049
19862,7125,21054
19878,7137,21067
19884,7147,21080
19885,7150,21089
19887,7149,21096
19882,7146,21100
19861,7135,21090
19831,7118,21064
19797,7100,21032
19752,7078,20996
19694,7050,20949
19631,7017,20893
19572,6984,20834
19508,6950,20768
19432,6912,20691
19357,6873,20612
19285,6834,20539
19205,6792,20466
19113,6746,20383
19025,6702,20294
18948,6662,20205
18869,6622,20113
18783,6577,20018
18705,6534,19926
18640,6497,19841
18576,6464,19760
18509,6432,19679
18449,6402,19599
18391,6374,19521
18317,6342,19439
18228,6303,19348
18141,6262,19251
18054,6221,19150
17958,6174,19039
17858,6125,18921
17769,6080,18808
17687,6039,18703
17598,5995,18604
17512,5950,18510
17437,5910,18425
17367,5874,18349
17294,5842,18276
17221,5811,18204
17157,5782,18139
17102,5755,18081
17051,5724,18022
17007,5694,17960
16977,5670,17904
16949,5652,17850
16915,5635,17796
16885,5618,17745
16863,5606,17703
16837,5597,17663
16797,5585,17621
16756,5576,17580
16721,5570,17542
16681,5557,17503
16629,5534,17453
16579,5507,17395
16541,5483,17338
16499,5457,17279
16448,5427,17215
16402,5398,17153
16360,5374,17098
16312,5350,17046
16256,5324,16994
16205,5298,16945
16159,5275,16900
16106,5250,16851
16045,5223,16793
15992,5199,16732
15947,5178,16672
15892,5153,16608
15828,5119,16535
15772,5082,16461
15726,5050,16397
15688,5022,16347
15669,5007,16317
15685,5014,16322
15739,5043,16369
15825,5089,16456
15948,5157,16589
16116,5255,16777
16324,5376,17017
16559,5510,17296
16822,5654,17608
17118,5809,17951
17434,5974,18325
17761,6141,18722
18098,6313,19134
18450,6495,19563
18801,6679,20004
19138,6856,20436
19467,7027,20847
19786,7190,21235
20076,7345,21591
20330,7482,21904
20555,7603,22177
20757,7712,22417
20922,7798,22617
21043,7860,22768
21135,7905,22879
21206,7939,22959
21248,7958,23007
21258,7962,23021
21249,7957,23010
21223,7947,22981
21171,7925,22934
21097,7889,22864
21023,7850,22781
20957,7811,22694
20889,7768,22603
20822,7723,22511
20769,7685,22429
20732,7660,22369
20703,7642,22324
20682,7630,22284
20673,7621,22255
20665,7613,22237
20643,7599,22217
20611,7582,22185
20582,7566,22145
20548,7550,22103
20499,7528,22052
20444,7502,21991
20394,7475,21926
20344,7448,21861
20286,7418,21794
20227,7390,21733
20178,7371,21681
20138,7357,21639
20107,7346,21605
20098,7343,21582
20122,7354,21579
20163,7374,21590
20209,7396,21609
20267,7426,21638
20331,7460,21678
20381,7489,21718
20409,7507,21750
20429,7518,21773
20453,7530,21793
20467,7537,21807
20466,7536,21812
20463,7536,21814
20469,7542,21820
20476,7549,21830
20474,7549,21836
20468,7550,21838
20468,7553,21844
20465,7550,21849
20455,7543,21849
20451,7535,21844
20454,7528,21840
20450,7519,21832
20439,7510,21815
20427,7501,21792
20407,7489,21764
20366,7470,21722
20306,7441,21662
20235,7407,21592
20151,7366,21511
20049,7312,21412
19938,7252,21298
19837,7198,21181
19742,7149,21071
19642,7098,20965
19546,7047,20862
19463,7002,20768
19387,6961,20683
19312,6919,20601
19244,6881,20527
19187,6848,20460
19136,6819,20396
19088,6792,20330
19045,6765,20261
19008,6742,20193
18964,6718,20121
18904,6690,20040
18832,6659,19956
18757,6629,19876
18668,6596,19790
18562,6555,19689
18449,6503,19579
18344,6450,19468
18246,6400,19356
18157,6352,19244
18088,6312,19146
18038,6281,19066
17992,6253,18997
17945,6226,18937
17912,6209,18893
17895,6203,18868
17877,6199,18852
17860,6192,18835
17854,6187,18818
17853,6187,18802
17839,6182,18779
17817,6168,18743
17796,6153,18700
17775,6140,18658
17741,6123,18610
17694,6100,18552
17642,6073,18491
17584,6041,18425
17509,5999,18347
17429,5955,18261
17360,5918,18177
17297,5887,18099
17235,5857,18030
17182,5830,17971
17144,5812,17927
17109,5799,17890
17065,5781,17849
17021,5759,17802
16979,5734,17750
16924,5704,17689
16854,5669,17615
16782,5630,17535
16717,5592,17456
16649,5553,17379
16573,5514,17299
16505,5478,17222
16451,5450,17158
16399,5427,17102
16357,5411,17058
16346,5409,17041
16378,5428,17071
16449,5470,17151
16555,5532,17271
16702,5614,17437
16895,5717,17657
17117,5831,17922
17368,5957,18223
17657,6102,18561
17971,6261,18934
18292,6426,19330
18617,6595,19738
18948,6770,20151
19274,6943,20564
19575,7105,20960
19848,7250,21327
20100,7380,21664
20328,7497,21972
20526,7602,22245
20699,7694,22484
20861,7780,22694
21005,7859,22874
21113,7920,23010
21190,7960,23100
21242,7985,23154
21267,7999,23175
21263,7995,23161
21237,7975,23117
21194,7948,23054
21128,7913,22975
21036,7864,22879
20929,7807,22772
20816,7747,22661
20696,7683,22543
20566,7613,22415
20442,7546,22283
20338,7487,22159
20246,7434,22042
20159,7383,21932
20088,7342,21836
20036,7312,21756
19984,7284,21682
19923,7253,21608
19863,7220,21536
19801,7188,21464
19721,7150,21382
19626,7104,21291
19539,7057,21194
19459,7009,21100
19372,6957,21006
19277,6904,20911
19185,6857,20820
19095,6816,20737
19000,6778,20659
18909,6741,20585
18839,6711,20525
18785,6692,20478
18738,6675,20438
18705,6659,20403
18702,6656,20381
18727,6666,20377
18757,6677,20384
18788,6683,20396
18817,6688,20416
18827,6690,20439
18809,6685,20447
18776,6675,20437
18741,6662,20419
18698,6645,20395
18641,6621,20362
18584,6596,20325
18537,6577,20294
18498,6561,20269
18463,6543,20241
18437,6526,20215
18420,6517,20197
18397,6511,20181
18361,6501,20158
18323,6488,20128
18294,6476,20097
18258,6461,20056
18206,6438,20001
18146,6412,19936
18081,6385,19865
18002,6354,19781
17906,6311,19683
17804,6262,19579
17698,6214,19472
17577,6158,19358
17449,6091,19235
17332,6023,19110
17225,5960,18986
17116,5897,18863
17012,5836,18738
16925,5784,18620
16848,5741,18515
16768,5703,18417
16688,5665,18321
16615,5628,18230
16538,5594,18142
16444,5554,18051
16341,5510,17950
16244,5466,17847
16151,5421,17747
16058,5373,17648
15973,5329,17550
15909,5296,17466
15855,5271,17393
15803,5247,17325
15764,5229,17267
15743,5218,17223
15720,5210,17185
15684,5197,17148
15645,5185,17108
15612,5173,17066
15569,5152,17017
15511,5121,16959
15453,5085,16898
15404,5057,16839
15353,5036,16780
15295,5016,16719
15242,5000,16660
15205,4988,16607
15174,4979,16562
15145,4967,16523
15126,4955,16488
15122,4948,16459
15119,4937,16433
15109,4923,16403
15100,4913,16374
15098,4910,16350
15089,4906,16324
15068,4897,16286
15041,4885,16241
15002,4867,16191
14938,4840,16129
14855,4806,16054
14765,4766,15972
14665,4724,15892
14551,4679,15813
14439,4634,15739
14357,4597,15683
14312,4574,15656
14300,4566,15663
14330,4579,15712
14416,4621,15817
14553,4691,15981
14731,4784,16198
14954,4900,16460
15221,5032,16766
15512,5177,17109
15810,5328,17477
16119,5487,17861
16443,5652,18258
16765,5816,18654
17076,5972,19037
17381,6121,19401
17670,6261,19747
17927,6390,20066
18142,6498,20347
18324,6585,20589
18478,6657,20794
18593,6715,20957
18673,6755,21072
18731,6782,21150
18778,6805,21203
18811,6823,21233
18830,6834,21240
18846,6847,21233
18858,6861,21219
18849,6867,21196
18820,6862,21161
18785,6854,21120
18747,6844,21075
18699,6831,21027
18649,6809,20973
18614,6785,20920
18590,6764,20872
18570,6746,20828
18549,6728,20784
18537,6714,20748
18527,6703,20722
18503,6690,20691
18466,6672,20647
18429,6655,20602
18384,6635,20559
18321,6607,20509
18255,6572,20448
18196,6535,20381
18134,6495,20308
18070,6453,20227
18016,6416,20148
17985,6389,20084
17965,6370,20031
17942,6357,19984
17920,6351,19946
17903,6353,19920
17882,6357,19902
17849,6357,19882
17817,6357,19860
17795,6357,19842
17771,6352,19825
17742,6338,19804
17723,6327,19786
17719,6324,19779
17718,6321,19777
17720,6318,19777
17738,6323,19784
17768,6335,19801
17793,6348,19820
17809,6358,19835
17824,6363,19848
17836,6369,19864
17834,6372,19874
17814,6365,19871
17787,6353,19857
17756,6336,19836
17714,6309,19801
17668,6276,19747
17630,6249,19689
17591,6230,19632
17541,6211,19571
17490,6186,19510
17447,6162,19456
17406,6138,19406
17352,6110,19349
17291,6077,19284
17228,6040,19212
17161,6001,19138
17085,5959,19060
17012,5918,18978
16950,5885,18899
16887,5856,18820
16815,5823,18731
16743,5789,18636
16676,5760,18542
16605,5729,18447
16522,5688,18343
16438,5643,18240
16359,5600,18149
16274,5560,18067
16184,5520,17984
16108,5486,17901
16056,5461,17827
16016,5439,17762
15979,5415,17700
15953,5391,17640
15935,5372,17590
15908,5355,17547
15871,5337,17501
15831,5320,17452
15786,5302,17399
15727,5278,17338
15659,5250,17271
15597,5224,17203
15538,5198,17138
15471,5167,17068
15403,5132,16994
15348,5100,16924
15304,5076,16869
15267,5057,16825
15244,5042,16788
15244,5034,16758
15261,5034,16736
15273,5033,16719
15284,5027,16706
15298,5027,16693
15302,5030,16673
15282,5025,16641
15248,5014,16598
15208,5000,16550
15154,4981,16498
15079,4952,16435
15000,4919,16360
14930,4888,16285
14864,4855,16212
14800,4818,16141
14750,4786,16080
14727,4770,16036
14725,4768,16014
14744,4781,16019
14802,4812,16065
14901,4866,16162
15030,4940,16308
15189,5031,16495
15391,5142,16727
15641,5273,17007
15923,5420,17330
16226,5578,17686
16558,5746,18069
16919,5925,18482
17290,6107,18917
17660,6289,19360
18032,6476,19807
18400,6666,20255
18752,6848,20690
19085,7019,21104
19408,7185,21500
19712,7346,21874
19979,7490,22212
20209,7612,22507
20411,7716,22760
20579,7805,22970
20704,7868,23127
20787,7904,23228
20840,7924,23285
20865,7932,23310
20855,7925,23301
20818,7905,23264
20771,7879,23215
20709,7850,23154
20631,7816,23080
20549,7781,22995
20475,7749,22907
20405,7715,22821
20329,7673,22736
20261,7630,22656
20213,7598,22590
20172,7574,22540
20138,7553,22496
20121,7535,22459
20122,7527,22436
20126,7523,22422
20122,7516,22403
20118,7513,22380
20113,7515,22360
20093,7513,22337
20057,7500,22300
20016,7482,22254
19973,7459,22201
19916,7425,22133
19853,7382,22051
19802,7341,21970
19764,7307,21902
19728,7277,21846
19694,7254,21797
19672,7244,21759
19657,7244,21736
19635,7243,21718
19609,7237,21696
19587,7229,21678
19568,7222,21668
19542,7216,21657
19513,7207,21638
19492,7200,21618
19479,7192,21601
19465,7178,21584
19456,7164,21569
19464,7161,21567
19479,7169,21578
19491,7180,21596
19507,7191,21617
19532,7204,21643
19554,7219,21671
19560,7226,21688
19556,7227,21692
19546,7221,21687
19516,7203,21667
19462,7170,21628
19396,7129,21573
19336,7093,21506
19273,7059,21430
19205,7021,21351
19146,6987,21278
19095,6959,21215
19036,6931,21152
18974,6902,21085
18923,6876,21016
18880,6854,20951
18832,6832,20885
18780,6806,20813
18734,6778,20741
18699,6750,20675
18660,6721,20609
18607,6689,20536
18549,6659,20462
18487,6631,20388
18409,6600,20307
18320,6563,20216
18235,6528,20122
18155,6493,20027
18064,6449,19927
17966,6396,19823
17878,6346,19722
17798,6302,19627
17721,6263,19534
17652,6226,19444
17600,6197,19367
17557,6174,19303
17513,6151,19240
17462,6124,19172
17407,6094,19101
17341,6057,19026
17260,6011,18942
17176,5961,18849
17100,5919,18756
17022,5883,18667
16936,5847,18582
16858,5817,18499
16798,5797,18425
16744,5780,18356
16689,5758,18290
16645,5735,18233
16619,5715,18188
16592,5694,18148
16560,5672,18107
16538,5654,18070
16527,5646,18042
16510,5638,18016
16481,5626,17983
16451,5614,17944
16418,5601,17903
16365,5579,17851
16291,5548,17783
16213,5514,17705
16140,5482,17629
16068,5450,17552
16002,5415,17475
15954,5386,17403
15925,5367,17350
15909,5356,17313
15910,5354,17292
15936,5366,17294
15987,5394,17329
16058,5428,17395
16153,5473,17491
16288,5537,17625
16466,5624,17807
16682,5730,18036
16938,5855,18314
17242,6005,18647
17581,6181,19025
17937,6372,19438
18308,6573,19881
18690,6779,20351
19070,6985,20837
19443,7187,21323
19823,7389,21806
20213,7594,22287
20594,7794,22753
20949,7981,23187
21279,8156,23584
21584,8321,23944
21850,8471,24263
22066,8590,24533
22240,8681,24756
22378,8752,24931
22467,8800,25054
22506,8820,25128
22515,8820,25161
22510,8807,25166
22487,8782,25141
22446,8747,25088
22406,8713,25023
22371,8687,24960
22333,8665,24900
22289,8648,24842
22251,8639,24789
22217,8640,24744
22175,8640,24703
22132,8637,24660
22101,8632,24623
22078,8624,24593
22050,8611,24562
22020,8595,24527
21999,8579,24494
21988,8563,24461
21974,8545,24421
21954,8522,24370
21932,8499,24315
21897,8475,24258
21841,8442,24199
21780,8402,24136
21725,8359,24071
21667,8314,24002
21604,8266,23930
21545,8223,23859
21499,8193,23798
21461,8173,23745
21424,8159,23699
21396,8151,23664
21380,8148,23640
21367,8149,23625
21347,8149,23610
21327,8149,23596
21315,8148,23587
21292,8135,23574
21250,8109,23552
21202,8080,23523
21162,8055,23494
21120,8030,23459
21075,8003,23416
21042,7980,23376
21027,7968,23350
21013,7961,23335
20990,7952,23318
20964,7941,23299
20937,7930,23279
20900,7914,23255
20854,7893,23225
20809,7873,23187
20763,7854,23145
20708,7830,23095
20650,7799,23037
20604,7772,22980
20569,7750,22926
20524,7726,22865
20468,7698,22794
20410,7670,22721
20346,7639,22644
20261,7595,22558
20162,7540,22459
20062,7478,22355
19959,7414,22245
19852,7353,22128
19750,7297,22009
19665,7251,21898
19587,7214,21795
19505,7177,21692
19429,7139,21593
19356,7104,21499
19273,7066,21410
19175,7020,21315
19078,6972,21212
18995,6929,21110
18915,6889,21009
18833,6847,20909
18762,6807,20815
18707,6772,20732
18655,6738,20652
18598,6703,20569
18542,6670,20488
18489,6641,20414
18427,6609,20338
18352,6570,20252
18274,6527,20163
18193,6484,20076
18105,6439,19990
18016,6389,19901
17938,6340,19815
17870,6295,19738
17799,6257,19667
17730,6224,19596
17676,6202,19533
17630,6189,19474
17581,6173,19413
17533,6151,19348
17497,6133,19285
17470,6123,19230
17437,6117,19180
17399,6107,19126
17364,6095,19071
17325,6079,19013
17268,6051,18947
17201,6010,18875
17137,5966,18803
17074,5924,18734
17016,5886,18666
16971,5857,18601
16944,5841,18551
16919,5831,18509
16886,5819,18466
16855,5806,18427
16830,5793,18393
16790,5775,18354
16731,5745,18297
16670,5708,18228
16620,5676,18160
16574,5647,18100
16528,5620,18051
16505,5606,18029
16518,5616,18053
16561,5648,18127
16637,5696,18242
16758,5767,18401
16930,5865,18614
17142,5983,18879
17390,6119,19188
17687,6276,19542
18031,6458,19945
18402,6655,20390
18791,6860,20862
19199,7076,21354
19613,7300,21858
20010,7518,22354
20383,7723,22824
20735,7915,23262
21058,8085,23660
21335,8226,24006
21569,8343,24299
21775,8447,24548
21943,8534,24749
22060,8599,24897
22136,8641,24992
22183,8664,25046
22198,8670,25068
22183,8664,25060
22159,8650,25029
22136,8634,24991
22101,8615,24945
22046,8587,24883
21985,8554,24814
21929,8520,24740
21868,8482,24658
21808,8443,24572
21759,8407,24489
21721,8377,24417
21679,8348,24349
21622,8313,24275
21560,8278,24197
21499,8246,24121
21422,8207,24040
21331,8160,23950
21244,8109,23858
21164,8061,23771
21082,8016,23684
20994,7971,23592
20913,7931,23500
20837,7893,23413
20752,7849,23319
20658,7799,23218
20572,7746,23116
20495,7692,23019
20414,7637,22925
20335,7588,22833
20268,7550,22746
20206,7520,22669
20131,7487,22596
20048,7452,22518
19971,7417,22438
19900,7381,22368
19830,7344,22307
19771,7310,22255
19738,7291,22223
19725,7286,22214
19716,7290,22219
19717,7296,22233
19730,7307,22258
19748,7323,22289
19762,7339,22317
19780,7353,22338
19806,7366,22360
19823,7374,22379
19817,7374,22384
19797,7369,22373
19766,7357,22348
19712,7334,22307
19632,7293,22247
19543,7242,22172
19458,7192,22093
19370,7143,22007
19277,7092,21913
19196,7047,21816
19129,7013,21725
19059,6983,21637
18984,6951,21546
18912,6920,21456
18846,6892,21370
18775,6859,21280
18700,6821,21187
18636,6782,21096
18581,6742,21007
18514,6698,20917
18433,6650,20821
18347,6602,20725
18259,6557,20633
18158,6511,20537
18049,6460,20429
17943,6408,20313
17841,6358,20197
17736,6307,20078
17635,6255,19957
17553,6210,19849
17487,6173,19760
17423,6139,19685
17365,6109,19618
17323,6085,19559
17285,6062,19502
17236,6033,19433
17183,6000,19355
17132,5968,19277
17075,5937,19200
17011,5903,19119
16949,5871,19036
16892,5845,18960
16826,5819,18892
16745,5786,18819
16665,5753,18741
16594,5722,18667
16520,5688,18594
16438,5648,18518
16363,5608,18445
16305,5579,18384
16253,5555,18333
16201,5531,18284
16163,5510,18234
16140,5496,18188
16112,5481,18140
16065,5459,18079
16007,5431,18007
15943,5402,17932
15866,5371,17852
15776,5334,17760
15686,5295,17662
15597,5253,17562
15498,5206,17456
15391,5154,17344
15290,5106,17238
15198,5066,17145
15112,5029,17062
15047,5000,16996
15017,4984,16958
15027,4988,16962
15074,5011,17011
15168,5054,17111
15320,5123,17271
15517,5220,17486
15740,5338,17743
15991,5475,18041
16276,5627,18385
16583,5788,18769
16898,5951,19171
17226,6117,19581
17571,6294,20007
17916,6476,20446
18250,6655,20883
18578,6831,21310
18894,6999,21719
19180,7153,22102
19433,7286,22446
19670,7406,22748
19895,7519,23017
20086,7620,23248
20240,7700,23437
20375,7767,23590
20484,7822,23711
20550,7859,23796
20574,7874,23835
20574,7871,23835
20562,7860,23811
20532,7840,23768
20486,7813,23706
20438,7785,23634
20396,7762,23564
20349,7740,23493
20297,7715,23421
20252,7690,23356
20214,7669,23300
20174,7649,23246
20133,7628,23187
20103,7609,23131
20079,7592,23082
20049,7572,23033
20013,7550,22980
19982,7533,22930
19945,7514,22878
19885,7486,22817
19815,7451,22745
19753,7415,22671
19698,7379,22599
19641,7342,22527
19588,7311,22456
19549,7291,22395
19515,7279,22346
19478,7263,22302
19446,7249,22263
19429,7239,22232
19414,7232,22205
19393,7222,22179
19382,7213,22164
19386,7213,22162
19387,7218,22165
19380,7220,22167
19382,7222,22173
19394,7229,22185
19399,7234,22199
19394,7232,22207
19393,7224,22213
19406,7221,22227
19420,7223,22248
19427,7226,22264
19435,7231,22277
19442,7240,22292
19438,7246,22304
19427,7247,22306
19419,7246,22299
19412,7246,22288
19394,7240,22270
19363,7224,22238
19330,7204,22198
19298,7183,22155
19255,7156,22103
19197,7124,22036
19135,7094,21963
19062,7063,21885
18969,7021,21799
18871,6973,21703
18786,6928,21607
18713,6885,21515
18638,6842,21426
18564,6803,21346
18500,6769,21272
18435,6734,21197
18358,6692,21112
18277,6647,21018
18196,6604,20920
18110,6557,20815
18016,6506,20706
17928,6455,20598
17848,6412,20498
17767,6374,20407
17682,6334,20315
17608,6300,20226
17548,6271,20149
17488,6242,20078
17422,6210,20002
17357,6178,19921
17305,6148,19844
17258,6120,19772
17215,6093,19696
17187,6071,19624
17171,6056,19561
17147,6041,19504
17112,6022,19448
17077,6005,19397
17045,5992,19356
17001,5972,19313
16952,5946,19266
16914,5920,19218
16885,5896,19169
16850,5874,19116
16810,5854,19063
16784,5842,19020
16774,5840,18987
16761,5838,18958
16747,5836,18928
16741,5837,18900
16740,5840,18874
16733,5836,18843
16725,5823,18806
16731,5812,18773
16743,5806,18746
16745,5796,18715
16738,5783,18678
16725,5771,18640
16699,5757,18603
16654,5738,18560
16607,5718,18515
16569,5700,18483
16538,5687,18471
16521,5678,18478
16541,5683,18516
16615,5717,18603
16739,5780,18744
16907,5870,18936
17133,5988,19187
17414,6137,19497
17730,6308,19859
18068,6492,20262
18437,6688,20705
18832,6897,21185
19229,7112,21681
19614,7328,22175
19997,7544,22659
20372,7749,23131
20717,7935,23579
21025,8100,23987
21297,8244,24348
21526,8364,24659
21697,8453,24910
21807,8507,25091
21870,8532,25205
21890,8535,25263
21864,8517,25270
21807,8481,25236
21737,8441,25177
21656,8400,25103
21563,8356,25014
21467,8311,24917
21378,8270,24820
21285,8226,24722
21178,8174,24613
21068,8116,24493
20970,8060,24374
20881,8009,24262
20799,7959,24152
20733,7913,24048
20686,7877,23961
20643,7849,23889
20599,7828,23826
20565,7814,23774
20544,7806,23736
20520,7795,23702
20485,7776,23660
20447,7753,23611
20414,7732,23566
20375,7710,23523
20338,7687,23479
20317,7672,23439
20318,7669,23408
20326,7672,23384
20338,7676,23366
20365,7686,23357
20404,7704,23361
20438,7723,23375
20472,7744,23400
20526,7769,23437
20598,7803,23485
20673,7840,23541
20751,7877,23602
20844,7919,23671
20941,7965,23748
21026,8011,23829
21097,8051,23906
21162,8090,23981
21217,8128,24053
21251,8158,24113
21271,8178,24159
21290,8191,24194
21309,8199,24225
21324,8205,24251
21342,8213,24274
21373,8228,24298
21402,8246,24319
21412,8253,24326
21413,8250,24321
21415,8239,24307
21404,8217,24283
21376,8190,24249
21345,8164,24208
21314,8143,24168
21273,8120,24123
21210,8092,24061
21140,8064,23986
21069,8037,23903
20988,8005,23808
20892,7963,23702
20800,7920,23597
20718,7880,23502
20639,7841,23414
20561,7801,23325
20497,7767,23242
20446,7741,23171
20392,7715,23102
20334,7681,23026
20280,7643,22943
20233,7608,22866
20181,7572,22790
20123,7530,22708
20068,7491,22624
20015,7455,22544
19956,7419,22462
19889,7378,22374
19822,7339,22282
19754,7304,22194
19684,7264,22108
19614,7223,22020
19556,7187,21934
19506,7159,21857
19452,7132,21785
19395,7104,21718
19346,7078,21657
19296,7053,21599
19232,7023,21534
19165,6990,21463
19104,6961,21391
19042,6932,21315
18976,6898,21235
18916,6863,21158
18872,6833,21092
18833,6807,21034
18787,6778,20976
18740,6747,20917
18695,6719,20863
18646,6693,20814
18588,6664,20760
18534,6636,20701
18495,6615,20647
18462,6598,20599
18422,6579,20546
18386,6562,20493
18356,6551,20443
18319,6540,20391
18260,6519,20328
18188,6488,20257
18120,6454,20183
18054,6412,20106
17988,6369,20027
17935,6336,19959
17905,6318,19912
17897,6315,19893
17917,6329,19907
17980,6365,19966
18086,6426,20078
18224,6507,20242
18397,6606,20457
18616,6730,20727
18878,6875,21052
19169,7038,21423
19494,7217,21839
19859,7417,22301
20246,7631,22791
20633,7846,23292
21023,8060,23793
21418,8272,24286
21799,8475,24762
22156,8665,25211
22496,8845,25630
22820,9015,26019
23108,9168,26370
23347,9299,26674
23547,9411,26931
23714,9505,27146
23840,9577,27316
23925,9622,27434
23984,9645,27509
24027,9659,27558
24044,9665,27583
24034,9657,27578
24018,9643,27550
23997,9625,27507
23958,9599,27448
23896,9561,27371
23827,9517,27284
23768,9478,27201
23718,9444,27123
23669,9412,27046
23635,9389,26978
23614,9378,26927
23591,9371,26886
23564,9362,26849
23540,9353,26817
23519,9342,26789
23490,9324,26755
23451,9299,26708
23413,9276,26657
23376,9257,26607
23328,9234,26554
23276,9206,26497
23233,9183,26444
23190,9162,26395
23132,9132,26340
23069,9096,26276
23014,9064,26208
22967,9040,26142
22924,9022,26075
22895,9011,26015
22886,9006,25972
22877,9002,25944
22856,8996,25921
22835,8988,25899
22820,8977,25879
22798,8962,25854
22766,8940,25824
22738,8917,25794
22725,8902,25777
22714,8893,25766
22698,8882,25753
22688,8876,25745
22687,8881,25747
22677,8891,25754
22652,8898,25756
22627,8898,25753
22615,8895,25750
22608,8884,25738
22597,8863,25714
22586,8840,25685
22571,8817,25654
22540,8791,25615
22493,8759,25563
22440,8726,25505
22377,8690,25441
22289,8647,25361
22183,8596,25263
22074,8540,25155
21962,8479,25039
21836,8409,24908
21708,8337,24764
21590,8272,24623
21478,8215,24491
21358,8158,24363
21239,8100,24236
21132,8044,24115
21037,7993,24003
20945,7942,23892
20865,7896,23781
20806,7863,23679
20756,7837,23587
20698,7807,23496
20631,7772,23399
20559,7733,23301
20475,7688,23204
20372,7632,23099
20265,7572,22988
20168,7519,22879
20077,7473,22774
19984,7428,22671
19898,7384,22573
19824,7345,22484
19753,7307,22400
19676,7265,22314
19605,7224,22226
19545,7188,22144
19484,7151,22067
19421,7114,21991
19372,7081,21921
19336,7054,21857
19296,7030,21793
19245,7005,21725
19193,6981,21654
19142,6957,21584
19082,6927,21510
19016,6894,21432
18961,6863,21356
18915,6839,21290
18869,6817,21230
18823,6799,21176
18788,6787,21134
18753,6776,21093
18701,6755,21042
18639,6723,20980
18582,6686,20912
18528,6650,20843
18469,6614,20772
18412,6581,20699
18363,6556,20631
18315,6536,20570
18258,6513,20510
18198,6487,20446
18142,6459,20384
18089,6433,20322
18034,6404,20254
17987,6374,20183
17958,6354,20124
17937,6345,20079
17918,6342,20048
17917,6348,20045
17946,6366,20078
18000,6396,20149
18076,6441,20254
18191,6507,20405
18360,6602,20613
18576,6723,20877
18834,6864,21192
19144,7029,21559
19505,7221,21981
19893,7431,22446
20299,7655,22939
20728,7891,23461
21174,8134,24004
21616,8373,24544
22041,8601,25066
22447,8816,25564
22827,9017,26033
23162,9198,26457
23447,9355,26823
23694,9493,27141
23897,9610,27412
24042,9698,27624
24134,9753,27769
24183,9780,27857
24193,9783,27896
24163,9762,27886
24108,9720,27834
24048,9671,27758
23984,9624,27671
23911,9581,27577
23838,9541,27480
23774,9507,27388
23711,9476,27304
23637,9440,27215
23569,9401,27123
23518,9365,27042
23473,9331,26969
23425,9296,26897
23381,9266,26829
23343,9242,26767
23302,9220,26708
23249,9197,26651
23193,9174,26596
23141,9150,26545
23076,9116,26490
22998,9074,26423
22926,9031,26349
22865,8996,26274
22808,8964,26201
22753,8934,26127
22711,8910,26058
22681,8889,26000
22647,8863,25945
22608,8835,25888
22577,8811,25833
22552,8795,25784
22521,8779,25740
22482,8761,25697
22449,8748,25661
22420,8741,25637
22385,8735,25618
22351,8731,25598
22331,8732,25585
22315,8736,25581
22293,8732,25574
22272,8721,25562
22272,8713,25551
22287,8712,25547
22299,8714,25550
22306,8714,25555
22315,8717,25564
22316,8718,25570
22293,8706,25564
22254,8683,25544
22211,8656,25512
22158,8627,25466
22091,8591,25401
22023,8551,25323
21963,8513,25244
21900,8472,25164
21826,8424,25078
21753,8376,24992
21687,8334,24910
21613,8296,24829
21526,8255,24737
21440,8213,24640
21363,8173,24546
21278,8131,24451
21182,8082,24347
21092,8032,24233
21011,7986,24123
20924,7942,24020
20827,7894,23915
20731,7844,23810
20642,7796,23710
20549,7745,23609
20452,7692,23504
20366,7643,23398
20294,7599,23294
20223,7553,23188
20151,7508,23082
20090,7473,22983
20033,7447,22891
19964,7422,22799
19888,7389,22705
19816,7354,22615
19746,7315,22531
19670,7273,22447
19597,7231,22360
19539,7195,22276
19476,7161,22195
19396,7125,22111
19310,7087,22024
19224,7046,21935
19131,7000,21839
19029,6950,21735
18941,6904,21634
18883,6868,21547
18844,6838,21473
18809,6809,21407
18782,6781,21353
18763,6760,21310
18737,6745,21270
18698,6726,21226
18658,6704,21180
18624,6683,21135
18582,6656,21081
18527,6626,21015
18477,6599,20949
18435,6579,20889
18387,6560,20833
18324,6538,20770
18258,6514,20697
18194,6488,20623
18124,6457,20545
18051,6421,20463
17987,6387,20381
17932,6360,20305
17873,6334,20234
17811,6310,20169
17763,6294,20119
17731,6285,20090
17708,6279,20081
17705,6279,20096
17742,6296,20145
17824,6337,20238
17947,6399,20379
18114,6484,20577
18333,6601,20841
18597,6747,21167
18895,6913,21542
19231,7096,21959
19607,7294,22414
20011,7507,22902
20430,7732,23410
20869,7967,23928
21323,8210,24452
21764,8447,24966
22171,8668,25453
22551,8874,25907
22897,9062,26325
23193,9226,26696
23435,9360,27011
23631,9466,27269
23791,9551,27475
23906,9613,27625
23971,9647,27715
24000,9662,27758
23996,9663,27770
23949,9645,27750
23875,9607,27694
23797,9559,27616
23722,9513,27529
23643,9470,27439
23562,9426,27343
23496,9385,27250
23447,9352,27166
23400,9323,27091
23351,9292,27016
23307,9264,26943
23266,9239,26874
23216,9211,26802
23157,9178,26724
23108,9144,26648
23068,9116,26582
23025,9091,26523
22977,9067,26469
22939,9052,26429
22906,9042,26396
22867,9030,26357
22829,9013,26312
22799,8993,26263
22772,8972,26214
22745,8949,26162
22726,8927,26111
22720,8913,26070
22718,8903,26040
22710,8893,26013
22701,8886,25989
22695,8883,25973
22681,8880,25961
22659,8872,25948
22643,8862,25937
22642,8860,25937
22644,8865,25945
22642,8873,25955
22651,8886,25975
22669,8903,26008
22681,8915,26043
22682,8914,26065
22686,8909,26078
22700,8912,26094
22716,8917,26113
22729,8921,26129
22752,8929,26143
22778,8943,26158
22790,8956,26166
22787,8960,26161
22780,8957,26149
22772,8951,26138
22752,8940,26119
22717,8919,26082
22678,8894,26029
22635,8868,25966
22577,8838,25896
22504,8801,25817
22429,8764,25733
22353,8724,25643
22264,8675,25537
22165,8618,25417
22070,8565,25294
21978,8513,25175
21878,8456,25055
21773,8395,24935
21671,8338,24824
21572,8283,24720
21471,8229,24612
21378,8180,24503
21305,8140,24405
21240,8103,24318
21172,8067,24233
21111,8034,24152
21060,8005,24076
21005,7976,24003
20941,7940,23924
20875,7902,23834
20813,7869,23743
20742,7834,23649
20657,7790,23543
20573,7740,23434
20492,7690,23330
20399,7640,23223
20295,7585,23109
20197,7534,22995
20118,7493,22893
20050,7456,22805
19998,7425,22729
19972,7405,22675
19965,7396,22641
19956,7389,22614
19945,7382,22583
19938,7379,22552
19931,7376,22522
19907,7363,22479
19866,7338,22425
