green_channel,red_channel,ir_channel
24841,28374,16144
24781,28323,16061
24721,28272,15971
24664,28224,15883
24606,28174,15796
24543,28123,15706
24476,28076,15608
24404,28034,15504
24326,27983,15391
24245,27924,15273
24159,27864,15155
24071,27805,15042
23984,27746,14929
23897,27688,14811
23817,27635,14694
23748,27585,14587
23688,27535,14487
23633,27488,14388
23583,27446,14290
23532,27407,14198
23476,27368,14109
23419,27328,14014
23363,27286,13916
23307,27241,13825
23247,27193,13736
23178,27145,13641
23104,27092,13538
23032,27034,13437
22963,26974,13338
22892,26914,13236
22815,26855,13131
22733,26795,13023
22647,26733,12910
22559,26670,12793
22474,26611,12679
22400,26556,12572
22328,26501,12467
22257,26447,12361
22192,26396,12258
22133,26346,12164
22074,26299,12076
22011,26258,11990
21949,26219,11901
21887,26178,11804
21823,26137,11702
21758,26101,11598
21694,26060,11495
21627,26005,11389
21557,25945,11276
21485,25887,11157
21409,25827,11035
21325,25764,10910
21236,25698,10783
21147,25633,10657
21066,25572,10545
20996,25519,10453
20944,25476,10384
20918,25454,10351
20928,25459,10369
20983,25501,10451
21090,25588,10611
21262,25725,10862
21505,25913,11212
21818,26153,11657
22198,26446,12192
22643,26791,12823
23143,27179,13549
23679,27594,14347
24241,28029,15190
24823,28481,16061
25414,28935,16942
25991,29379,17810
26541,29805,18648
27058,30207,19442
27535,30576,20177
27968,30911,20841
28356,31212,21432
28691,31471,21946
28965,31681,22378
29181,31845,22726
29349,31970,22996
29472,32056,23203
29549,32109,23353
29583,32137,23442
29586,32143,23472
29566,32129,23459
29524,32095,23412
29460,32045,23334
29377,31985,23230
29289,31922,23113
29206,31858,22994
29127,31796,22874
29054,31738,22758
28988,31680,22653
28927,31627,22562
28875,31582,22482
28833,31547,22420
28800,31518,22375
28767,31490,22336
28734,31467,22295
28708,31452,22260
28691,31444,22241
28675,31436,22230
28648,31424,22206
28611,31403,22163
28568,31372,22105
28523,31333,22040
28472,31283,21962
28410,31224,21868
28339,31159,21760
28261,31094,21642
28177,31033,21515
28087,30970,21378
27994,30901,21236
27902,30831,21092
27811,30766,20949
27724,30706,20819
27645,30649,20706
27570,30590,20602
27492,30528,20501
27421,30469,20410
27361,30415,20333
27302,30364,20259
27245,30320,20186
27197,30283,20122
27160,30250,20063
27123,30224,20006
27084,30205,19950
27043,30186,19896
27005,30159,19846
26966,30128,19799
26930,30102,19754
26897,30082,19711
26863,30060,19666
26823,30034,19616
26778,30003,19560
26731,29968,19498
26680,29929,19428
26618,29884,19339
26547,29835,19234
26472,29781,19127
26396,29725,19022
26316,29669,18911
26233,29611,18794
26143,29546,18670
26050,29472,18540
25958,29398,18404
25864,29326,18262
25763,29248,18113
25656,29163,17956
25547,29073,17792
25433,28978,17622
25313,28878,17447
25182,28775,17260
25046,28673,17065
24914,28575,16876
24789,28476,16693
24662,28378,16511
24535,28286,16330
24409,28197,16153
24283,28109,15980
24159,28020,15812
24040,27935,15651
23927,27855,15496
23818,27779,15344
23713,27704,15192
23615,27630,15042
23524,27558,14904
23437,27487,14776
23347,27417,14645
23255,27350,14510
23170,27288,14382
23094,27228,14265
23019,27172,14156
22943,27120,14050
22869,27071,13948
22798,27020,13854
22727,26968,13762
22657,26918,13669
22587,26870,13577
22516,26821,13482
22451,26776,13390
22391,26739,13308
22340,26705,13241
22291,26668,13175
22237,26627,13099
22182,26588,13017
22136,26552,12937
22093,26516,12858
22044,26476,12774
21988,26432,12688
21931,26388,12601
21873,26345,12512
21814,26300,12421
21754,26250,12327
21691,26194,12234
21620,26135,12137
21544,26081,12036
21469,26031,11938
21395,25985,11846
21318,25936,11749
21235,25881,11639
21152,25823,11525
21073,25764,11411
20992,25702,11294
20910,25640,11175
20828,25578,11060
20740,25513,10944
20649,25448,10825
20559,25385,10703
20474,25322,10585
20391,25259,10472
20310,25197,10358
20230,25140,10244
20157,25091,10139
20093,25048,10042
20034,25007,9946
19973,24962,9849
19911,24917,9758
19850,24873,9672
19792,24832,9585
19735,24797,9499
19681,24760,9416
19626,24717,9331
19564,24669,9237
19494,24616,9131
19425,24560,9024
19360,24507,8924
19295,24458,8828
19226,24410,8729
19152,24359,8624
19075,24305,8514
18998,24252,8401
18920,24201,8290
18843,24145,8182
18757,24081,8065
18659,24014,7937
18561,23948,7805
18470,23883,7673
18382,23821,7542
18295,23760,7415
18211,23698,7291
18129,23631,7173
18045,23565,7057
17960,23504,6948
17877,23450,6851
17799,23402,6764
17738,23369,6689
17705,23360,6641
17711,23382,6646
17766,23435,6717
17875,23519,6860
18043,23641,7087
18276,23807,7411
18572,24023,7838
18930,24289,8362
19345,24602,8976
19808,24951,9668
20310,25327,10423
20843,25724,11222
21392,26136,12044
21945,26550,12871
22486,26954,13682
23000,27338,14455
23483,27701,15176
23930,28036,15839
24332,28335,16435
24677,28592,16953
24963,28807,17392
25195,28983,17764
25380,29123,18071
25521,29230,18305
25612,29300,18462
25652,29334,18549
25648,29334,18572
25610,29309,18541
25549,29268,18472
25468,29210,18368
25365,29132,18234
25250,29041,18079
25129,28942,17914
25006,28840,17745
24882,28742,17576
24763,28653,17413
24650,28572,17259
24547,28495,17117
24455,28425,16988
24378,28367,16872
24313,28320,16771
24255,28278,16684
24202,28240,16602
24152,28208,16523
24109,28178,16451
24073,28143,16386
24034,28104,16318
23985,28065,16239
23925,28020,16151
23856,27966,16057
23778,27908,15950
23693,27849,15829
23606,27788,15699
23515,27718,15567
23424,27646,15431
23335,27580,15295
23245,27518,15169
23154,27459,15053
23067,27404,14945
22990,27353,14843
22926,27309,14754
22872,27271,14677
22822,27237,14613
22777,27207,14564
22738,27181,14531
22710,27159,14505
22696,27146,14486
22696,27141,14480
22705,27144,14491
22714,27153,14508
22723,27166,14523
22739,27180,14540
22755,27189,14561
22766,27195,14579
22771,27198,14589
22769,27194,14587
22760,27181,14571
22745,27165,14542
22719,27145,14494
22682,27122,14432
22635,27092,14361
22578,27054,14277
22514,27010,14177
22447,26963,14070
22379,26912,13960
22301,26851,13841
22213,26781,13712
22119,26708,13583
22022,26632,13456
21923,26556,13322
21825,26483,13179
21730,26407,13034
21628,26325,12887
21519,26244,12732
21413,26164,12573
21311,26084,12418
21207,26004,12267
21099,25928,12118
20993,25854,11973
20891,25780,11832
20794,25705,11692
20700,25631,11549
20607,25565,11408
20514,25507,11271
20418,25449,11136
20321,25389,10996
20234,25330,10855
20156,25272,10723
20080,25214,10602
20000,25157,10487
19923,25100,10381
19852,25043,10287
19784,24991,10201
19721,24948,10117
19666,24913,10038
19622,24881,9970
19578,24848,9907
19533,24816,9851
19497,24789,9805
19469,24764,9766
19438,24734,9724
19403,24704,9680
19369,24676,9635
19332,24646,9587
19295,24616,9532
19261,24591,9471
19231,24568,9405
19201,24544,9337
19169,24516,9268
19132,24490,9203
19092,24461,9144
19053,24429,9088
19012,24395,9027
18967,24359,8962
18917,24318,8891
18863,24271,8815
18802,24224,8733
18734,24179,8651
18662,24133,8570
18592,24087,8486
18527,24046,8401
18472,24011,8320
18426,23979,8239
18384,23947,8156
18336,23914,8071
18287,23880,7990
18244,23845,7915
18203,23811,7842
18159,23779,7766
18115,23748,7690
18072,23717,7613
18030,23686,7536
17986,23660,7458
17940,23632,7387
17893,23600,7322
17841,23561,7251
17781,23519,7169
17720,23476,7086
17658,23433,6998
17589,23384,6904
17519,23331,6807
17457,23284,6713
17399,23245,6626
17340,23208,6537
17276,23169,6444
17214,23126,6351
17157,23077,6260
17103,23030,6167
17052,22988,6075
17001,22946,5984
16946,22898,5893
16889,22848,5794
16833,22799,5691
16780,22756,5594
16723,22712,5499
16657,22663,5399
16586,22613,5295
16523,22567,5198
16475,22528,5124
16447,22506,5082
16445,22510,5079
16486,22549,5137
16582,22622,5269
16735,22735,5480
16955,22894,5787
17249,23103,6200
17612,23361,6714
18035,23665,7324
18512,24010,8023
19035,24392,8800
19599,24805,9638
20191,25244,10512
20796,25697,11402
21397,26144,12284
21978,26574,13139
22526,26983,13950
23036,27365,14708
23503,27713,15410
23915,28023,16038
24271,28290,16581
24579,28516,17043
24836,28702,17430
25040,28849,17739
25195,28962,17975
25310,29046,18146
25388,29099,18258
25428,29122,18322
25436,29124,18347
25421,29107,18339
25384,29069,18300
25330,29018,18233
25268,28963,18144
25200,28907,18043
25126,28848,17934
25044,28785,17811
24960,28720,17677
24881,28655,17544
24802,28590,17418
24715,28524,17295
24625,28461,17179
24539,28399,17073
24458,28335,16972
24381,28271,16869
24306,28210,16762
24228,28151,16652
24144,28086,16537
24054,28021,16412
23965,27963,16285
23882,27908,16161
23794,27849,16037
23701,27788,15909
23615,27729,15782
23537,27672,15661
23460,27616,15547
23385,27561,15442
23320,27509,15349
23268,27464,15269
23226,27425,15202
23190,27395,15148
23162,27373,15106
23143,27354,15073
23129,27337,15043
23113,27323,15015
23099,27311,14998
23094,27302,14995
23095,27298,15003
23103,27303,15020
23120,27321,15049
23147,27347,15087
23175,27375,15124
23200,27405,15159
23225,27434,15199
23249,27455,15235
23270,27471,15261
23287,27485,15278
23297,27489,15286
23295,27481,15279
23283,27464,15256
23262,27444,15219
23232,27419,15167
23189,27383,15101
23132,27339,15019
23058,27286,14922
22974,27224,14818
22885,27156,14705
22791,27083,14577
22696,27008,14437
22600,26932,14293
22499,26853,14147
22397,26776,13998
22302,26706,13858
22214,26640,13726
22129,26572,13588
22044,26503,13440
21958,26435,13297
21869,26371,13164
21780,26307,13033
21692,26242,12900
21607,26177,12767
21524,26111,12637
21439,26045,12510
21353,25980,12384
21272,25918,12261
21193,25854,12141
21110,25789,12019
21024,25721,11890
20943,25656,11766
20869,25596,11648
20791,25534,11529
20707,25474,11408
20631,25422,11298
20567,25378,11199
20508,25339,11104
20450,25303,11016
20391,25265,10939
20332,25222,10865
20278,25181,10789
20235,25146,10712
20198,25112,10642
20157,25075,10577
20109,25037,10510
20061,25001,10441
20018,24966,10376
19982,24934,10312
19950,24907,10246
19920,24887,10183
19886,24863,10121
19840,24829,10055
19788,24790,9981
19736,24754,9909
19687,24722,9847
19639,24690,9787
19589,24654,9717
19541,24614,9641
19496,24574,9565
19451,24535,9487
19398,24495,9403
19336,24452,9314
19270,24406,9226
19201,24359,9141
19130,24313,9055
19061,24267,8969
18993,24218,8881
18923,24166,8785
18853,24115,8683
18790,24070,8584
18731,24027,8494
18666,23980,8405
18593,23931,8311
18524,23881,8213
18459,23830,8111
18392,23779,8004
18326,23733,7896
18264,23692,7792
18204,23650,7693
18138,23606,7593
18069,23562,7489
18002,23516,7383
17935,23467,7278
17862,23417,7173
17788,23368,7069
17715,23319,6968
17643,23267,6868
17570,23214,6764
17498,23164,6661
17428,23115,6565
17360,23064,6470
17294,23014,6374
17234,22969,6282
17179,22927,6193
17126,22884,6103
17074,22842,6010
17019,22798,5916
16958,22749,5823
16891,22698,5729
16823,22649,5631
16758,22603,5529
16691,22553,5424
16617,22495,5311
16535,22433,5189
16453,22375,5067
16373,22319,4948
16294,22262,4835
16221,22211,4732
16168,22174,4652
16142,22157,4613
16150,22169,4630
16205,22219,4718
16320,22310,4890
16504,22447,5158
16760,22635,5529
17091,22877,6009
17490,23168,6595
17949,23499,7274
18460,23868,8031
19017,24274,8849
19606,24708,9712
20209,25152,10601
20802,25592,11487
21373,26021,12350
21915,26433,13180
22422,26816,13959
22886,27162,14672
23301,27471,15313
23663,27742,15881
23969,27969,16369
24222,28155,16771
24419,28303,17092
24560,28416,17343
24658,28495,17529
24720,28545,17646
24747,28569,17698
24742,28568,17705
24708,28542,17677
24648,28498,17608
24567,28440,17504
24474,28370,17381
24373,28290,17249
24266,28208,17105
24159,28128,16957
24059,28047,16818
23969,27970,16684
23884,27899,16553
23812,27840,16433
23755,27787,16331
23702,27735,16242
23652,27691,16168
23611,27661,16110
23575,27636,16062
23540,27613,16018
23505,27591,15972
23466,27568,15922
23421,27538,15865
23364,27502,15798
23295,27460,15722
23221,27410,15635
23145,27352,15543
23063,27288,15436
22974,27223,15309
22887,27154,15175
22800,27083,15042
22709,27014,14908
22613,26949,14771
22517,26884,14636
22424,26815,14505
22342,26752,14385
22274,26701,14278
22220,26656,14189
22177,26617,14114
22144,26588,14053
22120,26571,14009
22101,26562,13983
22086,26556,13967
22071,26551,13955
22060,26546,13947
22055,26543,13947
22050,26540,13947
22040,26540,13940
22031,26543,13926
22028,26544,13913
22024,26543,13900
22009,26538,13880
21980,26526,13846
21941,26504,13805
21894,26473,13757
21839,26439,13694
21776,26402,13624
21708,26356,13549
21631,26300,13459
21549,26243,13352
21471,26186,13239
21395,26126,13125
21315,26060,13004
21228,25987,12874
21139,25909,12740
21051,25831,12602
20960,25760,12461
20873,25696,12317
20791,25635,12177
20709,25574,12042
20624,25514,11902
20539,25457,11756
20454,25398,11613
20368,25334,11475
20274,25264,11332
20167,25187,11181
20050,25103,11026
19932,25016,10873
19816,24933,10718
19704,24856,10562
19596,24780,10408
19491,24704,10255
19388,24632,10100
19287,24559,9949
19188,24482,9806
19087,24399,9669
18985,24318,9538
18886,24245,9415
18792,24179,9302
18706,24119,9196
18629,24063,9091
18561,24014,8992
18503,23973,8904
18450,23939,8820
18398,23904,8732
18349,23870,8645
18303,23833,8564
18258,23798,8487
18209,23767,8412
18155,23733,8339
18095,23692,8265
18036,23650,8191
17977,23611,8116
17917,23570,8039
17857,23529,7961
17800,23488,7881
17747,23448,7797
17700,23407,7716
17655,23366,7638
17609,23324,7553
17560,23283,7464
17512,23244,7379
17464,23207,7301
17411,23172,7225
17354,23137,7146
17302,23102,7069
17252,23064,6995
17200,23027,6920
17152,22994,6840
17109,22961,6760
17064,22923,6680
17013,22882,6595
16962,22840,6507
16914,22801,6425
16862,22760,6346
16800,22712,6263
16732,22662,6171
16662,22609,6072
16586,22552,5973
16505,22497,5871
16426,22447,5764
16351,22397,5654
16279,22343,5536
16210,22290,5412
16145,22242,5292
16078,22197,5178
16003,22149,5065
15923,22097,4949
15844,22044,4836
15769,21988,4732
15690,21931,4632
15615,21879,4534
15550,21834,4438
15493,21790,4349
15438,21749,4266
15384,21713,4183
15332,21678,4103
15282,21642,4026
15230,21605,3941
15171,21564,3847
15113,21526,3754
15057,21493,3671
14996,21459,3590
14933,21423,3505
14873,21385,3420
14817,21342,3332
14758,21294,3237
14696,21249,3142
14628,21205,3051
14552,21159,2955
14469,21109,2848
14383,21055,2728
14297,20998,2602
14214,20941,2478
14133,20885,2359
14055,20833,2251
13983,20787,2161
13932,20752,2101
13922,20743,2087
13965,20770,2138
14060,20833,2269
14212,20936,2491
14432,21089,2810
14729,21300,3235
15102,21566,3772
15538,21878,4409
16025,22230,5128
16561,22616,5915
17136,23029,6759
17735,23460,7644
18340,23898,8544
18934,24329,9434
19507,24744,10289
20050,25138,11095
20552,25505,11840
21000,25835,12521
21393,26124,13131
21734,26377,13663
22028,26596,14115
22275,26780,14492
22470,26926,14796
22612,27030,15021
22707,27098,15174
22767,27139,15273
22795,27160,15328
22789,27158,15337
22752,27134,15309
22693,27095,15254
22620,27042,15173
22535,26981,15062
22443,26918,14932
22347,26850,14797
22248,26773,14661
22149,26696,14520
22055,26621,14379
21970,26553,14246
21894,26493,14125
21824,26438,14014
21762,26391,13919
21710,26353,13841
21670,26325,13780
21637,26303,13729
21606,26283,13687
21576,26257,13653
21545,26226,13616
21514,26197,13571
21483,26168,13521
21445,26134,13467
21393,26093,13401
21331,26048,13320
21269,26003,13234
21212,25960,13150
21156,25918,13062
21093,25873,12963
21025,25821,12859
20958,25766,12757
20897,25717,12664
20846,25680,12579
20801,25651,12503
20760,25622,12438
20720,25593,12378
20683,25568,12319
20652,25548,12268
20627,25528,12227
20601,25506,12193
20574,25486,12164
20553,25473,12146
20542,25466,12136
20537,25463,12127
20534,25464,12117
20530,25465,12105
20520,25462,12083
20503,25452,12051
20485,25438,12017
20464,25423,11989
20438,25407,11963
20407,25388,11932
20376,25368,11891
20344,25340,11843
20306,25306,11785
20260,25269,11713
20206,25232,11630
20148,25191,11543
20086,25145,11451
20022,25095,11346
19955,25042,11229
19886,24982,11110
19811,24917,10989
19727,24849,10858
19640,24782,10717
19553,24712,10572
19464,24645,10424
19369,24581,10271
19271,24513,10111
19171,24439,9947
19068,24362,9784
18959,24284,9622
18851,24206,9467
18747,24129,9320
18640,24053,9174
18527,23978,9025
18416,23907,8882
18318,23839,8745
18226,23773,8611
18142,23714,8487
18067,23661,8375
17995,23607,8269
17927,23553,8164
17865,23506,8059
17804,23457,7957
17739,23406,7857
17668,23356,7759
17597,23310,7664
17530,23264,7574
17465,23218,7490
17401,23173,7409
17336,23126,7326
17272,23075,7243
17209,23022,7157
17147,22972,7068
17089,22931,6978
17032,22896,6888
16971,22860,6796
16909,22825,6703
16852,22793,6612
16799,22761,6525
16748,22726,6445
16695,22693,6367
16641,22659,6290
16588,22621,6215
16538,22581,6142
16489,22543,6067
16442,22502,5990
16395,22459,5908
16345,22416,5824
16293,22376,5737
16244,22342,5648
16198,22311,5559
16152,22276,5466
16100,22240,5369
16042,22204,5273
15979,22164,5182
15916,22122,5090
15852,22077,4994
15778,22025,4894
15692,21966,4786
15603,21904,4674
15517,21848,4563
15437,21799,4460
15360,21753,4362
15284,21706,4260
15213,21660,4155
15149,21615,4059
15086,21573,3976
15020,21531,3896
14954,21488,3810
14895,21444,3720
14840,21397,3629
14789,21349,3537
14738,21303,3447
14683,21257,3359
14622,21207,3271
14554,21160,3179
14482,21117,3085
14412,21076,2994
14344,21034,2899
14270,20988,2794
14193,20939,2680
14116,20890,2568
14043,20844,2459
13970,20797,2353
13896,20747,2249
13819,20691,2144
13738,20631,2035
13658,20575,1920
13580,20527,1806
13501,20476,1692
13415,20419,1568
13323,20360,1431
13236,20302,1292
13158,20246,1155
13084,20192,1021
13009,20140,893
12936,20090,780
12869,20043,680
12815,20002,595
12779,19977,536
12772,19977,524
12808,20012,576
12893,20087,701
13031,20200,909
13230,20353,1211
13496,20545,1609
13828,20780,2101
14223,21060,2684
14679,21377,3352
15186,21725,4087
15726,22100,4868
16285,22495,5681
16850,22897,6511
17408,23296,7342
17947,23684,8151
18458,24051,8917
18938,24391,9632
19384,24703,10294
19786,24988,10895
20137,25240,11424
20431,25454,11878
20664,25627,12249
20847,25765,12542
20992,25876,12774
21099,25959,12954
21161,26010,13070
21184,26031,13124
21179,26032,13129
21152,26017,13100
21106,25988,13044
21041,25944,12963
20963,25886,12862
20875,25816,12748
20786,25742,12625
20700,25669,12495
20619,25599,12366
20543,25535,12243
20469,25473,12122
20393,25415,12000
20320,25363,11879
20253,25314,11767
20187,25267,11665
20120,25227,11570
20056,25190,11487
19995,25152,11411
19934,25113,11336
19871,25077,11257
19806,25038,11176
19742,24994,11087
19671,24942,10987
19593,24884,10875
19515,24825,10761
19443,24767,10648
19373,24710,10535
19304,24654,10425
19243,24602,10327
19193,24552,10243
19158,24509,10172
19136,24480,10116
19125,24465,10080
19116,24458,10060
19110,24458,10050
19112,24463,10050
19126,24473,10067
19148,24488,10100
19179,24510,10140
19218,24536,10188
19262,24563,10245
19304,24589,10305
19346,24615,10363
19391,24646,10421
19438,24677,10478
19476,24703,10525
19501,24724,10554
19515,24742,10574
19519,24751,10586
19510,24751,10589
19491,24744,10575
19463,24728,10545
19427,24701,10501
19383,24670,10442
19333,24636,10372
19278,24598,10296
19222,24558,10219
19161,24514,10133
19093,24467,10032
19021,24419,9925
18947,24366,9816
18866,24306,9698
18781,24240,9569
18694,24169,9433
18604,24099,9295
18508,24031,9156
18412,23965,9018
18320,23900,8885
18227,23830,8760
18133,23760,8637
18044,23696,8514
17960,23638,8393
17878,23579,8275
17794,23524,8157
17711,23472,8038
17631,23423,7920
17553,23371,7802
17478,23321,7686
17413,23275,7581
17359,23230,7486
17307,23187,7394
17256,23145,7300
17210,23109,7213
17171,23079,7138
17130,23051,7068
17084,23022,6994
17037,22994,6920
16992,22964,6848
16945,22929,6778
16894,22893,6711
16840,22854,6644
16788,22810,6576
16743,22767,6505
16700,22726,6430
16658,22687,6356
16619,22650,6289
16585,22619,6227
16556,22597,6172
16532,22579,6126
16509,22560,6086
16484,22538,6041
16457,22517,5988
16431,22498,5934
16409,22478,5882
16382,22458,5827
16349,22437,5769
16319,22415,5711
16291,22392,5651
16260,22367,5586
16223,22339,5518
16181,22307,5449
16131,22270,5373
16074,22230,5291
16017,22192,5212
15960,22157,5140
15901,22124,5069
15834,22088,4993
15765,22052,4913
15702,22016,4837
15637,21979,4765
15570,21941,4691
15505,21905,4614
15442,21862,4532
15379,21815,4439
15316,21770,4339
15253,21729,4237
15189,21686,4135
15120,21633,4027
15051,21578,3914
14990,21527,3807
14935,21479,3709
14875,21427,3611
14812,21375,3511
14749,21328,3410
14689,21281,3311
14631,21233,3215
14571,21191,3125
14508,21151,3042
14442,21105,2960
14378,21057,2875
14316,21012,2788
14253,20970,2703
14190,20930,2617
14124,20890,2523
14053,20849,2418
13985,20803,2311
13925,20756,2204
13866,20711,2098
13801,20670,1994
13743,20633,1896
13701,20605,1812
13681,20591,1757
13689,20598,1745
13730,20629,1787
13811,20686,1894
13945,20780,2081
14140,20919,2364
14401,21105,2749
14723,21335,3232
15103,21608,3804
15539,21921,4455
16032,22270,5175
16569,22649,5952
17132,23051,6771
17705,23465,7613
18280,23879,8462
18842,24283,9299
19375,24670,10104
19876,25035,10863
20338,25368,11562
20752,25665,12183
21113,25927,12719
21423,26155,13180
21686,26351,13577
21895,26512,13904
22049,26641,14158
22162,26740,14348
22237,26805,14483
22275,26838,14566
22279,26844,14598
22254,26829,14584
22205,26790,14535
22141,26735,14457
22069,26674,14360
21991,26609,14251
21904,26539,14136
21808,26463,14014
21711,26389,13884
21618,26317,13754
21532,26248,13631
21453,26185,13513
21381,26133,13402
21318,26087,13306
21263,26043,13223
21210,26005,13147
21157,25972,13073
21105,25940,13001
21056,25904,12932
21004,25867,12861
20946,25826,12781
20881,25777,12690
20813,25718,12587
20749,25658,12474
20690,25606,12360
20631,25555,12254
20564,25502,12153
20495,25454,12052
20437,25418,11956
20389,25388,11876
20348,25357,11809
20310,25331,11749
20279,25315,11703
20263,25306,11676
20263,25305,11669
20275,25317,11683
20296,25341,11717
20326,25371,11766
20364,25403,11823
20408,25434,11875
20454,25465,11927
20503,25493,11984
20551,25514,12036
20590,25530,12077
20623,25547,12117
20654,25566,12160
20672,25580,12196
20677,25586,12220
20672,25584,12230
20654,25572,12221
20624,25552,12189
20590,25529,12139
20554,25498,12077
20510,25457,12005
20459,25411,11923
20407,25367,11835
20354,25321,11748
20292,25273,11658
20221,25224,11555
20141,25170,11437
20057,25106,11313
19970,25037,11186
19879,24971,11058
19782,24906,10924
19683,24835,10788
19584,24763,10650
19488,24698,10509
19396,24638,10367
19302,24572,10228
19202,24500,10089
19101,24428,9946
19004,24359,9803
18914,24293,9669
18827,24227,9539
18742,24163,9413
18659,24102,9294
18578,24042,9180
18501,23983,9069
18431,23933,8964
18370,23892,8867
18315,23853,8777
18264,23815,8690
18217,23780,8605
18172,23747,8521
18129,23712,8440
18087,23676,8359
18046,23638,8280
18011,23599,8209
17979,23562,8145
17941,23527,8081
17895,23493,8012
17848,23461,7941
17801,23430,7872
17749,23399,7805
17693,23367,7737
17639,23334,7666
17585,23296,7591
17530,23258,7510
17475,23224,7426
17424,23192,7345
17380,23160,7268
17337,23130,7193
17292,23099,7118
17247,23067,7044
17204,23036,6972
17158,23004,6902
17107,22971,6836
17057,22936,6770
17006,22897,6698
16954,22859,6623
16907,22823,6551
16863,22787,6480
16813,22747,6401
16760,22704,6315
16710,22664,6224
16663,22623,6131
16610,22579,6042
16546,22534,5953
16478,22489,5862
16410,22440,5768
16340,22390,5672
16270,22344,5580
16198,22299,5488
16122,22251,5395
16049,22204,5303
15981,22162,5216
15921,22126,5137
15866,22094,5062
15809,22059,4985
15753,22019,4905
15703,21979,4824
15657,21936,4743
15609,21890,4657
15554,21844,4559
15495,21799,4455
15438,21754,4352
15386,21712,4248
15337,21673,4146
15287,21636,4053
15236,21598,3965
15176,21561,3872
15108,21525,3777
15042,21490,3692
14980,21452,3610
14917,21409,3520
14856,21360,3423
14800,21312,3332
14746,21266,3250
14691,21224,3172
14635,21187,3091
14577,21150,3012
14520,21110,2931
14465,21073,2844
14411,21038,2760
14361,21005,2686
14322,20978,2629
14301,20966,2597
14312,20973,2605
14364,21009,2669
14459,21079,2801
14607,21188,3010
14817,21341,3311
15090,21540,3712
15422,21781,4207
15818,22065,4789
16282,22393,5459
16806,22760,6208
17368,23156,7015
17956,23576,7861
18558,24010,8730
19156,24444,9602
19737,24871,10465
20291,25287,11301
20813,25681,12091
21290,26043,12824
21719,26372,13490
22104,26669,14082
22442,26929,14600
22727,27146,15046
22964,27323,15417
23161,27468,15719
23315,27581,15962
23420,27658,16147
23481,27704,16270
23512,27727,16338
23523,27732,16372
23512,27720,16375
23478,27692,16343
23430,27652,16283
23375,27605,16210
23313,27559,16129
23245,27517,16040
23175,27476,15948
23107,27432,15855
23042,27382,15760
22981,27333,15670
22927,27291,15594
22881,27254,15534
22843,27219,15482
22816,27190,15435
22804,27171,15402
22799,27156,15382
22790,27142,15365
22772,27132,15345
22753,27124,15323
22733,27112,15299
22702,27094,15264
22663,27068,15212
22621,27034,15145
22571,26992,15070
22512,26950,14986
22451,26910,14891
22388,26867,14790
22325,26817,14685
22268,26766,14582
22220,26722,14486
22174,26684,14402
22125,26646,14330
22078,26612,14265
22042,26588,14207
22024,26571,14162
22019,26559,14128
22019,26551,14098
22021,26549,14075
22023,26549,14066
22027,26550,14072
22036,26558,14089
22053,26576,14113
22072,26594,14141
22090,26607,14171
22107,26620,14196
22121,26632,14217
22131,26638,14236
22135,26632,14244
22134,26621,14237
22130,26611,14218
22114,26599,14187
22080,26577,14141
22033,26548,14080
21984,26514,14007
21932,26471,13926
21868,26417,13834
21790,26357,13721
21711,26296,13600
21631,26234,13481
21546,26171,13358
21458,26108,13227
21372,26042,13093
21284,25971,12955
21186,25895,12809
21081,25820,12657
20973,25748,12507
20866,25674,12364
20766,25602,12230
20679,25538,12101
20601,25480,11977
20523,25419,11856
20440,25357,11734
20358,25302,11612
20285,25251,11494
20221,25199,11381
20157,25148,11267
20088,25098,11154
20018,25048,11047
19948,24997,10947
19879,24944,10852
19817,24893,10762
19764,24846,10678
19709,24800,10594
19654,24757,10508
19601,24717,10420
19550,24678,10335
19497,24639,10254
19440,24601,10172
19382,24566,10088
19324,24528,10004
19264,24485,9920
19203,24443,9836
19154,24409,9761
19112,24378,9696
19067,24344,9633
19023,24311,9568
18983,24284,9505
18945,24253,9444
18900,24217,9379
18855,24181,9310
18818,24148,9243
18788,24115,9178
18751,24079,9112
18707,24046,9042
18659,24016,8972
18607,23983,8901
18546,23946,8827
18483,23910,8751
18422,23874,8676
18361,23833,8599
18299,23790,8517
18240,23751,8430
18179,23715,8341
18114,23674,8251
18047,23629,8161
17982,23584,8071
17924,23541,7987
17869,23499,7904
17815,23455,7812
17761,23412,7711
17710,23373,7612
17656,23336,7522
17593,23296,7437
17528,23254,7352
17461,23210,7268
17394,23163,7180
17328,23115,7091
17268,23069,7006
17212,23023,6923
17157,22974,6835
17096,22924,6739
17032,22874,6637
16966,22827,6533
16898,22781,6428
16824,22735,6318
16746,22689,6208
16669,22640,6099
16595,22587,5992
16521,22536,5884
16446,22489,5777
16372,22441,5673
16305,22392,5565
16242,22346,5454
16179,22301,5346
16115,22252,5244
16052,22201,5143
15988,22151,5042
15921,22103,4940
15852,22054,4839
15782,22003,4734
15710,21954,4628
15640,21906,4526
15573,21855,4427
15499,21798,4323
15421,21740,4215
15347,21688,4116
15287,21647,4034
15241,21620,3973
15217,21613,3946
15226,21629,3972
15283,21675,4063
15394,21761,4234
15570,21895,4498
15818,22080,4866
16139,22311,5336
16524,22586,5899
16970,22904,6547
17474,23264,7276
18022,23655,8068
18594,24066,8898
19169,24487,9746
19740,24908,10592
20303,25322,11419
20847,25725,12217
21359,26109,12976
21827,26464,13683
22246,26785,14323
22618,27073,14893
22948,27331,15396
23231,27554,15836
23460,27735,16201
23641,27875,16488
23782,27982,16712
23887,28054,16882
23950,28094,16994
23972,28108,17046
23965,28101,17051
23935,28073,17020
23882,28028,16958
23811,27976,16872
23732,27919,16772
23655,27857,16666
23583,27795,16558
23515,27740,16453
23452,27695,16363
23393,27655,16292
23342,27626,16235
23300,27609,16188
23271,27598,16152
23254,27589,16127
23243,27580,16107
23231,27571,16091
23219,27563,16077
23204,27551,16056
23180,27530,16016
23150,27501,15959
23113,27469,15892
23063,27431,15814
23002,27390,15720
22935,27345,15616
22866,27291,15512
22791,27227,15405
22710,27159,15291
22626,27093,15170
22549,27032,15054
22481,26973,14945
22418,26919,14841
22359,26873,14744
22303,26828,14652
22249,26783,14568
22203,26746,14498
22167,26720,14446
22139,26704,14415
22116,26694,14396
22098,26687,14384
22089,26685,14384
22090,26687,14396
22092,26692,14409
22098,26699,14421
22111,26709,14436
22125,26717,14452
22133,26722,14461
22138,26725,14463
22144,26725,14461
22144,26717,14454
22134,26707,14434
22115,26695,14394
22086,26675,14343
22043,26645,14285
21987,26605,14210
21920,26557,14116
21847,26502,14014
21772,26439,13911
21691,26374,13799
21606,26313,13680
21519,26252,13559
21433,26188,13435
21342,26126,13304
21247,26066,13164
21151,26000,13021
21053,25925,12882
20960,25853,12750
20873,25791,12622
20790,25736,12498
20709,25681,12372
20629,25624,12240
20554,25567,12106
20483,25507,11981
20406,25442,11858
20322,25376,11733
20237,25312,11610
20158,25251,11493
20084,25192,11382
20008,25136,11277
19928,25077,11172
19846,25014,11064
19769,24952,10956
19698,24897,10848
19633,24848,10745
19576,24803,10653
19525,24763,10569
19481,24733,10487
19442,24707,10415
19401,24680,10353
19355,24653,10292
19305,24626,10226
19255,24598,10161
19208,24566,10101
19162,24535,10037
19117,24508,9968
19075,24483,9902
19033,24456,9839
18990,24425,9775
18949,24394,9713
18906,24359,9654
18856,24318,9594
18803,24276,9528
18753,24239,9462
18708,24206,9401
18666,24173,9344
18623,24141,9282
18581,24112,9217
18542,24084,9155
18505,24060,9099
18468,24041,9048
18436,24023,8995
18411,24004,8942
18388,23980,8885
18362,23954,8819
18330,23929,8754
18292,23901,8695
18245,23871,8636
18195,23839,8568
18147,23807,8494
18100,23775,8420
18056,23742,8346
18016,23709,8268
17979,23677,8192
17939,23640,8121
17896,23602,8050
17848,23564,7978
17794,23525,7905
17737,23486,7834
17681,23445,7763
17623,23404,7689
17568,23367,7614
17523,23334,7539
17477,23297,7454
17424,23258,7359
17374,23222,7264
17327,23186,7173
17278,23150,7085
17227,23118,6998
17175,23081,6913
17117,23036,6826
17055,22988,6737
16995,22946,6648
16938,22904,6558
16877,22858,6462
16807,22806,6356
16731,22753,6246
16651,22695,6139
16567,22636,6032
16480,22579,5922
16394,22525,5808
16309,22470,5693
16225,22414,5580
16141,22361,5467
16056,22310,5355
15970,22254,5246
15881,22197,5141
15804,22148,5053
15756,22121,4995
15744,22117,4983
15773,22139,5027
15852,22199,5140
15997,22308,5341
16215,22464,5642
16499,22669,6042
16851,22923,6537
17269,23225,7127
17746,23567,7804
18266,23940,8554
18815,24340,9357
19382,24756,10192
19957,25178,11036
20527,25598,11866
21084,26009,12669
21613,26400,13431
22097,26759,14136
22531,27085,14774
22913,27378,15341
23242,27631,15834
23514,27840,16253
23728,28005,16596
23891,28133,16863
24013,28225,17067
24092,28281,17214
24125,28305,17303
24122,28304,17339
24093,28284,17335
24045,28247,17295
23975,28198,17223
23890,28145,17128
23807,28092,17025
23733,28038,16923
23660,27982,16817
23589,27926,16711
23520,27868,16612
23451,27810,16518
23386,27760,16430
23331,27725,16357
23286,27701,16298
23245,27677,16239
23203,27654,16179
23164,27632,16121
23127,27608,16071
23091,27579,16019
23052,27547,15955
23009,27509,15879
22965,27464,15795
22916,27418,15705
22857,27373,15605
22791,27326,15500
22720,27271,15396
22651,27216,15291
22586,27165,15187
22523,27116,15090
22461,27067,15004
22406,27025,14925
22360,26992,14854
22328,26970,14804
22311,26956,14779
22302,26948,14767
22300,26950,14761
22313,26960,14774
22340,26975,14803
22371,26995,14835
22406,27017,14868
22444,27044,14908
22476,27075,14959
22504,27103,15010
22529,27125,15060
22550,27141,15108
22569,27149,15145
22587,27155,15171
22601,27166,15192
22610,27178,15211
22616,27184,15223
22620,27186,15222
22618,27186,15210
22612,27179,15192
22598,27165,15165
22573,27144,15120
22541,27116,15054
22505,27081,14975
22457,27037,14882
22394,26988,14773
22323,26933,14654
22247,26872,14534
22167,26812,14416
22081,26757,14295
21988,26700,14168
21891,26633,14034
21797,26560,13901
21709,26492,13772
21624,26427,13645
21543,26361,13521
21466,26298,13399
21392,26237,13277
21320,26176,13157
21250,26117,13043
21177,26058,12927
21102,25999,12805
21032,25944,12687
20972,25895,12578
20918,25854,12479
20867,25820,12389
20820,25789,12316
20775,25758,12259
20726,25729,12209
20675,25702,12156
20629,25672,12104
20587,25638,12054
20546,25604,12002
20511,25573,11952
20485,25549,11906
20460,25527,11859
20432,25508,11807
20408,25491,11754
20389,25474,11705
20367,25453,11654
20336,25426,11591
20302,25397,11520
20272,25371,11453
20247,25349,11394
20218,25328,11337
20181,25304,11275
20143,25273,11211
20103,25238,11148
20059,25207,11083
20015,25178,11020
19974,25149,10962
19935,25121,10907
19898,25100,10849
19865,25084,10794
19833,25065,10745
19797,25038,10691
19757,25006,10628
19720,24972,10563
19682,24935,10500
19636,24893,10431
19587,24849,10358
19543,24809,10289
19499,24773,10223
19449,24734,10152
19397,24693,10075
19346,24657,10001
19294,24626,9933
19243,24599,9864
19198,24571,9795
19153,24539,9725
19105,24500,9652
19054,24455,9575
19003,24413,9496
18953,24371,9420
18903,24329,9346
18849,24289,9269
18790,24253,9189
18732,24218,9108
18675,24182,9021
18622,24146,8930
18570,24111,8842
18518,24074,8756
18462,24032,8667
18405,23987,8575
18349,23945,8484
18292,23899,8395
18227,23847,8305
18157,23795,8213
18091,23749,8120
18024,23704,8023
17952,23653,7922
17878,23602,7818
17814,23558,7719
17761,23517,7625
17710,23481,7539
17663,23451,7473
17631,23431,7432
17625,23428,7429
17663,23454,7481
17749,23516,7597
17888,23621,7789
18089,23770,8077
18353,23964,8461
18678,24206,8938
19066,24498,9510
19515,24834,10166
20007,25202,10881
20531,25590,11640
21078,25992,12436
21636,26401,13250
22191,26811,14062
22733,27219,14855
23248,27612,15612
23728,27978,16321
24164,28316,16970
24554,28625,17552
24894,28898,18072
25182,29129,18525
25416,29321,18900
25600,29473,19202
25743,29585,19443
25848,29662,19624
25918,29712,19750
25957,29737,19828
25969,29739,19864
25957,29721,19859
25928,29691,19823
25890,29654,19770
25844,29609,19706
25788,29556,19631
25722,29504,19547
25657,29457,19464
25598,29411,19385
25543,29365,19306
25491,29324,19226
25449,29291,19158
25415,29264,19108
25383,29242,19073
25354,29225,19043
25330,29212,19015
25306,29199,18986
25283,29185,18952
25265,29170,18911
25248,29155,18866
25226,29134,18812
25196,29106,18742
25157,29071,18657
25111,29034,18565
25061,28995,18471
25001,28950,18374
24931,28899,18275
24866,28848,18185
24812,28803,18104
24769,28764,18027
24735,28736,17953
24714,28713,17895
24705,28695,17858
24701,28687,17838
24699,28691,17831
24702,28699,17835
24709,28707,17850
24720,28717,17867
24738,28734,17888
24768,28756,17923
24806,28778,17967
24844,28796,18004
24882,28816,18033
24923,28837,18063
24964,28855,18089
24993,28864,18105
25004,28865,18111
25000,28859,18108
24989,28852,18096
24974,28846,18074
24960,28838,18049
24943,28825,18021
24915,28804,17982
24878,28772,17926
24841,28734,17863
24797,28691,17794
24739,28642,17707
24669,28588,17601
24595,28532,17486
24520,28475,17368
24440,28416,17242
24355,28353,17110
24268,28286,16977
24179,28214,16843
24092,28141,16703
24006,28070,16558
23919,27997,16410
23821,27918,16259
23720,27838,16103
23627,27761,15950
23540,27690,15809
23453,27622,15678
23365,27560,15545
23283,27504,15415
23210,27453,15300
23142,27406,15198
23072,27361,15097
22998,27314,14991
22924,27263,14884
22856,27207,14780
22792,27154,14681
22734,27112,14590
22683,27077,14507
22631,27040,14425
22577,27001,14341
22526,26960,14260
22475,26917,14187
22416,26872,14117
22351,26824,14039
22290,26776,13952
22240,26729,13867
22195,26687,13785
22145,26652,13701
22093,26620,13617
22048,26589,13539
22009,26556,13466
21971,26528,13396
21934,26509,13332
21894,26494,13272
21848,26473,13213
21799,26451,13155
21758,26428,13101
21725,26401,13050
21692,26367,12999
21655,26331,12944
21617,26296,12883
21576,26257,12816
21531,26215,12739
21485,26171,12659
21441,26125,12582
21398,26076,12502
21351,26029,12414
21298,25987,12325
21242,25945,12239
21180,25900,12151
21113,25854,12059
21045,25809,11962
20979,25766,11866
20912,25722,11776
20846,25676,11685
20789,25633,11595
20740,25594,11511
20694,25555,11432
20643,25516,11353
20592,25480,11277
20541,25444,11202
20487,25404,11116
20430,25362,11019
20373,25317,10923
20316,25270,10835
20255,25220,10750
20187,25174,10659
20119,25134,10566
20054,25093,10474
19983,25046,10377
19904,24995,10270
19826,24942,10161
19753,24887,10053
19683,24830,9948
19617,24776,9846
19555,24726,9750
19493,24677,9660
19434,24627,9575
19378,24581,9493
19324,24538,9413
19268,24494,9331
19211,24446,9245
19152,24401,9154
19095,24357,9064
19038,24312,8973
18981,24264,8876
18923,24216,8776
18870,24173,8684
18825,24138,8610
18787,24114,8553
18765,24105,8524
18774,24120,8540
18820,24160,8613
18911,24235,8753
19062,24355,8976
19282,24522,9294
19570,24738,9709
19926,25006,10220
20344,25326,10825
20819,25691,11515
21337,26090,12270
21882,26510,13064
22448,26943,13883
23027,27381,14719
23596,27813,15557
24136,28230,16369
24644,28626,17133
25122,28996,17848
25562,29333,18510
25953,29632,19106
26293,29890,19627
26583,30106,20078
26823,30288,20455
27017,30439,20759
27166,30556,20995
27276,30637,21172
27349,30690,21291
27388,30722,21361
27398,30739,21400
27387,30738,21415
27356,30720,21405
27308,30694,21371
27257,30666,21324
27210,30633,21274
27164,30597,21219
27120,30564,21163
27087,30538,21116
27064,30516,21079
27048,30497,21047
27039,30486,21023
27038,30481,21013
27041,30477,21018
27048,30477,21033
27061,30484,21055
27077,30493,21079
27093,30502,21101
27106,30505,21111
27113,30507,21107
27111,30504,21096
27098,30493,21072
27069,30473,21024
27034,30448,20955
26998,30419,20880
26957,30382,20797
26904,30337,20697
26842,30283,20582
26775,30223,20462
26702,30158,20341
26619,30094,20216
26533,30033,20093
26452,29973,19988
26380,29913,19897
26316,29861,19810
26262,29818,19730
26213,29782,19661
26166,29749,19601
26127,29720,19544
26096,29698,19494
26072,29683,19453
26051,29668,19414
26037,29656,19375
26032,29651,19350
26032,29648,19341
26031,29641,19335
26028,29633,19328
26027,29628,19326
26025,29623,19321
26019,29614,19303
26010,29604,19274
25995,29588,19240
25967,29564,19198
25932,29534,19143
25892,29501,19080
25846,29463,19008
25788,29417,18923
25721,29368,18819
25651,29320,18703
25578,29269,18586
25498,29210,18468
25408,29144,18344
25311,29078,18210
25213,29009,18072
25114,28934,17931
25011,28853,17781
24910,28775,17628
24817,28702,17483
24729,28632,17351
24640,28562,17219
24552,28494,17082
24470,28427,16947
24393,28361,16814
24314,28300,16682
24233,28239,16556
24153,28177,16443
24075,28116,16338
23998,28060,16237
23925,28011,16143
23859,27965,16060
23800,27920,15980
23746,27875,15897
23699,27835,15813
23658,27798,15735
23616,27761,15658
23571,27726,15578
23530,27696,15502
23497,27669,15434
23459,27635,15365
23410,27599,15288
23364,27565,15209
23320,27528,15132
23270,27487,15054
23210,27444,14974
23148,27403,14896
23089,27357,14819
23032,27310,14736
22977,27267,14650
22928,27230,14566
22883,27191,14487
22836,27153,14413
22786,27120,14346
22740,27092,14287
22694,27060,14226
22646,27024,14151
22591,26986,14065
22528,26945,13980
22462,26898,13896
22398,26849,13808
22338,26803,13716
22281,26757,13627
22217,26707,13535
22143,26653,13434
22068,26599,13327
22002,26549,13226
21943,26502,13129
21880,26458,13030
21813,26413,12928
21749,26365,12833
21691,26317,12745
21637,26276,12660
21584,26240,12576
21531,26202,12493
21479,26161,12411
21425,26118,12324
21370,26075,12241
21315,26030,12165
21257,25983,12088
21195,25934,12006
21130,25889,11925
21066,25846,11845
20996,25801,11757
20922,25754,11658
20847,25707,11556
20775,25661,11456
20704,25614,11353
20638,25567,11251
20579,25520,11158
20525,25476,11074
20474,25434,10992
20427,25392,10910
20383,25347,10827
20343,25302,10745
20301,25260,10658
20256,25222,10570
20205,25184,10481
20149,25142,10390
20090,25096,10291
20027,25050,10185
19963,25003,10079
19895,24952,9974
19820,24895,9862
19740,24837,9747
19662,24782,9638
19584,24727,9533
19506,24675,9431
19432,24628,9341
19371,24590,9275
19333,24567,9240
19328,24572,9254
19368,24613,9335
19469,24694,9497
19634,24821,9744
19866,25001,10084
20168,25238,10525
20540,25526,11065
20969,25855,11681
21446,26221,12362
21968,26621,13105
22526,27045,13902
23099,27477,14728
23670,27911,15562
24226,28333,16382
24757,28732,17172
25253,29108,17913
25709,29460,18594
26115,29775,19207
26468,30044,19750
26770,30274,20217
27026,30473,20609
27231,30639,20929
27388,30767,21181
27502,30861,21370
27581,30928,21505
27630,30973,21597
27654,30995,21646
27655,30996,21655
27635,30981,21632
27597,30953,21589
27543,30916,21529
27477,30874,21451
27407,30829,21365
27338,30777,21280
27272,30722,21199
27212,30673,21123
27162,30632,21060
27126,30598,21014
27093,30567,20976
27058,30540,20938
27026,30519,20904
27007,30504,20882
26999,30491,20866
26988,30479,20847
26967,30465,20823
26942,30451,20795
26918,30437,20760
26889,30417,20710
26851,30390,20647
26803,30353,20572
26742,30303,20478
26671,30242,20363
26591,30175,20240
26504,30105,20118
26405,30030,19990
26297,29952,19852
26190,29875,19717
26088,29795,19585
25985,29714,19450
25886,29640,19315
25799,29574,19189
25726,29514,19074
25665,29461,18969
25620,29419,18879
25589,29386,18806
25564,29360,18742
25542,29341,18689
25522,29329,18653
25504,29322,18636
25488,29314,18629
25477,29307,18624
25474,29303,18618
25473,29302,18613
25471,29298,18603
25464,29286,18584
25451,29269,18559
25430,29249,18530
25399,29225,18488
25355,29195,18427
25307,29162,18356
25257,29128,18280
25199,29087,18193
25137,29040,18092
25072,28991,17984
25001,28937,17875
24919,28875,17761
24829,28808,17638
24737,28742,17511
24645,28676,17382
24551,28606,17247
24454,28533,17106
24355,28459,16964
24251,28384,16827
24149,28310,16690
24051,28237,16548
23957,28164,16403
23864,28090,16260
23765,28012,16110
23663,27934,15952
23564,27860,15801
23465,27787,15662
23361,27715,15526
23256,27645,15385
23159,27572,15246
23068,27500,15113
22979,27433,14982
22895,27373,14856
22816,27313,14739
22733,27248,14624
22646,27183,14503
22565,27124,14380
22489,27066,14263
22412,27008,14149
22332,26951,14032
22253,26899,13917
22181,26849,13814
22111,26798,13720
22040,26745,13626
21972,26693,13531
21910,26642,13446
21853,26598,13374
21799,26559,13301
21751,26523,13226
21711,26488,13152
21673,26455,13077
21634,26424,12999
21595,26393,12922
21555,26358,12849
21510,26317,12774
21462,26274,12693
21416,26232,12613
21370,26194,12542
21321,26156,12474
21270,26120,12400
21226,26090,12325
21184,26063,12254
21131,26034,12183
21068,26003,12105
21004,25966,12023
20937,25922,11936
20867,25870,11837
20798,25817,11733
20731,25766,11630
20664,25712,11526
20592,25657,11422
20519,25608,11320
20448,25560,11222
20379,25509,11126
20310,25461,11029
20242,25418,10936
20175,25376,10850
20111,25330,10765
20046,25285,10671
19983,25243,10574
19928,25200,10484
19880,25156,10401
19832,25116,10319
19781,25079,10240
19727,25040,10164
19668,24997,10082
19609,24957,9997
19554,24921,9915
19498,24882,9840
19436,24835,9763
19366,24785,9682
19294,24735,9601
19223,24684,9518
19153,24628,9428
19081,24572,9325
19011,24516,9215
18950,24463,9112
18892,24416,9014
18833,24373,8917
18773,24330,8820
18708,24284,8724
18641,24237,8625
18575,24190,8516
18509,24141,8404
18440,24088,8295
18364,24035,8187
18284,23983,8075
18212,23935,7970
18153,23895,7878
18107,23863,7803
18076,23847,7752
18072,23850,7744
18103,23875,7794
18183,23936,7913
18322,24041,8120
18522,24193,8423
18784,24391,8819
19112,24643,9304
19505,24943,9874
19953,25280,10523
20442,25643,11234
20959,26028,11984
21494,26431,12758
22043,26845,13553
22593,27260,14355
23125,27669,15138
23631,28060,15889
24108,28424,16597
24546,28755,17244
24935,29052,17814
25268,29313,18309
25547,29532,18733
25772,29708,19082
25943,29846,19354
26062,29944,19552
26139,30004,19687
26174,30030,19762
26173,30033,19783
26147,30016,19763
26098,29978,19711
26026,29918,19627
25941,29849,19515
25857,29776,19390
25772,29701,19261
25682,29628,19131
25590,29560,19000
25496,29492,18872
25406,29426,18750
25324,29366,18639
25253,29312,18539
25193,29264,18453
25140,29222,18385
25093,29187,18325
25050,29156,18264
25013,29127,18205
24980,29097,18149
24941,29062,18086
24890,29025,18012
24833,28987,17933
24770,28943,17849
24692,28892,17749
24604,28837,17635
24515,28780,17517
24426,28717,17396
24336,28651,17271
24250,28589,17148
24172,28528,17035
24099,28467,16933
24031,28410,16838
23976,28361,16751
23939,28327,16680
23914,28303,16626
23896,28284,16583
23885,28267,16552
23887,28260,16545
23898,28264,16555
23910,28277,16570
23926,28292,16589
23948,28305,16618
23974,28316,16658
24001,28333,16701
24026,28359,16745
24049,28384,16790
24071,28405,16828
24092,28425,16854
24114,28446,16871
24131,28462,16881
24134,28468,16872
24124,28460,16842
24106,28442,16797
24076,28412,16737
24031,28373,16660
23976,28331,16574
23911,28284,16484
23837,28230,16388
23760,28171,16283
23685,28116,16170
23612,28060,16056
23532,27997,15941
23448,27931,15818
23367,27866,15688
23285,27802,15558
23201,27738,15432
23116,27675,15305
23034,27614,15173
22961,27555,15046
22895,27495,14926
22824,27433,14802
22748,27370,14671
22672,27307,14545
22597,27242,14428
22523,27180,14316
22452,27125,14210
22381,27076,14108
22311,27025,14004
22246,26976,13895
22192,26932,13795
22144,26889,13710
22092,26843,13631
22036,26798,13550
21980,26757,13469
21924,26717,13390
21870,26681,13313
21816,26648,13237
21765,26618,13163
21716,26586,13095
21669,26554,13024
21626,26521,12947
21581,26485,12866
21534,26446,12787
21489,26406,12712
21447,26367,12638
21403,26329,12566
21357,26293,12498
21314,26259,12432
21280,26229,12367
21253,26205,12309
21225,26182,12258
21192,26155,12204
21153,26127,12146
21119,26102,12090
21090,26078,12035
21057,26050,11972
21019,26015,11901
20981,25976,11832
20942,25939,11766
20903,25907,11701
20863,25882,11639
20821,25858,11582
20776,25831,11524
20730,25800,11463
20686,25769,11399
20643,25738,11337
20596,25701,11275
20543,25659,11203
20489,25620,11121
20436,25585,11045
20386,25552,10972
20337,25522,10891
20290,25491,10798
20246,25457,10705
20206,25420,10622
20165,25382,10546
20120,25345,10469
20073,25303,10395
20027,25256,10317
19981,25210,10233
19932,25168,10149
19879,25125,10069
19822,25081,9986
19762,25038,9897
19702,24999,9814
19644,24961,9737
19579,24921,9656
19508,24877,9570
19439,24833,9483
19368,24785,9389
19294,24734,9287
19222,24687,9180
19148,24639,9070
19072,24584,8955
18995,24526,8837
18920,24469,8721
18851,24412,8613
18791,24357,8513
18736,24307,8420
18690,24267,8343
18668,24246,8298
18680,24252,8301
18728,24292,8365
18822,24371,8502
18976,24491,8725
19192,24658,9038
19474,24873,9442
19826,25139,9944
20242,25450,10541
20707,25799,11216
21210,26181,11948
21745,26589,12726
22298,27002,13537
22849,27415,14355
23390,27829,15157
23919,28240,15929
24425,28632,16663
24892,28991,17345
25312,29315,17965
25680,29602,18516
25998,29849,18997
26263,30056,19406
26475,30225,19744
26636,30355,20015
26746,30444,20216
26814,30499,20352
26845,30529,20433
26844,30533,20471
26814,30514,20470
26761,30480,20428
26692,30433,20349
26611,30372,20247
26520,30296,20133
26421,30208,20004
26317,30120,19859
26214,30037,19712
26116,29962,19569
26029,29896,19437
25955,29842,19321
25892,29795,19224
25837,29754,19142
25787,29719,19067
25746,29691,18996
25713,29662,18933
25682,29631,18873
25648,29600,18814
25609,29569,18753
25565,29533,18686
25514,29488,18611
25455,29435,18523
25389,29380,18425
25317,29324,18328
25241,29266,18231
25163,29205,18128
25087,29145,18020
25018,29087,17913
24953,29035,17809
24892,28991,17712
24843,28956,17630
24804,28926,17564
24770,28898,17508
24743,28876,17461
24730,28864,17428
24736,28863,17412
24753,28869,17407
24776,28880,17409
24806,28895,17420
24851,28920,17454
24915,28959,17512
24997,29009,17590
25077,29056,17679
25127,29082,17749
25120,29072,17761
25049,29023,17696
24921,28936,17558
24745,28814,17359
24529,28664,17105
24290,28499,16808
24045,28329,16493
23796,28155,16176
23543,27980,15856
23295,27812,15538
23062,27647,15233
22841,27482,14941
22631,27324,14660
22436,27181,14390
22257,27047,14135
22088,26921,13890
21929,26801,13655
21780,26687,13431
21635,26577,13218
21491,26472,13014
21351,26378,12819
21221,26290,12631
21097,26200,12451
20971,26104,12273
20845,26010,12094
20730,25925,11924
20629,25846,11773
20532,25767,11631
20433,25691,11489
20336,25620,11346
20247,25554,11204
20166,25489,11067
20084,25427,10934
19996,25368,10804
19906,25306,10680
19821,25243,10559
19741,25181,10441
19666,25122,10329
19593,25065,10223
19522,25011,10114
19457,24961,10001
19402,24915,9897
19351,24874,9808
19298,24838,9724
19243,24803,9637
19189,24767,9551
19131,24727,9464
19068,24684,9374
19004,24643,9284
18943,24601,9195
18878,24554,9106
18810,24507,9019
18743,24466,8933
18679,24429,8852
18619,24390,8777
18562,24352,8702
18510,24316,8628
18462,24278,8555
18416,24237,8482
18371,24201,8413
18334,24177,8352
18307,24159,8299
18285,24142,8250
18267,24126,8203
18252,24112,8162
18239,24096,8128
18225,24078,8095
18210,24061,8059
18200,24049,8023
18192,24036,7991
18181,24019,7957
18165,24004,7921
18146,23990,7882
18127,23973,7839
18107,23956,7795
18083,23939,7749
18056,23921,7699
18022,23900,7648
17985,23877,7597
17952,23855,7544
17924,23835,7493
17899,23816,7444
17871,23797,7393
17842,23776,7335
17815,23751,7276
17787,23720,7217
17751,23684,7149
17711,23648,7069
17673,23615,6984
17629,23578,6900
17578,23540,6815
17522,23503,6728
17461,23467,6643
17398,23427,6559
17337,23384,6472
17279,23342,6386
17221,23301,6303
17161,23252,6219
17092,23194,6127
17022,23135,6029
16955,23076,5929
16884,23014,5822
16807,22952,5712
16724,22892,5597
16634,22827,5477
16537,22757,5350
16440,22688,5218
16347,22626,5088
16257,22568,4966
16167,22510,4851
16088,22462,4748
16037,22436,4679
16024,22439,4667
16055,22477,4721
16133,22557,4848
16269,22678,5056
16470,22840,5356
16743,23050,5754
17089,23310,6252
17502,23615,6846
17971,23959,7524
18483,24329,8260
19022,24719,9037
19581,25123,9847
20148,25534,10675
20708,25944,11496
21250,26349,12293
21769,26739,13052
22256,27102,13762
22705,27435,14416
23111,27739,15006
23463,28009,15527
23759,28237,15974
24003,28425,16344
24198,28575,16636
24351,28690,16860
24466,28772,17028
24539,28824,17146
24577,28850,17217
24587,28855,17248
24576,28845,17245
24549,28827,17213
24512,28803,17162
24471,28772,17102
24429,28735,17040
24391,28701,16978
24367,28681,16927
24363,28676,16905
24377,28685,16910
24411,28702,16939
24466,28732,16996
24541,28777,17081
24630,28836,17189
24727,28907,17311
24836,28986,17446
24951,29065,17587
25063,29137,17720
25169,29205,17841
25268,29268,17953
25355,29322,18053
25418,29360,18127
25455,29384,18169
25473,29399,18187
25473,29403,18185
25456,29395,18162
25429,29378,18123
25401,29353,18079
25375,29323,18035
25352,29295,17992
25331,29273,17952
25313,29258,17918
25299,29245,17889
25287,29235,17863
25276,29229,17840
25270,29226,17829
25272,29225,17828
25277,29227,17825
25281,29229,17815
25286,29227,17803
25295,29221,17795
25301,29214,17794
25303,29209,17797
25298,29203,17799
25283,29193,17791
25256,29178,17767
25222,29158,17733
25183,29128,17694
25136,29087,17643
25076,29039,17572
25010,28988,17484
24946,28933,17389
24882,28873,17290
24811,28810,17185
24733,28746,17072
24658,28687,16954
24584,28631,16835
24503,28577,16710
24414,28522,16578
24322,28460,16440
24231,28391,16295
24139,28318,16140
24040,28241,15977
23933,28160,15813
23818,28074,15645
23704,27989,15478
23599,27908,15323
23498,27829,15182
23388,27747,15036
23272,27665,14881
23160,27586,14726
23057,27503,14576
22957,27419,14427
22857,27336,14280
22757,27254,14135
22654,27170,13992
22555,27096,13849
22464,27032,13713
22382,26971,13590
22304,26905,13475
22229,26841,13361
22161,26787,13248
22105,26744,13143
22057,26704,13048
22013,26666,12962
21968,26632,12884
21923,26599,12813
21879,26565,12745
21840,26531,12675
21802,26496,12600
21758,26459,12522
21710,26418,12441
21659,26379,12360
21608,26345,12283
21557,26313,12211
21504,26278,12133
21448,26242,12050
21392,26206,11968
21339,26167,11889
21288,26124,11809
21232,26079,11725
21169,26033,11639
21104,25983,11549
21042,25929,11453
20987,25874,11353
20935,25823,11255
20885,25775,11165
20833,25728,11077
20778,25686,10990
20725,25652,10910
20673,25623,10832
20618,25595,10755
20561,25567,10679
20504,25536,10607
20446,25501,10533
20393,25463,10452
20346,25424,10367
20302,25384,10287
20255,25343,10211
20205,25302,10126
20152,25258,10029
20104,25214,9934
20058,25172,9845
20008,25130,9757
19951,25088,9669
19890,25044,9581
19827,24996,9493
19765,24951,9407
19706,24911,9327
19654,24873,9255
19609,24836,9188
19564,24797,9115
19515,24755,9032
19465,24710,8944
19408,24662,8856
19342,24610,8760
19271,24560,8655
19199,24511,8549
19125,24461,8444
19051,24412,8337
18980,24362,8224
18905,24306,8106
18822,24243,7984
18735,24181,7864
18650,24123,7751
18570,24067,7643
18488,24009,7533
18405,23951,7420
18330,23897,7311
18263,23845,7208
18199,23794,7107
18135,23743,7005
18072,23692,6903
18005,23637,6797
17936,23580,6683
17864,23525,6560
17786,23467,6431
17695,23401,6299
17596,23330,6164
17500,23262,6033
17417,23202,5920
17355,23155,5837
17323,23133,5795
17332,23148,5814
17396,23205,5912
17521,23306,6103
17711,23454,6390
17974,23653,6778
18312,23904,7269
18719,24205,7857
19183,24554,8526
19699,24943,9269
20257,25363,10075
20834,25797,10916
21414,26235,11762
21988,26669,12602
22548,27090,13423
23081,27491,14204
23573,27866,14923
24019,28208,15575
24417,28506,16161
24767,28765,16679
25063,28992,17128
25309,29185,17504
25511,29337,17808
25668,29450,18041
25780,29531,18206
25847,29583,18315
25872,29605,18374
25853,29594,18379
25803,29557,18340
25737,29509,18276
25666,29456,18193
25586,29395,18092
25496,29328,17979
25401,29256,17860
25301,29175,17740
25202,29094,17621
25113,29023,17507
25034,28962,17400
24960,28906,17301
24887,28854,17207
24823,28814,17123
24772,28785,17057
24731,28764,17004
24692,28744,16955
24655,28721,16904
24620,28692,16852
24580,28657,16795
24529,28617,16727
24470,28575,16648
24409,28527,16558
24343,28472,16458
24268,28413,16346
24183,28351,16222
24093,28281,16092
24002,28209,15965
23914,28143,15838
23827,28084,15715
23743,28029,15605
23660,27969,15503
23583,27911,15405
23522,27868,15321
23479,27839,15256
23447,27817,15204
23420,27799,15158
23398,27786,15120
23383,27777,15091
23372,27770,15070
23363,27763,15050
23353,27754,15032
23345,27747,15022
23344,27745,15021
23350,27749,15020
23354,27755,15021
23348,27754,15017
23327,27744,14995
23291,27725,14951
23253,27700,14903
23218,27670,14857
23178,27637,14805
23128,27602,14742
23076,27568,14678
23025,27531,14612
22972,27491,14531
22915,27454,14441
22854,27414,14351
22785,27365,14256
22708,27309,14148
22621,27250,14028
22530,27184,13904
22436,27106,13775
22341,27022,13636
22253,26940,13490
22173,26865,13348
22095,26793,13214
22008,26721,13079
21914,26651,12936
21822,26582,12791
21729,26511,12645
21634,26444,12497
21537,26380,12350
21438,26314,12205
21336,26245,12063
21237,26178,11925
21148,26115,11799
21068,26056,11685
20995,25998,11574
20928,25944,11463
20868,25897,11358
20810,25854,11261
20747,25807,11165
20677,25755,11066
20608,25702,10966
20543,25647,10864
20482,25595,10762
20427,25550,10662
20374,25509,10568
20325,25471,10483
20282,25439,10403
20240,25409,10326
20196,25380,10258
20152,25351,10197
20112,25323,10137
20078,25298,10078
20051,25277,10024
20027,25257,9974
19999,25236,9924
19967,25215,9878
19935,25192,9835
19907,25167,9791
19884,25142,9742
19862,25117,9690
19837,25093,9637
19808,25069,9585
19778,25046,9534
19748,25027,9484
19716,25003,9438
19681,24974,9394
19645,24943,9347
19608,24915,9297
19574,24886,9248
19537,24854,9197
19498,24823,9141
19461,24800,9084
19432,24785,9034
19409,24771,8993
19386,24757,8950
19363,24740,8899
19341,24718,8841
19318,24692,8781
19293,24669,8720
19268,24648,8662
19242,24627,8610
19209,24605,8555
19171,24584,8493
19132,24563,8432
19095,24540,8376
19053,24515,8318
19007,24489,8254
18961,24459,8191
18919,24420,8131
18873,24376,8068
18819,24332,7999
18765,24283,7919
18711,24234,7831
18660,24188,7741
18611,24149,7654
18561,24113,7569
18504,24075,7484
18439,24032,7389
18371,23986,7291
18309,23941,7197
18255,23897,7108
18200,23856,7021
18140,23814,6933
18075,23767,6841
18007,23716,6743
17937,23664,6639
17863,23608,6527
17786,23545,6410
17704,23478,6288
17620,23416,6167
17541,23363,6053
17469,23316,5955
17405,23277,5869
17360,23249,5799
17349,23240,5762
17383,23262,5787
17471,23327,5890
17616,23440,6073
17825,23593,6346
18101,23786,6717
18440,24025,7185
18835,24314,7745
19278,24648,8388
19760,25020,9100
20272,25418,9866
20808,25832,10670
21364,26256,11497
21929,26680,12329
22478,27092,13142
22995,27485,13913
23481,27855,14632
23933,28191,15290
24337,28488,15877
24686,28750,16392
24981,28977,16839
25225,29164,17219
25422,29314,17526
25576,29430,17767
25683,29513,17946
25743,29565,18061
25764,29584,18112
25752,29576,18110
25712,29546,18074
25651,29502,18008
25569,29444,17910
25472,29380,17789
25370,29308,17658
25264,29229,17519
25154,29147,17370
25042,29064,17217
24934,28977,17070
24830,28891,16932
24735,28815,16800
24656,28753,16682
24592,28699,16585
24535,28651,16503
24476,28608,16422
24419,28570,16341
24371,28537,16271
24328,28499,16210
24284,28454,16145
24232,28406,16069
24177,28357,15983
24125,28311,15891
24072,28268,15794
24011,28221,15694
23942,28169,15593
23875,28119,15493
23815,28075,15402
23761,28039,15326
23715,28011,15266
23675,27988,15209
23641,27972,15153
23621,27964,15111
23618,27961,15088
23619,27961,15079
23620,27969,15084
23631,27987,15106
23653,28009,15145
23683,28035,15193
23721,28069,15250
23765,28106,15318
23809,28139,15393
23853,28168,15464
23898,28195,15525
23942,28219,15582
23980,28240,15639
24011,28257,15687
24036,28272,15721
24059,28282,15743
24074,28289,15752
24073,28292,15747
24062,28288,15728
24043,28270,15695
24014,28239,15645
23973,28201,15581
23924,28161,15505
23873,28115,15420
23813,28059,15322
23742,27998,15207
23663,27940,15080
23577,27877,14948
23483,27809,14815
23384,27739,14675
23286,27670,14532
23192,27600,14393
23102,27526,14255
23010,27451,14113
22914,27371,13967
22811,27287,13817
22702,27202,13660
22592,27121,13502
22486,27042,13349
22384,26965,13200
22284,26890,13050
22189,26818,12900
22100,26752,12760
22019,26693,12634
21938,26635,12513
21857,26578,12394
21785,26527,12283
21719,26481,12179
21653,26437,12079
21586,26394,11984
21519,26348,11894
21450,26296,11804
21382,26244,11709
21323,26197,11614
21271,26153,11526
21220,26109,11447
21170,26068,11375
21123,26033,11305
21077,26001,11236
21029,25966,11162
20979,25929,11082
20926,25893,11000
20874,25856,10921
20828,25818,10846
20781,25780,10771
20737,25744,10694
20698,25706,10618
20662,25670,10546
20627,25642,10481
20593,25617,10422
20558,25590,10371
20518,25561,10320
20477,25533,10268
20441,25512,10218
20412,25494,10176
20386,25476,10135
20360,25456,10088
20334,25437,10035
20310,25415,9979
20284,25388,9921
20254,25359,9867
20217,25330,9817
20174,25298,9769
20128,25266,9720
20084,25239,9669
20045,25213,9618
20005,25184,9562
19957,25152,9495
19901,25117,9418
19844,25078,9339
19792,25035,9260
19745,24996,9180
19701,24964,9101
19656,24932,9025
19610,24895,8952
19564,24859,8877
19517,24824,8801
19469,24788,8724
19421,24748,8646
19368,24707,8565
19312,24666,8484
19255,24624,8400
19196,24580,8310
19135,24534,8214
19076,24490,8120
19025,24449,8033
18977,24408,7947
18926,24366,7856
18872,24322,7759
18817,24276,7664
18760,24233,7575
18700,24192,7488
18638,24148,7399
18571,24098,7309
18497,24044,7208
18419,23989,7102
18353,23943,7002
18300,23908,6920
18259,23883,6863
18235,23875,6836
18245,23893,6857
18307,23943,6945
18430,24036,7116
18619,24182,7378
18875,24380,7740
19197,24626,8204
19581,24916,8759
20022,25251,9394
20519,25625,10105
21061,26029,10881
21629,26453,11693
22205,26885,12520
22780,27318,13346
23341,27737,14158
23877,28133,14944
24378,28507,15693
24833,28853,16392
25237,29165,17030
25591,29442,17594
25900,29683,18085
26164,29889,18506
26383,30059,18854
26554,30198,19126
26682,30304,19330
26771,30375,19481
26823,30410,19582
26840,30419,19634
26828,30411,19646
26793,30387,19625
26737,30349,19570
26664,30298,19486
26586,30240,19381
26505,30177,19268
26423,30112,19151
26342,30046,19031
26267,29983,18917
26200,29925,18816
26135,29873,18727
26071,29830,18645
26014,29793,18571
25970,29760,18505
25940,29729,18447
25919,29702,18395
25907,29683,18358
25898,29671,18338
25883,29657,18317
25858,29640,18286
25823,29617,18246
25780,29584,18195
25734,29542,18128
25689,29495,18047
25638,29446,17955
25580,29394,17857
25516,29341,17757
25452,29290,17658
25395,29243,17568
25347,29201,17487
25304,29161,17411
25268,29125,17341
25237,29095,17283
25210,29074,17238
25185,29061,17204
25164,29054,17181
25150,29047,17172
25141,29041,17169
25139,29039,17169
25148,29048,17179
25167,29065,17205
25186,29079,17236
25195,29092,17262
25203,29106,17282
25219,29120,17305
25237,29128,17325
25247,29129,17332
25250,29130,17323
25250,29131,17305
25244,29128,17278
25228,29118,17239
25200,29097,17189
25161,29066,17130
25113,29027,17057
25057,28980,16967
24997,28926,16868
24933,28864,16761
24855,28796,16642
24770,28728,16510
24689,28663,16378
24607,28597,16251
24518,28528,16118
24425,28460,15978
24329,28392,15836
24228,28318,15693
24126,28240,15548
24030,28165,15402
23936,28093,15263
23840,28019,15131
23743,27945,14998
23651,27876,14863
23568,27815,14730
23494,27757,14603
23425,27701,14483
23359,27650,14372
23295,27601,14269
23227,27552,14165
23156,27501,14056
23087,27450,13945
23021,27400,13841
22949,27345,13738
22868,27286,13627
22784,27222,13511
22704,27160,13401
22633,27105,13296
22565,27057,13195
22498,27010,13100
22433,26961,13011
22368,26908,12919
22303,26855,12823
22243,26807,12735
22184,26764,12656
22118,26724,12573
22049,26685,12485
21987,26646,12400
21937,26604,12320
21890,26564,12241
21843,26531,12162
21803,26502,12090
21772,26474,12030
21746,26449,11975
21715,26426,11915
21676,26397,11850
21630,26359,11785
21583,26315,11719
21537,26272,11648
21492,26232,11581
21444,26194,11516
21391,26157,11444
21337,26123,11367
21290,26088,11293
21248,26052,11224
21206,26015,11151
21161,25982,11071
21114,25951,10988
21061,25916,10903
21008,25877,10814
20960,25839,10729
20914,25799,10650
20866,25759,10573
20815,25723,10493
20761,25690,10413
20706,25655,10334
20652,25615,10256
20601,25575,10178
20552,25540,10108
20502,25506,10042
20444,25466,9971
20385,25421,9895
20329,25381,9822
20277,25344,9754
20225,25303,9684
20165,25260,9607
20106,25217,9526
20052,25175,9446
19995,25132,9362
19928,25087,9274
19859,25040,9181
19791,24988,9084
19726,24935,8982
19660,24886,8876
19591,24837,8766
19516,24785,8652
19438,24731,8535
19355,24678,8419
19266,24621,8304
19172,24558,8191
19079,24493,8077
18997,24432,7965
18924,24378,7859
18857,24328,7763
18795,24285,7677
18742,24252,7604
18711,24235,7560
18714,24238,7564
18757,24270,7628
18851,24342,7762
19007,24460,7981
19231,24628,8291
19518,24847,8696
19869,25117,9196
20281,25432,9789
20748,25785,10463
21260,26167,11200
21807,26573,11987
22374,26991,12808
22942,27412,13643
23503,27837,14473
24054,28261,15287
24586,28666,16070
25079,29043,16803
25522,29388,17472
25922,29699,18071
26278,29971,18607
26588,30206,19079
26845,30405,19481
27054,30570,19811
27222,30699,20072
27348,30796,20268
27435,30863,20405
27487,30902,20493
27509,30914,20542
27500,30908,20551
27463,30890,20524
27410,30863,20477
27346,30822,20419
27274,30774,20348
27204,30729,20268
27144,30691,20199
27091,30657,20148
27041,30623,20098
26999,30589,20048
26972,30559,20010
26958,30536,19991
26943,30518,19979
26926,30503,19969
26912,30491,19961
26903,30478,19956
26894,30469,19949
26885,30463,19934
26873,30453,19910
26850,30430,19871
26814,30397,19812
26770,30360,19736
26724,30319,19650
26671,30271,19555
26605,30216,19449
26526,30158,19333
26443,30100,19216
26357,30040,19097
26270,29979,18972
26188,29919,18849
26122,29864,18740
26070,29815,18650
26023,29771,18573
25979,29732,18507
25941,29699,18456
25915,29679,18419
25899,29671,18389
25887,29667,18364
25881,29665,18351
25880,29664,18348
25880,29665,18351
25883,29670,18359
25888,29678,18373
25887,29683,18385
25877,29680,18384
25871,29671,18377
25872,29661,18373
25869,29647,18363
25858,29630,18339
25839,29611,18304
25811,29587,18258
25771,29562,18198
25721,29531,18123
25662,29492,18039
25596,29446,17948
25529,29398,17853
25464,29350,17758
25397,29298,17664
25319,29240,17563
25233,29177,17450
25149,29115,17331
25072,29057,17217
24998,29001,17106
24923,28947,16993
24845,28893,16875
24770,28837,16756
24696,28780,16640
24619,28722,16527
24539,28663,16414
24455,28600,16305
24369,28536,16192
24285,28471,16068
24205,28410,15937
24128,28349,15811
24047,28282,15684
23963,28209,15550
23882,28138,15418
23806,28075,15298
23729,28016,15183
23650,27959,15069
23574,27903,14962
23505,27851,14863
23440,27802,14771
23376,27759,14685
23313,27720,14604
23257,27679,14527
23207,27638,14450
23158,27595,14372
23107,27548,14296
23052,27498,14217
22994,27451,14132
22941,27412,14044
22890,27376,13960
22837,27338,13879
22777,27293,13796
22712,27248,13708
22649,27206,13622
22587,27165,13539
22524,27123,13453
22459,27082,13362
22398,27040,13275
22343,26996,13192
22291,26953,13110
22242,26913,13029
22195,26875,12952
22146,26837,12880
22093,26799,12805
22043,26766,12730
22000,26735,12660
21959,26703,12592
21917,26669,12518
21874,26631,12440
21832,26593,12365
21788,26555,12293
21738,26515,12216
21681,26475,12132
21621,26431,12044
21564,26385,11956
21510,26341,11871
21454,26301,11789
21394,26261,11709
21331,26221,11624
21267,26181,11534
21207,26141,11446
21151,26100,11366
21092,26058,11287
21031,26018,11200
20973,25978,11112
20916,25934,11027
20856,25886,10938
20790,25840,10847
20720,25793,10756
20647,25741,10660
20572,25682,10556
20499,25625,10448
20434,25571,10344
20365,25511,10244
20287,25449,10138
20205,25391,10024
20121,25334,9908
20036,25273,9790
19950,25207,9668
19864,25140,9543
19780,25073,9420
19695,25003,9299
19603,24930,9170
19504,24858,9035
19406,24789,8902
19310,24724,8773
19218,24666,8653
19136,24616,8551
19069,24576,8478
19032,24555,8443
19038,24567,8462
19098,24625,8553
19219,24729,8730
19406,24880,8997
19660,25080,9358
19983,25329,9815
20370,25624,10364
20809,25955,10992
21292,26318,11688
21811,26707,12436
22352,27114,13223
22902,27534,14029
23451,27957,14836
23987,28368,15628
24502,28761,16394
24987,29132,17118
25433,29476,17781
25835,29783,18378
26191,30050,18910
26499,30278,19370
26757,30468,19755
26965,30620,20070
27124,30739,20322
27233,30827,20505
27298,30887,20623
27332,30920,20691
27338,30927,20719
27313,30907,20704
27259,30866,20654
27193,30813,20583
27127,30754,20500
27056,30691,20408
26977,30628,20309
26895,30565,20209
26813,30503,20108
26735,30440,20007
26667,30389,19914
26611,30351,19838
26565,30323,19777
26528,30302,19724
26499,30284,19677
26475,30270,19638
26455,30258,19606
26436,30245,19574
26412,30228,19538
26381,30200,19491
26343,30161,19426
26300,30115,19345
26252,30067,19255
26196,30013,19160
26128,29953,19055
26048,29890,18940
25963,29828,18823
25876,29765,18707
25786,29702,18588
25697,29643,18464
25614,29587,18346
25540,29529,18239
25472,29476,18144
25411,29435,18064
25358,29403,17997
25311,29375,17940
25272,29351,17892
25245,29336,17856
25223,29327,17837
25205,29323,17832
25194,29325,17833
25197,29333,17841
25212,29344,17860
25234,29353,17886
25253,29360,17908
25272,29366,17923
25292,29374,17937
25306,29381,17949
25308,29382,17951
25298,29379,17941
25281,29372,17926
25255,29357,17907
25217,29336,17873
25172,29309,17819
25124,29279,17751
25067,29242,17669
24998,29196,17571
24922,29144,17465
24846,29087,17354
24770,29027,17237
24689,28966,17112
24605,28901,16980
24516,28826,16846
24421,28745,16712
24322,28665,16578
24226,28589,16447
24136,28514,16321
24050,28440,16190
23965,28373,16050
23881,28309,15911
23796,28244,15781
23708,28177,15653
23614,28108,15519
23519,28040,15380
23426,27972,15247
23339,27906,15120
23255,27846,14999
23176,27793,14883
23100,27740,14773
23027,27686,14668
22952,27635,14565
22879,27586,14461
22806,27536,14355
22734,27485,14250
22665,27434,14149
22601,27382,14053
22539,27329,13962
22472,27278,13868
22408,27234,13776
22353,27195,13697
22305,27158,13631
22261,27122,13564
22220,27091,13497
22178,27061,13430
22128,27025,13359
22074,26988,13281
22022,26956,13202
21977,26926,13133
21935,26894,13071
21889,26863,13003
21842,26832,12932
21800,26796,12869
21762,26761,12811
21722,26728,12749
21683,26695,12688
21650,26663,12632
21620,26638,12576
21590,26616,12516
21556,26591,12456
21514,26564,12397
21469,26538,12334
21419,26513,12263
21368,26482,12194
21317,26445,12127
21266,26406,12055
21215,26367,11977
21165,26327,11902
21115,26286,11832
21060,26244,11759
21002,26202,11679
20953,26162,11603
20916,26124,11539
20880,26087,11477
20835,26051,11409
20786,26017,11336
20737,25983,11258
20685,25950,11173
20633,25916,11085
20584,25877,10998
20532,25831,10912
20478,25787,10824
20423,25748,10738
20364,25711,10657
20301,25668,10575
20229,25618,10481
20151,25563,10376
20074,25508,10266
19996,25451,10152
19914,25390,10032
19828,25325,9908
19739,25253,9780
19650,25178,9652
19565,25109,9531
19483,25043,9415
19401,24979,9304
19319,24915,9195
19241,24858,9091
19183,24817,9011
19159,24800,8972
19169,24813,8984
19219,24862,9057
19323,24952,9205
19490,25085,9437
19717,25265,9761
20007,25495,10180
20358,25772,10690
20767,26088,11282
21227,26439,11940
21726,26816,12648
22252,27211,13396
22792,27616,14174
23329,28019,14962
23852,28412,15739
24358,28795,16489
24834,29159,17201
25266,29494,17855
25653,29793,18446
25991,30049,18967
26276,30265,19411
26507,30446,19776
26689,30595,20065
26831,30710,20291
26931,30790,20457
26989,30834,20558
27008,30848,20601
26995,30840,20602
26957,30813,20563
26900,30772,20486
26827,30721,20382
26741,30658,20261
26646,30583,20127
26546,30504,19990
26452,30428,19861
26370,30355,19746
26297,30288,19641
26229,30230,19539
26167,30180,19447
26115,30136,19369
26065,30096,19298
26013,30060,19223
25961,30025,19144
25912,29990,19069
25864,29954,18997
25816,29915,18920
25765,29875,18836
25706,29830,18749
25640,29776,18651
25569,29715,18538
25498,29656,18423
25429,29599,18313
25361,29544,18205
25294,29490,18101
25236,29441,18010
25189,29398,17939
25150,29365,17883
25120,29347,17840
25102,29341,17811
25097,29340,17798
25100,29346,17797
25113,29358,17807
25135,29375,17836
25166,29394,17884
25199,29413,17934
25233,29437,17979
25272,29466,18026
25320,29495,18078
25368,29524,18130
25411,29556,18183
25449,29589,18238
25476,29614,18290
25490,29630,18329
25494,29639,18352
25487,29644,18362
25470,29638,18358
25438,29618,18334
25397,29588,18290
25359,29554,18232
25322,29517,18166
25278,29479,18088
25226,29438,18000
25170,29395,17909
25108,29348,17814
25040,29302,17710
24970,29255,17597
24898,29200,17483
24821,29134,17361
24739,29063,17223
24653,28988,17083
24566,28909,16951
24476,28827,16820
24381,28748,16688
24285,28676,16559
24189,28605,16429
24092,28531,16296
23992,28456,16161
23892,28381,16023
23793,28305,15881
23697,28232,15739
23609,28168,15602
23527,28108,15473
23447,28047,15350
23368,27985,15227
23294,27924,15109
23224,27865,15001
23155,27810,14904
23086,27764,14808
23026,27728,14716
22980,27696,14635
22940,27662,14563
22899,27630,14494
22856,27601,14426
22816,27572,14362
22778,27541,14303
22739,27506,14242
22694,27464,14175
22645,27420,14105
22594,27378,14032
22543,27339,13954
22492,27305,13880
22441,27271,13809
22389,27231,13735
22339,27189,13657
22293,27150,13582
22249,27114,13515
22201,27078,13452
22148,27046,13385
22094,27018,13316
22043,26992,13245
21998,26967,13176
21962,26948,13113
21934,26929,13059
21909,26907,13012
21883,26881,12966
21853,26854,12913
21820,26827,12858
21781,26797,12804
21737,26760,12744
21689,26721,12672
21643,26689,12601
21605,26662,12537
21569,26634,12471
21530,26603,12402
21487,26571,12332
21437,26533,12256
21383,26488,12169
21327,26438,12077
21265,26384,11989
21196,26330,11903
21124,26277,11813
21053,26225,11718
20985,26173,11626
20920,26118,11532
20855,26065,11433
20791,26018,11334
20730,25972,11242
20669,25924,11152
20602,25878,11060
20540,25838,10973
20488,25804,10895
20440,25768,10817
20389,25728,10730
20337,25681,10637
20287,25630,10547
20232,25579,10460
20169,25528,10372
20096,25475,10276
20016,25417,10169
19929,25356,10050
19841,25297,9924
19763,25242,9806
19702,25196,9710
19656,25162,9642
19635,25147,9616
19657,25168,9654
19735,25229,9773
19873,25335,9974
20074,25494,10260
20340,25704,10643
20669,25961,11124
21060,26264,11697
21507,26612,12355
22004,26998,13092
22540,27412,13896
23101,27843,14738
23676,28281,15591
24253,28718,16442
24818,29141,17275
25357,29546,18069
25859,29930,18808
26315,30282,19489
26720,30594,20102
27071,30863,20634
27368,31093,21081
27614,31283,21456
27805,31427,21760
27942,31526,21988
28030,31588,22144
28078,31621,22239
28095,31631,22287
28085,31618,22294
28054,31587,22265
28006,31542,22211
27947,31484,22133
27882,31424,22032
27816,31366,21922
27742,31310,21815
27659,31253,21711
27577,31196,21607
27505,31143,21509
27441,31094,21420
27378,31050,21340
27315,31010,21267
27257,30974,21201
27213,30942,21147
27178,30918,21102
27147,30903,21059
27113,30886,21011
27075,30856,20959
27034,30819,20897
26991,30781,20819
26944,30741,20731
26890,30697,20639
26826,30648,20540
26753,30593,20435
26677,30537,20328
26601,30480,20224
26521,30423,20118
26442,30364,20006
26371,30308,19894
26306,30254,19789
26250,30208,19698
26205,30174,19623
26170,30146,19567
26141,30120,19525
26120,30097,19493
26109,30084,19478
26105,30078,19480
26105,30079,19493
26109,30088,19505
26120,30105,19517
26143,30126,19539
26173,30148,19571
26197,30168,19600
26211,30179,19618
26218,30180,19626
26217,30172,19624
26206,30160,19610
26186,30142,19589
26162,30118,19567
26133,30092,19538
26094,30066,19494
26045,30037,19437
25986,30001,19368
25922,29955,19288
25859,29907,19196
25794,29859,19097
25725,29807,18994
25649,29751,18877
25572,29692,18744
25496,29630,18609
25422,29568,18478
25345,29507,18350
25265,29445,18221
25186,29380,18094
25105,29309,17968
25016,29236,17837
24925,29163,17704
24834,29091,17573
24737,29015,17442
24634,28936,17307
24531,28861,17172
24433,28789,17042
24339,28720,16915
24246,28653,16785
24157,28590,16656
24072,28529,16531
23988,28469,16407
23902,28406,16281
23814,28342,16160
23728,28279,16047
23641,28216,15934
23555,28149,15817
23475,28085,15701
23401,28026,15593
23330,27968,15493
23258,27914,15395
23190,27866,15300
23129,27822,15210
23073,27781,15125
23022,27740,15039
22976,27702,14957
22933,27669,14881
22893,27638,14810
22851,27610,14740
22810,27583,14669
22769,27552,14600
22720,27512,14527
22662,27471,14447
22606,27433,14373
22555,27398,14308
22500,27361,14239
22440,27320,14159
22381,27277,14074
22320,27231,13991
22255,27187,13911
22191,27149,13835
22128,27113,13764
22067,27076,13693
22008,27039,13616
21948,27003,13535
21889,26966,13457
21836,26930,13384
21783,26892,13309
21731,26855,13231
21685,26818,13153
21641,26776,13077
21593,26730,12996
21542,26683,12909
21490,26636,12825
21436,26587,12748
21378,26539,12671
21317,26490,12589
21253,26438,12500
21187,26383,12406
21119,26326,12305
21055,26273,12201
20992,26224,12101
20926,26179,12003
20853,26132,11902
20780,26083,11803
20709,26033,11713
20640,25985,11627
20574,25941,11542
20511,25899,11463
20450,25857,11386
20389,25811,11301
20327,25764,11207
20271,25720,11114
20221,25683,11033
20172,25653,10958
20124,25626,10883
20078,25600,10805
20028,25567,10722
19972,25527,10629
19914,25482,10523
19853,25431,10410
19783,25373,10296
19703,25313,10179
19612,25249,10058
19519,25184,9937
19430,25120,9821
19348,25060,9712
19279,25011,9622
19228,24979,9562
19207,24969,9548
19228,24992,9594
19301,25056,9713
19435,25167,9919
19632,25325,10218
19896,25536,10616
20234,25798,11114
20644,26110,11712
21111,26467,12401
21628,26864,13164
22188,27293,13992
22773,27740,14869
23369,28191,15768
23971,28643,16662
24568,29088,17539
25139,29515,18383
25668,29910,19176
26147,30269,19900
26574,30592,20548
26944,30873,21119
27259,31115,21608
27518,31320,22010
27723,31481,22327
27873,31597,22565
27972,31678,22727
28031,31729,22824
28057,31755,22873
28050,31758,22883
28009,31734,22853
27940,31688,22787
27859,31632,22700
27772,31568,22599
27678,31495,22485
27585,31422,22364
27495,31352,22249
27411,31283,22145
27340,31223,22054
27287,31180,21976
27252,31151,21916
27225,31132,21874
27201,31123,21843
27183,31121,21821
27171,31124,21814
27163,31130,21815
27157,31133,21810
27151,31130,21797
27143,31122,21775
27127,31107,21741
27101,31085,21695
27066,31058,21640
27020,31024,21577
26960,30976,21498
26883,30913,21394
26794,30843,21271
26705,30769,21143
26619,30695,21014
26533,30626,20885
26446,30559,20758
26361,30489,20643
26277,30421,20537
26203,30364,20434
26143,30318,20341
26092,30276,20259
26044,30235,20182
25998,30198,20109
25962,30166,20048
25937,30138,20001
25916,30115,19963
25898,30099,19930
25884,30089,19905
25870,30081,19892
25856,30075,19883
25844,30071,19873
25835,30067,19870
25826,30064,19871
25815,30058,19863
25796,30047,19845
25770,30030,19819
25740,30008,19784
25702,29982,19734
25661,29953,19669
25611,29916,19591
25547,29867,19501
25472,29811,19395
25388,29749,19272
25299,29680,19140
25205,29605,19003
25104,29529,18854
24995,29447,18694
24879,29359,18529
24759,29266,18362
24635,29174,18190
24511,29083,18020
24392,28993,17852
24275,28899,17684
24159,28805,17517
24047,28716,17351
23942,28633,17193
23843,28555,17046
23745,28482,16901
23648,28413,16759
23553,28350,16626
23457,28290,16500
23365,28238,16381
23279,28191,16273
23196,28143,16174
23114,28093,16076
23037,28043,15977
22967,27994,15875
22901,27942,15772
22837,27886,15671
22776,27832,15573
22716,27778,15481
22654,27723,15393
22587,27670,15302
22516,27619,15204
22448,27571,15106
22388,27524,15011
22327,27474,14914
22261,27420,14809
22194,27366,14707
22132,27314,14613
22073,27269,14526
22014,27230,14443
21956,27192,14364
21898,27149,14286
21839,27107,14207
21782,27074,14133
21733,27046,14065
21689,27016,13999
21645,26981,13928
21598,26948,13852
21551,26919,13774
21500,26887,13695
21443,26847,13611
21382,26801,13524
21315,26748,13437
21243,26690,13347
21171,26632,13254
21104,26579,13164
21038,26531,13080
20966,26487,12995
20892,26441,12902
20822,26390,12805
20756,26337,12709
20692,26286,12614
20624,26236,12515
20548,26184,12411
20465,26128,12302
20382,26070,12188
20302,26013,12069
20222,25957,11952
20138,25899,11839
20050,25838,11725
19966,25779,11606
19890,25727,11492
19821,25680,11381
19750,25633,11272
19678,25585,11168
19614,25540,11079
19559,25499,10998
19505,25458,10919
19451,25416,10841
19399,25374,10763
19346,25331,10683
19293,25288,10599
19242,25250,10514
19191,25213,10430
19131,25170,10344
19060,25120,10251
18986,25072,10153
18914,25029,10051
18842,24983,9944
18768,24933,9828
18688,24876,9709
18606,24814,9589
18519,24747,9467
18425,24680,9341
18327,24615,9214
18229,24552,9091
18134,24493,8977
18048,24442,8874
17985,24405,8792
17950,24382,8743
17948,24382,8740
17984,24415,8799
18069,24487,8935
18216,24603,9162
18434,24771,9490
18727,24993,9922
19090,25270,10461
19516,25594,11096
19997,25958,11810
20525,26356,12585
21092,26785,13414
21686,27234,14282
22285,27685,15162
22870,28125,16031
23433,28550,16875
23968,28956,17680
24463,29330,18420
24910,29667,19084
25303,29963,19668
25633,30212,20168
25900,30419,20576
26117,30588,20902
26288,30717,21159
26409,30805,21348
26476,30855,21463
26497,30872,21511
26482,30863,21509
26434,30830,21464
26363,30775,21381
26279,30708,21273
26186,30640,21155
26084,30570,21027
25978,30498,20887
25875,30427,20747
25782,30361,20619
25703,30301,20505
25631,30247,20396
25567,30199,20297
25513,30154,20217
25468,30115,20155
25430,30085,20103
25399,30060,20057
25371,30035,20018
25342,30009,19981
25312,29985,19939
25283,29961,19894
25249,29934,19841
25198,29897,19768
25131,29847,19667
25059,29791,19551
24983,29730,19430
24891,29660,19299
24784,29586,19157
24672,29508,19010
24562,29424,18864
24452,29341,18724
24346,29266,18590
24251,29199,18464
24164,29133,18347
24085,29072,18240
24014,29025,18142
23954,28988,18062
23909,28958,18006
23877,28934,17964
23857,28921,17930
23850,28919,17912
23853,28921,17909
23860,28925,17918
23873,28935,17939
23892,28951,17971
23913,28967,18006
23933,28982,18035
23952,29002,18059
23968,29024,18079
23974,29036,18087
23967,29033,18074
23950,29020,18044
23927,29001,18005
23897,28971,17951
23853,28932,17876
23795,28886,17788
23729,28833,17693
23652,28767,17585
23563,28696,17463
23467,28626,17335
23370,28558,17207
23269,28488,17076
23167,28418,16939
23070,28348,16801
22979,28278,16666
22888,28209,16528
22795,28146,16384
22702,28082,16239
22610,28013,16098
22518,27941,15955
22421,27869,15808
22317,27798,15663
22213,27729,15528
22111,27660,15392
22010,27588,15249
21919,27518,15109
21836,27449,14978
21754,27382,14852
21675,27318,14729
21601,27253,14610
21527,27185,14494
21454,27121,14380
21385,27061,14271
21316,27002,14171
21246,26942,14078
21181,26891,13989
21122,26850,13907
21070,26818,13835
21021,26791,13769
20969,26762,13699
20915,26731,13627
20866,26698,13565
20825,26667,13511
20787,26639,13456
20748,26616,13399
20709,26592,13344
20671,26562,13287
20632,26532,13221
20591,26502,13151
20552,26471,13084
20512,26440,13020
20467,26410,12954
20417,26380,12882
20365,26348,12811
20314,26315,12739
20264,26278,12668
20220,26242,12605
20177,26206,12549
20131,26165,12484
20081,26122,12410
20036,26084,12337
19994,26051,12268
19948,26017,12195
19900,25985,12121
19855,25956,12053
19809,25923,11985
19760,25888,11910
19715,25854,11832
19673,25818,11752
19624,25775,11672
19568,25727,11590
19510,25680,11506
19455,25638,11423
19400,25600,11342
19339,25560,11255
19270,25518,11167
19198,25474,11081
19124,25427,10993
19047,25375,10895
18972,25325,10794
18902,25273,10696
18829,25215,10600
18753,25158,10498
18681,25106,10391
18613,25056,10282
18544,25007,10172
18474,24958,10059
18404,24910,9945
18338,24860,9838
18270,24806,9734
18198,24747,9630
18127,24686,9525
18056,24626,9419
17985,24570,9318
17913,24520,9221
17838,24471,9126
17759,24419,9028
17679,24368,8926
17606,24322,8825
17545,24284,8733
17492,24251,8655
17446,24221,8591
17417,24203,8553
17420,24209,8560
17471,24248,8627
17578,24324,8768
17746,24447,9000
17980,24622,9336
18281,24850,9781
18650,25133,10333
19086,25466,10983
19580,25841,11717
20123,26250,12515
20698,26680,13351
21290,27122,14205
21885,27569,15065
22464,28007,15912
23012,28424,16720
23519,28815,17473
23978,29170,18163
24382,29480,18777
24724,29739,19301
25004,29952,19741
25231,30120,20104
25404,30247,20386
25526,30336,20590
25604,30393,20729
25641,30419,20810
25641,30416,20835
25606,30388,20806
25546,30342,20735
25469,30284,20638
25380,30216,20520
25272,30135,20378
25150,30044,20218
25026,29949,20052
24910,29860,19889
24800,29781,19733
24692,29708,19585
24590,29638,19454
24495,29570,19335
24405,29509,19225
24333,29459,19127
24277,29418,19043
24222,29380,18963
24164,29343,18884
24109,29306,18808
24052,29265,18733
23992,29219,18646
23928,29170,18545
23859,29115,18432
23781,29048,18309
23691,28969,18170
23590,28885,18019
23486,28808,17873
23384,28737,17732
23287,28669,17592
23194,28606,17456
23116,28547,17335
23055,28494,17234
23007,28452,17152
22971,28420,17088
22946,28393,17044
22933,28374,17015
22930,28369,16998
22936,28375,16996
22949,28386,17015
22968,28402,17049
22989,28419,17086
23013,28436,17124
23036,28452,17165
23059,28467,17202
23077,28483,17226
23087,28495,17237
23085,28497,17240
23071,28490,17232
23045,28479,17209
23014,28467,17177
22981,28446,17136
22935,28411,17077
22874,28364,16996
22808,28312,16902
22738,28256,16805
22659,28197,16697
22570,28132,16574
22477,28060,16443
22381,27983,16303
22284,27902,16155
22184,27823,16004
22082,27744,15850
21974,27663,15693
21861,27581,15533
21747,27500,15376
21640,27421,15225
21538,27343,15077
21431,27260,14917
21320,27174,14748
21216,27090,14581
21116,27010,14421
21013,26934,14266
20913,26864,14118
20817,26796,13978
20721,26725,13845
20625,26655,13712
20530,26591,13583
20440,26533,13463
20354,26472,13351
20272,26409,13241
20193,26350,13133
20119,26298,13037
20054,26249,12948
19997,26200,12858
19946,26152,12768
19902,26108,12682
19863,26068,12600
19824,26034,12517
19779,26002,12438
19724,25966,12363
19659,25923,12284
19592,25878,12201
19529,25839,12123
19475,25806,12051
19424,25773,11978
19367,25738,11902
19309,25705,11826
19254,25672,11753
19199,25633,11675
19146,25587,11591
19094,25536,11508
19042,25482,11428
18988,25432,11346
18931,25388,11260
18870,25345,11174
18806,25300,11093
18742,25258,11018
18682,25222,10941
18625,25186,10862
18569,25144,10783
18511,25100,10700
18454,25060,10615
18399,25018,10531
18339,24968,10447
18272,24917,10357
18206,24871,10258
18145,24827,10155
18079,24776,10051
18001,24718,9943
17918,24660,9833
17841,24605,9730
17772,24555,9637
17701,24505,9553
17625,24454,9472
17547,24402,9386
17468,24350,9293
17390,24301,9197
17315,24254,9100
17247,24208,9003
17184,24163,8900
17124,24116,8794
17067,24070,8692
17012,24025,8600
16952,23978,8511
16885,23929,8415
16818,23884,8316
16756,23841,8221
16690,23798,8123
16620,23754,8022
16552,23710,7920
16489,23663,7817
16425,23612,7713
16360,23562,7607
16290,23511,7497
16217,23454,7385
16145,23397,7269
16070,23342,7149
15990,23286,7025
15900,23225,6901
15804,23161,6778
15707,23096,6656
15612,23033,6536
15520,22973,6423
15430,22914,6315
15345,22864,6213
15276,22828,6131
15228,22802,6076
15208,22793,6055
15226,22812,6086
15297,22868,6192
15430,22965,6388
15629,23109,6679
15897,23305,7077
16240,23557,7584
16656,23861,8193
17138,24215,8895
17678,24611,9679
18258,25036,10526
18859,25476,11413
19468,25924,12317
20078,26373,13226
20679,26817,14123
21254,27242,14983
21785,27637,15782
22271,28001,16508
22710,28330,17159
23098,28619,17729
23426,28866,18215
23693,29070,18619
23904,29233,18948
24062,29355,19205
24170,29442,19390
24232,29499,19508
24257,29525,19570
24250,29523,19581
24216,29498,19543
24167,29457,19473
24107,29407,19386
24030,29350,19278
23938,29284,19151
23844,29216,19023
23754,29147,18899
23667,29079,18777
23588,29018,18663
23522,28965,18564
23466,28914,18479
23422,28873,18412
23392,28848,18366
23371,28834,18340
23349,28823,18321
23325,28809,18300
23303,28793,18277
23284,28777,18256
23265,28760,18234
23234,28735,18195
23191,28705,18138
23139,28668,18068
23081,28621,17987
23015,28568,17893
22943,28514,17789
22862,28458,17680
22774,28395,17562
22682,28326,17433
22592,28261,17300
22509,28205,17175
22429,28152,17054
22347,28098,16937
22267,28047,16829
22198,28003,16737
22143,27966,16662
22096,27934,16599
22057,27904,16546
22028,27879,16506
22011,27856,16474
22001,27836,16444
21999,27819,16423
22002,27804,16414
22002,27789,16408
21996,27779,16403
21993,27775,16399
21995,27773,16398
21990,27771,16391
21974,27768,16373
21958,27766,16352
21941,27761,16334
21916,27747,16307
21884,27723,16263
21848,27689,16205
21804,27649,16134
21749,27604,16049
21685,27556,15956
21614,27501,15854
21530,27436,15740
21434,27363,15610
21327,27287,15467
21217,27216,15323
21107,27145,15181
20999,27069,15033
20893,26991,14879
20789,26911,14723
20686,26828,14564
20582,26749,14403
20479,26678,14247
20376,26606,14097
20275,26531,13946
20179,26459,13797
20093,26396,13661
20016,26341,13539
19942,26288,13425
19866,26234,13310
19791,26182,13196
19716,26127,13087
19637,26064,12979
19553,26000,12870
19467,25937,12760
19379,25870,12650
19291,25803,12538
19205,25740,12421
19122,25679,12305
19046,25622,12198
18975,25570,12094
18905,25517,11983
18836,25461,11875
18766,25405,11770
18690,25348,11660
18610,25293,11549
18534,25241,11448
18464,25190,11356
18401,25145,11270
18347,25108,11191
18303,25074,11118
18264,25041,11052
18224,25010,10986
18182,24981,10916
18140,24953,10847
18094,24920,10780
18039,24884,10706
17978,24845,10626
17920,24803,10548
17864,24759,10467
17803,24714,10378
17740,24670,10286
17680,24623,10194
17619,24570,10102
17552,24516,10003
17482,24464,9899
17407,24412,9795
17326,24355,9691
17242,24296,9588
17161,24240,9492
17088,24188,9400
17018,24138,9306
16944,24086,9206
16870,24036,9105
16801,23988,9008
16737,23945,8914
16674,23904,8816
16613,23863,8720
16555,23821,8632
16496,23778,8547
16431,23733,8457
16363,23686,8365
16295,23637,8273
16223,23584,8175
16147,23528,8073
16077,23476,7973
16012,23427,7877
15942,23377,7778
15864,23325,7673
15784,23271,7564
15705,23215,7456
15620,23158,7347
15532,23102,7241
15448,23048,7142
15368,22994,7042
15294,22942,6933
15224,22892,6817
15154,22843,6702
15082,22793,6589
15005,22741,6475
14921,22686,6359
14838,22626,6241
14757,22564,6121
14680,22504,5999
14605,22446,5876
14531,22388,5755
14450,22329,5634
14363,22268,5508
14275,22208,5383
14192,22152,5266
14114,22099,5160
14040,22049,5066
13978,22008,4987
13940,21982,4942
13940,21983,4946
13988,22017,5011
14089,22087,5147
14252,22200,5372
14480,22365,5694
14777,22584,6121
15143,22855,6656
15574,23171,7296
16054,23523,8021
16573,23907,8811
17131,24320,9650
17719,24754,10522
18315,25192,11405
18908,25626,12275
19489,26046,13119
20043,26446,13922
20553,26823,14664
21017,27172,15339
21428,27481,15945
21775,27741,16468
22059,27957,16898
22286,28134,17240
22459,28269,17504
22577,28363,17692
22651,28418,17812
22690,28443,17872
22693,28436,17879
22660,28402,17839
22598,28347,17759
22515,28280,17652
22419,28207,17532
22318,28131,17406
22215,28057,17275
22114,27990,17143
22020,27931,17019
21936,27874,16908
21860,27824,16810
21795,27781,16728
21744,27742,16664
21699,27705,16612
21664,27676,16566
21642,27658,16533
21631,27648,16510
21623,27638,16488
21611,27624,16456
21593,27606,16417
21573,27583,16374
21541,27553,16324
21489,27517,16261
21424,27472,16183
21347,27412,16089
21259,27342,15972
21165,27271,15837
21069,27201,15692
20970,27130,15544
20872,27058,15392
20776,26985,15240
20683,26916,15100
20597,26851,14976
20513,26789,14861
20434,26730,14757
20367,26680,14676
20317,26642,14621
20283,26618,14582
20262,26604,14553
20250,26595,14539
20244,26592,14536
20244,26596,14537
20254,26608,14545
20266,26621,14562
20276,26631,14577
20283,26638,14585
20286,26639,14586
20282,26633,14583
20272,26624,14576
20252,26613,14556
20224,26596,14520
20191,26571,14472
20152,26539,14414
20104,26503,14341
20051,26465,14258
19993,26422,14171
19924,26371,14075
19847,26318,13970
19763,26268,13861
19680,26216,13751
19597,26158,13636
19510,26096,13513
19423,26032,13387
19343,25965,13265
19269,25900,13149
19194,25838,13031
19115,25774,12909
19035,25709,12784
18955,25645,12655
18878,25584,12522
18805,25527,12392
18729,25467,12265
18645,25402,12137
18554,25335,12004
18466,25269,11874
18381,25204,11749
18289,25135,11622
18190,25067,11491
18096,25005,11362
18010,24947,11241
17926,24891,11124
17845,24839,11013
17775,24794,10910
17713,24751,10813
17653,24711,10721
17602,24677,10634
17558,24644,10554
17518,24609,10478
17480,24573,10402
17443,24543,10330
17407,24517,10268
17371,24488,10213
17334,24458,10157
17299,24428,10098
17267,24393,10036
17230,24356,9972
17181,24321,9908
17129,24287,9847
17078,24253,9791
17022,24219,9733
16961,24186,9666
16899,24154,9596
16837,24118,9524
16775,24077,9445
16714,24037,9362
16659,24002,9280
16609,23964,9200
16552,23919,9115
16491,23873,9027
16438,23834,8946
16395,23800,8872
16352,23766,8795
16306,23734,8717
16263,23706,8645
16219,23674,8581
16169,23635,8520
16114,23597,8457
16056,23562,8390
15996,23526,8317
15936,23487,8239
15876,23449,8155
15815,23411,8070
15753,23372,7981
15688,23333,7886
15623,23292,7785
15558,23246,7684
15491,23195,7586
15422,23145,7492
15353,23097,7394
15288,23048,7295
15227,22998,7196
15161,22946,7096
15094,22894,6999
15030,22844,6905
14968,22793,6816
14908,22746,6729
14854,22707,6645
14806,22669,6563
14759,22628,6476
14708,22583,6378
14657,22537,6272
14606,22491,6166
14549,22444,6061
14483,22396,5951
14409,22345,5839
14332,22293,5727
14251,22242,5616
14166,22193,5501
14080,22139,5379
13992,22079,5256
13905,22017,5132
13820,21959,5012
13743,21910,4912
13681,21873,4840
13642,21852,4799
13633,21853,4796
13665,21882,4849
13751,21945,4974
13896,22053,5185
14108,22212,5495
14396,22424,5912
14759,22685,6434
15185,22993,7049
15662,23341,7744
16183,23719,8508
16736,24120,9321
17308,24535,10163
17887,24955,11015
18458,25371,11859
19005,25771,12671
19514,26143,13423
19976,26484,14105
20385,26788,14717
20736,27048,15251
21028,27266,15695
21264,27448,16054
21451,27592,16336
21585,27699,16545
21667,27767,16683
21707,27797,16758
21713,27796,16785
21687,27770,16768
21627,27721,16708
21542,27659,16613
21446,27590,16499
21347,27516,16375
21246,27443,16243
21146,27372,16105
21050,27299,15969
20958,27228,15837
20870,27165,15708
20788,27112,15591
20713,27065,15491
20646,27024,15407
20589,26989,15329
20540,26956,15252
20492,26917,15177
20441,26874,15104
20383,26829,15029
20326,26786,14951
20270,26741,14870
20211,26693,14779
20146,26642,14674
20081,26590,14565
20014,26535,14453
19945,26477,14333
19872,26421,14208
19798,26368,14083
19723,26312,13963
19644,26255,13846
19569,26203,13738
19503,26156,13648
19447,26116,13581
19407,26092,13530
19384,26082,13497
19377,26077,13484
19381,26072,13485
19389,26071,13496
19405,26080,13523
19429,26103,13569
19457,26133,13626
19487,26161,13684
19518,26188,13743
19552,26217,13805
19581,26245,13867
19604,26269,13915
19626,26288,13952
19648,26301,13984
19663,26310,14006
19670,26319,14010
19668,26321,14000
19654,26313,13976
19633,26297,13935
19607,26274,13878
19571,26242,13810
19523,26198,13733
19460,26142,13642
19384,26081,13533
19302,26020,13417
19220,25959,13302
19139,25899,13182
19058,25839,13052
18975,25780,12923
18893,25722,12802
18808,25667,12681
18724,25614,12559
18646,25562,12442
18575,25509,12327
18508,25456,12210
18439,25405,12097
18372,25357,11994
18305,25308,11898
18240,25258,11803
18174,25208,11709
18105,25156,11617
18033,25103,11525
17962,25051,11426
17894,24998,11320
17826,24943,11214
17756,24885,11109
17682,24828,11003
17613,24779,10898
17552,24738,10799
17492,24700,10710
17429,24661,10621
17369,24623,10537
17318,24588,10465
17277,24558,10402
17241,24531,10341
17203,24507,10279
17166,24482,10221
17134,24457,10168
17109,24434,10119
17084,24408,10072
17060,24379,10026
17030,24345,9974
16993,24310,9912
16957,24280,9850
16927,24253,9795
16896,24226,9742
16861,24200,9688
16824,24175,9641
16787,24150,9602
16750,24128,9563
16714,24109,9524
16675,24086,9482
16630,24057,9433
16582,24027,9377
16536,24000,9313
16493,23973,9246
16449,23939,9178
16405,23904,9109
16364,23875,9045
16330,23850,8985
16296,23827,8922
16257,23801,8853
16214,23771,8780
16171,23737,8701
16123,23697,8620
16071,23656,8539
16021,23617,8459
15974,23577,8377
15919,23532,8292
15856,23485,8208
15787,23441,8128
15717,23401,8055
15646,23359,7981
15571,23315,7899
15497,23268,7814
15430,23218,7726
15369,23169,7638
15315,23126,7551
15262,23083,7458
15204,23036,7360
15146,22986,7260
15093,22941,7161
15047,22902,7064
15001,22867,6974
14948,22830,6884
14890,22793,6793
14833,22759,6703
14777,22723,6614
14714,22682,6523
14643,22636,6428
14570,22585,6330
14494,22527,6227
14414,22467,6120
14333,22409,6012
14254,22351,5904
14177,22296,5798
14099,22245,5696
14028,22201,5599
13977,22169,5525
13954,22155,5492
13976,22169,5514
14054,22224,5609
14194,22322,5795
14393,22464,6079
14657,22660,6463
14995,22912,6951
15405,23216,7544
15876,23564,8234
16395,23949,9000
16953,24361,9824
17538,24790,10691
18135,25231,11577
18730,25674,12453
19313,26109,13305
19874,26526,14120
20393,26915,14879
20860,27267,15569
21271,27578,16188
21622,27843,16726
21908,28059,17178
22130,28232,17544
22301,28369,17829
22430,28467,18042
22515,28528,18186
22561,28561,18269
22572,28568,18297
22550,28545,18279
22501,28502,18227
22439,28451,18147
22369,28393,18050
22291,28327,17942
22207,28257,17825
22120,28186,17705
22036,28120,17595
21957,28062,17498
21882,28012,17407
21814,27967,17323
21758,27929,17252
21709,27896,17194
21664,27867,17144
21627,27845,17103
21601,27827,17070
21578,27807,17040
21551,27783,17000
21518,27757,16947
21481,27725,16885
21437,27684,16813
21376,27634,16724
21300,27578,16615
21217,27517,16494
21130,27452,16364
21039,27389,16225
20944,27327,16081
20850,27261,15941
20760,27194,15807
20679,27134,15684
20611,27084,15579
20553,27039,15494
20506,27001,15424
20473,26973,15366
20455,26958,15330
20444,26947,15312
20436,26935,15301
20432,26928,15295
20435,26930,15300
20447,26936,15314
20462,26939,15329
20474,26943,15345
20482,26948,15365
20488,26952,15385
20493,26955,15397
20497,26958,15397
20497,26958,15384
20487,26952,15357
20467,26939,15320
20438,26925,15277
20401,26904,15228
20354,26872,15171
20295,26829,15098
20225,26777,15006
20151,26722,14907
20077,26665,14805
19999,26604,14695
19917,26541,14573
19837,26472,14444
19758,26399,14312
19677,26328,14178
19592,26261,14044
19503,26191,13911
19412,26119,13779
19315,26049,13641
19220,25985,13503
19135,25923,13370
19052,25860,13238
18961,25794,13098
18866,25723,12954
18773,25653,12815
18679,25586,12678
18585,25523,12543
18495,25464,12414
18409,25405,12294
18325,25347,12178
18243,25291,12066
18166,25236,11959
18095,25181,11857
18026,25124,11754
17963,25073,11651
17911,25031,11556
17864,24994,11471
17809,24955,11388
17744,24918,11302
17682,24884,11222
17627,24851,11147
17573,24818,11074
17520,24785,11000
17469,24746,10923
17416,24700,10846
17361,24656,10772
17312,24620,10699
17266,24587,10628
17223,24550,10561
17179,24511,10493
17133,24476,10421
17089,24444,10349
17046,24409,10281
17000,24374,10209
16951,24340,10135
16909,24309,10068
16875,24281,10009
16846,24258,9951
16815,24239,9892
16782,24220,9838
16743,24193,9786
16701,24160,9730
16660,24127,9671
16622,24096,9617
16583,24066,9568
16542,24038,9515
16499,24008,9457
16454,23975,9395
16406,23938,9330
16350,23900,9258
16290,23862,9178
16231,23820,9094
16175,23776,9009
16123,23735,8923
16069,23696,8838
16010,23653,8755
15945,23604,8667
15876,23554,8574
15809,23505,8477
15744,23460,8378
15674,23415,8276
15599,23372,8176
15528,23329,8077
15465,23285,7979
15405,23242,7882
15347,23201,7789
15284,23153,7694
15215,23098,7598
15146,23045,7503
15086,23000,7410
15037,22963,7325
14992,22928,7244
14941,22890,7158
14886,22853,7071
14833,22817,6988
14782,22781,6908
14725,22743,6826
14660,22702,6737
14588,22653,6636
14505,22592,6520
14410,22524,6391
14310,22455,6257
14211,22386,6131
14113,22316,6011
14017,22247,5887
13926,22183,5760
13844,22123,5636
13770,22069,5525
13710,22031,5439
13678,22018,5393
13685,22032,5406
13739,22077,5491
13851,22162,5663
14039,22300,5938
14308,22495,6326
14649,22744,6823
15058,23043,7421
15534,23388,8110
16065,23768,8878
16640,24179,9706
17245,24613,10574
17860,25065,11462
18470,25517,12352
19060,25957,13219
19618,26373,14045
20134,26762,14818
20600,27118,15529
21010,27433,16160
21367,27705,16705
21673,27935,17167
21926,28120,17552
22127,28269,17862
22285,28388,18103
22403,28478,18282
22480,28535,18409
22523,28565,18487
22536,28577,18521
22526,28571,18522
22500,28545,18498
22460,28508,18446
22410,28472,18376
22353,28435,18304
22294,28399,18235
22231,28364,18162
22169,28333,18092
22118,28303,18037
22080,28279,17995
22056,28262,17964
22044,28253,17943
22041,28248,17937
22041,28247,17942
22048,28249,17954
22060,28254,17977
22069,28256,18003
22064,28252,18016
22043,28239,18001
22014,28218,17965
21977,28184,17909
21926,28137,17824
21859,28077,17707
21777,28009,17570
21681,27935,17421
21573,27855,17262
21457,27770,17099
21339,27681,16935
21220,27590,16770
21100,27504,16603
20984,27428,16441
20877,27359,16294
20783,27292,16170
20703,27233,16064
20639,27185,15971
20593,27146,15898
20565,27115,15850
20545,27095,15821
20532,27087,15805
20530,27089,15809
20539,27097,15830
20554,27112,15858
20575,27129,15885
20596,27144,15911
20610,27154,15933
20621,27162,15946
20629,27167,15951
20624,27165,15947
20603,27151,15924
20567,27124,15880
20521,27088,15817
20471,27047,15744
20416,27001,15659
20355,26951,15560
20285,26896,15450
20205,26834,15335
20117,26767,15213
20026,26701,15085
19935,26638,14958
19843,26576,14832
19748,26507,14699
19650,26434,14552
19557,26363,14405
19468,26295,14264
19377,26223,14123
19283,26152,13979
19190,26086,13838
19094,26020,13701
18998,25951,13565
18905,25885,13430
18815,25818,13295
18722,25748,13158
18632,25674,13021
18550,25605,12888
18472,25541,12766
18396,25483,12654
18324,25433,12549
18252,25386,12450
18180,25340,12359
18111,25295,12270
18042,25247,12176
17972,25197,12071
17908,25147,11967
17849,25098,11870
17794,25051,11778
17744,25010,11688
17695,24968,11600
17642,24922,11510
17584,24875,11413
17528,24832,11318
17477,24796,11235
17426,24762,11164
17367,24728,11096
17301,24694,11026
17234,24660,10955
17176,24624,10885
17126,24590,10814
17082,24559,10743
17037,24527,10675
16989,24491,10608
16939,24457,10536
16897,24430,10465
16860,24401,10399
16818,24363,10327
16768,24323,10246
16717,24283,10167
16665,24241,10093
16609,24200,10020
16552,24161,9938
16492,24117,9851
16428,24068,9764
16364,24017,9675
16302,23971,9584
16239,23928,9498
16177,23888,9417
16110,23844,9329
16039,23798,9229
15971,23753,9130
15908,23711,9034
15841,23669,8940
15772,23627,8848
15704,23583,8756
15632,23534,8661
15557,23481,8561
15484,23432,8459
15412,23383,8359
15334,23329,8261
15251,23271,8160
15168,23214,8054
15089,23158,7950
15016,23105,7844
14942,23054,7731
14863,23002,7611
14782,22948,7490
14702,22894,7370
14627,22844,7254
14564,22801,7151
14518,22765,7069
14482,22733,7000
14451,22707,6937
14432,22688,6888
14431,22675,6857
14445,22670,6844
14469,22674,6842
14496,22678,6840
14521,22677,6831
14539,22674,6813
14545,22669,6787
14536,22656,6751
14513,22636,6710
14481,22610,6665
14448,22584,6616
14424,22565,6573
14415,22558,6547
14422,22563,6541
14453,22588,6569
14521,22641,6654
14639,22728,6812
14811,22853,7053
15042,23023,7383
15342,23245,7818
15712,23518,8361
16142,23839,8998
16624,24198,9716
17152,24586,10502
17714,24993,11335
18294,25415,12188
18877,25843,13042
19450,26262,13882
19999,26663,14690
20512,27043,15448
20985,27400,16147
21417,27727,16790
21802,28018,17371
22136,28273,17878
22418,28495,18309
22650,28678,18666
22832,28820,18955
22970,28927,19176
23067,29006,19336
23127,29053,19444
23154,29069,19502
23152,29064,19513
23131,29048,19490
23101,29024,19447
23059,28987,19382
23004,28943,19299
22944,28899,19214
22885,28856,19135
22828,28811,19059
22773,28767,18983
22723,28732,18913
22681,28702,18856
22646,28678,18816
22621,28665,18792
22604,28661,18781
22592,28659,18780
22584,28654,18779
22580,28651,18771
22576,28649,18760
22569,28642,18744
22546,28624,18710
22503,28596,18652
22448,28556,18574
22381,28503,18478
22301,28440,18361
22216,28371,18226
22132,28293,18083
22045,28210,17937
21951,28129,17788
21854,28054,17641
21760,27982,17505
21670,27912,17378
21582,27847,17253
21503,27789,17132
21434,27740,17027
21372,27700,16940
21319,27667,16870
21279,27643,16821
21255,27628,16796
21247,27623,16790
21259,27628,16800
21285,27645,16830
21317,27665,16873
21348,27683,16917
21375,27696,16955
21400,27709,16989
21424,27723,17020
21444,27735,17045
21456,27744,17057
21460,27744,17055
21455,27733,17039
21440,27715,17004
21414,27694,16948
21380,27671,16880
21338,27642,16806
21282,27600,16723
21210,27550,16625
21131,27499,16522
21050,27446,16418
20963,27390,16301
20870,27329,16168
20777,27264,16028
20683,27192,15884
20587,27120,15733
20488,27048,15579
20386,26974,15426
20281,26898,15280
20178,26820,15135
20078,26743,14990
19984,26669,14855
19894,26598,14728
19804,26527,14602
19716,26457,14479
19635,26393,14362
19556,26333,14246
19479,26276,14131
19406,26222,14018
19333,26168,13909
19255,26110,13800
19174,26051,13686
19100,25995,13572
19032,25939,13466
18965,25880,13362
18893,25822,13253
18821,25773,13147
18756,25733,13048
18695,25700,12952
18635,25665,12855
18577,25626,12762
18523,25580,12675
18469,25528,12591
18414,25480,12508
18360,25438,12423
18307,25400,12341
18254,25365,12262
18202,25333,12185
18151,25303,12115
18105,25273,12056
18064,25243,11997
18026,25215,11935
17993,25190,11874
17965,25166,11817
17937,25141,11759
17907,25116,11698
17882,25091,11641
17858,25061,11589
17825,25029,11533
17785,24999,11470
17743,24969,11404
17697,24935,11337
17645,24899,11264
17587,24864,11186
17519,24825,11108
17448,24781,11029
17379,24735,10948
17318,24691,10864
17266,24649,10783
17217,24608,10703
17164,24567,10617
17110,24526,10529
17061,24489,10447
17018,24455,10370
16976,24426,10297
16936,24403,10228
16896,24382,10166
16856,24357,10103
16820,24331,10037
16788,24308,9974
16753,24281,9915
16711,24245,9854
16662,24203,9789
16616,24162,9723
16568,24122,9657
16511,24082,9588
16448,24041,9510
16384,23999,9428
16329,23956,9347
16286,23918,9270
16248,23886,9194
16203,23854,9118
16150,23816,9042
16093,23775,8964
16042,23736,8881
15994,23700,8798
15947,23662,8718
15896,23623,8634
15842,23588,8546
15788,23555,8461
15736,23520,8378
15678,23477,8286
15609,23427,8185
15536,23375,8078
15458,23317,7965
15376,23259,7850
15299,23206,7741
15235,23157,7649
15191,23120,7583
15175,23104,7557
15197,23121,7588
15271,23176,7692
15402,23274,7881
15590,23420,8159
15839,23612,8527
16158,23852,8997
16550,24140,9568
17004,24473,10233
17508,24842,10973
18048,25237,11770
18610,25650,12601
19185,26078,13444
19763,26510,14284
20321,26928,15100
20844,27319,15869
21327,27681,16576
21768,28012,17222
22160,28306,17802
22494,28556,18301
22769,28765,18714
22991,28937,19050
23160,29071,19311
23277,29167,19498
23349,29228,19617
23384,29257,19676
23387,29252,19687
23359,29225,19658
23303,29186,19595
23226,29137,19511
23136,29079,19413
23041,29010,19298
22942,28934,19168
22841,28856,19036
22743,28780,18909
22648,28707,18782
22556,28641,18655
22477,28582,18538
22413,28528,18439
22359,28484,18356
22312,28451,18283
22268,28421,18218
22223,28389,18153
22176,28355,18083
22130,28321,18010
22082,28286,17937
22032,28245,17859
21972,28194,17766
21901,28135,17658
21824,28072,17545
21745,28007,17432
21664,27940,17313
21582,27873,17193
21508,27813,17082
21442,27765,16980
21380,27724,16884
21325,27687,16797
21279,27653,16726
21243,27624,16670
21221,27607,16631
21216,27604,16616
21230,27615,16627
21256,27634,16655
21287,27660,16688
21322,27694,16730
21360,27730,16784
21392,27762,16840
21418,27791,16888
21446,27815,16930
21472,27830,16967
21492,27839,16999
21500,27847,17025
21502,27849,17038
21500,27841,17038
21494,27826,17027
21486,27811,17007
21474,27793,16981
21453,27771,16945
21417,27743,16888
21371,27711,16809
21320,27669,16719
21259,27616,16622
21187,27555,16515
21110,27493,16403
21029,27428,16282
20939,27356,16143
20838,27281,15988
20733,27205,15828
20630,27130,15676
20531,27054,15530
20431,26978,15378
20328,26902,15218
20227,26828,15061
20126,26755,14910
20025,26684,14763
19927,26615,14621
19836,26547,14487
19750,26477,14363
19666,26408,14248
19586,26344,14144
19513,26284,14047
19446,26230,13950
19383,26180,13846
19324,26134,13741
19263,26088,13638
19198,26041,13536
19134,25992,13431
19078,25946,13331
19025,25903,13236
18964,25859,13141
18900,25816,13046
18839,25773,12957
18784,25726,12875
18732,25679,12803
18682,25642,12738
18640,25613,12682
18604,25584,12632
18573,25555,12582
18550,25531,12533
18531,25513,12489
18512,25500,12447
18488,25486,12400
18460,25470,12349
18430,25450,12299
18398,25427,12246
18357,25400,12182
18311,25374,12111
18269,25349,12041
18229,25319,11971
18184,25281,11896
18135,25240,11818
18081,25197,11741
18021,25152,11663
17958,25107,11581
17904,25068,11501
17862,25031,11431
17822,24995,11363
17778,24959,11292
17736,24927,11223
17700,24898,11157
17664,24868,11087
17624,24838,11012
17582,24805,10937
17543,24771,10871
17506,24739,10813
17470,24712,10758
17433,24689,10702
17391,24667,10646
17341,24641,10580
17282,24610,10498
17221,24574,10408
17163,24537,10326
17105,24497,10241
17043,24451,10146
16986,24405,10051
16935,24361,9962
16878,24314,9875
16814,24265,9785
16750,24215,9696
16688,24163,9609
16621,24106,9518
16551,24049,9422
16477,23991,9322
16397,23931,9219
16314,23873,9109
16227,23819,8992
16139,23765,8873
16053,23709,8754
15971,23654,8635
15893,23603,8516
15820,23553,8398
15752,23502,8283
15686,23452,8172
15629,23406,8072
15585,23370,7992
15558,23346,7941
15552,23339,7923
15581,23361,7957
15658,23420,8063
15793,23516,8255
15994,23656,8542
16264,23850,8926
16600,24098,9408
16998,24391,9982
17454,24727,10640
17959,25101,11376
18500,25504,12172
19058,25923,12997
19619,26348,13827
20175,26772,14650
20723,27187,15459
21247,27579,16231
21735,27945,16952
22177,28280,17614
22565,28579,18207
22894,28839,18719
23164,29056,19148
23381,29228,19501
23550,29356,19778
23673,29451,19981
23756,29520,20120
23804,29566,20208
23820,29583,20252
23805,29574,20251
23766,29550,20211
23713,29512,20145
23649,29459,20061
23570,29397,19955
23484,29332,19833
23401,29269,19712
23323,29207,19597
23254,29152,19489
23193,29106,19395
23137,29066,19315
23086,29028,19247
23042,28991,19182
23003,28956,19125
22968,28924,19077
22934,28892,19029
22903,28863,18979
22880,28840,18932
22858,28815,18888
22825,28778,18834
22779,28736,18763
22726,28696,18679
22662,28654,18587
22584,28603,18480
22499,28544,18356
22419,28481,18227
22345,28417,18100
22270,28348,17975
22189,28278,17852
22112,28218,17738
22042,28168,17632
21976,28123,17533
21914,28082,17444
21861,28044,17368
21817,28011,17305
21780,27984,17252
21750,27965,17206
21729,27950,17171
21712,27935,17146
21698,27924,17127
21688,27922,17111
21683,27924,17106
21681,27926,17110
21682,27928,17113
21683,27933,17112
21686,27937,17112
21691,27934,17112
21689,27924,17106
21681,27913,17094
21663,27899,17073
21637,27883,17042
21607,27864,16995
21573,27837,16937
21529,27801,16872
21475,27758,16797
21417,27714,16712
21358,27667,16617
21287,27610,16511
21198,27543,16393
21101,27473,16260
21006,27404,16122
20911,27332,15981
20810,27256,15835
20703,27178,15677
20593,27097,15509
20486,27015,15345
20384,26935,15189
20289,26859,15038
20199,26787,14888
20113,26713,14744
20029,26642,14610
19949,26580,14484
19871,26525,14368
19793,26471,14259
19717,26416,14149
19647,26360,14038
19588,26308,13936
19532,26257,13846
19471,26204,13757
19402,26150,13660
19331,26098,13560
19263,26052,13465
19200,26012,13371
19140,25972,13278
19080,25927,13187
19016,25875,13096
18950,25823,12999
18883,25777,12896
18816,25733,12792
18744,25684,12686
18667,25630,12574
18593,25578,12461
18531,25530,12363
18477,25486,12282
18423,25444,12203
18364,25403,12119
18308,25363,12037
18258,25323,11960
18210,25287,11886
18162,25250,11815
18110,25209,11745
18055,25164,11674
18004,25122,11598
17959,25087,11524
17915,25053,11454
17863,25016,11380
17808,24979,11297
17760,24945,11212
17720,24914,11134
17676,24883,11059
17628,24851,10984
17579,24817,10908
17531,24781,10830
17480,24742,10748
17429,24705,10664
17377,24671,10584
17323,24637,10509
17267,24600,10430
17211,24563,10342
17157,24524,10253
17103,24481,10173
17048,24438,10094
16995,24397,10009
16947,24359,9926
16902,24323,9849
16857,24284,9774
16809,24242,9700
16755,24201,9627
16694,24158,9554
16628,24114,9475
16561,24068,9391
16497,24021,9305
16436,23972,9214
16371,23919,9115
16304,23868,9014
16241,23821,8920
16178,23777,8831
16109,23731,8735
16036,23684,8634
15960,23634,8533
15881,23581,8430
15799,23528,8324
15715,23471,8211
15631,23410,8092
15550,23349,7967
15472,23292,7845
15396,23237,7726
15317,23180,7607
15236,23121,7485
15157,23061,7359
15084,23006,7236
15011,22952,7119
14930,22893,7003
14841,22830,6884
14761,22773,6773
14700,22727,6679
14658,22694,6610
14637,22684,6585
14650,22702,6620
14711,22752,6725
14838,22844,6912
15037,22989,7196
15304,23184,7585
15637,23427,8081
16041,23723,8679
16512,24071,9369
17041,24463,10141
17615,24889,10978
18218,25339,11850
18837,25802,12740
19461,26264,13639
20074,26717,14525
20654,27152,15374
21189,27562,16166
21677,27938,16898
22118,28274,17562
22509,28569,18148
22843,28821,18648
23118,29031,19065
23334,29201,19396
23494,29332,19642
23608,29424,19816
23678,29477,19932
23713,29498,19998
23719,29500,20016
23701,29486,19992
23666,29460,19937
23620,29421,19863
23565,29372,19776
23505,29321,19686
23441,29272,19599
23375,29223,19508
23309,29174,19418
23254,29131,19344
23214,29099,19295
23186,29079,19266
23167,29070,19250
23158,29066,19241
23155,29062,19242
23160,29060,19247
23170,29063,19250
23177,29066,19252
23174,29064,19251
23160,29054,19239
23137,29039,19210
23109,29017,19167
23072,28987,19116
23016,28947,19050
22943,28899,18964
22863,28844,18865
22779,28784,18753
22689,28721,18628
22599,28657,18496
22512,28590,18366
22422,28520,18234
22332,28451,18094
22252,28390,17958
22179,28331,17833
22109,28271,17720
22043,28213,17613
21981,28164,17513
21925,28119,17428
21877,28084,17363
21841,28060,17314
21815,28048,17280
21798,28039,17258
21787,28027,17242
21782,28019,17230
21783,28019,17221
21788,28018,17216
21788,28011,17207
21779,28001,17190
21769,27994,17168
21757,27987,17146
21736,27975,17118
21705,27960,17076
21673,27943,17025
21643,27922,16972
21606,27892,16912
21558,27854,16839
21498,27811,16755
21428,27760,16664
21348,27702,16559
21262,27638,16441
21171,27574,16316
21077,27508,16190
20981,27439,16056
20889,27371,15918
20798,27301,15779
20701,27224,15635
20597,27146,15488
20497,27074,15339
20404,27004,15194
20315,26931,15052
20224,26854,14909
20129,26776,14761
20035,26702,14616
19943,26630,14475
19848,26557,14334
19752,26486,14197
19660,26418,14071
19572,26352,13952
19486,26288,13829
19406,26230,13707
19332,26181,13595
19264,26136,13486
19195,26086,13374
19124,26030,13264
19052,25971,13159
18982,25913,13055
18914,25860,12949
18849,25813,12847
18786,25764,12754
18721,25713,12665
18654,25665,12574
18593,25623,12485
18540,25583,12406
18495,25545,12333
18452,25510,12256
18408,25476,12180
18362,25441,12110
18319,25409,12043
18278,25382,11974
18238,25357,11910
18199,25328,11854
18157,25293,11797
18110,25257,11732
18067,25222,11665
18027,25186,11596
17985,25148,11523
17937,25112,11447
17886,25076,11372
17830,25039,11295
17768,25000,11209
17707,24961,11118
17649,24921,11032
17590,24881,10951
17530,24839,10867
17472,24794,10780
17417,24750,10697
17362,24707,10617
17305,24667,10535
17252,24628,10451
17204,24590,10372
17153,24554,10294
17095,24516,10208
17037,24476,10117
16980,24437,10029
16918,24399,9945
16849,24357,9859
16775,24310,9776
16704,24260,9700
16637,24207,9624
16572,24158,9544
16506,24115,9461
16442,24073,9374
16375,24028,9277
16309,23984,9170
16249,23943,9064
16193,23900,8962
16134,23855,8862
16069,23808,8764
16006,23762,8670
15946,23717,8577
15885,23670,8483
15822,23625,8390
15756,23580,8296
15683,23531,8198
15608,23479,8092
15531,23427,7980
15456,23376,7865
15381,23320,7750
15306,23260,7633
15229,23202,7515
15153,23148,7402
15080,23095,7295
15011,23047,7201
14957,23015,7134
14935,23005,7114
14953,23023,7149
15021,23080,7255
15151,23181,7448
15350,23330,7738
15620,23529,8129
15957,23779,8625
16366,24083,9225
16845,24434,9919
17380,24823,10688
17952,25241,11513
18546,25684,12373
19151,26137,13252
19749,26583,14124
20325,27015,14968
20874,27430,15772
21384,27817,16523
21846,28167,17204
22250,28474,17802
22593,28733,18316
22877,28945,18746
23104,29115,19093
23279,29250,19358
23407,29349,19550
23493,29411,19682
23535,29436,19759
23536,29436,19784
23505,29420,19771
23452,29386,19725
23381,29337,19646
23295,29281,19543
23199,29221,19426
23091,29155,19295
22978,29086,19155
22872,29020,19016
22781,28956,18892
22703,28898,18787
22632,28846,18693
22568,28800,18608
22520,28761,18539
22489,28728,18486
22466,28703,18444
22447,28689,18408
22429,28680,18377
22405,28664,18340
22376,28637,18289
22341,28606,18227
22300,28572,18161
22247,28535,18084
22178,28486,17987
22097,28426,17873
22012,28361,17751
21926,28295,17623
21840,28233,17491
21758,28178,17369
21680,28127,17259
21604,28071,17154
21533,28016,17054
21475,27969,16970
21432,27930,16907
21403,27899,16863
21381,27877,16834
21365,27864,16820
21360,27856,16821
21368,27860,16832
21386,27881,16848
21415,27908,16876
21454,27936,16917
21494,27963,16959
21532,27986,16995
21566,28004,17030
21594,28019,17064
21613,28028,17087
21624,28034,17097
21627,28033,17096
21615,28021,17083
21592,28002,17052
21562,27980,17003
21526,27959,16949
21486,27933,16898
21436,27898,16836
21373,27857,16755
21305,27812,16664
21236,27761,16571
21162,27708,16468
21085,27653,16356
21006,27592,16239
20920,27521,16116
20829,27449,15979
20739,27381,15836
20652,27314,15693
20564,27245,15552
20467,27175,15405
20368,27106,15258
20276,27036,15118
20187,26965,14982
20098,26894,14845
20012,26825,14710
19929,26757,14583
19843,26690,14459
19755,26624,14334
19671,26564,14215
19592,26507,14102
19512,26448,13990
19433,26394,13876
19364,26348,13770
19301,26307,13672
19238,26267,13576
19177,26227,13483
19119,26182,13395
19059,26130,13308
19000,26080,13217
18948,26039,13124
18904,26002,13034
18864,25967,12956
18823,25935,12887
18778,25907,12822
18736,25879,12762
18699,25847,12710
18662,25815,12658
18625,25790,12601
18589,25764,12540
18552,25733,12480
18512,25700,12416
18471,25671,12349
18429,25643,12284
18390,25612,12223
18356,25582,12164
18329,25555,12108
18305,25534,12059
18281,25515,12014
18253,25495,11965
18224,25473,11913
18197,25449,11865
18167,25425,11819
18133,25403,11773
18100,25385,11722
18070,25364,11669
18038,25338,11614
18003,25313,11558
17967,25289,11499
17929,25262,11436
17885,25229,11364
17833,25196,11283
17779,25162,11196
17725,25123,11106
17667,25080,11014
17603,25037,10919
17539,24988,10824
17477,24933,10731
17414,24875,10638
17348,24820,10543
17278,24766,10444
17205,24712,10342
17130,24658,10235
17051,24604,10123
16973,24552,10018
16900,24500,9918
16821,24446,9812
16735,24392,9699
16652,24338,9591
16575,24282,9491
16503,24230,9391
16434,24185,9291
16372,24143,9202
16321,24107,9129
16287,24082,9078
16282,24080,9064
16317,24107,9109
16398,24167,9227
16529,24268,9428
16717,24413,9717
16972,24605,10098
17294,24845,10570
17683,25134,11129
18132,25469,11773
18628,25840,12487
19155,26238,13246
19699,26656,14033
20250,27083,14834
20798,27507,15636
21327,27915,16415
21823,28299,17151
22278,28653,17833
22693,28972,18455
23061,29254,19008
23378,29496,19485
23645,29697,19885
23858,29856,20212
24013,29969,20458
24114,30040,20624
24174,30079,20722
24199,30089,20760
24185,30070,20745
24138,30028,20689
24069,29973,20604
23980,29904,20496
23875,29828,20363
23766,29750,20214
23659,29669,20066
23557,29587,19929
23458,29509,19797
23359,29437,19662
23267,29371,19535
23189,29312,19420
23122,29256,19316
23060,29208,19222
22998,29165,19139
22934,29123,19060
22870,29084,18980
22807,29048,18898
22750,29012,18818
22692,28969,18734
22625,28919,18637
22554,28868,18526
22482,28813,18406
22408,28755,18283
22330,28692,18153
22250,28627,18023
22174,28564,17903
22098,28502,17789
22023,28446,17676
21956,28398,17570
21900,28355,17481
21852,28315,17411
21812,28284,17356
21788,28267,17322
21776,28260,17308
21771,28259,17301
21777,28263,17300
21796,28272,17310
21821,28284,17331
21845,28297,17354
21868,28310,17374
21886,28319,17392
21899,28321,17412
21911,28320,17433
21924,28325,17451
21937,28335,17467
21945,28341,17480
21945,28340,17482
21935,28335,17466
21919,28326,17440
21896,28311,17411
21857,28290,17368
21802,28260,17306
21741,28221,17229
21679,28177,17139
21610,28128,17037
21537,28077,16925
21466,28022,16810
21392,27961,16693
21312,27897,16566
21228,27836,16428
21140,27772,16284
21046,27699,16137
20943,27618,15987
20837,27536,15835
20734,27452,15685
20635,27367,15535
20537,27283,15385
20438,27204,15239
20338,27128,15101
20237,27052,14965
20141,26982,14828
20059,26919,14697
19992,26861,14577
19927,26803,14466
19859,26747,14360
19795,26696,14258
19738,26650,14163
19684,26608,14077
19626,26567,13991
19567,26524,13900
19510,26479,13807
19456,26435,13717
19402,26395,13626
19348,26358,13536
19297,26325,13458
19247,26290,13382
19196,26253,13302
19148,26217,13226
19109,26183,13156
19067,26150,13087
19015,26119,13015
18960,26092,12942
18907,26060,12869
18856,26024,12795
18806,25989,12724
18755,25952,12654
18701,25911,12578
18652,25869,12499
18608,25832,12424
18565,25795,12355
18522,25759,12291
18477,25725,12224
18431,25691,12154
18384,25657,12085
18336,25621,12015
18284,25583,11936
18225,25543,11851
18160,25497,11765
18094,25447,11678
18033,25401,11592
17983,25363,11512
17938,25326,11436
17887,25287,11351
17829,25245,11256
17771,25200,11162
17717,25153,11076
17664,25106,10996
17608,25063,10918
17550,25022,10839
17491,24984,10763
17440,24952,10689
17398,24923,10616
17356,24896,10546
17311,24869,10480
17260,24838,10411
17207,24805,10335
