green_channel,red_channel,ir_channel
59272,20709,9995
59176,20640,9868
59087,20574,9741
58995,20506,9613
58890,20429,9473
58786,20347,9326
58696,20275,9187
58607,20208,9050
58510,20140,8905
58413,20074,8758
58320,20017,8619
58222,19962,8478
58117,19902,8329
58015,19841,8182
57924,19785,8047
57831,19727,7916
57730,19662,7781
57635,19599,7644
57549,19541,7513
57460,19479,7383
57357,19408,7247
57253,19337,7110
57162,19277,6981
57072,19218,6854
56973,19152,6717
56871,19085,6578
56776,19023,6439
56682,18963,6298
56585,18900,6155
56489,18839,6015
56397,18783,5883
56304,18725,5756
56212,18665,5635
56130,18610,5525
56053,18559,5422
55973,18505,5317
55899,18453,5217
55837,18408,5129
55774,18366,5047
55703,18320,4957
55635,18276,4868
55583,18242,4787
55533,18209,4704
55476,18170,4613
55421,18131,4524
55366,18098,4442
55301,18063,4356
55226,18022,4257
55152,17977,4152
55078,17934,4046
54997,17887,3931
54906,17829,3799
54812,17766,3664
54715,17704,3535
54610,17638,3403
54500,17565,3261
54401,17495,3123
54318,17436,3004
54243,17384,2902
54185,17340,2821
54170,17325,2793
54210,17355,2853
54312,17429,3008
54489,17552,3264
54763,17743,3643
55132,18004,4152
55571,18312,4764
56065,18647,5451
56608,19011,6200
57176,19393,6988
57733,19768,7775
58263,20125,8536
58776,20464,9266
59267,20784,9953
59707,21071,10578
60090,21327,11137
60427,21555,11639
60713,21751,12075
60941,21906,12430
61123,22027,12716
61270,22126,12946
61379,22199,13117
61447,22239,13221
61486,22257,13270
61505,22266,13287
61502,22262,13275
61474,22241,13232
61437,22213,13169
61397,22182,13101
61348,22147,13026
61292,22103,12943
61242,22058,12858
61197,22021,12783
61151,21988,12713
61103,21952,12640
61063,21919,12573
61037,21897,12521
61012,21877,12476
60980,21852,12427
60955,21832,12387
60940,21821,12366
60916,21808,12345
60881,21785,12310
60855,21767,12270
60840,21756,12233
60817,21736,12185
60771,21698,12115
60716,21655,12033
60656,21612,11944
60580,21562,11838
60485,21502,11709
60381,21436,11567
60272,21367,11421
60160,21295,11269
60052,21223,11117
59951,21155,10971
59855,21091,10833
59762,21027,10699
59678,20967,10575
59610,20919,10473
59555,20880,10389
59513,20850,10322
59494,20835,10278
59492,20832,10258
59492,20833,10253
59490,20831,10253
59499,20835,10261
59520,20848,10284
59540,20862,10314
59556,20873,10335
59575,20888,10349
59595,20906,10361
59604,20917,10368
59595,20912,10358
59574,20895,10333
59550,20878,10306
59513,20858,10269
59463,20824,10210
59413,20784,10136
59366,20748,10057
59307,20708,9966
59228,20655,9850
59134,20591,9719
59038,20528,9592
58936,20463,9462
58825,20392,9314
58714,20320,9159
58604,20251,9004
58489,20179,8846
58367,20099,8683
58247,20015,8521
58132,19936,8363
58019,19860,8205
57906,19785,8043
57794,19711,7885
57680,19638,7731
57563,19559,7575
57448,19476,7419
57340,19399,7273
57242,19331,7137
57144,19265,6996
57047,19201,6849
56954,19143,6712
56859,19086,6582
56758,19025,6443
56661,18964,6301
56578,18913,6175
56502,18867,6063
56424,18812,5948
56349,18755,5829
56284,18710,5722
56221,18671,5626
56152,18626,5527
56081,18579,5430
56017,18538,5345
55951,18499,5262
55880,18457,5173
55812,18412,5082
55750,18371,4994
55684,18327,4907
55612,18279,4816
55547,18235,4730
55494,18201,4650
55441,18168,4563
55380,18130,4463
55316,18091,4363
55251,18052,4265
55177,18004,4162
55090,17947,4052
55000,17888,3939
54913,17832,3829
54823,17772,3716
54728,17708,3595
54640,17649,3479
54564,17601,3379
54505,17567,3302
54476,17554,3265
54496,17574,3295
54580,17637,3413
54739,17744,3626
54980,17900,3944
55305,18114,4379
55700,18379,4921
56146,18675,5539
56633,18995,6209
57150,19339,6923
57673,19689,7652
58176,20027,8368
58657,20347,9056
59111,20652,9717
59523,20937,10336
59885,21189,10891
60206,21409,11379
60487,21602,11804
60722,21763,12160
60908,21887,12440
61055,21983,12655
61168,22060,12822
61245,22113,12940
61288,22137,13005
61304,22145,13033
61302,22146,13037
61280,22133,13012
61238,22100,12954
61189,22059,12878
61139,22023,12802
61080,21984,12722
61011,21935,12629
60950,21889,12535
60902,21852,12453
60852,21816,12376
60796,21773,12297
60753,21737,12227
60727,21713,12175
60696,21686,12123
60654,21649,12060
60618,21617,12002
60590,21595,11953
60552,21565,11895
60503,21525,11821
60457,21488,11746
60409,21456,11670
60342,21414,11573
60258,21360,11455
60172,21307,11332
60082,21254,11206
59980,21192,11064
59872,21124,10911
59773,21063,10769
59681,21005,10636
59581,20937,10495
59480,20864,10352
59395,20802,10230
59322,20750,10126
59257,20704,10035
59209,20669,9964
59184,20650,9922
59172,20641,9900
59159,20632,9883
59151,20624,9870
59159,20626,9870
59178,20636,9883
59200,20649,9906
59232,20669,9947
59274,20694,9998
59311,20714,10042
59336,20723,10069
59352,20730,10092
59360,20740,10113
59355,20742,10121
59343,20735,10113
59335,20736,10103
59326,20744,10094
59299,20738,10069
59256,20709,10017
59208,20674,9949
59155,20637,9872
59086,20589,9775
59003,20528,9656
58920,20468,9533
58833,20409,9408
58731,20337,9264
58611,20246,9099
58493,20157,8940
58380,20077,8790
58261,19996,8631
58140,19913,8467
58033,19840,8315
57935,19773,8169
57825,19700,8012
57708,19624,7852
57604,19558,7707
57512,19500,7572
57419,19439,7437
57327,19377,7306
57242,19319,7183
57157,19264,7060
57067,19207,6931
56973,19149,6803
56884,19097,6686
56802,19050,6578
56722,19002,6471
56647,18953,6370
56575,18903,6276
56496,18848,6176
56413,18793,6066
56340,18748,5958
56276,18715,5859
56206,18679,5760
56132,18636,5653
56067,18597,5552
56005,18559,5464
55931,18510,5373
55852,18455,5276
55785,18408,5190
55731,18373,5121
55669,18335,5047
55603,18291,4964
55547,18253,4886
55497,18220,4817
55440,18181,4743
55380,18136,4660
55329,18095,4576
55284,18058,4494
55233,18022,4411
55181,17986,4335
55138,17957,4273
55106,17937,4227
55090,17931,4205
55108,17948,4228
55172,18000,4325
55286,18085,4506
55462,18208,4775
55721,18381,5145
56063,18611,5616
56469,18886,6173
56916,19187,6789
57393,19507,7449
57891,19845,8143
58388,20188,8849
58868,20517,9540
59328,20829,10207
59769,21128,10845
60176,21404,11438
60536,21650,11972
60856,21871,12447
61135,22069,12863
61364,22232,13210
61546,22356,13487
61693,22451,13706
61807,22525,13875
61880,22569,13987
61922,22586,14048
61950,22595,14080
61962,22598,14096
61945,22584,14084
61906,22554,14044
61870,22527,13997
61844,22505,13953
61809,22477,13896
61768,22442,13823
61736,22412,13753
61708,22389,13694
61672,22364,13640
61636,22338,13593
61611,22322,13558
61597,22312,13529
61586,22302,13500
61581,22295,13479
61584,22294,13472
61582,22294,13470
61570,22288,13459
61560,22280,13441
61549,22270,13422
61518,22246,13389
61463,22205,13331
61402,22157,13250
61339,22112,13158
61267,22065,13050
61177,22003,12915
61079,21932,12763
60982,21862,12612
60877,21792,12458
60764,21717,12299
60659,21644,12148
60571,21585,12018
60495,21537,11904
60427,21492,11803
60373,21452,11719
60336,21424,11659
60306,21405,11616
60281,21388,11579
60268,21380,11558
60273,21384,11558
60284,21392,11568
60299,21402,11582
60325,21419,11611
60360,21446,11652
60396,21471,11694
60426,21490,11733
60455,21508,11771
60478,21525,11807
60489,21532,11829
60490,21526,11830
60488,21517,11824
60477,21507,11814
60448,21484,11782
60402,21451,11725
60352,21420,11664
60299,21389,11599
60231,21345,11512
60152,21294,11408
60077,21247,11307
60004,21201,11207
59919,21146,11098
59829,21088,10986
59745,21033,10875
59660,20976,10756
59564,20910,10615
59468,20841,10462
59379,20776,10311
59288,20710,10162
59193,20639,10010
59103,20572,9862
59019,20510,9727
58931,20447,9595
58833,20378,9457
58729,20309,9323
58631,20248,9204
58537,20190,9090
58439,20130,8972
58345,20072,8858
58260,20021,8753
58176,19969,8649
58089,19914,8538
58005,19861,8430
57930,19813,8329
57854,19762,8225
57775,19708,8114
57702,19657,8007
57632,19608,7906
57556,19555,7798
57477,19498,7678
57408,19446,7563
57344,19399,7459
57276,19350,7353
57207,19299,7239
57149,19257,7139
57100,19225,7057
57040,19188,6972
56970,19143,6880
56910,19107,6800
56858,19079,6731
56797,19044,6656
56734,19003,6576
56687,18971,6510
56651,18948,6456
56606,18920,6392
56553,18887,6317
56504,18857,6241
56450,18823,6164
56383,18782,6079
56308,18738,5985
56233,18697,5888
56152,18652,5783
56061,18598,5665
55967,18539,5539
55874,18479,5416
55774,18415,5289
55671,18345,5159
55584,18287,5049
55528,18258,4982
55507,18252,4961
55532,18270,4995
55631,18334,5125
55818,18460,5379
56083,18642,5752
56418,18869,6226
56831,19145,6796
57313,19469,7453
57833,19824,8164
58369,20191,8901
58909,20561,9652
59440,20927,10402
59940,21272,11125
60399,21590,11799
60819,21881,12416
61196,22143,12975
61527,22373,13474
61813,22569,13911
62053,22733,14285
62245,22863,14589
62394,22961,14822
62509,23033,14995
62596,23086,15123
62653,23119,15209
62686,23134,15256
62711,23143,15282
62729,23149,15298
62728,23146,15297
62707,23130,15279
62679,23110,15251
62652,23092,15224
62620,23070,15189
62586,23043,15140
62561,23019,15088
62548,23003,15047
62535,22987,15012
62512,22963,14973
62484,22937,14935
62464,22920,14910
62452,22913,14895
62441,22908,14882
62437,22906,14873
62440,22909,14869
62438,22908,14860
62424,22898,14837
62403,22884,14807
62378,22867,14771
62340,22839,14717
62288,22799,14642
62232,22760,14561
62170,22720,14477
62094,22667,14372
62009,22599,14245
61927,22533,14113
61845,22471,13981
61746,22398,13837
61639,22318,13684
61545,22252,13547
61467,22202,13434
61390,22155,13325
61314,22108,13218
61254,22074,13131
61208,22046,13062
61162,22014,12997
61122,21984,12939
61102,21967,12905
61095,21957,12889
61086,21945,12876
61080,21936,12865
61082,21936,12864
61083,21935,12864
61076,21929,12858
61069,21926,12856
61064,21929,12858
61050,21928,12852
61030,21921,12826
61014,21910,12794
61000,21902,12766
60979,21889,12735
60940,21864,12687
60893,21831,12627
60850,21799,12563
60803,21765,12492
60745,21724,12407
60684,21681,12310
60621,21639,12210
60543,21589,12102
60448,21527,11974
60347,21459,11837
60248,21391,11701
60145,21319,11561
60035,21239,11414
59924,21160,11266
59814,21084,11121
59703,21006,10973
59596,20930,10818
59500,20863,10667
59407,20801,10522
59305,20729,10367
59196,20645,10200
59093,20567,10044
58993,20499,9905
58884,20428,9762
58771,20354,9616
58674,20295,9487
58589,20248,9370
58496,20195,9244
58396,20134,9110
58308,20079,8987
58228,20027,8871
58142,19970,8750
58054,19910,8631
57976,19858,8519
57903,19807,8406
57820,19749,8286
57732,19685,8165
57652,19626,8055
57580,19574,7951
57505,19522,7845
57430,19473,7738
57359,19431,7636
57287,19390,7536
57214,19347,7435
57143,19308,7341
57078,19275,7258
57014,19240,7176
56946,19200,7089
56884,19162,7006
56826,19127,6925
56759,19086,6835
56683,19038,6732
56610,18994,6636
56542,18957,6551
56470,18915,6461
56398,18866,6361
56333,18820,6264
56268,18778,6174
56188,18725,6071
56098,18664,5951
56012,18610,5833
55927,18565,5730
55833,18516,5623
55735,18459,5507
55643,18404,5393
55555,18350,5280
55461,18289,5155
55374,18222,5028
55312,18173,4932
55278,18149,4880
55268,18145,4867
55303,18171,4913
55412,18248,5057
55608,18384,5315
55882,18571,5687
56237,18810,6172
56676,19106,6770
57180,19443,7455
57713,19797,8191
58258,20162,8954
58808,20535,9733
59344,20901,10506
59851,21248,11248
60331,21577,11953
60778,21886,12613
61177,22165,13207
61525,22409,13720
61828,22623,14166
62088,22808,14552
62294,22954,14862
62450,23061,15097
62575,23144,15283
62675,23213,15432
62741,23257,15535
62774,23273,15589
62793,23277,15614
62805,23281,15627
62799,23274,15621
62776,23249,15592
62750,23220,15552
62723,23191,15509
62687,23158,15459
62643,23122,15401
62602,23090,15346
62564,23066,15297
62524,23043,15248
62489,23022,15200
62466,23006,15158
62445,22989,15117
62414,22965,15068
62379,22939,15018
62354,22923,14980
62331,22906,14949
62299,22879,14911
62265,22848,14864
62237,22822,14813
62205,22793,14753
62157,22755,14678
62099,22713,14591
62035,22671,14497
61959,22621,14390
61868,22559,14263
61773,22493,14130
61675,22430,14001
61573,22364,13869
61469,22294,13727
61371,22225,13589
61281,22164,13465
61198,22105,13347
61125,22049,13233
61068,22003,13140
61025,21972,13077
60986,21946,13024
60945,21919,12974
60921,21904,12942
60920,21907,12932
60921,21912,12928
60917,21910,12921
60924,21912,12924
60940,21921,12940
60949,21924,12951
60951,21916,12953
60954,21910,12957
60956,21912,12962
60943,21906,12948
60917,21890,12912
60892,21879,12876
60865,21872,12841
60819,21850,12786
60755,21808,12707
60691,21762,12623
60628,21717,12538
60554,21664,12436
60473,21606,12322
60400,21556,12212
60327,21508,12104
60239,21443,11978
60141,21364,11840
60046,21287,11705
59951,21215,11577
59847,21139,11440
59738,21062,11298
59633,20994,11157
59525,20927,11009
59409,20853,10851
59291,20774,10688
59180,20700,10528
59068,20626,10366
58950,20548,10199
58831,20469,10034
58708,20389,9874
58577,20305,9710
58446,20219,9538
58330,20145,9376
58228,20085,9231
58126,20021,9083
58022,19945,8923
57926,19873,8767
57831,19807,8623
57725,19734,8476
57610,19656,8325
57505,19586,8186
57411,19525,8063
57311,19459,7934
57207,19385,7794
57115,19317,7662
57032,19259,7542
56943,19198,7419
56847,19133,7291
56761,19080,7177
56686,19040,7080
56606,18996,6976
56520,18943,6862
56440,18897,6756
56362,18854,6653
56274,18803,6540
56185,18751,6428
56113,18712,6333
56054,18680,6250
55988,18640,6157
55914,18591,6053
55843,18545,5951
55772,18496,5848
55696,18440,5740
55620,18386,5630
55553,18342,5527
55488,18302,5425
55415,18259,5316
55337,18213,5204
55255,18165,5092
55161,18108,4969
55059,18043,4836
54962,17980,4704
54869,17923,4578
54777,17866,4449
54681,17804,4313
54586,17743,4179
54490,17686,4052
54391,17628,3931
54304,17575,3826
54258,17548,3766
54265,17557,3776
54329,17601,3863
54461,17689,4046
54689,17842,4363
55018,18064,4823
55430,18339,5398
55914,18659,6064
56461,19025,6815
57047,19424,7626
57636,19826,8445
58205,20211,9244
58756,20587,10022
59279,20946,10763
59752,21268,11438
60170,21551,12043
60543,21805,12589
60866,22025,13068
61122,22195,13461
61317,22322,13769
61473,22425,14015
61594,22502,14203
61675,22550,14329
61729,22578,14405
61762,22596,14445
61772,22598,14449
61754,22579,14413
61715,22548,14348
61663,22512,14267
61597,22469,14174
61520,22416,14069
61445,22360,13962
61377,22309,13866
61307,22257,13770
61237,22201,13667
61179,22153,13576
61132,22121,13506
61082,22092,13441
61024,22058,13367
60974,22026,13297
60935,22002,13242
60895,21977,13189
60846,21941,13125
60793,21903,13051
60743,21866,12972
60689,21826,12881
60622,21778,12774
60545,21725,12655
60459,21668,12529
60361,21606,12391
60256,21535,12242
60147,21465,12090
60034,21396,11940
59917,21320,11783
59804,21239,11620
59702,21169,11469
59608,21108,11335
59515,21043,11202
59429,20981,11076
59365,20938,10981
59317,20911,10918
59272,20889,10868
59240,20871,10830
59230,20864,10812
59229,20859,10806
59229,20855,10804
59240,20859,10812
59262,20873,10833
59282,20886,10857
59297,20892,10871
59316,20897,10883
59340,20908,10905
59354,20920,10928
59353,20922,10934
59347,20917,10922
59338,20910,10905
59317,20896,10879
59280,20870,10838
59237,20837,10786
59193,20805,10733
59137,20769,10665
59065,20721,10574
58989,20671,10470
58914,20622,10361
58832,20567,10239
58738,20501,10100
58637,20429,9953
58526,20353,9798
58404,20267,9623
58277,20175,9435
58153,20095,9258
58027,20023,9091
57884,19943,8909
57731,19850,8710
57584,19757,8516
57445,19667,8330
57303,19573,8140
57162,19480,7949
57039,19400,7776
56925,19325,7613
56801,19243,7442
56669,19159,7271
56550,19083,7112
56442,19011,6958
56335,18937,6803
56238,18869,6652
56155,18812,6517
56074,18756,6389
55983,18695,6256
55890,18638,6125
55799,18590,6004
55700,18535,5881
55592,18469,5750
55486,18402,5620
55391,18346,5506
55304,18297,5398
55219,18244,5283
55140,18191,5165
55067,18145,5054
54991,18100,4943
54911,18050,4827
54837,18000,4715
54770,17952,4610
54694,17900,4501
54610,17841,4386
54529,17787,4280
54454,17741,4186
54370,17689,4083
54278,17626,3961
54192,17567,3840
54105,17514,3727
54005,17453,3607
53895,17384,3476
53797,17325,3354
53715,17280,3250
53643,17240,3162
53591,17214,3100
53584,17218,3093
53631,17257,3161
53738,17334,3315
53932,17462,3580
54226,17653,3976
54608,17902,4493
55062,18198,5110
55578,18538,5813
56134,18912,6579
56701,19300,7371
57255,19680,8154
57796,20046,8915
58321,20399,9649
58804,20725,10337
59232,21015,10957
59614,21274,11508
59952,21504,11995
60232,21695,12408
60452,21840,12743
60622,21949,13009
60754,22031,13212
60846,22087,13352
60901,22116,13432
60930,22130,13472
60938,22132,13486
60918,22114,13465
60872,22074,13404
60819,22032,13326
60763,21991,13243
60689,21941,13144
60601,21879,13025
60518,21819,12899
60445,21769,12778
60369,21720,12656
60288,21670,12534
60213,21622,12416
60146,21576,12309
60085,21528,12215
60026,21479,12131
59970,21432,12054
59912,21388,11979
59849,21340,11899
59785,21293,11812
59726,21252,11727
59669,21214,11639
59597,21164,11531
59512,21103,11405
59427,21045,11280
59338,20984,11152
59229,20906,11001
59103,20814,10833
58980,20728,10669
58863,20648,10511
58747,20567,10350
58638,20491,10197
58542,20428,10063
58455,20374,9945
58378,20325,9832
58319,20288,9736
58278,20269,9668
58246,20259,9618
58223,20249,9573
58216,20244,9548
58226,20251,9556
58243,20265,9585
58262,20275,9617
58292,20289,9655
58334,20316,9710
58373,20345,9770
58402,20365,9819
58426,20378,9854
58450,20393,9887
58471,20405,9914
58482,20409,9929
58487,20407,9934
58483,20400,9929
58467,20384,9911
58439,20357,9877
58398,20326,9830
58346,20290,9764
58278,20244,9667
58195,20189,9546
58109,20136,9429
58018,20087,9319
57911,20026,9193
57793,19955,9049
57679,19887,8902
57567,19816,8751
57442,19733,8584
57310,19643,8406
57190,19564,8235
57078,19494,8073
56959,19415,7904
56835,19328,7730
56713,19242,7560
56586,19156,7387
56452,19065,7207
56322,18978,7027
56200,18900,6856
56079,18823,6685
55954,18742,6508
55836,18667,6335
55729,18601,6178
55621,18536,6031
55506,18461,5878
55394,18387,5724
55296,18321,5585
55199,18261,5453
55099,18199,5317
55006,18141,5184
54925,18092,5063
54848,18046,4948
54765,17995,4831
54683,17946,4719
54602,17901,4612
54513,17850,4495
54421,17790,4365
54334,17731,4237
54251,17675,4115
54162,17614,3986
54068,17550,3852
53984,17495,3729
53906,17448,3616
53819,17393,3496
53722,17334,3371
53632,17283,3256
53551,17238,3147
53464,17185,3033
53378,17129,2919
53305,17082,2820
53236,17040,2730
53168,16997,2647
53122,16966,2592
53123,16964,2591
53180,16996,2663
53299,17071,2828
53505,17206,3113
53814,17414,3542
54218,17687,4103
54702,18009,4761
55254,18372,5499
55851,18765,6300
56455,19165,7127
57043,19555,7946
57612,19933,8747
58158,20299,9523
58665,20640,10253
59119,20946,10912
59520,21217,11498
59870,21456,12019
60166,21657,12468
60410,21819,12838
60610,21950,13139
60767,22056,13380
60876,22131,13556
60946,22176,13668
60992,22206,13736
61023,22226,13775
61027,22220,13776
61004,22191,13739
60969,22157,13692
60925,22124,13642
60863,22082,13577
60789,22032,13496
60721,21989,13415
60663,21953,13339
60600,21911,13256
60535,21863,13167
60483,21823,13088
60437,21789,13013
60387,21752,12933
60342,21716,12857
60307,21687,12797
60272,21659,12743
60232,21628,12682
60195,21599,12622
60161,21576,12571
60118,21550,12516
60064,21515,12442
60009,21471,12351
59957,21426,12258
59893,21378,12155
59805,21318,12033
59706,21250,11896
59608,21184,11757
59505,21117,11615
59398,21047,11467
59298,20980,11320
59204,20917,11177
59102,20850,11032
58996,20780,10882
58902,20719,10747
58827,20675,10637
58759,20634,10540
58695,20592,10451
58651,20561,10381
58635,20549,10338
58634,20544,10314
58636,20538,10298
58641,20533,10294
58651,20530,10302
58663,20529,10319
58679,20533,10341
58704,20547,10372
58734,20572,10411
58757,20591,10439
58773,20600,10451
58788,20610,10466
58798,20623,10484
58789,20620,10479
58763,20600,10450
58736,20579,10413
58703,20556,10368
58649,20518,10299
58583,20475,10214
58516,20436,10124
58445,20392,10021
58361,20337,9901
58270,20276,9770
58174,20215,9635
58064,20146,9491
57942,20066,9330
57822,19980,9157
57707,19897,8987
57589,19814,8819
57468,19727,8648
57352,19645,8479
57240,19572,8318
57122,19501,8159
56995,19424,7992
56867,19344,7824
56747,19271,7664
56627,19200,7506
56502,19124,7344
56381,19050,7186
56266,18980,7039
56154,18908,6894
56041,18831,6748
55934,18760,6604
55836,18698,6465
55740,18637,6326
55645,18573,6186
55555,18513,6052
55465,18456,5927
55371,18399,5805
55277,18339,5683
55190,18285,5569
55110,18236,5463
55034,18185,5354
54960,18130,5244
54889,18080,5143
54813,18037,5047
54730,17991,4942
54651,17939,4828
54583,17893,4722
54519,17849,4623
54447,17799,4521
54374,17743,4416
54309,17692,4317
54245,17644,4223
54168,17590,4120
54081,17534,4010
53995,17483,3903
53907,17433,3792
53812,17380,3672
53718,17325,3547
53636,17277,3426
53561,17229,3308
53485,17178,3189
53410,17128,3079
53339,17084,2986
53273,17047,2912
53231,17027,2873
53246,17045,2905
53338,17115,3040
53514,17240,3289
53786,17423,3660
54165,17675,4166
54639,17992,4801
55176,18350,5529
55757,18735,6319
56372,19141,7153
56996,19554,8008
57595,19949,8846
58158,20318,9645
58688,20668,10404
59175,20997,11113
59601,21286,11749
59967,21534,12307
60290,21756,12800
60570,21955,13229
60791,22115,13574
60958,22232,13838
61091,22322,14049
61193,22394,14211
61256,22439,14311
61288,22460,14359
61307,22473,14380
61310,22477,14377
61287,22460,14341
61247,22429,14280
61207,22399,14215
61163,22365,14149
61110,22321,14075
61060,22278,14001
61020,22242,13936
60980,22207,13871
60937,22168,13802
60897,22134,13740
60863,22111,13692
60832,22090,13651
60804,22068,13611
60787,22050,13579
60780,22041,13559
60767,22028,13536
60746,22006,13498
60726,21986,13460
60704,21972,13430
60667,21951,13391
60622,21916,13333
60581,21877,13268
60538,21839,13196
60470,21789,13094
60377,21722,12957
60279,21651,12811
60183,21586,12669
60076,21515,12518
59960,21437,12360
59853,21367,12210
59752,21309,12074
59645,21248,11937
59538,21181,11796
59449,21124,11669
59383,21079,11560
59326,21035,11462
59277,20994,11380
59247,20968,11325
59228,20950,11287
59209,20935,11258
59197,20928,11245
59199,20932,11248
59203,20937,11253
59204,20937,11257
59213,20940,11266
59233,20949,11285
59247,20958,11305
59249,20960,11314
59248,20958,11314
59247,20958,11308
59236,20951,11288
59209,20928,11248
59175,20898,11201
59139,20871,11157
59094,20844,11106
59037,20804,11033
58974,20757,10946
58911,20714,10857
58840,20663,10756
58753,20598,10629
58659,20529,10490
58567,20467,10358
58469,20406,10229
58359,20337,10090
58244,20265,9946
58133,20198,9798
58019,20128,9640
57902,20050,9469
57789,19971,9295
57682,19893,9127
57575,19816,8963
57466,19741,8798
57360,19671,8634
57255,19602,8473
57148,19533,8318
57041,19467,8170
56939,19404,8032
56838,19341,7898
56735,19277,7760
56635,19217,7624
56542,19163,7501
56445,19107,7384
56343,19045,7264
56253,18988,7146
56178,18938,7034
56100,18885,6924
56010,18823,6810
55919,18761,6698
55835,18707,6595
55752,18658,6488
55665,18606,6371
55583,18555,6256
55513,18512,6156
55448,18471,6060
55379,18424,5954
55311,18375,5846
55250,18335,5751
55185,18297,5658
55111,18253,5557
55040,18210,5456
54978,18176,5366
54911,18136,5277
54832,18086,5177
54756,18035,5073
54693,17991,4977
54628,17949,4884
54552,17899,4787
54474,17847,4689
54402,17798,4595
54326,17746,4496
54241,17684,4389
54158,17621,4277
54079,17563,4160
53999,17508,4044
53927,17461,3939
53874,17428,3861
53853,17414,3824
53873,17429,3847
53955,17489,3961
54121,17605,4196
54377,17781,4557
54728,18017,5041
55175,18314,5644
55699,18662,6349
56265,19040,7122
56846,19427,7926
57433,19818,8741
58017,20211,9560
58577,20591,10359
59096,20943,11108
59576,21268,11798
60017,21569,12432
60400,21838,12995
60717,22063,13475
60975,22245,13875
61186,22393,14206
61350,22508,14471
61467,22589,14669
61544,22643,14809
61593,22681,14898
61618,22700,14938
61623,22697,14933
61619,22683,14905
61601,22661,14863
61559,22623,14797
61498,22570,14709
61441,22525,14621
61394,22492,14548
61339,22456,14472
61272,22411,14383
61213,22368,14297
61165,22330,14223
61115,22292,14153
61063,22253,14086
61024,22226,14030
61000,22209,13988
60974,22190,13947
60943,22166,13906
60919,22144,13871
60900,22125,13837
60879,22100,13797
60853,22071,13749
60821,22040,13691
60769,22001,13617
60698,21949,13522
60624,21895,13415
60550,21845,13309
60467,21791,13195
60371,21727,13060
60269,21655,12910
60171,21590,12767
60076,21530,12633
59975,21467,12495
59873,21402,12357
59784,21342,12228
59703,21285,12107
59628,21232,11993
59567,21190,11899
59525,21158,11828
59489,21131,11766
59454,21104,11708
59429,21083,11666
59416,21070,11643
59406,21057,11626
59401,21046,11611
59411,21047,11607
59428,21058,11616
59435,21060,11621
59430,21054,11615
59427,21054,11610
59428,21064,11612
59419,21071,11600
59400,21067,11569
59382,21062,11532
59361,21054,11495
59319,21031,11439
59260,20991,11358
59201,20950,11272
59142,20908,11185
59066,20852,11081
58976,20785,10964
58886,20719,10846
58792,20649,10719
58685,20572,10573
58570,20492,10416
58457,20414,10260
58340,20337,10097
58211,20253,9920
58081,20172,9742
57959,20100,9576
57833,20030,9412
57700,19952,9241
57576,19875,9074
57461,19803,8917
57341,19728,8757
57214,19647,8586
57090,19565,8416
56975,19488,8257
56863,19410,8104
56744,19326,7940
56624,19242,7770
56510,19161,7606
56394,19079,7442
56272,18993,7269
56156,18910,7098
56051,18838,6942
55949,18771,6794
55841,18700,6644
55731,18631,6493
55623,18569,6349
55515,18509,6207
55410,18448,6065
55314,18393,5934
55223,18342,5812
55127,18281,5684
55031,18212,5548
54951,18154,5424
54886,18111,5319
54818,18064,5212
54745,18012,5097
54678,17966,4993
54616,17927,4899
54543,17883,4800
54460,17833,4692
54386,17788,4592
54323,17746,4498
54252,17695,4396
54171,17643,4289
54092,17601,4188
54013,17559,4086
53921,17504,3966
53824,17442,3836
53733,17383,3708
53640,17318,3575
53543,17247,3430
53450,17181,3288
53363,17119,3155
53266,17056,3023
53156,16986,2883
53049,16915,2741
52957,16856,2617
52879,16810,2518
52821,16778,2455
52813,16777,2457
52881,16825,2557
53033,16932,2776
53275,17099,3122
53619,17333,3604
54069,17638,4224
54604,18001,4956
55193,18399,5762
55814,18817,6613
56447,19244,7485
57068,19661,8346
57658,20053,9171
58209,20418,9950
58717,20757,10674
59171,21060,11327
59569,21325,11898
59913,21554,12390
60198,21745,12809
60426,21896,13148
60605,22008,13410
60739,22093,13611
60826,22154,13755
60867,22180,13832
60874,22177,13852
60865,22167,13843
60846,22153,13816
60803,22121,13758
60740,22073,13671
60674,22024,13573
60606,21971,13470
60524,21906,13355
60436,21838,13237
60357,21780,13128
60281,21730,13024
60200,21675,12913
60125,21620,12803
60064,21572,12708
60010,21530,12620
59960,21493,12531
59917,21466,12449
59882,21451,12383
59844,21435,12320
59799,21404,12248
59752,21368,12176
59701,21335,12107
59634,21293,12026
59547,21234,11919
59455,21167,11794
59369,21102,11666
59277,21034,11530
59170,20953,11377
59058,20867,11212
58950,20786,11049
58842,20708,10889
58731,20627,10730
58622,20552,10576
58520,20486,10437
58425,20428,10309
58341,20374,10190
58270,20326,10087
58211,20292,10008
58168,20268,9945
58139,20251,9895
58124,20243,9870
58120,20243,9870
58122,20242,9876
58135,20246,9889
58162,20262,9921
58189,20284,9965
58205,20297,9998
58217,20304,10018
58236,20316,10034
58253,20334,10041
58255,20339,10027
58244,20332,9993
58231,20323,9954
58211,20312,9911
58169,20289,9850
58109,20253,9772
58042,20208,9683
57969,20155,9579
57883,20091,9456
57786,20020,9323
57682,19948,9189
57564,19870,9045
57437,19782,8883
57314,19695,8717
57197,19616,8551
57069,19531,8374
56925,19436,8181
56782,19340,7987
56646,19253,7800
56503,19163,7608
56347,19068,7406
56196,18976,7204
56058,18894,7013
55924,18817,6830
55787,18737,6647
55656,18656,6470
55535,18578,6300
55415,18502,6134
55297,18429,5970
55185,18358,5812
55077,18289,5659
54972,18219,5508
54871,18149,5359
54774,18082,5219
54676,18019,5086
54576,17952,4946
54480,17883,4804
54397,17824,4676
54321,17773,4557
54237,17717,4437
54148,17659,4318
54068,17613,4209
53993,17573,4103
53907,17526,3987
53815,17474,3862
53729,17428,3742
53646,17382,3624
53559,17329,3498
53475,17273,3369
53392,17217,3248
53298,17153,3122
53190,17076,2977
53082,17000,2827
52983,16934,2687
52881,16869,2548
52771,16797,2395
52661,16722,2239
52559,16656,2102
52463,16596,1981
52371,16538,1871
52307,16499,1792
52292,16494,1773
52334,16527,1836
52448,16609,2001
52657,16756,2295
52974,16975,2733
53389,17255,3302
53888,17584,3982
54452,17955,4749
55055,18356,5576
55670,18761,6421
56278,19158,7256
56870,19545,8071
57430,19914,8850
57937,20244,9566
58388,20534,10209
58795,20799,10791
59151,21039,11309
59443,21237,11738
59676,21391,12080
59862,21514,12355
60002,21609,12568
60089,21669,12717
60133,21701,12810
60156,21717,12861
60158,21717,12871
60131,21696,12842
60084,21660,12783
60029,21617,12708
59959,21565,12614
59877,21502,12500
59797,21438,12380
59723,21385,12270
59647,21334,12164
59564,21277,12051
59491,21225,11943
59433,21183,11854
59375,21142,11771
59313,21094,11675
59258,21050,11577
59214,21018,11495
59166,20988,11420
59107,20950,11336
59047,20911,11246
58988,20873,11158
58919,20829,11064
58834,20772,10955
58738,20707,10830
58635,20636,10689
58525,20559,10534
58410,20477,10371
58295,20396,10208
58178,20318,10050
58060,20237,9891
57947,20159,9735
57843,20091,9593
57750,20035,9468
57665,19982,9348
57591,19931,9235
57537,19893,9148
57499,19867,9094
57467,19841,9054
57448,19821,9026
57455,19823,9026
57479,19848,9051
57503,19875,9082
57529,19899,9115
57567,19925,9159
57610,19951,9207
57646,19968,9246
57679,19979,9282
57712,19990,9316
57736,20000,9340
57746,20005,9350
57752,20004,9354
57758,19998,9355
57750,19984,9339
57721,19964,9300
57682,19943,9249
57631,19919,9190
57560,19883,9109
57477,19833,9006
57395,19781,8900
57314,19734,8795
57219,19675,8673
57111,19603,8531
57010,19532,8390
56916,19468,8256
56810,19397,8108
56693,19314,7941
56580,19234,7776
56472,19158,7616
56350,19073,7445
56212,18977,7258
56080,18884,7075
55954,18797,6897
55822,18710,6715
55688,18625,6534
55568,18552,6363
55460,18486,6197
55347,18415,6026
55233,18342,5857
55131,18277,5701
55030,18217,5555
54919,18153,5411
54808,18088,5273
54710,18030,5145
54617,17972,5022
54522,17909,4898
54430,17849,4777
54350,17798,4669
54274,17754,4566
54196,17709,4460
54125,17664,4356
54062,17624,4261
53998,17583,4163
53926,17536,4055
53849,17488,3946
53769,17442,3847
53683,17392,3743
53595,17336,3629
53520,17285,3521
53459,17246,3426
53391,17205,3330
53310,17151,3221
53231,17098,3112
53160,17052,3012
53079,16999,2905
52983,16936,2781
52890,16875,2657
52812,16824,2546
52736,16774,2443
52668,16727,2357
52635,16706,2315
52652,16726,2340
52722,16784,2445
52867,16888,2656
53118,17060,3010
53479,17304,3508
53924,17601,4116
54437,17940,4811
55015,18322,5591
55631,18729,6431
56250,19136,7284
56858,19532,8131
57452,19923,8967
58013,20301,9768
58520,20642,10503
58973,20944,11164
59377,21216,11763
59725,21454,12289
60011,21650,12732
60251,21812,13100
60453,21948,13403
60610,22052,13635
60719,22120,13793
60791,22159,13892
60838,22178,13946
60857,22180,13961
60850,22168,13945
60831,22148,13913
60801,22121,13871
60752,22078,13808
60689,22024,13726
60627,21972,13639
60569,21929,13554
60507,21885,13465
60444,21843,13373
60395,21816,13295
60355,21800,13233
60315,21781,13171
60282,21753,13105
60262,21732,13050
60247,21717,13010
60225,21694,12970
60200,21666,12926
60185,21650,12892
60170,21640,12869
60137,21617,12829
60086,21579,12764
60030,21540,12692
59966,21500,12611
59882,21441,12505
59786,21372,12378
59696,21309,12247
59607,21247,12113
59499,21171,11958
59377,21087,11790
59262,21011,11632
59158,20942,11488
59056,20869,11344
58962,20802,11204
58890,20752,11085
58836,20715,10984
58789,20679,10901
58751,20650,10838
58729,20633,10799
58716,20621,10774
58708,20611,10757
58711,20610,10758
58725,20619,10778
58738,20628,10801
58746,20630,10814
58759,20635,10828
58778,20649,10851
58791,20659,10870
58790,20661,10868
58783,20660,10859
58779,20665,10856
58769,20662,10843
58740,20640,10803
58703,20610,10751
58665,20584,10696
58615,20550,10632
58548,20503,10553
58477,20449,10460
58409,20395,10357
58335,20342,10243
58250,20286,10117
58155,20226,9984
58047,20163,9842
57931,20097,9686
57819,20033,9528
57713,19970,9378
57608,19905,9228
57495,19831,9067
57380,19751,8899
57269,19674,8737
57153,19599,8580
57028,19517,8414
56908,19435,8246
56802,19362,8088
56696,19294,7935
56578,19219,7777
56457,19141,7618
56345,19069,7468
56235,18996,7321
56117,18917,7166
56006,18839,7009
55909,18772,6864
55818,18709,6726
55723,18642,6585
55628,18575,6450
55540,18515,6328
55456,18460,6208
55368,18407,6082
55279,18358,5957
55196,18313,5841
55114,18266,5724
55028,18209,5600
54945,18153,5482
54868,18107,5376
54794,18064,5275
54717,18019,5170
54639,17975,5062
54563,17932,4958
54488,17887,4858
54412,17839,4759
54341,17791,4663
54272,17746,4572
54203,17701,4483
54135,17654,4392
54068,17605,4301
54000,17554,4207
53928,17502,4106
53851,17451,3999
53775,17406,3895
53697,17359,3786
53614,17306,3670
53535,17254,3554
53461,17209,3448
53382,17162,3346
53294,17106,3239
53216,17049,3135
53164,17011,3059
53139,16998,3025
53151,17013,3044
53229,17072,3151
53397,17191,3383
53660,17374,3748
54014,17613,4237
54456,17907,4841
54980,18255,5554
55557,18640,6345
56161,19042,7178
56776,19449,8027
57387,19855,8874
57969,20243,9693
58503,20597,10461
58989,20922,11175
59431,21227,11837
59825,21500,12430
60159,21731,12936
60443,21925,13360
60684,22090,13716
60879,22221,14003
61022,22314,14222
61123,22374,14383
61191,22414,14501
61233,22438,14576
61250,22445,14607
61249,22440,14604
61233,22424,14579
61204,22399,14539
61167,22369,14486
61130,22339,14427
61090,22306,14365
61049,22267,14297
61014,22231,14234
60990,22203,14184
60964,22175,14134
60932,22146,14077
60906,22124,14026
60891,22115,13991
60874,22108,13964
60849,22096,13932
60827,22084,13900
60811,22075,13875
60791,22059,13846
60761,22034,13801
60727,22003,13745
60693,21973,13686
60650,21938,13615
60591,21892,13521
60521,21838,13410
60445,21780,13294
60350,21712,13163
60236,21630,13008
60119,21545,12843
60012,21466,12685
59906,21391,12534
59793,21315,12378
59682,21246,12225
59588,21191,12092
59505,21144,11976
59426,21095,11865
59360,21051,11768
59317,21020,11696
59292,21000,11649
59273,20986,11615
59262,20977,11589
59259,20977,11572
59261,20981,11563
59269,20985,11559
59280,20989,11561
59288,20993,11571
59292,20995,11576
59293,20990,11569
59290,20987,11561
59276,20985,11552
59252,20974,11529
59226,20956,11497
59203,20943,11466
59177,20932,11432
59135,20910,11379
59082,20878,11314
59035,20846,11248
58988,20813,11178
58922,20767,11086
58841,20712,10975
58762,20659,10865
58678,20604,10748
58582,20540,10613
58481,20472,10468
58380,20407,10323
58273,20337,10170
58157,20260,10004
58036,20182,9834
57911,20106,9668
57782,20026,9499
57652,19941,9321
57532,19859,9149
57418,19784,8991
57296,19703,8831
57168,19612,8659
57051,19528,8489
56948,19460,8333
56840,19392,8181
56725,19316,8024
56620,19242,7873
56531,19174,7733
56440,19104,7595
56342,19032,7453
56246,18965,7315
56156,18905,7182
56061,18842,7041
55959,18774,6891
55857,18708,6743
55754,18645,6598
55646,18577,6449
55537,18509,6302
55434,18445,6167
55333,18380,6032
55227,18311,5893
55129,18247,5759
55047,18195,5640
54969,18146,5526
54885,18092,5410
54808,18042,5301
54743,18000,5202
54679,17958,5104
54609,17910,5000
54541,17860,4893
54477,17817,4794
54410,17774,4697
54333,17724,4593
54253,17673,4490
54174,17629,4396
54093,17586,4296
54007,17536,4181
53925,17485,4060
53850,17441,3951
53773,17395,3846
53683,17337,3726
53591,17271,3598
53504,17209,3476
53414,17147,3352
53314,17079,3215
53210,17007,3072
53108,16938,2928
53002,16870,2782
52882,16797,2633
52763,16727,2488
52658,16667,2355
52573,16617,2241
52516,16584,2160
52507,16583,2144
52564,16625,2223
52704,16721,2417
52945,16879,2740
53296,17108,3213
53750,17408,3834
54285,17757,4565
54881,18144,5376
55520,18562,6248
56170,18995,7147
56801,19416,8029
57404,19818,8876
57977,20203,9683
58507,20563,10436
58972,20877,11112
59375,21148,11705
59728,21388,12226
60027,21594,12671
60266,21760,13037
60458,21889,13334
60608,21989,13569
60714,22059,13740
60775,22098,13847
60803,22115,13908
60811,22120,13934
60794,22107,13922
60758,22074,13873
60718,22035,13803
60678,21998,13729
60624,21954,13643
60552,21898,13539
60483,21844,13433
60426,21802,13341
60367,21759,13250
60297,21711,13152
60230,21666,13058
60173,21628,12980
60120,21593,12913
60071,21558,12850
60034,21530,12792
60007,21507,12740
59981,21486,12688
59950,21463,12631
59916,21438,12571
59875,21409,12513
59826,21372,12444
59768,21330,12363
59705,21286,12272
59628,21234,12166
59535,21165,12035
59433,21088,11886
59330,21014,11735
59223,20944,11587
59106,20865,11427
58991,20779,11263
58893,20703,11113
58802,20638,10975
58708,20571,10838
58619,20508,10712
58551,20461,10609
58497,20425,10524
58447,20392,10448
58407,20368,10385
58391,20359,10343
58391,20364,10320
58394,20369,10309
58405,20376,10308
58424,20385,10318
58439,20393,10329
58445,20397,10337
58453,20405,10353
58463,20418,10380
58466,20425,10398
58461,20421,10395
58457,20417,10383
58450,20415,10364
58427,20403,10330
58393,20381,10279
58362,20358,10225
58331,20332,10170
58283,20291,10094
58215,20235,9991
58142,20181,9883
58064,20131,9779
57970,20071,9660
57864,20000,9523
57761,19933,9385
57659,19871,9252
57545,19802,9107
57419,19724,8948
57301,19647,8788
57189,19573,8625
57068,19489,8450
56943,19401,8271
56825,19319,8104
56703,19241,7940
56571,19158,7766
56441,19075,7591
56321,18996,7423
56204,18917,7255
56080,18833,7080
55959,18750,6899
55845,18675,6723
55730,18599,6547
55605,18517,6367
55481,18438,6195
55365,18369,6037
55247,18301,5884
55122,18224,5724
54994,18145,5563
54874,18073,5410
54757,18006,5259
54638,17935,5103
54524,17863,4949
54419,17795,4803
54317,17728,4656
54215,17658,4502
54119,17594,4355
54033,17539,4222
53948,17485,4092
53857,17427,3959
53766,17370,3832
53679,17316,3713
53593,17261,3594
53509,17207,3471
53429,17158,3350
53349,17113,3235
53267,17064,3121
53188,17009,3006
53113,16957,2903
53040,16908,2812
52961,16857,2714
52879,16801,2603
52802,16753,2495
52726,16711,2389
52638,16659,2267
52544,16597,2133
52457,16541,2006
52372,16490,1886
52274,16428,1754
52166,16356,1612
52063,16290,1476
51966,16230,1344
51871,16171,1213
51792,16122,1102
51748,16099,1037
51750,16107,1035
51811,16152,1115
51952,16249,1308
52194,16408,1638
52536,16632,2106
52978,16917,2709
53519,17267,3440
54136,17666,4275
54785,18086,5160
55434,18506,6050
56078,18924,6933
56700,19335,7797
57271,19718,8608
57782,20057,9344
58243,20362,10011
58653,20637,10612
59002,20873,11134
59286,21064,11566
59518,21219,11917
59707,21344,12194
59846,21435,12399
59932,21489,12537
59976,21512,12617
59986,21513,12645
59964,21494,12626
59919,21461,12573
59862,21419,12498
59791,21365,12400
59705,21298,12276
59617,21225,12138
59532,21156,12001
59441,21090,11865
59341,21019,11726
59247,20952,11592
59168,20897,11473
59088,20846,11360
59001,20789,11242
58916,20735,11127
58846,20695,11029
58785,20661,10948
58722,20623,10869
58663,20586,10791
58612,20552,10717
58555,20517,10638
58480,20473,10542
58397,20422,10432
58313,20368,10310
58222,20304,10174
58117,20228,10020
58010,20148,9858
57900,20070,9693
57781,19985,9519
57653,19893,9332
57530,19807,9146
57419,19733,8974
57314,19663,8815
57215,19597,8668
57133,19542,8543
57070,19498,8443
57020,19463,8365
56985,19437,8305
56967,19424,8271
56963,19422,8265
56966,19426,8271
56978,19435,8284
56999,19453,8307
57024,19477,8341
57049,19499,8378
57077,19517,8414
57111,19537,8457
57145,19560,8503
57167,19575,8534
57181,19579,8549
57193,19582,8559
57192,19578,8559
57167,19557,8536
57126,19526,8492
57080,19495,8437
57024,19464,8372
56953,19420,8285
56872,19366,8179
56787,19312,8063
56693,19254,7933
56583,19185,7780
56468,19109,7614
56354,19038,7451
56237,18967,7288
56103,18887,7110
55964,18799,6921
55833,18710,6732
55698,18617,6538
55551,18516,6334
55407,18419,6128
55280,18338,5938
55156,18259,5757
55017,18170,5569
54875,18077,5376
54741,17991,5192
54607,17906,5011
54469,17816,4825
54338,17727,4642
54223,17647,4472
54114,17575,4309
53999,17504,4144
53888,17436,3983
53783,17373,3827
53673,17307,3673
53560,17237,3524
53454,17170,3386
53353,17107,3253
53251,17043,3116
53152,16982,2982
53061,16926,2858
52966,16868,2731
52861,16802,2593
52758,16736,2458
52667,16679,2335
52576,16627,2215
52479,16569,2087
52387,16510,1958
52306,16458,1837
52223,16407,1717
52134,16352,1587
52048,16297,1458
51968,16250,1339
51882,16203,1220
51785,16146,1089
51688,16085,954
51599,16029,825
51507,15973,2013
51410,15910,5250
51319,15850,8229
51250,15808,9503
51206,15786,9594
51196,15783,8936
51248,15822,7904
51394,15924,6791
51641,16092,5792
51988,16321,5025
52441,16619,4559
52992,16981,4410
53613,17385,4542
54270,17808,4898
54938,18235,5427
55598,18658,6080
56229,19065,6808
56815,19445,7565
57348,19795,8316
57824,20112,9033
58242,20390,9692
58602,20627,10277
58901,20825,10786
59140,20985,11212
59326,21108,11550
59470,21200,11807
59579,21270,12002
59646,21314,12137
59671,21327,12204
59669,21315,12211
59651,21295,12188
59617,21269,12143
59559,21229,12068
59489,21180,11970
59422,21132,11868
59353,21084,11760
59277,21028,11641
59200,20969,11519
59130,20920,11410
59064,20880,11314
58999,20839,11219
58940,20800,11128
58890,20766,11046
58842,20734,10969
58787,20695,10888
58733,20655,10810
58687,20624,10745
58641,20592,10678
58585,20549,10595
58524,20499,10500
58458,20448,10398
58376,20390,10285
58275,20321,10156
58167,20247,10016
58060,20175,9868
57949,20097,9709
57833,20012,9537
57718,19929,9366
57606,19849,9202
57495,19772,9042
57392,19699,8887
57303,19640,8746
57226,19595,8625
57156,19557,8519
57100,19526,8429
57060,19507,8367
57029,19499,8331
57002,19491,8301
56989,19488,8280
56999,19497,8283
57024,19514,8310
57048,19528,8337
57073,19543,8362
57106,19565,8398
57139,19590,8445
57161,19605,8482
57180,19613,8506
57202,19623,8525
57216,19629,8536
57212,19620,8528
57194,19601,8504
57172,19581,8469
57138,19553,8416
57082,19509,8340
57007,19458,8249
56925,19408,8151
56836,19355,8039
56737,19292,7907
56633,19224,7766
56529,19158,7626
56420,19089,7482
56302,19011,7325
56187,18931,7166
56080,18855,7014
55974,18779,6860
55858,18696,6691
55734,18610,6512
55606,18525,6332
55475,18441,6155
55340,18356,5976
55207,18275,5800
55075,18197,5631
54941,18115,5458
54809,18032,5277
54684,17955,5101
54562,17885,4935
54440,17813,4766
54320,17739,4595
54205,17669,4433
54090,17598,4278
53969,17519,4113
53849,17434,3940
53739,17358,3782
53628,17288,3637
53507,17211,3483
53386,17136,3320
53281,17072,3167
53187,17014,3024
53088,16952,2882
52984,16889,2744
52888,16833,2618
52796,16780,2498
52701,16720,2373
52608,16659,2242
52522,16602,2116
52436,16547,1993
52348,16491,1868
52265,16438,1746
52189,16390,1630
52112,16338,1512
52029,16283,1389
51947,16229,1271
51865,16179,1160
51776,16126,1044
51683,16068,924
51600,16016,813
51522,15969,2024
51433,15913,6595
51337,15848,14255
51250,15791,21972
51175,15750,27797
51110,15718,31938
51073,15701,33369
51100,15724,31687
51213,15805,28206
51414,15942,23917
51716,16142,19540
52142,16417,15559
52687,16761,12241
53313,17158,9688
53988,17593,7905
54691,18053,6828
55389,18512,6338
56052,18947,6305
56676,19356,6620
57258,19740,7181
57781,20085,7883
58237,20385,8637
58637,20648,9389
58988,20883,10109
59282,21081,10764
59513,21234,11322
59693,21350,11781
59829,21439,12147
59917,21497,12419
59964,21523,12601
59988,21531,12712
60001,21532,12779
59998,21525,12807
59977,21506,12793
59948,21481,12751
59916,21455,12697
59874,21424,12627
59818,21382,12537
59759,21338,12442
59708,21301,12355
59658,21268,12272
59606,21230,12186
59558,21189,12099
59519,21154,12018
59486,21122,11948
59454,21093,11887
59426,21068,11837
59401,21048,11798
59376,21030,11761
59347,21012,11723
59314,20992,11679
59271,20964,11624
59215,20926,11554
59155,20882,11470
59094,20832,11379
59026,20775,11276
58948,20711,11152
58865,20644,11013
58776,20579,10872
58672,20511,10723
58552,20430,10560
58431,20347,10392
58322,20275,10238
58218,20213,10097
58115,20150,9957
58019,20092,9822
57944,20052,9713
57885,20023,9628
57828,19993,9549
57783,19964,9479
57755,19947,9429
57737,19934,9395
57724,19922,9369
57724,19918,9364
57737,19927,9383
57751,19942,9404
57763,19957,9417
57777,19974,9427
57795,19990,9438
57805,19996,9440
57805,19989,9428
57801,19979,9415
57794,19970,9399
57771,19951,9365
57734,19919,9307
57692,19880,9238
57647,19841,9161
57587,19795,9066
57510,19741,8952
57428,19687,8832
57341,19633,8710
57243,19573,8577
57134,19506,8432
57025,19437,8285
56915,19367,8141
56800,19293,7991
56680,19213,7831
56560,19136,7672
56437,19061,7513
56308,18981,7344
56184,18900,7172
56067,18825,7007
55950,18749,6845
55825,18663,6673
55702,18574,6499
55585,18492,6333
55468,18414,6167
55349,18336,5997
55241,18263,5831
55140,18197,5674
55034,18130,5518
54918,18057,5353
54801,17982,5185
54687,17913,5029
54571,17845,4878
54451,17770,4721
54339,17698,4569
54238,17637,4433
54136,17576,4299
54031,17509,4158
53932,17444,4022
53842,17388,3901
53749,17328,3781
53649,17261,3651
53559,17201,3526
53484,17157,3417
53412,17116,3312
53337,17073,3204
53274,17034,3103
53222,17000,3012
53164,16958,2916
53095,16910,2812
53032,16866,2714
52973,16829,2623
52904,16787,2523
52830,16742,2415
52764,16702,2316
52702,16665,2229
52630,16618,2131
52549,16563,2021
52473,16515,1920
52401,16473,1826
52318,16426,1719
52230,16372,1602
52148,16320,1492
52070,16270,1388
51987,16215,1279
51912,16162,1178
51864,16127,1112
51848,16118,1095
51876,16139,1141
51973,16206,1277
52167,16336,1540
52464,16535,1943
52863,16797,2482
53362,17122,3158
53947,17507,3956
54581,17927,4837
55233,18356,5748
55887,18784,6661
56533,19211,7563
57145,19618,8425
57705,19988,9222
58218,20325,9952
58687,20634,10618
59094,20902,11208
59430,21119,11707
59706,21295,12119
59931,21443,12463
60103,21562,12737
60223,21647,12935
60308,21710,13075
60367,21755,13169
60393,21778,13218
60393,21777,13224
60379,21763,13204
60354,21742,13166
60314,21708,13107
60261,21663,13030
60208,21619,12946
60154,21575,12854
60094,21523,12751
60030,21470,12650
59975,21427,12568
59925,21391,12502
59876,21356,12437
59837,21328,12376
59816,21312,12331
59800,21300,12294
59777,21282,12252
59755,21263,12213
59738,21248,12181
59712,21230,12148
59673,21202,12097
59630,21171,12032
59584,21140,11959
59526,21098,11871
59452,21040,11763
59371,20976,11647
59285,20910,11529
59187,20838,11398
59077,20761,11250
58968,20687,11099
58866,20623,10955
58764,20558,10807
58663,20490,10659
58576,20432,10528
58501,20383,10419
58426,20330,10317
58357,20276,10219
58312,20238,10143
58284,20219,10090
58257,20206,10043
58236,20195,10001
58234,20195,9981
58245,20206,9984
58253,20212,9987
58260,20212,9987
58275,20221,9998
58293,20235,10021
58306,20242,10037
58312,20240,10042
58316,20241,10046
58319,20247,10051
58314,20246,10041
58305,20240,10020
58297,20232,9998
58280,20216,9968
58243,20185,9916
58195,20146,9849
58144,20111,9778
58083,20077,9699
58005,20033,9596
57920,19979,9479
57834,19924,9355
57736,19860,9220
57625,19785,9068
57513,19705,8909
57403,19628,8755
57286,19551,8603
57161,19470,8442
57039,19391,8278
56925,19321,8125
56813,19248,7972
56704,19168,7810
56603,19093,7652
56503,19026,7506
56394,18956,7357
56282,18880,7197
56180,18812,7044
56089,18755,6906
55993,18696,6767
55891,18631,6622
55799,18571,6486
55714,18519,6363
55619,18464,6235
55517,18404,6095
55427,18351,5960
55350,18305,5835
55268,18253,5704
55177,18190,5561
55089,18130,5424
55006,18074,5299
54914,18010,5170
54815,17940,5041
54732,17882,4928
54664,17837,4829
54595,17790,4725
54524,17739,4617
54461,17695,4518
54393,17656,4425
54310,17609,4322
54222,17557,4213
54147,17514,4114
54082,17478,4023
54011,17436,3924
53936,17388,3819
53866,17344,3718
53791,17299,3614
53706,17248,3502
53619,17196,3390
53541,17149,3286
53465,17101,3183
53384,17047,3070
53300,16992,2953
53214,16937,2838
53121,16877,2714
53023,16813,2583
52931,16754,2460
52844,16702,2344
52754,16647,2225
52669,16591,2106
52608,16551,2013
52579,16535,1968
52583,16542,1978
52648,16584,2068
52805,16685,2276
53065,16857,2624
53423,17092,3105
53872,17386,3707
54405,17738,4426
54994,18129,5238
55605,18531,6088
56219,18930,6935
56822,19331,7777
57396,19727,8597
57926,20089,9360
58409,20408,10052
58850,20694,10687
59242,20948,11260
59573,21162,11747
59850,21339,12143
60082,21491,12475
60262,21615,12748
60388,21702,12951
60475,21759,13087
60541,21801,13179
60580,21826,13230
60582,21825,13233
60557,21806,13198
60517,21778,13145
60462,21739,13073
60390,21685,12976
60317,21628,12868
60253,21580,12761
60182,21536,12656
60096,21483,12545
60013,21426,12435
59946,21378,12342
59890,21335,12260
59839,21285,12176
59794,21238,12095
59759,21206,12026
59724,21180,11958
59679,21148,11879
59638,21116,11794
59611,21089,11714
59579,21058,11633
59527,21019,11544
59463,20977,11450
59388,20932,11353
59298,20875,11246
59193,20806,11126
59088,20737,11001
58989,20670,10871
58889,20598,10730
58783,20522,10581
58681,20450,10434
58583,20382,10287
58484,20314,10137
58395,20255,9997
58325,20211,9879
58261,20171,9780
58198,20132,9695
58149,20102,9632
58121,20087,9596
58105,20077,9579
58092,20064,9569
58088,20059,9568
58101,20068,9584
58121,20081,9609
58139,20093,9632
58164,20108,9661
58194,20129,9700
58219,20150,9736
58233,20162,9753
58244,20167,9755
58250,20172,9752
58239,20168,9733
58208,20146,9688
58171,20117,9631
58129,20087,9572
58071,20047,9495
57998,19991,9390
57923,19932,9281
57852,19879,9179
57765,19823,9066
57656,19758,8932
57547,19693,8790
57446,19634,8648
57336,19572,8495
57218,19502,8330
57105,19432,8169
56995,19365,8014
56873,19289,7844
56741,19200,7655
56616,19115,7471
56494,19038,7297
56365,18954,7119
56234,18863,6938
56113,18782,6768
55997,18709,6607
55872,18632,6436
55745,18548,6258
55632,18473,6091
55526,18405,5936
55414,18332,5780
55303,18255,5623
55204,18187,5481
55108,18126,5348
55004,18062,5211
54898,18000,5075
54804,17946,4951
54716,17893,4834
54629,17838,4715
54549,17789,4597
54478,17746,4485
54408,17699,4373
54331,17646,4254
54254,17594,4138
54181,17546,4032
54106,17498,3928
54027,17447,3820
53958,17400,3720
53895,17359,3633
53821,17313,3543
53738,17261,3441
53667,17217,3340
53604,17184,3250
53533,17145,3157
53455,17094,3055
53385,17043,2959
53319,17000,2870
53244,16949,2773
53159,16891,2660
53080,16836,2549
53005,16786,2447
52920,16732,2340
52829,16672,2224
52752,16621,2117
52695,16585,2031
52659,16562,1973
52658,16565,1972
52724,16614,2065
52874,16715,2268
53105,16865,2582
53424,17071,3021
53841,17344,3594
54338,17672,4276
54885,18028,5025
55464,18406,5818
56062,18803,6637
56656,19198,7452
57220,19571,8233
57742,19916,8966
58221,20235,9647
58646,20521,10263
59015,20768,10806
59336,20981,11279
59612,21165,11685
59834,21309,12015
60003,21413,12267
60132,21491,12457
60229,21556,12602
60287,21602,12697
60303,21616,12731
60293,21608,12719
60272,21593,12689
60234,21568,12641
60176,21526,12570
60110,21473,12486
60047,21420,12402
59981,21367,12309
59907,21310,12200
59833,21253,12086
59763,21198,11978
59698,21149,11876
59639,21106,11781
59590,21070,11694
59543,21034,11616
59497,20997,11541
59451,20959,11464
59407,20923,11390
59359,20884,11315
59306,20838,11228
59254,20791,11130
59201,20746,11028
59131,20696,10913
59037,20633,10776
58928,20561,10622
58816,20494,10471
58702,20429,10323
58583,20356,10170
58469,20281,10015
58368,20216,9872
58271,20157,9739
58169,20095,9605
58068,20035,9479
57987,19984,9375
57925,19941,9293
57877,19904,9225
57848,19879,9177
57842,19872,9160
57851,19877,9165
57865,19886,9173
57893,19903,9187
57939,19934,9220
57991,19968,9266
58037,19999,9313
58080,20030,9364
58121,20064,9421
58151,20090,9470
58167,20103,9504
58179,20108,9527
58188,20112,9544
58188,20107,9543
58177,20093,9516
58157,20074,9475
58125,20051,9428
58081,20019,9366
58025,19976,9280
57959,19933,9181
57883,19891,9078
57794,19841,8965
57701,19785,8846
57608,19728,8726
57509,19669,8601
57400,19603,8463
57290,19534,8320
57186,19470,8185
57082,19406,8053
56974,19336,7910
56874,19265,7761
56781,19199,7612
56678,19131,7460
56565,19056,7298
56456,18978,7136
56360,18907,6986
56267,18838,6844
56167,18764,6697
56068,18694,6550
55976,18632,6417
55879,18570,6286
55777,18504,6148
55676,18437,6012
55587,18381,5894
55505,18333,5788
55419,18279,5673
55337,18221,5553
55261,18170,5439
55180,18117,5325
55091,18054,5199
55006,17991,5073
54938,17944,4964
54877,17906,4867
54810,17864,4765
54744,17822,4665
54683,17783,4573
54617,17741,4478
54544,17698,4377
54478,17661,4284
54417,17630,4203
54351,17595,4119
54281,17554,4031
54221,17517,3949
54170,17486,3870
54107,17447,3779
54034,17398,3679
53963,17349,3583
53891,17299,3490
53805,17240,3384
53713,17175,3270
53633,17119,3164
53561,17072,3064
53484,17024,2962
53414,16981,2872
53375,16962,2823
53375,16974,2834
53425,17018,2918
53547,17110,3102
53763,17262,3408
54074,17475,3838
54469,17737,4379
54943,18047,5021
55479,18399,5746
56047,18772,6516
56625,19151,7306
57206,19534,8104
57774,19910,8891
58307,20263,9638
58797,20586,10326
59245,20883,10957
59645,21151,11530
59988,21377,12025
60273,21564,12441
60515,21727,12798
60717,21866,13103
60868,21972,13344
60971,22043,13518
61044,22093,13644
61092,22123,13729
61108,22123,13766
61101,22098,13759
61085,22068,13730
61060,22042,13688
61015,22006,13625
60956,21961,13540
60901,21922,13457
60854,21894,13387
60802,21860,13313
60747,21819,13234
60704,21787,13164
60669,21763,13103
60627,21735,13037
60585,21704,12972
60559,21685,12927
60543,21673,12899
60522,21656,12870
60499,21637,12838
60485,21626,12817
60467,21616,12795
60432,21593,12751
60384,21560,12687
60329,21524,12615
60265,21479,12530
60186,21419,12420
60098,21352,12295
60010,21286,12163
59915,21214,12024
59812,21134,11874
59708,21056,11719
59609,20987,11575
59516,20922,11438
59424,20850,11297
59341,20784,11162
59275,20737,11054
59220,20701,10974
59171,20668,10910
59138,20645,10862
59127,20638,10838
59126,20640,10830
59126,20642,10828
59135,20649,10832
59154,20665,10844
59171,20680,10860
59184,20690,10877
59204,20704,10899
59231,20724,10928
59248,20738,10950
59254,20745,10959
59260,20751,10965
59263,20752,10965
59249,20735,10946
59218,20705,10905
59184,20677,10858
59144,20649,10802
59085,20609,10722
59013,20562,10624
58948,20520,10526
58884,20478,10425
58800,20424,10303
58696,20360,10165
58590,20296,10026
58486,20233,9882
58378,20162,9725
58268,20090,9565
58161,20022,9410
58053,19952,9257
57939,19875,9102
57824,19795,8949
57719,19721,8804
57614,19649,8659
57500,19568,8499
57386,19487,8336
57282,19415,8186
57180,19347,8040
57073,19278,7885
56972,19212,7735
56881,19154,7602
56786,19094,7471
56684,19026,7330
56589,18958,7192
56509,18900,7067
56424,18844,6939
56326,18782,6803
56232,18728,6674
56148,18680,6558
56056,18623,6438
55955,18556,6309
55863,18495,6190
55782,18444,6087
55698,18391,5980
55612,18335,5867
55539,18287,5764
55472,18245,5669
55399,18199,5564
55329,18157,5456
55275,18127,5364
55227,18103,5284
55167,18070,5194
55099,18028,5097
55038,17988,5008
54980,17950,4925
54918,17908,4837
54857,17862,4747
54798,17821,4663
54735,17779,4574
54664,17729,4470
54588,17674,4355
54513,17622,4242
54432,17570,4127
54344,17513,4006
54257,17456,3886
54172,17401,3770
54081,17345,3652
53985,17285,3529
53896,17232,3412
53822,17193,3314
53762,17165,3238
53723,17146,3186
53724,17151,3185
53790,17201,3272
53932,17303,3470
54163,17461,3791
54493,17682,4244
54920,17964,4825
55423,18294,5509
55978,18653,6263
56566,19031,7061
57169,19422,7885
57762,19815,8712
58335,20199,9520
58882,20567,10293
59390,20909,11013
59839,21214,11665
60229,21480,12248
60575,21714,12767
60869,21914,13211
61098,22074,13567
61274,22202,13846
61417,22310,14072
61524,22393,14246
61588,22441,14361
61622,22463,14426
61643,22476,14464
61648,22478,14476
61626,22459,14453
61584,22427,14403
61542,22394,14345
61499,22358,14280
61450,22316,14204
61408,22277,14125
61380,22248,14056
61357,22219,13994
61331,22187,13933
61309,22160,13878
61290,22137,13831
61264,22111,13783
61231,22084,13735
61203,22067,13699
61180,22057,13674
61153,22042,13642
61124,22020,13596
61099,22000,13548
61074,21979,13501
61033,21947,13441
60977,21903,13364
60919,21859,13280
60861,21816,13188
60789,21759,13074
60703,21689,12934
60610,21618,12782
60509,21551,12633
60397,21480,12479
60282,21402,12320
60175,21327,12168
60076,21259,12027
59980,21193,11888
59895,21131,11756
59827,21082,11645
59765,21042,11551
59703,21001,11465
59650,20964,11392
59616,20944,11344
59594,20934,11316
59576,20921,11291
59572,20908,11272
59586,20906,11271
59605,20908,11284
59614,20907,11295
59619,20906,11300
59623,20912,11311
59620,20919,11323
59609,20919,11324
59601,20914,11320
59596,20908,11316
59581,20897,11299
59546,20872,11256
59500,20839,11194
59455,20810,11129
59398,20774,11054
59325,20721,10952
59247,20664,10836
59170,20613,10719
59082,20558,10590
58980,20494,10441
58879,20428,10290
58785,20367,10150
58687,20301,10008
58580,20226,9854
58471,20150,9699
58361,20077,9548
58243,20001,9395
58118,19920,9232
57999,19839,9066
57889,19764,8902
57776,19689,8734
57662,19615,8565
57557,19547,8401
57453,19480,8240
57341,19406,8073
57228,19331,7912
57126,19262,7765
57022,19195,7620
56902,19117,7461
56775,19036,7295
56657,18958,7135
56547,18883,6979
56431,18804,6817
56317,18727,6658
56214,18661,6512
56115,18601,6373
56007,18539,6231
55901,18476,6091
55807,18416,5957
55716,18356,5822
55629,18296,5685
55553,18240,5555
55484,18190,5435
55410,18136,5318
55331,18078,5198
55257,18026,5086
55193,17984,4992
55127,17940,4901
55056,17894,4802
54989,17856,4709
54922,17821,4621
54843,17774,4527
54759,17719,4424
54684,17666,4324
54611,17619,4230
54532,17570,4131
54447,17519,4025
54364,17469,3915
54286,17420,3807
54207,17367,3697
54124,17311,3581
54037,17256,3463
53944,17203,3342
53844,17143,3210
53743,17077,3067
53647,17013,2929
53554,16952,2796
53458,16888,2661
53369,16828,2535
53299,16786,2439
53247,16761,2381
53223,16755,2368
53261,16787,2432
53392,16880,2616
53621,17038,2936
53948,17259,3384
54378,17547,3965
54902,17896,4668
55490,18288,5454
56112,18697,6285
56747,19115,7142
57379,19537,8013
57990,19947,8867
58562,20327,9670
59088,20676,10415
59569,20996,11105
59989,21278,11724
60344,21513,12252
60644,21712,12698
60898,21884,13075
61098,22021,13380
61235,22114,13600
61326,22175,13751
61388,22217,13851
61419,22236,13908
61416,22230,13920
61391,22209,13901
61357,22183,13861
61308,22148,13799
61243,22099,13712
61172,22041,13610
61105,21981,13504
61035,21920,13394
60966,21859,13282
60909,21806,13177
60861,21761,13084
60813,21721,12996
60768,21687,12913
60731,21660,12840
60694,21634,12774
60650,21603,12707
60612,21575,12649
60581,21555,12605
60546,21537,12560
60502,21511,12504
60456,21483,12440
60413,21458,12372
60359,21425,12289
60286,21377,12180
60201,21320,12052
60112,21264,11917
60011,21202,11774
59896,21127,11614
59784,21048,11447
59682,20975,11289
59574,20898,11132
59459,20813,10971
59348,20734,10820
59253,20670,10693
59171,20615,10585
59094,20561,10480
59029,20514,10387
58986,20485,10324
58959,20469,10287
58939,20455,10262
58936,20448,10252
58953,20455,10264
58979,20467,10287
59001,20473,10304
59024,20479,10318
59052,20493,10336
59080,20510,10356
59102,20527,10376
59115,20543,10393
59116,20550,10398
59102,20545,10384
59078,20530,10353
59044,20506,10307
58998,20471,10245
58942,20426,10166
58885,20376,10077
58824,20327,9984
58745,20272,9876
58647,20205,9744
58544,20135,9600
58444,20070,9459
58336,20002,9316
58217,19926,9161
58102,19849,8998
57991,19778,8834
57868,19702,8661
57727,19614,8469
57581,19522,8267
57445,19434,8074
57310,19346,7887
57170,19251,7697
57034,19160,7509
56909,19078,7334
56785,18995,7163
56652,18901,6983
56518,18809,6800
56395,18727,6626
56279,18652,6460
56164,18577,6292
56057,18506,6133
55962,18444,5987
55868,18385,5848
55767,18323,5703
55663,18262,5557
55563,18205,5417
55462,18148,5284
55361,18088,5155
55266,18029,5029
55179,17974,4909
55094,17920,4789
55010,17865,4666
54928,17810,4548
54849,17758,4439
54768,17703,4329
54686,17644,4215
54605,17589,4108
54522,17537,4004
54434,17478,3887
54345,17416,3758
54263,17362,3637
54181,17312,3522
54088,17253,3398
53993,17192,3270
53909,17140,3153
53828,17094,3040
53740,17043,2914
53651,16987,2780
53570,16933,2650
53484,16875,2517
53386,16809,2377
53288,16744,2241
53206,16690,2126
53135,16649,2036
53081,16622,1981
53073,16626,1990
53139,16678,2096
53291,16784,2314
53535,16947,2653
53884,17179,3128
54342,17483,3740
54880,17841,4461
55466,18228,5250
56086,18635,6085
56727,19059,6951
57361,19477,7816
57960,19873,8645
58511,20242,9423
59016,20583,10145
59462,20883,10795
59847,21143,11365
60181,21370,11857
60469,21565,12278
60700,21722,12625
60870,21837,12896
60993,21917,13100
61076,21965,13240
61117,21983,13317
61128,21981,13343
61120,21965,13333
61090,21934,13289
61033,21888,13209
60963,21836,13107
60893,21789,13001
60818,21737,12885
60728,21671,12751
60634,21598,12612
60550,21534,12484
60470,21478,12361
60393,21425,12243
60326,21379,12136
60272,21344,12045
60222,21312,11962
60168,21278,11879
60115,21244,11798
60065,21209,11719
60011,21167,11636
59951,21118,11543
59887,21069,11445
59822,21024,11344
59750,20976,11233
59667,20921,11106
59581,20864,10970
59490,20801,10826
59380,20725,10670
59258,20641,10504
59142,20561,10339
59033,20488,10184
58924,20415,10032
58816,20344,9884
58719,20281,9751
58638,20229,9643
58572,20185,9553
58519,20145,9474
58480,20115,9410
58456,20095,9369
58449,20085,9347
58462,20086,9344
58491,20098,9364
58530,20121,9408
58574,20150,9464
58624,20186,9530
58677,20226,9602
58720,20261,9665
58750,20285,9712
58781,20310,9750
58814,20338,9792
58835,20357,9829
58838,20360,9842
58835,20356,9835
58827,20350,9818
58805,20336,9786
58765,20311,9733
58717,20277,9663
58666,20239,9585
58604,20192,9495
58530,20133,9384
58450,20071,9261
58364,20009,9136
58262,19941,9003
58143,19861,8853
58020,19780,8694
57904,19709,8542
57787,19639,8389
57662,19558,8218
57541,19475,8040
57430,19399,7877
57317,19324,7718
57196,19243,7551
57079,19164,7386
56973,19094,7233
56868,19024,7081
56754,18950,6922
56645,18880,6768
56547,18819,6623
56449,18758,6477
56347,18695,6330
56252,18635,6187
56163,18576,6046
56072,18514,5906
55980,18452,5769
55896,18397,5640
55816,18344,5514
55727,18286,5384
55630,18225,5257
55540,18170,5143
55454,18119,5036
55363,18062,4923
55278,18002,4811
55206,17948,4707
55132,17893,4602
55050,17832,4490
54968,17774,4377
54893,17722,4271
54815,17672,4165
54732,17620,4051
54657,17572,3939
54590,17531,3837
54518,17486,3736
54438,17436,3626
54363,17392,3521
54296,17357,3426
54223,17319,3327
54138,17271,3213
54054,17218,3093
53975,17167,2981
53893,17111,2867
53804,17051,2745
53728,17002,2633
53676,16973,2552
53640,16958,2504
53629,16958,2496
53678,16992,2564
53810,17081,2749
54031,17229,3059
54350,17441,3499
54780,17725,4079
55307,18075,4788
55895,18464,5586
56517,18872,6435
57164,19296,7314
57812,19726,8200
58425,20139,9055
58992,20524,9862
59520,20886,10624
60001,21217,11330
60417,21503,11957
60774,21749,12506
61090,21967,12991
61357,22151,13402
61563,22290,13725
61717,22392,13969
61836,22469,14154
61916,22519,14282
61956,22539,14352
61969,22538,14377
61965,22526,14371
61942,22503,14338
61899,22466,14276
61846,22423,14196
61791,22380,14111
61730,22334,14022
61664,22283,13925
61602,22234,13829
61548,22189,13741
61496,22145,13655
61446,22101,13570
61405,22064,13500
61371,22037,13452
61335,22012,13409
61299,21984,13361
61276,21962,13317
61260,21946,13281
61234,21926,13238
61199,21902,13185
61167,21883,13131
61135,21867,13077
61088,21841,13008
61028,21801,12917
60959,21754,12813
60878,21702,12697
60781,21636,12560
60676,21559,12402
60571,21484,12245
60469,21413,12096
60366,21334,11936
60268,21247,11766
60178,21169,11611
60091,21104,11481
59998,21041,11359
59907,20981,11248
59836,20939,11162
59781,20913,11099
59729,20889,11043
59693,20867,10997
59686,20860,10975
59700,20864,10973
59720,20871,10977
59747,20883,10990
59785,20908,11021
59823,20937,11063
59853,20957,11099
59879,20972,11128
59904,20985,11154
59921,20996,11170
59923,20997,11169
59917,20990,11158
59906,20981,11142
59883,20966,11117
59842,20938,11070
59789,20901,11005
59737,20866,10937
59678,20825,10858
59603,20770,10758
59517,20709,10644
59428,20647,10524
59334,20579,10395
59233,20502,10252
59133,20426,10099
59037,20360,9949
58938,20298,9801
58832,20232,9647
58723,20162,9491
58609,20090,9334
58485,20012,9167
58356,19930,8994
58230,19851,8826
58109,19774,8660
57988,19694,8488
57872,19611,8318
57767,19533,8158
57663,19454,8002
57546,19370,7837
57426,19285,7672
57319,19211,7519
57218,19143,7374
57112,19074,7229
57009,19012,7088
56915,18959,6954
56823,18905,6819
56722,18844,6680
56617,18782,6543
56516,18722,6412
56412,18655,6281
56309,18586,6145
56219,18525,6016
56140,18472,5900
56063,18419,5787
55986,18360,5671
55911,18307,5564
55839,18263,5469
55764,18218,5371
55689,18170,5269
55621,18130,5178
55559,18100,5102
55489,18066,5020
55411,18021,4923
55338,17977,4825
55271,17937,4732
55194,17887,4625
55110,17829,4503
55034,17777,4383
54965,17731,4269
54885,17679,4146
54795,17622,4013
54707,17569,3886
54626,17518,3767
54542,17462,3649
54464,17406,3542
54413,17376,3477
54402,17383,3477
54442,17422,3546
54554,17505,3708
54768,17653,4002
55090,17869,4443
55507,18144,5014
56011,18475,5700
56592,18863,6490
57220,19289,7352
57861,19718,8239
58500,20138,9119
59122,20549,9982
59702,20939,10805
60223,21292,11563
60687,21608,12248
61103,21892,12862
61463,22140,13399
61763,22344,13846
62013,22511,14215
62220,22651,14523
62379,22759,14767
62486,22830,14938
62555,22875,15052
62599,22905,15128
62616,22918,15166
62604,22908,15161
62577,22885,15133
62545,22859,15098
62502,22825,15047
62443,22778,14970
62382,22729,14881
62330,22691,14797
62280,22653,14714
62227,22611,14625
62183,22573,14544
62151,22546,14475
62118,22519,14409
62083,22490,14345
62053,22464,14292
62032,22446,14251
62011,22429,14209
61989,22414,14172
61971,22403,14145
61952,22387,14116
61919,22356,14069
61878,22321,14009
61837,22287,13944
61785,22247,13864
61710,22195,13760
61620,22136,13643
61530,22075,13522
61438,22008,13390
61338,21931,13239
61240,21853,13079
61149,21785,12930
61058,21720,12790
60964,21654,12651
60871,21591,12520
60786,21537,12405
60707,21489,12298
60635,21445,12199
60580,21412,12120
60542,21391,12070
60512,21375,12032
60491,21361,11999
60486,21355,11983
60496,21361,11987
60507,21365,11995
60519,21365,12004
60545,21377,12026
60580,21400,12060
60606,21418,12084
60619,21423,12092
60630,21426,12098
60635,21429,12104
60622,21421,12089
60596,21401,12050
60569,21381,12008
60534,21360,11967
60486,21324,11904
60427,21277,11814
60364,21228,11718
60294,21181,11627
60209,21124,11522
60115,21060,11401
60027,21000,11278
59941,20941,11151
59844,20869,11007
59736,20788,10846
59632,20713,10691
59526,20643,10543
59408,20567,10387
59285,20490,10226
59171,20419,10075
59062,20350,9927
58950,20273,9771
58840,20194,9612
58735,20121,9461
58626,20046,9312
58508,19962,9150
58388,19877,8980
58273,19802,8819
58160,19731,8662
58045,19656,8500
57933,19582,8342
57827,19513,8195
57725,19446,8054
57622,19378,7910
57524,19315,7771
57433,19258,7642
57339,19195,7514
57241,19126,7382
57151,19066,7254
57071,19020,7138
56989,18973,7021
56906,18919,6898
56828,18870,6782
56754,18826,6676
56674,18775,6565
56592,18718,6446
56516,18668,6331
56442,18626,6227
56360,18577,6117
56272,18519,6000
56193,18469,5891
56120,18429,5791
56044,18384,5684
55970,18334,5573
55901,18290,5471
55825,18248,5372
55737,18193,5260
55646,18132,5136
55559,18074,5015
55469,18016,4898
55372,17950,4770
55276,17883,4634
55185,17824,4500
55091,17766,4363
54993,17700,4218
54904,17635,4087
54841,17592,3995
54812,17579,3955
54829,17599,3979
54921,17668,4105
55111,17803,4366
55399,18003,4766
55783,18262,5297
56267,18583,5960
56829,18958,6735
57434,19361,7574
58052,19773,8434
58674,20191,9299
59285,20609,10155
59857,21002,10965
60378,21355,11709
60855,21679,12397
61287,21972,13026
61657,22223,13575
61964,22428,14033
62222,22601,14416
62433,22747,14736
62594,22856,14984
62710,22927,15162
62793,22976,15291
62843,23007,15377
62860,23015,15413
62854,23004,15405
62837,22987,15379
62808,22965,15344
62766,22930,15285
62716,22887,15205
62665,22848,15127
62610,22812,15053
62548,22772,14971
62488,22729,14884
62437,22692,14801
62382,22654,14720
62318,22608,14632
62258,22559,14548
62213,22523,14483
62177,22498,14433
62138,22473,14382
62104,22455,14333
62076,22445,14293
62043,22430,14253
61998,22399,14198
61949,22363,14133
61905,22332,14069
61853,22295,13995
61783,22241,13889
61705,22182,13767
61629,22126,13647
61543,22062,13520
61443,21984,13375
61346,21905,13227
61260,21840,13092
61177,21783,12963
61095,21727,12832
61027,21678,12714
60972,21638,12614
60915,21597,12520
60854,21554,12431
60809,21521,12363
60781,21503,12325
60755,21487,12303
60733,21471,12287
60732,21474,12289
60751,21492,12312
60768,21503,12332
60783,21502,12342
60803,21503,12356
60821,21505,12369
60820,21495,12360
60803,21479,12333
60789,21473,12308
60775,21471,12283
60746,21453,12235
60703,21419,12166
60659,21387,12091
60609,21353,12007
60543,21305,11905
60466,21248,11788
60388,21190,11670
60301,21128,11546
60198,21056,11403
60089,20977,11245
59986,20904,11090
59884,20837,10938
59773,20765,10776
59660,20691,10613
59548,20622,10463
59428,20547,10313
59297,20459,10150
59171,20373,9986
59063,20299,9834
58963,20231,9687
58855,20157,9533
58746,20083,9377
58646,20017,9229
58545,19952,9083
58437,19883,8932
58330,19816,8782
58233,19758,8641
58137,19700,8504
58036,19636,8363
57939,19570,8224
57844,19508,8088
57742,19444,7950
57637,19379,7816
57541,19315,7692
57450,19249,7570
57352,19180,7441
57255,19114,7315
57174,19060,7204
57101,19011,7101
57019,18954,6991
56933,18893,6877
56859,18839,6770
56787,18792,6662
56705,18740,6549
56623,18688,6439
56558,18648,6345
56502,18615,6261
56437,18579,6174
56369,18546,6090
56300,18518,6015
56222,18482,5932
56139,18432,5830
56060,18377,5719
55986,18323,5609
55910,18267,5498
55827,18208,5382
55744,18148,5268
55663,18091,5157
55575,18029,5036
55482,17966,4908
55403,17912,4797
55347,17877,4721
55316,17861,4683
55321,17869,4693
55385,17917,4782
55527,18018,4977
55755,18176,5288
56076,18391,5724
56490,18668,6284
56983,19002,6951
57531,19374,7695
58112,19768,8486
58706,20171,9298
59291,20569,10110
59850,20948,10893
60372,21299,11629
60852,21620,12313
61276,21907,12931
61641,22156,13472
61956,22372,13941
62222,22560,14343
62432,22711,14670
62585,22819,14916
62701,22895,15095
62786,22948,15226
62835,22975,15308
62846,22974,15337
62830,22955,15327
62795,22927,15290
62740,22887,15229
62666,22833,15143
62584,22774,15042
62504,22720,14939
62426,22667,14828
62348,22609,14707
62277,22553,14589
62207,22504,14480
62134,22455,14370
62066,22403,14257
62011,22360,14160
61967,22331,14087
61922,22303,14016
61872,22269,13937
61828,22238,13863
61787,22210,13795
61737,22173,13717
61681,22125,13624
61625,22076,13525
61562,22026,13421
61484,21967,13303
61394,21898,13166
61298,21824,13019
61193,21749,12869
61077,21669,12708
60958,21584,12537
60841,21503,12370
60727,21426,12217
60619,21352,12073
60526,21287,11942
60451,21234,11835
60389,21191,11750
60338,21155,11680
60307,21133,11627
60297,21128,11601
60293,21131,11595
60293,21134,11601
60310,21143,11623
60347,21165,11669
60391,21192,11728
60431,21217,11785
60476,21241,11840
60528,21269,11900
60572,21295,11955
60601,21313,11992
60621,21325,12014
60637,21337,12030
60638,21344,12032
60621,21337,12005
60593,21320,11959
60555,21299,11909
60500,21266,11842
60425,21216,11750
60346,21161,11645
60267,21107,11537
60173,21044,11413
60067,20968,11267
59966,20899,11120
59866,20839,10978
59751,20772,10826
59623,20692,10659
59501,20613,10497
59387,20543,10345
59269,20468,10185
59151,20385,10015
59043,20310,9856
58941,20242,9711
58833,20168,9563
58720,20087,9407
58617,20012,9260
58525,19943,9126
58434,19868,8990
58342,19790,8852
58256,19720,8725
58170,19657,8605
58079,19593,8476
57993,19531,8342
57914,19479,8223
57834,19430,8115
57747,19375,8001
57657,19320,7879
57567,19271,7763
57471,19222,7647
57367,19165,7523
57269,19107,7397
57180,19056,7280
57091,19005,7166
56997,18945,7040
56908,18884,6909
56827,18828,6782
56743,18771,6649
56648,18705,6501
56553,18636,6354
56464,18573,6222
56369,18511,6093
56266,18442,5953
56169,18379,5816
56081,18327,5695
55993,18274,5580
55904,18216,5464
55837,18169,5371
55802,18145,5317
55794,18143,5302
55828,18167,5340
55935,18239,5472
56127,18370,5728
56396,18554,6099
56744,18791,6578
57179,19088,7171
57677,19431,7856
58203,19794,8588
58741,20166,9344
59287,20548,10121
59828,20929,10894
60336,21280,11624
60805,21597,12293
61237,21892,12910
61625,22158,13465
61953,22378,13944
62224,22558,14349
62455,22713,14693
62645,22842,14972
62785,22931,15177
62883,22984,15314
62952,23018,15405
62990,23036,15454
62992,23031,15457
62967,23010,15427
62929,22980,15375
62876,22941,15302
62810,22890,15209
62738,22834,15105
62669,22779,15002
62597,22723,14895
62519,22663,14780
62444,22606,14669
62381,22562,14577
62324,22524,14498
62269,22484,14418
62222,22449,14345
62186,22424,14289
62149,22400,14239
62099,22368,14179
62045,22332,14114
61997,22296,14052
61949,22261,13984
61893,22223,13903
61834,22182,13808
61772,22135,13698
61694,22077,13569
61599,22007,13422
61494,21933,13268
61387,21860,13111
61277,21788,12952
61171,21724,12801
61075,21667,12666
60983,21610,12537
60894,21548,12406
60817,21489,12289
60760,21445,12198
60712,21409,12126
60672,21377,12066
60654,21357,12031
60660,21355,12028
60677,21365,12044
60696,21376,12063
60726,21394,12093
60769,21421,12139
60816,21450,12193
60860,21478,12244
60906,21509,12297
60955,21544,12355
60997,21577,12406
61031,21603,12444
61061,21624,12472
61082,21645,12498
61084,21651,12510
61064,21636,12495
61038,21615,12465
61008,21594,12430
60963,21562,12374
60905,21515,12291
60850,21470,12199
60795,21427,12105
60721,21372,11997
60629,21302,11874
60538,21236,11750
60451,21179,11629
60353,21116,11496
60249,21047,11352
60153,20983,11215
60058,20923,11087
59950,20852,10946
59830,20770,10788
59715,20692,10633
59611,20619,10487
59502,20543,10336
59393,20469,10181
59300,20408,10038
59216,20351,9903
59120,20283,9758
59016,20207,9607
58921,20139,9469
58830,20079,9342
58733,20015,9212
58637,19951,9080
58552,19898,8958
58469,19848,8842
58377,19788,8718
58287,19725,8589
58208,19669,8469
58131,19615,8355
58046,19559,8238
57960,19502,8124
57878,19452,8020
57793,19403,7919
57703,19349,7810
57619,19295,7700
57546,19246,7601
57472,19196,7500
57387,19138,7381
57299,19076,7257
57219,19021,7144
57138,18966,7028
57047,18903,6899
56961,18844,6772
56888,18797,6656
56813,18751,6543
56737,18703,6429
56677,18664,6337
56638,18643,6282
56617,18634,6258
56628,18642,6282
56709,18700,6399
56883,18825,6638
57147,19008,6995
57498,19246,7467
57940,19544,8057
58449,19891,8742
58992,20259,9478
59547,20636,10240
60109,21023,11024
60661,21405,11809
61180,21762,12557
61664,22093,13257
62117,22405,13914
62525,22692,14515
62873,22937,15037
63164,23142,15480
63413,23321,15858
63620,23470,16169
63778,23580,16408
63896,23659,16587
63983,23722,16722
64037,23765,16815
64059,23782,16864
64058,23778,16877
64044,23764,16868
64014,23734,16834
63967,23688,16767
63912,23638,16682
63860,23595,16600
63805,23555,16519
63745,23509,16430
63690,23468,16346
63646,23438,16279
63602,23410,16220
63553,23377,16160
63508,23341,16107
63478,23313,16066
63457,23292,16030
63439,23271,15993
63423,23255,15957
63409,23244,15923
63387,23231,15882
63358,23209,15831
63323,23181,15772
63279,23145,15701
63220,23097,15612
63152,23041,15510
63082,22987,15403
63004,22929,15284
62908,22859,15147
62805,22788,15000
62706,22720,14856
62599,22649,14708
62487,22569,14550
62385,22492,14396
62301,22427,14259
62222,22372,14137
62145,22319,14022
62082,22274,13923
62038,22242,13850
62003,22221,13799
61974,22202,13757
61961,22189,13729
61965,22189,13725
61973,22192,13732
61983,22194,13739
62002,22200,13753
62028,22217,13783
62052,22237,13820
62066,22247,13843
62076,22254,13858
62086,22265,13875
62083,22269,13878
62065,22253,13856
62044,22232,13823
62022,22219,13793
61988,22202,13753
61941,22175,13693
61897,22148,13626
61855,22122,13557
61797,22081,13467
61721,22022,13352
61641,21961,13229
61558,21899,13108
61455,21828,12974
61337,21749,12825
61223,21677,12680
61120,21613,12541
61008,21539,12391
60887,21453,12229
60774,21369,12071
60666,21290,11916
60551,21203,11748
60429,21112,11573
60317,21033,11413
60216,20964,11267
60105,20892,11117
59991,20816,10964
59885,20744,10816
59784,20674,10667
59676,20600,10511
59565,20527,10357
59462,20462,10216
59358,20397,10079
59250,20325,9936
59148,20255,9797
59063,20196,9671
58984,20142,9550
58898,20086,9425
58815,20034,9305
58738,19991,9197
58658,19946,9093
58574,19892,8983
58496,19840,8876
58430,19799,8784
58367,19764,8699
58296,19718,8609
58227,19670,8516
58170,19630,8426
58112,19590,8337
58046,19543,8241
57978,19497,8148
57915,19458,8062
57849,19421,7979
57779,19379,7889
57711,19335,7795
57648,19289,7697
57575,19233,7591
57495,19172,7480
57420,19116,7375
57344,19064,7268
57259,19006,7146
57173,18948,7024
57101,18904,6924
57047,18873,6844
57003,18849,6782
56990,18842,6759
57037,18873,6816
57154,18954,6978
57350,19090,7254
57640,19290,7658
58032,19565,8192
58504,19900,8841
59028,20267,9564
59589,20651,10333
60169,21048,11129
60742,21441,11924
61291,21818,12694
61812,22177,13430
62299,22514,14126
62741,22824,14769
63129,23098,15340
63467,23336,15840
63759,23541,16274
63995,23708,16634
64181,23838,16916
64329,23940,17136
64440,24021,17307
64510,24076,17422
64549,24104,17489
64568,24116,17524
64567,24115,17536
64544,24097,17521
64506,24063,17479
64462,24023,17424
64412,23979,17362
64355,23932,17292
64299,23883,17213
64245,23839,17138
64190,23802,17071
64137,23769,17002
64092,23733,16935
64055,23699,16876
64017,23669,16823
63976,23637,16764
63942,23608,16708
63918,23590,16668
63896,23576,16640
63865,23554,16605
63833,23526,16562
63807,23503,16524
63776,23481,16481
63727,23447,16417
63673,23405,16335
63622,23366,16243
63562,23320,16136
63481,23259,16007
63387,23189,15865
63292,23117,15720
63193,23042,15573
63086,22964,15422
62981,22886,15272
62885,22816,15135
62796,22755,15006
62710,22697,14882
62634,22650,14776
62575,22617,14697
62526,22590,14636
62482,22562,14586
62452,22540,14549
62441,22531,14531
62440,22529,14525
62441,22526,14520
62446,22526,14520
62459,22533,14528
62475,22542,14539
62492,22552,14550
62505,22558,14558
62513,22559,14562
62514,22555,14559
62506,22548,14546
62490,22538,14525
62465,22523,14493
62427,22499,14445
62385,22474,14386
62341,22450,14324
62288,22419,14252
62220,22376,14160
62146,22326,14055
62075,22276,13952
61997,22221,13843
61903,22153,13718
61800,22078,13582
61702,22009,13448
61607,21943,13312
61503,21868,13164
61395,21789,13008
61288,21711,12854
61181,21632,12698
61065,21547,12534
60945,21459,12368
60824,21372,12206
60698,21286,12040
60568,21198,11869
60444,21118,11706
60330,21047,11554
60216,20975,11405
60100,20898,11249
59988,20823,11092
59883,20755,10944
59779,20688,10794
59672,20618,10637
59569,20552,10488
59475,20495,10353
59383,20440,10220
59289,20382,10083
59197,20320,9946
59105,20258,9814
59012,20195,9679
58916,20128,9539
58823,20061,9403
58736,19997,9280
58653,19934,9162
58573,19874,9052
58501,19824,8955
58429,19780,8865
58353,19733,8769
58281,19688,8671
58219,19649,8584
58155,19609,8498
58081,19559,8402
58006,19509,8303
57939,19466,8214
57869,19422,8128
57789,19370,8024
57710,19317,7909
57637,19269,7796
57559,19221,7682
57464,19163,7555
57366,19101,7422
57274,19042,7293
57177,18982,7167
57076,18919,7037
56986,18863,6922
56919,18823,6840
56874,18800,6794
56866,18798,6793
56921,18838,6875
57061,18936,7073
57289,19095,7391
57608,19317,7830
58021,19608,8394
58510,19953,9062
59040,20322,9794
59592,20698,10555
60160,21080,11334
60727,21462,12116
61269,21827,12870
61771,22168,13576
62234,22488,14230
62652,22784,14828
63013,23040,15355
63316,23253,15803
63569,23430,16179
63775,23578,16488
63932,23689,16724
64040,23767,16891
64109,23820,17008
64139,23847,17080
64134,23845,17101
64111,23824,17082
64084,23797,17042
64044,23759,16982
63981,23704,16892
63910,23645,16785
63845,23593,16684
63781,23543,16586
63712,23488,16482
63646,23433,16380
63588,23387,16294
63531,23344,16216
63469,23298,16131
63413,23255,16049
63369,23222,15988
63323,23192,15936
63266,23155,15873
63214,23121,15811
63174,23096,15762
63131,23066,15709
63074,23021,15633
63007,22972,15541
62940,22930,15449
62862,22881,15347
62768,22815,15219
62674,22747,15081
62587,22688,14951
62490,22624,14811
62379,22545,14649
62271,22467,14484
62174,22395,14330
62071,22319,14177
61961,22241,14020
61866,22176,13881
61788,22125,13765
61714,22077,13663
61646,22031,13572
61600,22002,13509
61577,21991,13474
61558,21979,13444
61545,21967,13418
61555,21973,13417
61584,21996,13439
61609,22015,13459
61629,22028,13477
61662,22052,13515
61700,22083,13565
61719,22103,13604
61726,22111,13625
61737,22121,13647
61747,22131,13666
61738,22123,13660
61716,22101,13633
61690,22076,13599
61650,22046,13552
61593,22002,13482
61532,21953,13395
61472,21908,13302
61400,21859,13200
61304,21793,13073
61197,21718,12928
61095,21649,12782
60984,21577,12630
60858,21492,12461
60734,21408,12289
60619,21334,12127
60496,21257,11960
60360,21167,11776
60229,21077,11593
60110,20998,11425
59990,20917,11255
59863,20829,11076
59745,20746,10904
59638,20672,10747
59522,20596,10586
59395,20512,10415
59281,20438,10254
59181,20374,10105
59073,20304,9952
58953,20224,9796
58846,20154,9657
58758,20096,9533
58668,20031,9402
58574,19960,9262
58490,19900,9136
58412,19850,9024
58329,19796,8905
58249,19740,8780
58181,19698,8668
58115,19659,8568
58039,19613,8468
57962,19567,8370
57899,19532,8285
57837,19499,8209
57769,19457,8125
57702,19411,8036
57643,19374,7954
57578,19336,7870
57504,19288,7770
57430,19236,7665
57361,19191,7569
57285,19143,7472
57195,19084,7356
57103,19025,7239
57019,18973,7136
56928,18920,7030
56829,18856,6907
56738,18798,6787
56662,18754,6684
56590,18711,6590
56526,18672,6512
56506,18661,6487
56550,18696,6546
56658,18775,6692
56843,18904,6940
57130,19102,7318
57517,19370,7828
57969,19683,8437
58467,20023,9116
59006,20394,9859
59568,20786,10641
60124,21175,11421
60663,21549,12174
61187,21914,12907
61680,22261,13605
62117,22566,14232
62500,22828,14779
62837,23057,15261
63119,23249,15678
63336,23393,16013
63502,23497,16270
63630,23581,16469
63715,23644,16614
63754,23672,16693
63769,23677,16723
63771,23671,16723
63745,23649,16694
63689,23608,16626
63618,23556,16533
63545,23503,16437
63467,23443,16332
63378,23369,16209
63291,23296,16083
63216,23239,15973
63144,23186,15871
63067,23126,15764
62996,23068,15662
62940,23027,15580
62887,22989,15510
62827,22944,15435
62775,22903,15365
62740,22877,15312
62701,22852,15257
62648,22815,15184
62598,22775,15105
62550,22741,15030
62485,22697,14942
62401,22637,14832
62320,22577,14714
62240,22522,14593
62142,22455,14454
62028,22375,14297
61922,22299,14140
61824,22229,13985
61713,22150,13819
61593,22063,13645
61483,21985,13489
61387,21923,13356
61294,21863,13229
61212,21808,13111
61158,21775,13019
61124,21758,12952
61090,21739,12895
61061,21722,12856
61054,21721,12852
61064,21730,12874
61077,21738,12905
61102,21748,12944
61142,21768,12995
61183,21792,13045
61212,21810,13081
61236,21823,13106
61265,21838,13135
61287,21852,13161
61293,21855,13171
61290,21852,13169
61281,21850,13160
61261,21838,13135
61227,21811,13090
61185,21775,13032
61134,21736,12967
61067,21691,12886
60984,21632,12780
60895,21569,12661
60808,21511,12537
60719,21453,12403
60623,21388,12259
60524,21319,12111
60421,21250,11960
60311,21179,11803
60194,21104,11640
60072,21027,11476
59953,20952,11314
59834,20875,11151
59715,20795,10986
59596,20714,10824
59471,20630,10659
59342,20540,10488
59218,20453,10321
59106,20375,10168
59000,20304,10021
58889,20231,9867
58781,20158,9711
58682,20094,9567
58580,20032,9429
58469,19968,9285
58362,19904,9143
58268,19849,9014
58177,19791,8888
58079,19724,8753
57985,19656,8623
57902,19600,8512
57820,19547,8410
57735,19490,8302
57656,19437,8195
57584,19391,8096
57509,19343,7994
57430,19289,7883
57360,19241,7779
57302,19206,7689
57240,19171,7599
57174,19130,7497
57115,19090,7399
57058,19053,7314
56987,19006,7225
56908,18949,7123
56838,18901,7025
56774,18861,6938
56698,18814,6840
56610,18754,6724
56526,18696,6608
56442,18640,6497
56345,18575,6375
56246,18504,6245
56163,18447,6131
56100,18410,6050
56054,18385,5996
56042,18383,5983
56095,18429,6054
56230,18536,6237
56449,18697,6537
56761,18913,6962
57178,19196,7526
57677,19537,8210
58226,19906,8964
58805,20291,9758
59408,20694,10584
60011,21099,11413
60585,21486,12207
61125,21852,12956
61629,22198,13660
62080,22512,14304
62461,22782,14871
62781,23007,15360
63052,23199,15780
63275,23359,16125
63445,23481,16390
63569,23568,16588
63658,23627,16735
63705,23656,16826
63712,23654,16858
63700,23637,16854
63681,23616,16835
63647,23588,16793
63592,23545,16723
63532,23500,16645
63474,23464,16570
63414,23425,16486
63350,23378,16392
63295,23338,16304
63247,23304,16227
63198,23265,16149
63147,23221,16066
63108,23187,15997
63080,23166,15950
63046,23143,15906
63010,23116,15859
62982,23097,15824
62958,23085,15798
62928,23063,15764
62893,23031,15717
62862,23004,15671
62833,22982,15630
62793,22947,15570
62740,22900,15488
62680,22851,15400
62606,22802,15303
62510,22740,15178
62404,22668,15031
62295,22597,14880
62178,22523,14727
62055,22441,14565
61935,22356,14400
61827,22281,14248
61725,22213,14107
61630,22145,13969
61552,22086,13843
61495,22043,13741
61446,22008,13657
61397,21974,13584
61360,21949,13528
61342,21940,13504
61337,21941,13501
61336,21940,13499
61346,21944,13503
61372,21960,13524
61394,21974,13547
61403,21979,13558
61414,21983,13567
61436,21996,13585
61452,22008,13602
61450,22008,13604
61442,21998,13594
61433,21986,13579
61410,21965,13550
61373,21935,13501
61333,21905,13441
61289,21876,13375
61231,21841,13298
61159,21796,13208
61085,21748,13109
61005,21693,12998
60911,21628,12871
60810,21559,12737
60713,21496,12606
60614,21434,12470
60504,21364,12322
60393,21290,12169
60290,21220,12022
60188,21147,11877
60077,21068,11728
59968,20993,11581
59870,20926,11440
59771,20863,11300
59666,20797,11153
59563,20731,11004
59466,20670,10864
59369,20609,10729
59268,20541,10592
59170,20471,10458
59076,20404,10331
58974,20335,10201
58867,20262,10062
58765,20195,9929
58670,20134,9811
58575,20072,9690
58478,20007,9558
58387,19946,9427
58302,19894,9306
58211,19836,9184
58121,19773,9054
58047,19717,8933
57982,19673,8829
57908,19630,8723
57830,19580,8611
57760,19536,8509
57694,19499,8422
57618,19454,8328
57535,19398,8222
57462,19349,8125
57399,19306,8038
57330,19260,7942
57257,19211,7833
57193,19173,7731
57131,19140,7638
57053,19093,7536
56964,19038,7427
56881,18989,7324
56803,18941,7219
56708,18879,7097
56599,18805,6964
56494,18731,6828
56393,18659,6686
56283,18582,6530
56167,18505,6373
56058,18436,6224
55957,18372,6085
55867,18312,5961
55804,18270,5875
55792,18266,5860
55846,18310,5941
55987,18413,6140
56238,18590,6482
56599,18842,6972
57053,19154,7584
57577,19511,8287
58152,19902,9062
58757,20312,9889
59363,20721,10729
59945,21115,11549
60501,21492,12341
61023,21851,13093
61495,22181,13782
61912,22473,14392
62276,22725,14923
62589,22939,15378
62847,23113,15754
63047,23245,16052
63200,23343,16276
63312,23415,16439
63381,23465,16547
63413,23494,16611
63419,23503,16640
63400,23490,16636
63357,23458,16599
63301,23417,16542
63247,23378,16476
63194,23337,16398
63129,23287,16305
63058,23230,16205
62996,23181,16114
62938,23138,16029
62875,23093,15944
62815,23052,15863
62771,23020,15797
62737,22995,15744
62702,22967,15692
62665,22940,15643
62637,22922,15605
62614,22906,15572
62583,22882,15536
62551,22857,15500
62524,22840,15466
62493,22821,15425
62449,22793,15367
62398,22758,15295
62344,22721,15218
62280,22677,15126
62196,22614,15000
62099,22540,14853
62000,22468,14705
61890,22392,14553
61767,22303,14388
61653,22216,14224
61554,22143,14075
61459,22073,13931
61363,22002,13787
61280,21941,13657
61211,21893,13548
61137,21847,13443
61058,21799,13337
60995,21760,13252
60949,21735,13194
60910,21711,13144
60876,21687,13098
60864,21677,13074
60869,21682,13072
60872,21685,13074
60870,21682,13072
60877,21686,13081
60888,21696,13097
60886,21697,13099
60875,21693,13086
60864,21692,13072
60845,21687,13052
60808,21667,13012
60762,21635,12954
60714,21598,12888
60658,21556,12809
60587,21501,12707
60511,21438,12590
60431,21375,12466
60335,21305,12326
60224,21225,12165
60106,21142,11997
59985,21062,11836
59852,20976,11669
59712,20882,11485
59574,20789,11301
59437,20702,11130
59297,20614,10957
59156,20519,10772
59021,20429,10587
58889,20343,10406
58745,20252,10217
58598,20154,10017
58464,20062,9825
58340,19977,9645
58211,19891,9461
58077,19801,9269
57950,19717,9081
57827,19638,8903
57700,19555,8724
57572,19468,8541
57449,19381,8364
57328,19296,8196
57205,19212,8029
57085,19135,7864
56970,19065,7708
56854,18999,7559
56738,18933,7409
56632,18864,7265
56535,18801,7130
56435,18737,6998
56325,18669,6862
56223,18605,6732
56138,18552,6615
56054,18502,6504
55962,18446,6392
55879,18390,6284
55809,18342,6185
55740,18298,6087
55664,18251,5982
55589,18203,5875
55517,18156,5771
55440,18106,5664
55356,18054,5548
55274,18007,5431
55196,17965,5320
55118,17919,5208
55036,17866,5089
54953,17813,4970
54869,17763,4854
54773,17704,4732
54668,17636,4604
54567,17574,4480
54470,17518,4361
54365,17456,4234
54256,17388,4093
54154,17325,3956
54065,17268,3829
53984,17212,3710
53917,17165,3613
53888,17147,3572
53917,17174,3617
54024,17253,3769
54233,17396,4053
54558,17616,4490
54992,17910,5079
55520,18263,5794
56124,18661,6604
56777,19090,7482
57439,19527,8386
58083,19955,9279
58709,20372,10147
59310,20775,10985
59861,21151,11770
60349,21484,12476
60778,21777,13097
61148,22034,13639
61450,22246,14095
61687,22411,14458
61876,22539,14739
62022,22640,14959
62123,22712,15118
62174,22747,15210
62188,22754,15246
62176,22742,15248
62137,22710,15215
62074,22659,15142
62003,22603,15046
61935,22549,14947
61861,22491,14838
61773,22421,14708
61683,22350,14569
61599,22290,14440
61513,22233,14318
61420,22170,14196
61336,22111,14083
61272,22065,13992
61216,22025,13912
61162,21982,13830
61117,21944,13756
61084,21915,13692
61047,21885,13626
61003,21853,13552
60960,21824,13482
60915,21797,13416
60854,21759,13339
60779,21708,13245
60698,21648,13139
60610,21581,13015
60501,21499,12864
60377,21411,12693
60255,21327,12520
60126,21243,12342
59982,21147,12149
59838,21051,11955
59714,20970,11777
59603,20897,11611
59487,20818,11445
59375,20741,11285
59285,20678,11152
59214,20628,11041
59154,20583,10947
59109,20553,10877
59086,20541,10837
59077,20540,10823
59077,20542,10824
59089,20551,10842
59117,20572,10880
59152,20596,10926
59185,20613,10967
59221,20630,11006
59257,20652,11046
59280,20671,11080
59285,20681,11095
59285,20688,11097
59288,20697,11096
59281,20695,11079
59248,20670,11030
59201,20635,10961
59149,20601,10884
59085,20561,10800
59008,20510,10701
58925,20453,10590
58840,20390,10469
58746,20322,10334
58639,20251,10185
58526,20178,10032
58412,20103,9875
58286,20020,9707
58149,19931,9528
58013,19845,9348
57874,19760,9164
57725,19667,8964
57575,19571,8759
57438,19485,8568
57306,19401,8384
57161,19306,8191
57009,19202,7991
56867,19104,7801
56735,19012,7621
56602,18919,7440
56471,18830,7261
56353,18752,7092
56241,18681,6929
56123,18605,6762
56006,18527,6594
55899,18459,6435
55794,18396,6282
55687,18331,6133
55582,18268,5993
55481,18212,5869
55379,18157,5750
55274,18097,5622
55176,18040,5495
55093,17991,5380
55012,17942,5266
54919,17882,5142
54827,17818,5018
54748,17762,4904
54667,17705,4790
54579,17641,4670
54498,17584,4556
54425,17536,4453
54345,17486,4346
54263,17432,4228
54188,17385,4118
54117,17345,4023
54038,17297,3916
53949,17238,3790
53861,17180,3666
53771,17126,3547
53669,17062,3417
53563,16993,3278
53470,16935,3151
53394,16892,3051
53336,16859,2980
53321,16852,2964
53376,16893,3050
53517,16992,3263
53756,17153,3608
54109,17385,4093
54573,17691,4717
55120,18056,5454
55724,18458,6267
56368,18882,7129
57028,19319,8017
57669,19749,8897
58274,20157,9736
58842,20541,10524
59368,20897,11263
59839,21215,11936
60249,21487,12525
60600,21720,13033
60888,21919,13464
61112,22077,13812
61286,22194,14084
61421,22284,14297
61522,22351,14460
61584,22390,14565
61609,22399,14618
61610,22389,14634
61597,22368,14622
61563,22332,14578
61513,22285,14507
61453,22234,14419
61382,22182,14320
61303,22127,14209
61222,22070,14091
61143,22015,13971
61069,21963,13855
61001,21914,13745
60939,21869,13641
60880,21827,13549
60819,21785,13467
60759,21742,13387
60713,21706,13315
60680,21682,13259
60649,21661,13212
60611,21634,13158
60572,21604,13100
60537,21577,13043
60493,21547,12980
60433,21504,12899
60366,21454,12801
60293,21399,12694
60203,21337,12572
60095,21261,12431
59981,21178,12276
59866,21095,12117
59746,21011,11954
59621,20925,11783
59501,20842,11619
59394,20769,11476
59291,20701,11347
59189,20633,11216
59103,20576,11098
59039,20537,11011
58990,20508,10944
58954,20481,10885
58945,20467,10848
58964,20477,10843
58996,20498,10858
59025,20518,10878
59062,20543,10909
59112,20577,10957
59160,20609,11009
59200,20635,11055
59236,20660,11099
59267,20684,11141
59282,20697,11172
59281,20701,11188
59276,20703,11192
59267,20700,11183
59244,20686,11151
59211,20663,11102
59180,20638,11046
59144,20607,10982
59087,20562,10896
59015,20509,10795
58943,20461,10695
58866,20412,10587
58767,20349,10455
58654,20273,10309
58544,20201,10167
58437,20131,10026
58323,20055,9874
58206,19975,9718
58096,19899,9567
57984,19823,9417
57863,19740,9257
57739,19655,9090
57621,19576,8927
57502,19499,8767
57377,19422,8604
57257,19349,8447
57145,19278,8297
57029,19203,8140
56908,19120,7970
56793,19040,7804
56684,18970,7653
56569,18899,7505
56453,18824,7352
56355,18759,7211
56269,18704,7086
56180,18643,6956
56087,18575,6815
56004,18513,6683
55926,18461,6571
55844,18409,6462
55761,18357,6347
55691,18315,6238
55630,18283,6139
55563,18246,6038
55487,18201,5931
55412,18157,5834
55341,18117,5750
55267,18071,5658
55194,18019,5557
55130,17973,5464
55063,17931,5380
54988,17883,5283
54919,17835,5180
54859,17794,5088
54796,17754,4999
54718,17702,4895
54636,17645,4781
54564,17599,4675
54491,17556,4571
54408,17505,4456
54326,17451,4338
54252,17405,4235
54184,17365,4147
54121,17326,4069
54086,17301,4023
54109,17316,4051
54202,17379,4176
54373,17495,4409
54646,17678,4776
55030,17937,5291
55501,18257,5930
56032,18614,6654
56616,19001,7447
57236,19413,8295
57857,19824,9158
58455,20217,9998
59035,20602,10813
59589,20979,11599
60092,21323,12324
60539,21625,12969
60943,21895,13545
61298,22133,14060
61585,22327,14495
61808,22477,14842
61992,22600,15125
62140,22701,15357
62236,22768,15519
62285,22803,15615
62313,22828,15674
62324,22845,15702
62302,22835,15685
62253,22800,15632
62203,22764,15570
62156,22729,15505
62095,22681,15421
62025,22626,15322
61967,22576,15228
61916,22530,15142
61853,22478,15048
61786,22425,14953
61734,22386,14878
61693,22356,14819
61651,22325,14760
61615,22297,14705
61596,22279,14664
61583,22264,14634
61564,22244,14603
61546,22223,14570
61531,22208,14538
61509,22191,14498
61472,22162,14437
61422,22126,14365
61370,22090,14296
61306,22047,14218
61223,21986,14109
61130,21918,13981
61040,21853,13850
60944,21788,13711
60834,21717,13557
60720,21643,13400
60611,21574,13252
60504,21507,13109
60399,21438,12967
60310,21375,12834
60237,21321,12717
60169,21271,12611
60106,21224,12515
60060,21189,12437
60029,21165,12379
60001,21145,12332
59978,21128,12297
59974,21124,12288
59987,21133,12300
59998,21142,12315
60012,21152,12331
60042,21174,12359
60073,21197,12385
60083,21205,12395
60078,21202,12394
60075,21200,12396
60071,21198,12394
60053,21182,12374
60023,21155,12340
59995,21128,12300
59962,21096,12250
59917,21055,12180
59863,21010,12092
59805,20967,11995
59738,20923,11886
59657,20870,11760
59571,20810,11628
59483,20747,11496
59384,20677,11353
59271,20595,11194
59154,20511,11027
59042,20431,10859
58924,20350,10689
58792,20262,10511
58657,20173,10332
58536,20097,10166
58418,20023,10006
58289,19939,9843
58169,19859,9686
58067,19790,9541
57967,19722,9394
57864,19649,9241
57769,19579,9093
57682,19517,8956
57585,19450,8814
57477,19377,8664
57379,19310,8525
57295,19252,8402
57203,19189,8277
57107,19125,8145
57024,19072,8020
56945,19023,7896
56852,18963,7756
56751,18899,7607
56658,18845,7473
56571,18795,7352
56475,18734,7224
56376,18668,7095
56286,18607,6976
56197,18547,6860
56100,18481,6734
56005,18416,6607
55922,18361,6489
55842,18310,6378
55756,18254,6259
55673,18198,6139
55600,18149,6032
55524,18104,5934
55438,18056,5831
55354,18006,5725
55279,17961,5625
55202,17913,5519
55110,17853,5397
55012,17789,5267
54922,17732,5148
54829,17679,5030
54727,17617,4900
54629,17555,4770
54543,17500,4649
54463,17447,4528
54390,17394,4410
54348,17362,4334
54353,17367,4333
54414,17412,4416
54555,17508,4606
54804,17673,4940
55164,17914,5422
55613,18211,6024
56132,18553,6723
56706,18936,7502
57308,19345,8330
57917,19756,9167
58520,20161,9997
59105,20553,10812
59651,20920,11589
60141,21250,12297
60578,21544,12931
60964,21807,13496
61291,22033,13989
61556,22215,14397
61770,22360,14725
61944,22479,14988
62075,22570,15186
62155,22627,15319
62197,22660,15403
62214,22675,15450
62207,22669,15456
62172,22639,15423
62117,22594,15360
62054,22547,15281
61979,22493,15182
61892,22431,15063
61804,22370,14942
61722,22314,14828
61643,22258,14712
61564,22196,14588
61492,22135,14466
61431,22081,14357
61367,22030,14258
61295,21975,14159
61226,21927,14066
61169,21889,13989
61114,21855,13921
61061,21819,13853
61019,21789,13789
60982,21766,13728
60932,21738,13657
60871,21702,13572
60811,21665,13487
60748,21625,13400
60664,21566,13288
60560,21490,13147
60458,21414,12998
60355,21337,12846
60236,21250,12674
60111,21157,12489
59993,21073,12314
59878,20997,12151
59760,20918,11984
59650,20842,11823
59561,20780,11685
59485,20730,11567
59412,20682,11461
59352,20641,11369
59314,20615,11302
59287,20597,11254
59263,20580,11217
59251,20571,11196
59262,20580,11202
59283,20596,11224
59300,20605,11241
59318,20611,11253
59341,20621,11271
59356,20625,11284
59358,20619,11280
59359,20612,11273
59362,20611,11270
59351,20604,11255
59324,20585,11220
59297,20570,11183
59267,20557,11144
59220,20530,11084
59159,20487,10997
59099,20439,10897
59039,20388,10785
58958,20323,10651
58856,20245,10500
58751,20168,10345
58643,20097,10191
58522,20021,10022
58391,19937,9838
58264,19856,9658
58139,19776,9485
58007,19687,9304
57870,19591,9115
57734,19499,8932
57595,19408,8751
57448,19309,8558
57302,19211,8360
57166,19123,8175
57035,19038,7998
56902,18947,7813
56778,18858,7626
56665,18781,7453
56553,18710,7288
56433,18636,7119
56315,18563,6952
56205,18499,6797
56097,18438,6646
55983,18369,6489
55871,18299,6331
55767,18237,6183
55661,18177,6034
55550,18110,5876
55444,18044,5724
55341,17978,5585
55232,17904,5446
55123,17825,5305
55027,17757,5178
54940,17700,5067
54851,17643,4956
54758,17588,4835
54674,17540,4715
54595,17499,4600
54506,17450,4475
54409,17393,4338
54318,17339,4209
54233,17292,4095
54141,17239,3972
54041,17177,3838
53946,17116,3708
53858,17060,3584
53762,16995,3448
53658,16924,3302
53557,16860,3164
53457,16800,3033
53353,16735,2894
53256,16669,2753
53178,16617,2635
53121,16582,2552
53095,16567,2515
53130,16588,2556
53251,16671,2719
53467,16820,3025
53788,17037,3476
54228,17323,4074
54772,17677,4804
55381,18077,5621
56020,18496,6478
56674,18921,7350
57325,19346,8226
57947,19758,9076
58523,20138,9869
59051,20489,10600
59532,20815,11272
59950,21101,11867
60292,21331,12362
60569,21515,12765
60790,21662,13098
60950,21768,13355
61048,21832,13528
61107,21869,13641
61141,21892,13722
61144,21892,13758
61117,21868,13743
61082,21836,13700
61039,21800,13640
60972,21748,13548
60883,21679,13422
60790,21611,13288
60689,21547,13152
60570,21471,12998
60440,21383,12828
60319,21301,12664
60210,21225,12511
60099,21143,12355
59987,21058,12198
59893,20990,12063
59816,20940,11949
59743,20887,11835
59673,20832,11719
59615,20787,11618
59559,20751,11524
59486,20704,11416
59398,20645,11295
59306,20586,11173
59206,20521,11042
59091,20444,10893
58970,20364,10731
58852,20288,10565
58732,20208,10395
58609,20121,10216
58489,20035,10032
58378,19954,9856
58271,19875,9688
58168,19796,9527
58077,19730,9389
57998,19681,9275
57926,19641,9173
57868,19607,9082
57834,19585,9015
57821,19578,8979
57816,19575,8959
57816,19575,8951
57832,19588,8964
57865,19613,9000
57905,19640,9045
57944,19662,9088
57987,19687,9137
58033,19714,9191
58072,19735,9239
58099,19747,9277
58123,19758,9313
58141,19771,9346
58148,19777,9367
58142,19775,9370
58125,19766,9355
58095,19752,9323
58053,19725,9266
58005,19687,9187
57952,19644,9098
57886,19596,8995
57803,19537,8874
57717,19476,8747
57632,19418,8624
57536,19357,8498
57425,19287,8357
57313,19216,8203
57208,19149,8051
57098,19077,7894
56976,18997,7725
56852,18917,7556
56731,18843,7394
56607,18764,7229
56476,18675,7052
56346,18587,6874
56223,18508,6710
56103,18431,6549
55982,18350,6378
55871,18274,6211
55768,18207,6059
55661,18138,5906
55549,18064,5748
55450,17995,5600
55358,17931,5464
55259,17864,5324
55155,17794,5176
55060,17733,5036
54970,17682,4907
54875,17628,4779
54777,17568,4649
54687,17511,4528
54603,17455,4416
54516,17398,4300
54431,17339,4178
54347,17281,4059
54261,17224,3942
54170,17162,3819
54076,17098,3686
53982,17039,3556
53884,16981,3429
53782,16919,3298
53687,16860,3169
53604,16809,3053
53523,16763,2943
53437,16713,2829
53366,16671,2727
53326,16649,2665
53317,16652,2660
53349,16684,2726
53456,16766,2894
53665,16915,3198
53984,17132,3643
54407,17409,4216
54926,17745,4900
55513,18130,5677
56130,18538,6507
56756,18948,7351
57376,19358,8191
57972,19760,9012
58525,20133,9785
59027,20464,10488
59483,20763,11124
59893,21035,11700
60239,21264,12198
60516,21443,12606
60742,21590,12944
60927,21712,13226
61057,21800,13440
61135,21850,13580
61184,21880,13668
61211,21899,13717
61202,21894,13719
61161,21866,13678
61111,21833,13615
61056,21796,13538
60977,21742,13432
60879,21671,13301
60784,21599,13170
60696,21529,13043
60597,21451,12902
60491,21366,12748
60402,21293,12609
60326,21234,12487
60247,21174,12364
60170,21115,12239
60109,21069,12131
60057,21032,12038
59995,20987,11941
59925,20934,11841
59864,20891,11750
59804,20850,11665
59732,20799,11571
59654,20742,11469
59581,20689,11368
59504,20633,11258
59410,20565,11128
59309,20491,10984
59212,20422,10840
59112,20354,10695
59000,20279,10543
58889,20202,10395
58796,20136,10266
58714,20080,10148
58636,20024,10029
58576,19977,9925
58539,19945,9852
58509,19922,9800
58483,19901,9758
58475,19893,9734
58494,19905,9742
58529,19927,9775
58569,19951,9820
58623,19983,9884
58690,20026,9964
58755,20066,10042
58814,20099,10110
58875,20135,10177
58931,20175,10244
58965,20205,10295
58977,20219,10325
58985,20233,10346
58989,20243,10360
58975,20237,10351
58951,20216,10320
58932,20196,10282
58909,20174,10238
58863,20135,10167
58800,20081,10074
58737,20033,9981
58672,19989,9889
58592,19936,9784
58501,19878,9669
58413,19824,9555
58328,19771,9438
58238,19708,9310
58147,19643,9175
58058,19581,9042
57961,19514,8904
57851,19436,8757
57740,19356,8610
57634,19282,8465
57529,19208,8316
57421,19129,8155
57316,19054,7993
57218,18987,7842
57117,18920,7691
57003,18846,7527
56888,18773,7364
56787,18714,7222
56691,18660,7091
56588,18601,6957
56489,18542,6824
56401,18488,6698
56310,18433,6572
56208,18373,6442
56109,18314,6313
56022,18259,6194
55941,18204,6079
55862,18146,5964
55786,18089,5850
55707,18031,5735
55622,17973,5617
55533,17915,5498
55446,17862,5386
55361,17812,5276
55272,17756,5159
55187,17700,5036
55110,17649,4919
55031,17595,4801
54944,17531,4678
54862,17469,4555
54798,17421,4452
54744,17387,4374
54704,17364,4317
54709,17367,4310
54780,17418,4393
54924,17523,4585
55148,17680,4896
55472,17900,5339
55897,18189,5914
56397,18528,6592
56942,18893,7337
57522,19277,8129
58122,19678,8952
58710,20075,9769
59270,20452,10554
59807,20814,11308
60314,21159,12024
60768,21468,12678
61168,21735,13255
61531,21976,13770
61854,22191,14226
62115,22361,14601
62313,22488,14893
62470,22591,15130
62591,22677,15320
62662,22728,15445
62687,22749,15507
62695,22758,15537
62692,22761,15552
62666,22743,15536
62616,22706,15488
62564,22667,15428
62514,22629,15364
62454,22579,15283
62389,22522,15188
62336,22476,15103
62290,22442,15029
62239,22401,14948
62190,22356,14863
62152,22323,14795
62117,22301,14743
62079,22277,14692
62043,22254,14649
62023,22242,14634
62017,22234,14638
62013,22220,14633
62006,22205,14613
61999,22197,14586
61981,22185,14544
61943,22156,14474
61892,22117,14383
61833,22076,14284
61758,22026,14174
61667,21956,14044
61574,21881,13907
61493,21817,13780
61418,21761,13662
61336,21699,13536
61255,21638,13413
61191,21593,13313
61131,21558,13227
61072,21522,13147
61028,21492,13082
61010,21476,13040
61002,21467,13011
60995,21461,12988
61003,21468,12986
61030,21491,13009
61053,21511,13036
61071,21525,13064
61103,21549,13102
61147,21586,13150
61185,21616,13192
61212,21632,13225
61249,21652,13264
61291,21677,13306
61315,21687,13327
61320,21681,13326
61324,21673,13323
61324,21664,13317
61300,21638,13286
61259,21602,13232
61222,21574,13175
61185,21549,13116
61132,21510,13035
61068,21463,12935
61002,21417,12834
60931,21369,12727
60847,21310,12601
60762,21248,12465
60683,21192,12333
60597,21134,12198
60497,21066,12049
60392,20993,11898
60289,20924,11761
60181,20855,11627
60064,20774,11475
59949,20691,11319
59846,20620,11176
59737,20549,11032
59620,20467,10875
59513,20387,10725
59418,20319,10589
59315,20252,10452
59203,20175,10306
59100,20107,10166
59011,20055,10038
58920,19999,9903
58824,19936,9758
58737,19880,9623
58657,19831,9504
58569,19776,9381
58477,19715,9249
58394,19660,9123
58319,19612,9010
58240,19560,8897
58159,19503,8777
58082,19453,8666
58005,19406,8561
57921,19352,8447
57842,19296,8329
57774,19249,8222
57702,19203,8125
57617,19146,8021
57536,19084,7914
57472,19031,7815
57407,18981,7715
57331,18925,7602
57250,18869,7485
57172,18821,7376
57092,18775,7271
57007,18723,7160
56929,18675,7053
56875,18643,6973
56843,18628,6923
56835,18628,6907
56880,18662,6962
57002,18749,7128
57204,18889,7409
57483,19078,7796
57848,19327,8294
58296,19637,8904
58795,19985,9590
59320,20346,10313
59865,20716,11061
60421,21093,11825
60957,21458,12573
61458,21799,13285
61930,22123,13957
62370,22428,14588
62761,22700,15161
63093,22931,15664
63378,23128,16101
63619,23295,16471
63808,23426,16768
63954,23524,16998
64067,23597,17175
64144,23647,17303
64179,23669,17378
64184,23669,17407
64179,23660,17411
64157,23643,17390
64109,23608,17340
64046,23564,17271
63985,23522,17199
63922,23481,17126
63851,23437,17044
63788,23396,16959
63743,23365,16882
63702,23334,16809
63656,23295,16733
63610,23256,16663
63573,23228,16607
63536,23202,16557
63500,23170,16508
63471,23141,16468
63453,23124,16441
63433,23107,16413
63406,23082,16371
63375,23054,16323
63336,23026,16271
63278,22987,16199
63205,22937,16102
63133,22889,16000
63065,22846,15899
62990,22796,15787
62907,22734,15656
62828,22673,15521
62751,22616,15391
62666,22553,15254
62577,22482,15110
62496,22415,14976
62423,22357,14862
62355,22305,14757
62295,22258,14662
62245,22223,14588
62205,22199,14537
62173,22181,14495
62155,22169,14458
62150,22168,14434
62145,22168,14420
62138,22166,14409
62142,22168,14409
62162,22179,14429
62181,22188,14456
62186,22186,14470
62191,22183,14475
62202,22186,14481
62205,22186,14482
62192,22172,14466
62174,22153,14436
62155,22139,14403
62127,22123,14364
62084,22098,14306
62036,22069,14237
61987,22044,14164
61924,22009,14080
61845,21958,13975
61762,21900,13861
61677,21844,13747
61581,21782,13627
61478,21709,13493
61382,21639,13358
61293,21578,13230
61197,21510,13091
61087,21428,12935
60979,21348,12778
60876,21280,12628
60762,21209,12471
60634,21127,12302
60514,21048,12143
60404,20978,11998
60293,20907,11848
60180,20830,11686
60076,20759,11529
59979,20697,11384
59875,20629,11235
59766,20553,11079
59670,20484,10938
59589,20426,10817
59507,20364,10692
59422,20298,10559
59349,20245,10439
59283,20204,10335
59207,20156,10225
59127,20101,10109
59060,20052,10003
58994,20009,9899
58913,19958,9783
58826,19905,9664
58753,19860,9559
58682,19817,9459
58602,19763,9351
58522,19707,9244
58453,19660,9146
58387,19612,9050
58313,19555,8947
58237,19498,8842
58168,19449,8744
58097,19399,8644
58015,19340,8532
57929,19277,8416
57846,19221,8307
57754,19166,8197
57649,19104,8076
57545,19043,7952
57453,18993,7842
57370,18950,7741
57293,18908,7646
57246,18881,7580
57252,18890,7577
57319,18941,7656
57457,19040,7834
57688,19200,8137
58018,19427,8573
58422,19705,9115
58884,20019,9740
59399,20368,10439
59945,20741,11192
60486,21113,11955
61008,21472,12701
61519,21825,13429
62007,22165,14126
62449,22473,14764
62844,22746,15339
63202,22996,15863
63515,23218,16322
63760,23390,16697
63945,23519,16993
64093,23625,17232
64208,23708,17420
64278,23756,17549
64314,23778,17621
64332,23789,17654
64328,23788,17652
64294,23765,17610
64242,23725,17537
64184,23679,17452
64115,23625,17356
64031,23559,17241
63943,23493,17117
63857,23434,16995
63767,23374,16875
63672,23306,16752
63587,23243,16637
63521,23193,16544
63462,23149,16456
63396,23097,16358
63331,23043,16262
63279,22999,16182
63229,22961,16109
63171,22918,16031
63114,22877,15951
63063,22841,15872
63002,22799,15783
62923,22743,15678
62839,22684,15562
62756,22625,15436
62658,22557,15291
62544,22477,15128
62427,22394,14961
62311,22309,14793
62186,22217,14613
62059,22124,14427
61945,22045,14256
61844,21976,14102
61740,21905,13953
61641,21835,13817
61564,21783,13708
61503,21743,13620
61448,21703,13542
61410,21673,13480
61401,21663,13449
61408,21666,13445
61410,21666,13444
61413,21665,13445
61429,21674,13461
61451,21688,13487
61471,21702,13509
61498,21721,13531
61527,21747,13559
61546,21766,13578
61546,21771,13577
61534,21768,13563
61515,21760,13542
61480,21737,13499
61431,21699,13431
61383,21661,13357
61332,21626,13283
61263,21578,13189
61172,21515,13070
61080,21456,12947
60994,21406,12831
60899,21345,12700
60791,21266,12548
60687,21188,12396
60586,21118,12250
60470,21042,12091
60340,20955,11914
60215,20870,11739
60099,20794,11573
59976,20713,11402
59846,20625,11226
59725,20543,11056
59610,20463,10885
59487,20376,10702
59360,20287,10517
59242,20206,10344
59124,20131,10180
58995,20048,10013
58862,19963,9846
58742,19887,9691
58627,19811,9539
58503,19730,9379
58380,19649,9216
58269,19577,9067
58164,19505,8925
58058,19431,8780
57961,19360,8635
57875,19297,8500
57786,19236,8367
57686,19170,8230
57588,19107,8100
57495,19051,7982
57400,18994,7863
57305,18930,7733
57218,18871,7609
57135,18820,7499
57040,18766,7381
56937,18704,7246
56847,18648,7113
56768,18604,6993
56684,18555,6867
56589,18493,6725
56498,18433,6588
56411,18377,6459
56312,18315,6321
56205,18246,6173
56110,18187,6037
56031,18143,5927
55957,18104,5833
55901,18072,5765
55897,18073,5765
55961,18124,5863
56098,18223,6063
56326,18378,6378
56662,18605,6834
57092,18899,7423
57584,19231,8102
58119,19591,8842
58693,19976,9631
59278,20374,10441
59840,20761,11233
60373,21127,11991
60883,21481,12714
61355,21810,13385
61768,22095,13978
62125,22339,14494
62432,22551,14945
62683,22726,15323
62872,22854,15617
63013,22943,15835
63115,23005,15989
63172,23037,16080
63184,23038,16109
63167,23019,16097
63134,22995,16061
63082,22961,15997
63006,22907,15897
62915,22842,15770
62820,22779,15640
62715,22711,15505
62600,22632,15358
62490,22555,15213
62399,22491,15084
62317,22430,14964
62229,22362,14839
62144,22294,14715
62064,22235,14599
61983,22179,14486
61903,22123,14373
61833,22073,14266
61771,22031,14166
61709,21988,14067
61642,21938,13963
61574,21889,13854
61502,21840,13735
61411,21777,13597
61306,21701,13443
61202,21627,13289
61092,21554,13130
60963,21467,12955
60830,21375,12773
60711,21293,12603
60603,21218,12446
60493,21138,12289
60386,21059,12140
60295,20994,12012
60215,20939,11901
60141,20887,11800
60084,20847,11718
60058,20827,11666
60053,20825,11643
60057,20831,11639
60074,20844,11654
60105,20866,11689
60140,20888,11731
60174,20904,11771
60211,20921,11813
60251,20946,11865
60285,20972,11915
60306,20989,11949
60322,21002,11975
60337,21017,12000
60341,21026,12014
60325,21019,12002
60300,21001,11970
60269,20976,11926
60222,20944,11867
60158,20900,11785
60087,20849,11686
60012,20794,11575
59930,20734,11450
59836,20665,11311
59732,20594,11165
59619,20522,11012
59496,20447,10849
59370,20371,10682
59248,20298,10520
59124,20224,10361
58996,20144,10192
58875,20063,10016
58766,19988,9846
58656,19912,9678
58533,19828,9502
58407,19742,9324
58288,19662,9158
58166,19585,8996
58040,19501,8829
57920,19418,8662
57811,19344,8506
57703,19276,8355
57588,19206,8200
57476,19137,8045
57373,19074,7897
57265,19011,7750
57152,18943,7596
57043,18877,7444
56942,18818,7304
56839,18754,7166
56730,18679,7019
56629,18605,6877
56533,18536,6745
56426,18461,6609
56315,18382,6465
56219,18315,6334
56136,18262,6220
56051,18206,6103
55961,18140,5976
55879,18079,5855
55799,18029,5742
55711,17975,5624
55618,17917,5500
55537,17868,5392
55474,17835,5318
55435,17820,5281
55440,17831,5297
55508,17884,5397
55659,17992,5609
55902,18160,5943
56247,18393,6406
56692,18692,6998
57208,19040,7694
57767,19414,8452
58357,19808,9252
58964,20214,10076
59558,20614,10896
60113,20989,11682
60629,21338,12421
61109,21667,13109
61538,21964,13730
61905,22218,14266
62215,22432,14719
62473,22612,15100
62670,22751,15404
62809,22847,15628
62907,22913,15790
62974,22958,15909
63009,22979,15981
63009,22974,16003
62988,22954,15988
62955,22926,15946
62903,22881,15872
62832,22821,15766
62755,22759,15647
62680,22704,15525
62593,22645,15399
62495,22574,15266
62405,22507,15135
62332,22454,15014
62261,22408,14901
62188,22362,14794
62122,22318,14699
62064,22280,14616
62006,22241,14534
61948,22198,14449
61893,22155,14366
61839,22112,14287
61781,22068,14204
61717,22018,14109
61646,21962,14003
61561,21898,13885
61458,21823,13745
61346,21746,13596
61233,21672,13450
61112,21594,13300
60982,21507,13135
60860,21420,12964
60752,21343,12802
60646,21271,12645
60539,21196,12489
60447,21129,12344
60381,21080,12230
60331,21045,12144
60290,21013,12074
60266,20993,12022
60262,20990,11998
60269,20997,11996
60278,21002,12002
60300,21013,12025
60338,21041,12073
60376,21074,12129
60408,21100,12174
60446,21129,12219
60495,21169,12274
60536,21201,12319
60559,21213,12341
60584,21221,12358
60608,21236,12381
60607,21239,12388
60577,21221,12364
60538,21198,12332
60499,21178,12299
60446,21145,12244
60380,21094,12157
60309,21040,12058
60231,20986,11955
60133,20921,11829
60021,20843,11679
59909,20766,11528
59797,20693,11378
59680,20613,11217
59564,20528,11046
59453,20447,10883
59337,20368,10721
59211,20283,10544
59081,20196,10355
58955,20117,10172
58825,20039,9995
58688,19956,9814
58557,19874,9634
58442,19800,9466
58332,19728,9307
58219,19648,9141
58111,19565,8974
58012,19491,8823
57907,19420,8676
57791,19342,8523
57677,19267,8375
57578,19205,8245
57483,19146,8123
57385,19082,7993
57291,19019,7864
57206,18965,7747
57118,18910,7626
57021,18844,7491
56927,18780,7359
56841,18725,7243
56749,18666,7125
56650,18598,6994
56561,18535,6867
56479,18484,6748
56384,18429,6620
56278,18363,6477
56178,18301,6340
56084,18249,6216
55988,18196,6091
55900,18143,5969
55837,18106,5879
55805,18096,5841
55808,18106,5851
55867,18147,5927
56015,18251,6120
56267,18428,6457
56612,18665,6924
57045,18956,7510
57562,19304,8215
58138,19694,9011
58738,20096,9844
59345,20498,10684
59958,20908,11532
60557,21314,12366
61114,21693,13151
61625,22041,13877
62099,22366,14546
62519,22657,15145
62869,22899,15657
63159,23097,16086
63401,23264,16445
63594,23399,16733
63731,23492,16942
63824,23552,17087
63884,23592,17188
63907,23610,17242
63898,23603,17249
63874,23580,17227
63849,23554,17197
63814,23523,17149
63759,23475,17069
63693,23420,16975
63631,23375,16886
63566,23336,16799
63493,23292,16704
63427,23250,16614
63376,23216,16535
63327,23183,16460
63274,23145,16382
63230,23111,16311
63198,23083,16255
63164,23053,16205
63129,23020,16158
63097,22991,16118
63067,22967,16084
63030,22939,16038
62988,22907,15975
62947,22878,15902
62895,22843,15815
62818,22791,15701
62723,22728,15567
62624,22661,15426
62515,22588,15276
62391,22502,15112
62270,22413,14944
62162,22334,14785
62055,22259,14631
61945,22182,14478
61845,22112,14333
61762,22053,14208
61685,22000,14094
61612,21949,13985
61556,21909,13892
61522,21883,13824
61495,21859,13769
61469,21833,13719
61457,21819,13690
61461,21822,13690
61466,21829,13700
61467,21832,13706
61475,21839,13721
61488,21855,13750
61494,21862,13772
61487,21853,13776
61486,21845,13775
61493,21846,13778
61488,21839,13765
61466,21818,13728
61443,21800,13685
61417,21782,13640
61367,21748,13574
61293,21696,13480
61216,21644,13379
61141,21597,13278
61053,21541,13159
60948,21473,13016
60846,21407,12871
60743,21342,12726
60624,21262,12561
60493,21169,12379
60369,21082,12206
60253,21002,12043
60128,20917,11871
59998,20827,11693
59882,20746,11526
59774,20670,11366
59655,20586,11192
59530,20498,11010
59413,20421,10840
59297,20351,10678
59173,20275,10508
59047,20198,10333
58930,20130,10167
58819,20064,10007
58706,19989,9844
58598,19912,9684
58501,19840,9536
58403,19769,9393
58294,19690,9238
58180,19610,9081
58074,19538,8938
57968,19468,8800
57858,19394,8654
57757,19325,8509
57667,19262,8377
57571,19200,8248
57465,19133,8114
57359,19067,7981
57259,19007,7856
57161,18950,7731
57060,18891,7600
56962,18833,7471
56869,18778,7347
56776,18722,7219
56677,18660,7084
56580,18599,6953
56488,18541,6830
56395,18478,6703
56306,18413,6568
56225,18356,6440
56147,18304,6326
56072,18251,6222
56021,18210,6150
56023,18207,6152
56090,18258,6252
56233,18362,6460
56476,18529,6798
56839,18778,7291
57306,19100,7923
57844,19468,8653
58436,19866,9455
59069,20292,10317
59714,20730,11201
60342,21155,12068
60943,21561,12901
61512,21947,13697
62031,22302,14437
62485,22613,15099
62878,22885,15681
63216,23122,16187
63492,23319,16615
63706,23470,16958
63871,23585,17228
63996,23676,17442
64077,23736,17597
64119,23765,17692
64135,23774,17742
64135,23778,17761
64115,23769,17744
64073,23739,17691
64022,23698,17615
63970,23654,17527
63912,23607,17427
63847,23552,17312
63781,23497,17192
63718,23449,17081
63655,23401,16977
63593,23351,16877
63533,23302,16792
63471,23258,16718
63411,23215,16645
63363,23179,16577
63330,23156,16523
63299,23136,16475
63261,23106,16418
63220,23070,16354
63185,23040,16296
63144,23011,16233
63088,22971,16151
63022,22919,16054
62952,22864,15951
62871,22803,15833
62771,22728,15688
62658,22645,15525
62542,22565,15365
62419,22485,15203
62287,22397,15030
62158,22311,14860
62046,22239,14710
61946,22176,14572
61850,22111,14432
61769,22054,14302
61710,22014,14198
61657,21980,14112
61603,21944,14032
61563,21916,13970
61543,21904,13935
61529,21898,13920
61516,21892,13910
61517,21894,13912
61535,21910,13929
61548,21923,13943
61551,21924,13945
61561,21928,13950
61582,21942,13965
61588,21952,13975
61577,21950,13969
61566,21944,13955
61553,21934,13934
61523,21908,13894
61477,21868,13836
61430,21829,13773
61379,21787,13700
61315,21732,13604
61246,21672,13490
61181,21618,13374
61106,21561,13251
61007,21492,13109
60891,21417,12956
60773,21344,12805
60648,21269,12650
60511,21183,12479
60375,21092,12298
60247,21009,12122
60118,20930,11948
59981,20841,11763
59844,20749,11574
59713,20662,11391
59577,20574,11206
59437,20478,11009
59306,20389,10818
59184,20312,10642
59061,20232,10466
58932,20140,10280
58809,20052,10101
58694,19974,9938
58575,19895,9778
58450,19812,9613
58337,19738,9459
58234,19675,9321
58118,19606,9178
57994,19526,9026
57884,19455,8881
57787,19395,8748
57686,19332,8612
57582,19263,8467
57493,19203,8335
57413,19151,8220
57321,19090,8095
57218,19016,7954
57121,18948,7819
57031,18890,7696
56934,18829,7565
56836,18765,7426
56755,18715,7301
56684,18676,7190
56601,18625,7065
56507,18560,6928
56420,18501,6804
56340,18450,6691
56251,18394,6570
56156,18335,6441
56068,18280,6316
55977,18223,6197
55870,18153,6069
55756,18079,5932
55653,18011,5802
55555,17950,5679
55458,17891,5562
55382,17846,5473
55349,17831,5443
55372,17853,5487
55470,17919,5623
55668,18052,5890
55981,18269,6315
56403,18562,6892
56923,18915,7593
57528,19323,8400
58193,19770,9284
58873,20227,10201
59542,20676,11116
60194,21115,12017
60817,21540,12890
61390,21930,13702
61900,22276,14435
62353,22584,15094
62750,22858,15682
63077,23084,16176
63336,23258,16568
63543,23398,16883
63704,23512,17136
63811,23587,17316
63871,23623,17425
63904,23639,17487
63912,23643,17513
63886,23622,17490
63836,23583,17427
63776,23541,17348
63702,23496,17256
63608,23436,17137
63507,23367,17001
63418,23304,16872
63333,23245,16749
63245,23177,16617
63161,23107,16484
63087,23045,16363
63013,22986,16254
62934,22925,16147
62863,22871,16050
62807,22835,15977
62759,22808,15914
