green_channel,red_channel,ir_channel
11319,40520,60818
11273,40479,60749
11229,40434,60681
11188,40390,60614
11146,40349,60544
11100,40306,60466
11052,40260,60383
11004,40215,60299
10950,40166,60215
10890,40113,60129
10825,40061,60039
10757,40011,59943
10686,39960,59844
10612,39904,59742
10536,39846,59635
10459,39788,59523
10381,39729,59411
10303,39669,59302
10226,39609,59194
10153,39550,59086
10083,39491,58975
10015,39430,58860
9948,39367,58739
9880,39301,58613
9808,39231,58489
9733,39159,58366
9658,39089,58241
9583,39025,58121
9511,38966,58011
9446,38917,57917
9398,38884,57849
9378,38872,57821
9396,38891,57849
9461,38953,57947
9585,39068,58131
9778,39240,58416
10045,39472,58810
10384,39764,59314
10793,40112,59923
11266,40513,60630
11787,40955,60103
12343,41429,56263
12918,41922,49353
13496,42419,41088
14059,42905,32668
14595,43371,24864
15092,43806,18116
15540,44194,12611
15933,44531,8362
16271,44819,5279
16557,45062,3203
16789,45259,1949
16968,45411,1326
17104,45525,1159
17205,45605,1302
17277,45657,1634
17319,45687,2059
17341,45703,2513
17354,45713,2952
17358,45718,3348
17355,45720,3685
17347,45719,3959
17339,45715,4169
17332,45708,4323
17326,45704,4431
17323,45703,4502
17325,45705,4543
17327,45705,4558
17330,45703,4557
17336,45703,4548
17343,45702,4532
17346,45700,4510
17340,45696,4478
17321,45683,4432
17288,45655,4367
17238,45610,4280
17172,45552,4169
17091,45480,4037
16996,45396,3888
16890,45303,3724
16776,45206,3551
16664,45109,3375
16554,45014,3207
16450,44923,3050
16359,44843,2905
16282,44777,2777
16223,44722,2671
16179,44679,2590
16144,44644,2530
16118,44620,2488
16100,44606,2465
16092,44598,2455
16087,44593,2450
16083,44585,2445
16078,44575,2437
16071,44563,2423
16059,44549,2399
16041,44531,2362
16014,44506,2314
15976,44474,2256
15929,44435,2187
15875,44390,2108
15817,44338,2020
15755,44281,1923
15688,44220,1819
15615,44157,1708
15539,44089,1590
15459,44016,1463
15374,43940,1330
15281,43858,1193
15182,43770,1053
15079,43680,907
14971,43588,756
14865,43497,1918
14760,43404,6449
14653,43311,14079
14548,43222,23071
14446,43133,32203
14342,43040,40678
14238,42947,48039
14136,42858,54081
14035,42772,58783
13936,42688,62236
13839,42604,64596
13746,42521,520
13656,42440,1279
13565,42361,1517
13475,42284,1392
13391,42212,1035
13310,42144,550
13231,42076,14
13155,42013,65016
13084,41955,64518
13016,41897,64079
12950,41840,63705
12884,41786,63394
12821,41737,63141
12760,41686,62938
12700,41635,62776
12643,41584,62646
12588,41534,62542
12534,41484,62454
12476,41434,62376
12414,41382,62303
12351,41330,62235
12289,41277,62167
12226,41222,62096
12160,41167,62018
12094,41114,61933
12029,41057,61843
11966,40997,61747
11904,40940,61646
11838,40884,61542
11766,40826,61436
11690,40764,61332
11612,40702,61229
11532,40638,61124
11451,40575,61013
11370,40511,60899
11289,40444,60784
11207,40379,60668
11124,40318,60549
11044,40257,60427
10968,40192,60301
10895,40126,60175
10821,40060,60054
10750,39999,59939
10683,39945,59831
10628,39898,59737
10586,39863,59667
10562,39846,59628
10569,39857,59633
10621,39903,59699
10724,39993,59841
10886,40132,60074
11113,40325,60407
11409,40576,60846
11774,40888,61394
12206,41256,60725
12695,41674,56769
13230,42132,49781
13793,42618,41476
14367,43115,33051
14937,43611,25280
15488,44090,18597
16005,44539,13180
16475,44952,9036
16893,45323,6063
17256,45644,4098
17559,45913,2950
17804,46130,2424
17994,46301,2343
18135,46426,2555
18232,46512,2939
18296,46569,3404
18334,46602,3892
18350,46617,4356
18351,46618,4764
18345,46615,5103
18336,46609,5371
18328,46602,5575
18323,46591,5720
18320,46581,5816
18316,46572,5874
18307,46563,5902
18301,46555,5909
18299,46552,5902
18298,46549,5884
18294,46542,5856
18289,46535,5823
18282,46527,5786
18266,46513,5746
18239,46489,5696
18202,46457,5629
18154,46412,5542
18091,46349,5433
18006,46267,5299
17902,46170,5143
17785,46061,4968
17659,45945,4780
17530,45829,4587
17404,45715,4393
17286,45606,4208
17178,45505,4038
17082,45414,3888
16999,45338,3760
16933,45276,3657
16887,45230,3578
16860,45201,3525
16849,45188,3494
16849,45188,3480
16854,45192,3476
16857,45199,3479
16859,45207,3486
16857,45213,3492
16849,45210,3492
16832,45197,3480
16806,45177,3454
16774,45150,3411
16733,45115,3349
16682,45068,3272
16622,45010,3183
16555,44946,3081
16481,44876,2967
16402,44800,2842
16321,44724,2711
16236,44645,2576
16146,44562,2437
16055,44478,2294
15961,44393,2147
15864,44308,2000
15763,44226,1852
15660,44145,1701
15554,44061,1548
15449,43974,1396
15343,43884,1243
15238,43795,1088
15134,43705,931
15031,43612,775
14932,43518,1937
14835,43428,6471
14741,43342,14110
14645,43258,23116
14550,43174,32260
14456,43096,40752
14369,43024,48137
14288,42955,54213
14210,42891,58950
14135,42831,62439
14068,42773,64839
14008,42713,807
13951,42654,1609
13897,42600,1891
13846,42551,1810
13800,42504,1501
13754,42458,1065
13709,42414,575
13662,42372,83
13611,42331,65161
13559,42289,64753
13508,42249,64402
13455,42207,64109
13401,42163,63867
13346,42119,63669
13291,42076,63510
13238,42032,63387
13186,41985,63291
13132,41935,63209
13074,41884,63132
13014,41830,63059
12950,41773,62985
12881,41714,62907
12809,41654,62821
12734,41589,62727
12658,41518,62624
12577,41443,62511
12491,41365,62389
12400,41286,62261
12309,41211,62131
12219,41140,61998
12130,41070,61860
12038,40995,61718
11942,40916,61575
11845,40838,61435
11750,40763,61301
11656,40689,61174
11566,40618,61051
11482,40552,60928
11403,40491,60808
11330,40433,60694
11265,40379,60591
11218,40336,60508
11194,40314,60461
11203,40322,60464
11253,40367,60528
11356,40458,60668
11522,40600,60896
11756,40801,61227
12060,41063,61670
12434,41387,60906
12870,41763,56871
13356,42183,49819
13881,42636,41462
14430,43112,33003
14986,43595,25217
15532,44068,18539
16055,44520,13144
16540,44942,9035
16978,45323,6104
17359,45653,4180
17679,45931,3068
17939,46161,2573
18143,46345,2516
18293,46482,2744
18397,46578,3136
18462,46637,3600
18494,46665,4075
18504,46671,4514
18498,46659,4890
18482,46638,5195
18459,46613,5432
18432,46586,5605
18402,46557,5726
18373,46530,5803
18345,46504,5841
18316,46480,5847
18287,46458,5830
18261,46439,5799
18237,46421,5761
18213,46405,5720
18188,46393,5674
18161,46381,5622
18134,46363,5561
18101,46333,5488
18060,46284,5402
18003,46220,5297
17923,46138,5169
17819,46039,5018
17696,45925,4843
17557,45799,4648
17409,45664,4435
17257,45524,4211
17106,45384,3985
16962,45249,3766
16828,45125,3563
16707,45015,3379
16602,44924,3216
16517,44854,3084
16453,44804,2988
16411,44774,2924
16389,44760,2889
16382,44756,2874
16384,44759,2870
16389,44764,2872
16395,44769,2876
16398,44772,2878
16397,44771,2873
16388,44764,2858
16371,44749,2835
16343,44723,2797
16302,44685,2740
16248,44640,2664
16186,44588,2573
16115,44527,2467
16036,44456,2348
15950,44378,2219
15856,44294,2079
15755,44203,1931
15648,44104,1776
15540,44002,1615
15432,43901,1447
15322,43801,1276
15209,43701,1106
15091,43600,934
14973,43497,2078
14856,43392,6592
14740,43287,14208
14625,43183,23184
14510,43080,32298
14393,42975,40755
14274,42873,48098
14154,42774,54121
14034,42675,58801
13917,42578,62230
13802,42483,64567
13693,42389,467
13591,42297,1203
13493,42209,1424
13396,42126,1285
13302,42048,914
13213,41974,417
13129,41902,65408
13050,41831,64868
12972,41761,64364
12896,41692,63916
12821,41627,63530
12748,41564,63203
12675,41502,62932
12601,41442,62713
12527,41381,62537
12452,41320,62393
12379,41262,62272
12309,41204,62168
12241,41145,62072
12176,41087,61980
12112,41032,61891
12047,40977,61804
11978,40919,61713
11902,40861,61616
11823,40801,61513
11742,40735,61406
11660,40666,61296
11578,40596,61184
11496,40526,61071
11414,40453,60954
11330,40377,60830
11246,40301,60698
11162,40226,60562
11074,40149,60425
10983,40072,60286
10891,39995,60147
10799,39918,60009
10705,39840,59872
10607,39760,59732
10512,39682,59590
10423,39606,59446
10334,39532,59302
10247,39457,59159
10166,39387,59023
10095,39323,58899
10034,39269,58790
9990,39228,58704
9970,39211,58656
9984,39224,58662
10041,39275,58739
10152,39377,58905
10329,39537,59171
10575,39755,59544
10891,40029,60020
11275,40362,60597
11721,40749,61268
12220,41180,60704
12754,41639,56827
13307,42114,49884
13864,42593,41585
14411,43064,33131
14937,43514,25292
15422,43929,18504
15854,44301,12960
16230,44625,8677
16549,44899,5558
16812,45125,3441
17019,45305,2140
17173,45440,1471
17279,45535,1259
17343,45596,1355
17374,45625,1636
17375,45629,2008
17357,45615,2407
17330,45592,2793
17297,45562,3135
17258,45525,3415
17212,45484,3629
17163,45443,3780
17116,45404,3880
17076,45368,3937
17043,45335,3960
17017,45310,3958
16996,45290,3939
16976,45267,3903
16952,45239,3851
16921,45206,3785
16881,45165,3706
16832,45111,3612
16767,45045,3500
16684,44968,3366
16582,44877,3208
16462,44769,3024
16327,44650,2821
16185,44526,2608
16042,44401,2394
15900,44277,2186
15765,44163,1992
15646,44064,1816
15548,43977,1665
15469,43906,1543
15410,43852,1447
15372,43815,1379
15353,43795,1339
15349,43791,1324
15356,43800,1329
15366,43818,1348
15378,43838,1372
15392,43856,1393
15406,43871,1407
15414,43878,1412
15412,43874,1407
15402,43862,1387
15383,43843,1350
15354,43815,1297
15313,43779,1231
15261,43732,1153
15200,43675,1060
15132,43610,957
15056,43537,842
14971,43458,715
14879,43375,1892
14778,43285,6428
14668,43187,14059
14554,43087,23047
14439,42987,32169
14324,42886,40629
14207,42780,47971
14090,42674,53992
13972,42569,58668
13853,42467,62091
13731,42365,64419
13611,42264,309
13495,42169,1031
13386,42077,1233
13282,41984,1073
13180,41896,680
13082,41814,160
12986,41736,65126
12892,41655,64559
12801,41574,64030
12717,41498,63565
12639,41424,63169
12569,41352,62838
12502,41287,62567
12437,41230,62348
12372,41176,62175
12306,41124,62038
12237,41076,61924
12170,41030,61829
12105,40985,61746
12041,40936,61668
11980,40889,61592
11922,40844,61517
11864,40797,61443
11806,40748,61370
11747,40698,61295
11690,40650,61219
11637,40605,61145
11586,40561,61070
11534,40516,60990
11481,40469,60906
11428,40422,60822
11372,40375,60736
11314,40329,60645
11253,40281,60546
11189,40229,60444
11122,40173,60338
11051,40113,60231
10974,40050,60122
10892,39983,60007
10809,39912,59886
10726,39840,59764
10643,39765,59641
10557,39688,59516
10472,39612,59389
10391,39540,59261
10314,39471,59136
10244,39406,59018
10183,39351,58911
10140,39316,58827
10123,39306,58784
10139,39328,58798
10198,39386,58882
10311,39489,59048
10487,39643,59306
10728,39853,59666
11038,40123,60131
11417,40449,60700
11859,40825,61365
12353,41244,60792
12885,41699,56907
13440,42177,49954
13998,42660,41650
14548,43135,33192
15077,43590,25355
15569,44010,18574
16013,44386,13039
16398,44712,8759
16724,44987,5638
16990,45211,3519
17197,45387,2222
17350,45521,1558
17456,45618,1353
17524,45682,1459
17565,45716,1754
17584,45729,2143
17587,45727,2558
17574,45716,2958
17545,45697,3314
17508,45672,3606
17468,45643,3829
17428,45613,3993
17392,45581,4104
17361,45548,4168
17336,45518,4194
17315,45493,4194
17296,45472,4174
17279,45454,4138
17258,45434,4092
17229,45409,4037
17192,45377,3972
17149,45338,3893
17098,45288,3798
17032,45224,3679
16947,45143,3534
16847,45047,3370
16732,44942,3192
16607,44833,3004
16475,44721,2810
16343,44611,2617
16218,44507,2435
16105,44414,2273
16009,44335,2136
15934,44276,2026
15878,44233,1943
15842,44203,1889
15826,44187,1861
15826,44186,1853
15837,44195,1862
15855,44210,1883
15874,44227,1911
15893,44244,1937
15908,44257,1955
15915,44264,1959
15913,44262,1950
15902,44250,1929
15879,44224,1898
15844,44185,1857
15799,44140,1804
15747,44090,1738
15690,44037,1660
15629,43980,1570
15564,43917,1469
15495,43854,1358
15420,43790,1238
15340,43720,1110
15253,43644,974
15163,43566,833
15071,43485,690
14975,43399,1860
14874,43312,6398
14769,43223,14034
14661,43132,23030
14552,43038,32159
14442,42943,40625
14332,42847,47973
14223,42753,54002
14116,42660,58689
14008,42568,62128
13899,42476,64481
13790,42382,397
13682,42285,1141
13579,42191,1357
13483,42104,1210
13391,42020,833
13304,41940,332
13222,41869,65320
13145,41805,64780
13070,41746,64282
12998,41689,63843
12932,41636,63470
12873,41587,63164
12819,41537,62921
12766,41487,62732
12712,41441,62589
12660,41400,62482
12609,41357,62399
12558,41312,62329
12509,41271,62267
12464,41232,62212
12419,41191,62156
12373,41148,62095
12325,41106,62031
12272,41062,61962
12215,41014,61887
12154,40964,61803
12093,40915,61713
12030,40865,61621
11968,40811,61526
11905,40757,61428
11841,40702,61325
11775,40646,61222
11705,40586,61117
11630,40522,61011
11554,40458,60902
11475,40392,60790
11395,40324,60672
11314,40252,60549
11232,40178,60423
11150,40101,60297
11068,40024,60168
10985,39951,60041
10904,39881,59919
10826,39815,59802
10748,39751,59686
10673,39692,59575
10607,39642,59475
10556,39604,59397
10527,39588,59352
10534,39606,59357
10588,39665,59427
10697,39766,59578
10869,39920,59823
11114,40134,60175
11433,40411,60641
11827,40751,61221
12290,41152,60592
12816,41605,56684
13387,42096,49746
13984,42609,41491
14595,43135,33115
15205,43659,25388
15792,44166,18741
16334,44639,13357
16818,45065,9238
17238,45433,6278
17597,45741,4312
17892,45994,3152
18127,46196,2606
18304,46350,2501
18427,46457,2691
18505,46524,3054
18545,46561,3494
18557,46578,3949
18551,46580,4375
18534,46571,4745
18507,46550,5051
18471,46520,5289
18432,46487,5463
18393,46456,5580
18357,46429,5648
18327,46404,5677
18302,46382,5678
18283,46363,5660
18268,46350,5633
18255,46341,5605
18243,46332,5579
18233,46322,5554
18220,46306,5524
18200,46283,5483
18172,46251,5430
18130,46209,5361
18070,46155,5273
17995,46087,5165
17902,46003,5035
17788,45901,4879
17658,45786,4698
17517,45666,4504
17374,45541,4306
17238,45418,4109
17116,45308,3924
17011,45214,3760
16922,45138,3620
16852,45081,3507
16801,45042,3423
16768,45016,3365
16746,44999,3329
16735,44988,3310
16733,44985,3307
16737,44990,3316
16742,44998,3332
16745,45004,3345
16746,45007,3348
16741,45001,3339
16723,44986,3315
16694,44963,3278
16657,44934,3230
16615,44895,3174
16567,44850,3108
16510,44803,3031
16443,44753,2943
16367,44694,2845
16285,44625,2736
16199,44547,2617
16113,44468,2488
16028,44389,2352
15945,44311,2211
15861,44236,2069
15772,44159,1926
15680,44078,1783
15588,43994,1637
15494,43909,1487
15397,43821,1334
15297,43729,1181
15193,43633,1027
15087,43539,874
14982,43448,721
14876,43357,1886
14769,43267,6422
14666,43183,14061
14568,43103,23068
14476,43023,32217
14388,42944,40711
14306,42871,48094
14226,42800,54163
14150,42732,58891
14079,42668,62373
14017,42611,64770
13965,42559,740
13920,42513,1554
13881,42473,1854
13844,42438,1794
13810,42410,1505
13780,42385,1088
13752,42366,619
13729,42351,152
13708,42336,65254
13687,42316,64873
13664,42294,64554
13642,42270,64297
13619,42242,64097
13591,42212,63947
13558,42181,63831
13525,42152,63741
13491,42121,63670
13455,42088,63614
13420,42057,63567
13391,42028,63523
13365,41998,63479
13339,41968,63434
13314,41943,63387
13293,41923,63341
13273,41906,63297
13253,41888,63254
13235,41875,63210
13224,41865,63164
13218,41853,63117
13218,41841,63071
13225,41832,63026
13241,41830,62986
13268,41834,62952
13307,41846,62927
13358,41865,62911
13415,41890,62903
13472,41919,62902
13529,41950,62906
13588,41986,62916
13653,42029,62936
13727,42083,62974
13813,42150,63032
13922,42235,63125
14066,42348,63271
14262,42505,62174
14525,42722,57802
14869,43011,50439
15302,43379,41838
15831,43828,33226
16459,44357,25397
17181,44965,18798
17979,45640,13616
18836,46365,9852
19728,47123,7383
20635,47891,6018
21530,48647,5534
22384,49370,5707
23178,50045,6330
23904,50668,7231
24558,51229,8267
25134,51721,9331
25634,52144,10348
26065,52504,11272
26432,52809,12081
26745,53066,12765
27015,53288,13326
27253,53481,13778
27463,53649,14135
27651,53795,14412
27824,53925,14627
27989,54046,14798
28147,54161,14940
28298,54274,15061
28447,54390,15171
28604,54512,15279
28773,54642,15392
28961,54784,15519
29174,54946,15664
29415,55127,15831
29675,55325,16019
29955,55541,16229
30259,55774,16460
30591,56028,16714
30953,56303,16986
31344,56600,17272
31759,56909,17565
32189,57225,17859
32628,57545,18148
33074,57870,18435
33529,58200,18722
34005,58541,19017
34510,58902,19328
35050,59292,19660
35628,59712,20017
36246,60162,20406
36906,60646,20830
37610,61168,21295
38366,61732,21811
39188,61030,22384
40094,57026,23023
41107,50009,23744
42260,41742,24570
43589,33474,25527
45118,26015,26624
46852,19827,27856
48789,15112,29214
50926,11888,30689
51937,10055,32270
49757,9444,33945
44646,9855,35708
38350,11100,37557
32120,13014,39492
26799,15477,41521
22941,18427,43682
20902,21858,46035
20831,25796,48642
22664,30284,50256
26271,34137,48923
30286,35623,45020
32683,35467,40356
33780,35725,35990
35256,36315,32375
36708,35716,29759
36322,34128,28166
33868,32337,27054
31310,30188,25791
30191,28430,24904
29896,27629,24530
30611,27222,23685
32346,27875,22874
33488,29512,23431
34220,30300,25838
34762,30158,28730
34193,30204,29709
33553,30973,28571
33594,32622,26565
33359,35084,24479
33390,38173,22762
33772,41660,21620
32970,45311,21092
31187,48920,21118
29741,52320,21583
29271,55396,22358
29976,58081,23318
31795,59038,24362
34535,56223,25414
37945,49937,26417
41773,41965,27335
45798,33581,28149
48520,25632,28850
47752,18620,29437
43680,12794,29919
37997,8219,30311
31910,4833,30625
26223,2501,30879
21419,1050,31088
17735,301,31263
15218,78,31416
13783,226,31553
13247,606,31674
13363,1109,31776
13876,1647,31851
14546,2156,31896
15177,2593,31908
15629,2937,31887
15826,3180,31837
15745,3322,31760
15396,3376,31658
14811,3359,31536
14040,3285,31403
13142,3172,31265
12181,3036,31128
11210,2892,31000
10260,2749,30880
9342,2612,30772
8456,2482,30674
7585,2357,30581
6706,2233,30488
5772,2103,30388
6044,1956,30271
9492,1780,30122
15716,2871,29924
22797,7256,29654
29287,14633,29286
34148,23228,28791
36695,31784,28139
36540,39474,27306
34864,45818,26270
33763,50596,25016
33107,53764,23527
32622,55383,21779
33258,55557,19716
34052,54367,18557
34294,51826,20192
34957,47819,24085
35457,43327,28055
35402,39648,31393
35640,36395,34005
36175,33412,35246
36547,31855,35330
36633,32274,34091
36715,33242,31940
35884,32760,30602
34174,31329,30061
33721,31214,29379
34978,32848,28296
36969,35227,26814
39001,37655,24977
40572,39641,22816
41378,40915,20386
41319,41415,17786
40453,41217,15137
38930,40453,12548
36933,39269,10103
34629,37800,7853
32148,36159,7141
29587,34442,10036
27017,32721,16263
24484,31039,24060
22013,29414,32169
19611,27857,39764
17272,26373,46363
14998,24968,51744
12802,23649,55865
10705,22421,58806
8727,21293,60715
6882,20271,61782
6494,19355,62195
9620,18540,62129
15991,17819,61737
23863,17184,61146
31999,16624,60456
39590,16129,59735
46169,15692,59031
51514,15301,58368
55583,14944,57762
58450,14613,57216
60265,14300,56728
61209,14000,56292
61468,13711,55905
61225,13431,55563
60646,13161,55263
59862,12902,55005
58976,12654,54787
58064,12420,54603
57179,12200,54450
56354,11998,54328
55607,11811,54233
54944,11640,54161
54364,11483,54104
53864,11339,54056
53435,11206,54013
53067,11081,53972
52753,10965,53933
52489,10861,53897
52273,10772,53866
52107,10700,53843
51992,10651,53833
51930,10625,53840
51920,10625,53863
51957,10651,53904
52034,10698,53962
52140,10760,54036
52265,10832,54120
52403,10910,54207
52546,10989,54294
52681,11061,54375
52803,11125,54449
52905,11177,54512
52978,11216,54562
53014,11239,54597
53017,11246,54615
52989,11237,54614
52937,11214,54595
52867,11177,54559
52785,11133,54512
52697,11087,54455
52603,11040,54391
52504,10989,54319
52400,10935,54241
52295,10882,54159
52181,10824,54075
52052,10758,53984
51906,10680,53883
51744,10594,53774
51567,10501,53662
51376,10404,53543
51172,10304,53417
50952,10199,53285
50717,10087,53145
50470,9968,52999
50212,9843,52851
49944,9715,52703
49673,9585,52557
49403,9457,52410
49138,9337,52264
48885,9221,52123
48642,9108,51987
48408,8998,51851
48183,8894,51718
47971,8798,51589
47773,8707,51463
47586,8620,51337
47408,8540,51212
47237,8468,51095
47070,8399,50986
46905,8330,50886
46742,8262,50792
46580,8195,50695
46412,8124,50594
46239,8051,50489
46064,7975,50383
45883,7898,50275
45693,7816,50165
45497,7730,50052
45299,7641,49934
45096,7550,49808
44891,7458,49674
44685,7367,49538
44481,7278,49402
44281,7190,49266
44083,7103,49129
43888,7020,48989
43695,6940,48848
43503,6860,48706
43308,6779,48566
43114,6697,48429
42925,6619,48301
42747,6547,48189
42582,6482,48099
42439,6430,48034
42323,6393,48008
42245,6377,48034
42209,6380,48124
42222,6407,48282
42286,6461,48512
42404,6544,48816
42572,6653,49189
42784,6786,49626
43032,6940,50118
43310,7107,50653
43606,7282,51213
43909,7463,51781
44208,7644,52343
44489,7819,52885
44745,7981,53395
44969,8127,53861
45154,8253,54273
45298,8357,54627
45402,8440,54922
45469,8501,55160
45503,8543,55345
45507,8567,55479
45482,8574,55567
45432,8567,55618
45365,8550,55643
45281,8525,55650
45186,8491,55642
45091,8456,55626
44996,8420,55608
44904,8383,55589
44812,8346,55568
44723,8311,55547
44637,8278,55528
44554,8246,55511
44474,8216,55496
44397,8189,55479
44321,8164,55461
44241,8138,55439
44156,8110,55410
44065,8078,55369
43964,8041,55316
43853,7998,55252
43734,7949,55172
43610,7893,55076
43478,7832,54962
43339,7767,54836
43194,7701,54698
43048,7634,54553
42906,7571,54409
42772,7513,54278
42651,7461,54166
42543,7415,54073
42450,7379,54003
42371,7353,53959
42308,7336,53939
42259,7325,53940
42222,7321,53958
42196,7324,53988
42178,7333,54025
42166,7343,54065
42156,7351,54104
42144,7355,54140
42127,7356,54169
42103,7354,54192
42070,7347,54204
42030,7336,54202
41981,7320,54187
41924,7297,54159
41856,7268,54118
41776,7234,54063
41689,7198,53998
41598,7158,53926
41503,7115,53845
41408,7070,53758
41313,7026,53666
41218,6981,53567
41121,6934,53462
41024,6886,53354
40928,6840,53248
40832,6796,53143
40736,6754,53042
40641,6715,52945
40548,6677,52848
40453,6635,52746
40353,6585,52637
40246,6529,52519
40136,6472,52395
40024,6415,52271
39913,6360,52152
39804,6306,52036
39697,6256,51926
39597,6209,51825
39506,6168,51733
39421,6132,51651
39344,6101,51574
39275,6073,51502
39213,6047,51433
39155,6024,51366
39102,6003,51303
39051,5981,51245
39000,5960,51188
38950,5940,51132
38903,5921,51077
38856,5903,51028
38809,5886,50985
38766,5871,50945
38725,5858,50905
38681,5845,50862
38636,5829,50818
38593,5813,50774
38547,5795,50730
38498,5774,50684
38447,5753,50635
38398,5735,50587
38350,5717,50542
38304,5699,50499
38255,5681,50453
38205,5665,50403
38153,5649,50354
38098,5633,50304
38040,5617,50253
37981,5598,50198
37921,5575,50140
37862,5550,50077
37803,5523,50013
37744,5496,49950
37683,5468,49887
37622,5442,49824
37560,5419,49760
37497,5398,49694
37430,5375,49629
37363,5352,49563
37297,5330,49495
37236,5309,49429
37181,5289,49371
37136,5271,49330
37110,5262,49314
37109,5266,49334
37141,5286,49396
37213,5326,49515
37330,5392,49704
37499,5481,49970
37719,5596,50314
37991,5737,50735
38310,5903,51225
38667,6089,51776
39052,6292,52375
39453,6509,53006
39862,6734,53652
40267,6957,54299
40653,7172,54930
41009,7373,55528
41332,7561,56084
41618,7732,56589
41867,7884,57036
42078,8013,57417
42253,8118,57734
42391,8201,57992
42494,8263,58199
42567,8309,58359
42618,8341,58477
42652,8358,58561
42670,8366,58622
42675,8370,58668
42672,8375,58704
42664,8379,58731
42653,8382,58753
42644,8384,58768
42637,8386,58782
42632,8387,58796
42631,8389,58812
42633,8393,58835
42635,8403,58864
42636,8412,58893
42634,8417,58915
42629,8420,58932
42620,8421,58945
42604,8417,58951
42579,8406,58945
42542,8389,58924
42493,8368,58886
42432,8339,58832
42358,8304,58761
42277,8264,58673
42189,8221,58569
42095,8174,58451
41999,8124,58326
41905,8076,58202
41817,8033,58084
41738,7994,57980
41672,7962,57894
41620,7937,57827
41579,7917,57780
41548,7900,57751
41526,7887,57737
41509,7879,57736
41495,7873,57750
41481,7869,57773
41466,7866,57794
41452,7864,57811
41436,7860,57821
41419,7854,57822
41399,7845,57815
41374,7833,57799
41346,7819,57772
41315,7801,57735
41279,7781,57688
41238,7758,57631
41191,7733,57566
41137,7706,57491
41076,7675,57408
41012,7643,57321
40943,7608,57229
40868,7571,57132
40792,7534,57029
40715,7497,56925
40634,7458,56821
40549,7416,56714
40465,7371,56603
40383,7327,56491
40299,7280,56380
40210,7230,56269
40121,7181,56155
40035,7135,56040
39954,7090,55926
39879,7049,55814
39809,7012,55707
39741,6977,55604
39671,6941,55504
39599,6906,55405
39527,6874,55307
39455,6843,55209
39384,6811,55110
39316,6779,55013
39251,6748,54918
39187,6716,54827
39120,6680,54742
39055,6645,54664
38993,6614,54592
38935,6585,54523
38879,6557,54457
38827,6530,54392
38775,6505,54327
38720,6479,54265
38660,6454,54207
38602,6431,54150
38551,6411,54094
38506,6391,54038
38462,6370,53982
38418,6348,53922
38373,6326,53862
38328,6303,53803
38282,6281,53745
38236,6259,53689
38189,6238,53633
38138,6215,53575
38084,6191,53518
38029,6168,53458
37975,6143,53394
37921,6117,53323
37869,6090,53248
37818,6063,53173
37763,6038,53099
37704,6012,53022
37643,5984,52940
37579,5956,52854
37516,5926,52763
37453,5893,52666
37390,5859,52566
37327,5825,52469
37264,5791,52374
37202,5756,52283
37137,5721,52194
37073,5688,52105
37008,5659,52014
36943,5632,51927
36884,5605,51849
36834,5581,51785
36795,5563,51740
36775,5553,51724
36785,5555,51747
36832,5575,51816
36918,5616,51940
37050,5683,52134
37233,5776,52403
37466,5897,52748
37747,6042,53167
38071,6211,53659
38434,6405,54217
38832,6618,54823
39249,6840,55463
39670,7063,56117
40083,7285,56767
40478,7500,57396
40845,7699,57991
41176,7878,58539
41470,8039,59033
41726,8183,59468
41937,8307,59836
42102,8408,60135
42227,8487,60370
42318,8546,60551
42382,8586,60688
42424,8610,60789
42449,8627,60860
42464,8639,60908
42469,8646,60943
42470,8648,60966
42468,8647,60982
42464,8643,60998
42457,8640,61014
42451,8638,61030
42449,8640,61044
42451,8645,61058
42456,8648,61077
42460,8650,61098
42464,8653,61119
42469,8655,61141
42474,8654,61162
42474,8653,61178
42471,8651,61188
42462,8647,61188
42440,8640,61175
42405,8628,61142
42358,8609,61090
42298,8582,61017
42224,8545,60920
42137,8500,60805
42044,8454,60682
41949,8408,60553
41855,8362,60420
41763,8317,60291
41677,8273,60170
41602,8233,60062
41536,8196,59969
41479,8164,59891
41434,8139,59833
41405,8118,59792
41389,8103,59767
41376,8092,59754
41365,8085,59749
41358,8082,59750
41352,8081,59753
41346,8080,59752
41339,8078,59745
41330,8073,59731
41314,8064,59705
41290,8053,59666
41259,8037,59617
41220,8015,59560
41171,7986,59492
41113,7952,59414
41049,7917,59328
40980,7880,59234
40907,7843,59133
40830,7806,59029
40751,7767,58921
40675,7724,58809
40599,7678,58692
40520,7630,58571
40439,7583,58450
40357,7538,58331
40276,7494,58214
40196,7453,58097
40115,7411,57979
40034,7367,57858
39951,7324,57732
39864,7280,57603
39776,7233,57474
39689,7186,57349
39603,7143,57227
39519,7101,57107
39435,7058,56990
39354,7012,56873
39279,6968,56756
39212,6929,56641
39149,6890,56533
39086,6853,56433
39025,6820,56338
38966,6788,56243
38911,6755,56152
38859,6724,56067
38812,6695,55987
38767,6670,55913
38724,6646,55845
38682,6625,55781
38643,6607,55718
38603,6589,55654
38561,6570,55586
38517,6551,55513
38473,6532,55438
38427,6512,55364
38379,6489,55297
38329,6464,55234
38277,6437,55168
38227,6409,55095
38179,6381,55018
38132,6352,54937
38083,6324,54856
38034,6297,54776
37983,6270,54695
37926,6244,54612
37867,6217,54524
37805,6189,54431
37741,6156,54337
37676,6121,54242
37610,6087,54149
37540,6053,54057
37463,6016,53960
37382,5978,53859
37302,5942,53756
37225,5907,53653
37148,5870,53547
37070,5832,53438
36995,5794,53328
36922,5756,53221
36851,5717,53113
36780,5678,53005
36710,5640,52898
36642,5605,52795
36579,5575,52695
36523,5549,52604
36475,5527,52524
36437,5508,52461
36420,5499,52423
36427,5505,52423
36465,5527,52473
36545,5569,52583
36671,5633,52761
36843,5722,53009
37058,5837,53327
37315,5973,53715
37610,6130,54166
37938,6304,54671
38292,6491,55219
38661,6689,55792
39032,6890,56374
39397,7089,56951
39750,7282,57512
40082,7465,58044
40385,7634,58535
40653,7788,58980
40886,7923,59371
41079,8037,59705
41235,8128,59982
41361,8201,60207
41459,8256,60380
41528,8294,60507
41574,8322,60595
41605,8343,60654
41624,8356,60692
41633,8361,60714
41633,8360,60724
41628,8357,60726
41618,8352,60727
41606,8345,60728
41595,8339,60727
41584,8334,60723
41571,8326,60717
41558,8318,60710
41544,8312,60702
41527,8306,60694
41507,8297,60686
41484,8287,60677
41461,8279,60666
41442,8274,60654
41422,8266,60635
41396,8252,60602
41359,8232,60548
41309,8204,60470
41240,8167,60369
41155,8124,60247
41062,8075,60113
40961,8020,59969
40856,7962,59819
40753,7904,59670
40659,7850,59529
40576,7800,59401
40504,7756,59288
40443,7718,59190
40393,7689,59108
40351,7667,59043
40315,7649,58994
40284,7636,58960
40258,7628,58941
40238,7623,58929
40223,7618,58918
40211,7614,58905
40199,7610,58887
40185,7605,58862
40169,7597,58831
40147,7585,58795
40118,7568,58749
40080,7543,58693
40033,7513,58626
39979,7480,58546
39921,7445,58456
39859,7408,58357
39793,7371,58255
39723,7333,58149
39648,7294,58036
39565,7250,57917
39477,7201,57793
39386,7150,57666
39298,7099,57537
39211,7048,57406
39123,6998,57269
39035,6951,57133
38946,6906,57000
38857,6860,56870
38767,6813,56739
38676,6768,56607
38586,6722,56476
38497,6676,56347
38410,6630,56216
38326,6585,56084
38245,6544,55955
38165,6504,55829
38085,6464,55706
38007,6425,55583
37930,6384,55461
37853,6344,55342
37778,6304,55228
37705,6263,55117
37634,6225,55011
37567,6189,54914
37504,6154,54822
37442,6121,54732
37381,6087,54642
37319,6053,54551
37258,6022,54461
37199,5994,54374
37141,5966,54287
37084,5937,54202
37027,5908,54119
36971,5878,54039
36918,5849,53957
36871,5822,53871
36825,5797,53783
36775,5772,53694
36717,5742,53603
36652,5708,53508
36586,5675,53409
36516,5641,53309
36445,5605,53207
36375,5568,53103
36305,5532,52998
36235,5497,52895
36166,5462,52795
36095,5425,52695
36023,5389,52593
35953,5353,52491
35882,5316,52387
35808,5278,52277
35729,5238,52162
35647,5195,52046
35565,5151,51929
35482,5108,51810
35402,5068,51691
35325,5030,51574
35248,4992,51461
35171,4955,51354
35097,4921,51254
35033,4891,51162
34983,4865,51082
34950,4850,51023
34939,4850,50999
34956,4863,51016
35007,4891,51083
35097,4937,51206
35231,5006,51396
35407,5098,51658
35624,5209,51985
35879,5337,52367
36164,5482,52798
36471,5640,53268
36788,5804,53767
37106,5970,54280
37423,6136,54795
37731,6298,55298
38023,6451,55777
38291,6593,56222
38532,6721,56623
38740,6833,56977
38918,6930,57285
39070,7013,57544
39195,7080,57755
39293,7130,57921
39361,7165,58047
39401,7187,58134
39420,7198,58191
39422,7201,58224
39415,7200,58238
39401,7195,58235
39382,7186,58221
39358,7171,58203
39334,7155,58184
39312,7144,58167
39294,7138,58151
39278,7135,58137
39264,7134,58124
39256,7135,58115
39253,7138,58109
39251,7139,58107
39246,7139,58104
39238,7136,58097
39222,7128,58077
39198,7115,58041
39163,7098,57984
39115,7074,57905
39054,7040,57804
38979,6995,57684
38891,6942,57546
38796,6886,57399
38698,6830,57251
38599,6777,57107
38502,6727,56971
38412,6684,56848
38333,6646,56739
38269,6615,56647
38219,6590,56575
38186,6572,56525
38170,6562,56494
38165,6557,56476
38169,6557,56468
38179,6562,56469
38192,6569,56477
38203,6575,56488
38211,6580,56499
38213,6585,56505
38208,6584,56502
38194,6576,56488
38172,6564,56462
38143,6549,56425
38106,6529,56377
38059,6503,56318
38007,6476,56248
37951,6447,56168
37892,6418,56077
37829,6386,55977
37763,6352,55872
37694,6314,55763
37623,6274,55656
37553,6235,55552
37486,6199,55453
37421,6165,55355
37355,6132,55255
37290,6098,55154
37225,6064,55051
37154,6026,54945
37077,5984,54837
36996,5942,54723
36915,5900,54606
36834,5859,54486
36755,5817,54366
36678,5776,54247
36606,5736,54130
36539,5697,54016
36475,5660,53905
36412,5627,53795
36350,5595,53687
36295,5565,53584
36242,5536,53485
36192,5509,53393
36141,5482,53306
36087,5452,53220
36031,5423,53133
35978,5399,53048
35929,5378,52965
35881,5356,52886
35834,5333,52814
35789,5310,52742
35748,5288,52670
35705,5266,52596
35660,5243,52521
35613,5219,52445
35566,5196,52368
35517,5172,52291
35471,5148,52216
35428,5125,52141
35386,5102,52064
35344,5077,51985
35301,5052,51908
35257,5027,51834
35213,5001,51760
35166,4974,51682
35114,4947,51599
35059,4922,51513
35002,4897,51426
34941,4870,51338
34878,4842,51249
34815,4812,51160
34751,4781,51070
34690,4750,50979
34631,4721,50887
34572,4692,50795
34513,4663,50705
34456,4635,50615
34407,4609,50532
34376,4591,50467
34365,4585,50432
34377,4592,50435
34417,4615,50484
34495,4656,50584
34613,4715,50737
34771,4793,50950
34968,4890,51226
35199,5005,51560
35460,5135,51944
35744,5274,52369
36042,5421,52826
36344,5571,53302
36646,5720,53785
36943,5869,54263
37230,6015,54722
37497,6154,55155
37740,6281,55555
37957,6395,55917
38149,6496,56236
38312,6585,56513
38447,6662,56748
38556,6726,56943
38643,6777,57101
38711,6817,57230
38766,6848,57333
38810,6873,57418
38848,6895,57488
38880,6912,57547
38907,6923,57592
38928,6929,57622
38944,6934,57641
38957,6940,57655
38968,6947,57664
38977,6953,57671
38985,6961,57679
38991,6967,57686
38993,6970,57689
38995,6971,57689
38995,6972,57684
38991,6973,57675
38978,6969,57660
38956,6959,57635
38928,6942,57598
38890,6918,57542
38839,6888,57466
38779,6855,57375
38712,6819,57270
38639,6778,57155
38563,6733,57035
38484,6685,56912
38404,6640,56793
38332,6599,56685
38271,6566,56592
38223,6541,56513
38187,6522,56449
38158,6509,56402
38138,6501,56369
38128,6498,56348
38123,6497,56335
38120,6496,56330
38120,6497,56330
38125,6500,56332
38133,6503,56336
38142,6505,56338
38150,6504,56338
38151,6502,56332
38142,6498,56321
38122,6490,56304
38095,6481,56281
38064,6469,56246
38028,6453,56198
37984,6432,56139
37936,6405,56071
37883,6376,55995
37826,6346,55914
37765,6313,55826
37704,6279,55733
37642,6246,55639
37577,6212,55544
37509,6177,55447
37440,6141,55347
37373,6104,55242
37307,6065,55133
37241,6028,55024
37174,5993,54913
37103,5960,54801
37030,5927,54689
36960,5894,54579
36891,5860,54472
36826,5825,54367
36763,5791,54264
36701,5758,54164
36638,5726,54065
36574,5697,53966
36510,5667,53868
36446,5635,53772
36385,5605,53679
36331,5579,53593
36280,5552,53515
36232,5525,53440
36187,5499,53368
36143,5475,53301
36100,5452,53239
36056,5430,53178
36011,5408,53114
35969,5387,53047
35931,5366,52981
35896,5346,52914
35863,5325,52843
35829,5302,52771
35788,5279,52701
35744,5258,52635
35702,5241,52577
35663,5225,52523
35626,5209,52467
35590,5192,52407
35553,5172,52344
35516,5151,52281
35475,5128,52220
35431,5105,52154
35385,5083,52083
35340,5060,52007
35292,5036,51926
35242,5009,51846
35190,4980,51765
35134,4947,51682
35076,4914,51597
35018,4885,51512
34965,4860,51427
34913,4838,51342
34863,4816,51258
34815,4794,51176
34768,4772,51096
34724,4748,51017
34680,4722,50942
34635,4697,50872
34595,4676,50811
34566,4660,50768
34555,4653,50750
34572,4662,50768
34622,4689,50833
34709,4735,50955
34835,4800,51139
35005,4887,51385
35220,4995,51689
35475,5122,52047
35764,5268,52458
36077,5429,52914
36406,5598,53405
36745,5770,53919
37082,5942,54439
37407,6109,54952
37715,6268,55447
37997,6414,55914
38253,6548,56344
38480,6670,56734
38676,6779,57080
38841,6872,57378
38978,6952,57632
39092,7019,57846
39188,7074,58025
39266,7116,58171
39328,7150,58290
39380,7179,58388
39422,7205,58473
39455,7227,58545
39483,7245,58602
39506,7260,58645
39524,7273,58681
39539,7284,58712
39554,7294,58739
39571,7303,58763
39592,7312,58786
39615,7322,58810
39639,7334,58838
39660,7344,58868
39675,7350,58896
39683,7355,58918
39688,7358,58932
39688,7359,58937
39678,7355,58933
39656,7345,58915
39620,7330,58879
39573,7308,58824
39514,7278,58750
39445,7241,58659
39371,7203,58556
39296,7164,58449
39220,7121,58340
39146,7079,58232
39082,7040,58130
39027,7006,58041
38983,6977,57964
38948,6956,57900
38924,6945,57852
38905,6940,57820
38891,6939,57800
38886,6938,57791
38888,6937,57790
38890,6937,57790
38888,6938,57788
38886,6938,57785
38880,6937,57778
38864,6931,57767
38839,6919,57743
38807,6902,57708
38772,6885,57666
38736,6867,57619
38700,6847,57566
38663,6826,57508
38624,6804,57445
38579,6780,57381
38528,6751,57312
38476,6720,57236
38421,6686,57151
38364,6651,57058
38305,6616,56961
38245,6582,56865
38186,6548,56770
38124,6514,56675
38061,6480,56576
37998,6448,56473
37933,6415,56368
37863,6378,56261
37788,6339,56155
37715,6302,56050
37645,6266,55948
37577,6230,55843
37508,6193,55736
37438,6156,55626
37371,6119,55515
37304,6082,55402
37240,6045,55292
37181,6010,55190
37125,5978,55095
37069,5949,55005
37015,5924,54920
36968,5903,54841
36927,5883,54768
36888,5865,54700
36851,5846,54636
36816,5827,54574
36780,5806,54512
36742,5784,54447
36700,5761,54381
36656,5738,54315
36613,5716,54251
36571,5697,54189
36531,5681,54128
36496,5668,54068
36463,5655,54010
36433,5641,53952
36404,5627,53893
36374,5612,53833
36339,5593,53771
36299,5571,53707
36258,5547,53640
36214,5523,53572
36168,5499,53497
36120,5473,53418
36071,5447,53337
36021,5419,53259
35970,5387,53182
35918,5354,53101
35866,5323,53018
35812,5293,52934
35755,5265,52849
35699,5240,52764
35644,5216,52679
35587,5190,52591
35527,5162,52501
35465,5133,52412
35404,5106,52325
35348,5080,52242
35296,5053,52159
35248,5026,52075
35208,5003,51994
35172,4985,51920
35140,4969,51853
35119,4958,51803
35111,4956,51781
35123,4967,51794
35164,4991,51845
35239,5032,51946
35351,5093,52106
35504,5173,52328
35696,5272,52612
35928,5388,52955
36195,5522,53349
36489,5671,53789
36803,5831,54266
37130,6001,54768
37460,6174,55281
37785,6344,55790
38097,6507,56282
38389,6661,56748
38657,6801,57183
38900,6926,57580
39117,7039,57938
39310,7143,58254
39478,7233,58529
39621,7308,58765
39739,7372,58963
39839,7428,59130
39923,7477,59271
39989,7516,59389
40041,7549,59485
40086,7575,59562
40126,7597,59627
40162,7613,59683
40192,7627,59733
40216,7641,59780
40236,7653,59825
40256,7662,59867
40274,7672,59910
40291,7684,59953
40311,7698,59995
40333,7711,60034
40358,7724,60067
40385,7739,60098
40410,7756,60128
40428,7771,60154
40434,7782,60173
40432,7789,60181
40421,7790,60173
40397,7782,60150
40360,7763,60107
40310,7735,60045
40249,7700,59965
40181,7658,59867
40108,7614,59758
40032,7571,59647
39956,7528,59538
39882,7485,59434
39817,7448,59340
39765,7419,59259
39723,7395,59191
39690,7377,59138
39666,7365,59103
39650,7354,59080
39643,7346,59066
39640,7340,59058
39642,7337,59053
39647,7334,59049
39650,7329,59043
39649,7324,59032
39642,7321,59017
39629,7317,58994
39610,7310,58959
39584,7299,58913
39552,7287,58863
39514,7271,58807
39474,7251,58744
39433,7226,58675
39392,7199,58604
39349,7170,58532
39301,7137,58460
39248,7102,58384
39195,7070,58300
39141,7038,58208
39085,7006,58112
39028,6975,58014
38974,6944,57919
38920,6913,57826
38861,6880,57731
38794,6846,57631
38727,6814,57530
38661,6784,57426
38596,6752,57319
38531,6715,57209
38467,6675,57099
38404,6635,56991
38340,6595,56886
38275,6557,56783
38211,6522,56681
38146,6488,56581
38081,6456,56483
38021,6427,56388
37966,6399,56295
37914,6373,56206
37865,6350,56122
37820,6332,56042
37778,6315,55966
37739,6295,55892
37701,6273,55823
37661,6251,55758
37619,6229,55694
37574,6207,55633
37528,6184,55571
37485,6163,55508
37445,6141,55446
37405,6118,55385
37366,6095,55325
37329,6074,55262
37290,6053,55197
37247,6029,55127
37201,6002,55053
37155,5976,54980
37110,5952,54905
37063,5928,54827
37015,5904,54748
36965,5881,54667
36914,5856,54587
36860,5829,54508
36807,5800,54429
36755,5772,54348
36705,5744,54268
36651,5713,54185
36591,5679,54095
36526,5645,54002
36461,5612,53905
36399,5580,53805
36340,5549,53706
36282,5518,53610
36223,5488,53517
36163,5457,53421
36099,5425,53321
36032,5391,53223
35966,5358,53130
35903,5326,53040
35847,5297,52953
35799,5270,52872
35756,5248,52801
35723,5232,52747
35711,5228,52720
35723,5236,52728
35761,5256,52780
35834,5294,52883
35947,5352,53042
36103,5432,53262
36298,5532,53544
36529,5650,53885
36791,5786,54279
37075,5932,54712
37376,6086,55173
37685,6247,55653
37994,6412,56139
38297,6577,56622
38590,6737,57088
38872,6888,57529
39135,7028,57942
39371,7154,58322
39578,7263,58662
39754,7358,58957
39900,7441,59208
40018,7511,59415
40110,7569,59582
40184,7616,59718
40245,7655,59829
40293,7683,59917
40328,7701,59985
40352,7714,60036
40369,7723,60072
40383,7731,60098
40392,7738,60118
40396,7745,60133
40398,7749,60147
40396,7751,60159
40391,7750,60166
40386,7750,60169
40384,7751,60170
40384,7753,60173
40381,7752,60180
40376,7748,60186
40367,7743,60187
40354,7733,60176
40334,7719,60153
40307,7701,60118
40271,7679,60070
40223,7650,60004
40161,7614,59918
40088,7575,59815
40009,7532,59700
39924,7485,59575
39837,7436,59445
39754,7389,59315
39680,7345,59195
39616,7306,59086
39562,7273,58990
39517,7248,58906
39478,7226,58834
39448,7207,58780
39427,7191,58743
39416,7181,58718
39409,7178,58701
39404,7177,58688
39397,7177,58679
39387,7175,58672
39372,7172,58663
39355,7164,58645
39335,7151,58616
39310,7133,58577
39282,7110,58532
39248,7084,58479
39203,7056,58417
39152,7028,58345
39099,7000,58270
39046,6970,58189
38993,6938,58099
38940,6906,58001
38883,6872,57899
38819,6839,57794
38753,6806,57684
38685,6773,57574
38613,6738,57466
38537,6701,57357
38459,6661,57248
38383,6618,57135
38309,6573,57017
38236,6529,56894
38169,6488,56775
38103,6448,56660
38033,6404,56543
37960,6360,56425
37888,6319,56305
37815,6279,56186
37740,6240,56068
37667,6204,55957
37596,6173,55851
37525,6142,55748
37452,6108,55644
37382,6073,55541
37316,6038,55441
37253,6003,55343
37192,5968,55249
37132,5935,55157
37076,5906,55068
37022,5878,54984
36970,5849,54904
36919,5822,54825
36869,5795,54745
36818,5770,54664
36769,5747,54583
36719,5725,54504
36667,5703,54425
36615,5680,54351
36563,5659,54283
36514,5639,54214
36468,5618,54142
36418,5595,54070
36364,5569,53995
36311,5544,53917
36261,5519,53838
36212,5491,53762
36160,5459,53685
36103,5427,53605
36045,5397,53523
35986,5368,53441
35924,5338,53357
35857,5307,53269
35787,5274,53177
35717,5240,53083
35651,5205,52985
35588,5170,52883
35522,5136,52777
35457,5102,52669
35394,5070,52562
35332,5041,52457
35269,5013,52352
35203,4984,52244
35135,4952,52133
35068,4920,52024
35003,4890,51920
34940,4861,51824
34880,4834,51736
34825,4807,51654
34777,4782,51580
34734,4760,51520
34705,4746,51484
34703,4746,51478
34736,4762,51513
34810,4799,51602
34927,4860,51752
35090,4944,51967
35292,5048,52247
35528,5170,52585
35792,5310,52976
36080,5467,53416
36386,5632,53894
36705,5800,54397
37030,5970,54910
37353,6139,55422
37664,6304,55921
37959,6461,56397
38231,6607,56839
38475,6739,57241
38688,6857,57599
38869,6958,57912
39019,7046,58179
39144,7118,58401
39244,7177,58581
39323,7226,58722
39382,7264,58832
39422,7291,58917
39447,7309,58983
39464,7322,59034
39477,7332,59074
39484,7340,59108
39486,7344,59138
39489,7347,59165
39495,7350,59192
39504,7354,59221
39516,7358,59247
39527,7363,59268
39535,7368,59284
39539,7370,59294
39537,7367,59299
39530,7363,59298
39521,7361,59295
39509,7359,59289
39488,7354,59269
39459,7344,59234
39421,7328,59183
39375,7302,59117
39319,7270,59035
39254,7234,58936
39177,7195,58826
39091,7152,58710
39006,7106,58591
38930,7061,58473
38864,7022,58363
38812,6992,58271
38770,6968,58201
38738,6952,58150
38716,6942,58119
38702,6935,58106
38696,6935,58108
38701,6944,58122
38718,6956,58140
38738,6966,58161
38757,6975,58183
38772,6982,58200
38779,6986,58210
38779,6986,58213
38772,6983,58206
38763,6978,58190
38747,6970,58165
38723,6958,58128
38691,6945,58082
38656,6931,58028
38616,6913,57965
38569,6890,57891
38515,6863,57809
38459,6834,57722
38400,6804,57636
38339,6773,57553
38277,6741,57469
38216,6709,57381
38153,6674,57290
38088,6636,57195
38023,6598,57095
37959,6560,56992
37896,6522,56888
37832,6486,56779
37769,6451,56663
37706,6418,56547
37644,6384,56432
37580,6350,56317
37515,6314,56201
37449,6278,56089
37380,6244,55982
37309,6210,55880
37243,6177,55785
37183,6144,55694
37128,6112,55603
37076,6081,55515
37032,6055,55435
36992,6034,55361
36955,6015,55289
36916,5999,55217
36876,5986,55151
36835,5972,55089
36794,5955,55028
36755,5937,54966
36717,5921,54905
36679,5904,54847
36642,5886,54792
36606,5866,54738
36570,5847,54685
36534,5827,54634
36497,5806,54582
36462,5788,54526
36426,5770,54466
36388,5750,54404
36346,5727,54340
36303,5703,54272
36262,5682,54203
36222,5663,54133
36181,5645,54062
36137,5628,53989
36091,5609,53914
36045,5587,53837
35994,5562,53756
35939,5534,53673
35884,5505,53591
35828,5475,53510
35769,5443,53427
35712,5414,53340
35658,5388,53252
35603,5362,53167
35548,5334,53084
35494,5306,53004
35441,5279,52930
35395,5253,52864
35359,5232,52811
35339,5219,52778
35340,5215,52774
35363,5223,52805
35415,5249,52878
35507,5298,53003
35644,5369,53188
35821,5461,53435
36036,5573,53745
36285,5705,54113
36561,5850,54530
36857,6006,54982
37168,6172,55465
37488,6345,55968
37807,6518,56472
38117,6685,56961
38410,6842,57426
38683,6990,57862
38934,7125,58263
39156,7243,58625
39349,7347,58947
39515,7438,59227
39651,7515,59465
39760,7577,59662
39848,7628,59822
39915,7674,59955
39965,7712,60065
40002,7743,60153
40032,7766,60222
40057,7785,60279
40074,7797,60323
40084,7802,60354
40094,7807,60377
40107,7812,60402
40121,7819,60428
40132,7826,60452
40140,7833,60472
40148,7840,60490
40155,7847,60506
40159,7852,60519
40160,7856,60528
40155,7858,60532
40147,7858,60529
40133,7852,60516
40116,7842,60490
40095,7830,60448
40063,7810,60391
40016,7782,60318
39955,7747,60228
39882,7708,60124
39803,7666,60014
39724,7626,59904
39649,7589,59799
39583,7556,59703
39526,7525,59619
39481,7499,59550
39451,7481,59500
39438,7470,59466
39434,7463,59447
39435,7460,59440
39437,7458,59444
39438,7459,59457
39440,7462,59476
39443,7466,59496
39447,7473,59513
39452,7480,59525
39452,7486,59530
39450,7490,59527
39445,7491,59517
39435,7487,59499
39414,7478,59472
39384,7465,59433
39350,7447,59383
39311,7424,59325
39268,7399,59258
39221,7373,59186
39172,7344,59109
39119,7312,59025
39063,7277,58940
39004,7243,58856
38940,7207,58768
38874,7170,58670
38806,7134,58567
38739,7099,58464
38672,7065,58362
38602,7031,58261
38530,6995,58160
38457,6958,58059
38388,6920,57955
38323,6880,57847
38255,6839,57737
38187,6798,57623
38123,6760,57505
38064,6725,57391
38008,6692,57285
37955,6661,57187
37902,6631,57095
37846,6601,57007
37785,6573,56921
37725,6548,56835
37668,6523,56753
37613,6497,56676
37561,6470,56603
37511,6446,56530
37462,6424,56462
37417,6402,56402
37376,6381,56349
37340,6361,56300
37303,6341,56249
37263,6318,56195
37224,6296,56138
37184,6277,56078
37143,6257,56018
37104,6236,55957
37068,6217,55896
37033,6199,55835
36998,6178,55775
36960,6155,55714
36920,6136,55651
36880,6120,55590
36839,6104,55530
36800,6087,55468
36761,6071,55401
36721,6053,55326
36680,6033,55248
36639,6012,55170
36597,5989,55093
36549,5965,55019
36496,5940,54945
36440,5914,54870
36383,5887,54791
36325,5858,54707
36264,5826,54620
36200,5793,54530
36138,5763,54438
36083,5734,54346
36031,5705,54258
35982,5677,54176
35933,5649,54101
35882,5622,54030
35833,5596,53962
35792,5577,53904
35764,5568,53865
35756,5569,53851
35771,5582,53873
35821,5610,53940
35911,5658,54062
36043,5727,54249
36216,5817,54503
36435,5934,54828
36699,6078,55221
37000,6239,55675
37329,6414,56177
37682,6601,56716
38052,6797,57283
38431,6997,57867
38804,7197,58452
39160,7391,59017
39492,7576,59551
39794,7746,60043
40063,7899,60486
40298,8034,60877
40499,8152,61219
40667,8249,61512
40804,8329,61758
40917,8394,61962
41011,8449,62131
41088,8495,62272
41148,8533,62390
41196,8564,62487
41234,8591,62568
41263,8613,62637
41280,8629,62694
41291,8640,62738
41300,8647,62771
41308,8650,62795
41317,8652,62819
41329,8656,62844
41347,8664,62869
41368,8673,62895
41385,8682,62921
41397,8689,62945
41407,8694,62965
41415,8700,62981
41424,8707,62994
41427,8714,63001
41419,8714,62994
41400,8705,62971
41367,8687,62930
41323,8661,62875
41267,8628,62805
41197,8587,62722
41117,8542,62624
41033,8496,62514
40950,8449,62397
40873,8404,62282
40806,8365,62173
40748,8335,62073
40699,8312,61990
40656,8292,61927
40623,8276,61881
40601,8265,61849
40589,8258,61831
40584,8253,61824
40581,8250,61823
40583,8253,61825
40586,8256,61827
40589,8256,61829
40590,8255,61830
40588,8252,61826
40577,8246,61814
40558,8235,61791
40531,8222,61757
40501,8206,61716
40468,8188,61667
40428,8167,61610
40381,8142,61543
40330,8113,61467
40278,8083,61385
40224,8052,61296
40167,8021,61207
40107,7989,61118
40047,7956,61027
39986,7922,60934
39925,7890,60839
39863,7857,60744
39803,7823,60649
39742,7789,60554
39681,7758,60456
39618,7724,60350
39553,7687,60241
39486,7651,60132
39423,7615,60020
39361,7577,59907
39295,7537,59793
39227,7498,59681
39158,7461,59572
39090,7423,59468
39023,7389,59367
38958,7359,59268
38896,7329,59172
38834,7296,59079
38774,7264,58993
38718,7236,58913
38664,7210,58838
38614,7184,58766
38569,7158,58697
38530,7137,58628
38494,7120,58562
38461,7106,58499
38431,7091,58441
38403,7078,58385
38375,7065,58331
38348,7050,58274
38317,7035,58214
38277,7018,58153
38235,6998,58094
38196,6976,58036
38160,6956,57978
38126,6937,57919
38095,6919,57858
38061,6896,57794
38021,6869,57721
37974,6841,57647
37927,6815,57574
37880,6789,57501
37831,6762,57428
37781,6734,57357
37731,6705,57282
37680,6674,57204
37624,6642,57126
37566,6613,57046
37505,6586,56961
37441,6557,56873
37375,6528,56783
37312,6499,56691
37252,6470,56599
37192,6439,56505
37130,6406,56407
37067,6374,56304
37003,6340,56200
36935,6306,56102
36867,6274,56010
36802,6243,55923
36741,6213,55840
36686,6184,55760
36643,6159,55687
36611,6140,55629
36594,6127,55592
36599,6122,55581
36632,6134,55607
36697,6166,55685
36801,6219,55825
36949,6298,56031
37143,6405,56305
37381,6538,56651
37660,6692,57061
37974,6864,57528
38318,7049,58045
38679,7243,58599
39048,7443,59175
39414,7644,59756
39773,7843,60329
40120,8037,60884
40446,8220,61413
40744,8390,61905
41009,8544,62352
41241,8681,62750
41442,8801,63098
41616,8905,63394
41762,8995,63639
41879,9067,63836
41971,9123,63990
42043,9167,64110
42097,9200,64202
42140,9225,64272
42176,9248,64327
42204,9267,64373
42226,9282,64412
42244,9292,64442
42261,9298,64466
42279,9305,64491
42295,9312,64517
42306,9317,64540
42312,9319,64562
42314,9321,64585
42313,9321,64602
42309,9319,64615
42307,9317,64625
42307,9317,64628
42303,9317,64621
42288,9311,64602
42258,9296,64569
42216,9274,64524
42165,9245,64465
42105,9207,64392
42038,9166,64302
41966,9122,64195
41887,9074,64069
41803,9023,63936
41718,8969,63803
41636,8916,63671
41560,8868,63547
41486,8826,63436
41418,8790,63345
41360,8760,63271
41311,8737,63213
41272,8719,63170
41243,8707,63138
41225,8701,63114
41213,8697,63095
41202,8695,63080
41187,8691,63061
41168,8684,63035
41146,8674,63006
41121,8660,62975
41091,8644,62939
41058,8626,62900
41023,8607,62859
40984,8585,62810
40941,8560,62752
40891,8530,62685
40835,8498,62613
40779,8464,62533
40720,8429,62443
40658,8392,62345
40591,8353,62241
40520,8312,62129
40445,8272,62014
40368,8234,61900
40290,8195,61783
40209,8154,61663
40129,8113,61543
40050,8072,61421
39968,8028,61295
39883,7981,61165
39797,7933,61031
39710,7883,60896
39619,7829,60761
39527,7776,60626
39440,7728,60492
39357,7682,60364
39273,7635,60239
39189,7588,60114
39109,7545,59993
39032,7504,59878
38960,7465,59765
38890,7427,59651
38822,7391,59540
38754,7357,59434
38689,7322,59333
38632,7289,59238
38580,7259,59150
38531,7230,59066
38481,7203,58982
38430,7179,58900
38381,7157,58820
38333,7134,58747
38286,7111,58677
38242,7089,58607
38200,7070,58538
38160,7049,58471
38119,7025,58400
38077,7000,58325
38030,6975,58248
37981,6949,58169
37930,6922,58083
37878,6895,57996
37825,6870,57912
37770,6842,57829
37714,6812,57745
37654,6781,57658
37588,6749,57568
37517,6716,57477
37447,6683,57386
37378,6650,57291
37311,6615,57191
37243,6580,57086
37174,6545,56977
37103,6510,56869
37029,6469,56758
36952,6423,56643
36876,6375,56522
36803,6327,56400
36732,6283,56283
36663,6242,56174
36594,6204,56070
36526,6168,55971
36460,6134,55871
36396,6102,55773
36339,6074,55680
36290,6049,55592
36245,6027,55507
36205,6008,55428
36170,5994,55360
36145,5988,55315
36138,5991,55298
36154,6005,55319
36203,6036,55392
36290,6087,55528
36417,6157,55729
36589,6246,55996
36810,6359,56331
37074,6494,56732
37375,6650,57194
37709,6826,57708
38069,7019,58260
38441,7220,58831
38812,7421,59407
39170,7617,59977
39508,7804,60525
39820,7977,61036
40098,8133,61501
40341,8270,61915
40552,8391,62275
40730,8496,62582
40876,8581,62838
40991,8646,63045
41081,8697,63207
41148,8735,63328
41193,8757,63412
41213,8768,63464
41215,8773,63491
41209,8774,63501
41199,8771,63501
41185,8767,63495
41168,8762,63484
41146,8754,63470
41117,8741,63453
41084,8727,63434
41052,8715,63414
41021,8704,63397
40990,8691,63380
40959,8677,63362
40929,8663,63342
40902,8650,63321
40876,8637,63300
40851,8627,63276
40827,8619,63242
40797,8605,63195
40756,8584,63130
40702,8554,63046
40636,8518,62942
40554,8473,62823
40459,8420,62688
40354,8363,62540
40246,8305,62385
40141,8249,62234
40047,8198,62096
39964,8152,61971
39894,8113,61865
39839,8082,61780
39801,8059,61717
39778,8047,61676
39766,8044,61658
39763,8048,61659
39768,8058,61673
39780,8072,61696
39795,8087,61727
39808,8099,61760
39815,8108,61784
39814,8113,61794
39803,8111,61790
39784,8101,61772
39759,8086,61743
39728,8068,61703
39687,8045,61650
39638,8016,61587
39581,7983,61515
39524,7948,61435
39464,7911,61348
39395,7871,61253
39320,7831,61148
39244,7789,61035
39167,7745,60917
39091,7700,60796
39013,7655,60673
38933,7612,60547
38854,7571,60422
38777,7530,60300
38698,7489,60178
38614,7447,60054
38525,7403,59931
38437,7358,59808
38349,7314,59683
38264,7273,59560
38180,7230,59437
38096,7184,59313
38016,7139,59190
37938,7096,59070
37860,7054,58949
37785,7013,58828
37715,6976,58709
37648,6943,58596
37585,6913,58489
37523,6883,58386
37463,6853,58288
37407,6825,58197
37351,6795,58114
37296,6767,58037
37243,6743,57965
37198,6722,57899
37156,6700,57836
37116,6678,57772
37080,6659,57709
37046,6640,57646
37012,6619,57583
36976,6598,57519
36937,6576,57453
36897,6555,57387
36854,6531,57322
36810,6505,57255
36765,6482,57189
36719,6458,57125
36669,6432,57059
36615,6404,56991
36557,6376,56917
36497,6348,56840
36439,6321,56761
36385,6296,56680
36331,6271,56599
36274,6245,56516
36215,6217,56433
36156,6188,56350
36101,6161,56267
36045,6132,56180
35988,6102,56089
35929,6071,55994
35868,6039,55898
35804,6007,55802
35740,5974,55702
35675,5942,55600
35607,5910,55500
35538,5878,55403
35474,5850,55309
35423,5826,55225
35384,5808,55160
35363,5798,55122
35366,5803,55121
35403,5825,55170
35481,5866,55278
35602,5929,55453
35769,6017,55701
35982,6133,56022
36237,6272,56410
36529,6432,56860
36849,6606,57361
37191,6792,57900
37547,6986,58465
37909,7185,59042
38269,7383,59616
38615,7575,60172
38940,7755,60698
39239,7919,61182
39505,8066,61616
39737,8194,61998
39933,8303,62326
40096,8396,62602
40228,8475,62828
40333,8544,63013
40417,8600,63160
40481,8641,63274
40529,8671,63358
40563,8693,63414
40583,8704,63450
40593,8707,63470
40598,8710,63481
40603,8714,63486
40607,8718,63488
40612,8722,63491
40615,8726,63494
40616,8730,63498
40615,8733,63501
40611,8735,63504
40607,8741,63506
40603,8746,63504
40596,8744,63498
40584,8737,63486
40566,8730,63467
40540,8719,63440
40505,8699,63395
40458,8670,63332
40398,8634,63252
40329,8592,63155
40253,8546,63044
40173,8501,62922
40092,8457,62796
40014,8416,62674
39939,8378,62558
39870,8346,62456
39813,8317,62373
39769,8293,62308
39739,8276,62261
39723,8266,62233
39722,8264,62223
39731,8268,62227
39744,8276,62242
39762,8289,62263
39784,8304,62283
39807,8317,62301
39827,8325,62316
39842,8331,62324
39850,8332,62324
39849,8327,62316
39837,8318,62299
39816,8306,62273
39787,8292,62237
39750,8272,62191
39708,8247,62133
39661,8219,62065
39609,8190,61989
39549,8160,61909
39483,8125,61824
39412,8088,61731
39339,8050,61633
39264,8012,61527
39186,7971,61413
39107,7929,61294
39029,7885,61169
38950,7841,61043
38869,7794,60914
38788,7749,60786
38708,7705,60659
38629,7661,60534
38550,7617,60410
38470,7575,60287
38388,7534,60166
38309,7496,60049
38231,7458,59932
38157,7423,59815
38091,7390,59706
38027,7357,59604
37965,7322,59509
37911,7289,59420
37862,7260,59334
37814,7232,59253
37766,7206,59174
37721,7182,59098
37675,7161,59025
37630,7142,58957
37588,7121,58887
37546,7099,58817
37504,7078,58748
37468,7058,58685
37437,7042,58627
37408,7027,58573
37379,7011,58522
37346,6993,58472
37311,6976,58423
37276,6962,58374
37242,6946,58325
37207,6930,58276
37173,6916,58225
37140,6902,58175
37108,6882,58121
37071,6858,58061
37028,6833,57994
36986,6809,57926
36946,6784,57855
36907,6759,57783
36866,6735,57707
36826,6711,57631
36786,6687,57559
36743,6661,57489
36696,6638,57416
36647,6617,57339
36596,6596,57261
36544,6574,57181
36494,6551,57099
36447,6529,57018
36402,6507,56941
36357,6488,56867
36312,6468,56796
36269,6448,56731
36231,6427,56675
36209,6414,56640
36211,6415,56637
36242,6431,56676
36305,6465,56768
36407,6520,56921
36557,6600,57140
36753,6705,57432
36992,6835,57797
37275,6990,58231
37597,7166,58725
37951,7360,59268
38323,7566,59846
38705,7781,60445
39090,7998,61050
39470,8210,61645
39836,8412,62217
40180,8603,62752
40492,8780,63244
40767,8939,63688
41005,9078,64078
41207,9198,64412
41375,9298,64692
41512,9380,64925
41621,9446,65117
41705,9499,65269
41765,9537,64072
41804,9563,59474
41828,9579,51753
41845,9589,42656
41856,9598,33412
41863,9606,24818
41870,9617,17331
41881,9629,11155
41894,9640,6322
41905,9648,2742
41919,9657,256
41934,9669,0
41950,9682,0
41966,9693,0
41982,9701,0
41997,9705,0
42006,9703,0
42007,9695,0
42001,9685,129
41982,9671,5152
41946,9647,13208
41893,9614,22554
41824,9574,31964
41743,9530,40648
41655,9479,48161
41561,9428,54313
41466,9379,59087
41374,9334,62588
41287,9291,64989
41208,9252,954
41143,9218,1754
41098,9192,2041
41067,9174,1979
41047,9163,1702
41036,9159,1312
41034,9160,883
41037,9164,465
41044,9167,83
41054,9170,65286
41063,9173,65012
41066,9175,64794
41061,9172,64627
41050,9166,64501
41033,9156,64406
41013,9141,64333
40987,9124,64278
40952,9106,64230
40910,9086,64181
40859,9060,64128
40804,9030,64070
40749,9000,64010
40693,8968,63941
40632,8934,63862
40565,8896,63777
40497,8855,63688
40429,8814,63599
40361,8774,63508
40294,8738,63412
40231,8704,63309
40170,8670,63200
40105,8635,63090
40036,8598,62976
39963,8559,62858
39891,8518,62738
39817,8476,62616
39741,8431,62491
39668,8388,62367
39596,8344,62245
39528,8303,62130
39466,8267,62024
39408,8235,61928
39352,8203,61837
39295,8168,61746
39235,8134,61655
39176,8101,61567
39118,8068,61485
39062,8038,61408
39011,8013,61337
38963,7991,61271
38918,7968,61208
38879,7945,61146
38846,7923,61083
38816,7904,61023
38783,7886,60967
38744,7868,60912
38704,7852,60857
38668,7835,60800
38630,7817,60739
38586,7797,60678
38540,7775,60616
38493,7752,60556
38446,7728,60496
38397,7702,60434
38349,7674,60367
38303,7646,60299
38259,7617,60232
38214,7591,60165
38168,7568,60095
38122,7546,60021
38079,7523,59946
38037,7501,59870
37992,7479,59793
37943,7454,59713
37891,7425,59627
37838,7396,59539
37783,7367,59452
37723,7338,59365
37662,7308,59278
37603,7279,59193
37547,7253,59112
37493,7227,59031
37437,7199,58947
37379,7169,58860
37326,7139,58778
37279,7108,58703
37237,7081,58640
37211,7063,58598
37206,7057,58584
37229,7065,58609
37290,7092,58687
37394,7145,58830
37545,7226,59045
37744,7334,59336
37993,7472,59704
38288,7637,60146
38626,7827,60657
39000,8040,61225
39401,8269,61833
39815,8505,62461
40233,8743,61776
40639,8978,57711
41023,9203,50523
41380,9415,41943
41711,9611,33185
42007,9789,25036
42265,9945,17942
42483,10078,12108
42662,10189,7566
42808,10281,4223
42927,10356,1922
43025,10418,483
43105,10467,0
43168,10505,0
43217,10535,0
43254,10559,0
43281,10579,224
43304,10593,682
43324,10605,1139
43341,10615,1562
43358,10624,1929
43373,10634,2234
43387,10645,2479
43402,10656,2669
43413,10665,2806
43421,10673,2899
43429,10681,2960
43437,10689,2996
43441,10695,3013
43441,10698,3013
43437,10697,2996
43424,10687,2961
43399,10669,2911
43361,10643,2846
43311,10612,2762
43249,10574,2658
43175,10530,2540
43098,10479,2410
43019,10426,2272
42938,10376,2132
42857,10330,1997
42779,10287,1876
42707,10249,1777
42647,10217,1701
42601,10194,1645
42571,10181,1606
42556,10177,1579
42549,10174,1558
42545,10169,1545
42548,10164,1538
42554,10161,1537
42556,10158,1543
42551,10155,1551
42544,10154,1556
42535,10155,1554
42521,10153,1544
42501,10143,1525
42473,10129,1495
42440,10112,1453
42400,10091,1402
42355,10068,1345
42308,10044,1279
42258,10016,1201
42201,9983,1114
42138,9946,1020
42073,9909,922
42005,9871,818
41937,9830,710
41872,9787,600
41807,9743,1804
41740,9701,6375
41667,9660,14045
41589,9617,23081
41509,9573,32255
41427,9526,40772
41342,9477,48173
41257,9425,54250
41173,9375,58983
41093,9327,62468
41018,9280,64863
40948,9236,822
40881,9195,1614
40811,9156,1885
40740,9116,1791
40672,9077,1462
40612,9040,1003
40555,9006,490
40499,8974,65513
40441,8942,65034
40382,8911,64611
40324,8880,64256
40270,8851,63966
40219,8822,63733
40171,8797,63553
40126,8773,63418
40083,8751,63317
40039,8728,63235
39997,8705,63167
39958,8682,63109
39921,8659,63057
39888,8638,63005
39861,8621,62955
39831,8604,62909
39797,8585,62865
39762,8564,62822
39726,8540,62777
39684,8510,62727
39636,8478,62668
39582,8445,62597
39527,8414,62514
39469,8382,62424
39409,8348,62334
39350,8315,62245
39293,8283,62151
39234,8248,62054
39175,8212,61954
39114,8178,61855
39053,8146,61755
38991,8115,61656
38927,8084,61558
38859,8050,61458
38785,8014,61357
38706,7974,61255
38632,7935,61156
38566,7899,61060
38506,7866,60964
38449,7834,60871
38395,7804,60785
38349,7779,60712
38319,7761,60659
38308,7754,60634
38328,7763,60650
38385,7793,60720
38483,7852,60856
38627,7939,61065
38818,8052,61349
39055,8187,61707
39336,8344,62132
39660,8522,62615
40019,8720,61828
40401,8934,57709
40792,9158,50516
41181,9387,41972
41561,9616,33283
41928,9837,25230
42271,10042,18254
42581,10226,12550
42854,10389,8135
43088,10529,4917
43285,10647,2735
43450,10746,1401
43581,10828,721
43680,10892,520
43748,10939,645
43796,10975,971
43833,11004,1403
43861,11028,1873
43878,11044,2332
43888,11056,2747
43898,11068,3104
43909,11079,3400
43922,11088,3635
43936,11099,3808
43947,11109,3927
43955,11118,4002
43958,11122,4045
43961,11126,4063
43967,11130,4064
43971,11132,4053
43966,11127,4034
43953,11114,4006
43935,11098,3973
43911,11080,3935
43879,11059,3887
43836,11032,3819
43780,11000,3727
43709,10961,3617
43627,10916,3493
43537,10868,3358
43442,10817,3214
43345,10762,3068
43250,10705,2924
43159,10650,2786
43079,10601,2659
43009,10557,2547
42948,10517,2452
42896,10487,2376
42858,10468,2322
42832,10458,2288
42819,10454,2270
42814,10456,2264
42813,10459,2265
42813,10459,2271
42811,10457,2277
42809,10457,2280
42805,10458,2275
42794,10454,2255
42774,10444,2225
42748,10427,2186
42713,10404,2135
42667,10375,2071
42616,10345,1997
42563,10314,1916
42506,10278,1830
42444,10238,1738
42378,10197,1636
42310,10156,1526
42241,10114,1413
42173,10072,1300
42104,10029,1185
42033,9982,1068
41957,9933,948
41875,9881,829
41790,9830,709
41705,9783,584
41618,9738,1774
41530,9694,6331
41441,9649,13989
41353,9605,23011
41268,9561,32172
41184,9515,40676
41102,9469,48068
41026,9423,54145
40951,9377,58882
40879,9333,62368
40811,9292,64764
40748,9253,726
40687,9216,1522
40623,9178,1796
40560,9143,1706
40501,9109,1386
40440,9074,939
40377,9039,438
40318,9007,65470
40262,8977,64998
40206,8945,64577
40148,8913,64214
40091,8881,63912
40037,8851,63667
39986,8821,63472
39938,8794,63318
39893,8771,63197
39849,8747,63099
39802,8719,63016
39756,8690,62945
39716,8662,62885
39679,8635,62830
39639,8607,62772
39597,8576,62710
39554,8547,62644
39508,8516,62573
39453,8483,62499
39394,8447,62423
39334,8412,62342
39272,8378,62256
39205,8346,62168
39134,8313,62073
39061,8279,61972
38987,8245,61871
38916,8212,61775
38846,8178,61679
38778,8145,61584
38713,8112,61491
38648,8077,61399
38588,8046,61308
38535,8020,61224
38491,7998,61151
38458,7981,61096
38444,7972,61066
38460,7977,61072
38510,8000,61128
38602,8046,61239
38737,8118,61410
38916,8218,61652
39136,8345,61973
39398,8497,62368
39697,8671,62825
40026,8865,62012
40376,9071,57863
40744,9283,50637
41116,9499,42063
41477,9713,33349
41823,9917,25273
42153,10112,18280
42460,10296,12567
42736,10464,8154
42979,10611,4944
43190,10740,2775
43368,10852,1459
43515,10946,800
43634,11022,620
43727,11080,763
43796,11124,1101
43839,11155,1539
43864,11175,2009
43874,11188,2459
43874,11194,2859
43866,11194,3200
43851,11189,3473
43833,11183,3679
43816,11177,3825
43799,11170,3919
43782,11160,3968
43763,11148,3983
43743,11136,3975
43724,11125,3953
43708,11117,3925
43693,11111,3895
43677,11103,3859
43655,11091,3814
43621,11072,3756
43576,11045,3679
43519,11011,3587
43447,10969,3480
43364,10921,3360
43278,10869,3228
43192,10814,3085
43105,10758,2936
43022,10705,2792
42948,10661,2658
42880,10622,2538
42820,10587,2437
42767,10557,2359
42724,10537,2304
42695,10524,2270
42679,10517,2252
42677,10517,2248
42688,10521,2252
42708,10530,2267
42727,10541,2287
42741,10551,2307
42748,10557,2322
42749,10560,2333
42743,10556,2334
42731,10548,2326
42715,10537,2311
42694,10524,2286
42668,10506,2250
42637,10486,2205
42600,10465,2154
42553,10441,2099
42502,10415,2037
42453,10387,1964
42405,10358,1881
42352,10325,1788
42290,10286,1685
42221,10244,1574
42146,10203,1454
42067,10160,1328
41984,10113,1199
41900,10062,1068
41817,10011,941
41737,9962,819
41663,9917,700
41597,9874,583
41528,9832,1784
41452,9788,6355
41376,9745,14025
41304,9707,23062
41236,9671,32242
41175,9633,40765
41119,9597,48180
41066,9566,54285
41016,9538,59053
40970,9510,62575
40928,9483,65008
40890,9458,1002
40854,9435,1825
40814,9413,2123
40774,9393,2053
40732,9374,1749
40689,9354,1315
40645,9332,829
40604,9311,348
40568,9293,65441
40532,9276,65053
40495,9259,64725
40458,9241,64456
40419,9219,64240
40378,9193,64070
40334,9163,63937
40286,9133,63831
40239,9104,63745
40194,9075,63673
40151,9046,63614
40108,9018,63559
40062,8992,63505
40012,8963,63448
39959,8933,63385
39909,8904,63316
39859,8875,63243
39804,8845,63168
39746,8815,63093
39687,8785,63015
39627,8754,62933
39568,8721,62846
39513,8689,62755
39461,8658,62660
39409,8626,62565
39357,8592,62472
39306,8561,62390
39264,8535,62323
39234,8516,62276
39223,8507,62257
39241,8517,62281
39293,8550,62361
39382,8607,62505
39518,8689,62715
39705,8796,62992
39940,8927,62022
40220,9087,57752
40539,9273,50443
40887,9480,41823
41256,9701,33100
41635,9926,25053
42013,10151,18123
42384,10369,12502
42737,10577,8198
43063,10774,5112
43358,10955,3078
43620,11121,1900
43847,11268,1379
44039,11392,1328
44195,11492,1588
44318,11571,2031
44411,11631,2555
44476,11674,3095
44522,11702,3604
44552,11719,4048
44570,11728,4414
44578,11730,4700
44578,11728,4912
44571,11723,5061
44560,11716,5158
44547,11706,5215
44536,11695,5244
44530,11687,5257
44528,11683,5258
44526,11679,5247
44525,11674,5227
44526,11672,5205
44525,11670,5179
44522,11667,5150
44513,11660,5118
44496,11649,5079
44465,11632,5033
44421,11606,4974
44367,11573,4896
44300,11532,4797
44219,11483,4678
44126,11428,4547
44029,11369,4407
43930,11310,4264
43834,11252,4125
43745,11197,3996
43666,11148,3880
43600,11107,3782
43546,11076,3706
43504,11055,3656
43476,11040,3626
43463,11032,3612
43464,11030,3614
43476,11033,3630
43494,11039,3651
43515,11047,3673
43533,11059,3694
43548,11070,3708
43557,11076,3710
43560,11077,3703
43553,11073,3689
43537,11064,3667
43515,11052,3635
43488,11034,3593
43452,11009,3536
43407,10979,3464
43351,10943,3380
43286,10902,3289
43212,10856,3193
43130,10807,3090
43045,10759,2980
42961,10712,2871
42880,10667,2763
42803,10623,2652
42730,10580,2540
42658,10538,2427
42585,10494,2314
42512,10451,2201
42437,10409,2084
42359,10367,1967
42276,10321,1849
42190,10272,1728
42103,10222,1609
42017,10172,1495
41933,10123,1381
41854,10078,1270
41784,10041,1165
41725,10009,1066
41670,9977,969
41616,9944,873
41563,9910,776
41511,9874,679
41461,9839,583
41415,9805,492
41374,9773,408
41334,9743,335
41288,9714,1587
41240,9689,6212
41196,9664,13941
41157,9640,23035
41118,9615,32265
41080,9593,40837
41038,9572,48297
40997,9551,54444
40956,9533,59247
40916,9515,62793
40877,9496,65245
40838,9474,1257
40797,9451,2095
40755,9429,2407
40713,9404,2351
40668,9374,2055
40620,9345,1621
40570,9319,1127
40522,9291,625
40477,9256,150
40435,9221,65258
40392,9191,64889
40344,9163,64583
40291,9133,64337
40234,9103,64144
40174,9072,63996
40111,9039,63881
40050,9004,63790
39994,8970,63716
39945,8939,63653
39901,8909,63595
39860,8881,63541
39820,8858,63493
39787,8842,63454
39771,8835,63435
39775,8839,63448
39804,8859,63505
39872,8902,63621
39984,8971,63800
40141,9069,62730
40353,9196,58360
40620,9353,50964
40932,9536,42276
41280,9739,33512
41659,9961,25457
42062,10200,18553
42475,10446,12984
42886,10689,8757
43287,10926,5763
43666,11153,3828
44009,11361,2750
44310,11547,2330
44569,11712,2379
44789,11853,2737
44971,11971,3272
45117,12068,3882
45231,12146,4497
45315,12205,5072
45374,12248,5579
45416,12278,6006
45447,12301,6345
45469,12315,6598
45481,12321,6776
45485,12323,6893
45485,12324,6963
45480,12322,7003
45475,12320,7024
45473,12319,7030
45472,12320,7026
45472,12321,7017
45475,12324,7010
45480,12328,7007
45485,12331,7004
45489,12330,7003
45491,12326,7001
45490,12319,6992
45482,12309,6974
45463,12291,6943
45431,12266,6895
45386,12236,6828
45327,12201,6742
45254,12157,6637
45168,12106,6513
45075,12050,6375
44980,11992,6227
44886,11932,6079
44792,11872,5936
44700,11815,5806
44616,11764,5696
44545,11723,5608
44493,11694,5538
44458,11679,5488
44439,11672,5455
44432,11670,5437
44433,11670,5429
44440,11673,5429
44450,11677,5435
44460,11680,5438
44466,11680,5435
44463,11676,5425
44451,11667,5409
44430,11653,5389
44401,11636,5358
44365,11617,5314
44325,11593,5259
44277,11563,5191
44222,11528,5113
44165,11494,5030
44106,11460,4942
44046,11423,4847
43984,11385,4746
43923,11348,4641
43858,11308,4535
43789,11268,4429
43719,11226,4318
43646,11182,4198
43565,11133,4074
43480,11081,3949
43393,11030,3825
43305,10980,3699
43217,10928,3572
43132,10877,3445
43050,10829,3317
42972,10780,3189
42893,10730,3063
42809,10680,2939
42726,10631,2817
42650,10587,2697
42578,10545,2579
42507,10506,2468
42444,10471,2363
42387,10439,2265
42332,10404,2173
42276,10367,2088
42220,10332,2008
42165,10301,1935
42112,10270,1866
42063,10240,1798
42016,10213,1731
41971,10189,1669
41931,10164,1610
41894,10139,1551
41858,10115,1492
41823,10094,1433
41787,10075,1373
41749,10055,1313
41710,10035,1248
41669,10011,1179
41625,9982,1109
41579,9952,1038
41531,9922,965
41481,9893,890
41435,9867,817
41390,9841,740
41344,9813,658
41300,9783,574
41255,9750,487
41208,9717,400
41160,9687,1630
41108,9657,6229
41051,9625,13929
40994,9593,22998
40934,9561,32207
40869,9526,40755
40801,9489,48185
40735,9453,54297
40671,9419,59064
40611,9388,62577
40553,9358,64995
40495,9330,976
40438,9302,1789
40382,9272,2078
40332,9243,2007
40298,9221,1720
40282,9212,1323
40288,9213,899
40325,9231,516
40398,9272,64440
40515,9339,59580
40679,9431,51757
40894,9555,42712
41162,9712,33661
41476,9897,25391
41830,10107,18339
42215,10338,12684
42622,10583,8430
43039,10836,5464
43453,11088,3601
43855,11333,2633
44238,11565,2349
44591,11780,2548
44903,11971,3057
45175,12139,3739
45410,12285,4489
45602,12408,5232
45753,12508,5916
45873,12590,6511
45967,12653,7000
46033,12698,7385
46075,12731,7675
46100,12755,7884
46115,12774,8028
46121,12784,8125
46120,12787,8183
46114,12785,8209
46104,12781,8214
46095,12776,8207
46090,12772,8195
46088,12770,8182
46085,12769,8171
46084,12767,8162
46088,12770,8157
46096,12775,8157
46109,12780,8160
46124,12784,8162
46135,12787,8160
46139,12788,8152
46132,12785,8139
46112,12773,8115
46079,12752,8071
46033,12725,8002
45972,12688,7905
45893,12640,7784
45801,12586,7650
45704,12529,7517
45610,12473,7389
45522,12418,7267
45442,12368,7151
45373,12327,7049
45315,12290,6963
45269,12259,6895
45237,12234,6843
45217,12216,6803
45204,12202,6777
45195,12191,6760
45192,12188,6749
45194,12192,6747
45197,12198,6750
45197,12200,6751
45195,12200,6746
45186,12196,6734
45169,12185,6713
45146,12170,6679
45122,12154,6633
45099,12137,6581
45073,12116,6523
45038,12091,6452
44995,12061,6370
44948,12027,6278
44896,11990,6183
44835,11951,6085
44765,11911,5983
44691,11870,5876
44615,11823,5764
44536,11776,5649
44454,11731,5532
44369,11684,5414
44282,11637,5293
44196,11590,5168
44115,11547,5046
44036,11505,4925
43956,11458,4799
43875,11408,4669
43794,11355,4538
43714,11301,4408
43634,11246,4277
43553,11194,4149
43474,11146,4027
43399,11101,3909
43325,11056,3796
43251,11015,3686
43176,10975,3577
43104,10936,3471
43034,10896,3367
42967,10856,3267
42905,10820,3176
42843,10785,3091
42780,10746,3006
42718,10708,2919
42661,10673,2831
42604,10638,2744
42548,10601,2660
42497,10570,2582
42450,10543,2509
42408,10516,2437
42367,10492,2362
42328,10468,2287
42287,10445,2214
42243,10419,2145
42196,10389,2077
42146,10356,2010
42095,10324,1941
42044,10293,1869
41992,10262,1791
41942,10232,1710
41896,10201,1624
41847,10169,1535
41795,10134,1443
41739,10100,1348
41681,10067,1252
41623,10033,1160
41561,9999,1070
41495,9966,979
41427,9933,886
41359,9898,788
41288,9861,683
41213,9824,574
41136,9787,466
41061,9750,1681
40993,9714,6270
40932,9679,13959
40875,9642,23010
40822,9605,32207
40773,9573,40758
40733,9549,48208
40708,9538,53047
40707,9541,53212
40739,9562,49072
40808,9601,42534
40918,9663,35019
41072,9752,27523
41278,9872,20690
41536,10024,14886
41842,10205,10260
42188,10408,6809
42564,10630,4437
42961,10866,2998
43369,11108,2321
43776,11353,2228
44172,11594,2549
44545,11823,3138
44882,12033,3873
45180,12219,4658
45439,12386,5428
45658,12532,6136
45835,12655,6754
45977,12753,7271
46090,12831,7684
46176,12889,8001
46239,12929,8234
46282,12954,8397
46309,12970,8503
46321,12979,8566
46321,12983,8597
46314,12983,8600
46304,12982,8590
46293,12981,8579
46282,12980,8567
46272,12978,8550
46263,12976,8533
46254,12977,8519
46246,12977,8508
46241,12976,8500
46237,12974,8492
46233,12969,8485
46226,12959,8478
46216,12947,8464
46201,12934,8442
46174,12917,8408
46129,12893,8355
46069,12859,8281
45999,12818,8189
45922,12770,8078
45838,12715,7951
45749,12656,7813
45659,12598,7674
45572,12542,7538
45493,12490,7409
45424,12444,7289
45366,12403,7179
45312,12367,7085
45265,12336,7008
45230,12317,6950
45208,12304,6909
45194,12294,6884
45187,12289,6873
45187,12293,6874
45190,12300,6878
45191,12304,6877
45188,12305,6869
45182,12303,6858
45171,12296,6845
45155,12285,6822
45133,12268,6786
45107,12248,6739
45077,12225,6683
45036,12196,6614
44984,12162,6532
44927,12127,6442
44866,12089,6345
44800,12049,6243
44729,12008,6139
44652,11964,6035
44570,11919,5928
44485,11870,5814
44398,11820,5689
44308,11769,5553
44215,11716,5413
44120,11661,5275
44026,11604,5135
43937,11547,4994
43849,11488,4852
43761,11431,4710
43675,11379,4570
43590,11325,4433
43504,11267,4296
43419,11209,4160
43335,11155,4031
43251,11102,3907
43164,11050,3785
43076,11001,3667
42993,10956,3550
42916,10912,3432
42839,10868,3315
42762,10824,3199
42690,10782,3086
42622,10738,2979
42554,10693,2880
42492,10651,2791
42439,10617,2710
42390,10589,2629
42342,10562,2548
42297,10537,2467
42256,10516,2390
42215,10494,2317
42171,10465,2245
42123,10431,2171
42075,10396,2097
42028,10363,2022
41980,10332,1942
41930,10301,1857
41876,10272,1771
41822,10239,1684
41766,10203,1595
41710,10166,1506
41653,10132,1416
41591,10096,1325
41524,10060,1233
41456,10028,1141
41387,9996,1048
41318,9960,952
41247,9920,853
41172,9878,750
41097,9839,644
41020,9801,1851
40943,9762,5111
40866,9722,9421
40790,9680,15365
40717,9636,23185
40646,9594,31569
40573,9553,39633
40499,9511,46831
40420,9468,52889
40338,9427,57727
40263,9389,61390
40201,9354,64003
40154,9327,202
40134,9315,1253
40147,9322,485
40197,9351,61545
40287,9405,53768
40424,9486,44536
40608,9598,35157
40840,9736,26486
41116,9899,19015
41433,10083,12967
41787,10291,8371
42169,10515,5123
42563,10749,3041
42954,10985,1910
43330,11217,1517
43687,11438,1658
44017,11640,2154
44315,11823,2857
44581,11986,3650
44810,12129,4450
44998,12248,5196
45145,12345,5848
45257,12419,6389
45337,12470,6817
45386,12502,7136
45411,12520,7357
45416,12527,7496
45404,12524,7568
45379,12512,7584
45345,12493,7559
45308,12473,7508
45268,12452,7445
45230,12429,7372
45196,12406,7298
45164,12382,7228
45136,12361,7168
45111,12345,7116
45090,12333,7070
45067,12323,7030
45043,12314,6992
45017,12303,6951
44987,12290,6903
44951,12270,6850
44901,12242,6783
44837,12205,6697
44763,12161,6595
44675,12111,6481
44575,12053,6353
44468,11990,6210
44359,11925,6052
44252,11860,5891
44154,11799,5738
44065,11744,5597
43986,11695,5472
43920,11652,5366
43865,11616,5279
43818,11589,5211
43780,11571,5162
43755,11557,5129
43738,11546,5108
43728,11542,5102
43725,11541,5110
43728,11543,5126
43735,11544,5144
43741,11544,5156
43739,11542,5158
43727,11534,5150
43704,11521,5123
43673,11505,5079
43635,11486,5025
43593,11465,4964
43545,11441,4893
43492,11413,4812
43436,11382,4724
43374,11346,4631
43309,11306,4530
43243,11265,4422
43175,11221,4309
43102,11174,4192
43026,11128,4071
42950,11082,3948
42868,11033,3822
42775,10978,3692
42674,10919,3558
42571,10859,3419
42468,10801,3277
42368,10743,3134
42270,10685,2990
42170,10625,2845
42069,10568,2704
41973,10514,2567
41882,10464,2431
41797,10416,2295
41717,10368,2159
41635,10319,2024
41554,10272,1894
41477,10228,1774
41401,10186,1660
41325,10148,1553
41248,10112,1453
41176,10078,1357
41111,10045,1264
41051,10010,1173
40992,9977,1084
40937,9945,992
40887,9914,896
40839,9881,800
40790,9849,711
40739,9817,631
40681,9780,552
40617,9741,1782
40555,9705,5062
40496,9672,9391
40436,9641,15357
40372,9609,23200
40306,9577,31608
40240,9544,39699
40175,9509,46930
40109,9474,53018
40044,9439,57878
39982,9404,61555
39918,9369,64166
39852,9334,337
39787,9301,1323
39724,9268,1764
39662,9232,1810
39597,9194,1587
39530,9154,1200
39463,9117,732
39394,9080,239
39322,9041,65293
39252,9001,64847
39182,8959,64456
39113,8916,64126
39050,8876,63859
38997,8844,63657
38964,8825,63523
38961,8822,63462
38993,8838,63479
39067,8879,63577
39187,8949,62440
39354,9048,58013
39570,9176,50559
39833,9330,41814
40135,9506,32995
40469,9702,24888
40826,9911,17936
41199,10130,12329
41575,10351,8072
41941,10572,5055
42289,10788,3108
42613,10991,2028
42909,11174,1612
43171,11334,1668
43399,11472,2033
43592,11591,2581
43752,11689,3207
43881,11770,3838
43984,11835,4425
44064,11885,4940
44120,11920,5366
44153,11942,5702
44167,11956,5950
44169,11962,6124
44161,11962,6236
44146,11957,6297
44127,11951,6320
44106,11945,6318
44087,11939,6299
44072,11934,6268
44062,11932,6234
44054,11930,6200
44045,11928,6166
44036,11925,6130
44023,11919,6089
44005,11905,6043
43977,11884,5993
43937,11859,5934
43885,11828,5855
43819,11786,5756
43738,11735,5638
43647,11680,5500
43545,11619,5351
43437,11556,5199
43329,11492,5047
43224,11431,4896
43124,11374,4751
43033,11321,4618
42955,11273,4503
42892,11234,4407
42844,11207,4333
42812,11190,4285
42798,11181,4257
42798,11181,4249
42808,11186,4256
42822,11193,4272
42839,11201,4297
42856,11213,4330
42877,11226,4363
42894,11236,4392
42905,11241,4412
42905,11242,4414
42894,11238,4398
42876,11229,4369
42851,11217,4331
42819,11201,4280
42779,11179,4215
42732,11147,4139
42676,11109,4055
42613,11069,3964
42546,11029,3869
42474,10987,3768
42396,10944,3663
42315,10899,3556
42233,10853,3443
42150,10807,3320
42065,10761,3190
41978,10714,3056
41889,10662,2916
41799,10606,2773
41707,10547,2630
41614,10487,2489
41521,10426,2350
41427,10367,2211
41336,10311,2074
41251,10257,1943
41175,10209,1819
41105,10165,1700
41041,10127,1584
40980,10095,1472
40920,10065,1364
40859,10035,1261
40804,10007,1165
40751,9978,1073
40699,9947,985
40649,9916,902
40601,9887,824
40553,9861,750
40503,9836,682
40453,9811,616
40407,9789,550
40362,9767,486
40318,9744,422
40272,9718,1668
40228,9691,4966
40189,9665,9316
40150,9640,15304
40108,9615,23170
40066,9591,31600
40025,9567,39708
39984,9541,46952
39947,9514,53056
39911,9488,57932
39870,9460,61622
39822,9430,64249
39772,9401,445
39722,9375,1454
39671,9349,1912
39616,9323,1974
39562,9300,1771
39511,9280,1409
39460,9258,970
39407,9232,507
39354,9201,58
39309,9170,65184
39270,9141,64834
39240,9118,64558
39224,9106,64365
39233,9111,64258
39272,9135,64233
39351,9181,62976
39478,9254,58436
39653,9354,50883
39872,9479,42051
40132,9628,33161
40431,9803,24999
40764,10000,18008
41124,10211,12380
41501,10432,8124
41888,10664,5136
42272,10900,3240
42643,11129,2227
43000,11347,1889
43333,11550,2034
43636,11734,2499
43902,11896,3151
44125,12032,3881
44310,12143,4608
44461,12234,5280
44584,12308,5867
44681,12370,6354
44754,12417,6738
44803,12449,7027
44830,12469,7232
44842,12480,7371
44844,12484,7458
44837,12482,7502
44826,12475,7514
44815,12468,7504
44801,12462,7482
44785,12455,7453
44767,12449,7423
44755,12445,7395
44750,12446,7369
44749,12447,7348
44746,12447,7328
44738,12445,7307
44725,12439,7283
44700,12425,7251
44663,12401,7206
44616,12371,7144
44562,12336,7064
44499,12293,6964
44424,12244,6849
44339,12194,6724
44248,12143,6591
44151,12087,6449
44054,12029,6308
43963,11975,6174
43883,11924,6052
43815,11876,5943
43759,11836,5851
43718,11808,5783
43692,11790,5736
43681,11781,5706
43683,11781,5692
43696,11789,5697
43712,11801,5716
43730,11812,5738
43743,11821,5759
43752,11828,5777
43759,11831,5789
43765,11832,5792
43769,11833,5787
43767,11830,5775
43756,11821,5756
43735,11807,5726
43706,11789,5683
43669,11767,5629
43627,11741,5563
43579,11712,5485
43526,11680,5397
43469,11647,5301
43405,11610,5201
43334,11571,5102
43263,11531,5002
43195,11490,4897
43124,11448,4788
43050,11403,4677
42974,11358,4564
42894,11313,4445
42811,11266,4322
42726,11217,4196
42642,11169,4068
42563,11121,3940
42488,11069,3814
42410,11014,3688
42333,10961,3563
42259,10910,3439
42186,10862,3317
42116,10818,3201
42052,10779,3094
41991,10743,2995
41932,10709,2902
41874,10677,2815
41821,10647,2733
41773,10618,2654
41725,10586,2572
41678,10554,2492
41633,10524,2415
41589,10496,2346
41542,10468,2284
41495,10444,2226
41448,10421,2168
41404,10398,2108
41365,10378,2047
41327,10359,1988
41289,10340,1928
41251,10319,1861
41214,10298,1789
41177,10276,1719
41140,10251,1652
41101,10222,1583
41061,10192,1511
41023,10165,1440
40986,10140,1374
40947,10115,1312
40906,10088,1246
40861,10061,1173
40814,10034,1098
40764,10008,1021
40709,9980,939
40648,9949,850
40583,9917,753
40512,9882,652
40442,9845,554
40377,9809,462
40316,9774,1685
40260,9738,4964
40211,9704,7986
40174,9677,9294
40157,9661,9405
40164,9660,8752
40203,9680,7684
40281,9725,6470
40405,9797,5300
40581,9899,4302
40810,10033,3546
41092,10201,3056
41420,10400,2829
41786,10623,2846
42182,10865,3075
42598,11120,3472
43023,11377,3993
43445,11631,4590
43857,11882,5227
44247,12122,5871
44607,12346,6493
44930,12551,7069
45214,12736,7583
45463,12900,8029
45677,13040,8404
45853,13154,8710
45989,13241,8952
46090,13306,9136
46163,13352,9267
46214,13383,9357
46248,13404,9417
46272,13421,9459
46291,13434,9491
46308,13448,9518
46327,13464,9541
46343,13478,9559
46358,13486,9578
46376,13495,9603
46400,13506,9634
46426,13519,9664
46449,13530,9691
46468,13538,9715
46485,13547,9736
46498,13556,9755
46507,13563,9771
46511,13569,9785
46508,13569,9788
46494,13560,9774
46468,13538,9739
46426,13508,9680
46369,13471,9601
46300,13427,9501
46219,13375,9382
46129,13317,9250
46038,13259,9116
45950,13202,8984
45865,13150,8860
45787,13105,8748
45722,13069,8652
45672,13040,8575
45636,13017,8517
45611,13002,8476
45598,12995,8453
45593,12995,8443
45593,12998,8442
45598,13005,8445
45609,13013,8450
45618,13018,8456
45624,13018,8456
45625,13013,8447
45624,13006,8429
45615,12994,8403
45595,12979,8366
45566,12961,8319
45533,12939,8264
45494,12912,8208
45449,12881,8146
45399,12847,8070
45343,12810,7982
45278,12768,7889
45206,12725,7793
45133,12683,7690
45062,12644,7582
44994,12606,7469
44930,12571,7351
44869,12535,7227
44805,12493,7098
44734,12445,6971
44657,12394,6847
44580,12342,6726
44504,12292,6605
44430,12244,6487
44360,12200,6373
44296,12159,6264
44235,12116,6162
44177,12074,6062
44120,12036,5963
44065,12002,5868
44010,11967,5777
43960,11932,5688
43917,11901,5602
43877,11874,5521
43836,11847,5445
43792,11815,5367
43745,11784,5291
43699,11757,5221
43652,11731,5153
43605,11703,5085
43556,11673,5017
43508,11644,4951
43459,11615,4885
43408,11588,4818
43357,11559,4748
43307,11530,4676
43256,11498,4599
43204,11461,4513
43155,11421,4420
43109,11384,4326
43061,11350,4238
43008,11319,4153
42955,11289,4072
42906,11261,3993
42856,11233,3915
42805,11204,3837
42755,11178,3757
42707,11154,3675
42659,11126,3587
42605,11095,3491
42546,11063,3396
42482,11028,3304
42416,10990,3215
42351,10951,3126
42286,10912,3037
42219,10873,2948
42156,10831,2856
42098,10789,2761
42044,10749,2664
41989,10711,2573
41939,10676,2493
41901,10650,2431
41882,10636,2392
41885,10637,2385
41915,10653,2419
41982,10691,2506
42092,10758,2660
42247,10853,2890
42450,10976,3197
42704,11132,3582
43008,11320,4041
43355,11537,4566
43732,11774,5145
44132,12028,5761
44546,12293,6394
44961,12558,7028
45363,12816,7647
45746,13063,8238
46101,13293,8787
46417,13498,9282
46688,13673,9712
46917,13820,10075
47107,13940,10377
47261,14033,10619
47379,14103,10807
47471,14159,10952
47543,14204,11068
47598,14239,11160
47638,14265,11228
47666,14285,11279
47691,14301,11320
47715,14313,11353
47738,14323,11382
47759,14334,11410
47777,14344,11436
47790,14353,11457
47801,14363,11476
47811,14375,11497
47819,14388,11523
47827,14400,11554
47835,14414,11588
47843,14428,11622
47850,14441,11651
47855,14451,11674
47854,14456,11686
47844,14457,11683
47824,14447,11658
47792,14424,11607
47746,14391,11531
47686,14346,11432
47608,14288,11312
47513,14220,11175
47409,14153,11031
47307,14087,10883
47212,14021,10736
47120,13956,10593
47031,13897,10460
46950,13847,10341
46882,13806,10244
46828,13771,10169
46788,13745,10111
46762,13729,10069
46748,13718,10039
46742,13710,10016
46740,13707,9998
46739,13709,9986
46739,13712,9979
46736,13712,9969
46728,13710,9950
46711,13701,9923
46683,13685,9885
46648,13666,9838
46613,13645,9784
46576,13617,9724
46536,13582,9655
46488,13543,9575
46432,13503,9485
46369,13461,9389
46302,13417,9289
46231,13373,9186
46154,13329,9081
46075,13282,8972
45996,13235,8862
45918,13188,8747
45839,13142,8625
45756,13092,8499
45671,13037,8370
45588,12980,8241
45507,12923,8111
45423,12866,7982
45338,12810,7856
45254,12758,7732
45174,12710,7611
45098,12664,7493
45020,12615,7374
44944,12567,7258
44874,12524,7147
44808,12485,7041
44744,12447,6939
44685,12412,6841
44628,12377,6745
44570,12341,6649
44512,12306,6557
44460,12273,6470
44413,12245,6389
44369,12220,6309
44323,12195,6226
44275,12166,6143
44226,12135,6063
44177,12103,5987
44126,12068,5914
44073,12034,5841
44018,12001,5770
43963,11969,5696
43908,11937,5617
43850,11905,5534
43787,11869,5450
43725,11833,5368
43670,11801,5288
43620,11773,5214
43568,11745,5140
43509,11713,5059
43446,11680,4969
43383,11648,4874
43320,11616,4779
43249,11581,4682
43174,11545,4583
43100,11508,4480
43029,11469,4371
42962,11425,4260
42894,11378,4150
42823,11331,4037
42751,11285,3923
42680,11241,3809
42611,11198,3697
42541,11149,3585
42466,11097,3472
42392,11047,3355
42323,10999,3238
42258,10952,3124
42201,10907,3022
42152,10869,2937
42116,10844,2879
42100,10835,2858
42111,10846,2885
42161,10880,2970
42261,10944,3122
42411,11040,3346
42612,11167,3646
42866,11326,4028
43172,11514,4487
43523,11729,5011
43906,11965,5588
44305,12214,6200
44709,12470,6830
45109,12724,7461
45494,12971,8073
45860,13206,8651
46197,13423,9180
46501,13618,9655
46766,13790,10073
46991,13938,10433
47180,14061,10733
47334,14159,10973
47455,14236,11162
47547,14295,11307
47615,14344,11416
47661,14379,11493
47685,14402,11544
47692,14414,11577
47693,14423,11598
47691,14428,11613
47687,14430,11620
47679,14429,11617
47670,14426,11612
47661,14421,11610
47653,14418,11612
47646,14418,11617
47644,14418,11623
47645,14418,11629
47651,14421,11634
47661,14426,11639
47670,14432,11642
47669,14432,11639
47657,14427,11623
47636,14416,11594
47604,14398,11547
47555,14370,11476
47489,14330,11380
47408,14279,11262
47312,14219,11129
47205,14152,10986
47094,14081,10837
46987,14015,10684
46886,13953,10533
46793,13896,10390
46708,13845,10258
46637,13805,10145
46581,13774,10057
46537,13749,9992
46504,13729,9944
46480,13714,9912
46462,13701,9893
46450,13691,9878
46441,13683,9861
46432,13676,9845
46420,13666,9830
46402,13655,9809
46380,13641,9779
46355,13625,9737
46325,13605,9681
46286,13581,9613
46237,13551,9533
46178,13516,9444
46109,13473,9348
46031,13425,9244
45951,13376,9135
45870,13324,9020
45787,13266,8899
45702,13205,8773
45619,13146,8643
45535,13090,8511
45447,13034,8381
45355,12977,8249
45263,12921,8114
45170,12863,7976
45073,12803,7833
44975,12743,7687
44877,12687,7545
44780,12634,7408
44682,12580,7275
44588,12524,7143
44498,12467,7008
44412,12411,6873
44326,12355,6739
44237,12301,6607
44150,12249,6479
44065,12198,6354
43983,12148,6236
43906,12104,6123
43837,12063,6013
43774,12022,5904
43712,11980,5794
43650,11939,5686
43589,11902,5582
43528,11865,5481
43464,11827,5382
43395,11788,5284
43326,11750,5190
43259,11714,5102
43198,11680,5019
43140,11647,4938
43083,11613,4856
43027,11577,4777
42974,11540,4695
42923,11505,4611
42873,11472,4528
42822,11437,4444
42768,11402,4357
42712,11367,4267
42652,11333,4174
42590,11297,4079
42526,11261,3984
42462,11225,3886
42399,11188,3787
42334,11150,3685
42265,11111,3580
42193,11072,3472
42118,11031,3359
42036,10986,3239
41951,10940,3118
41869,10897,2999
41787,10853,2884
41699,10805,2769
41611,10757,2650
41527,10709,2528
41443,10658,2403
41354,10605,2278
41264,10553,2154
41179,10504,2033
41096,10461,1915
41015,10420,1798
40937,10382,1682
40863,10344,1569
40798,10306,1466
40743,10268,1376
40704,10238,1305
40685,10221,1263
40690,10219,1258
40724,10237,1303
40797,10281,1412
40915,10356,1591
41082,10460,1841
41305,10595,2168
41583,10764,2574
41910,10962,3055
42272,11183,3597
42658,11422,4189
43062,11675,4814
43475,11932,5453
43889,12188,6089
44288,12437,6708
44665,12675,7295
45010,12895,7840
45320,13092,8332
45592,13264,8765
45823,13411,9138
46014,13533,9450
46165,13630,9700
46280,13707,9896
46365,13768,10046
46427,13814,10158
46466,13844,10237
46487,13863,10284
46496,13871,10308
46496,13871,10316
46491,13867,10315
46484,13862,10308
46475,13858,10297
46463,13852,10287
46449,13846,10281
46436,13841,10277
46428,13840,10275
46423,13843,10275
46420,13843,10276
46421,13846,10281
46424,13852,10285
46422,13854,10282
46410,13848,10264
46387,13834,10229
46353,13812,10173
46307,13779,10099
46248,13734,10005
46175,13680,9890
46090,13619,9755
45993,13551,9607
45890,13478,9450
45787,13408,9293
45689,13343,9142
45598,13286,9006
45518,13239,8888
45451,13205,8791
45400,13182,8713
45364,13166,8655
45337,13157,8615
45319,13156,8590
45308,13159,8581
45302,13163,8585
45301,13165,8593
45305,13164,8598
45309,13161,8598
45308,13156,8591
45302,13152,8576
45292,13148,8554
45272,13138,8523
45241,13120,8480
45204,13098,8426
45161,13075,8362
45111,13047,8289
45055,13014,8208
44995,12977,8120
44931,12937,8029
44861,12890,7931
44786,12838,7825
44709,12787,7712
44633,12737,7593
44553,12685,7467
44468,12630,7334
44385,12577,7200
44306,12527,7068
44226,12478,6935
44141,12427,6802
44051,12376,6666
43960,12324,6529
43871,12273,6392
43788,12224,6257
43709,12178,6127
43632,12132,6002
43550,12086,5877
43465,12039,5754
43382,11997,5636
43304,11955,5527
43229,11912,5424
43161,11870,5328
43100,11832,5239
43043,11798,5154
42990,11768,5073
42945,11741,4993
42906,11718,4914
42867,11695,4836
42828,11672,4759
42789,11649,4684
42745,11624,4610
42697,11596,4539
42649,11566,4469
42604,11538,4398
42566,11514,4325
42530,11492,4251
42493,11469,4181
42455,11446,4114
42414,11420,4047
42370,11391,3980
42323,11360,3914
42275,11331,3847
42225,11303,3774
42175,11273,3697
42125,11241,3617
42076,11210,3534
42022,11180,3449
41962,11149,3365
41898,11116,3280
41833,11082,3188
41764,11046,3092
41694,11011,2995
41628,10976,2894
41567,10939,2789
41508,10902,2684
41450,10862,2581
41393,10823,2481
41337,10787,2379
41281,10753,2277
41224,10719,2179
41168,10685,2087
41120,10656,2007
41083,10634,1950
41066,10623,1922
41078,10628,1930
41126,10656,1990
41211,10709,2115
41337,10787,2306
41513,10896,2566
41745,11039,2902
42030,11214,3313
42357,11413,3791
42717,11634,4327
43106,11871,4905
43514,12116,5509
43933,12365,6125
44348,12616,6735
44744,12861,7327
45113,13093,7891
45450,13308,8418
45751,13502,8894
46011,13674,9313
46228,13822,9674
46408,13946,9977
46557,14049,10225
46677,14135,10425
46769,14202,10578
46834,14251,10688
46882,14283,10764
46917,14302,10812
46938,14312,10841
46951,14316,10856
46960,14323,10866
46967,14330,10876
46974,14336,10889
46977,14339,10900
46979,14343,10908
46980,14346,10913
46978,14347,10914
46975,14347,10911
46975,14348,10907
46976,14350,10903
46978,14351,10896
46976,14351,10885
46968,14346,10867
46947,14332,10834
46910,14308,10781
46858,14274,10707
46793,14231,10611
46715,14179,10497
46627,14117,10365
46532,14051,10219
46434,13986,10065
46336,13923,9913
46242,13862,9769
46159,13806,9642
46088,13759,9536
46031,13721,9453
45990,13692,9391
45961,13671,9346
45940,13660,9317
45928,13655,9301
45925,13656,9297
45931,13664,9306
45942,13674,9321
45956,13685,9337
45966,13692,9348
45971,13696,9351
45969,13695,9342
45957,13688,9321
45936,13674,9289
45909,13657,9248
45881,13639,9200
45852,13617,9146
45814,13590,9079
45771,13560,9002
45724,13527,8914
45671,13487,8817
45612,13443,8715
45550,13397,8611
45485,13349,8501
45412,13299,8385
45335,13249,8266
45253,13200,8144
45169,13150,8022
45084,13097,7898
45001,13046,7770
44918,12995,7638
44836,12944,7504
44755,12890,7368
44673,12836,7231
44592,12784,7093
44513,12733,6960
44438,12681,6832
44366,12629,6707
44292,12578,6588
44216,12528,6474
44141,12481,6364
44069,12438,6258
43999,12397,6155
43928,12357,6054
43858,12317,5953
43794,12282,5859
43736,12251,5773
43682,12221,5693
43629,12190,5617
43577,12161,5542
43529,12137,5469
43481,12113,5398
43435,12086,5328
43393,12059,5260
43354,12034,5196
43318,12007,5137
43285,11982,5078
43254,11960,5016
43220,11938,4950
43180,11914,4883
43134,11888,4815
43083,11859,4742
43031,11827,4664
42977,11794,4582
42923,11759,4499
42870,11725,4416
42818,11690,4331
42767,11655,4243
42714,11621,4151
42657,11588,4060
42598,11553,3970
42536,11515,3879
42472,11477,3789
42408,11441,3698
42346,11406,3604
42286,11371,3508
42230,11336,3411
42175,11300,3314
42118,11262,3217
42056,11223,3119
41991,11184,3021
41925,11146,2924
41865,11110,2831
41812,11077,2746
41769,11050,2673
41739,11031,2623
41731,11023,2606
41750,11035,2630
41807,11074,2711
41911,11145,2859
42066,11244,3080
42274,11372,3381
42537,11532,3763
42853,11725,4226
43213,11944,4758
43606,12185,5347
44028,12445,5980
44468,12718,6642
44915,12995,7314
45357,13272,7978
45783,13543,8621
46182,13797,9229
46541,14026,9784
46860,14229,10279
47136,14408,10710
47366,14560,11074
47551,14682,11375
47697,14780,11616
47813,14859,11805
47902,14920,11945
47967,14963,12043
48011,14991,12110
48036,15007,12154
48046,15015,12179
48049,15019,12194
48053,15025,12208
48059,15034,12220
48070,15044,12231
48084,15053,12243
48098,15060,12255
48109,15067,12270
48119,15076,12291
48132,15086,12318
48147,15095,12347
48162,15104,12374
48174,15109,12393
48178,15111,12402
48175,15112,12399
48165,15109,12383
48148,15102,12354
48120,15088,12309
48080,15067,12245
48026,15034,12159
47959,14988,12053
47880,14931,11926
47792,14869,11783
47698,14804,11633
47603,14737,11485
47512,14673,11348
47428,14616,11227
47354,14567,11121
47294,14526,11032
47246,14494,10962
47211,14471,10909
47187,14456,10868
47173,14446,10836
47167,14438,10814
47168,14433,10802
47166,14429,10797
47155,14422,10788
47137,14413,10772
47117,14405,10746
47098,14396,10713
47078,14384,10673
47057,14371,10629
47033,14359,10583
47006,14343,10530
46973,14319,10464
46934,14287,10388
46888,14253,10307
46833,14216,10217
46770,14171,10112
46698,14122,9994
46619,14071,9870
46532,14018,9744
46440,13961,9615
46351,13905,9483
46264,13851,9350
46176,13795,9213
46085,13735,9076
45995,13676,8941
45908,13618,8809
45824,13562,8679
45744,13508,8552
45667,13457,8428
45592,13405,8303
45517,13352,8179
45443,13299,8054
45368,13247,7929
45293,13196,7804
45220,13146,7678
45148,13099,7557
45078,13054,7441
45011,13011,7330
44949,12969,7227
44894,12931,7131
44843,12899,7046
44797,12872,6968
44756,12847,6896
44719,12823,6826
44680,12797,6758
44642,12773,6694
44605,12749,6636
44570,12729,6581
44537,12712,6527
44502,12694,6466
44462,12671,6394
44418,12642,6316
44373,12611,6237
44329,12580,6157
44282,12547,6076
44234,12515,5996
44184,12483,5919
44130,12451,5843
44072,12418,5767
44015,12383,5691
43959,12346,5614
43902,12307,5534
43845,12268,5449
43788,12234,5361
43727,12200,5270
43665,12161,5174
43603,12120,5077
43539,12077,4981
43473,12035,4881
43403,11991,4776
43333,11950,4670
43267,11912,4564
43204,11877,4459
43140,11840,4354
43073,11801,4248
43007,11762,4141
42944,11720,4036
42882,11677,3932
42820,11635,3829
42760,11596,3730
42704,11561,3637
42655,11530,3556
42620,11508,3496
42609,11502,3466
42623,11514,3480
42670,11547,3549
42759,11607,3682
42900,11698,3893
43096,11821,4187
43347,11976,4564
43649,12163,5016
44000,12381,5540
44393,12627,6126
44817,12893,6757
45261,13172,7416
45712,13457,8086
46157,13738,8754
46583,14011,9402
46981,14269,10015
47341,14505,10579
47660,14714,11087
47935,14897,11528
48166,15055,11895
48355,15186,12195
48507,15290,12434
48620,15368,12614
48701,15425,12744
48759,15465,12836
48797,15490,12899
48816,15502,12937
48825,15509,12960
48828,15512,12975
48828,15512,12988
48828,15512,13004
48831,15514,13021
48836,15519,13036
48845,15525,13054
48858,15533,13077
48873,15540,13100
48889,15548,13120
48909,15555,13138
48930,15563,13160
48952,15574,13188
48969,15586,13214
48975,15591,13231
48969,15589,13237
48951,15583,13228
48920,15571,13196
48876,15547,13139
48821,15513,13055
48752,15470,12949
48673,15419,12826
48586,15361,12692
48492,15299,12551
48398,15236,12403
48307,15174,12255
48225,15116,12116
48151,15064,11992
48084,15021,11885
48027,14988,11799
47983,14963,11734
47954,14947,11687
47938,14940,11653
47933,14935,11630
47934,14932,11614
47938,14927,11599
47943,14922,11587
47947,14916,11577
47946,14911,11565
47939,14903,11545
47927,14890,11513
47906,14871,11471
47872,14846,11417
47828,14815,11351
47775,14781,11274
47710,14741,11186
47636,14693,11088
47560,14646,10983
47488,14601,10876
47417,14557,10766
47343,14509,10649
47266,14459,10524
47184,14408,10396
47103,14358,10270
47021,14308,10143
46938,14253,10010
46853,14194,9874
46770,14135,9741
46688,14077,9609
46604,14019,9472
46519,13958,9334
46432,13899,9198
46343,13842,9064
46254,13789,8930
46164,13737,8795
46072,13683,8660
45983,13628,8525
45900,13575,8392
45821,13525,8262
45742,13477,8134
45663,13431,8013
45587,13386,7898
45513,13340,7788
45444,13295,7681
45383,13254,7579
45325,13218,7482
45268,13182,7389
45213,13146,7297
45159,13110,7205
45104,13075,7113
45045,13039,7021
44982,13003,6931
44920,12968,6846
44860,12935,6768
44803,12902,6691
44748,12868,6612
44696,12833,6530
44646,12798,6448
44591,12760,6363
44535,12720,6273
44479,12684,6179
44420,12649,6085
44358,12612,5989
44297,12572,5891
44240,12533,5795
44185,12493,5702
44127,12453,5610
44066,12413,5516
44002,12376,5417
43938,12342,5312
43869,12305,5203
43795,12265,5090
43717,12221,4971
43636,12173,4848
43552,12121,4726
43466,12069,4604
43380,12016,4483
43296,11964,4363
43214,11914,4244
43132,11866,4127
43053,11821,4011
42980,11780,3897
42909,11741,3787
42837,11701,3678
42766,11661,3572
42701,11624,3477
42651,11597,3404
42622,11583,3358
42616,11585,3348
42643,11605,3384
42711,11648,3476
42828,11717,3636
42996,11815,3872
43215,11942,4189
43485,12100,4583
43802,12290,5049
44162,12512,5586
44558,12757,6181
44978,13020,6815
45410,13293,7470
45844,13566,8129
46266,13835,8773
46668,14095,9385
47044,14342,9956
47385,14567,10477
47680,14764,10939
47930,14934,11335
48137,15075,11663
48301,15187,11923
48428,15274,12126
48523,15340,12279
48590,15389,12390
48631,15422,12461
48652,15439,12500
48658,15444,12517
48654,15443,12518
48642,15439,12514
48623,15432,12505
48603,15424,12495
48588,15419,12487
48576,15414,12482
48561,15408,12479
48545,15406,12477
48532,15405,12475
48520,15403,12472
48508,15399,12467
48502,15396,12462
48500,15396,12457
48494,15392,12447
48482,15384,12427
48463,15371,12393
48431,15349,12341
48379,15315,12270
48311,15269,12174
48227,15216,12051
48131,15157,11908
48026,15089,11749
47917,15015,11586
47807,14940,11423
47699,14866,11263
47595,14796,11111
47499,14734,10973
47416,14684,10853
47346,14645,10755
47291,14614,10678
47252,14593,10623
47228,14581,10585
47213,14577,10562
47205,14576,10547
47203,14578,10539
47202,14582,10535
47200,14582,10532
47193,14577,10527
47182,14569,10520
47166,14558,10501
47140,14541,10466
47103,14517,10416
47059,14493,10354
47011,14465,10281
46956,14431,10197
46891,14391,10107
46822,14347,10005
46750,14300,9891
46672,14250,9767
46590,14197,9640
46509,14143,9510
46427,14086,9373
46340,14029,9233
46248,13970,9091
46153,13911,8949
46055,13852,8808
45955,13790,8670
45858,13730,8533
45765,13674,8397
45673,13618,8260
45577,13559,8121
45477,13496,7980
45378,13432,7836
45282,13369,7693
45192,13307,7549
45106,13250,7406
45020,13198,7266
44938,13146,7131
44860,13093,7001
44785,13043,6874
44711,12997,6752
44639,12955,6641
44571,12916,6538
44504,12879,6439
44443,12846,6342
44388,12815,6249
44338,12784,6163
44289,12755,6083
44235,12725,6008
44179,12695,5935
44120,12661,5861
44058,12626,5782
43999,12590,5700
43946,12554,5615
43896,12518,5525
43846,12482,5432
43799,12444,5340
43749,12404,5251
43694,12363,5165
43633,12321,5076
43569,12280,4981
43503,12240,4882
43435,12202,4781
43367,12166,4679
43300,12131,4578
43231,12095,4480
43160,12057,4382
43089,12019,4280
43016,11980,4177
42946,11943,4076
42881,11907,3973
42816,11869,3868
42749,11828,3757
42681,11784,3641
42610,11739,3522
42534,11693,3399
42456,11645,3272
42378,11595,3145
42302,11548,3023
42229,11503,2911
42162,11462,2809
42102,11427,2722
42056,11402,2659
42031,11390,2629
42034,11395,2637
42074,11423,2693
42156,11479,2811
42285,11565,3000
42463,11678,3261
42690,11818,3595
42966,11987,4005
43287,12186,4488
43650,12410,5033
44047,12653,5628
44461,12909,6257
44880,13175,6901
45292,13440,7537
45684,13694,8148
46051,13934,8724
46388,14153,9252
46689,14348,9722
46948,14515,10131
47163,14656,10477
47333,14771,10762
47464,14860,10991
47557,14928,11168
47618,14979,11297
47657,15016,11388
47680,15039,11446
47688,15050,11474
47685,15055,11482
47679,15056,11478
47669,15051,11464
47656,15041,11442
47640,15030,11417
47626,15021,11394
47617,15014,11381
47613,15011,11377
47613,15012,11379
47617,15014,11382
47619,15017,11384
47620,15018,11383
47618,15016,11374
47606,15007,11349
47581,14988,11309
47540,14960,11255
47487,14925,11183
47421,14883,11090
47342,14831,10974
47250,14773,10839
47149,14711,10691
47041,14645,10537
46933,14576,10381
46833,14512,10229
46743,14455,10088
46665,14405,9964
46600,14364,9861
46554,14335,9782
46529,14318,9726
46518,14311,9691
46514,14312,9674
46516,14321,9676
46525,14335,9694
46536,14349,9720
46548,14360,9745
46560,14369,9769
46572,14376,9789
46584,14380,9800
46589,14380,9800
46585,14376,9789
46570,14368,9766
46544,14353,9733
46509,14330,9689
46466,14304,9634
46417,14275,9566
46361,14241,9485
46299,14203,9394
46236,14163,9290
46173,14120,9180
46109,14074,9067
46043,14028,8952
45977,13983,8836
45909,13935,8719
45839,13884,8600
45768,13834,8478
45696,13786,8354
45620,13738,8229
45540,13688,8104
45457,13636,7979
45371,13581,7854
45283,13525,7730
45195,13471,7607
45105,13420,7478
45018,13370,7346
44936,13321,7219
44859,13275,7098
44791,13233,6981
44732,13193,6869
44675,13154,6763
44618,13115,6665
44562,13080,6571
44506,13048,6481
44452,13015,6396
44401,12983,6315
44353,12952,6236
44309,12923,6159
44265,12893,6079
44220,12860,5997
44170,12826,5913
44120,12793,5831
44069,12761,5754
44018,12728,5681
43969,12698,5610
43924,12669,5540
43882,12641,5469
43839,12614,5399
43796,12589,5334
43756,12566,5271
43715,12542,5207
43673,12518,5143
43628,12497,5081
43583,12475,5019
43535,12450,4952
43486,12422,4877
43437,12394,4797
43390,12365,4713
43340,12335,4625
43286,12303,4533
43231,12268,4435
43176,12229,4336
43119,12189,4236
43061,12148,4135
42997,12105,4031
42930,12063,3928
42863,12020,3822
42799,11980,3714
42735,11941,3609
42670,11903,3509
42609,11868,3420
42565,11842,3352
42542,11826,3311
42541,11823,3306
42571,11839,3351
42642,11884,3457
42760,11960,3633
42928,12067,3887
43148,12206,4221
43422,12381,4630
43747,12586,5108
44116,12815,5647
44520,13063,6233
44946,13326,6853
45378,13598,7496
45805,13871,8147
46221,14138,8787
46616,14395,9396
46977,14632,9961
47298,14846,10474
47578,15037,10928
47820,15207,11321
48028,15351,11654
48202,15470,11931
48341,15565,12154
48445,15638,12323
48517,15689,12444
48561,15721,12530
48583,15741,12590
48591,15753,12627
48590,15756,12647
48583,15753,12654
48578,15752,12654
48576,15755,12651
48575,15756,12645
48576,15755,12639
48580,15755,12637
48586,15758,12641
48590,15762,12650
48596,15766,12665
48600,15773,12680
48602,15779,12692
48603,15779,12698
48601,15774,12695
48595,15766,12678
48580,15755,12643
48552,15737,12591
48504,15706,12519
48439,15663,12424
48362,15613,12312
48274,15560,12187
48180,15505,12055
48084,15445,11914
47989,15382,11772
47898,15322,11637
47814,15264,11516
47743,15215,11414
47687,15178,11333
47644,15150,11271
47613,15131,11225
47601,15119,11198
47604,15116,11189
47616,15122,11194
47632,15134,11208
47651,15149,11225
47671,15162,11246
47689,15170,11268
47701,15173,11284
47707,15174,11291
47705,15172,11285
47692,15163,11263
47672,15150,11227
47649,15133,11181
47621,15112,11130
47580,15083,11065
47525,15048,10983
47461,15010,10885
47393,14969,10778
47324,14926,10667
47252,14881,10549
47176,14835,10429
47099,14787,10308
47022,14737,10187
46942,14686,10065
46858,14634,9943
46769,14579,9817
46679,14522,9683
46589,14463,9543
46500,14403,9402
46407,14343,9262
46310,14283,9125
46212,14224,8992
46119,14167,8862
46033,14111,8734
45951,14057,8606
45874,14009,8479
45803,13964,8357
45733,13917,8240
45667,13869,8129
45606,13822,8022
45548,13774,7918
45489,13728,7817
45430,13684,7720
45371,13644,7630
45314,13606,7545
45258,13569,7464
45209,13536,7386
45167,13508,7313
45129,13483,7245
45093,13460,7181
45057,13437,7120
45019,13415,7059
44980,13392,6999
44942,13366,6936
44902,13340,6870
44861,13315,6805
44817,13286,6735
44771,13254,6657
44724,13223,6579
44678,13194,6502
44630,13162,6426
44578,13129,6350
44525,13096,6273
44469,13062,6194
44413,13029,6112
44358,12997,6026
44303,12965,5939
44249,12931,5846
44192,12891,5748
44129,12847,5645
44062,12803,5538
43991,12759,5430
43917,12713,5320
43843,12668,5211
43772,12626,5105
43703,12589,5003
43637,12551,4902
43573,12512,4803
43513,12475,4707
43457,12443,4616
43405,12411,4530
43356,12379,4449
43316,12354,4387
43297,12342,4354
43306,12346,4359
43354,12375,4416
43448,12433,4540
43590,12523,4741
43779,12643,5019
44018,12797,5375
44311,12986,5812
44655,13208,6328
45041,13459,6914
45465,13733,7552
45917,14023,8226
46378,14318,8918
46832,14612,9610
47271,14898,10282
47687,15170,10921
48074,15424,11520
48423,15657,12066
48730,15864,12545
48991,16039,12954
49207,16184,13294
49381,16300,13571
49520,16394,13792
49627,16470,13968
49707,16529,14105
49765,16574,14208
49806,16610,14280
49832,16637,14329
49847,16651,14361
49854,16655,14378
49862,16657,14386
49874,16662,14396
49888,16668,14410
49904,16677,14431
49921,16693,14458
49939,16710,14486
49958,16726,14510
49976,16738,14530
49996,16749,14548
50016,16759,14564
50026,16766,14577
50027,16766,14585
50020,16762,14582
50003,16750,14568
49972,16730,14541
49926,16703,14494
49865,16667,14421
49791,16619,14321
49707,16562,14200
49618,16500,14069
49529,16438,13935
49444,16378,13803
49361,16321,13673
49281,16269,13550
49212,16225,13440
49159,16190,13347
49123,16163,13269
49101,16144,13207
49089,16130,13162
49081,16120,13135
49076,16114,13122
49075,16113,13118
49078,16111,13122
49086,16110,13130
49095,16111,13136
49102,16113,13137
49105,16115,13135
49103,16115,13125
49096,16111,13101
49081,16102,13063
49060,16087,13018
49033,16066,12965
48994,16038,12902
48945,16005,12825
48891,15968,12737
48832,15926,12642
48765,15882,12540
48693,15839,12436
48619,15794,12330
48543,15743,12219
48464,15689,12097
48387,15633,11967
48311,15575,11837
48234,15515,11709
48156,15455,11580
48076,15396,11448
47994,15337,11315
47911,15279,11181
47832,15222,11046
47751,15167,10910
47667,15113,10776
47585,15058,10645
47508,15004,10517
47436,14952,10390
47369,14902,10270
47306,14854,10158
47244,14810,10052
47183,14771,9951
47124,14734,9854
47066,14695,9761
47007,14658,9674
46949,14626,9592
46892,14594,9514
46835,14562,9439
46782,14531,9365
46733,14502,9294
46685,14475,9226
46639,14447,9161
46595,14418,9100
46554,14388,9040
46514,14359,8978
46472,14328,8911
46428,14296,8839
46381,14262,8765
46334,14228,8689
46292,14197,8615
46254,14172,8546
46216,14149,8481
46173,14124,8416
46127,14096,8347
46077,14067,8275
46027,14036,8199
45984,14006,8123
45945,13979,8047
45906,13952,7969
45860,13922,7883
45809,13885,7786
45754,13845,7684
45694,13804,7583
45630,13762,7481
45564,13715,7374
45499,13669,7268
45434,13625,7162
45368,13581,7055
45298,13536,6947
45226,13491,6839
45153,13446,6733
45078,13398,6625
45004,13349,6514
44933,13304,6402
44861,13261,6293
44786,13219,6185
44711,13176,6075
44641,13137,5970
44579,13101,5875
44526,13069,5792
44489,13045,5729
44475,13034,5694
44486,13041,5700
44529,13064,5756
44611,13111,5870
44739,13191,6054
44922,13307,6319
45161,13463,6668
45455,13656,7098
45799,13883,7603
46189,14138,8181
46614,14414,8817
47063,14707,9493
47526,15007,10191
47991,15308,10892
48441,15600,11579
48867,15880,12233
49265,16144,12838
49627,16385,13391
49947,16601,13887
50226,16793,14321
50462,16959,14686
50655,17098,14983
50807,17207,15217
50924,17289,15398
51012,17348,15536
51073,17390,15636
51110,17420,15705
51133,17442,15750
51150,17458,15780
51162,17470,15803
51171,17481,15827
51182,17494,15854
51196,17506,15884
51210,17517,15915
51225,17531,15947
51246,17548,15981
51273,17569,16018
51303,17587,16060
51332,17602,16102
51361,17618,16144
51387,17637,16183
51407,17652,16217
51420,17661,16240
51428,17666,16247
51425,17664,16235
51406,17650,16204
51371,17625,16153
51321,17593,16079
51259,17555,15985
51185,17510,15876
51099,17458,15753
51006,17399,15617
50913,17335,15473
50823,17267,15328
50740,17204,15193
50670,17151,15073
50609,17108,14974
50560,17074,14901
50526,17049,14848
50509,17032,14810
50501,17022,14788
50498,17020,14783
50497,17023,14788
50500,17030,14798
50509,17035,14809
50519,17037,14817
50526,17039,14814
50529,17039,14797
50522,17032,14766
50502,17016,14725
50472,16995,14672
50433,16968,14609
50386,16935,14535
50332,16895,14454
50275,16854,14369
50214,16812,14280
50145,16769,14184
50069,16722,14080
49989,16674,13969
49908,16623,13853
49828,16570,13735
49753,16516,13616
49681,16462,13494
49607,16408,13370
49529,16352,13241
49449,16295,13108
49369,16239,12973
49288,16183,12835
49204,16122,12699
49117,16061,12566
49032,16004,12436
48951,15950,12310
48874,15897,12187
48798,15845,12068
48727,15796,11950
48656,15749,11834
48584,15702,11718
48515,15658,11604
48452,15616,11493
48392,15571,11387
48334,15526,11286
48280,15485,11190
48228,15448,11098
48176,15414,11011
48126,15380,10928
48082,15347,10849
48041,15315,10773
47999,15283,10698
47955,15250,10624
47911,15221,10552
47868,15192,10483
47823,15162,10415
47780,15134,10351
47740,15108,10289
47698,15083,10226
47652,15057,10160
47606,15032,10090
47562,15009,10018
47517,14986,9947
47470,14959,9873
47421,14928,9799
47366,14893,9724
47308,14857,9647
47251,14818,9567
47194,14778,9481
47136,14736,9385
47077,14693,9282
47014,14647,9177
46949,14602,9073
46884,14561,8972
46817,14522,8868
46743,14483,8759
46667,14442,8648
46595,14402,8536
46524,14360,8427
46448,14314,8317
46372,14266,8201
46298,14217,8080
46221,14164,7961
46142,14110,7845
46065,14059,7732
45993,14012,7625
45925,13966,7519
45859,13920,7415
45800,13878,7317
45750,13844,7236
45713,13818,7179
45696,13805,7154
45711,13811,7175
45766,13844,7252
45867,13906,7393
46019,14002,7609
46222,14136,7904
46478,14305,8280
46788,14507,8734
47142,14739,9259
47529,14996,9844
47942,15271,10474
48375,15557,11133
48811,15848,11796
49235,16136,12447
49640,16417,13073
50016,16681,13659
50359,16920,14195
50666,17133,14674
50932,17318,15091
51155,17472,15442
51336,17597,15728
51479,17700,15956
51586,17780,16131
51659,17839,16256
51705,17880,16343
51732,17908,16402
51748,17925,16441
51753,17930,16462
51748,17929,16470
51736,17924,16469
51723,17915,16461
51708,17902,16448
51693,17890,16437
51683,17883,16434
51677,17881,16437
51674,17878,16443
51673,17877,16449
51672,17874,16454
51671,17870,16455
51669,17866,16451
51668,17864,16441
51664,17860,16421
51651,17850,16392
51623,17831,16348
51578,17803,16286
51517,17768,16206
51440,17720,16103
51353,17660,15980
51258,17594,15839
51156,17524,15690
51050,17452,15540
50950,17385,15392
50866,17328,15250
50792,17280,15121
50723,17235,15008
50660,17196,14915
50611,17165,14843
50574,17141,14794
50546,17121,14763
50523,17106,14744
50505,17097,14735
50494,17094,14731
50485,17090,14729
50475,17085,14726
50467,17084,14721
50459,17081,14707
50449,17073,14679
50433,17057,14638
50411,17036,14588
50379,17011,14528
50337,16978,14458
50285,16938,14374
50223,16892,14278
50152,16841,14171
50074,16788,14055
49990,16733,13930
49904,16676,13802
49819,16617,13675
49735,16557,13548
49649,16498,13417
49562,16440,13281
49473,16382,13141
49380,16323,12996
49286,16263,12848
49188,16202,12701
49089,16139,12556
48992,16075,12412
48900,16011,12267
48808,15949,12123
48712,15886,11983
48618,15823,11847
48526,15761,11712
48434,15699,11578
48344,15636,11446
48253,15574,11315
48163,15514,11181
48077,15457,11049
47998,15404,10923
47925,15355,10801
47857,15310,10682
47792,15265,10565
47729,15223,10456
47669,15186,10354
47610,15152,10258
47553,15118,10166
47496,15083,10078
47440,15050,9993
47385,15019,9913
47327,14986,9836
47266,14949,9758
47205,14911,9680
47146,14874,9604
47089,14839,9531
47030,14803,9455
46972,14766,9372
46915,14730,9283
46862,14695,9192
46810,14659,9101
46758,14623,9010
46703,14590,8919
46644,14556,8829
46582,14519,8736
46520,14481,8640
46459,14442,8543
46393,14400,8446
46324,14354,8349
46252,14306,8251
46177,14259,8153
46103,14214,8053
46032,14169,7950
45963,14125,7844
45893,14079,7737
45819,14032,7626
45745,13984,7510
45674,13937,7393
45604,13891,7276
45534,13844,7160
45463,13793,7039
45395,13742,6918
45330,13693,6797
45265,13646,6681
45201,13603,6573
45143,13568,6480
45100,13544,6410
45076,13533,6373
45080,13541,6378
45120,13571,6438
45202,13627,6565
45333,13715,6766
45515,13834,7045
45747,13988,7401
46029,14177,7831
46356,14395,8330
46725,14639,8888
47129,14904,9494
47550,15184,10130
47975,15469,10777
48392,15754,11414
48793,16032,12030
49170,16294,12613
49513,16531,13151
49816,16741,13634
50077,16923,14054
50296,17074,14410
50474,17197,14703
50613,17297,14937
50717,17375,15115
50792,17431,15249
50845,17472,15343
50880,17501,15406
50899,17518,15443
50902,17523,15461
50896,17523,15461
50883,17521,15449
50865,17515,15430
50847,17506,15412
50834,17496,15400
50828,17488,15392
50825,17482,15389
50822,17478,15390
50819,17475,15393
50817,17474,15397
50815,17472,15399
50808,17466,15395
50795,17458,15381
50773,17448,15354
50743,17436,15315
50700,17413,15257
50644,17376,15176
50573,17326,15068
50488,17263,14935
50389,17192,14785
50279,17118,14626
50164,17043,14462
50046,16964,14300
49935,16889,14151
49839,16825,14021
49761,16773,13912
49699,16731,13821
49653,16698,13751
49622,16679,13700
49606,16672,13669
49604,16672,13654
49614,16678,13656
49633,16687,13667
49654,16700,13681
49671,16711,13697
49682,16718,13710
49690,16722,13718
49691,16725,13720
49683,16721,13713
49667,16713,13696
49644,16701,13665
49611,16682,13618
49567,16654,13559
49515,16620,13488
49459,16582,13407
49399,16542,13317
49338,16502,13222
49277,16460,13122
49212,16413,13016
49143,16362,12907
49069,16310,12797
48991,16258,12682
48912,16207,12558
48831,16154,12426
48746,16098,12288
48659,16040,12148
48570,15981,12009
48482,15924,11877
48393,15865,11748
48306,15805,11616
48224,15746,11485
48144,15691,11358
48067,15640,11234
47993,15591,11115
47918,15543,10998
47841,15492,10881
47766,15440,10763
47697,15394,10649
47636,15356,10541
47575,15320,10441
47515,15285,10347
47457,15251,10260
47404,15221,10176
47355,15192,10096
47310,15164,10017
47265,15133,9936
47221,15098,9854
47176,15063,9775
47128,15027,9700
47081,14995,9627
47040,14966,9557
47000,14938,9489
46959,14910,9419
46917,14881,9349
46876,14855,9281
46833,14828,9212
46788,14799,9140
46740,14768,9067
46690,14734,8994
46638,14697,8918
46590,14663,8840
46546,14634,8761
46501,14607,8684
46452,14580,8609
46398,14549,8531
46340,14518,8446
46279,14485,8355
46217,14450,8261
46153,14412,8163
46091,14374,8064
46029,14335,7966
45966,14296,7870
45902,14258,7773
45839,14218,7676
45779,14177,7583
45720,14136,7496
45669,14098,7414
45630,14066,7346
45611,14043,7302
45616,14037,7296
45650,14054,7338
45721,14099,7437
45836,14175,7602
46003,14284,7839
46221,14427,8150
46486,14601,8537
46795,14803,8994
47144,15035,9515
47526,15292,10085
47928,15563,10689
48339,15837,11307
48750,16110,11922
49155,16379,12524
49543,16638,13103
49902,16880,13648
50224,17100,14146
50512,17299,14591
50763,17473,14983
50974,17619,15319
51147,17741,15597
51286,17839,15821
51390,17916,15995
51466,17974,16124
51516,18016,16214
51549,18044,16273
51568,18057,16311
51577,18058,16332
51582,18057,16341
51590,18058,16344
51597,18061,16346
51597,18060,16349
51592,18058,16351
51587,18057,16354
51585,18057,16363
51588,18058,16376
51593,18062,16392
51598,18070,16407
51600,18078,16416
51597,18083,16420
51589,18085,16416
51574,18081,16397
51546,18063,16356
51501,18033,16288
51440,17992,16197
51367,17941,16089
51279,17880,15966
51181,17812,15828
51083,17743,15682
50990,17677,15536
50906,17615,15394
50833,17561,15262
50772,17518,15151
50724,17483,15060
50685,17452,14990
50659,17431,14942
50648,17420,14914
50648,17419,14905
50655,17423,14913
50666,17430,14935
50679,17440,14964
50694,17452,14994
50707,17460,15022
50715,17463,15039
50718,17462,15045
50713,17457,15039
50697,17445,15021
50673,17427,14987
50646,17407,14940
50617,17384,14882
50583,17358,14816
50544,17329,14739
50498,17295,14652
50445,17256,14560
50386,17211,14462
50321,17163,14355
50253,17114,14242
50185,17064,14125
50117,17011,14006
50048,16958,13885
49977,16904,13763
49903,16848,13639
49824,16790,13512
49740,16732,13381
49653,16674,13250
49566,16616,13120
49479,16558,12995
49395,16505,12876
49316,16454,12762
49242,16403,12652
49171,16354,12541
49102,16308,12429
49037,16265,12322
48975,16225,12218
48915,16186,12114
48859,16151,12009
48803,16114,11909
48746,16077,11813
48693,16042,11723
48642,16012,11637
48589,15980,11554
48537,15944,11470
48487,15905,11392
48440,15868,11318
48393,15833,11246
48346,15798,11174
48298,15766,11100
48252,15738,11028
48208,15711,10961
48164,15685,10898
48124,15661,10838
48087,15640,10779
48049,15616,10714
48007,15587,10639
47962,15555,10560
47918,15524,10480
47871,15493,10400
47821,15459,10320
47768,15425,10242
47713,15392,10168
47660,15356,10094
47607,15318,10017
47555,15279,9933
47500,15240,9846
47441,15197,9755
47382,15153,9661
47327,15112,9571
47270,15073,9482
47207,15033,9390
47142,14992,9295
47079,14953,9200
47017,14914,9105
46959,14878,9014
46908,14846,8931
46867,14818,8861
46842,14796,8807
46843,14790,8782
46874,14805,8801
46936,14846,8878
47037,14915,9019
47184,15016,9232
47382,15151,9524
47632,15320,9896
47933,15523,10346
48280,15756,10867
48665,16017,11449
49079,16300,12079
49516,16598,12742
49961,16906,13417
50400,17211,14081
50819,17504,14718
51212,17777,15317
51569,18023,15863
51884,18239,16348
52157,18425,16772
52388,18583,17137
52580,18713,17442
52732,18820,17690
52846,18905,17886
52929,18966,18034
52987,19008,18143
53027,19038,18222
53055,19059,18276
53075,19073,18312
53089,19083,18336
53100,19092,18355
53111,19098,18371
53123,19103,18389
53138,19112,18410
53157,19125,18433
53176,19140,18459
53197,19153,18488
53223,19168,18519
53249,19186,18552
53272,19206,18585
53291,19224,18617
53304,19237,18646
53312,19246,18670
53311,19250,18681
53300,19245,18669
53275,19228,18630
53231,19200,18566
53167,19158,18476
53087,19105,18364
52999,19045,18238
52909,18982,18103
52821,18919,17965
52738,18861,17830
52664,18810,17701
52603,18765,17585
52553,18725,17487
52511,18692,17406
52476,18666,17343
52451,18647,17300
52436,18637,17276
52431,18634,17267
52432,18635,17268
52437,18640,17273
52447,18647,17284
52461,18653,17294
52472,18657,17298
52477,18660,17293
52474,18658,17276
52462,18646,17248
52442,18628,17213
52414,18608,17170
52378,18582,17120
52337,18550,17060
52295,18514,16992
52249,18477,16916
52194,18439,16832
52134,18399,16738
52073,18359,16634
