green_channel,red_channel,ir_channel
50221,46340,49902
50073,46241,49752
49969,46170,49594
49865,46094,49436
49724,45992,49278
49582,45886,49108
49468,45790,48930
49342,45690,48755
49179,45576,48582
49030,45475,48411
48923,45396,48250
48811,45309,48107
48678,45213,47977
48574,45139,47848
48510,45084,47719
48432,45022,47597
48328,44951,47476
48248,44893,47344
48193,44843,47210
48102,44765,47077
47972,44666,46944
47861,44578,46808
47766,44496,46671
47640,44398,46544
47498,44299,46425
47400,44225,46303
47331,44163,46183
47232,44082,46066
47110,43991,45937
47017,43918,45789
46940,43846,45640
46825,43748,45495
46699,43651,45356
46621,43587,45237
46569,43534,45150
46488,43469,45087
46408,43414,45028
46374,43394,44971
46347,43378,44920
46287,43346,44869
46229,43317,44800
46208,43301,44712
46178,43268,44621
46101,43197,44524
46006,43119,44407
45921,43049,44272
45813,42966,44137
45664,42866,43999
45527,42782,43858
45436,42729,43738
45363,42683,43657
45303,42649,43622
45310,42663,43631
45408,42733,43704
45554,42840,43865
45740,42987,44116
46015,43204,44447
46383,43492,44875
46786,43816,45404
47217,44171,46010
47731,44583,46674
48311,45031,47393
48885,45479,48158
49448,45930,48942
50050,46409,49724
50677,46898,50494
51256,47350,51239
51784,47766,51939
52309,48170,52588
52814,48550,53198
53241,48879,53772
53613,49178,54305
53990,49476,54796
54349,49750,55249
54637,49974,55659
54883,50166,56005
55130,50344,56285
55343,50486,56518
55479,50572,56700
55567,50630,56823
55647,50675,56893
55692,50688,56936
55675,50666,56962
55644,50645,56965
55638,50642,56955
55624,50631,56947
55580,50602,56936
55539,50577,56905
55521,50562,56859
55479,50535,56806
55396,50483,56741
55321,50437,56659
55271,50402,56574
55199,50353,56504
55102,50290,56439
55031,50242,56363
54990,50204,56279
54919,50143,56187
54802,50055,56079
54692,49966,55946
54600,49885,55808
54480,49793,55683
54341,49706,55555
54235,49650,55413
54158,49607,55286
54067,49552,55187
53972,49496,55101
53927,49469,55020
53910,49453,54948
53864,49412,54879
53799,49355,54799
53761,49304,54710
53724,49249,54623
53638,49167,54540
53539,49085,54457
53485,49031,54382
53451,48990,54329
53395,48939,54293
53348,48899,54257
53345,48891,54221
53344,48886,54195
53307,48864,54170
53271,48846,54130
53264,48844,54081
53252,48832,54044
53207,48797,54011
53167,48770,53973
53153,48762,53941
53124,48754,53931
53068,48734,53931
53034,48725,53920
53034,48733,53897
53012,48723,53868
52948,48684,53818
52885,48638,53726
52824,48583,53601
52712,48489,53461
52554,48364,53305
52419,48253,53137
52317,48159,52974
52192,48055,52830
52053,47955,52703
51961,47895,52586
51908,47857,52490
51834,47804,52411
51743,47736,52323
51683,47677,52211
51630,47612,52084
51515,47512,51942
51359,47394,51780
51221,47288,51598
51088,47183,51416
50917,47059,51246
50741,46939,51080
50613,46851,50914
50507,46770,50757
50376,46676,50604
50242,46582,50441
50144,46501,50265
50048,46410,50096
49917,46292,49936
49781,46176,49775
49671,46078,49614
49560,45985,49467
49427,45889,49336
49310,45810,49208
49231,45752,49086
49149,45690,48982
49041,45617,48887
48953,45566,48790
48905,45540,48694
48838,45495,48594
48734,45419,48481
48637,45340,48348
48556,45267,48207
48445,45181,48077
48300,45086,47948
48188,45012,47816
48114,44959,47695
48014,44889,47584
47883,44804,47465
47774,44733,47331
47683,44663,47192
47552,44563,47056
47399,44453,46914
47289,44367,46767
47207,44295,46633
47096,44211,46515
46975,44130,46402
46899,44078,46291
46844,44033,46188
46760,43972,46093
46671,43910,45987
46621,43861,45858
46576,43808,45725
46487,43727,45595
46383,43641,45464
46316,43575,45341
46264,43518,45245
46194,43460,45174
46133,43423,45111
46114,43416,45054
46097,43406,45007
46052,43372,44952
46000,43328,44866
45956,43284,44751
45873,43216,44623
45734,43118,44488
45599,43023,44344
45494,42942,44201
45379,42855,44080
45260,42773,43992
45205,42735,43943
45227,42752,43953
45282,42800,44040
45378,42887,44205
45573,43040,44439
45868,43255,44748
46195,43499,45139
46541,43777,45601
46959,44116,46128
47445,44500,46725
47940,44892,47388
48448,45298,48090
49013,45739,48811
49608,46196,49543
50168,46632,50272
50695,47045,50973
51235,47453,51636
51767,47845,52270
52232,48191,52874
52649,48503,53430
53063,48807,53941
53452,49095,54428
53769,49342,54887
54051,49567,55301
54349,49795,55673
54629,50002,56010
54845,50168,56302
55026,50310,56530
55205,50440,56697
55338,50532,56822
55392,50568,56902
55410,50573,56930
55424,50564,56918
55399,50532,56887
55325,50478,56847
55257,50437,56800
55220,50415,56755
55168,50383,56718
55091,50343,56683
55044,50323,56640
55035,50318,56593
55003,50294,56539
54934,50248,56471
54870,50200,56381
54811,50144,56273
54702,50054,56160
54552,49943,56034
54424,49848,55892
54319,49767,55749
54190,49676,55621
54050,49589,55506
53954,49533,55397
53893,49494,55293
53809,49442,55191
53712,49384,55087
53662,49349,54984
53645,49331,54905
53612,49306,54858
53582,49288,54830
53602,49296,54814
53636,49309,54813
53632,49305,54817
53618,49296,54803
53636,49296,54768
53651,49285,54727
53618,49248,54680
53572,49212,54626
53557,49192,54577
53540,49172,54549
53497,49146,54542
53478,49147,54548
53515,49187,54573
53550,49226,54618
53553,49248,54661
53569,49275,54684
53616,49304,54686
53636,49298,54674
53598,49249,54639
53552,49194,54579
53515,49145,54503
53445,49082,54426
53339,49010,54343
53254,48960,54247
53191,48927,54156
53088,48877,54080
52953,48808,53995
52842,48738,53880
52748,48663,53741
52608,48548,53586
52430,48403,53405
52274,48264,53195
52130,48126,52977
51949,47971,52770
51748,47810,52557
51579,47667,52329
51421,47526,52096
51219,47359,51860
50995,47188,51617
50801,47039,51368
50621,46900,51125
50412,46751,50893
50200,46606,50666
50028,46484,50443
49864,46361,50223
49665,46214,50000
49459,46062,49760
49286,45919,49508
49118,45776,49274
48926,45629,49067
48752,45501,48875
48632,45405,48704
48530,45326,48569
48422,45258,48463
48352,45215,48364
48334,45194,48269
48307,45161,48182
48240,45105,48096
48186,45058,48006
48162,45026,47921
48116,44986,47860
48047,44944,47815
48010,44929,47775
48011,44941,47745
47990,44941,47729
47943,44926,47707
47923,44922,47665
47924,44918,47605
47885,44880,47537
47809,44822,47459
47755,44777,47371
47724,44738,47286
47661,44683,47215
47588,44628,47150
47563,44604,47092
47561,44595,47043
47522,44569,46998
47457,44533,46939
47414,44506,46861
47368,44468,46768
47265,44390,46652
47127,44288,46502
47001,44187,46330
46868,44076,46161
46699,43945,46001
46532,43818,45836
46407,43717,45665
46288,43619,45500
46136,43512,45338
45988,43414,45158
45878,43328,44962
45753,43224,44766
45576,43090,44572
45397,42956,44367
45245,42831,44155
45070,42687,43949
44856,42525,43745
44658,42380,43533
44496,42256,43324
44332,42136,43133
44164,42025,42963
44053,41953,42819
44018,41928,42732
44016,41928,42726
44048,41959,42795
44176,42050,42937
44399,42202,43170
44659,42396,43511
44958,42636,43939
45347,42946,44432
45804,43306,44989
46258,43677,45597
46710,44054,46227
47213,44455,46863
47744,44864,47508
48241,45246,48155
48713,45613,48790
49209,45989,49408
49706,46363,50018
50151,46709,50618
50559,47040,51186
50972,47375,51714
51362,47683,52204
51687,47941,52649
51976,48172,53037
52267,48393,53369
52526,48579,53657
52716,48713,53902
52869,48823,54096
53021,48922,54244
53135,48992,54365
53183,49022,54454
53209,49042,54505
53246,49063,54527
53248,49058,54529
53196,49030,54512
53143,49007,54473
53114,48994,54418
53065,48961,54354
52981,48908,54279
52909,48861,54183
52859,48820,54073
52776,48754,53964
52657,48663,53850
52560,48584,53732
52482,48516,53621
52375,48436,53531
52256,48357,53449
52183,48307,53358
52143,48269,53266
52071,48211,53173
51969,48140,53064
51892,48084,52935
51821,48026,52799
51700,47929,52658
51550,47816,52506
51433,47722,52349
51338,47639,52204
51214,47546,52080
51094,47464,51966
51032,47422,51864
50996,47395,51784
50938,47361,51725
50889,47333,51670
50889,47325,51619
50900,47317,51587
50880,47294,51572
50866,47283,51566
50896,47299,51576
50938,47324,51614
50969,47347,51677
51022,47396,51746
51114,47477,51823
51189,47546,51900
51221,47582,51959
51256,47610,51995
51306,47634,52017
51314,47625,52033
51268,47588,52032
51223,47556,52007
51195,47533,51969
51133,47487,51927
51029,47418,51866
50941,47359,51773
50872,47308,51658
50763,47233,51529
50618,47134,51379
50491,47036,51201
50370,46924,51008
50198,46770,50812
49990,46601,50608
49817,46459,50401
49672,46333,50207
49505,46198,50038
49340,46077,49883
49238,45997,49732
49168,45934,49589
49069,45861,49456
48960,45790,49321
48888,45736,49184
48827,45685,49057
48728,45621,48939
48628,45566,48826
48572,45535,48727
48526,45506,48651
48451,45465,48594
48389,45436,48538
48374,45429,48480
48354,45410,48419
48292,45359,48346
48224,45298,48249
48169,45237,48131
48091,45151,48005
47967,45040,47871
47842,44936,47724
47744,44853,47576
47632,44764,47439
47494,44665,47306
47381,44582,47161
47303,44518,47015
47204,44443,46882
47081,44348,46752
46988,44258,46614
46922,44174,46486
46822,44074,46380
46691,43977,46278
46590,43914,46168
46520,43872,46058
46426,43822,45956
46326,43773,45860
46282,43753,45771
46275,43749,45699
46235,43721,45641
46176,43677,45574
46152,43644,45494
46137,43612,45418
46072,43559,45348
45990,43507,45278
45945,43477,45208
45911,43449,45142
45839,43399,45080
45758,43349,45007
45706,43319,44919
45647,43277,44816
45544,43200,44692
45428,43108,44542
45331,43018,44380
45225,42921,44232
45088,42815,44101
44976,42739,43994
44934,42713,43930
44928,42718,43927
44941,42747,43992
45027,42831,44115
45215,42980,44305
45454,43165,44573
45717,43373,44913
46042,43626,45304
46433,43920,45755
46840,44230,46273
47256,44555,46847
47735,44926,47460
48269,45334,48108
48787,45740,48788
49284,46140,49473
49814,46557,50140
50363,46976,50793
50862,47355,51431
51313,47698,52033
51771,48033,52583
52221,48354,53096
52596,48633,53577
52909,48879,54020
53222,49119,54423
53522,49340,54786
53756,49522,55114
53947,49683,55398
54148,49845,55634
54336,49980,55834
54462,50065,56005
54554,50126,56135
54658,50192,56228
54751,50244,56300
54796,50264,56356
54824,50277,56392
54867,50295,56412
54896,50303,56435
54881,50289,56455
54853,50272,56451
54841,50265,56426
54809,50243,56395
54739,50195,56356
54677,50155,56298
54645,50131,56227
54593,50091,56152
54503,50024,56069
54420,49955,55967
54358,49890,55856
54271,49810,55754
54155,49724,55659
54072,49669,55567
54034,49642,55485
53982,49601,55412
53900,49548,55330
53840,49515,55232
53795,49488,55124
53707,49423,55008
53581,49330,54879
53473,49243,54736
53384,49159,54593
53266,49057,54464
53141,48957,54347
53067,48894,54247
53031,48853,54175
52981,48813,54136
52934,48789,54114
52938,48799,54097
52968,48815,54086
52963,48806,54069
52932,48781,54029
52910,48751,53965
52881,48708,53895
52810,48645,53825
52731,48585,53749
52684,48542,53674
52648,48496,53610
52591,48440,53559
52548,48400,53511
52541,48388,53467
52526,48371,53428
52474,48331,53382
52427,48291,53317
52404,48258,53238
52350,48205,53154
52244,48128,53062
52141,48058,52958
52054,48001,52851
51933,47930,52750
51774,47840,52644
51641,47759,52518
51539,47688,52384
51414,47602,52249
51266,47504,52101
51144,47416,51930
51034,47322,51748
50875,47194,51564
50677,47042,51374
50500,46900,51179
50344,46771,50992
50159,46631,50813
49962,46487,50626
49809,46366,50431
49681,46256,50244
49522,46130,50065
49351,45997,49874
49223,45879,49664
49112,45763,49458
48961,45630,49260
48792,45498,49060
48654,45394,48858
48528,45299,48674
48373,45194,48514
48218,45100,48361
48108,45033,48216
48010,44965,48087
47893,44882,47965
47785,44807,47832
47712,44753,47695
47630,44688,47567
47511,44601,47438
47401,44520,47303
47322,44453,47172
47227,44376,47056
47099,44286,46945
46992,44213,46830
46924,44159,46718
46851,44097,46619
46759,44026,46524
46690,43969,46413
46643,43914,46292
46557,43830,46169
46434,43729,46038
46335,43644,45897
46257,43570,45761
46148,43489,45644
46020,43416,45537
45934,43374,45433
45888,43344,45344
45821,43291,45268
45728,43222,45187
45657,43172,45092
45596,43131,44996
45492,43069,44906
45370,43002,44813
45292,42958,44716
45244,42928,44634
45183,42895,44583
45141,42879,44563
45179,42912,44584
45276,42982,44667
45395,43074,44822
45572,43212,45043
45843,43412,45336
46173,43657,45717
46523,43929,46179
46929,44251,46708
47422,44633,47304
47950,45041,47962
48476,45460,48666
49033,45907,49393
49641,46379,50135
50240,46837,50889
50795,47271,51634
51343,47704,52353
51898,48132,53048
52412,48525,53725
52872,48884,54368
53329,49236,54959
53781,49576,55490
54170,49875,55967
54488,50122,56385
54794,50337,56740
55087,50527,57049
55307,50671,57330
55468,50783,57578
55629,50897,57786
55786,51007,57966
55894,51093,58138
55971,51165,58297
56071,51248,58432
56174,51324,58544
56217,51367,58631
56215,51389,58676
56228,51410,58676
56241,51419,58656
56203,51396,58627
56146,51368,58595
56125,51363,58565
56115,51356,58548
56075,51332,58542
56034,51309,58523
56029,51305,58486
56018,51288,58442
55960,51236,58386
55890,51170,58305
55836,51105,58204
55760,51031,58105
55636,50941,58010
55515,50865,57915
55431,50814,57825
55344,50752,57740
55235,50670,57650
55148,50600,57542
55098,50552,57425
55025,50489,57305
54911,50403,57170
54809,50326,57023
54730,50264,56884
54629,50190,56769
54512,50112,56669
54443,50066,56579
54422,50046,56513
54385,50014,56469
54324,49972,56429
54298,49950,56381
54302,49947,56339
54274,49928,56310
54222,49897,56277
54200,49875,56232
54196,49858,56194
54155,49830,56176
54108,49801,56158
54117,49792,56127
54143,49789,56090
54120,49767,56051
54072,49734,55997
54045,49707,55924
54014,49665,55857
53936,49587,55807
53845,49514,55761
53790,49472,55718
53742,49436,55686
53661,49389,55655
53575,49344,55598
53512,49309,55509
53431,49255,55394
53296,49166,55248
53151,49072,55071
53023,48984,54881
52872,48872,54694
52676,48734,54510
52493,48610,54326
52350,48510,54147
52202,48404,53977
52032,48285,53807
51889,48180,53631
51784,48097,53458
51656,47999,53284
51488,47870,53091
51329,47737,52869
51179,47599,52642
50990,47432,52429
50769,47251,52225
50581,47101,52020
50427,46983,51823
50251,46867,51644
50063,46753,51478
49927,46667,51325
49838,46603,51193
49733,46533,51078
49621,46464,50959
49554,46415,50831
49510,46372,50710
49428,46303,50595
49317,46214,50465
49225,46129,50313
49124,46038,50157
48966,45926,50005
48792,45813,49850
48659,45728,49703
48545,45653,49578
48411,45568,49469
48291,45494,49355
48220,45452,49239
48157,45412,49131
48062,45349,49020
47968,45282,48889
47903,45221,48746
47816,45143,48602
47682,45036,48453
47546,44930,48287
47432,44831,48115
47292,44715,47951
47112,44579,47791
46954,44464,47634
46844,44381,47486
46738,44305,47363
46630,44236,47263
46565,44192,47170
46537,44164,47082
46479,44112,46998
46387,44037,46909
46318,43975,46812
46269,43924,46720
46187,43856,46636
46080,43784,46549
46005,43737,46451
45946,43696,46348
45847,43633,46247
45735,43565,46149
45685,43533,46066
45692,43536,46027
45712,43556,46051
45775,43615,46138
45933,43741,46295
46161,43919,46545
46407,44120,46886
46700,44368,47306
47086,44686,47803
47534,45051,48384
47996,45435,49042
48500,45851,49745
49075,46308,50478
49672,46772,51228
50244,47216,51984
50819,47649,52730
51418,48082,53453
51987,48496,54152
52488,48882,54831
52967,49265,55470
53451,49644,56067
53897,49986,56632
54286,50285,57154
54659,50572,57622
55025,50845,58040
55331,51075,58415
55568,51258,58736
55785,51416,58988
55981,51549,59182
56098,51628,59333
56142,51659,59442
56180,51685,59516
56220,51707,59571
56221,51709,59626
56198,51708,59680
56215,51732,59731
56261,51768,59777
56272,51776,59808
56259,51766,59813
56279,51771,59798
56313,51775,59776
56296,51748,59750
56252,51708,59712
56237,51687,59663
56235,51676,59626
56199,51650,59610
56156,51630,59599
56153,51643,59594
56164,51663,59607
56144,51664,59625
56122,51664,59627
56132,51679,59611
56130,51672,59575
56077,51623,59509
56005,51557,59407
55943,51491,59276
55854,51407,59137
55719,51300,58995
55596,51209,58855
55514,51146,58736
55431,51083,58647
55327,51011,58577
55252,50964,58511
55225,50946,58451
55200,50926,58402
55158,50901,58357
55143,50895,58299
55157,50898,58236
55138,50872,58177
55081,50819,58115
55039,50775,58047
55011,50741,57986
54950,50694,57946
54866,50646,57919
54825,50625,57898
54818,50618,57882
54778,50589,57871
54711,50551,57851
54677,50532,57807
54656,50514,57745
54584,50462,57668
54474,50386,57561
54378,50313,57428
54283,50229,57289
54137,50110,57142
53970,49983,56979
53833,49876,56808
53695,49772,56644
53516,49649,56486
53337,49532,56322
53208,49441,56154
53088,49349,55989
52932,49234,55820
52767,49115,55627
52624,48996,55406
52463,48856,55173
52254,48683,54929
52038,48510,54671
51840,48348,54414
51623,48177,54175
51379,47999,53953
51165,47848,53739
51000,47728,53540
50830,47608,53362
50642,47486,53194
50492,47387,53025
50382,47302,52858
50247,47194,52693
50078,47066,52518
49927,46950,52326
49795,46846,52129
49633,46726,51945
49450,46600,51771
49313,46506,51607
49218,46437,51466
49104,46360,51352
48987,46290,51249
48924,46260,51142
48894,46243,51040
48830,46197,50945
48740,46132,50846
48678,46077,50740
48627,46022,50639
48538,45945,50543
48434,45870,50446
48368,45822,50353
48317,45784,50276
48239,45733,50210
48168,45692,50143
48148,45683,50079
48142,45680,50032
48108,45668,50000
48081,45662,49964
48090,45671,49924
48090,45666,49883
48044,45628,49830
47990,45587,49756
47954,45556,49666
47897,45512,49581
47803,45452,49498
47722,45406,49408
47679,45383,49320
47628,45355,49246
47556,45313,49177
47506,45279,49096
47481,45245,49010
47427,45184,48930
47351,45113,48854
47304,45065,48769
47276,45029,48682
47213,44978,48604
47122,44923,48527
47068,44893,48445
47044,44875,48370
46996,44839,48309
46943,44803,48259
46951,44805,48229
47013,44838,48238
47078,44879,48302
47162,44948,48425
47325,45082,48619
47570,45276,48905
47853,45508,49291
48199,45791,49764
48658,46149,50318
49189,46554,50951
49734,46976,51647
50300,47420,52374
50917,47892,53114
51545,48367,53873
52136,48823,54644
52715,49282,55407
53311,49755,56157
53895,50214,56898
54437,50644,57618
54973,51071,58306
55529,51507,58961
56049,51916,59584
56505,52276,60159
56934,52604,60673
57343,52909,61134
57685,53166,61554
57952,53371,61929
58208,53566,62258
58469,53764,62564
58686,53934,62852
58849,54068,63102
59006,54188,63293
59152,54286,63425
59227,54329,63510
59234,54330,63549
59232,54323,63540
59224,54307,63501
59168,54257,63454
59081,54190,63400
59027,54150,63349
59005,54132,63316
58973,54115,63313
58953,54113,63332
58992,54147,63364
59064,54199,63405
59103,54236,63445
59115,54257,63460
59145,54276,63445
59164,54279,63419
59121,54244,63383
59052,54198,63327
59008,54168,63258
58962,54133,63191
58874,54079,63124
58781,54026,63037
58724,53987,62934
58658,53930,62825
58540,53836,62695
58410,53732,62534
58292,53626,62349
58135,53489,62158
57921,53325,61963
57719,53177,61763
57562,53060,61570
57408,52944,61404
57248,52829,61262
57124,52739,61130
57046,52673,61007
56955,52594,60894
56830,52498,60774
56725,52416,60648
56649,52350,60533
56545,52271,60438
56412,52181,60347
56311,52112,60255
56241,52060,60164
56146,51987,60076
56031,51900,59980
55951,51832,59871
55893,51773,59766
55797,51697,59670
55680,51623,59574
55598,51576,59474
55535,51532,59381
55444,51470,59302
55346,51412,59226
55289,51379,59146
55241,51340,59059
55149,51263,58953
55031,51167,58817
54927,51075,58659
54818,50979,58504
54671,50865,58360
54527,50764,58220
54427,50692,58083
54336,50616,57951
54215,50520,57817
54089,50424,57666
53983,50337,57493
53856,50229,57311
53683,50092,57124
53507,49955,56927
53352,49828,56726
53177,49694,56536
52969,49554,56353
52783,49437,56162
52631,49338,55965
52462,49223,55765
52268,49092,55558
52097,48969,55339
51956,48852,55116
51783,48711,54894
51573,48548,54671
51392,48398,54453
51245,48269,54256
51078,48135,54082
50892,48005,53914
50742,47905,53738
50617,47815,53560
50451,47696,53375
50246,47554,53169
50054,47418,52941
49876,47278,52705
49665,47112,52468
49441,46944,52232
49256,46809,52007
49098,46696,51808
48923,46582,51633
48760,46482,51470
48654,46411,51318
48565,46340,51176
48447,46247,51040
48324,46152,50890
48228,46071,50721
48118,45973,50548
47956,45833,50366
47784,45690,50174
47649,45576,49989
47528,45479,49831
47408,45393,49703
47332,45343,49596
47314,45335,49513
47296,45328,49451
47243,45298,49387
47188,45261,49301
47143,45215,49193
47052,45131,49072
46908,45021,48938
46776,44928,48801
46667,44851,48674
46535,44766,48562
46388,44680,48454
46289,44622,48342
46237,44585,48236
46168,44534,48141
46080,44473,48052
46030,44433,47961
46014,44407,47880
45983,44367,47826
45956,44344,47806
46001,44383,47834
46116,44480,47943
46258,44611,48152
46456,44793,48461
46769,45054,48865
47169,45375,49363
47603,45726,49943
48079,46113,50571
48632,46547,51231
49217,46997,51931
49775,47430,52654
50330,47863,53377
50918,48307,54092
51493,48736,54804
52010,49128,55499
52512,49510,56161
53035,49897,56794
53532,50264,57399
53972,50597,57963
54390,50916,58471
54804,51224,58927
55157,51485,59334
55421,51685,59682
55649,51853,59960
55863,52001,60186
56018,52107,60380
56109,52176,60541
56188,52238,60665
56268,52294,60763
56301,52323,60847
56286,52327,60896
56283,52330,60895
56293,52328,60861
56252,52288,60805
56163,52216,60723
56080,52143,60610
55995,52060,60484
55862,51949,60364
55713,51835,60247
55615,51755,60133
55549,51698,60035
55456,51629,59951
55348,51556,59859
55278,51497,59750
55222,51435,59629
55126,51344,59497
55010,51245,59350
54918,51164,59194
54819,51082,59047
54667,50975,58906
54507,50868,58762
54386,50782,58624
54275,50698,58499
54140,50603,58380
54019,50525,58257
53943,50477,58134
53867,50425,58020
53762,50356,57906
53669,50295,57783
53614,50251,57662
53554,50198,57560
53468,50124,57470
53404,50067,57385
53380,50037,57321
53350,50007,57290
53299,49974,57284
53279,49964,57283
53291,49975,57290
53277,49976,57309
53239,49968,57323
53241,49980,57320
53277,50002,57308
53280,49999,57291
53249,49976,57261
53239,49963,57212
53244,49948,57154
53197,49895,57091
53107,49815,57007
53029,49743,56897
52951,49666,56774
52823,49562,56646
52666,49452,56507
52536,49362,56360
52413,49273,56213
52253,49163,56065
52079,49047,55901
51944,48948,55722
51813,48845,55536
51632,48714,55340
51426,48573,55117
51237,48434,54866
51034,48280,54610
50778,48092,54351
50507,47899,54073
50261,47720,53782
50010,47534,53497
49727,47329,53213
49459,47133,52917
49230,46949,52608
48982,46744,52283
48694,46512,51942
48412,46284,51588
48156,46066,51233
47880,45838,50895
47568,45603,50567
47277,45390,50240
47026,45201,49925
46764,45007,49638
46486,44813,49364
46253,44651,49098
46070,44520,48853
45880,44391,48640
45685,44266,48446
45546,44174,48261
45457,44105,48092
45354,44026,47943
45245,43945,47806
45179,43889,47675
45132,43836,47556
45044,43758,47454
44938,43678,47357
44874,43632,47264
44835,43606,47187
44770,43568,47127
44701,43531,47065
44672,43515,46989
44643,43486,46902
44555,43422,46801
44439,43344,46674
44345,43270,46522
44240,43179,46361
44084,43058,46194
43916,42935,46013
43775,42828,45826
43632,42718,45655
43462,42597,45501
43309,42491,45343
43204,42410,45179
43103,42330,45023
42976,42234,44872
42853,42137,44702
42741,42044,44516
42597,41926,44329
42410,41781,44133
42226,41640,43914
42057,41509,43681
41860,41364,43462
41640,41213,43260
41470,41097,43077
41371,41026,42940
41293,40978,42870
41249,40968,42871
41311,41036,42947
41481,41176,43117
41705,41359,43391
41987,41591,43756
42380,41899,44202
42859,42259,44728
43348,42627,45321
43852,43009,45958
44419,43433,46628
45020,43880,47336
45594,44323,48083
46164,44774,48849
46772,45253,49618
47382,45731,50384
47940,46173,51134
48467,46585,51840
49004,46985,52489
49516,47353,53091
49957,47670,53642
50353,47955,54128
50738,48225,54556
51079,48468,54953
51351,48676,55324
51598,48874,55650
51852,49070,55936
52071,49235,56191
52227,49362,56410
52360,49479,56582
52489,49588,56711
52567,49652,56805
52581,49666,56857
52585,49661,56858
52599,49649,56828
52574,49604,56787
52501,49534,56740
52445,49483,56684
52424,49452,56633
52386,49414,56603
52335,49382,56585
52328,49391,56573
52366,49430,56578
52388,49456,56599
52395,49472,56618
52441,49503,56628
52510,49542,56638
52535,49563,56652
52539,49576,56654
52589,49606,56642
52657,49636,56632
52672,49630,56621
52646,49600,56592
52638,49576,56546
52625,49552,56501
52565,49511,56458
52498,49471,56414
52481,49457,56379
52482,49450,56362
52459,49427,56355
52447,49419,56349
52488,49449,56353
52542,49488,56379
52568,49515,56420
52604,49548,56456
52684,49602,56491
52765,49653,56538
52819,49692,56586
52886,49735,56625
52987,49788,56668
53063,49824,56725
53087,49836,56787
53115,49851,56841
53165,49881,56896
53190,49905,56964
53191,49918,57033
53220,49944,57089
53283,49985,57137
53323,50013,57178
53326,50023,57200
53348,50041,57199
53383,50062,57190
53372,50055,57172
53318,50022,57130
53279,49993,57061
53248,49956,56977
53171,49879,56881
53059,49784,56768
52962,49702,56640
52870,49624,56507
52731,49526,56373
52563,49424,56229
52422,49340,56071
52294,49255,55910
52134,49145,55747
51955,49018,55559
51794,48887,55339
51624,48736,55102
51405,48552,54849
51175,48363,54584
50979,48192,54324
50791,48030,54089
50575,47865,53869
50372,47717,53652
50215,47597,53444
50063,47478,53249
49882,47348,53054
49706,47227,52845
49554,47118,52622
49385,46990,52399
49178,46832,52173
48973,46673,51928
48788,46520,51671
48578,46349,51422
48340,46162,51181
48139,45999,50948
47984,45867,50733
47816,45737,50539
47630,45607,50356
47473,45500,50164
47328,45396,49954
47129,45253,49723
46879,45075,49461
46636,44893,49163
46397,44709,48849
46111,44504,48534
45808,44299,48231
45566,44133,47949
45369,43992,47696
45161,43843,47471
44957,43698,47260
44816,43583,47061
44712,43486,46889
44580,43374,46742
44442,43264,46597
44350,43182,46453
44276,43113,46335
44177,43041,46249
44094,42990,46180
44076,42983,46132
44087,42998,46118
44091,43021,46137
44129,43072,46176
44240,43163,46244
44382,43268,46361
44524,43375,46532
44712,43516,46758
44973,43708,47050
45270,43931,47416
45583,44179,47845
45957,44478,48328
46412,44832,48873
46903,45216,49486
47415,45623,50152
47991,46075,50851
48630,46564,51583
49259,47050,52351
49865,47524,53130
50495,48006,53897
51141,48486,54650
51743,48936,55395
52306,49367,56118
52889,49808,56806
53474,50245,57461
53992,50641,58075
54447,50992,58631
54892,51322,59126
55306,51624,59575
55631,51875,59987
55896,52087,60351
56163,52287,60667
56416,52469,60954
56605,52615,61217
56758,52743,61438
56928,52877,61619
57088,52991,61772
57192,53061,61893
57266,53106,61971
57345,53148,62012
57397,53166,62033
57385,53145,62040
57355,53119,62029
57347,53112,62004
57327,53095,61976
57272,53057,61945
57228,53020,61900
57221,52994,61844
57195,52949,61784
57126,52878,61713
57061,52813,61624
57022,52766,61535
56964,52713,61461
56878,52649,61391
56815,52608,61315
56786,52588,61242
56737,52555,61177
56661,52504,61106
56608,52466,61025
56573,52440,60941
56504,52393,60854
56404,52329,60757
56328,52273,60642
56267,52215,60520
56164,52130,60403
56037,52031,60285
55946,51950,60159
55878,51878,60045
55783,51796,59953
55684,51724,59877
55642,51689,59815
55635,51669,59773
55602,51635,59747
55560,51601,59723
55556,51590,59694
55560,51577,59666
55522,51541,59637
55464,51501,59591
55422,51475,59529
55367,51434,59462
55271,51360,59384
55165,51277,59287
55081,51206,59176
54991,51129,59073
54871,51040,58980
54768,50968,58883
54713,50927,58789
54656,50883,58703
54567,50821,58613
54479,50762,58501
54408,50704,58373
54304,50617,58244
54152,50501,58108
54007,50391,57952
53885,50292,57790
53736,50178,57633
53561,50052,57474
53419,49949,57311
53310,49864,57149
53178,49764,56991
53026,49653,56827
52906,49561,56650
52812,49476,56478
52676,49367,56319
52507,49240,56158
52368,49131,55990
52252,49036,55826
52102,48927,55667
51934,48817,55507
51807,48736,55345
51698,48661,55184
51545,48558,55014
51364,48433,54821
51207,48312,54608
51055,48183,54397
50856,48025,54188
50642,47865,53970
50464,47730,53752
50306,47610,53553
50127,47485,53375
49954,47366,53198
49826,47264,53019
49701,47156,52844
49544,47031,52670
49387,46913,52482
49256,46810,52283
49106,46691,52085
48916,46547,51886
48738,46418,51687
48599,46311,51500
48453,46198,51332
48287,46081,51177
48153,45992,51031
48065,45939,50906
47976,45888,50807
47878,45833,50721
47824,45800,50636
47807,45777,50548
47757,45727,50459
47672,45658,50363
47603,45597,50254
47547,45539,50136
47451,45459,50020
47324,45363,49900
47223,45281,49776
47135,45207,49657
47010,45117,49548
46867,45021,49434
46762,44949,49308
46677,44885,49178
46561,44800,49044
46430,44702,48899
46341,44621,48755
46284,44560,48646
46228,44510,48592
46221,44506,48608
46318,44584,48709
46492,44725,48905
46700,44910,49198
46976,45157,49573
47356,45477,50027
47792,45829,50558
48243,46190,51147
48736,46578,51769
49288,46994,52419
49845,47407,53097
50365,47807,53786
50892,48219,54465
51446,48636,55127
51974,49025,55775
52449,49376,56406
52917,49726,57008
53392,50079,57575
53822,50400,58110
54198,50689,58606
54564,50974,59050
54914,51239,59445
55193,51446,59788
55399,51599,60066
55580,51729,60272
55734,51832,60419
55805,51874,60525
55813,51873,60590
55821,51872,60611
55824,51862,60608
55771,51815,60593
55676,51753,60557
55604,51712,60504
55552,51681,60448
55474,51630,60392
55384,51577,60329
55331,51549,60256
55295,51526,60183
55227,51482,60111
55148,51430,60027
55105,51388,59931
55068,51340,59840
54991,51268,59749
54902,51196,59648
54836,51140,59544
54762,51076,59453
54648,50995,59369
54532,50920,59270
54442,50860,59153
54342,50787,59033
54208,50691,58910
54087,50606,58779
54003,50541,58643
53907,50463,58506
53777,50367,58355
53652,50284,58183
53547,50208,58008
53414,50096,57841
53234,49956,57667
53068,49837,57483
52940,49741,57318
52807,49633,57190
52673,49531,57093
52598,49476,57017
52582,49463,56976
52566,49454,56973
52544,49448,56980
52572,49471,56984
52640,49513,56999
52680,49538,57031
52691,49552,57054
52727,49583,57054
52771,49607,57041
52762,49587,57014
52713,49539,56971
52680,49496,56919
52652,49451,56875
52585,49387,56841
52510,49331,56809
52482,49310,56780
52464,49296,56756
52405,49262,56730
52332,49228,56678
52288,49212,56605
52235,49184,56520
52138,49122,56414
52027,49044,56275
51933,48968,56115
51815,48870,55950
51647,48738,55775
51477,48605,55580
51329,48483,55379
51168,48352,55187
50981,48207,55002
50820,48082,54824
50701,47987,54660
50576,47892,54516
50433,47794,54381
50323,47720,54242
50258,47662,54107
50172,47580,53979
50042,47476,53837
49916,47376,53666
49800,47274,53475
49643,47143,53283
49454,47005,53092
49293,46894,52898
49154,46796,52707
48987,46680,52529
48802,46558,52358
48661,46464,52186
48546,46385,52016
48397,46279,51844
48225,46156,51655
48077,46037,51444
47925,45908,51226
47717,45743,50998
47484,45568,50760
47281,45412,50519
47088,45259,50278
46869,45085,50037
46642,44915,49779
46439,44764,49507
46230,44608,49243
45990,44435,48993
45759,44272,48751
45571,44134,48516
45407,44012,48308
45241,43900,48136
45107,43818,47988
45032,43775,47868
44969,43740,47778
44892,43695,47700
44845,43662,47616
44839,43641,47529
44805,43595,47446
44725,43521,47361
44649,43456,47267
44588,43401,47167
44498,43331,47065
44375,43251,46961
44275,43190,46849
44198,43140,46734
44083,43065,46614
43929,42961,46473
43795,42861,46302
43678,42758,46118
43523,42629,45933
43345,42486,45744
43212,42366,45560
43120,42269,45407
43022,42185,45308
42960,42148,45279
43010,42199,45341
43158,42326,45513
43355,42504,45799
43623,42745,46177
44000,43061,46632
44451,43419,47167
44924,43791,47776
45445,44193,48430
46040,44636,49113
46655,45089,49827
47238,45531,50562
47818,45980,51305
48423,46442,52044
49011,46889,52778
49551,47308,53498
50087,47728,54194
50642,48158,54862
51166,48557,55500
51633,48906,56087
52079,49229,56606
52505,49532,57059
52859,49783,57460
53129,49982,57806
53365,50155,58086
53583,50301,58317
53741,50399,58514
53832,50462,58677
53919,50532,58810
54014,50612,58928
54071,50671,59043
54097,50713,59141
54147,50762,59210
54204,50807,59252
54205,50813,59267
54158,50786,59245
54120,50756,59189
54093,50722,59122
54029,50662,59065
53944,50592,59007
53901,50546,58946
53882,50518,58892
53831,50480,58848
53761,50435,58792
53726,50407,58716
53696,50372,58627
53612,50298,58520
53493,50204,58391
53389,50118,58251
53285,50035,58121
53145,49943,58005
53013,49862,57882
52936,49811,57757
52870,49759,57643
52774,49688,57537
52686,49622,57417
52630,49568,57283
52561,49499,57149
52450,49409,57018
52351,49331,56895
52288,49276,56796
52215,49219,56725
52119,49158,56668
52056,49120,56612
52039,49105,56559
52011,49081,56511
51955,49043,56467
51918,49017,56418
51903,48999,56366
51850,48961,56319
51761,48906,56275
51702,48867,56231
51676,48844,56193
51629,48807,56168
51575,48768,56143
51569,48758,56108
51592,48766,56075
51577,48756,56044
51523,48730,56000
51483,48710,55936
51448,48683,55869
51369,48627,55800
51268,48557,55718
51199,48500,55620
51138,48441,55515
51033,48360,55406
50908,48263,55272
50808,48169,55112
50701,48065,54949
50539,47937,54780
50364,47810,54599
50223,47705,54416
50086,47605,54247
49921,47493,54092
49774,47400,53943
49678,47341,53802
49582,47277,53675
49456,47186,53546
49340,47090,53395
49251,47002,53228
49133,46897,53056
48965,46765,52869
48803,46636,52665
48666,46519,52467
48505,46393,52287
48315,46262,52113
48155,46155,51938
48029,46063,51764
47882,45952,51590
47705,45825,51404
47549,45712,51198
47411,45604,50986
47234,45471,50782
47034,45328,50576
46871,45207,50365
46737,45093,50167
46574,44966,49993
46406,44852,49839
46300,44782,49702
46236,44737,49589
46156,44687,49497
46074,44637,49411
46033,44609,49320
46002,44579,49227
45927,44516,49128
45827,44440,49017
45751,44375,48897
45681,44308,48786
45572,44222,48685
45462,44142,48588
45399,44091,48499
45345,44044,48421
45260,43984,48347
45186,43937,48264
45156,43912,48177
45120,43873,48096
45048,43809,48016
44980,43751,47922
44940,43707,47819
44881,43656,47722
44785,43596,47632
44706,43556,47540
44665,43536,47457
44610,43507,47397
44525,43464,47341
44456,43424,47263
44405,43382,47160
44320,43310,47037
44201,43216,46900
44101,43129,46755
44023,43056,46617
43920,42979,46503
43806,42907,46410
43748,42872,46343
43745,42874,46327
43752,42894,46379
43793,42950,46491
43940,43073,46665
44183,43253,46914
44450,43456,47233
44740,43683,47601
45105,43954,48015
45529,44260,48494
45954,44580,49042
46399,44929,49643
46911,45328,50293
47459,45747,50981
47994,46159,51689
48537,46573,52390
49115,46997,53072
49674,47401,53740
50160,47760,54375
50609,48098,54955
51054,48428,55481
51457,48722,55968
51789,48969,56418
52097,49202,56826
52409,49434,57196
52685,49644,57541
52904,49820,57852
53110,49985,58114
53320,50141,58327
53483,50261,58496
53578,50332,58617
53649,50372,58682
53702,50385,58700
53688,50350,58688
53613,50279,58645
53543,50216,58573
53488,50167,58497
53396,50109,58433
53279,50046,58369
53200,50006,58295
53149,49980,58219
53064,49931,58147
52963,49869,58068
52903,49829,57973
52863,49799,57877
52780,49743,57787
52676,49671,57696
52605,49608,57597
52545,49545,57496
52449,49465,57399
52341,49387,57295
52267,49330,57181
52188,49265,57059
52058,49162,56920
51902,49042,56756
51765,48927,56579
51634,48813,56413
51480,48692,56262
51343,48593,56116
51260,48531,55981
51192,48474,55866
51109,48407,55763
51043,48354,55652
51012,48323,55542
50964,48278,55450
50872,48209,55370
50784,48147,55291
50718,48102,55213
50635,48052,55151
50531,47992,55101
50463,47951,55058
50445,47936,55027
50424,47923,55014
50385,47906,55004
50366,47898,54973
50361,47884,54926
50311,47833,54872
50220,47758,54802
50154,47700,54710
50108,47653,54611
50026,47589,54520
49924,47520,54432
49868,47476,54342
49835,47440,54245
49756,47379,54139
49643,47298,54019
49553,47223,53883
49469,47140,53741
49332,47023,53596
49161,46895,53438
49010,46785,53265
48857,46677,53087
48669,46550,52912
48481,46426,52733
48340,46328,52558
48216,46236,52389
48069,46132,52224
47921,46032,52048
47798,45942,51856
47665,45835,51658
47491,45700,51452
47312,45565,51230
47151,45440,51000
46973,45302,50781
46771,45149,50575
46591,45012,50371
46448,44901,50179
46287,44783,50005
46095,44652,49833
45931,44540,49657
45807,44446,49487
45667,44341,49331
45507,44233,49176
45390,44153,49018
45322,44094,48874
45236,44024,48743
45126,43943,48614
45041,43874,48477
44970,43807,48332
44860,43717,48189
44727,43620,48043
44628,43540,47891
44542,43465,47745
44411,43365,47610
44248,43253,47472
44113,43157,47323
43995,43071,47175
43843,42973,47031
43682,42878,46887
43574,42808,46746
43490,42746,46615
43381,42668,46495
43275,42593,46371
43212,42539,46240
43150,42481,46111
43043,42397,45976
42915,42300,45815
42792,42199,45627
42644,42075,45431
42450,41924,45228
42255,41777,45003
42080,41639,44764
41889,41489,44527
41664,41323,44297
41460,41164,44068
41300,41028,43852
41140,40903,43672
40979,40793,43532
40888,40737,43438
40885,40738,43405
40925,40771,43449
41000,40837,43572
41170,40967,43769
41439,41162,44046
41741,41391,44404
42068,41646,44829
42469,41947,45304
42925,42283,45824
43366,42617,46384
43791,42951,46967
44251,43307,47562
44730,43669,48170
45171,44008,48785
45581,44326,49372
46003,44643,49916
46412,44941,50427
46756,45200,50909
47062,45439,51349
47383,45686,51743
47694,45917,52100
47942,46102,52415
48142,46248,52671
48331,46374,52865
48476,46460,53010
48534,46489,53104
48549,46490,53142
48566,46485,53141
48562,46458,53127
48513,46406,53105
48462,46362,53071
48446,46346,53038
48424,46328,53009
48365,46295,52967
48316,46272,52903
48292,46261,52822
48242,46231,52738
48147,46175,52650
48062,46115,52550
48004,46059,52441
47920,45984,52326
47789,45893,52203
47666,45817,52077
47567,45752,51947
47449,45664,51814
47313,45564,51679
47227,45495,51548
47187,45453,51429
47122,45398,51321
47039,45325,51227
46994,45255,51145
46971,45197,51070
46907,45135,50997
46820,45079,50921
46771,45052,50846
46741,45039,50781
46676,45014,50731
46603,44989,50688
46576,44989,50649
46572,44995,50623
46546,44989,50613
46528,44989,50609
46565,45014,50612
46618,45041,50628
46639,45051,50655
46656,45063,50676
46703,45086,50683
46749,45104,50693
46755,45115,50713
46760,45146,50733
46803,45187,50761
46847,45210,50814
46866,45217,50877
46896,45236,50928
46956,45275,50977
46996,45308,51030
46994,45320,51067
46993,45329,51070
47006,45337,51043
46978,45315,51000
46896,45266,50941
46816,45218,50861
46749,45169,50771
46654,45101,50686
46538,45026,50605
46461,44978,50519
46421,44949,50434
46357,44906,50352
46271,44848,50255
46209,44794,50128
46156,44731,49989
46047,44631,49843
45897,44510,49681
45773,44403,49506
45666,44303,49337
45523,44187,49186
45369,44073,49040
45266,43990,48898
45189,43926,48768
45087,43858,48653
44987,43797,48540
44939,43762,48424
44903,43728,48319
44825,43671,48221
44735,43603,48111
44670,43539,47988
44597,43470,47871
44475,43381,47764
44341,43297,47657
44241,43238,47550
44151,43180,47451
44047,43107,47360
43973,43049,47274
43950,43020,47200
43927,42994,47147
43882,42961,47099
43857,42945,47042
43861,42946,46975
43841,42930,46904
43779,42889,46822
43719,42844,46719
43663,42795,46599
43560,42716,46473
43415,42610,46338
43287,42511,46193
43178,42421,46047
43038,42315,45915
42878,42205,45789
42764,42126,45663
42696,42079,45546
42613,42026,45444
42526,41970,45351
42497,41945,45275
42517,41947,45238
42531,41956,45256
42572,41997,45339
42710,42106,45495
42932,42269,45741
43184,42460,46081
43485,42699,46500
43883,43005,46983
44336,43347,47526
44786,43701,48119
45257,44073,48738
45782,44470,49368
46315,44868,50020
46809,45245,50680
47294,45615,51323
47796,45987,51944
48280,46339,52552
48718,46657,53145
49149,46968,53706
49594,47286,54231
50002,47581,54727
50349,47843,55184
50674,48091,55577
50995,48328,55909
51263,48524,56200
51460,48673,56451
51638,48804,56657
51809,48921,56828
51922,48999,56976
51981,49049,57094
52043,49103,57176
52107,49153,57236
52121,49172,57282
52094,49165,57300
52087,49164,57283
52096,49167,57249
52060,49143,57208
51989,49102,57147
51939,49071,57062
51900,49034,56963
51815,48964,56854
51700,48881,56732
51616,48812,56602
51551,48751,56485
51452,48673,56381
51345,48597,56282
51277,48548,56187
51218,48502,56100
51124,48437,56014
51025,48366,55907
50959,48305,55779
50887,48230,55646
50771,48128,55508
50646,48030,55353
50553,47952,55188
50461,47870,55035
50337,47773,54897
50226,47689,54767
50151,47628,54648
50075,47565,54555
49985,47500,54486
49923,47461,54432
49910,47456,54393
49892,47452,54371
49852,47432,54355
49837,47421,54333
49848,47421,54310
49837,47408,54299
49807,47386,54293
49810,47388,54282
49846,47413,54280
49852,47428,54294
49828,47434,54308
49838,47466,54314
49871,47507,54322
49862,47519,54335
49829,47507,54335
49832,47503,54320
49859,47500,54302
49845,47468,54278
49803,47416,54229
49786,47370,54154
49773,47324,54072
49711,47252,53986
49622,47170,53889
49553,47105,53786
49489,47047,53692
49389,46978,53606
49279,46913,53511
49202,46868,53402
49122,46816,53287
49000,46734,53162
48865,46643,53017
48755,46560,52854
48637,46465,52683
48482,46342,52500
48325,46216,52296
48191,46102,52082
48038,45975,51871
47842,45822,51662
47657,45679,51453
47513,45561,51264
47367,45447,51109
47209,45336,50974
47094,45260,50847
47033,45221,50740
46968,45183,50659
46894,45135,50593
46866,45101,50527
46867,45082,50459
46830,45056,50394
46760,45023,50327
46714,45004,50245
46681,44986,50155
46603,44943,50068
46498,44883,49976
46432,44841,49877
46387,44806,49777
46307,44749,49677
46203,44678,49560
46126,44615,49420
46051,44539,49271
45921,44427,49114
45762,44302,48949
45632,44198,48783
45511,44100,48629
45356,43990,48490
45199,43884,48346
45082,43801,48194
44971,43718,48043
44827,43618,47892
44682,43520,47727
44580,43439,47559
44488,43359,47412
44383,43279,47298
44322,43236,47227
44344,43253,47223
44418,43310,47306
44529,43406,47474
44726,43572,47718
45019,43806,48042
45344,44066,48441
45678,44337,48897
46068,44645,49395
46519,44990,49941
46971,45340,50543
47418,45690,51185
47926,46081,51856
48497,46519,52570
49067,46961,53322
49625,47403,54086
50222,47868,54838
50839,48341,55572
51403,48778,56275
51919,49179,56925
52444,49572,57521
52962,49942,58076
53404,50255,58589
53775,50522,59037
54132,50771,59418
54459,50993,59757
54706,51171,60070
54906,51330,60350
55122,51503,60601
55333,51674,60833
55492,51812,61042
55624,51930,61215
55768,52047,61353
55887,52133,61459
55941,52168,61531
55971,52180,61562
56014,52196,61564
56042,52199,61564
56024,52179,61569
56012,52171,61579
56040,52191,61602
56069,52210,61639
56075,52215,61676
56106,52236,61702
56172,52281,61724
56224,52318,61744
56241,52335,61750
56258,52346,61723
56277,52346,61673
56247,52306,61608
56163,52232,61523
56082,52162,61411
56012,52098,61284
55908,52014,61170
55783,51923,61065
55698,51859,60951
55645,51810,60835
55562,51743,60725
55449,51664,60605
55360,51600,60469
55291,51544,60338
55183,51467,60219
55049,51379,60101
54948,51311,59981
54871,51248,59871
54764,51163,59771
54644,51075,59668
54551,51004,59551
54441,50913,59408
54249,50764,59223
53991,50567,58972
53718,50346,58656
53406,50090,58303
53029,49792,57928
52643,49496,57543
52314,49240,57181
52032,49020,56879
51777,48836,56644
51590,48713,56461
51493,48651,56324
51428,48606,56229
51350,48554,56157
51293,48514,56085
51265,48486,56008
51209,48441,55930
51101,48373,55843
50991,48310,55736
50902,48262,55626
50799,48206,55530
50676,48141,55435
50588,48093,55327
50539,48057,55209
50458,47990,55075
50326,47885,54911
50192,47773,54713
50061,47651,54496
49889,47501,54289
49695,47348,54100
49547,47231,53928
49438,47144,53778
49313,47054,53655
49180,46968,53541
49094,46908,53428
49033,46855,53316
48932,46778,53199
48803,46687,53064
48704,46609,52910
48611,46533,52758
48471,46432,52614
48314,46331,52460
48187,46249,52291
48057,46156,52110
47884,46031,51917
47701,45903,51709
47555,45800,51504
47415,45701,51319
47253,45589,51145
47100,45480,50960
46987,45390,50771
46873,45296,50597
46724,45179,50427
46584,45066,50252
46474,44970,50078
46348,44867,49914
46186,44747,49749
46036,44632,49571
45906,44524,49385
45743,44390,49197
45541,44231,48998
45361,44090,48787
45221,43981,48585
45070,43879,48414
44905,43780,48263
44787,43708,48119
44716,43656,47986
44620,43576,47856
44490,43468,47708
44367,43359,47525
44225,43233,47308
44005,43059,47063
43735,42858,46794
43501,42680,46526
43317,42538,46294
43146,42423,46123
43019,42353,46015
43001,42356,45981
43071,42422,46043
43173,42519,46201
43330,42659,46439
43583,42865,46746
43896,43112,47131
44215,43368,47580
44560,43645,48072
44963,43961,48595
45385,44289,49148
45778,44606,49717
46177,44930,50280
46615,45272,50838
47038,45591,51393
47409,45868,51928
47766,46128,52419
48127,46381,52866
48450,46603,53284
48715,46796,53669
48967,46992,54011
49224,47191,54314
49434,47356,54588
49581,47485,54821
49720,47613,55010
49880,47748,55180
50018,47856,55344
50129,47940,55493
50262,48035,55630
50413,48140,55765
50520,48218,55899
50581,48268,56011
50649,48318,56088
50721,48357,56139
50737,48359,56170
50715,48343,56181
50725,48345,56177
50764,48355,56179
50773,48345,56193
50767,48336,56210
50804,48363,56228
50861,48401,56251
50864,48407,56271
50830,48391,56268
50806,48376,56232
50752,48328,56153
50617,48217,56025
50439,48067,55839
50271,47910,55607
50090,47738,55353
49862,47545,55089
49630,47361,54826
49439,47206,54577
49260,47057,54356
49059,46902,54154
48872,46765,53953
48718,46651,53749
48549,46530,53547
48336,46384,53327
48115,46228,53066
47902,46065,52769
47646,45862,52451
47334,45622,52115
47024,45382,51767
46737,45152,51421
46434,44917,51093
46122,44689,50783
45859,44499,50487
45646,44341,50214
45424,44175,49965
45187,43999,49722
44982,43838,49467
44803,43686,49215
44595,43515,48984
44367,43341,48767
44177,43199,48557
44013,43075,48355
43824,42940,48164
43622,42805,47974
43465,42697,47783
43337,42599,47600
43177,42477,47421
42995,42343,47229
42838,42221,47025
42686,42105,46834
42498,41976,46661
42311,41859,46494
42175,41777,46337
42058,41703,46195
41917,41612,46060
41785,41526,45917
41700,41460,45762
41609,41383,45602
41472,41277,45428
41332,41172,45239
41227,41083,45053
41119,40988,44889
40984,40883,44746
40868,40800,44624
40804,40750,44526
40754,40710,44456
40693,40670,44401
40658,40653,44348
40663,40659,44298
40656,40655,44258
40625,40632,44221
40622,40616,44182
40646,40606,44144
40642,40580,44126
40610,40552,44122
40606,40549,44116
40632,40568,44111
40625,40572,44107
40583,40554,44078
40553,40539,44011
40525,40516,43924
40438,40451,43818
40309,40360,43688
40194,40274,43533
40080,40182,43364
39913,40058,43182
39716,39918,42978
39540,39793,42754
39363,39667,42518
39137,39512,42270
38895,39339,42001
38682,39171,41705
38455,38987,41391
38166,38764,41059
37849,38531,40702
37557,38313,40331
37270,38103,39978
36965,37893,39653
36688,37711,39351
36475,37572,39076
36287,37447,38833
36101,37325,38620
35959,37230,38427
35875,37168,38263
35802,37111,38142
35721,37053,38058
35676,37029,37997
35689,37047,37969
35714,37080,37990
35738,37124,38050
35814,37204,38130
35952,37321,38238
36098,37442,38386
36254,37566,38562
36469,37721,38755
36738,37907,38984
37012,38103,39279
37302,38322,39646
37668,38591,40080
38100,38907,40589
38546,39250,41172
39024,39625,41813
39587,40054,42499
40204,40515,43232
40809,40976,44003
41410,41437,44786
42054,41917,45566
42712,42397,46351
43324,42848,47136
43913,43296,47915
44521,43767,48685
45125,44236,49443
45680,44671,50173
46208,45087,50854
46745,45504,51492
47256,45895,52095
47702,46235,52653
48109,46538,53145
48499,46813,53568
48837,47048,53953
49096,47237,54307
49326,47407,54618
49563,47571,54893
49761,47703,55135
49901,47799,55339
50031,47890,55497
50172,47978,55617
50275,48038,55710
50333,48079,55790
50404,48129,55857
50505,48194,55926
50581,48249,56011
50631,48295,56107
50716,48363,56204
50839,48448,56313
50943,48517,56438
51031,48578,56561
51155,48661,56665
51296,48745,56748
51377,48784,56805
51400,48783,56830
51418,48777,56820
51417,48755,56784
51348,48693,56730
51242,48615,56652
51164,48550,56548
51093,48479,56431
50974,48378,56305
50830,48264,56155
50708,48159,55983
50576,48044,55801
50392,47903,55611
50203,47765,55421
50058,47654,55242
49933,47556,55093
49800,47461,54964
49690,47385,54838
49629,47335,54716
49569,47271,54595
49471,47176,54466
49362,47069,54315
49260,46957,54146
49129,46829,53979
48957,46686,53817
48800,46561,53654
48684,46464,53499
48560,46364,53354
48412,46257,53213
48284,46168,53067
48188,46093,52921
48064,45993,52777
47904,45870,52625
47764,45764,52468
47645,45674,52323
47496,45572,52197
47326,45460,52066
47196,45367,51923
47099,45288,51774
46969,45188,51618
46816,45077,51454
46697,44977,51284
46596,44877,51122
46459,44758,50976
46308,44642,50837
46202,44559,50702
46121,44495,50578
46009,44424,50466
45883,44351,50352
45788,44294,50227
45697,44232,50088
45563,44141,49928
45408,44031,49735
45272,43916,49515
45128,43787,49286
44935,43634,49051
44737,43485,48806
44569,43355,48563
44393,43216,48330
44183,43057,48103
43983,42909,47877
43825,42785,47655
43663,42657,47446
43472,42515,47243
43296,42385,47031
43148,42271,46810
42981,42143,46589
42775,41993,46370
42582,41853,46149
42412,41726,45930
42220,41588,45724
42007,41448,45529
41827,41332,45330
41686,41237,45135
41529,41130,44950
41356,41010,44762
41216,40899,44565
41093,40790,44369
40930,40664,44185
40748,40539,44009
40616,40451,43845
40525,40392,43710
40424,40337,43608
40330,40296,43520
40305,40291,43445
40319,40298,43387
40301,40282,43338
40267,40260,43286
40268,40262,43237
40289,40279,43215
40289,40296,43228
40302,40328,43258
40370,40391,43304
40448,40451,43361
40489,40483,43414
40521,40507,43444
40574,40535,43449
40614,40551,43451
40607,40542,43450
40602,40536,43436
40631,40551,43414
40642,40554,43391
40609,40533,43354
40581,40515,43295
40581,40508,43233
40565,40491,43197
40534,40479,43205
40567,40524,43266
40690,40631,43397
40856,40773,43609
41061,40950,43894
41346,41175,44231
41702,41436,44620
42060,41694,45065
42410,41949,45554
42815,42244,46080
43279,42581,46654
43744,42928,47272
44203,43281,47905
44699,43664,48531
45214,44056,49151
45678,44412,49756
46100,44742,50337
46532,45077,50888
46954,45395,51411
47308,45663,51900
47611,45897,52338
47912,46122,52721
48179,46315,53057
48365,46454,53344
48500,46558,53563
48634,46647,53713
48734,46695,53801
48756,46687,53836
48726,46646,53811
48684,46587,53734
48605,46501,53630
48463,46383,53505
48310,46270,53357
48183,46176,53200
48049,46082,53054
47889,45979,52913
47746,45885,52762
47642,45801,52608
47523,45692,52459
47366,45555,52304
47224,45427,52145
47105,45325,51982
46950,45222,51813
46757,45109,51641
46590,45013,51469
46452,44928,51297
46284,44816,51122
46083,44682,50932
45907,44560,50718
45764,44448,50494
45593,44311,50271
45392,44155,50036
45213,44012,49784
45047,43874,49533
44847,43717,49299
44641,43567,49087
44497,43462,48900
44396,43381,48740
44273,43288,48609
44143,43202,48490
44063,43149,48373
44011,43112,48264
43935,43062,48165
43854,43013,48073
43814,42987,47994
43797,42968,47945
43758,42937,47920
43721,42916,47901
43723,42925,47891
43733,42944,47903
43720,42950,47922
43717,42959,47931
43750,42984,47942
43770,42992,47956
43744,42976,47951
43718,42963,47914
43709,42956,47857
43672,42923,47792
43600,42866,47724
43544,42819,47659
43518,42791,47607
43474,42752,47569
43408,42707,47530
43376,42689,47486
43381,42695,47445
43372,42687,47418
43341,42665,47392
43337,42658,47347
43356,42663,47292
43334,42642,47236
43277,42605,47177
43247,42585,47116
43232,42571,47061
43182,42533,47018
43116,42490,46981
43094,42476,46945
43102,42478,46911
43082,42465,46874
43038,42435,46816
43010,42405,46730
42978,42367,46630
42893,42303,46523
42786,42232,46407
42713,42184,46293
42644,42139,46194
42534,42075,46106
42428,42017,46020
42377,41988,45934
42339,41960,45849
42267,41909,45760
42192,41856,45655
42143,41810,45530
42075,41746,45400
41960,41657,45268
41840,41565,45114
41742,41474,44943
41621,41359,44772
41453,41218,44593
41294,41089,44400
41167,40984,44216
41029,40877,44059
40869,40770,43916
40728,40693,43761
40613,40636,43605
40479,40559,43461
40320,40454,43311
40185,40350,43141
40063,40245,42960
39896,40112,42774
39694,39963,42575
39525,39830,42358
39383,39705,42132
39207,39556,41903
39014,39404,41671
38866,39282,41440
38736,39180,41232
38567,39074,41066
38402,38986,40941
38320,38952,40859
38316,38962,40843
38346,38996,40904
38431,39072,41030
38616,39211,41217
38867,39387,41477
39131,39576,41802
39424,39794,42176
39781,40054,42591
40178,40339,43063
40573,40630,43588
40984,40942,44140
41436,41284,44710
41886,41629,45300
42301,41957,45904
42718,42284,46497
43157,42618,47067
43558,42928,47603
43882,43192,48085
44173,43422,48493
44454,43625,48832
44676,43779,49118
44820,43884,49354
44945,43973,49539
45069,44054,49689
45144,44101,49814
45169,44120,49907
45200,44147,49963
45244,44182,49996
45246,44192,50016
45206,44180,50008
45183,44174,49966
45173,44173,49907
45120,44147,49845
45036,44099,49773
44986,44064,49692
44962,44032,49616
44901,43970,49537
44800,43883,49438
44709,43802,49316
44622,43721,49185
44493,43614,49051
44350,43506,48911
44246,43428,48771
44149,43359,48637
44008,43267,48500
43856,43166,48338
43734,43073,48152
43606,42964,47955
43428,42821,47745
43234,42669,47509
43066,42528,47259
42899,42386,47025
42703,42235,46816
42529,42109,46629
42409,42024,46467
42304,41955,46344
42195,41891,46252
42120,41851,46168
42094,41834,46090
42065,41807,46029
42012,41766,45970
41970,41731,45890
41943,41701,45797
41884,41653,45711
41790,41592,45633
41722,41552,45557
41687,41532,45495
41631,41502,45459
41553,41469,45435
41518,41462,45406
41517,41465,45375
41485,41445,45342
41426,41408,45296
41394,41380,45232
41383,41347,45163
41330,41279,45093
41242,41196,45013
41180,41133,44923
41134,41079,44832
41053,41009,44741
40956,40944,44645
40898,40909,44548
40850,40880,44454
40757,40822,44354
40641,40745,44223
40548,40671,44062
40448,40585,43898
40298,40470,43732
40134,40353,43551
39999,40255,43359
39868,40163,43174
39703,40058,42995
39538,39954,42808
39407,39863,42617
39272,39763,42433
39104,39648,42248
38944,39540,42046
38813,39438,41830
38653,39307,41610
38442,39142,41384
38233,38982,41147
38053,38838,40907
37859,38687,40682
37645,38530,40469
37469,38398,40261
37337,38291,40069
37188,38182,39899
37019,38072,39738
36885,37985,39571
36786,37914,39398
36663,37822,39221
36511,37710,39031
36380,37603,38820
36261,37490,38603
36095,37346,38392
35899,37198,38188
35740,37085,37994
35608,36994,37818
35458,36899,37663
35310,36809,37511
35211,36745,37354
35131,36683,37204
35014,36595,37065
34886,36500,36924
34793,36422,36783
34712,36355,36662
34599,36279,36558
34488,36211,36449
34418,36162,36339
34345,36106,36233
34231,36024,36120
34116,35938,35981
34031,35860,35820
33933,35766,35657
33795,35649,35503
33676,35552,35366
33619,35500,35278
33599,35480,35265
33616,35501,35336
33726,35598,35501
33947,35773,35769
34233,36002,36143
34570,36278,36606
34997,36619,37135
35504,37005,37723
36013,37390,38358
36502,37761,39016
37020,38142,39673
37565,38525,40325
38070,38878,40976
38524,39209,41620
38985,39550,42240
39446,39892,42836
39852,40200,43406
40209,40480,43932
40571,40758,44404
40918,41015,44823
41185,41216,45187
41379,41371,45480
41555,41503,45696
41696,41602,45854
41750,41643,45961
41745,41651,46020
41741,41659,46041
41724,41651,46039
41651,41605,46014
41554,41547,45958
41485,41506,45877
41410,41456,45783
41292,41380,45679
41171,41302,45557
41088,41240,45423
40998,41165,45295
40874,41068,45171
40766,40983,45047
40701,40923,44929
40636,40863,44830
40555,40798,44752
40503,40763,44694
40489,40760,44659
40459,40755,44644
40397,40740,44620
40353,40725,44562
40339,40703,44489
40304,40656,44418
40231,40594,44339
40176,40555,44246
40145,40537,44159
40092,40510,44095
40021,40480,44045
39993,40473,43994
40004,40478,43944
39988,40461,43897
39947,40426,43841
39936,40401,43766
39939,40381,43690
39895,40340,43625
39832,40298,43570
39819,40283,43529
39833,40276,43506
39821,40255,43501
39801,40237,43501
39823,40246,43505
39859,40262,43514
39855,40259,43522
39836,40251,43510
39845,40255,43478
39856,40256,43450
39825,40243,43434
39797,40240,43427
39818,40267,43434
39853,40296,43455
39865,40309,43479
39887,40327,43496
39945,40361,43507
39983,40377,43515
39975,40365,43510
39963,40355,43485
39966,40357,43452
39950,40347,43429
39908,40321,43411
39890,40307,43383
39901,40305,43343
39884,40286,43298
39828,40242,43237
39783,40196,43142
39745,40146,43018
39648,40061,42877
39494,39947,42714
39352,39842,42528
39224,39741,42334
39062,39623,42155
38892,39507,41996
38780,39426,41855
38707,39371,41737
38613,39309,41643
38513,39245,41553
38465,39210,41460
38447,39184,41373
38395,39133,41294
38330,39081,41214
38307,39059,41133
38299,39050,41071
38257,39030,41030
38217,39020,41000
38227,39040,40981
38251,39061,40976
38247,39063,40980
38249,39066,40977
38292,39088,40968
38334,39106,40959
38337,39103,40941
38336,39096,40906
38353,39092,40863
38354,39073,40827
38324,39041,40796
38306,39022,40760
38312,39018,40723
38300,39005,40701
38261,38987,40689
38248,38990,40672
38271,39007,40648
38275,39001,40621
38238,38970,40584
38213,38947,40528
38210,38934,40472
38177,38910,40436
38112,38872,40403
38076,38850,40361
38066,38835,40309
38023,38796,40249
37949,38737,40166
37896,38686,40051
37851,38635,39919
37751,38552,39778
37618,38447,39631
37526,38360,39491
37468,38296,39386
37402,38245,39342
37374,38236,39362
37449,38305,39458
37612,38439,39644
37814,38612,39922
38073,38832,40275
38432,39109,40698
38852,39426,41206
39284,39765,41793
39767,40146,42446
40338,40583,43156
40949,41042,43914
41547,41495,44700
42154,41962,45483
42791,42450,46254
43403,42917,47009
43948,43339,47725
44454,43728,48374
44931,44086,48955
45326,44383,49472
45621,44610,49915
45873,44801,50279
46106,44966,50578
46278,45082,50830
46394,45162,51040
46513,45243,51208
46643,45325,51341
46728,45380,51446
46760,45406,51517
46797,45431,51545
46838,45451,51550
46824,45435,51550
46764,45395,51539
46724,45368,51513
46702,45350,51484
46648,45316,51457
46577,45277,51421
46549,45266,51371
46547,45256,51315
46505,45210,51250
46433,45143,51166
46385,45086,51066
46341,45030,50974
46252,44956,50890
46151,44885,50804
46088,44844,50719
46032,44808,50644
45942,44753,50572
45851,44699,50486
45800,44665,50385
45745,44622,50281
45650,44555,50168
45552,44484,50037
45482,44417,49892
45400,44333,49752
45277,44226,49619
45156,44127,49486
45069,44052,49359
44982,43980,49252
44873,43905,49157
44783,43845,49059
44726,43799,48957
44652,43737,48858
44548,43662,48756
44463,43599,48647
44408,43544,48538
44337,43475,48444
44253,43409,48369
44214,43378,48309
44222,43375,48269
44213,43367,48250
44181,43355,48230
44180,43360,48199
44204,43367,48171
44192,43344,48150
44146,43308,48119
44118,43290,48069
44091,43273,48011
44007,43217,47945
43888,43137,47858
43793,43063,47748
43702,42986,47627
43573,42889,47506
43440,42794,47384
43353,42731,47261
43279,42672,47135
43166,42583,46996
43038,42480,46833
42935,42389,46645
42823,42288,46448
42661,42162,46248
42487,42039,46040
42344,41932,45833
42206,41821,45651
42048,41702,45497
41910,41602,45351
41813,41529,45211
41710,41453,45081
41580,41361,44947
41462,41271,44794
41372,41182,44620
41258,41065,44438
41095,40923,44245
40926,40791,44033
40769,40671,43813
40580,40538,43598
40360,40396,43386
40173,40282,43181
40034,40196,42993
39884,40109,42829
39725,40019,42681
39614,39951,42540
39544,39893,42409
39454,39814,42283
39347,39725,42151
39277,39658,42012
39231,39601,41885
39143,39522,41775
39026,39431,41662
38932,39353,41531
38845,39277,41390
38720,39184,41252
38581,39094,41117
38487,39032,40984
38416,38983,40865
38323,38926,40761
38230,38874,40651
38171,38835,40531
38109,38786,40411
38009,38711,40297
37911,38639,40187
37856,38593,40086
37814,38553,40010
37757,38509,39955
37720,38487,39900
37727,38493,39851
37728,38488,39813
37692,38458,39772
37653,38428,39705
37625,38397,39614
37554,38334,39509
37432,38243,39394
37321,38163,39267
37243,38101,39149
37166,38049,39073
37102,38021,39050
37126,38055,39085
37256,38153,39201
37431,38281,39406
37643,38445,39685
37940,38667,40024
38315,38935,40437
38704,39217,40934
39109,39527,41498
39587,39897,42107
40123,40310,42769
40656,40728,43487
41180,41149,44233
41741,41593,44984
42321,42041,45729
42856,42463,46452
43345,42857,47123
43830,43232,47726
44281,43572,48280
44642,43849,48789
44937,44079,49230
45214,44290,49604
45456,44474,49931
45628,44612,50211
45767,44727,50437
45915,44842,50617
46038,44934,50757
46101,44979,50855
46134,44999,50900
46170,45016,50899
46172,45008,50874
46116,44965,50827
46047,44911,50751
45989,44853,50662
45902,44772,50576
45774,44671,50488
45659,44587,50395
45587,44528,50309
45516,44464,50234
45422,44388,50152
45346,44325,50049
45297,44274,49934
45218,44200,49814
45104,44110,49683
45003,44029,49534
44913,43949,49374
44785,43851,49222
44633,43753,49085
44523,43694,48956
44459,43663,48831
44386,43622,48707
44298,43566,48578
44241,43516,48440
44187,43473,48302
44070,43416,48169
43932,43350,48042
43840,43294,47928
43776,43244,47837
43688,43180,47770
43599,43113,47705
43558,43069,47636
43533,43026,47569
43472,42960,47500
43400,42890,47418
43356,42837,47328
43310,42784,47254
43228,42717,47200
43156,42669,47156
43133,42660,47122
43120,42655,47099
43083,42637,47079
43061,42631,47048
43071,42637,47009
43053,42613,46960
42979,42545,46886
42900,42466,46780
42832,42395,46654
42736,42309,46532
42610,42216,46421
42508,42150,46316
42439,42104,46218
42349,42046,46130
42228,41973,46029
42123,41906,45899
42034,41837,45749
41900,41735,45589
41725,41609,45414
41568,41495,45221
41424,41386,45021
41248,41259,44830
41062,41128,44648
40924,41026,44467
40816,40935,44293
40678,40825,44127
40524,40707,43954
40409,40607,43769
40312,40515,43593
40181,40409,43437
40045,40310,43293
39954,40245,43162
39880,40193,43044
39781,40126,42930
39676,40049,42800
39604,39979,42648
39529,39901,42493
39407,39801,42341
39276,39703,42185
39178,39626,42031
39086,39553,41895
38973,39477,41780
38885,39427,41684
38846,39409,41615
38813,39390,41570
38760,39357,41532
38727,39333,41475
38728,39323,41400
38708,39295,41321
38641,39242,41235
38581,39201,41145
38549,39179,41070
38498,39147,41013
38425,39103,40958
38379,39068,40888
38353,39037,40805
38281,38979,40712
38169,38903,40605
38075,38839,40478
38002,38780,40348
37900,38705,40232
37783,38627,40125
37715,38578,40026
37678,38548,39938
37614,38507,39860
37528,38452,39772
37468,38404,39663
37418,38358,39553
37326,38292,39446
37220,38223,39338
37157,38178,39238
37111,38146,39153
37033,38099,39077
36946,38046,38990
36892,38000,38890
36832,37939,38790
36724,37852,38684
36605,37759,38552
36514,37672,38391
36416,37580,38232
36285,37478,38100
36189,37408,38005
36181,37407,37976
36234,37458,38042
36334,37554,38215
36537,37717,38488
36863,37948,38863
37252,38216,39335
37664,38512,39876
38134,38863,40465
38665,39257,41103
39202,39657,41787
39726,40063,42504
40280,40498,43231
40862,40948,43958
41402,41371,44673
41890,41757,45346
42370,42124,45958
42828,42464,46515
43201,42749,47029
43508,42994,47495
43814,43230,47908
44109,43447,48276
44340,43622,48608
44521,43771,48895
44712,43918,49135
44892,44044,49330
45003,44121,49480
45063,44168,49576
45128,44212,49619
45174,44237,49628
45148,44220,49612
45079,44181,49564
45017,44145,49488
44951,44103,49411
44849,44041,49337
44744,43983,49255
44686,43949,49167
44639,43914,49080
44558,43865,48996
44478,43818,48905
44434,43781,48805
44375,43731,48700
44263,43653,48585
44147,43568,48452
44057,43487,48312
43947,43387,48179
43803,43269,48054
43678,43173,47931
43594,43103,47814
43501,43030,47710
43388,42950,47607
43304,42889,47487
43254,42844,47358
43176,42777,47223
43057,42681,47071
42952,42586,46900
42866,42494,46730
42741,42384,46575
42589,42268,46433
42476,42180,46304
42397,42122,46202
42302,42065,46122
42209,42014,46046
42178,41992,45969
42183,41983,45905
42154,41954,45854
42105,41914,45803
42087,41890,45749
42085,41872,45713
42049,41840,45697
42007,41815,45687
42010,41825,45687
42033,41850,45710
42030,41866,45753
42031,41889,45795
42079,41934,45826
42135,41973,45847
42150,41981,45855
42144,41973,45835
42146,41958,45783
42119,41907,45705
42030,41814,45598
41925,41717,45463
41833,41632,45315
41713,41534,45170
41554,41422,45025
41408,41328,44868
41295,41257,44708
41171,41179,44554
41022,41085,44397
40891,40994,44219
40786,40902,44032
40643,40781,43845
40456,40635,43649
40282,40496,43441
40122,40367,43231
39934,40231,43035
39735,40103,42856
39581,40003,42682
39466,39920,42508
39333,39821,42333
39185,39712,42145
39070,39614,41943
38970,39522,41751
38826,39414,41578
38661,39302,41412
38530,39214,41254
38413,39134,41105
38263,39033,40962
38108,38927,40810
37998,38841,40648
37901,38755,40489
37767,38648,40330
37623,38532,40151
37503,38423,39947
37367,38302,39737
37179,38153,39527
36987,38006,39313
36834,37883,39102
36685,37768,38907
36512,37655,38734
36362,37565,38573
36269,37501,38428
36182,37429,38296
36067,37335,38160
35958,37244,38003
35867,37162,37831
35746,37063,37658
35584,36943,37486
35437,36832,37309
35325,36742,37138
35202,36650,36989
35055,36551,36850
34943,36478,36713
34875,36434,36586
34798,36387,36475
34711,36338,36369
34666,36308,36259
34644,36283,36158
34576,36228,36070
34469,36151,35983
34385,36085,35889
34313,36024,35790
34198,35943,35687
34061,35855,35572
33961,35786,35444
33878,35722,35311
33762,35638,35175
33633,35549,35028
33549,35481,34879
33496,35431,34759
33435,35389,34686
33414,35389,34679
33495,35465,34763
33667,35601,34965
33899,35786,35292
34226,36038,35725
34680,36369,36254
35200,36743,36869
35725,37132,37542
36274,37546,38237
36859,37977,38936
37425,38394,39642
37937,38781,40341
38435,39159,41014
38940,39539,41665
39416,39894,42299
39850,40221,42911
40275,40542,43481
40697,40862,44010
41063,41146,44497
41355,41377,44932
41625,41579,45304
41889,41762,45623
42098,41908,45908
42247,42021,46155
42393,42131,46357
42535,42236,46529
42622,42311,46680
42667,42363,46798
42735,42420,46875
42815,42469,46917
42831,42476,46918
42789,42444,46874
42754,42409,46791
42719,42368,46691
42636,42298,46593
42530,42224,46496
42460,42175,46404
42403,42131,46319
42310,42072,46233
42203,42006,46126
42129,41949,46000
42053,41883,45865
41931,41788,45723
41796,41685,45565
41687,41592,45398
41574,41497,45239
41421,41388,45091
41276,41294,44948
41176,41231,44819
41086,41171,44714
40979,41100,44621
40891,41032,44515
40838,40976,44400
40769,40911,44281
40659,40826,44149
40551,40749,43998
40463,40681,43841
40355,40599,43699
40227,40509,43571
40133,40444,43456
40084,40409,43368
40038,40380,43322
39995,40357,43304
40011,40371,43299
40076,40414,43314
40130,40449,43355
40173,40481,43408
40246,40538,43461
40336,40602,43519
40387,40641,43586
40411,40664,43648
40464,40702,43708
40528,40743,43771
40546,40759,43827
40536,40757,43853
40552,40760,43845
40570,40754,43816
40534,40720,43769
40474,40681,43712
40444,40662,43656
40423,40646,43614
40372,40615,43581
40322,40587,43538
40306,40575,43488
40284,40552,43427
40221,40500,43349
40148,40437,43250
40090,40376,43134
40018,40304,43019
39907,40221,42908
39804,40156,42791
39741,40112,42675
39673,40062,42568
39566,39993,42458
39457,39919,42316
39360,39842,42148
39227,39739,41976
39045,39610,41799
38873,39487,41610
38728,39377,41418
38570,39262,41236
38401,39142,41058
38265,39036,40870
38155,38935,40674
38009,38810,40476
37828,38669,40271
37669,38539,40057
37540,38422,39852
37394,38303,39674
37236,38197,39526
37127,38131,39400
37056,38084,39297
36965,38024,39210
36868,37963,39119
36818,37925,39018
36787,37892,38914
36712,37830,38800
36607,37752,38663
36521,37678,38507
36439,37602,38358
36315,37508,38223
36182,37419,38093
36093,37362,37974
36012,37309,37865
35901,37242,37757
35786,37172,37629
35700,37108,37482
35606,37028,37342
35474,36926,37212
35355,36835,37079
35278,36768,36952
35196,36700,36839
35078,36617,36727
34973,36541,36602
34905,36480,36470
34818,36405,36339
34689,36311,36204
34572,36225,36063
34486,36154,35922
34382,36073,35795
34248,35982,35673
34146,35910,35550
34091,35866,35440
34032,35826,35357
33975,35792,35304
33986,35802,35296
34077,35863,35369
34210,35967,35553
34414,36131,35851
34746,36383,36256
35182,36704,36761
35647,37056,37348
36135,37431,37980
36689,37843,38641
37282,38273,39335
37844,38687,40049
38380,39099,40764
38934,39524,41472
39483,39940,42169
39974,40324,42846
40427,40681,43477
40887,41026,44050
41313,41328,44568
41650,41563,45025
41926,41757,45415
42178,41930,45740
42384,42073,46018
42519,42179,46252
42629,42277,46435
42751,42383,46582
42852,42470,46710
42905,42524,46810
42946,42562,46863
42995,42588,46874
42998,42578,46852
42935,42530,46792
42860,42473,46698
42794,42413,46590
42697,42333,46488
42565,42246,46387
42462,42183,46282
42398,42138,46181
42325,42085,46095
42246,42033,46013
42206,42001,45925
42201,41979,45840
42165,41935,45762
42095,41876,45673
42052,41838,45568
42019,41811,45467
41937,41761,45375
41822,41691,45277
41735,41630,45162
41664,41570,45035
41549,41479,44895
41409,41373,44740
41303,41286,44583
41217,41209,44445
41107,41123,44329
41003,41053,44229
40958,41025,44151
40944,41014,44101
40916,40994,44071
40891,40974,44033
40903,40965,43978
40912,40949,43923
40878,40908,43872
40837,40868,43817
40823,40849,43769
40809,40837,43747
40770,40824,43748
40749,40827,43750
40772,40850,43748
40786,40860,43747
40759,40840,43733
40726,40809,43689
40701,40771,43627
40645,40712,43571
40557,40643,43520
40499,40602,43465
40484,40588,43418
40454,40569,43389
40399,40535,43359
40369,40512,43313
40361,40495,43257
40313,40454,43206
40232,40397,43149
40174,40354,43080
40133,40317,43008
40061,40268,42942
39974,40215,42872
39936,40184,42794
39924,40164,42715
39868,40120,42628
39775,40054,42523
39697,39991,42395
39621,39926,42261
39495,39840,42129
39354,39749,41988
39253,39674,41833
39154,39588,41663
39005,39470,41477
38836,39340,41264
38690,39222,41031
38543,39107,40808
38359,38986,40593
38184,38878,40380
38054,38791,40192
37934,38706,40039
37804,38618,39904
37699,38541,39771
37636,38481,39641
37557,38409,39514
37430,38317,39385
37308,38232,39248
37216,38163,39109
37110,38086,38980
36979,37998,38852
36873,37924,38716
36802,37868,38582
36706,37796,38458
36575,37703,38329
36468,37615,38182
36391,37529,38029
36290,37433,37894
36171,37342,37781
36091,37283,37678
36047,37245,37586
35979,37199,37506
35890,37144,37423
35833,37103,37331
35799,37064,37238
35729,36997,37144
35635,36915,37037
35567,36846,36914
35508,36783,36798
35410,36711,36704
35313,36653,36626
35284,36640,36577
35310,36660,36581
35361,36705,36657
35478,36803,36806
35708,36974,37042
36016,37196,37377
36360,37454,37808
36761,37761,38313
37243,38120,38885
37761,38508,39524
38277,38912,40216
38826,39355,40942
39429,39833,41697
40028,40303,42478
40589,40750,43263
41155,41192,44023
41742,41629,44743
42290,42028,45421
42765,42382,46048
43206,42708,46602
43619,42998,47084
43947,43225,47507
44182,43398,47868
44386,43556,48165
44571,43697,48409
44692,43796,48617
44760,43862,48779
44830,43920,48880
44895,43961,48931
44894,43953,48939
44831,43906,48900
44764,43845,48815
44694,43773,48708
44566,43676,48592
44396,43565,48454
44253,43470,48297
44133,43384,48133
43988,43281,47967
43832,43174,47789
43722,43087,47602
43629,43005,47419
43496,42899,47237
43344,42782,47045
43219,42670,46846
43095,42551,46656
42927,42408,46475
42756,42273,46301
42633,42175,46140
42528,42093,45997
42401,42007,45863
42287,41929,45722
42215,41862,45583
42135,41782,45455
42012,41681,45329
41894,41592,45199
41814,41528,45080
41737,41466,44985
41648,41402,44911
41595,41363,44846
41588,41352,44789
41576,41339,44744
41547,41319,44704
41539,41309,44660
41553,41304,44622
41540,41281,44605
41504,41253,44602
41514,41258,44607
41571,41292,44633
41613,41324,44686
41646,41362,44746
41719,41423,44797
41809,41483,44837
41849,41503,44869
41853,41497,44883
41873,41499,44877
41893,41504,44869
41862,41487,44863
41803,41462,44849
41773,41458,44821
41753,41452,44785
41694,41416,44735
41611,41361,44655
41549,41305,44544
41483,41240,44429
41366,41147,44314
41234,41050,44190
41140,40970,44061
41052,40895,43934
40933,40812,43810
40817,40740,43678
40740,40684,43537
40650,40611,43387
40508,40505,43219
40350,40389,43022
40202,40269,42800
40025,40120,42572
39803,39948,42340
39597,39795,42105
39438,39673,41884
39274,39550,41686
39088,39421,41495
38931,39309,41297
38810,39212,41095
38667,39100,40901
38502,38978,40714
38361,38869,40521
38244,38768,40324
38099,38652,40140
37930,38529,39968
37799,38428,39797
37701,38344,39631
37577,38246,39472
37435,38141,39311
37326,38052,39138
37223,37960,38957
37062,37834,38772
36865,37696,38583
36700,37579,38394
36555,37472,38218
36381,37353,38058
36204,37238,37894
36077,37151,37724
35977,37072,37564
35860,36975,37415
35745,36878,37259
35667,36798,37094
35586,36721,36938
35458,36632,36789
35324,36549,36637
35222,36483,36485
35125,36416,36358
35009,36346,36261
34912,36292,36167
34855,36256,36067
34790,36210,35964
34686,36138,35844
34583,36062,35700
34495,35987,35549
34385,35902,35418
34256,35818,35312
34176,35771,35230
34175,35772,35189
34206,35802,35214
34266,35862,35315
34423,35985,35496
34694,36177,35776
35025,36415,36176
35419,36709,36698
35924,37084,37325
36516,37519,38035
37128,37974,38809
37746,38440,39618
38409,38930,40436
39090,39428,41257
39720,39896,42066
40302,40336,42842
40882,40771,43572
41435,41182,44266
41905,41544,44927
42316,41874,45534
42724,42203,46078
43104,42503,46571
43405,42743,47015
43650,42942,47399
43886,43129,47721
44083,43281,47978
44200,43372,48163
44265,43418,48274
44314,43437,48323
44324,43423,48340
44268,43380,48333
44196,43336,48300
44148,43306,48249
44090,43269,48191
44000,43217,48120
43924,43172,48028
43886,43141,47924
43834,43091,47816
43740,43015,47705
43645,42937,47586
43567,42867,47470
43469,42785,47373
43348,42698,47286
43264,42634,47196
43228,42597,47108
43177,42551,47031
43102,42489,46952
43051,42438,46855
43018,42396,46754
42945,42336,46665
42848,42269,46583
42789,42229,46504
42753,42209,46427
42683,42179,46359
42600,42143,46289
42564,42125,46211
42549,42108,46128
42491,42057,46037
42409,41987,45938
42348,41928,45831
42300,41871,45732
42221,41800,45648
42135,41735,45571
42090,41703,45505
42058,41678,45458
41997,41638,45420
41930,41592,45369
41893,41555,45297
41856,41508,45222
41786,41439,45149
41720,41379,45073
41687,41345,45004
41652,41316,44954
41590,41285,44913
41545,41271,44863
41539,41279,44808
41523,41278,44760
41472,41256,44715
41422,41230,44661
41388,41202,44598
41332,41155,44542
41244,41087,44489
41177,41026,44422
41129,40974,44345
41040,40909,44261
40909,40825,44155
40793,40740,44008
40690,40647,43831
40538,40519,43635
40340,40361,43422
40162,40208,43198
39998,40063,42976
39798,39910,42759
39581,39761,42538
39412,39643,42311
39278,39537,42089
39123,39414,41882
38956,39288,41678
38826,39182,41467
38714,39083,41263
38561,38962,41072
38391,38836,40886
38255,38731,40706
38134,38638,40546
37985,38534,40406
37836,38439,40266
37734,38378,40120
37643,38324,39974
37524,38252,39822
37401,38174,39652
37301,38099,39468
37191,38012,39291
37040,37906,39127
36894,37809,38967
36784,37729,38814
36675,37650,38682
36550,37571,38572
36457,37512,38466
36408,37469,38363
36345,37415,38265
36244,37344,38162
36153,37279,38046
36089,37223,37925
36001,37146,37806
35881,37055,37682
35788,36984,37555
35726,36932,37439
35640,36866,37340
35538,36793,37242
35469,36740,37131
35420,36692,37014
35328,36614,36897
35205,36520,36771
35114,36446,36636
35044,36384,36511
34943,36306,36408
34831,36225,36309
34765,36168,36201
34719,36117,36086
34638,36049,35962
34539,35976,35830
34473,35923,35700
34428,35883,35600
34371,35847,35550
34353,35854,35565
34442,35941,35670
34621,36091,35889
34859,36288,36230
35190,36549,36675
35646,36890,37216
36173,37278,37842
36718,37683,38527
37294,38112,39245
37908,38563,39980
38507,39007,40736
39057,39427,41506
39611,39849,42271
40195,40288,43024
40747,40706,43756
41233,41081,44441
41693,41434,45061
42135,41765,45621
42509,42046,46131
42813,42279,46587
43109,42500,46986
43400,42709,47335
43627,42875,47642
43785,42998,47898
43931,43110,48098
44063,43204,48249
44123,43251,48356
44126,43267,48415
44134,43289,48426
44138,43303,48403
44085,43277,48361
43996,43227,48301
43932,43190,48229
43880,43157,48150
43788,43099,48069
43680,43031,47975
43610,42978,47861
43551,42920,47740
43452,42834,47615
43341,42744,47487
43265,42680,47364
43206,42628,47266
43117,42561,47193
43026,42500,47124
42977,42467,47052
42932,42430,46979
42844,42363,46894
42747,42288,46783
42673,42218,46648
42579,42127,46501
42434,42000,46333
42282,41866,46139
42152,41744,45931
42004,41616,45732
41822,41484,45551
41662,41381,45383
41545,41313,45232
41426,41240,45098
41292,41150,44963
41181,41069,44814
41093,40994,44661
40985,40905,44525
40865,40818,44407
40792,40763,44302
40765,40736,44222
40724,40711,44174
40667,40690,44140
40652,40694,44113
40676,40710,44097
40677,40704,44089
40655,40684,44076
40660,40676,44052
40671,40666,44029
40627,40626,44008
40551,40574,43975
40502,40541,43929
40467,40509,43872
40396,40453,43804
40310,40389,43720
40259,40342,43624
40215,40288,43519
40125,40206,43400
40012,40115,43256
39922,40035,43099
39833,39956,42957
39707,39869,42834
39586,39798,42714
39508,39757,42597
39424,39710,42487
39302,39638,42373
39182,39563,42232
39085,39492,42061
38963,39394,41873
38794,39262,41672
38626,39132,41457
38480,39010,41236
38312,38875,41025
38112,38727,40824
37936,38600,40627
37801,38496,40439
37649,38383,40263
37473,38261,40085
37329,38158,39890
37215,38064,39691
37077,37954,39508
36919,37842,39341
36801,37764,39185
36723,37709,39051
36626,37642,38937
36510,37567,38823
36430,37511,38699
36374,37460,38575
36281,37385,38454
36165,37297,38329
36083,37224,38197
36012,37162,38071
35896,37083,37950
35762,37001,37820
35671,36943,37686
35600,36892,37565
35499,36827,37460
35388,36755,37345
35304,36688,37212
35214,36613,37079
35075,36516,36950
34932,36426,36816
34834,36361,36683
34751,36299,36560
34648,36226,36445
34561,36160,36326
34513,36106,36197
34449,36030,36059
34332,35922,35903
34204,35814,35727
34091,35716,35542
33956,35607,35361
33789,35485,35187
33648,35388,35018
33552,35323,34867
33458,35262,34753
33370,35211,34682
33352,35203,34654
33418,35248,34696
33517,35326,34832
33663,35450,35068
33940,35666,35418
34347,35970,35896
34809,36318,36486
35304,36703,37146
35871,37135,37846
36480,37587,38579
37052,38015,39328
37589,38424,40070
38142,38842,40791
38696,39255,41497
39189,39634,42188
39638,39991,42846
40095,40349,43464
40532,40684,44039
40900,40972,44564
41219,41217,45016
41530,41436,45389
41803,41618,45705
41992,41747,45972
42127,41845,46183
42252,41936,46348
42353,42015,46493
42405,42073,46621
42447,42129,46716
42512,42193,46786
42554,42238,46839
42542,42243,46864
42515,42228,46847
42498,42204,46790
42453,42158,46714
42364,42088,46626
42289,42030,46533
42252,41996,46447
42206,41959,46376
42142,41914,46312
42111,41890,46247
42114,41885,46183
42088,41857,46122
42025,41804,46053
41974,41757,45963
41936,41713,45862
41852,41643,45768
41725,41553,45675
41623,41481,45575
41549,41428,45474
41449,41360,45371
41332,41279,45257
41252,41211,45132
41186,41147,45002
41072,41053,44866
40932,40954,44722
40828,40884,44575
40749,40825,44438
40644,40752,44320
40536,40685,44212
40476,40645,44110
40431,40609,44019
40356,40554,43932
40274,40496,43837
40226,40453,43735
40187,40411,43650
40122,40358,43589
40076,40324,43548
40089,40327,43534
40117,40345,43552
40118,40358,43588
40124,40383,43619
40161,40425,43643
40184,40446,43661
40165,40433,43663
40148,40415,43640
40145,40399,43601
40112,40359,43559
40035,40303,43510
39972,40259,43437
39942,40229,43353
39890,40183,43272
39801,40117,43178
39722,40057,43052
39655,39996,42910
39542,39900,42768
39389,39780,42615
39254,39672,42442
39128,39571,42258
38967,39453,42083
38793,39335,41912
38673,39248,41742
38593,39178,41577
38477,39084,41417
38327,38972,41242
38201,38874,41053
38089,38775,40867
37937,38650,40690
37767,38523,40511
37632,38422,40334
37506,38326,40164
37346,38209,39993
37180,38086,39808
37047,37976,39608
36906,37856,39398
36716,37712,39173
36517,37571,38936
36350,37451,38699
36190,37334,38483
36009,37216,38291
35851,37116,38112
35746,37042,37945
35644,36967,37798
35513,36876,37656
35384,36784,37497
35270,36691,37323
35125,36574,37144
34935,36434,36961
34760,36307,36774
34624,36200,36596
34488,36098,36441
34341,36001,36299
34224,35922,36152
34137,35853,36000
34019,35767,35848
33863,35661,35679
33729,35559,35486
33623,35470,35294
33490,35374,35129
33334,35271,34977
33217,35188,34825
33129,35118,34682
33014,35036,34552
32884,34953,34417
32796,34890,34265
32726,34825,34109
32607,34724,33946
32450,34603,33766
32311,34490,33571
32180,34380,33387
32020,34264,33228
31870,34170,33095
31795,34126,32999
31776,34119,32961
31780,34138,32999
31856,34211,33116
32056,34361,33323
32342,34564,33641
32673,34801,34071
33077,35100,34602
33574,35468,35219
34113,35870,35914
34648,36281,36663
35211,36712,37429
35816,37166,38194
36411,37612,38955
36963,38034,39697
37501,38444,40391
38032,38835,41035
38504,39178,41640
38899,39476,42197
39268,39756,42701
39628,40024,43165
39938,40259,43601
40193,40466,44001
40446,40668,44352
40698,40859,44657
40890,41009,44919
41020,41115,45120
41143,41203,45251
41247,41267,45333
41279,41284,45385
41258,41271,45404
41251,41262,45392
41254,41254,45365
41215,41228,45333
41150,41191,45283
41120,41170,45215
41099,41147,45135
41029,41094,45042
40926,41019,44922
40836,40948,44774
40740,40872,44626
40603,40771,44485
40468,40672,44347
40385,40605,44221
40314,40547,44110
40212,40478,44003
40108,40408,43872
40033,40343,43714
39942,40258,43549
39796,40139,43378
39646,40023,43201
39530,39931,43031
39410,39845,42886
39269,39754,42758
39157,39680,42632
39092,39631,42513
39021,39576,42406
38922,39507,42303
38841,39448,42195
38793,39404,42097
38736,39353,42030
38662,39297,41985
38626,39269,41947
38635,39270,41921
38630,39268,41910
38607,39267,41906
38622,39294,41901
38658,39328,41897
38655,39331,41900
38620,39312,41901
38611,39302,41896
38629,39299,41900
38623,39285,41916
38601,39265,41923
38613,39262,41910
38640,39261,41893
38617,39237,41875
38563,39199,41838
38530,39164,41772
38496,39120,41696
38409,39050,41618
38302,38977,41525
38228,38923,41422
38161,38870,41321
38065,38799,41218
37971,38729,41098
37913,38676,40967
37843,38608,40834
37726,38512,40693
37598,38410,40535
37484,38313,40363
37350,38201,40190
37176,38068,40016
37011,37948,39835
36881,37854,39652
36736,37754,39469
36553,37637,39277
36378,37523,39063
36225,37412,38825
36045,37279,38580
35830,37124,38337
35628,36971,38085
35452,36827,37828
35243,36669,37580
35000,36499,37333
34789,36347,37083
34616,36211,36841
34426,36066,36618
34229,35924,36400
34076,35805,36174
33943,35693,35952
33763,35556,35736
33547,35403,35505
33354,35261,35253
33174,35128,35002
32956,34982,34763
32731,34841,34534
32560,34728,34318
32427,34632,34133
32283,34532,33981
32153,34446,33847
32087,34395,33732
32055,34363,33646
32007,34328,33587
31970,34303,33537
31975,34301,33488
31977,34295,33443
31934,34264,33395
31881,34235,33332
31851,34224,33261
31811,34206,33197
31739,34164,33143
31680,34129,33088
31661,34112,33032
31631,34079,32972
31562,34017,32898
31506,33961,32804
31483,33921,32711
31440,33872,32638
31373,33825,32588
31355,33824,32577
31425,33885,32645
31554,33993,32823
31743,34152,33107
32051,34397,33490
32477,34726,33989
32957,35101,34601
33481,35509,35293
34086,35962,36028
34734,36432,36790
35346,36882,37572
35927,37317,38359
36533,37760,39135
37146,38197,39899
37703,38604,40647
38218,38986,41350
38737,39360,41989
39223,39703,42569
39617,39991,43086
39947,40243,43537
40267,40486,43930
40560,40704,44287
40780,40878,44605
40956,41028,44874
41140,41179,45101
41302,41307,45296
41400,41392,45456
41467,41451,45564
41538,41497,45615
41574,41510,45623
41542,41478,45598
41489,41435,45541
41448,41398,45465
41384,41344,45391
41282,41276,45323
41202,41221,45250
41169,41183,45170
41128,41133,45088
41057,41066,44993
41000,41008,44881
40966,40963,44768
40906,40906,44667
40814,40834,44569
40743,40772,44462
40688,40720,44354
40591,40656,44248
40458,40580,44128
40349,40515,43983
40257,40451,43831
40127,40357,43682
39978,40251,43526
39869,40165,43368
39784,40097,43229
39678,40028,43127
39582,39972,43044
39547,39947,42964
39543,39934,42895
39509,39902,42836
39462,39862,42777
39451,39843,42717
39461,39835,42677
39450,39820,42666
39445,39819,42673
39490,39852,42698
39551,39893,42744
39587,39919,42795
39620,39940,42834
39677,39968,42868
39728,39993,42919
39741,40008,42980
39761,40038,43038
39819,40092,43096
39875,40146,43161
39903,40188,43220
39944,40231,43254
40011,40272,43270
40049,40282,43279
40035,40263,43271
40019,40241,43240
40015,40218,43196
39980,40178,43158
39910,40129,43117
39862,40098,43058
39838,40077,42985
39775,40029,42898
39669,39949,42785
39576,39868,42641
39489,39785,42479
39354,39674,42314
39195,39556,42152
39076,39469,41994
38983,39400,41848
38863,39321,41715
38732,39242,41583
38647,39179,41443
38585,39115,41297
38477,39018,41146
38339,38909,40988
38226,38818,40829
38123,38731,40675
37989,38625,40530
37848,38514,40375
37742,38421,40205
37635,38324,40031
37476,38198,39854
37303,38072,39670
37171,37972,39488
37053,37882,39326
36910,37782,39180
36778,37695,39036
36694,37637,38895
36608,37575,38758
36485,37486,38613
36364,37397,38456
36271,37322,38306
36171,37239,38181
36048,37148,38071
35953,37081,37963
35910,37046,37867
35871,37018,37797
35816,36986,37739
35781,36964,37669
35765,36944,37587
35710,36894,37499
35608,36819,37399
35517,36749,37282
35443,36685,37157
35337,36609,37043
35210,36530,36937
35118,36470,36824
35055,36420,36708
34966,36358,36603
34867,36298,36513
34829,36275,36448
34860,36292,36440
34920,36335,36516
35036,36429,36690
35270,36606,36972
35606,36853,37373
35979,37139,37879
36408,37475,38469
36936,37883,39127
37519,38328,39837
38097,38772,40583
38688,39227,41342
39321,39701,42099
39936,40151,42846
40476,40551,43570
40977,40927,44251
41475,41290,44883
41934,41625,45478
42318,41920,46026
42675,42197,46516
43042,42468,46961
43367,42701,47369
43621,42888,47729
43849,43058,48028
44071,43218,48270
44242,43344,48471
44345,43427,48631
44429,43493,48744
44511,43547,48826
44542,43562,48890
44520,43543,48924
44504,43525,48919
44500,43512,48889
44452,43476,48845
44369,43426,48783
44318,43398,48705
44301,43383,48625
44256,43344,48549
44184,43290,48460
44141,43255,48354
44112,43228,48248
44041,43180,48154
43952,43123,48063
43907,43079,47970
43880,43037,47882
43806,42967,47800
43707,42888,47715
43639,42827,47626
43583,42771,47544
43492,42699,47465
43392,42629,47373
43327,42580,47271
43266,42531,47172
43174,42465,47078
43087,42398,46968
43041,42348,46845
42998,42294,46728
42921,42220,46618
42847,42144,46506
42808,42082,46397
42768,42017,46309
42699,41944,46242
42648,41900,46187
42644,41893,46151
42643,41894,46143
42619,41893,46157
42620,41912,46175
42667,41957,46195
42707,42000,46233
42721,42030,46280
42754,42069,46314
42818,42112,46340
42855,42129,46368
42858,42126,46389
42874,42131,46385
42899,42138,46359
42875,42116,46322
42806,42068,46273
42757,42025,46209
42722,41984,46140
42647,41925,46072
42550,41857,45999
42491,41807,45916
42450,41769,45836
42366,41718,45762
42266,41663,45676
42209,41626,45574
42162,41583,45466
42067,41508,45347
41946,41419,45199
41846,41337,45020
41733,41239,44826
41563,41102,44614
41369,40947,44377
41194,40796,44125
41014,40638,43880
40802,40465,43649
40604,40308,43429
40461,40189,43225
40340,40089,43059
40215,39996,42928
40112,39924,42812
40040,39875,42715
39955,39821,42647
39845,39754,42582
39745,39700,42482
39667,39663,42358
39567,39615,42234
39436,39543,42099
39323,39466,41938
39232,39388,41759
39105,39286,41580
38939,39165,41393
38790,39049,41185
38664,38937,40966
38513,38809,40759
38344,38676,40569
38219,38572,40397
38136,38496,40254
38041,38420,40143
37937,38348,40046
37879,38304,39953
37842,38265,39864
37761,38203,39775
37654,38131,39667
37585,38076,39541
37534,38022,39417
37452,37944,39301
37357,37862,39185
37289,37802,39068
37226,37747,38964
37124,37680,38878
37015,37621,38794
36950,37590,38704
36897,37566,38608
36814,37531,38506
36727,37486,38396
36675,37440,38282
36634,37382,38189
36585,37310,38128
36577,37269,38107
36658,37301,38152
36812,37407,38301
37024,37585,38573
37341,37853,38971
37788,38210,39503
38302,38614,40159
38837,39043,40898
39422,39507,41674
40056,39992,42465
40674,40458,43260
41253,40898,44044
41831,41336,44798
42405,41765,45523
42923,42155,46227
43380,42510,46894
43837,42865,47525
44306,43222,48130
44729,43547,48706
45100,43841,49229
45471,44125,49687
45830,44381,50085
46112,44577,50429
46319,44726,50708
46503,44858,50917
46659,44956,51082
46745,44994,51218
46778,45001,51304
46810,45013,51341
46827,45018,51354
46786,44997,51353
46716,44970,51327
46669,44958,51281
46624,44940,51228
46544,44896,51166
46459,44845,51085
46404,44800,50988
46348,44750,50895
46265,44690,50813
46199,44650,50739
46182,44641,50684
46172,44633,50648
46136,44611,50616
46103,44591,50561
46092,44576,50487
46057,44535,50403
45976,44460,50300
45892,44381,50176
45821,44304,50044
45714,44204,49913
45567,44082,49777
45439,43978,49633
45333,43895,49490
45204,43808,49358
45056,43718,49228
44947,43644,49078
44873,43584,48919
44768,43502,48767
44633,43400,48619
44528,43310,48472
44454,43239,48343
44363,43163,48245
44269,43093,48172
44230,43061,48116
44231,43060,48081
44213,43055,48066
44187,43047,48052
44205,43056,48032
44242,43068,48016
44241,43055,47998
44210,43031,47968
44194,43020,47931
44179,43010,47904
44122,42977,47882
44054,42941,47849
44026,42928,47809
44008,42917,47776
43959,42888,47749
43912,42861,47707
43900,42848,47653
43880,42818,47593
43810,42760,47521
43728,42701,47427
43663,42646,47317
43580,42571,47206
43453,42475,47092
43332,42390,46959
43241,42320,46810
43128,42232,46653
42977,42115,46481
42838,42002,46286
42720,41899,46079
42567,41778,45872
42383,41646,45669
42225,41537,45471
42093,41441,45278
41935,41329,45096
41751,41203,44916
41600,41097,44734
41484,41001,44558
41337,40880,44380
41159,40746,44188
41006,40625,43971
40863,40506,43744
40671,40362,43522
40457,40209,43302
40282,40081,43086
40133,39969,42884
39963,39850,42700
39790,39732,42518
39664,39630,42333
39553,39530,42156
39405,39414,41980
39243,39295,41793
39109,39187,41599
38983,39080,41417
38820,38960,41242
38652,38850,41061
38521,38765,40880
38403,38686,40715
38269,38595,40570
38154,38515,40437
38094,38458,40318
38041,38396,40210
37953,38316,40093
37866,38237,39960
37800,38166,39820
37709,38082,39691
37574,37986,39568
37458,37915,39449
37385,37873,39344
37301,37823,39256
37192,37757,39171
37110,37702,39077
37054,37657,38976
36965,37591,38872
36842,37505,38753
36734,37421,38607
36639,37338,38448
36502,37233,38289
36334,37115,38117
36197,37011,37925
36079,36910,37736
35927,36792,37574
35764,36686,37429
35665,36631,37302
35626,36613,37217
35604,36607,37199
35624,36633,37251
35756,36731,37385
35988,36894,37627
36271,37103,37987
36631,37378,38459
37109,37736,39036
37666,38150,39715
38238,38590,40472
38835,39060,41267
39486,39569,42075
40141,40075,42893
40744,40541,43708
41322,40979,44484
41901,41403,45210
42442,41795,45897
42913,42148,46539
43346,42478,47119
43761,42786,47639
44120,43049,48115
44406,43268,48547
44669,43474,48933
44930,43674,49278
45143,43844,49591
45303,43986,49861
45457,44122,50074
45605,44241,50234
45692,44315,50351
45713,44353,50420
45731,44376,50433
45743,44375,50401
45695,44326,50344
45594,44246,50265
45505,44172,50164
45426,44105,50052
45309,44021,49947
45173,43932,49846
45084,43875,49751
45038,43839,49671
44975,43789,49599
44890,43724,49510
44831,43671,49400
44778,43615,49287
44678,43527,49169
44553,43425,49033
44452,43336,48883
44362,43250,48738
44237,43151,48605
44108,43058,48476
44020,42992,48353
43937,42929,48243
43821,42852,48141
43706,42777,48022
43629,42716,47886
43551,42649,47749
43439,42564,47612
43328,42486,47471
43248,42427,47337
43167,42374,47229
43058,42317,47144
42973,42282,47070
42945,42276,47015
42927,42266,46981
42898,42243,46951
42892,42227,46907
42913,42217,46855
42910,42189,46812
42872,42151,46777
42849,42134,46748
42849,42138,46736
42822,42135,46742
42769,42120,46745
42747,42114,46729
42744,42105,46696
42695,42066,46646
42616,42006,46575
42564,41950,46477
42526,41893,46375
42443,41819,46286
42332,41742,46200
42259,41689,46111
42212,41645,46026
42129,41585,45946
42026,41517,45853
41955,41463,45740
41889,41406,45614
41769,41315,45472
41616,41202,45300
41479,41089,45098
41340,40968,44895
41158,40825,44693
40967,40681,44475
40805,40557,44247
40639,40432,44026
40438,40288,43812
40238,40145,43589
40070,40015,43354
39893,39869,43116
39682,39699,42871
39479,39539,42622
39315,39404,42382
39151,39275,42169
38972,39148,41981
38832,39051,41812
38749,38986,41668
38666,38924,41553
38561,38863,41446
38478,38819,41318
38422,38782,41179
38332,38720,41044
38202,38633,40895
38088,38549,40724
37993,38465,40554
37867,38364,40402
37720,38264,40262
37613,38192,40126
37533,38131,39995
37417,38051,39871
37281,37959,39743
37186,37881,39603
37114,37809,39465
37004,37719,39336
36874,37628,39211
36778,37560,39085
36700,37498,38966
36594,37424,38853
36483,37352,38740
36415,37303,38630
36360,37253,38529
36273,37182,38428
36174,37105,38305
36100,37038,38164
36027,36968,38034
35923,36886,37923
35819,36816,37817
35753,36773,37719
35697,36733,37637
35625,36685,37566
35575,36652,37494
35567,36639,37424
35543,36613,37364
35473,36563,37302
35403,36514,37218
35348,36468,37114
35261,36401,37005
35134,36315,36893
35024,36245,36775
34951,36196,36660
34862,36137,36546
34745,36062,36423
34646,35993,36288
34576,35936,36163
34507,35886,36085
34470,35869,36084
34547,35927,36182
34750,36068,36397
35026,36274,36744
35374,36547,37211
35844,36904,37779
36409,37319,38431
36988,37755,39148
37579,38206,39903
38219,38684,40673
38862,39161,41453
39434,39600,42227
39955,40013,42973
40475,40421,43680
40970,40804,44355
41399,41139,44999
41794,41450,45589
42198,41759,46119
42572,42045,46601
42871,42286,47036
43126,42495,47405
43377,42682,47705
43588,42827,47953
43725,42919,48151
43823,42987,48288
43911,43045,48373
43960,43070,48437
43952,43063,48485
43931,43052,48500
43924,43049,48490
43890,43028,48473
43817,42982,48440
43760,42940,48381
43740,42912,48306
43699,42873,48223
43619,42817,48126
43545,42766,48010
43481,42715,47883
43378,42636,47763
43238,42544,47651
43133,42478,47549
43073,42429,47463
42995,42363,47383
42897,42285,47285
42835,42224,47164
42796,42171,47036
42713,42091,46904
42587,41999,46756
42478,41925,46594
42374,41855,46440
42225,41758,46296
42057,41655,46153
41923,41573,46012
41806,41500,45871
41671,41414,45732
41539,41332,45596
41456,41275,45470
41393,41216,45358
41306,41131,45249
41216,41043,45132
41154,40973,45011
41093,40907,44907
41004,40837,44829
40932,40785,44763
40918,40763,44710
40920,40750,44679
40902,40739,44668
40904,40747,44662
40945,40775,44660
40968,40792,44668
40949,40788,44675
40933,40787,44667
40937,40789,44647
40912,40768,44624
40849,40725,44596
40804,40696,44553
40782,40681,44502
40731,40652,44449
40647,40607,44385
40583,40567,44302
40537,40521,44198
40443,40436,44076
40302,40323,43931
40173,40213,43759
40055,40106,43572
39898,39980,43386
39722,39850,43204
39590,39749,43025
39485,39664,42853
39341,39559,42686
39171,39440,42507
39028,39335,42308
38894,39230,42105
38710,39093,41901
38507,38948,41694
38337,38824,41485
38177,38706,41284
37989,38574,41092
37809,38446,40895
37681,38346,40692
37561,38246,40492
37407,38122,40292
37247,37998,40078
37109,37882,39844
36953,37751,39607
36749,37598,39375
36553,37457,39148
36401,37345,38939
36251,37235,38756
36081,37116,38590
35933,37006,38414
35819,36906,38232
35688,36791,38054
35522,36656,37875
35371,36535,37693
35250,36434,37520
35114,36334,37363
34958,36232,37213
34837,36155,37065
34748,36094,36923
34634,36018,36786
34498,35936,36647
34395,35869,36496
34319,35807,36344
34213,35722,36196
34080,35627,36046
33981,35558,35895
33906,35502,35764
33802,35431,35661
33691,35358,35567
33627,35312,35470
33583,35274,35372
33498,35209,35269
33391,35131,35150
33311,35064,35015
33235,34996,34883
33118,34911,34762
32995,34833,34646
32917,34782,34539
32851,34737,34444
32752,34675,34345
32650,34607,34217
32578,34548,34067
32495,34473,33913
32365,34369,33746
32224,34264,33561
32106,34165,33378
31978,34054,33216
31825,33942,33075
31714,33866,32964
31687,33846,32908
31703,33860,32926
31757,33912,33020
31903,34033,33195
32163,34235,33481
32496,34502,33902
32898,34830,34453
33416,35237,35112
34037,35710,35869
34685,36201,36700
35328,36694,37560
35997,37198,38408
36676,37692,39234
37294,38143,40040
37850,38558,40809
38401,38965,41526
38932,39351,42196
39385,39687,42818
39767,39983,43374
40138,40264,43858
40486,40516,44282
40748,40706,44646
40935,40850,44941
41104,40976,45175
41247,41079,45369
41325,41144,45532
41377,41198,45659
41453,41260,45749
41516,41302,45807
41518,41300,45835
41486,41273,45815
41459,41239,45748
41404,41178,45660
41289,41084,45553
41164,40991,45425
41068,40923,45290
40969,40856,45167
40845,40782,45057
40748,40725,44953
40703,40691,44854
40656,40645,44766
40584,40581,44685
40524,40528,44602
40489,40491,44526
40438,40447,44470
40360,40398,44420
40302,40367,44359
40270,40346,44283
40203,40301,44193
40092,40231,44077
39993,40157,43920
39904,40078,43738
39770,39967,43555
39604,39840,43371
39473,39737,43186
39378,39659,43016
39269,39575,42867
39148,39492,42730
39072,39437,42597
39025,39394,42478
38941,39328,42376
38835,39256,42287
38763,39210,42209
38713,39173,42146
38641,39124,42099
38571,39080,42050
38549,39064,41995
38545,39054,41944
38512,39025,41897
38467,38989,41841
38443,38961,41775
38418,38931,41719
38356,38886,41674
38292,38847,41630
38265,38830,41589
38236,38807,41548
38173,38763,41501
38108,38712,41433
38065,38659,41343
37999,38586,41245
37885,38492,41140
37774,38410,41025
37690,38346,40907
37586,38274,40792
37452,38186,40672
37338,38111,40539
37251,38044,40391
37132,37954,40232
36972,37841,40056
36820,37731,39853
36679,37617,39632
36492,37474,39407
36262,37313,39177
36055,37172,38941
35880,37047,38710
35684,36911,38490
35479,36771,38275
35323,36656,38063
35206,36545,37864
35059,36397,37676
34884,36233,37468
34736,36092,37234
34602,35962,37004
34428,35823,36794
34243,35693,36594
34101,35597,36403
33980,35515,36229
33838,35425,36071
33700,35344,35915
33608,35290,35761
33528,35238,35625
33419,35167,35506
33309,35097,35389
33226,35041,35271
33146,34989,35172
33044,34933,35096
32965,34891,35028
32941,34873,34971
32925,34853,34928
32880,34818,34881
32838,34788,34807
32815,34762,34710
32767,34718,34608
32676,34655,34504
32592,34594,34388
32527,34539,34266
32435,34470,34153
32305,34384,34037
32196,34306,33902
32123,34240,33759
32029,34162,33624
31911,34074,33493
31819,34002,33362
31751,33938,33240
31650,33866,33141
31528,33796,33050
31454,33756,32958
31427,33737,32878
31375,33704,32804
31298,33659,32713
31250,33624,32598
31206,33580,32474
31102,33501,32343
30963,33407,32201
30850,33330,32053
30742,33250,31911
30592,33148,31778
30436,33048,31643
30328,32976,31508
30245,32918,31393
30160,32865,31316
30124,32844,31290
30192,32887,31339
30350,32993,31502
30576,33160,31800
30914,33416,32233
31392,33768,32801
31958,34179,33489
32559,34624,34266
33200,35102,35083
33884,35605,35911
34550,36091,36736
35159,36538,37540
35747,36969,38305
36326,37384,39028
36847,37760,39714
37299,38099,40357
37725,38425,40938
38133,38733,41458
38474,38991,41923
38736,39192,42318
38967,39358,42631
39174,39493,42880
39309,39583,43083
39379,39639,43243
39443,39693,43358
39504,39742,43447
39516,39761,43519
39495,39752,43554
39497,39742,43544
39504,39723,43500
39446,39661,43423
39333,39566,43305
39229,39470,43153
39129,39370,42990
38989,39253,42828
38835,39140,42667
38725,39058,42510
38636,38989,42368
38519,38911,42241
38402,38834,42114
38325,38768,41985
38248,38694,41858
38133,38601,41722
38014,38509,41574
37928,38435,41428
37842,38364,41300
37725,38283,41188
37618,38212,41075
37553,38166,40961
37490,38122,40853
37403,38068,40745
37327,38018,40623
37277,37975,40492
37202,37913,40363
37084,37832,40234
36975,37760,40106
36892,37700,39990
36800,37636,39900
36704,37579,39832
36657,37554,39771
36653,37545,39721
36631,37518,39686
36591,37482,39654
36587,37465,39619
36616,37470,39603
36624,37472,39621
36617,37477,39655
36655,37508,39697
36726,37554,39746
36767,37583,39798
36779,37597,39838
36812,37617,39857
36856,37638,39872
36856,37635,39886
36829,37624,39892
36829,37630,39886
36836,37639,39875
36804,37630,39863
36760,37613,39838
36751,37603,39799
36736,37578,39749
36663,37517,39674
36564,37436,39561
36477,37351,39415
36371,37250,39262
36213,37124,39104
36054,37000,38931
35936,36899,38749
35812,36798,38569
35649,36683,38385
35489,36576,38183
35355,36477,37965
35196,36356,37747
34991,36212,37534
34798,36078,37322
34640,35962,37115
34477,35847,36926
34298,35726,36744
34147,35619,36544
34023,35526,36328
33864,35413,36109
33663,35275,35889
33486,35152,35672
33348,35049,35475
33194,34941,35306
33031,34831,35150
32916,34746,34994
32837,34674,34843
32726,34585,34692
32582,34485,34529
32460,34397,34350
32360,34315,34181
32229,34217,34029
32082,34116,33889
31968,34037,33760
31877,33971,33645
31762,33904,33543
31645,33838,33434
31576,33784,33314
31526,33730,33197
31439,33660,33083
31339,33586,32959
31267,33523,32825
31196,33463,32706
31093,33394,32606
30997,33336,32506
30945,33300,32409
30896,33265,32328
30815,33217,32253
30728,33168,32157
30657,33114,32038
30561,33034,31908
30413,32928,31764
30265,32826,31602
30148,32741,31436
30024,32654,31290
29885,32563,31162
29793,32501,31048
29761,32476,30967
29748,32468,30939
29766,32487,30972
29885,32568,31075
30107,32717,31275
30368,32916,31593
30687,33168,32032
31131,33492,32588
31682,33888,33258
32267,34324,34028
32878,34788,34848
33554,35288,35683
34256,35791,36516
34905,36253,37326
35495,36677,38086
36064,37086,38785
36592,37465,39432
37025,37786,40030
37395,38071,40575
37761,38349,41066
38097,38598,41505
38359,38797,41891
38573,38960,42207
38777,39106,42454
38942,39218,42652
39028,39284,42803
39070,39328,42902
39110,39364,42956
39126,39378,42982
39095,39365,42987
39056,39347,42960
39038,39338,42905
38999,39316,42834
38910,39265,42748
38812,39206,42636
38728,39140,42500
38626,39051,42364
38501,38948,42239
38401,38863,42117
38341,38799,41998
38268,38728,41890
38171,38646,41781
38098,38572,41658
38044,38503,41523
37945,38411,41383
37805,38306,41233
37684,38217,41071
37580,38138,40911
37446,38044,40768
37292,37947,40633
37180,37881,40499
37106,37835,40371
37008,37768,40240
36888,37687,40094
36801,37619,39932
36739,37555,39777
36643,37475,39644
36540,37402,39531
36487,37364,39441
36459,37340,39371
36411,37309,39319
36360,37278,39266
36345,37263,39212
36347,37251,39173
36323,37223,39144
36301,37203,39123
36316,37210,39119
36339,37224,39139
36337,37236,39179
36348,37265,39222
36403,37319,39266
36450,37357,39304
36451,37356,39322
36451,37337,39315
36475,37321,39291
36473,37298,39273
36430,37266,39263
36401,37250,39251
36407,37254,39242
36399,37250,39238
36359,37231,39222
36333,37214,39177
36330,37199,39115
36294,37164,39055
36218,37114,38990
36162,37080,38912
36130,37059,38837
36068,37021,38767
35967,36965,38677
35880,36914,38556
35803,36856,38410
35673,36757,38241
35495,36628,38044
35324,36500,37818
35152,36364,37581
34930,36197,37340
34678,36019,37088
34458,35858,36825
34256,35701,36556
34020,35527,36280
33766,35345,35983
33542,35173,35666
33320,34997,35353
33053,34798,35048
32783,34605,34746
32565,34445,34454
32372,34301,34188
32170,34159,33953
31990,34031,33732
31861,33928,33518
31740,33825,33318
31591,33707,33121
31446,33591,32919
31327,33485,32724
31188,33371,32544
31001,33244,32372
30821,33132,32197
30680,33042,32026
30546,32957,31876
30405,32872,31742
30302,32805,31611
30244,32753,31490
30166,32685,31380
30056,32601,31264
29971,32536,31138
29914,32492,31022
29834,32444,30938
29737,32396,30868
29684,32368,30791
29672,32354,30712
29633,32319,30636
29559,32260,30547
29495,32198,30438
29429,32132,30319
29305,32044,30198
29157,31956,30075
29066,31902,29964
29026,31877,29892
29007,31875,29892
29056,31926,29977
29235,32057,30168
29527,32258,30497
29885,32513,30960
30331,32841,31538
30897,33255,32223
31534,33719,33002
32182,34199,33842
32840,34690,34688
33520,35187,35515
34176,35662,36337
34770,36105,37148
35341,36539,37922
35915,36968,38649
36442,37362,39331
36889,37706,39954
37291,38014,40494
37666,38290,40958
37975,38513,41366
38205,38688,41715
38413,38847,42001
38617,38995,42235
38771,39104,42431
38865,39176,42586
38946,39236,42689
39017,39277,42747
39030,39275,42776
38989,39243,42775
38954,39215,42746
38927,39187,42706
38864,39143,42667
38779,39094,42613
38722,39065,42525
38669,39033,42410
38552,38961,42272
38383,38858,42105
38225,38752,41911
38078,38636,41710
37895,38496,41510
37690,38346,41297
37524,38206,41069
37370,38062,40839
37178,37894,40613
36981,37732,40393
36829,37605,40191
36704,37502,40029
36570,37409,39906
36460,37340,39800
36422,37315,39713
36411,37305,39649
36384,37285,39599
36361,37267,39544
36359,37257,39477
36340,37231,39410
36280,37183,39342
36224,37143,39266
36204,37120,39193
36172,37086,39127
36102,37037,39056
36038,36991,38963
35994,36945,38856
35921,36877,38750
35809,36796,38649
35718,36738,38556
35672,36707,38488
35626,36679,38451
35567,36660,38435
35547,36674,38427
35575,36709,38437
35601,36736,38471
35617,36762,38517
35665,36805,38559
35726,36842,38590
35732,36833,38601
35693,36797,38585
35672,36772,38549
35665,36757,38506
35625,36724,38468
35565,36683,38427
35536,36656,38373
35519,36631,38312
35459,36582,38243
35384,36532,38168
35352,36509,38103
35338,36494,38059
35295,36464,38028
35248,36436,37983
35233,36428,37923
35208,36413,37856
35138,36368,37772
35050,36310,37661
34969,36244,37527
34863,36156,37388
34712,36042,37247
34569,35942,37099
34469,35873,36953
34373,35803,36818
34259,35721,36679
34154,35645,36514
34066,35572,36337
33947,35478,36168
33792,35365,36011
33662,35268,35864
33579,35200,35735
33495,35136,35632
33400,35073,35540
33340,35028,35445
33310,34998,35353
33250,34951,35267
33160,34890,35182
33097,34851,35098
33058,34828,35022
32998,34791,34962
32925,34748,34900
32894,34726,34829
32894,34710,34759
32857,34667,34690
32791,34612,34611
32742,34566,34516
32698,34519,34420
32616,34454,34335
32518,34392,34251
32458,34355,34167
32413,34317,34082
32333,34252,33990
32235,34169,33869
32156,34086,33716
32065,33996,33557
31928,33887,33401
31794,33787,33251
31704,33717,33114
31617,33654,32996
31500,33585,32892
31391,33527,32778
31310,33478,32643
31206,33408,32499
31053,33309,32345
30896,33207,32170
30764,33116,31993
30624,33020,31839
30463,32916,31698
30337,32835,31556
30268,32785,31431
30213,32745,31350
30175,32722,31322
30215,32751,31352
30349,32842,31471
30535,32979,31705
30779,33168,32051
31145,33441,32502
31624,33787,33059
32138,34158,33700
32666,34548,34385
33249,34975,35089
33856,35421,35802
34414,35842,36515
34932,36239,37214
35466,36634,37890
35999,37016,38553
36474,37360,39201
36909,37682,39818
37357,38007,40397
37787,38318,40942
38152,38598,41451
38471,38853,41902
38780,39093,42290
39059,39307,42642
39269,39476,42959
39447,39620,43231
39633,39756,43462
39796,39868,43663
39905,39945,43828
39989,40002,43937
40074,40054,43999
40120,40076,44026
40106,40059,44019
40082,40031,43981
40073,40004,43925
40041,39962,43876
39973,39911,43838
39918,39878,43801
39899,39867,43772
39875,39852,43756
39829,39826,43737
39803,39808,43691
39804,39795,43629
39770,39759,43571
39693,39703,43512
39635,39661,43446
39602,39631,43382
39542,39586,43322
39458,39531,43247
39409,39491,43146
39376,39454,43028
39287,39383,42895
39152,39284,42742
39033,39191,42574
38926,39100,42408
38780,38988,42254
38623,38874,42110
38516,38787,41973
38440,38710,41844
38343,38621,41721
38241,38538,41593
38184,38485,41467
38141,38443,41362
38063,38387,41278
37990,38346,41210
37975,38347,41169
37994,38367,41167
38007,38384,41199
38040,38413,41241
38120,38462,41286
38195,38499,41338
38226,38505,41384
38248,38509,41410
38286,38520,41422
38304,38518,41439
38283,38498,41460
38279,38493,41478
38318,38516,41501
38345,38535,41530
38339,38533,41551
38344,38538,41550
38371,38549,41534
38365,38540,41517
38325,38515,41501
38311,38511,41483
38329,38530,41472
38322,38537,41470
38282,38524,41453
38269,38519,41410
38274,38512,41348
38229,38469,41273
38143,38399,41179
38071,38332,41062
38005,38270,40942
37894,38195,40835
37763,38118,40731
37682,38066,40627
37630,38020,40529
37544,37950,40430
37428,37867,40308
37327,37790,40154
37221,37705,39987
37067,37591,39810
36898,37474,39620
36766,37379,39424
36648,37289,39238
36509,37184,39065
36372,37082,38886
36271,36999,38707
36174,36920,38551
36052,36835,38422
35948,36771,38310
35888,36740,38216
35834,36710,38146
35768,36669,38097
35736,36645,38049
35751,36647,38000
35748,36632,37950
35696,36583,37886
35640,36525,37795
35597,36465,37687
35526,36385,37583
35419,36290,37486
35332,36211,37390
35275,36154,37293
35188,36088,37191
35060,36002,37068
34947,35922,36917
34851,35845,36759
34719,35751,36613
34575,35661,36476
34487,35613,36349
34440,35590,36244
34372,35560,36167
34290,35530,36097
34251,35523,36025
34233,35520,35953
34173,35483,35874
34084,35424,35775
34013,35369,35655
33943,35310,35539
33833,35228,35437
33716,35147,35336
33645,35092,35236
33592,35044,35151
33519,34990,35081
33453,34942,35008
33432,34916,34931
33423,34896,34871
33400,34874,34839
33414,34885,34845
33503,34947,34910
33640,35042,35059
33807,35167,35293
34041,35342,35592
34357,35570,35948
34701,35817,36363
35048,36070,36823
35428,36347,37305
35846,36654,37811
36251,36958,38347
36632,37248,38900
37045,37559,39457
37490,37889,40021
37907,38198,40585
38289,38484,41131
38678,38767,41634
39063,39038,42098
39384,39266,42535
39646,39460,42933
39911,39654,43289
40176,39842,43619
40388,39997,43929
40561,40129,44203
40753,40264,44427
40937,40384,44613
41053,40461,44765
41115,40507,44873
41180,40550,44936
41236,40581,44978
41236,40575,45006
41211,40555,45017
41221,40550,45018
41237,40544,45025
41216,40521,45037
41189,40508,45042
41203,40526,45043
41223,40544,45047
41210,40541,45044
41187,40532,45019
41186,40525,44976
41174,40500,44931
41119,40451,44880
41065,40403,44822
41040,40367,44771
41002,40323,44734
40930,40271,44699
40869,40235,44647
40841,40219,44582
40802,40190,44519
40734,40139,44449
40681,40092,44358
40650,40052,44255
40589,39989,44157
40491,39908,44059
40416,39845,43954
40372,39798,43854
40306,39743,43771
40217,39687,43704
40167,39661,43647
40158,39657,43607
40127,39642,43579
40078,39619,43546
40075,39617,43501
40110,39621,43463
40118,39602,43441
40104,39577,43419
40121,39574,43394
40160,39585,43388
40168,39584,43408
40170,39591,43448
40218,39630,43503
40289,39683,43576
40332,39725,43661
40370,39771,43738
40450,39835,43807
40532,39897,43876
40570,39936,43931
40592,39960,43953
40626,39978,43945
40634,39973,43924
40586,39932,43889
40532,39888,43841
40508,39859,43794
40480,39827,43760
40422,39788,43735
40374,39767,43695
40364,39763,43638
40349,39745,43575
40297,39701,43498
40245,39655,43399
40203,39613,43291
40122,39548,43185
40003,39461,43076
39906,39385,42957
39836,39323,42839
39742,39254,42735
39633,39182,42637
39572,39135,42534
39550,39107,42437
39500,39060,42348
39422,38994,42260
39365,38939,42164
39314,38889,42060
39211,38816,41952
39076,38731,41842
38971,38665,41726
38886,38606,41611
38771,38527,41497
38641,38437,41369
38543,38357,41222
38454,38272,41067
38325,38158,40904
38176,38034,40723
38052,37922,40526
37936,37813,40345
37792,37700,40191
37656,37601,40048
37570,37530,39915
37496,37460,39796
37395,37377,39692
37299,37300,39586
37241,37247,39471
37172,37190,39355
37061,37109,39232
36958,37030,39099
36886,36969,38973
36809,36908,38875
36714,36847,38800
36646,36809,38731
36624,36796,38671
36600,36778,38627
36551,36748,38578
36520,36729,38514
36512,36719,38445
36474,36689,38389
36405,36644,38341
36362,36618,38297
36348,36606,38263
36310,36578,38235
36244,36538,38193
36206,36514,38124
36194,36500,38050
36152,36470,37987
36091,36428,37916
36064,36397,37824
36051,36370,37735
35999,36324,37671
35942,36285,37630
35944,36288,37617
35993,36329,37650
36042,36385,37737
36115,36460,37863
36263,36574,38024
36453,36705,38234
36634,36837,38490
36833,36990,38786
37094,37185,39126
37397,37406,39529
37705,37640,39992
38053,37911,40498
38477,38231,41045
38931,38566,41633
39374,38898,42250
39826,39245,42865
40296,39603,43467
40730,39939,44063
41100,40244,44635
41458,40541,45157
41825,40831,45636
42151,41084,46092
42418,41297,46513
42673,41497,46883
42929,41683,47203
43133,41822,47477
43274,41915,47698
43404,41996,47863
43528,42066,47986
43594,42104,48088
43615,42124,48171
43660,42159,48230
43724,42200,48268
43747,42210,48289
43742,42204,48288
43768,42217,48264
43796,42224,48227
43749,42181,48177
43655,42112,48110
43585,42056,48031
43532,42004,47959
43447,41939,47900
43349,41875,47839
43291,41828,47769
43243,41779,47696
43155,41706,47617
43048,41625,47513
42968,41557,47387
42895,41492,47269
42791,41413,47165
42690,41340,47067
42629,41293,46972
42575,41248,46885
42496,41187,46803
42420,41129,46708
42375,41082,46601
42320,41023,46498
42222,40948,46398
42123,40881,46292
42050,40833,46187
41976,40785,46107
41892,40737,46050
41850,40717,46008
41863,40727,45982
41873,40735,45972
41868,40732,45968
41892,40737,45954
41941,40743,45935
41955,40730,45927
41932,40709,45934
41938,40719,45951
41978,40753,45976
41989,40771,46008
41974,40775,46034
41987,40792,46043
42017,40810,46044
42002,40795,46041
41953,40763,46026
41929,40748,46000
41923,40734,45978
41886,40702,45965
41832,40669,45945
41821,40667,45918
41826,40669,45890
41789,40640,45850
41726,40593,45784
41681,40551,45699
41632,40503,45614
41537,40429,45532
41436,40362,45447
41382,40327,45372
41347,40299,45313
41292,40257,45260
41238,40217,45194
41213,40188,45113
41171,40145,45032
41083,40075,44944
40999,40012,44847
40954,39970,44750
40898,39926,44666
40805,39868,44579
40719,39814,44462
40651,39762,44315
40548,39679,44153
40392,39567,43973
40231,39450,43770
40078,39328,43555
39893,39189,43349
39682,39043,43149
39520,38923,42955
39418,38834,42791
39318,38751,42664
39215,38679,42562
39158,38637,42472
39138,38611,42401
39093,38572,42350
39032,38531,42304
39013,38516,42257
39017,38514,42220
38985,38497,42195
38929,38475,42167
38903,38471,42131
38894,38466,42090
38852,38435,42042
38791,38393,41976
38759,38362,41893
38740,38333,41821
38685,38288,41771
38629,38250,41733
38620,38242,41704
38627,38244,41693
38610,38235,41691
38592,38226,41669
38602,38223,41621
38592,38194,41553
38523,38126,41459
38422,38042,41328
38311,37954,41163
38163,37848,40988
37973,37724,40814
37799,37616,40639
37674,37538,40481
37556,37466,40348
37430,37392,40230
37340,37337,40112
37288,37298,40002
37221,37246,39910
37131,37184,39828
37068,37143,39746
37040,37120,39673
37001,37093,39629
36953,37070,39617
36965,37092,39641
37043,37155,39715
37139,37234,39849
37269,37339,40042
37491,37499,40289
37778,37696,40598
38060,37898,40973
38358,38120,41405
38735,38394,41888
39162,38709,42432
39580,39036,43034
40003,39379,43667
40475,39751,44306
40959,40127,44945
41400,40476,45574
41814,40803,46170
42241,41126,46724
42645,41426,47245
42979,41679,47728
43275,41909,48169
43573,42144,48580
43854,42371,48976
44089,42578,49357
44316,42782,49706
44563,42991,50019
44779,43168,50291
44931,43288,50513
45064,43380,50674
45197,43456,50780
45281,43493,50853
45298,43491,50895
45310,43489,50911
45342,43497,50914
45342,43485,50906
45293,43448,50876
45254,43416,50817
45233,43388,50742
45176,43339,50667
45090,43282,50597
45037,43249,50534
45015,43232,50491
44973,43207,50477
44918,43179,50472
44907,43177,50465
44924,43188,50460
44902,43180,50452
44852,43153,50420
44825,43127,50353
44801,43094,50271
44726,43027,50181
44623,42949,50082
44556,42896,49983
44514,42858,49897
44449,42813,49827
44379,42769,49757
44345,42740,49676
44315,42699,49594
44244,42625,49514
44160,42547,49424
44100,42485,49328
44035,42432,49250
43934,42376,49189
43844,42339,49129
43800,42332,49080
43765,42328,49055
43721,42309,49049
43701,42295,49034
43720,42294,49006
43725,42274,48975
43687,42227,48939
43652,42187,48892
43637,42163,48847
43597,42123,48818
43522,42064,48788
43463,42018,48739
43427,41985,48673
43354,41928,48593
43233,41845,48488
43115,41763,48350
42998,41673,48190
42837,41550,48025
42647,41412,47858
42483,41299,47683
42331,41196,47503
42144,41067,47326
41941,40927,47141
41780,40814,46943
41640,40707,46737
41461,40565,46522
41252,40402,46287
41064,40247,46031
40883,40095,45776
40662,39928,45532
40433,39773,45297
40258,39659,45077
40115,39561,44880
39960,39456,44703
39812,39357,44524
39704,39276,44340
39596,39189,44166
39450,39080,44005
39304,38978,43846
39194,38901,43690
39089,38827,43557
38965,38746,43445
38866,38683,43337
38815,38650,43234
38760,38615,43141
38672,38556,43041
38590,38496,42923
38534,38444,42799
38451,38374,42684
38324,38286,42568
38213,38216,42442
38135,38169,42323
38044,38119,42226
37942,38066,42144
37887,38038,42063
37875,38033,41991
37836,38014,41929
37760,37975,41856
37703,37939,41762
37661,37899,41658
37575,37825,41551
37461,37736,41442
37384,37672,41334
37329,37620,41239
37238,37548,41164
37137,37475,41094
37094,37439,41026
37091,37425,40971
37067,37406,40934
37031,37392,40895
37024,37396,40844
37018,37400,40803
36967,37381,40773
36911,37359,40741
36898,37358,40712
36895,37357,40699
36861,37339,40693
36820,37318,40658
36802,37303,40585
36766,37267,40494
36679,37195,40387
36584,37120,40264
36513,37062,40139
36443,37009,40041
36362,36961,39979
36323,36947,39943
36357,36976,39946
36421,37023,40007
36490,37079,40116
36607,37165,40256
36779,37287,40444
36954,37417,40697
37131,37560,41009
37377,37754,41373
37698,37998,41802
38036,38261,42296
38384,38539,42831
38785,38853,43376
39215,39181,43927
39599,39477,44478
39937,39743,45009
40290,40010,45512
40643,40268,45992
40933,40489,46446
41175,40678,46861
41426,40863,47228
41663,41033,47553
41831,41166,47839
41953,41268,48070
42079,41361,48246
42188,41440,48389
42228,41480,48504
42233,41506,48586
42259,41544,48642
42277,41570,48680
42250,41566,48693
42212,41549,48667
42194,41531,48603
42156,41485,48521
42066,41402,48425
41976,41320,48312
41924,41261,48203
41878,41207,48122
41810,41150,48063
41762,41113,48005
41757,41097,47947
41737,41071,47889
41668,41019,47815
41594,40966,47714
41533,40921,47603
41443,40859,47499
41321,40783,47398
41220,40724,47292
41149,40684,47189
41062,40636,47099
40954,40579,47004
40876,40533,46886
40831,40496,46762
40760,40437,46646
40666,40364,46533
40602,40311,46422
40561,40265,46321
40491,40201,46237
40411,40143,46163
40377,40122,46090
40370,40112,46023
40320,40073,45962
40233,40010,45891
40164,39945,45798
40099,39876,45703
39986,39788,45618
39862,39707,45535
39779,39661,45455
39712,39621,45385
39621,39566,45324
39531,39510,45255
39482,39470,45174
39435,39426,45099
39348,39361,45030
39259,39299,44959
39207,39261,44888
39164,39230,44831
39100,39194,44787
39055,39172,44740
39053,39169,44688
39036,39152,44633
38972,39107,44566
38903,39057,44475
38851,39011,44371
38776,38950,44273
38669,38872,44180
38584,38812,44085
38534,38777,43989
38465,38726,43894
38362,38655,43788
38272,38590,43658
38192,38523,43510
38070,38429,43361
37922,38325,43216
37811,38243,43075
37727,38169,42941
37611,38078,42815
37477,37988,42693
37390,37930,42574
37334,37886,42455
37243,37823,42334
37125,37743,42198
37031,37666,42035
36938,37582,41858
36792,37467,41677
36619,37344,41490
36476,37243,41307
36348,37150,41141
36192,37050,40989
36037,36954,40834
35927,36875,40676
35823,36793,40525
35680,36698,40369
35531,36604,40195
35416,36518,40011
35303,36425,39840
35159,36318,39689
35024,36220,39546
34927,36141,39403
34827,36053,39267
34702,35949,39135
34600,35860,38987
34537,35796,38827
34459,35722,38673
34346,35631,38528
34244,35554,38387
34165,35495,38268
34067,35437,38181
33951,35378,38107
33875,35344,38031
33838,35331,37957
33775,35302,37885
33672,35245,37796
33575,35181,37669
33476,35100,37510
33314,34972,37324
33110,34821,37109
32936,34684,36873
32784,34552,36641
32602,34403,36431
32413,34264,36239
32290,34172,36077
32233,34116,35969
32194,34074,35929
32187,34062,35949
32257,34104,36031
32384,34190,36192
32519,34296,36430
32692,34439,36734
32949,34642,37101
33261,34883,37533
33584,35138,38015
33933,35412,38526
34338,35713,39058
34758,36017,39611
35152,36311,40181
35560,36624,40764
36013,36965,41360
36480,37315,41979
36933,37671,42609
37398,38045,43222
37887,38429,43816
38342,38784,44392
38729,39094,44927
39085,39377,45400
39425,39636,45815
39708,39849,46186
39922,40017,46505
40131,40173,46767
40336,40317,46980
40477,40421,47153
40554,40490,47278
40617,40548,47343
40666,40588,47363
40661,40601,47368
40631,40606,47372
40653,40644,47384
