green_channel,red_channel,ir_channel
59415,28591,11006
59402,28580,10972
59399,28576,10934
59406,28577,10896
59408,28574,10860
59404,28569,10825
59415,28570,10792
59435,28575,10758
59443,28577,10724
59440,28574,10690
59443,28572,10657
59452,28572,10625
59447,28570,10592
59433,28565,10554
59425,28560,10515
59421,28554,10480
59411,28547,10451
59405,28541,10425
59415,28542,10403
59428,28545,10385
59427,28543,10368
59427,28546,10350
59443,28557,10335
59462,28571,10328
59475,28584,10328
59502,28603,10332
59554,28633,10342
59616,28667,10360
59676,28703,10381
59745,28743,10403
59827,28786,10426
59905,28830,10449
59973,28870,10472
60047,28914,10494
60130,28960,10518
60202,29003,10547
60258,29041,10578
60318,29082,10613
60387,29130,10661
60455,29181,10729
60528,29239,10823
60637,29320,10958
60793,29432,11152
60988,29578,11416
61235,29767,11759
61558,30007,12183
61955,30300,12694
62404,30636,13288
61588,31015,13959
57457,31434,14697
50268,31883,15491
41733,32350,16329
33075,32831,17189
25093,33324,18059
18224,33816,18925
12647,34292,19774
8384,34747,20589
5350,35181,21358
3374,35586,22076
2250,35954,22734
1791,36284,23325
1827,36581,23847
2181,36839,24307
2711,37055,24703
3329,37238,25036
3971,37396,25316
4575,37530,25553
5099,37637,25748
5546,37723,25904
5920,37790,26027
6209,37839,26126
6414,37869,26202
6563,37890,26258
6675,37907,26301
6743,37917,26337
6775,37920,26369
6798,37925,26399
6825,37937,26429
6840,37952,26464
6848,37971,26506
6872,38000,26552
6918,38040,26606
6961,38081,26669
7001,38117,26734
7055,38154,26799
7119,38190,26867
7171,38220,26934
7214,38248,26995
7265,38280,27055
7319,38313,27109
7357,38337,27151
7379,38354,27173
7399,38366,27174
7410,38370,27155
7397,38360,27117
7366,38340,27061
7336,38313,26990
7297,38278,26911
7237,38231,26823
7173,38177,26731
7121,38126,26642
7068,38075,26559
7004,38022,26478
6942,37973,26400
6896,37935,26332
6851,37902,26276
6799,37865,26226
6753,37829,26179
6723,37801,26136
6698,37778,26104
6671,37758,26081
6659,37746,26064
6665,37745,26057
6670,37746,26060
6669,37743,26073
6672,37741,26089
6683,37740,26104
6683,37736,26117
6670,37728,26122
6664,37720,26113
6665,37714,26093
6651,37703,26067
6623,37685,26033
6601,37666,25990
6579,37642,25937
6536,37606,25876
6477,37562,25804
6419,37516,25723
6359,37467,25630
6278,37408,25526
6182,37341,25409
6089,37272,25283
5999,37201,25155
5901,37124,25026
5798,37043,24894
5706,36966,24760
5616,36889,24627
5513,36809,24495
5408,36729,24359
5314,36652,24224
5224,36578,24097
5127,36503,23974
5036,36431,23852
4961,36365,23729
4887,36301,23611
4802,36236,23497
4727,36178,23391
4674,36131,23297
4624,36091,23216
4565,36055,23141
4514,36021,23068
4476,35990,22997
4432,35955,22927
4376,35917,22853
4326,35883,22776
4290,35853,22701
4246,35821,22626
4192,35783,22549
4145,35744,22470
4107,35708,22393
4059,35668,22319
4000,35625,22242
3945,35585,22163
3895,35548,22086
3832,35507,22007
3762,35460,21924
3703,35413,21841
3656,35372,21761
3601,35333,21683
3538,35295,21600
3484,35260,21515
3433,35224,21429
3366,35177,21339
3287,35123,21243
3214,35068,21146
3144,35010,21052
3063,34947,20957
2982,34885,20860
2915,34828,20762
2851,34773,20668
2778,34719,20576
2705,34666,20481
2644,34616,20387
2582,34564,20295
2504,34509,20199
2422,34453,20095
2351,34397,19987
2275,34336,19880
2183,34265,19768
2089,34190,19648
2003,34116,19529
1912,34041,19412
1810,33964,19299
1712,33893,19188
1625,33827,19075
1529,33757,18960
1420,33681,18839
1321,33608,18715
1239,33541,18591
1153,33473,18471
1059,33405,18351
976,33343,18232
906,33288,18119
825,33233,18010
732,33175,17898
649,33121,17785
1891,33068,17675
6486,33011,17564
12850,32943,17446
18528,32869,17323
24616,32789,17197
31767,32699,17071
39017,32606,16940
45758,32516,16805
51619,32429,16670
56423,32338,16533
60154,32246,16389
62904,32160,16241
64785,32073,16093
396,31980,15944
972,31881,15790
1131,31782,15628
991,31676,15458
646,31560,15282
192,31439,15098
65242,31320,14911
64758,31204,14734
64300,31095,14575
63903,31002,14446
63596,30938,14360
63371,30903,14329
63222,30900,14361
63164,30940,14465
63203,31029,14650
63323,31160,14920
63513,31333,15273
62462,31554,15697
58111,31818,16186
50697,32108,16729
41942,32414,17311
33078,32738,17913
24883,33072,18526
17787,33397,19135
11986,33706,19726
7522,34004,20290
4298,34289,20825
2130,34549,21322
823,34782,21775
202,34995,22183
82,35186,22545
279,35346,22855
668,35475,23110
1168,35581,23317
1704,35669,23488
2212,35738,23627
2670,35791,23735
3075,35836,23818
3415,35877,23887
3674,35907,23945
3867,35931,23989
4013,35956,24024
4108,35979,24056
4150,35993,24080
4162,36000,24095
4166,36008,24104
4156,36012,24110
4126,36006,24112
4097,36000,24106
4087,36000,24098
4084,36006,24099
4080,36014,24110
4095,36029,24130
4133,36054,24160
4175,36082,24201
4208,36110,24243
4243,36137,24279
4280,36161,24309
4302,36178,24330
4305,36183,24338
4308,36183,24329
4313,36179,24304
4298,36163,24258
4259,36133,24193
4215,36095,24111
4167,36050,24019
4098,35995,23916
4015,35933,23803
3942,35874,23685
3884,35822,23575
3828,35774,23478
3778,35733,23394
3755,35707,23325
3754,35699,23280
3759,35702,23259
3771,35715,23256
3805,35740,23269
3847,35771,23297
3879,35801,23333
3912,35831,23371
3955,35866,23412
3998,35901,23457
4030,35933,23506
4065,35964,23554
4113,35999,23598
4160,36032,23642
4191,36058,23681
4217,36081,23713
4248,36101,23734
4271,36112,23746
4278,36114,23749
4282,36116,23744
4294,36117,23733
4297,36115,23715
4287,36109,23688
4281,36104,23655
4284,36103,23620
4279,36097,23583
4264,36084,23543
4253,36070,23499
4247,36053,23450
4222,36026,23389
4175,35988,23316
4126,35947,23237
4081,35906,23151
4020,35858,23059
3942,35803,22959
3866,35747,22855
3798,35691,22752
3723,35631,22653
3647,35571,22554
3587,35520,22455
3537,35475,22356
3477,35430,22260
3416,35386,22166
3370,35350,22076
3334,35318,21995
3288,35285,21919
3241,35255,21847
3211,35233,21777
3189,35216,21712
3159,35195,21649
3130,35175,21586
3114,35159,21523
3097,35139,21461
3066,35112,21396
3029,35083,21327
2998,35055,21257
2962,35026,21189
2913,34995,21121
2871,34965,21050
2841,34938,20980
2808,34909,20913
2763,34876,20847
2719,34845,20781
2684,34816,20714
2644,34783,20649
2594,34745,20583
2550,34710,20516
2519,34680,20453
2484,34651,20394
2448,34624,20340
2430,34609,20289
2433,34605,20248
2432,34600,20214
2424,34590,20181
2429,34583,20147
2441,34577,20116
2438,34570,20089
2422,34559,20062
2417,34551,20032
2421,34550,20003
2415,34551,19978
2406,34555,19954
2411,34566,19933
2425,34583,19917
2433,34596,19904
2438,34605,19889
2453,34613,19870
2468,34615,19850
2468,34607,19827
2463,34594,19795
2464,34584,19758
2458,34573,19722
2437,34558,19686
2417,34543,19649
2412,34532,19612
2407,34522,19578
2394,34510,19545
2387,34503,19510
2398,34507,19479
2413,34518,19457
2423,34532,19442
2444,34552,19434
2487,34578,19438
2529,34604,19454
2561,34629,19474
2597,34654,19494
2643,34679,19513
2679,34696,19527
2701,34707,19528
2725,34721,19518
2754,34737,19504
2767,34748,19488
2765,34755,19469
2767,34764,19448
2778,34774,19428
2777,34777,19408
2764,34770,19382
2759,34764,19349
2756,34756,19310
2734,34739,19261
2696,34713,19201
2663,34685,19136
2636,34656,19075
2598,34623,19017
2556,34589,18959
2527,34559,18902
2506,34535,18853
2483,34516,18819
2472,34509,18803
2495,34524,18819
2550,34566,18885
2635,34635,19011
2768,34740,19204
2967,34890,19470
3220,35084,19813
3513,35318,20227
3857,35594,20709
4257,35911,21256
4690,36252,21856
5130,36602,22490
5584,36960,23143
6051,37324,23802
6505,37680,24457
6935,38023,25092
7354,38352,25696
7762,38664,26263
8134,38950,26789
8462,39208,27268
8762,39444,27695
9037,39655,28070
9265,39832,28389
9442,39972,28650
9593,40086,28859
9721,40175,29023
9810,40239,29150
9871,40284,29248
9931,40323,29323
9992,40361,29381
10035,40393,29425
10068,40419,29458
10111,40450,29488
10158,40481,29519
10190,40504,29546
10209,40516,29566
10231,40524,29582
10255,40533,29600
10267,40540,29619
10279,40549,29638
10304,40559,29657
10334,40567,29678
10353,40571,29701
10374,40579,29724
10411,40598,29748
10453,40622,29779
10484,40643,29811
10512,40662,29839
10549,40679,29859
10578,40689,29866
10583,40689,29856
10580,40683,29829
10581,40674,29788
10570,40654,29735
10535,40622,29670
10494,40583,29589
10459,40543,29499
10412,40500,29408
10352,40451,29314
10300,40406,29224
10263,40367,29145
10223,40330,29080
10180,40298,29028
10157,40282,28992
10154,40277,28971
10151,40275,28961
10146,40277,28960
10162,40287,28970
10201,40308,28992
10240,40333,29024
10274,40363,29063
10324,40405,29113
10385,40455,29176
10439,40504,29246
10491,40554,29317
10557,40610,29387
10628,40666,29455
10683,40709,29514
10724,40741,29558
10763,40768,29590
10792,40789,29610
10801,40797,29618
10800,40795,29613
10809,40794,29599
10811,40789,29576
10792,40773,29542
10765,40753,29499
10744,40732,29449
10715,40704,29390
10668,40666,29319
10622,40623,29238
10590,40582,29151
10556,40543,29065
10509,40506,28983
10463,40472,28905
10430,40442,28831
10392,40409,28757
10342,40372,28681
10297,40338,28606
10263,40306,28533
10220,40269,28462
10165,40226,28387
10118,40182,28308
10080,40139,28229
10032,40093,28148
9972,40045,28065
9919,40001,27981
9875,39958,27900
9820,39912,27821
9756,39865,27742
9705,39824,27664
9663,39787,27591
9610,39745,27519
9554,39704,27444
9518,39672,27369
9494,39648,27299
9462,39623,27234
9426,39598,27170
9402,39576,27105
9377,39552,27042
9332,39517,26977
9275,39476,26908
9227,39436,26838
9180,39398,26769
9122,39355,26698
9065,39309,26625
9028,39270,26554
8997,39234,26491
8957,39199,26431
8921,39171,26373
8906,39154,26321
8900,39143,26283
8887,39134,26255
8882,39132,26231
8891,39139,26212
8895,39149,26198
8887,39155,26183
8883,39157,26165
8886,39156,26142
8880,39147,26115
8860,39132,26083
8846,39115,26046
8843,39100,26007
8826,39078,25963
8792,39049,25908
8764,39018,25849
8741,38989,25788
8700,38953,25725
8644,38911,25655
8593,38872,25582
8553,38839,25509
8504,38803,25434
8454,38766,25358
8427,38738,25288
8416,38719,25229
8404,38704,25181
8395,38697,25143
8409,38707,25121
8438,38732,25117
8468,38761,25123
8503,38796,25137
8562,38843,25164
8642,38902,25215
8733,38975,25300
8852,39071,25426
9018,39198,25603
9221,39354,25838
9448,39538,26130
9712,39755,26477
10025,40005,26880
10367,40279,27338
10726,40572,27841
11113,40886,28382
11537,41222,28955
11978,41569,29552
12422,41922,30160
12881,42287,30767
13356,42660,31369
13818,43029,31959
14251,43381,32526
14668,43715,33058
15067,44029,33552
15424,44314,34002
15734,44567,34403
16019,44795,34758
16280,44996,35068
16499,45164,35334
16679,45300,35555
16843,45417,35737
16994,45518,35890
17111,45598,36013
17197,45658,36107
17273,45707,36175
17337,45741,36223
17369,45756,36252
17372,45754,36258
17370,45744,36248
17361,45726,36228
17329,45699,36200
17289,45669,36166
17266,45646,36132
17255,45629,36108
17242,45616,36095
17238,45613,36090
17255,45621,36092
17279,45636,36100
17291,45647,36109
17301,45655,36113
17319,45659,36108
17327,45656,36093
17311,45641,36065
17281,45614,36016
17245,45578,35945
17185,45527,35849
17087,45455,35726
16968,45364,35577
16839,45257,35411
16690,45135,35237
16522,45002,35055
16363,44871,34871
16227,44753,34698
16096,44648,34545
15974,44558,34413
15885,44489,34303
15829,44442,34219
15786,44412,34162
15757,44395,34129
15761,44398,34117
15792,44417,34127
15821,44441,34152
15850,44466,34186
15898,44500,34228
15963,44544,34279
16021,44590,34338
16073,44638,34399
16140,44692,34464
16215,44750,34537
16278,44807,34614
16336,44861,34687
16406,44916,34754
16476,44967,34818
16523,45003,34870
16557,45027,34903
16594,45048,34915
16624,45063,34912
16639,45071,34899
16654,45076,34877
16685,45088,34855
16721,45104,34838
16747,45121,34825
16773,45142,34813
16808,45165,34798
16836,45181,34780
16846,45188,34756
16853,45193,34725
16871,45202,34692
16884,45210,34659
16886,45213,34627
16899,45220,34597
16934,45238,34576
16977,45263,34568
17024,45298,34574
17103,45356,34600
17220,45439,34651
17354,45541,34726
17498,45654,34819
17663,45778,34918
17843,45907,35019
18017,46031,35123
18182,46147,35224
18347,46257,35315
18500,46355,35391
18612,46428,35445
18682,46476,35471
18730,46503,35472
18751,46504,35448
18727,46472,35397
18665,46417,35322
18590,46348,35229
18503,46266,35125
18394,46174,35012
18284,46082,34895
18203,46004,34783
18147,45943,34688
18108,45896,34613
18096,45869,34556
18119,45864,34518
18158,45873,34498
18190,45888,34485
18221,45906,34470
18260,45927,34451
18286,45939,34426
18282,45935,34390
18268,45921,34342
18256,45899,34285
18227,45866,34221
18173,45820,34145
18114,45766,34054
18059,45707,33952
17989,45640,33846
17900,45564,33733
17817,45488,33617
17741,45413,33504
17651,45332,33396
17548,45244,33288
17457,45160,33182
17382,45082,33079
17293,45004,32973
17192,44925,32863
17100,44850,32753
17012,44774,32640
16905,44690,32524
16785,44600,32399
16678,44513,32266
16583,44430,32135
16477,44348,32008
16371,44270,31884
16286,44199,31769
16215,44135,31664
16139,44071,31563
16065,44008,31462
16003,43951,31360
15935,43890,31255
15846,43817,31139
15747,43735,31011
15658,43651,30880
15572,43568,30756
15478,43487,30644
15401,43420,30554
15362,43383,30501
15359,43380,30502
15390,43415,30569
15481,43499,30709
15643,43639,30926
15858,43826,31222
16112,44052,31591
16417,44317,32024
16774,44615,32512
17159,44935,33048
17558,45270,33622
17984,45621,34215
18430,45985,34813
18865,46347,35408
19281,46700,35990
19696,47046,36551
20108,47381,37088
20485,47689,37595
20819,47965,38059
21127,48211,38471
21401,48421,38826
21609,48582,39116
21748,48692,39337
21844,48762,39498
21898,48799,39608
21899,48800,39669
21860,48772,39685
21811,48730,39668
21763,48684,39638
21709,48635,39604
21661,48590,39570
21635,48558,39541
21621,48537,39522
21602,48521,39510
21592,48515,39502
21603,48522,39501
21618,48529,39507
21618,48529,39516
21615,48526,39523
21619,48525,39527
21608,48514,39527
21566,48481,39515
21508,48431,39482
21446,48370,39435
21367,48295,39376
21263,48205,39300
21154,48110,39207
21057,48020,39106
20962,47936,39004
20865,47859,38902
20787,47796,38800
20733,47751,38707
20683,47717,38624
20627,47687,38551
20582,47661,38479
20543,47635,38402
20482,47597,38316
20398,47541,38216
20315,47475,38104
20232,47400,37984
20126,47309,37857
20001,47205,37722
19885,47099,37579
19775,46995,37437
19653,46891,37300
19525,46788,37169
19415,46695,37047
19318,46611,36938
19213,46529,36841
19104,46448,36749
19009,46370,36660
18914,46293,36576
18798,46207,36489
18670,46116,36394
18547,46024,36290
18417,45930,36179
18266,45824,36058
18110,45715,35926
17969,45608,35790
17829,45496,35654
17675,45373,35513
17515,45248,35364
17360,45124,35209
17195,44996,35048
17010,44861,34876
16827,44723,34691
16659,44587,34498
16488,44448,34303
16305,44305,34104
16129,44165,33903
15967,44033,33709
15804,43904,33524
15639,43779,33348
15494,43668,33180
15371,43570,33023
15250,43481,32879
15134,43401,32747
15048,43342,32628
14994,43302,32525
14945,43268,32436
14896,43235,32352
14861,43205,32268
14836,43178,32187
14792,43143,32106
14727,43099,32016
14659,43050,31913
14575,42986,31799
14456,42902,31675
14327,42809,31541
14221,42725,31404
14137,42651,31275
14056,42584,31156
13983,42525,31049
13937,42482,30958
13908,42454,30885
13880,42435,30826
13863,42424,30777
13871,42425,30740
13886,42432,30714
13889,42438,30693
13897,42445,30675
13922,42457,30661
13945,42467,30652
13952,42472,30637
13963,42477,30615
13986,42485,30591
14000,42491,30570
13993,42489,30547
13985,42487,30517
13985,42488,30488
13979,42485,30460
13962,42474,30425
13952,42464,30385
13953,42457,30344
13947,42448,30307
13935,42437,30273
13940,42435,30242
13962,42446,30217
13980,42458,30198
13988,42468,30181
14008,42482,30163
14038,42497,30145
14054,42505,30124
14054,42504,30095
14055,42497,30054
14054,42485,30008
14027,42459,29954
13981,42419,29888
13942,42373,29813
13902,42324,29736
13841,42269,29661
13774,42214,29584
13724,42171,29508
13684,42134,29438
13634,42096,29369
13583,42060,29295
13550,42030,29221
13522,41999,29149
13482,41964,29079
13445,41933,29010
13425,41911,28946
13406,41892,28887
13371,41869,28828
13334,41844,28762
13306,41819,28691
13265,41783,28616
13196,41729,28532
13119,41666,28435
13041,41597,28326
12949,41518,28210
12844,41435,28090
12752,41360,27973
12688,41305,27878
12643,41270,27819
12621,41265,27805
12657,41305,27852
12765,41400,27975
12930,41544,28181
13151,41735,28468
13450,41979,28835
13813,42271,29279
14207,42595,29789
14626,42942,30348
15085,43312,30944
15569,43697,31567
16042,44082,32199
16499,44458,32824
16955,44827,33431
17400,45179,34015
17807,45501,34566
18174,45796,35074
18519,46072,35539
18836,46323,35964
19109,46542,36347
19354,46738,36690
19592,46921,36997
19818,47091,37270
20015,47243,37511
20195,47380,37721
20368,47510,37901
20520,47626,38056
20640,47724,38187
20748,47809,38299
20853,47888,38396
20940,47955,38481
21000,48000,38550
21049,48030,38604
21098,48052,38646
21130,48063,38678
21138,48059,38699
21144,48052,38711
21153,48044,38718
21145,48029,38720
21115,48003,38711
21086,47975,38694
21062,47948,38676
21027,47921,38658
20982,47893,38639
20955,47875,38623
20948,47869,38613
20938,47866,38604
20920,47862,38593
20915,47859,38576
20915,47852,38553
20894,47830,38514
20844,47787,38451
20783,47730,38362
20703,47656,38249
20577,47555,38110
20415,47429,37943
20244,47290,37752
20064,47142,37548
19864,46983,37339
19656,46822,37129
19469,46670,36926
19298,46526,36736
19127,46388,36556
18966,46259,36383
18830,46145,36223
18707,46043,36080
18585,45948,35952
18478,45866,35839
18400,45799,35741
18333,45741,35660
18261,45688,35591
18200,45640,35527
18157,45599,35466
18111,45558,35407
18054,45514,35350
18002,45474,35293
17961,45438,35239
17910,45396,35183
17841,45342,35120
17772,45283,35046
17705,45217,34958
17612,45138,34860
17490,45043,34749
17364,44944,34625
17242,44842,34490
17103,44732,34346
16953,44617,34194
16815,44509,34033
16694,44410,33873
16570,44315,33718
16444,44226,33571
16339,44149,33436
16253,44082,33311
16158,44013,33191
16056,43941,33068
15971,43876,32946
15891,43815,32826
15796,43748,32704
15696,43675,32575
15612,43603,32439
15533,43530,32304
15439,43452,32169
15342,43373,32032
15254,43298,31894
15165,43219,31760
15056,43132,31625
14937,43041,31486
14825,42949,31345
14707,42849,31206
14572,42741,31063
14440,42635,30917
14323,42540,30773
14209,42453,30635
14090,42368,30501
13983,42290,30368
13897,42223,30240
13813,42159,30124
13726,42096,30020
13648,42039,29922
13580,41988,29826
13499,41936,29725
13401,41873,29614
13308,41801,29497
13215,41721,29378
13100,41629,29255
12965,41528,29124
12840,41429,28988
12727,41334,28851
12604,41233,28712
12474,41127,28571
12357,41026,28427
12244,40926,28281
12113,40822,28129
11967,40716,27970
11830,40614,27807
11695,40514,27645
11540,40407,27479
11374,40291,27304
11221,40174,27125
11079,40059,26948
10933,39942,26774
10789,39827,26605
10660,39721,26444
10531,39621,26290
10387,39520,26137
10239,39420,25980
10100,39323,25821
9959,39227,25664
9804,39122,25504
9647,39015,25339
9504,38915,25176
9368,38818,25021
9227,38717,24869
9094,38622,24717
8984,38540,24573
8880,38463,24440
8770,38385,24312
8665,38314,24181
8571,38253,24051
8470,38190,23925
8357,38116,23796
8245,38036,23656
8139,37961,23513
8026,37885,23374
7905,37803,23233
7797,37723,23091
7704,37649,22954
7609,37575,22826
7511,37501,22706
7437,37442,22604
7390,37403,22533
7358,37378,22501
7348,37371,22512
7389,37397,22574
7484,37461,22699
7612,37558,22886
7776,37687,23129
7995,37856,23424
8263,38063,23775
8557,38293,24178
8868,38536,24618
9201,38794,25086
9548,39066,25575
9894,39340,26075
10240,39616,26575
10591,39894,27069
10936,40170,27554
11259,40430,28016
11561,40673,28441
11850,40902,28831
12111,41110,29186
12330,41289,29498
12519,41438,29762
12690,41564,29987
12827,41667,30178
12922,41742,30331
12993,41793,30441
13050,41829,30519
13082,41847,30575
13085,41848,30610
13086,41841,30625
13094,41829,30624
13089,41811,30613
13067,41788,30599
13052,41770,30583
13049,41761,30569
13039,41754,30561
13022,41746,30557
13018,41745,30556
13027,41745,30558
13025,41740,30563
13011,41729,30566
13008,41724,30573
13016,41725,30588
13021,41727,30609
13025,41728,30627
13039,41734,30638
13053,41742,30645
13046,41740,30640
13021,41728,30612
12993,41709,30564
12954,41682,30503
12894,41641,30428
12821,41586,30331
12752,41529,30219
12674,41470,30104
12576,41402,29986
12476,41329,29863
12389,41260,29739
12308,41194,29623
12222,41130,29514
12145,41072,29410
12089,41030,29321
12044,40999,29252
11998,40970,29199
11962,40947,29155
11945,40933,29122
11930,40921,29097
11907,40905,29076
11890,40890,29058
11888,40883,29047
11886,40881,29047
11877,40879,29048
11876,40877,29047
11888,40882,29052
11892,40889,29061
11881,40892,29065
11873,40891,29060
11869,40886,29046
11845,40871,29022
11798,40845,28984
11751,40812,28934
11706,40774,28877
11645,40726,28808
11571,40670,28723
11505,40616,28627
11447,40564,28529
11379,40507,28432
11306,40447,28333
11247,40393,28236
11193,40344,28145
11125,40291,28051
11046,40229,27947
10974,40166,27836
10906,40105,27726
10823,40039,27615
10728,39967,27497
10635,39893,27372
10537,39816,27247
10423,39730,27118
10306,39639,26981
10201,39555,26844
10099,39475,26713
9991,39394,26585
9888,39315,26455
9802,39243,26330
9719,39174,26212
9628,39103,26097
9540,39035,25982
9463,38974,25867
9383,38916,25755
9295,38858,25646
9222,38807,25538
9167,38764,25436
9108,38721,25340
9040,38676,25245
8983,38637,25151
8938,38604,25062
8878,38565,24974
8796,38511,24875
8716,38451,24765
8634,38385,24651
8531,38308,24534
8410,38221,24411
8297,38134,24281
8193,38049,24151
8079,37960,24021
7960,37869,23892
7861,37786,23768
7780,37715,23657
7699,37654,23558
7619,37599,23463
7554,37550,23370
7495,37503,23281
7423,37448,23190
7346,37389,23093
7276,37333,22995
7206,37279,22901
7120,37218,22806
7031,37152,22704
6953,37088,22596
6873,37024,22490
6779,36956,22384
6687,36887,22273
6608,36825,22160
6527,36765,22052
6431,36696,21943
6331,36622,21824
6236,36548,21700
6137,36472,21577
6029,36392,21451
5926,36315,21321
5834,36241,21192
5737,36164,21074
5634,36085,20967
5551,36022,20875
5500,35985,20813
5471,35973,20791
5471,35989,20819
5529,36044,20908
5644,36141,21061
5794,36268,21278
5980,36423,21550
6221,36615,21870
6513,36842,22242
6828,37089,22661
7159,37348,23110
7518,37620,23577
7892,37899,24058
8249,38175,24538
8581,38440,25004
8900,38695,25448
9197,38935,25867
9458,39150,26251
9694,39338,26594
9921,39507,26900
10124,39654,27174
10288,39774,27412
10423,39870,27612
10545,39955,27777
10644,40022,27913
10710,40069,28020
10753,40101,28099
10789,40128,28156
10812,40145,28197
10813,40147,28222
10810,40143,28227
10813,40141,28222
10811,40137,28218
10798,40131,28217
10791,40128,28216
10802,40135,28221
10813,40143,28233
10817,40147,28248
10830,40154,28266
10858,40167,28289
10879,40177,28317
10886,40180,28337
10893,40182,28347
10897,40178,28348
10877,40161,28334
10831,40129,28296
10782,40085,28235
10728,40032,28157
10649,39967,28061
10549,39890,27947
10454,39813,27821
10364,39739,27696
10260,39661,27574
10147,39581,27447
10047,39506,27315
9960,39439,27188
9871,39370,27069
9788,39302,26957
9728,39248,26855
9680,39207,26769
9628,39171,26696
9586,39142,26636
9574,39132,26592
9577,39135,26566
9579,39142,26556
9589,39154,26559
9615,39177,26573
9638,39198,26595
9646,39211,26618
9654,39218,26637
9672,39228,26654
9684,39234,26671
9679,39232,26686
9675,39227,26694
9685,39226,26700
9692,39226,26706
9684,39219,26706
9676,39211,26694
9674,39206,26674
9660,39197,26647
9628,39180,26611
9601,39160,26566
9580,39141,26518
9545,39117,26465
9493,39084,26403
9443,39048,26329
9392,39006,26250
9320,38953,26165
9229,38891,26068
9145,38829,25960
9066,38769,25846
8970,38702,25728
8865,38629,25606
8776,38564,25487
8704,38510,25378
8629,38454,25277
8559,38396,25179
8512,38348,25088
8472,38307,25002
8416,38261,24917
8354,38211,24830
8300,38166,24744
8247,38125,24660
8180,38079,24575
8109,38029,24484
8050,37982,24391
7986,37934,24300
7905,37877,24207
7817,37814,24107
7734,37752,24002
7641,37683,23898
7529,37603,23791
7417,37521,23676
7319,37444,23554
7224,37371,23436
7131,37300,23323
7059,37239,23215
7012,37193,23113
6967,37156,23023
6917,37119,22936
6876,37089,22853
6845,37063,22780
6803,37032,22714
6751,36995,22647
6705,36957,22576
6666,36924,22503
6611,36884,22428
6537,36833,22342
6466,36779,22249
6397,36725,22157
6310,36663,22063
6206,36591,21959
6108,36518,21848
6017,36446,21738
5916,36372,21627
5813,36296,21514
5728,36228,21402
5655,36170,21299
5577,36116,21207
5502,36069,21122
5445,36033,21042
5398,36002,20968
5346,35964,20896
5294,35922,20822
5253,35885,20744
5210,35847,20668
5152,35800,20589
5091,35749,20504
5042,35704,20416
4993,35661,20332
4933,35614,20250
4875,35569,20169
4831,35534,20095
4787,35506,20031
4735,35476,19968
4684,35447,19901
4639,35419,19835
4588,35389,19768
4525,35348,19694
4471,35305,19610
4430,35266,19527
4386,35228,19454
4344,35194,19397
4327,35176,19360
4345,35185,19357
4382,35217,19396
4440,35274,19480
4545,35364,19614
4698,35488,19805
4878,35637,20050
5086,35811,20345
5341,36018,20690
5644,36254,21087
5970,36509,21530
6312,36782,22007
6686,37077,22513
7081,37383,23041
7469,37683,23578
7845,37972,24106
8218,38254,24614
8577,38526,25100
8902,38777,25556
9198,39006,25973
9480,39217,26352
9735,39407,26696
9951,39568,27002
10142,39707,27267
10321,39835,27501
10478,39947,27707
10600,40038,27882
10705,40116,28028
10803,40187,28151
10877,40244,28258
10920,40278,28346
10952,40299,28413
10986,40317,28465
11008,40330,28507
11013,40339,28541
11021,40350,28566
11041,40366,28590
11055,40380,28619
11062,40389,28651
11083,40406,28685
11121,40431,28724
11153,40457,28770
11180,40484,28818
11222,40517,28865
11280,40558,28919
11331,40597,28978
11368,40629,29031
11405,40656,29071
11436,40676,29101
11437,40676,29118
11409,40657,29111
11379,40629,29081
11345,40593,29035
11287,40541,28970
11215,40480,28887
11148,40421,28791
11078,40361,28688
10988,40291,28579
10890,40217,28465
10805,40152,28354
10723,40093,28255
10631,40033,28163
10545,39975,28075
10483,39927,27993
10436,39888,27924
10391,39855,27869
10359,39835,27825
10353,39832,27793
10356,39837,27778
10354,39844,27777
10358,39854,27784
10375,39871,27799
10392,39888,27819
10397,39900,27832
10403,39910,27836
10410,39918,27833
10400,39914,27828
10371,39896,27816
10344,39875,27793
10325,39855,27763
10293,39827,27729
10248,39792,27686
10206,39760,27639
10171,39731,27591
10123,39698,27542
10063,39659,27485
10012,39620,27420
9968,39584,27350
9909,39539,27273
9838,39486,27183
9772,39432,27082
9708,39376,26980
9627,39307,26875
9533,39233,26763
9446,39164,26649
9362,39096,26536
9269,39025,26426
9178,38955,26316
9107,38896,26211
9048,38847,26119
8988,38802,26036
8939,38764,25956
8912,38741,25880
8892,38724,25810
8862,38702,25739
8830,38679,25665
8810,38666,25594
8792,38656,25531
8763,38638,25470
8733,38617,25405
8711,38600,25340
8679,38578,25277
8627,38544,25215
8571,38507,25149
8522,38471,25080
8470,38432,25013
8411,38389,24944
8364,38349,24871
8330,38318,24804
8288,38289,24744
8232,38255,24684
8179,38217,24615
8130,38177,24542
8063,38126,24466
7984,38067,24387
7915,38014,24302
7856,37966,24217
7786,37915,24130
7709,37860,24036
7652,37814,23936
7609,37775,23840
7558,37732,23750
7501,37688,23664
7460,37654,23589
7428,37629,23525
7383,37600,23464
7331,37566,23398
7285,37534,23328
7238,37503,23258
7175,37465,23188
7106,37420,23112
7048,37377,23031
6994,37336,22954
6930,37292,22879
6865,37248,22800
6809,37206,22718
6751,37161,22636
6678,37106,22548
6603,37048,22456
6537,36992,22363
6462,36933,22270
6370,36863,22171
6283,36792,22069
6214,36728,21969
6143,36667,21874
6065,36608,21780
5997,36557,21687
5947,36520,21599
5893,36487,21518
5830,36450,21440
5773,36415,21362
5727,36384,21286
5670,36346,21211
5595,36295,21130
5521,36238,21040
5455,36181,20945
5378,36118,20845
5290,36050,20740
5210,35982,20630
5136,35916,20520
5047,35848,20409
4947,35778,20297
4861,35715,20190
4788,35661,20094
4710,35605,20006
4631,35550,19918
4572,35503,19828
4525,35463,19743
4471,35425,19663
4418,35392,19584
4382,35370,19510
4353,35353,19442
4317,35332,19379
4286,35312,19322
4280,35306,19286
4293,35315,19284
4312,35336,19320
4357,35381,19398
4450,35462,19531
4585,35573,19727
4749,35710,19979
4955,35878,20282
5213,36081,20638
5505,36312,21047
5819,36559,21497
6167,36827,21976
6549,37115,22481
6939,37410,23008
7322,37706,23544
7708,38004,24077
8096,38299,24604
8461,38577,25118
8791,38832,25604
9102,39070,26049
9392,39286,26452
9638,39469,26812
9839,39618,27127
10015,39743,27394
10167,39847,27621
10277,39927,27808
10350,39985,27956
10410,40032,28070
10457,40071,28162
10478,40095,28239
10481,40105,28296
10491,40112,28338
10505,40119,28379
10510,40123,28421
10517,40129,28461
10543,40146,28499
10579,40171,28544
10607,40195,28592
10633,40217,28641
10675,40247,28693
10721,40281,28754
10756,40312,28817
10792,40342,28879
10840,40376,28940
10883,40406,28996
10905,40422,29038
10918,40428,29064
10934,40435,29082
10938,40437,29097
10920,40430,29105
10894,40419,29100
10872,40412,29084
10841,40396,29061
10793,40365,29024
10744,40328,28969
10698,40289,28899
10636,40244,28819
10559,40193,28729
10490,40142,28633
10432,40094,28536
10363,40042,28437
10282,39986,28336
10213,39935,28240
10154,39892,28155
10086,39848,28081
10014,39801,28010
9958,39761,27946
9920,39733,27893
9880,39707,27847
9837,39680,27805
9812,39663,27772
9807,39657,27755
9797,39653,27748
9785,39646,27744
9787,39642,27743
9801,39645,27748
9809,39647,27756
9819,39650,27761
9842,39661,27762
9867,39675,27768
9873,39683,27771
9868,39684,27765
9865,39685,27752
9851,39679,27730
9814,39657,27694
9768,39626,27643
9726,39592,27588
9676,39553,27535
9610,39504,27474
9540,39452,27396
9471,39401,27307
9393,39342,27210
9304,39273,27106
9220,39204,26996
9147,39142,26887
9066,39080,26778
8973,39013,26668
8887,38951,26555
8813,38897,26445
8733,38845,26339
8645,38792,26235
8569,38744,26130
8508,38699,26031
8439,38649,25938
8363,38595,25845
8299,38545,25746
8241,38500,25646
8167,38446,25542
8079,38379,25432
8000,38311,25321
7929,38244,25213
7845,38172,25104
7751,38096,24992
7670,38025,24881
7597,37961,24777
7513,37897,24677
7423,37832,24572
7342,37773,24462
7264,37717,24354
7177,37660,24249
7092,37605,24148
7024,37558,24053
6965,37515,23970
6903,37472,23894
6848,37433,23819
6811,37401,23744
6778,37373,23675
6736,37341,23611
6698,37314,23548
6674,37296,23491
6642,37276,23436
6588,37244,23377
6529,37202,23307
6468,37155,23225
6390,37097,23136
6289,37023,23035
6183,36943,22920
6082,36864,22797
5970,36778,22671
5842,36681,22538
5718,36582,22401
5605,36490,22267
5485,36397,22137
5353,36302,22006
5230,36215,21873
5122,36140,21748
5009,36066,21632
4890,35989,21516
4784,35918,21401
4695,35853,21291
4599,35785,21186
4499,35715,21076
4414,35651,20964
4339,35593,20854
4258,35531,20742
4178,35469,20630
4118,35419,20526
4068,35378,20436
4006,35337,20354
3943,35296,20276
3895,35264,20202
3852,35239,20135
3800,35209,20069
3748,35178,20003
3708,35154,19936
3666,35130,19872
3611,35098,19806
3555,35061,19735
3513,35028,19662
3470,34994,19590
3417,34954,19518
3371,34916,19442
3343,34888,19369
3312,34859,19301
3269,34822,19233
3227,34783,19158
3190,34747,19078
3134,34703,18994
3052,34645,18902
2968,34585,18805
2892,34528,18710
2807,34469,18618
2716,34404,18525
2639,34346,18427
2575,34295,18330
2506,34240,18238
2432,34184,18147
2376,34141,18062
2330,34104,17986
2270,34060,17914
2199,34011,17840
2146,33972,17768
2107,33946,17712
2065,33922,17679
2032,33909,17668
2035,33924,17690
2080,33971,17763
2156,34044,17894
2272,34148,18081
2447,34290,18329
2673,34466,18641
2927,34666,19010
3217,34892,19428
3554,35152,19892
3924,35437,20399
4305,35734,20935
4702,36044,21489
5123,36370,22052
5544,36697,22618
5940,37007,23169
6318,37299,23693
6683,37578,24187
7017,37832,24646
7305,38050,25056
7559,38237,25413
7786,38399,25722
7969,38525,25991
8105,38618,26218
8216,38692,26404
8316,38753,26561
8385,38796,26693
8422,38824,26796
8455,38849,26874
8492,38878,26938
8515,38901,26995
8525,38916,27044
8548,38935,27090
8583,38961,27138
8610,38985,27188
8629,39007,27236
8664,39033,27283
8710,39065,27337
8745,39094,27395
8773,39120,27448
8810,39152,27498
8851,39186,27552
8878,39212,27609
8898,39232,27658
8926,39253,27700
8952,39273,27738
8959,39281,27768
8954,39281,27783
8951,39279,27787
8938,39272,27781
8901,39249,27758
8857,39216,27713
8820,39182,27654
8775,39140,27585
8707,39081,27501
8626,39008,27400
8541,38935,27289
8447,38858,27175
8338,38775,27059
8231,38694,26940
8137,38624,26824
8041,38558,26718
7943,38494,26621
7862,38439,26530
7803,38396,26452
7750,38361,26391
7699,38331,26343
7671,38315,26305
7667,38312,26283
7666,38314,26273
7664,38319,26270
7679,38334,26275
7708,38360,26291
7728,38382,26315
7735,38398,26336
7749,38415,26349
7765,38431,26357
7763,38434,26362
7747,38424,26357
7735,38413,26341
7723,38398,26316
7687,38370,26277
7633,38328,26222
7582,38284,26153
7527,38240,26076
7450,38183,25990
7362,38119,25890
7278,38058,25781
7186,37994,25669
7078,37917,25555
6970,37837,25438
6882,37765,25323
6799,37698,25209
6712,37631,25093
6630,37567,24971
6564,37514,24850
6498,37465,24737
6417,37408,24625
6336,37350,24507
6270,37300,24393
6199,37249,24285
6112,37186,24177
6022,37121,24064
5936,37057,23952
5840,36991,23846
5735,36920,23739
5642,36855,23631
5568,36797,23529
5493,36738,23431
5413,36676,23337
5347,36621,23245
5294,36575,23154
5229,36526,23063
5149,36474,22965
5077,36427,22863
5012,36383,22763
4934,36328,22664
4845,36263,22563
4769,36202,22462
4707,36148,22364
4639,36091,22266
4566,36031,22169
4510,35982,22077
4462,35942,21994
4401,35900,21917
4328,35851,21833
4259,35798,21739
4186,35740,21640
4092,35671,21536
3990,35599,21422
3900,35534,21308
3817,35473,21200
3728,35410,21092
3642,35350,20981
3575,35300,20879
3514,35256,20790
3444,35210,20705
3381,35168,20620
3336,35138,20541
3295,35116,20473
3249,35091,20412
3213,35068,20353
3191,35051,20299
3170,35035,20256
3145,35019,20219
3132,35012,20180
3136,35015,20141
3139,35020,20108
3136,35020,20074
3147,35025,20040
3170,35035,20007
3178,35038,19977
3171,35031,19942
3168,35024,19904
3168,35015,19868
3149,34996,19832
3113,34969,19787
3083,34946,19735
3060,34924,19681
3025,34892,19624
2987,34856,19562
2966,34833,19502
2965,34826,19457
2965,34829,19431
2978,34843,19417
3018,34871,19415
3071,34908,19420
3115,34941,19427
3154,34973,19430
3203,35008,19433
3246,35039,19437
3264,35051,19432
3265,35049,19412
3260,35042,19381
3241,35027,19342
3200,35001,19293
3152,34968,19231
3108,34935,19160
3055,34898,19086
2984,34847,19004
2913,34789,18909
2852,34733,18810
2786,34676,18714
2711,34614,18620
2644,34558,18525
2591,34513,18439
2537,34473,18368
2485,34433,18313
2458,34413,18283
2465,34420,18295
2493,34449,18356
2547,34500,18469
2658,34587,18641
2825,34717,18877
3027,34880,19175
3264,35073,19529
3553,35301,19932
3885,35557,20379
4228,35827,20858
4575,36101,21358
4937,36384,21875
5307,36670,22405
5661,36942,22930
5993,37196,23434
6311,37438,23910
6602,37659,24348
6844,37845,24737
7044,37999,25074
7222,38127,25364
7370,38231,25612
7479,38308,25818
7562,38367,25980
7638,38424,26108
7697,38473,26214
7730,38507,26299
7755,38535,26363
7790,38566,26415
7817,38591,26460
7819,38601,26493
7810,38602,26509
7808,38604,26514
7796,38598,26515
7764,38577,26508
7727,38552,26489
7701,38531,26469
7677,38511,26456
7650,38488,26449
7642,38479,26452
7659,38492,26472
7681,38516,26508
7708,38544,26548
7757,38581,26591
7819,38624,26637
7867,38659,26683
7896,38683,26722
7925,38702,26751
7948,38715,26768
7944,38712,26767
7915,38696,26742
7881,38676,26694
7842,38650,26628
7784,38612,26546
7713,38564,26448
7654,38518,26345
7602,38476,26245
7538,38430,26150
7472,38382,26060
7424,38343,25981
7387,38313,25918
7346,38281,25865
7305,38248,25816
7279,38226,25774
7259,38210,25742
7232,38190,25717
7211,38173,25696
7212,38169,25685
7218,38172,25686
7213,38171,25693
7212,38169,25703
7229,38175,25722
7249,38184,25750
7260,38196,25782
7278,38214,25811
7309,38241,25843
7339,38269,25878
7354,38289,25905
7366,38300,25914
7376,38304,25909
7363,38294,25892
7323,38269,25858
7276,38235,25805
7227,38197,25739
7156,38144,25662
7066,38077,25570
6980,38010,25468
6905,37949,25366
6823,37884,25265
6732,37815,25160
6651,37751,25049
6577,37694,24938
6490,37632,24829
6391,37560,24715
6302,37491,24597
6219,37427,24482
6125,37361,24369
6026,37293,24251
5940,37233,24130
5859,37178,24016
5775,37121,23906
5700,37067,23797
5650,37026,23695
5612,36992,23606
5568,36957,23528
5527,36923,23456
5504,36898,23390
5485,36877,23333
5452,36852,23277
5419,36828,23219
5399,36812,23161
5377,36797,23109
5339,36769,23056
5296,36734,22990
5259,36697,22916
5212,36655,22841
5148,36603,22762
5089,36549,22675
5040,36501,22588
4983,36452,22502
4914,36399,22414
4852,36354,22323
4805,36323,22242
4751,36291,22172
4687,36254,22107
4637,36226,22045
4602,36207,21990
4563,36187,21936
4518,36160,21876
4487,36136,21814
4469,36119,21757
4443,36100,21706
4413,36079,21652
4394,36064,21595
4382,36054,21544
4355,36038,21497
4318,36015,21444
4289,35990,21388
4261,35964,21333
4216,35927,21277
4162,35884,21216
4123,35847,21156
4092,35817,21101
4055,35785,21048
4024,35759,20996
4016,35750,20956
4022,35752,20932
4024,35755,20914
4035,35763,20896
4068,35780,20883
4105,35800,20878
4129,35814,20872
4152,35828,20862
4185,35850,20855
4210,35874,20855
4218,35893,20853
4228,35907,20843
4247,35922,20825
4256,35930,20800
4246,35925,20765
4240,35918,20719
4244,35914,20667
4237,35906,20618
4221,35891,20572
4222,35885,20536
4243,35895,20525
4270,35912,20544
4308,35938,20594
4387,35994,20684
4511,36084,20828
4661,36202,21030
4842,36348,21287
5078,36536,21605
5366,36762,21989
5680,37010,22428
6016,37276,22907
6386,37572,23420
6785,37890,23966
7189,38213,24534
7596,38534,25105
8013,38859,25668
8427,39176,26216
8815,39470,26735
9177,39742,27216
9520,39997,27658
9827,40225,28057
10076,40413,28405
10282,40569,28699
10463,40705,28947
10611,40815,29158
10717,40895,29329
10800,40958,29461
10874,41012,29562
10931,41053,29638
10964,41075,29688
10986,41084,29715
11003,41087,29726
10998,41079,29723
10967,41054,29704
10928,41023,29669
10892,40994,29626
10849,40960,29584
10801,40921,29544
10768,40892,29509
10755,40879,29484
10745,40872,29468
10736,40868,29458
10741,40868,29451
10755,40876,29448
10757,40878,29445
10741,40868,29431
10722,40851,29405
10698,40830,29371
10649,40791,29325
10573,40737,29257
10493,40680,29167
10409,40617,29064
10301,40535,28946
10174,40439,28809
10048,40345,28657
9922,40253,28501
9784,40150,28340
9644,40040,28171
9520,39938,28006
9405,39846,27859
9292,39760,27730
9197,39686,27619
9139,39638,27536
9109,39614,27484
9089,39603,27459
9089,39606,27451
9118,39630,27465
9160,39668,27504
9201,39707,27558
9250,39751,27614
9311,39801,27669
9366,39845,27724
9403,39873,27772
9440,39896,27809
9479,39918,27838
9500,39931,27861
9496,39932,27873
9487,39929,27869
9481,39922,27853
9454,39899,27825
9403,39858,27777
9349,39816,27711
9296,39775,27635
9226,39725,27552
9142,39664,27460
9071,39606,27363
9015,39555,27271
8950,39497,27178
8876,39436,27079
8815,39384,26978
8763,39341,26882
8695,39293,26791
8613,39237,26691
8533,39176,26577
8447,39105,26454
8335,39016,26323
8208,38914,26179
8090,38816,26031
7979,38724,25886
7864,38633,25746
7760,38553,25608
7685,38494,25479
7625,38448,25366
7559,38405,25267
7495,38366,25176
7449,38336,25091
7404,38305,25014
7344,38263,24936
7282,38218,24853
7233,38177,24769
7182,38137,24691
7117,38089,24609
7055,38041,24520
7008,38001,24429
6956,37961,24342
6888,37914,24255
6823,37865,24164
6764,37818,24072
6690,37763,23977
6593,37693,23875
6495,37615,23762
6399,37536,23645
6287,37451,23524
6158,37357,23396
6037,37263,23261
5929,37177,23125
5818,37091,22993
5703,37005,22864
5605,36930,22738
5530,36868,22623
5456,36807,22521
5386,36749,22426
5338,36705,22341
5307,36675,22270
5267,36644,22206
5215,36605,22138
5164,36563,22067
5109,36517,21995
5033,36459,21917
4945,36392,21825
4861,36324,21721
4773,36256,21612
4666,36180,21492
4551,36099,21362
4447,36023,21231
4344,35949,21104
4230,35870,20979
4121,35795,20855
4028,35728,20737
3937,35661,20628
3836,35588,20522
3739,35514,20414
3655,35448,20309
3568,35385,20206
3466,35319,20100
3367,35253,19988
3280,35190,19873
3192,35125,19761
3097,35053,19649
3015,34991,19535
2949,34940,19428
2880,34887,19327
2803,34830,19226
2740,34782,19127
2694,34747,19036
2647,34713,18957
2597,34675,18886
2563,34645,18827
2551,34632,18793
2547,34630,18795
2566,34649,18837
2640,34706,18935
2772,34810,19106
2946,34951,19356
3167,35130,19677
3454,35358,20074
3799,35629,20544
4171,35925,21070
4567,36236,21632
4992,36567,22221
5432,36908,22827
5865,37242,23433
6291,37569,24025
6719,37890,24599
7135,38199,25154
7517,38488,25678
7866,38754,26153
8189,39001,26583
8474,39224,26971
8711,39412,27314
8918,39574,27609
9111,39721,27863
9277,39849,28079
9408,39949,28258
9520,40030,28402
9624,40101,28519
9703,40159,28612
9754,40199,28679
9793,40225,28723
9831,40246,28757
9850,40258,28783
9845,40259,28794
9837,40256,28793
9834,40255,28790
9826,40251,28795
9816,40246,28804
9828,40256,28818
9863,40282,28844
9899,40311,28884
9935,40340,28931
9990,40379,28984
10062,40427,29046
10127,40466,29110
10179,40495,29166
10237,40526,29213
10294,40560,29256
10327,40582,29292
10336,40590,29313
10339,40594,29315
10329,40591,29297
10290,40567,29252
10232,40527,29181
10172,40483,29092
10104,40432,28991
10016,40367,28875
9923,40296,28748
9847,40232,28622
9777,40173,28507
9707,40117,28407
9651,40078,28326
9627,40063,28271
9625,40062,28242
9634,40067,28234
9662,40086,28244
9709,40123,28272
9759,40164,28314
9798,40197,28356
9837,40229,28394
9881,40263,28429
9911,40290,28466
9925,40307,28498
9939,40317,28518
9953,40325,28527
9946,40321,28525
9917,40301,28511
9888,40279,28482
9864,40256,28444
9824,40224,28400
9766,40179,28344
9710,40131,28277
9659,40083,28206
9593,40027,28126
9517,39967,28036
9451,39916,27943
9396,39875,27853
9332,39830,27764
9264,39782,27671
9213,39741,27581
9169,39706,27494
9113,39663,27406
9048,39614,27312
8987,39565,27212
8924,39510,27110
8840,39440,27001
8743,39361,26879
8649,39282,26750
8552,39199,26625
8444,39111,26499
8337,39024,26368
8248,38950,26238
8165,38887,26119
8078,38828,26010
8000,38778,25911
7947,38744,25825
7904,38724,25754
7861,38707,25692
7834,38697,25632
7827,38694,25578
7816,38688,25531
7788,38666,25478
7754,38637,25413
7722,38604,25340
7675,38561,25260
7613,38507,25172
7560,38455,25080
7523,38416,24996
7482,38377,24921
7434,38336,24850
7398,38305,24781
7374,38282,24719
7343,38259,24663
7305,38235,24608
7283,38220,24558
7275,38211,24517
7253,38194,24476
7218,38166,24425
7189,38141,24365
7164,38116,24303
7127,38082,24237
7081,38040,24166
7044,38003,24095
7010,37968,24031
6961,37925,23967
6906,37879,23898
6862,37843,23828
6816,37813,23759
6751,37773,23687
6677,37723,23606
6609,37672,23520
6534,37618,23431
6438,37549,23327
6330,37471,23207
6224,37390,23077
6112,37303,22944
5985,37206,22806
5862,37111,22664
5762,37030,22527
5668,36960,22402
5570,36894,22289
5483,36835,22182
5418,36786,22082
5356,36738,21989
5293,36691,21901
5243,36648,21818
5208,36611,21744
5165,36574,21679
5113,36534,21614
5077,36501,21548
5059,36479,21487
5033,36453,21427
4993,36420,21362
4961,36390,21294
4932,36362,21229
4884,36327,21166
4820,36284,21094
4766,36245,21016
4722,36211,20941
4664,36171,20864
4598,36129,20782
4550,36096,20699
4517,36071,20623
4477,36041,20550
4435,36010,20474
4407,35983,20397
4385,35955,20324
4347,35918,20253
4303,35879,20183
4270,35850,20117
4241,35827,20062
4202,35802,20012
4171,35783,19969
4168,35783,19944
4187,35801,19954
4228,35837,20006
4311,35904,20108
4454,36014,20273
4645,36164,20511
4874,36345,20820
5157,36568,21192
5501,36836,21631
5882,37134,22133
6282,37447,22682
6713,37777,23262
7174,38126,23866
7637,38479,24485
8089,38823,25102
8540,39165,25708
8987,39502,26292
9399,39820,26847
9769,40110,27363
10115,40379,27836
10439,40632,28271
10723,40856,28663
10974,41052,29011
11215,41229,29319
11444,41391,29593
11642,41532,29830
11812,41653,30029
11975,41767,30201
12129,41874,30355
12254,41964,30494
12352,42042,30614
12443,42118,30718
12523,42188,30813
12579,42240,30896
12626,42279,30967
12681,42318,31028
12728,42352,31081
12754,42374,31125
12777,42391,31163
12818,42418,31205
12863,42452,31256
12897,42483,31310
12932,42515,31362
12980,42555,31418
13027,42594,31480
13061,42624,31537
13095,42653,31584
13142,42686,31625
13183,42715,31660
13204,42730,31683
13218,42740,31687
13233,42748,31677
13227,42744,31656
13197,42723,31617
13163,42695,31562
13130,42665,31500
13080,42625,31430
13015,42572,31350
12957,42516,31265
12909,42464,31178
12848,42407,31088
12779,42347,30996
12727,42300,30908
12692,42269,30835
12654,42242,30775
12616,42219,30726
12600,42215,30692
12603,42225,30674
12601,42234,30668
12598,42239,30666
12612,42252,30673
12633,42270,30690
12643,42284,30708
12649,42292,30717
12667,42300,30721
12686,42305,30727
12691,42298,30732
12692,42289,30735
12707,42291,30740
12723,42299,30749
12725,42302,30755
12724,42303,30754
12731,42307,30748
12728,42304,30734
12703,42285,30702
12673,42262,30654
12654,42242,30600
12627,42218,30543
12581,42183,30478
12532,42145,30403
12490,42112,30325
12438,42071,30247
12367,42017,30162
12298,41958,30068
12239,41902,29972
12171,41843,29876
12087,41776,29772
12012,41713,29661
11951,41659,29550
11884,41601,29440
11809,41536,29327
11747,41476,29214
11696,41426,29108
11629,41373,29006
11548,41310,28901
11476,41252,28798
11414,41203,28704
11343,41151,28615
11266,41097,28523
11207,41055,28434
11166,41026,28355
11122,40996,28284
11079,40962,28212
11053,40935,28142
11033,40911,28080
10998,40881,28020
10953,40845,27954
10915,40813,27884
10876,40780,27814
10819,40738,27741
10758,40695,27663
10714,40663,27584
10672,40632,27510
10618,40593,27438
10569,40553,27366
10540,40522,27298
10511,40494,27237
10467,40458,27174
10420,40418,27105
10379,40379,27034
10328,40335,26960
10258,40280,26877
10188,40224,26786
10126,40175,26695
10058,40123,26607
9982,40066,26518
9926,40018,26431
9897,39984,26358
9871,39954,26302
9844,39927,26254
9831,39913,26206
9829,39907,26162
9814,39896,26123
9784,39878,26078
9757,39862,26024
9737,39847,25966
9700,39820,25903
9651,39782,25831
9613,39746,25756
9583,39715,25684
9539,39679,25616
9489,39641,25547
9455,39614,25484
9435,39598,25435
9416,39585,25398
9407,39577,25367
9424,39584,25341
9451,39599,25324
9466,39612,25308
9479,39624,25287
9503,39643,25267
9525,39659,25249
9529,39663,25225
9530,39663,25193
9543,39669,25162
9555,39674,25138
9553,39670,25112
9550,39661,25080
9551,39653,25040
9541,39641,24992
9508,39615,24933
9463,39578,24861
9413,39537,24783
9344,39482,24697
9251,39409,24599
9157,39334,24490
9073,39265,24381
8981,39195,24275
8880,39122,24169
8796,39057,24062
8733,39005,23964
8668,38952,23876
8604,38899,23793
8564,38859,23713
8546,38835,23645
8523,38813,23590
8493,38788,23539
8474,38771,23488
8460,38758,23439
8427,38734,23389
8381,38700,23331
8343,38669,23268
8308,38639,23205
8259,38600,23145
8205,38560,23094
8175,38537,23068
8180,38541,23085
8222,38575,23157
8321,38652,23290
8499,38788,23494
8741,38978,23779
9030,39210,24143
9375,39485,24578
9787,39806,25078
10241,40162,25637
10712,40535,26235
11200,40920,26855
11705,41314,27488
12198,41703,28129
12657,42068,28754
13090,42412,29344
13498,42733,29896
13859,43021,30406
14160,43266,30864
14424,43477,31265
14660,43660,31614
14852,43808,31914
15003,43920,32164
15140,44014,32369
15269,44100,32543
15369,44171,32694
15442,44225,32820
15514,44276,32925
15591,44327,33019
15652,44371,33105
15696,44405,33177
15743,44441,33236
15791,44479,33291
15814,44505,33341
15815,44516,33380
15819,44525,33408
15832,44537,33434
15837,44540,33460
15837,44538,33481
15857,44545,33505
15893,44563,33542
15925,44578,33588
15951,44594,33633
15983,44618,33675
16010,44644,33718
16018,44655,33755
16014,44655,33781
16012,44651,33794
15997,44639,33792
15949,44607,33766
15880,44560,33714
15808,44507,33639
15722,44445,33548
15614,44368,33440
15504,44287,33317
15410,44213,33192
15315,44140,33070
15206,44063,32948
15100,43985,32821
15004,43909,32694
14903,43829,32571
14792,43743,32450
14694,43661,32331
14618,43592,32220
14541,43527,32123
14464,43465,32037
14412,43423,31965
14387,43403,31914
14368,43393,31884
14349,43388,31866
14351,43393,31858
14371,43408,31863
14386,43425,31877
14397,43440,31894
14423,43461,31910
14460,43484,31928
14482,43496,31942
14487,43498,31945
14499,43503,31940
14507,43507,31932
14491,43498,31923
14460,43477,31903
14436,43455,31872
14410,43432,31835
14361,43397,31784
14300,43350,31714
14244,43301,31632
14183,43250,31545
14102,43185,31448
14016,43112,31343
13941,43044,31236
13864,42974,31130
13774,42896,31020
13683,42819,30904
13600,42752,30786
13509,42680,30668
13398,42597,30545
13288,42513,30414
13192,42437,30279
13093,42360,30146
12985,42276,30012
12888,42194,29878
12808,42119,29751
12726,42043,29633
12634,41966,29523
12552,41897,29417
12481,41834,29313
12403,41771,29212
12317,41705,29110
12249,41651,29010
12202,41612,28917
12149,41574,28826
12086,41531,28734
12038,41498,28648
12006,41476,28576
11966,41453,28516
11917,41424,28458
11877,41402,28401
11843,41382,28346
11791,41350,28286
11730,41310,28215
11685,41272,28137
11649,41235,28062
11601,41193,27989
11547,41146,27912
11502,41101,27833
11450,41053,27753
11376,40995,27670
11296,40933,27581
11227,40876,27490
11162,40822,27400
11085,40764,27310
11009,40706,27215
10950,40657,27118
10896,40612,27026
10831,40559,26941
10767,40507,26855
10716,40463,26771
10662,40420,26691
10597,40370,26610
10537,40320,26525
10490,40280,26442
10436,40244,26365
10372,40208,26288
10319,40176,26212
10281,40150,26140
10235,40119,26070
10178,40075,25999
10124,40026,25925
10071,39974,25848
9997,39913,25765
9904,39840,25670
9814,39763,25562
9734,39693,25452
9649,39622,25343
9560,39551,25233
9486,39491,25126
9423,39441,25027
9351,39387,24935
9273,39331,24845
9214,39285,24763
9167,39249,24692
9109,39212,24625
9050,39172,24554
9007,39138,24481
8973,39108,24409
8924,39069,24333
8868,39024,24250
8819,38983,24163
8763,38942,24078
8684,38889,23987
8590,38824,23885
8497,38756,23776
8391,38679,23662
8263,38586,23538
8129,38484,23399
8005,38384,23252
7873,38283,23103
7727,38179,22954
7588,38079,22805
7470,37994,22663
7356,37914,22532
7239,37837,22410
7137,37770,22296
7061,37715,22193
6993,37664,22104
6927,37615,22026
6887,37581,21964
6883,37572,21934
6900,37583,21942
6942,37620,21993
7036,37697,22098
7186,37816,22266
7372,37967,22502
7595,38146,22799
7878,38365,23156
8212,38622,23572
8566,38900,24037
8939,39193,24538
9349,39509,25071
9785,39842,25634
10216,40173,26211
10636,40501,26784
11054,40827,27341
11455,41140,27876
11814,41426,28383
12132,41684,28848
12429,41922,29268
12695,42133,29647
12912,42308,29981
13095,42453,30263
13262,42578,30498
13407,42682,30696
13517,42757,30858
13606,42813,30983
13691,42867,31083
13762,42915,31168
13809,42950,31240
13844,42979,31300
13879,43008,31352
13902,43032,31398
13902,43041,31433
13899,43043,31462
13907,43049,31491
13918,43059,31524
13930,43075,31561
13964,43103,31601
14023,43146,31651
14080,43190,31709
14126,43229,31768
14176,43270,31822
14223,43308,31869
14244,43327,31911
14242,43330,31938
14241,43330,31949
14243,43328,31950
14226,43313,31940
14189,43285,31913
14151,43254,31870
14112,43222,31819
14049,43177,31754
13963,43119,31670
13879,43062,31573
13797,43001,31468
13701,42924,31357
13601,42838,31235
13516,42763,31111
13440,42698,30996
13357,42635,30892
13281,42576,30796
13234,42531,30711
13205,42496,30643
13173,42463,30589
13146,42437,30544
13137,42429,30512
13133,42431,30493
13123,42431,30485
13121,42433,30485
13136,42448,30493
13152,42464,30513
13160,42477,30539
13175,42491,30563
13209,42513,30587
13242,42535,30620
13263,42551,30653
13288,42572,30679
13323,42601,30695
13342,42624,30704
13338,42630,30704
13327,42627,30691
13314,42616,30668
13277,42594,30638
13218,42557,30592
13165,42518,30530
13119,42477,30457
13054,42421,30374
12975,42354,30279
12905,42289,30174
12844,42229,30067
12768,42163,29956
12678,42092,29840
12603,42031,29725
12538,41979,29620
12460,41919,29520
12367,41849,29412
12277,41778,29295
12180,41702,29173
12057,41608,29040
11919,41500,28892
11789,41390,28732
11659,41279,28573
11517,41163,28417
11377,41051,28262
11256,40957,28116
11149,40875,27984
11044,40797,27862
10954,40730,27748
10894,40682,27650
10851,40644,27570
10810,40604,27504
10781,40570,27441
10769,40553,27385
10758,40544,27338
10736,40534,27296
10723,40531,27255
10729,40538,27221
10729,40543,27192
10709,40536,27157
10691,40526,27112
10677,40515,27061
10646,40490,27006
10595,40450,26941
10546,40407,26865
10502,40366,26788
10440,40319,26713
10360,40261,26635
10285,40200,26549
10218,40140,26458
10139,40073,26363
10051,40003,26262
9980,39942,26161
9930,39895,26074
9880,39851,26001
9832,39814,25935
9810,39795,25875
9805,39791,25826
9791,39787,25785
9772,39782,25748
9766,39782,25713
9764,39781,25685
9746,39771,25657
9716,39754,25620
9688,39733,25575
9654,39706,25528
9598,39664,25474
9535,39613,25407
9480,39566,25332
9419,39517,25253
9341,39457,25167
9259,39394,25072
9193,39337,24972
9130,39283,24876
9056,39227,24781
8985,39175,24685
8926,39134,24594
8867,39097,24515
8803,39059,24443
8756,39027,24372
8733,39008,24306
8711,38992,24247
8681,38975,24188
8656,38960,24127
8639,38949,24070
8607,38931,24017
8559,38901,23958
8519,38870,23897
8495,38844,23849
8474,38823,23822
8466,38818,23825
8506,38850,23875
8603,38924,23989
8742,39034,24170
8926,39180,24416
9171,39369,24726
9462,39596,25098
9769,39845,25520
10095,40107,25977
10453,40389,26462
10830,40685,26970
11204,40985,27491
11572,41284,28011
11943,41582,28523
12305,41867,29021
12635,42126,29493
12936,42362,29927
13222,42584,30321
13481,42788,30680
13698,42963,30998
13885,43112,31275
14060,43246,31515
14210,43361,31721
14321,43449,31887
14409,43518,32014
14492,43581,32113
14561,43630,32190
14606,43663,32245
14646,43692,32283
14692,43728,32317
14726,43761,32352
14739,43780,32379
14743,43789,32390
14741,43791,32387
14714,43776,32373
14662,43740,32342
14605,43693,32295
14550,43641,32240
14478,43581,32181
14392,43514,32116
14317,43456,32054
14257,43411,31999
14196,43367,31952
14135,43324,31908
14100,43294,31870
14083,43278,31839
14053,43258,31809
14008,43225,31763
13966,43185,31696
13916,43141,31612
13834,43080,31510
13723,42995,31383
13603,42898,31234
13470,42794,31073
13318,42682,30906
13170,42569,30739
13050,42470,30586
12951,42384,30456
12855,42306,30348
12782,42248,30261
12748,42221,30200
12734,42215,30168
12721,42212,30156
12718,42213,30152
12733,42225,30157
12746,42237,30173
12742,42242,30192
12738,42245,30208
12747,42256,30227
12757,42267,30252
12762,42271,30276
12786,42280,30299
12835,42305,30327
12882,42333,30364
12914,42358,30402
12943,42381,30427
12967,42397,30436
12955,42390,30424
12900,42350,30381
12824,42287,30306
12730,42209,30204
12603,42111,30079
12450,41996,29930
12303,41879,29768
12167,41768,29605
12027,41657,29442
11887,41544,29281
11770,41442,29127
11668,41349,28986
11551,41256,28850
11423,41163,28709
11303,41076,28561
11181,40987,28410
11038,40882,28253
10880,40764,28083
10728,40645,27903
10580,40528,27727
10424,40407,27554
10272,40290,27383
10142,40187,27222
10029,40097,27076
9918,40017,26945
9820,39949,26825
9749,39902,26721
9690,39864,26632
9627,39824,26547
9571,39785,26463
9533,39753,26385
9497,39720,26314
9449,39681,26241
9403,39645,26164
9368,39616,26090
9327,39582,26024
9270,39539,25959
9215,39493,25886
9163,39447,25806
9092,39394,25719
9001,39332,25622
8915,39271,25520
8841,39214,25422
8757,39151,25327
8668,39086,25229
8602,39033,25135
8557,38995,25055
8508,38959,24992
8455,38924,24938
8425,38901,24891
8404,38882,24848
8361,38853,24805
8299,38812,24749
8241,38768,24681
8186,38725,24607
8114,38672,24528
8033,38611,24440
7961,38555,24348
7895,38507,24261
7821,38460,24175
7749,38415,24091
7698,38383,24019
7660,38359,23959
7617,38333,23903
7581,38310,23846
7567,38301,23791
7558,38296,23742
7536,38281,23696
7512,38263,23649
7499,38249,23602
7485,38234,23563
7465,38215,23537
7461,38207,23526
7488,38227,23544
7536,38270,23603
7599,38330,23701
7696,38417,23842
7843,38537,24035
8028,38687,24287
8245,38861,24591
8515,39066,24943
8837,39307,25350
9177,39568,25805
9526,39844,26293
9896,40134,26801
10280,40435,27324
10649,40731,27851
10996,41012,28363
11337,41286,28853
11672,41553,29315
11972,41795,29742
12237,42011,30126
12489,42215,30472
12726,42405,30785
12925,42567,31062
13083,42699,31291
13224,42811,31473
13342,42899,31617
13417,42953,31724
13456,42980,31792
13480,42992,31829
13485,42988,31844
13457,42962,31840
13411,42924,31818
13371,42886,31785
13328,42847,31749
13268,42801,31714
13213,42761,31679
13179,42738,31652
13157,42729,31638
13137,42723,31633
13134,42728,31636
13160,42752,31653
13194,42787,31686
13217,42819,31725
13243,42847,31759
13274,42873,31787
13283,42883,31802
13255,42865,31790
13207,42828,31742
13147,42774,31665
13054,42693,31560
12927,42587,31428
12791,42473,31271
12649,42357,31098
12477,42226,30908
12277,42076,30699
12076,41921,30477
11877,41766,30255
11664,41599,30033
11447,41426,29813
11254,41266,29602
11089,41128,29416
10933,41007,29258
10792,40904,29124
10692,40830,29019
10630,40784,28950
10585,40758,28912
10563,40752,28896
10579,40772,28902
10622,40814,28934
10668,40864,28989
10722,40920,29051
10796,40983,29115
10869,41041,29181
10918,41083,29241
10956,41114,29288
11000,41144,29325
11033,41163,29352
11037,41162,29359
11023,41148,29340
11007,41134,29302
10982,41115,29256
10943,41084,29205
10909,41051,29149
10891,41029,29092
10872,41011,29041
10843,40990,28991
10819,40971,28938
10809,40959,28887
10796,40950,28847
10772,40940,28813
10760,40938,28777
10769,40950,28747
10773,40963,28723
10766,40970,28695
10765,40978,28663
10768,40987,28631
10754,40985,28603
10725,40972,28566
10704,40958,28519
10688,40945,28466
10652,40917,28404
10597,40874,28330
10546,40832,28248
10493,40789,28164
10413,40728,28072
10308,40646,27961
10194,40551,27827
10070,40448,27681
9921,40331,27527
9757,40205,27361
9604,40082,27191
9458,39964,27026
9302,39843,26868
9150,39729,26714
9022,39632,26570
8906,39545,26442
8788,39460,26326
8683,39384,26217
8613,39329,26120
8566,39295,26042
8531,39275,25983
8520,39273,25941
8542,39293,25919
8574,39322,25914
8597,39347,25916
8621,39371,25917
8651,39394,25911
8665,39404,25897
8652,39394,25867
8631,39372,25818
8607,39343,25762
8558,39299,25699
8480,39238,25624
8403,39176,25539
8340,39121,25454
8271,39066,25373
8199,39012,25294
8144,38970,25217
8112,38943,25149
8080,38921,25093
8046,38902,25044
8028,38893,25000
8017,38889,24959
7986,38874,24915
7936,38845,24857
7888,38808,24787
7845,38768,24714
7789,38718,24639
7724,38665,24557
7672,38620,24473
7630,38583,24390
7576,38539,24307
7511,38489,24218
7449,38440,24123
7381,38386,24025
7289,38317,23922
7187,38241,23812
7093,38168,23698
6997,38094,23586
6893,38013,23474
6801,37942,23372
6745,37901,23301
6723,37890,23274
6730,37904,23298
6787,37956,23380
6913,38056,23531
7092,38201,23760
7315,38384,24060
7597,38612,24425
7941,38884,24856
8316,39182,25345
8707,39495,25876
9125,39826,26440
9566,40169,27027
10004,40513,27628
10434,40856,28226
10872,41204,28814
11313,41555,29392
11726,41889,29950
12102,42196,30476
12460,42484,30960
12790,42747,31402
13065,42971,31796
13289,43156,32133
13486,43315,32415
13660,43455,32657
13798,43570,32863
13912,43669,33035
14030,43769,33187
14151,43871,33331
14259,43963,33466
14356,44044,33589
14460,44122,33707
14557,44192,33821
14627,44244,33919
14681,44282,33996
14736,44319,34060
14781,44352,34119
14802,44372,34166
14813,44382,34196
14828,44393,34218
14839,44402,34244
14835,44405,34270
14835,44410,34296
14849,44428,34325
14858,44448,34358
14852,44458,34384
14848,44460,34396
14854,44460,34400
14851,44451,34399
14826,44428,34385
14792,44396,34351
14749,44357,34299
14678,44299,34231
14576,44220,34141
14470,44133,34030
14371,44048,33909
14264,43961,33788
14158,43873,33665
14071,43799,33543
14001,43741,33427
13925,43687,33322
13843,43631,33222
13776,43583,33126
13722,43540,33039
13659,43493,32958
13591,43443,32883
13541,43404,32819
13510,43375,32773
13481,43349,32742
13463,43333,32723
13477,43342,32722
13513,43369,32743
13550,43398,32782
13591,43429,32824
13648,43472,32867
13705,43518,32913
13741,43549,32954
13762,43566,32979
13781,43579,32986
13783,43583,32979
13753,43567,32956
13708,43538,32915
13665,43505,32862
13612,43464,32802
13543,43411,32730
13479,43356,32648
13430,43306,32563
13373,43254,32481
13292,43192,32393
13203,43126,32292
13113,43057,32179
13009,42979,32060
12891,42889,31934
12779,42801,31804
12679,42718,31672
12575,42632,31538
12468,42540,31399
12376,42459,31260
12298,42390,31129
12211,42319,31003
12107,42238,30876
12005,42154,30743
11906,42066,30606
11784,41964,30463
11640,41849,30311
11501,41737,30152
11370,41631,29997
11231,41525,29844
11091,41422,29693
10975,41334,29550
10882,41264,29423
10793,41202,29312
10711,41147,29210
10650,41104,29116
10592,41060,29029
10515,41000,28940
10427,40928,28840
10344,40857,28730
10255,40781,28613
10141,40688,28485
10019,40588,28346
9909,40497,28208
9802,40411,28078
9689,40328,27955
9590,40254,27837
9518,40202,27733
9459,40166,27651
9400,40136,27585
9353,40112,27530
9328,40098,27483
9298,40078,27439
9247,40044,27388
9193,40003,27327
9148,39964,27257
9094,39917,27181
9028,39859,27095
8972,39806,27004
8930,39767,26918
8880,39729,26839
8816,39682,26757
8756,39634,26672
8702,39586,26585
8627,39526,26496
8534,39454,26397
8449,39385,26292
8372,39323,26189
8281,39257,26086
8182,39187,25979
8104,39129,25877
8049,39088,25796
7996,39055,25732
7947,39028,25680
7928,39018,25639
7934,39027,25611
7938,39038,25592
7940,39048,25572
7952,39064,25550
7958,39076,25522
7939,39069,25484
7908,39045,25431
7879,39016,25367
7839,38978,25299
7772,38925,25224
7697,38865,25143
7638,38812,25060
7584,38762,24977
7522,38710,24895
7469,38666,24812
7438,38640,24737
7414,38624,24676
7382,38606,24622
7352,38590,24566
7333,38582,24515
7308,38574,24479
7276,38561,24455
7265,38555,24444
7289,38571,24466
7337,38607,24534
7419,38669,24654
7558,38777,24833
7762,38937,25086
8012,39137,25417
8300,39371,25816
8644,39646,26278
9034,39956,26799
9439,40283,27364
9851,40617,27952
10287,40961,28553
10737,41312,29162
11168,41654,29764
11572,41979,30340
11962,42288,30886
12330,42573,31393
12650,42822,31851
12930,43042,32257
13194,43246,32614
13430,43432,32933
13621,43587,33215
13776,43711,33454
13915,43817,33649
14029,43903,33809
14105,43961,33936
14160,44000,34029
14215,44034,34100
14257,44063,34159
14277,44081,34207
14293,44097,34247
14323,44123,34291
14356,44152,34347
14376,44175,34405
14401,44200,34458
14445,44232,34509
14489,44263,34566
14522,44287,34625
14558,44314,34681
14607,44350,34735
14649,44381,34787
14675,44401,34832
14704,44419,34867
14740,44439,34895
14761,44453,34917
14762,44459,34930
14761,44460,34930
14759,44459,34919
14733,44444,34893
14682,44411,34843
14625,44368,34767
14559,44312,34675
14461,44233,34565
14333,44132,34429
14202,44024,34270
14072,43914,34101
13926,43795,33927
13775,43677,33751
13648,43576,33584
13546,43496,33440
13450,43430,33321
13368,43378,33223
13321,43351,33148
13300,43343,33098
13289,43343,33067
13297,43354,33050
13339,43385,33053
13396,43427,33077
13449,43466,33111
13501,43499,33147
13560,43536,33181
13609,43568,33216
13630,43584,33246
13637,43591,33260
13641,43594,33256
13629,43587,33239
13593,43560,33205
13551,43522,33151
13515,43482,33091
13467,43435,33031
13400,43377,32964
13331,43314,32882
13262,43253,32793
13177,43183,32698
13074,43097,32592
12974,43008,32475
12880,42924,32353
12775,42838,32228
12659,42748,32098
12554,42664,31964
12460,42589,31832
12352,42509,31701
12228,42418,31566
12107,42325,31422
11983,42231,31269
11830,42119,31098
11651,41987,30906
11467,41846,30701
11278,41699,30491
11071,41537,30276
10854,41368,30055
10655,41213,29838
10481,41074,29637
10318,40949,29454
10180,40844,29287
10084,40765,29139
10017,40706,29015
9955,40655,28911
9901,40609,28815
9863,40569,28725
9820,40527,28639
9755,40474,28548
9682,40415,28446
9614,40361,28338
9539,40304,28232
9444,40238,28125
9346,40164,28012
9260,40091,27898
9176,40014,27788
9083,39935,27678
8999,39863,27566
8935,39806,27458
8871,39758,27362
8800,39713,27275
8747,39677,27196
8716,39655,27130
8684,39635,27075
8647,39611,27020
8628,39593,26964
8627,39588,26915
8623,39584,26874
8611,39575,26834
8611,39566,26791
8615,39560,26748
8596,39542,26704
8552,39511,26651
8507,39476,26589
8460,39437,26518
8386,39382,26435
8294,39316,26338
8211,39254,26237
8138,39196,26138
8056,39131,26041
7966,39061,25939
7888,38997,25839
7820,38937,25745
7744,38875,25651
7670,38815,25554
7617,38771,25464
7576,38737,25387
7530,38700,25315
7485,38665,25241
7455,38639,25171
7423,38614,25105
7371,38578,25037
7315,38538,24961
7266,38500,24883
7206,38458,24808
7125,38402,24729
7044,38341,24639
6974,38282,24542
6899,38219,24443
6812,38149,24337
6728,38077,24222
6653,38009,24105
6569,37938,23990
6470,37861,23873
6379,37786,23751
6304,37719,23634
6225,37654,23527
6147,37592,23426
6094,37548,23333
6070,37524,23256
6051,37503,23196
6032,37484,23145
6029,37475,23098
6032,37466,23051
6012,37438,22998
5970,37396,22930
5929,37356,22855
5896,37324,22790
5861,37295,22747
5843,37282,22736
5878,37310,22779
5967,37383,22891
6101,37498,23080
6293,37659,23345
6560,37874,23690
6890,38136,24113
7256,38426,24600
7659,38743,25139
8106,39088,25717
8576,39451,26325
9041,39820,26948
9506,40188,27571
9974,40552,28188
10425,40900,28790
10841,41225,29363
11235,41530,29897
11618,41823,30394
11966,42093,30855
12264,42329,31267
12526,42533,31625
12759,42712,31931
12949,42857,32187
13094,42967,32394
13217,43058,32558
13326,43138,32693
13403,43201,32809
13447,43247,32901
13489,43287,32970
13534,43325,33023
13566,43352,33067
13590,43369,33103
13630,43392,33135
13689,43427,33175
13742,43465,33224
13790,43505,33276
13855,43557,33333
13931,43615,33402
13993,43668,33479
14045,43713,33553
14106,43759,33620
14167,43800,33682
14204,43825,33734
14224,43838,33771
14251,43854,33798
14275,43871,33818
14276,43874,33824
14264,43867,33813
14260,43858,33791
14247,43840,33758
14203,43802,33706
14139,43749,33629
14073,43691,33530
13992,43623,33414
13887,43540,33282
13778,43451,33134
13683,43367,32981
13590,43285,32837
13493,43204,32701
13412,43137,32575
13363,43094,32473
13326,43067,32402
13291,43048,32352
13279,43047,32317
13298,43068,32301
13330,43100,32309
13366,43134,32337
13421,43176,32379
13490,43225,32434
13549,43269,32494
13589,43303,32548
13628,43332,32591
13662,43355,32625
13670,43361,32647
13657,43354,32652
13650,43348,32644
13652,43347,32634
13643,43339,32620
13621,43322,32594
13605,43305,32557
13594,43288,32515
13565,43260,32470
13530,43230,32418
13512,43214,32364
13505,43206,32316
13488,43191,32272
13468,43171,32225
13460,43155,32176
13448,43137,32124
13408,43101,32058
13350,43048,31972
13293,42990,31872
13225,42922,31762
13128,42837,31642
13017,42743,31506
12905,42649,31357
12775,42547,31197
12614,42426,31022
12445,42295,30834
12289,42167,30644
12135,42042,30461
11975,41917,30285
11833,41805,30117
11721,41715,29969
11621,41637,29839
11523,41560,29719
11446,41495,29606
11391,41449,29507
11337,41411,29419
11276,41368,29332
11227,41326,29245
11184,41286,29162
11121,41236,29078
11040,41175,28987
10969,41117,28889
10906,41066,28789
10828,41008,28686
10737,40943,28577
10655,40878,28465
10582,40815,28358
10496,40746,28255
10400,40669,28145
10311,40593,28029
10229,40521,27915
10138,40444,27799
10046,40365,27683
9971,40297,27571
9911,40240,27475
9847,40185,27394
9789,40138,27323
9753,40108,27261
9727,40090,27212
9689,40068,27166
9646,40041,27110
9611,40012,27044
9571,39977,26974
9515,39933,26897
9460,39889,26814
9416,39850,26731
9367,39809,26652
9303,39760,26570
9238,39707,26480
9181,39657,26390
9115,39601,26304
9034,39538,26217
8961,39482,26130
8907,39439,26049
8852,39399,25973
8792,39355,25897
8747,39319,25824
8721,39292,25763
8691,39265,25711
8652,39233,25657
8621,39203,25596
8599,39179,25534
8559,39148,25470
8504,39108,25395
8458,39069,25313
8414,39031,25229
8351,38982,25143
8271,38923,25048
8200,38868,24948
8136,38816,24851
8056,38755,24749
7961,38685,24638
7872,38622,24527
7796,38569,24430
7725,38521,24351
7667,38481,24288
7646,38464,24253
7662,38474,24265
7707,38511,24335
7793,38582,24464
7939,38698,24659
8134,38855,24925
8362,39039,25252
8633,39251,25629
8955,39499,26054
9306,39772,26524
9661,40055,27025
10029,40347,27544
10421,40651,28077
10813,40955,28616
11186,41247,29144
11552,41531,29652
11919,41812,30140
12267,42080,30604
12579,42327,31031
12872,42557,31416
13149,42774,31764
13388,42962,32068
13582,43116,32321
13754,43246,32525
13908,43357,32689
14022,43441,32820
14101,43498,32917
14174,43541,32982
14242,43579,33034
14285,43604,33078
14305,43618,33110
14324,43634,33131
14348,43657,33153
14359,43676,33176
14360,43690,33193
14376,43710,33209
14402,43737,33233
14414,43757,33258
14412,43764,33272
14414,43766,33275
14414,43758,33271
14392,43736,33253
14357,43701,33216
14325,43666,33165
14291,43631,33109
14242,43588,33050
14189,43538,32983
14144,43494,32914
14093,43449,32845
14019,43392,32764
13935,43325,32662
13854,43257,32547
13766,43182,32423
13664,43097,32287
13567,43016,32136
13487,42949,31984
13411,42891,31847
13330,42835,31727
13266,42790,31621
13228,42761,31533
13197,42740,31468
13167,42721,31421
13155,42712,31386
13166,42715,31369
13179,42720,31373
13191,42727,31393
13225,42749,31423
13283,42790,31470
13346,42840,31533
13411,42891,31602
13494,42950,31673
13590,43015,31745
13670,43072,31810
13733,43117,31863
13801,43158,31903
13865,43193,31936
13898,43216,31960
13906,43226,31969
13916,43230,31964
13924,43227,31949
13906,43205,31920
13869,43165,31871
13833,43122,31807
13796,43077,31737
13739,43021,31659
13670,42957,31562
13604,42893,31453
13529,42825,31338
13428,42743,31213
13315,42651,31071
13209,42560,30919
13103,42466,30766
12986,42368,30612
12872,42272,30458
12773,42189,30311
12677,42114,30176
12573,42036,30046
12474,41962,29914
12389,41894,29785
12302,41825,29662
12206,41750,29540
12122,41684,29419
12059,41633,29307
11994,41584,29209
11924,41530,29116
11868,41481,29024
11830,41442,28939
11789,41403,28861
11745,41363,28786
11720,41336,28715
11712,41320,28652
11693,41300,28595
11659,41271,28532
11629,41241,28461
11603,41208,28389
11563,41163,28314
11513,41109,28230
11474,41060,28143
11440,41016,28062
11393,40965,27985
11338,40908,27905
11292,40856,27822
11249,40813,27746
11196,40770,27674
11143,40728,27599
11107,40695,27526
11078,40665,27461
11043,40630,27401
11007,40595,27338
10982,40568,27274
10955,40539,27213
10913,40501,27146
10873,40463,27075
10853,40433,27005
10837,40408,26943
10807,40377,26886
10775,40347,26828
10753,40322,26771
10723,40290,26714
10670,40243,26649
10615,40190,26574
10572,40141,26492
10521,40084,26406
10452,40014,26314
10379,39942,26210
10306,39868,26099
10213,39786,25981
10102,39692,25853
10000,39601,25718
9916,39518,25584
9828,39433,25454
9733,39346,25325
9652,39268,25198
9582,39197,25074
9497,39117,24949
9394,39026,24815
9291,38933,24672
9185,38837,24525
9055,38729,24371
8913,38615,24212
8794,38513,24058
8701,38425,23923
8619,38350,23817
8551,38295,23734
8518,38272,23682
8520,38278,23675
8546,38302,23715
8610,38353,23804
8725,38440,23949
8883,38563,24157
9069,38715,24429
9298,38895,24756
9583,39113,25140
9914,39364,25581
10270,39635,26066
10656,39926,26583
11075,40238,27125
11506,40556,27681
11928,40869,28233
12348,41179,28770
12768,41485,29291
13163,41777,29790
13511,42041,30252
13826,42279,30668
14113,42493,31037
14360,42676,31359
14563,42828,31628
14742,42956,31846
14903,43066,32024
15027,43151,32167
15115,43211,32273
15193,43260,32351
15263,43300,32413
15306,43324,32463
15325,43331,32495
15344,43333,32508
15366,43331,32511
15368,43314,32505
15351,43285,32484
15339,43258,32454
15328,43231,32421
15294,43194,32384
15245,43149,32339
15207,43108,32289
15181,43074,32248
15153,43042,32219
15137,43022,32199
15153,43022,32193
15193,43036,32206
15238,43054,32232
15292,43081,32262
15364,43118,32291
15437,43156,32320
15491,43180,32338
15535,43195,32337
15579,43209,32321
15612,43216,32296
15622,43213,32262
15626,43206,32215
15636,43204,32160
15638,43195,32101
15619,43170,32031
15596,43138,31947
15579,43109,31858
15552,43074,31771
15515,43034,31688
15487,43001,31615
15478,42986,31564
15477,42983,31542
15484,42993,31541
15525,43029,31559
15602,43090,31599
15687,43160,31660
15777,43236,31734
15887,43322,31814
16010,43420,31903
16117,43510,31998
16201,43580,32081
16275,43633,32143
16329,43666,32179
16337,43667,32187
16306,43637,32159
16266,43595,32101
16220,43543,32026
16151,43478,31943
16073,43410,31852
16012,43353,31760
15961,43305,31676
15902,43255,31597
15844,43209,31514
15801,43173,31430
15764,43138,31352
15713,43096,31274
15656,43049,31187
15607,43005,31093
15547,42951,30994
15460,42878,30882
15361,42796,30754
15269,42712,30616
15173,42621,30476
15063,42520,30334
14956,42423,30189
14865,42341,30050
14773,42267,29923
14672,42194,29801
14579,42125,29677
14500,42066,29555
14420,42008,29439
14335,41947,29328
14264,41891,29219
14212,41846,29118
14155,41802,29027
14090,41754,28943
14038,41711,28864
14005,41682,28793
13968,41654,28731
13927,41625,28672
13908,41608,28619
13909,41601,28578
13907,41593,28545
13899,41583,28510
13907,41585,28471
13929,41596,28436
13940,41603,28408
13944,41608,28381
13955,41618,28355
13959,41620,28325
13929,41599,28281
13876,41558,28217
13822,41509,28137
13759,41452,28052
13674,41383,27957
13585,41311,27853
13515,41251,27751
13455,41202,27663
13393,41156,27585
13345,41122,27513
13326,41108,27452
13325,41105,27410
13326,41103,27382
13337,41109,27358
13368,41128,27341
13394,41145,27326
13395,41144,27301
13384,41131,27255
13365,41109,27190
13323,41070,27110
13252,41008,27015
13175,40938,26909
13103,40873,26806
13019,40807,26708
12924,40738,26608
12841,40676,26506
12775,40622,26407
12704,40567,26313
12630,40512,26222
12573,40467,26135
12529,40429,26056
12475,40385,25982
12413,40334,25904
12364,40286,25822
12325,40245,25743
12272,40197,25660
12209,40144,25575
12158,40099,25493
12112,40059,25416
12046,40010,25339
11961,39946,25250
11877,39877,25149
11791,39804,25044
11683,39720,24928
11563,39629,24801
11456,39546,24670
11355,39467,24544
11245,39385,24421
11144,39305,24301
11069,39241,24188
11011,39188,24089
10954,39140,24001
10912,39105,23918
10897,39088,23846
10886,39078,23790
10863,39063,23741
10844,39050,23689
10836,39043,23638
10821,39033,23590
10789,39012,23539
10758,38989,23487
10745,38974,23450
10737,38965,23438
10731,38963,23452
10755,38985,23495
10831,39045,23593
10950,39145,23763
11115,39287,24007
11353,39481,24326
11663,39729,24724
12019,40017,25193
12411,40335,25719
12849,40681,26289
13321,41048,26897
13796,41420,27531
14260,41787,28169
14727,42149,28798
15187,42508,29414
15613,42845,30006
16005,43154,30555
16379,43443,31057
16725,43708,31515
17016,43937,31925
17253,44126,32275
17449,44279,32564
17598,44392,32796
17686,44458,32974
17727,44489,33100
17747,44500,33185
17749,44497,33242
17726,44477,33275
17700,44451,33288
17691,44439,33297
17690,44437,33316
17680,44433,33337
17674,44431,33354
17685,44440,33371
17699,44452,33395
17702,44459,33419
17710,44465,33438
17733,44480,33459
17750,44489,33483
17746,44488,33503
17738,44486,33515
17737,44488,33523
17730,44484,33532
17714,44475,33538
17710,44473,33538
17719,44477,33538
17715,44470,33536
17686,44443,33520
17646,44404,33486
17591,44349,33431
17501,44266,33345
17378,44159,33222
17247,44043,33068
17106,43922,32898
16941,43787,32717
16759,43642,32521
16589,43506,32322
16434,43382,32135
16280,43262,31963
16140,43151,31801
16039,43068,31655
15978,43020,31543
15941,42999,31465
15934,43005,31421
15973,43043,31412
16042,43102,31443
16115,43169,31500
16195,43241,31564
16293,43318,31628
16392,43393,31693
16470,43454,31758
16534,43506,31817
16598,43555,31872
16647,43594,31924
16669,43617,31963
16678,43634,31986
16692,43652,32005
16705,43668,32025
16710,43680,32043
16730,43701,32057
16777,43740,32081
16829,43786,32117
16877,43826,32153
16931,43867,32177
16991,43912,32193
17033,43949,32206
17055,43974,32213
17081,43997,32210
17116,44025,32207
17136,44047,32204
17137,44056,32192
17138,44060,32167
17137,44058,32133
17110,44037,32086
17058,43997,32018
17004,43952,31927
16948,43902,31825
16870,43836,31716
16774,43759,31599
16685,43684,31478
16604,43612,31360
16512,43531,31241
16413,43448,31120
16331,43379,31007
16269,43326,30915
16216,43285,30844
16189,43263,30792
16207,43276,30759
16251,43315,30748
16299,43362,30751
16352,43418,30758
16424,43488,30771
16497,43558,30796
16559,43617,30823
16624,43671,30845
16698,43728,30861
16760,43778,30870
16797,43809,30871
16826,43826,30865
16857,43840,30854
16873,43847,30841
16867,43840,30822
16862,43830,30798
16872,43827,30775
16883,43826,30756
16889,43824,30738
16906,43832,30716
16933,43848,30695
16946,43856,30677
16937,43848,30650
16928,43838,30612
16925,43827,30569
16908,43806,30523
16877,43776,30470
16858,43752,30412
16853,43739,30361
16842,43729,30322
16824,43716,30286
16816,43709,30249
16819,43709,30216
16811,43702,30182
16790,43685,30136
16775,43668,30080
16759,43649,30025
16722,43618,29967
16671,43575,29899
16626,43530,29822
16575,43478,29739
16502,43407,29644
16420,43327,29534
16348,43253,29420
16274,43187,29308
16186,43116,29196
16096,43040,29081
16016,42971,28971
15930,42901,28866
15824,42819,28756
15714,42732,28638
15621,42655,28521
15533,42585,28414
15439,42513,28317
15355,42449,28225
15290,42398,28140
15225,42350,28059
15147,42293,27972
15069,42231,27875
14997,42168,27772
14908,42094,27663
14801,42006,27546
14697,41917,27424
14601,41833,27304
14491,41743,27183
14371,41643,27059
14267,41549,26934
14180,41468,26816
14086,41392,26704
13985,41318,26589
13899,41257,26475
13829,41209,26370
13754,41162,26270
13672,41111,26167
13601,41066,26064
13535,41024,25967
13455,40971,25875
13370,40911,25786
13306,40860,25706
13260,40821,25650
13220,40789,25626
13201,40773,25637
13230,40792,25698
13306,40853,25823
13420,40952,26014
13593,41096,26273
13843,41294,26607
14149,41539,27019
14491,41819,27503
14873,42135,28043
15300,42485,28627
15749,42854,29242
16197,43226,29866
16650,43598,30482
17108,43970,31082
17547,44322,31661
17949,44642,32207
18317,44933,32708
18651,45194,33158
18929,45411,33557
19142,45581,33896
19317,45718,34174
19466,45834,34407
19575,45920,34601
19644,45979,34755
19697,46026,34871
19737,46066,34959
19750,46088,35025
19745,46095,35071
19744,46100,35101
19753,46106,35124
19751,46105,35145
19737,46096,35159
19733,46091,35170
19736,46089,35183
19723,46076,35193
19698,46057,35196
19690,46045,35198
19692,46041,35206
19685,46034,35220
19676,46028,35234
19686,46034,35249
19704,46047,35270
19711,46055,35288
19717,46063,35304
19741,46085,35326
19777,46117,35362
19813,46152,35403
19853,46192,35439
19907,46243,35473
19961,46290,35508
19997,46317,35532
20020,46329,35531
20038,46337,35507
20036,46333,35461
20007,46309,35394
19968,46273,35307
19929,46234,35214
19874,46186,35118
19794,46122,35013
19714,46053,34896
19642,45988,34781
19563,45922,34675
19475,45851,34572
19395,45781,34476
19331,45719,34393
19263,45662,34322
19189,45607,34257
19130,45566,34202
19091,45540,34162
19049,45517,34135
19005,45494,34111
18976,45476,34087
18963,45462,34069
18943,45443,34054
18913,45417,34034
18892,45393,34006
18873,45368,33972
18833,45333,33933
18775,45288,33883
18720,45244,33823
18658,45202,33753
18569,45150,33670
18468,45086,33573
18380,45022,33472
18296,44957,33372
18201,44884,33271
18103,44806,33161
18017,44732,33047
17932,44656,32935
17835,44573,32820
17733,44487,32699
17639,44403,32573
17541,44317,32443
17429,44222,32309
17313,44128,32165
17207,44043,32020
17103,43959,31884
16991,43867,31752
16881,43779,31619
16780,43700,31492
16671,43618,31367
16552,43529,31236
16444,43448,31095
16356,43379,30963
16272,43310,30846
16182,43240,30734
16101,43177,30620
16027,43117,30509
15936,43050,30400
15828,42973,30285
15728,42900,30167
15642,42834,30055
15551,42762,29945
15456,42686,29833
15382,42621,29724
15322,42567,29626
15253,42511,29539
15175,42453,29452
15109,42405,29362
15047,42360,29271
14964,42301,29173
14862,42225,29061
14759,42147,28938
14653,42067,28812
14533,41976,28684
14410,41881,28554
14306,41797,28426
14218,41722,28311
14131,41650,28209
14052,41584,28112
13993,41533,28021
13944,41490,27941
13888,41448,27868
13835,41407,27792
13797,41377,27720
13759,41348,27654
13704,41311,27587
13642,41270,27512
13583,41230,27431
13508,41179,27344
13406,41104,27242
13292,41013,27124
13177,40918,27001
13052,40818,26878
12916,40711,26752
12792,40613,26624
12686,40527,26500
12575,40443,26380
12450,40352,26255
12324,40261,26125
12199,40167,25988
12058,40062,25846
11908,39950,25698
11778,39849,25550
11672,39764,25409
11571,39689,25283
11476,39624,25170
11408,39579,25073
11364,39551,24996
11322,39525,24938
11284,39502,24888
11271,39493,24844
11277,39499,24810
11275,39506,24780
11264,39507,24744
11263,39510,24702
11262,39510,24660
11242,39494,24616
11210,39465,24560
11182,39435,24494
11148,39401,24429
11098,39359,24372
11053,39323,24330
11042,39313,24316
11065,39334,24351
11119,39387,24449
11232,39485,24617
11420,39642,24866
11673,39851,25197
11978,40100,25603
12344,40394,26076
12766,40734,26613
13219,41103,27203
13687,41485,27826
14173,41877,28465
14670,42274,29108
15145,42654,29742
15580,43003,30348
15986,43325,30909
16358,43614,31421
16672,43858,31882
16929,44059,32284
17157,44236,32626
17369,44400,32921
17549,44546,33180
17703,44674,33404
17858,44800,33604
18018,44927,33790
18163,45041,33963
18296,45143,34116
18438,45245,34252
18589,45353,34381
18728,45456,34504
18856,45554,34619
18993,45658,34728
19132,45769,34834
19254,45874,34940
19362,45969,35039
19469,46061,35134
19567,46148,35229
19642,46217,35319
19696,46266,35390
19744,46306,35441
19780,46333,35478
19795,46341,35503
19801,46340,35517
19814,46341,35523
19819,46338,35529
19804,46329,35531
19784,46319,35522
19776,46313,35501
19768,46304,35473
19748,46289,35436
19729,46275,35386
19722,46269,35330
19711,46261,35276
19693,46249,35225
19684,46244,35175
19688,46245,35132
19686,46242,35096
19673,46230,35055
19666,46220,35008
19673,46220,34965
19675,46222,34929
19674,46225,34901
19694,46237,34883
19731,46262,34882
19764,46290,34897
19792,46315,34919
19833,46348,34948
19884,46388,34987
19917,46418,35030
19935,46439,35067
19963,46463,35101
19998,46490,35141
20016,46505,35179
20016,46504,35204
20014,46497,35213
19995,46478,35205
19940,46433,35170
19862,46366,35106
19783,46295,35024
19697,46218,34932
19588,46127,34826
19467,46026,34703
19353,45926,34570
19233,45821,34434
19093,45706,34290
18950,45592,34139
18826,45493,33986
18707,45399,33837
18578,45298,33688
18453,45201,33539
18349,45116,33399
18251,45034,33270
18144,44944,33141
18042,44853,33005
17948,44765,32866
17846,44671,32727
17731,44571,32583
17621,44479,32434
17520,44397,32289
17404,44314,32148
17270,44220,32005
17141,44124,31863
17024,44033,31723
16894,43935,31583
16755,43829,31442
16629,43731,31299
16519,43641,31161
16406,43547,31028
16287,43450,30893
16180,43364,30761
16083,43284,30635
15973,43198,30513
15849,43106,30381
15736,43017,30244
15634,42934,30113
15527,42849,29988
15413,42760,29858
15305,42674,29726
15197,42591,29599
15075,42503,29472
14951,42412,29344
14843,42329,29220
14743,42249,29106
14638,42165,28996
14541,42083,28887
14466,42013,28784
14396,41951,28691
14319,41890,28603
14251,41834,28518
14202,41792,28440
14158,41760,28376
14110,41732,28320
14084,41717,28272
14092,41723,28238
14116,41737,28221
14141,41751,28213
14178,41772,28207
14225,41802,28206
14260,41828,28204
14277,41840,28192
14298,41849,28168
14325,41860,28142
14331,41861,28113
14311,41848,28076
14282,41829,28022
14243,41800,27954
14171,41749,27873
14073,41679,27779
13979,41608,27682
13901,41550,27601
13831,41502,27546
13784,41470,27519
13786,41470,27528
13840,41510,27592
13931,41584,27721
14067,41695,27918
14269,41855,28187
14530,42062,28530
14826,42302,28935
15157,42574,29391
15531,42879,29891
15932,43207,30430
16339,43540,30989
16752,43877,31552
17178,44221,32113
17594,44557,32665
17969,44863,33189
18301,45134,33669
18597,45376,34098
18843,45581,34471
19030,45738,34783
19177,45861,35034
19303,45962,35235
19396,46037,35395
19447,46078,35509
19470,46092,35577
19472,46089,35614
19442,46063,35629
19380,46013,35617
19311,45952,35580
19248,45895,35534
19183,45844,35489
19116,45797,35443
19068,45761,35396
19045,45739,35357
19024,45724,35330
19007,45716,35312
19014,45723,35301
19039,45744,35306
19059,45766,35325
19076,45786,35344
19109,45810,35363
19151,45837,35383
19173,45850,35394
19175,45847,35388
19178,45842,35368
19175,45833,35340
19138,45807,35298
19069,45759,35227
18981,45692,35126
18862,45598,35000
18699,45471,34846
18509,45324,34657
18319,45173,34444
18127,45023,34224
17929,44868,34005
17749,44722,33793
17610,44603,33603
17499,44510,33450
17407,44438,33335
17347,44392,33247
17325,44373,33184
17318,44369,33148
17312,44369,33129
17316,44373,33112
17334,44382,33102
17341,44388,33102
17324,44382,33103
17301,44369,33098
17281,44355,33088
17247,44333,33080
17198,44304,33068
17157,44279,33050
17134,44263,33032
17106,44245,33019
17068,44220,32999
17034,44193,32970
17005,44164,32932
16963,44125,32886
16912,44080,32833
16874,44046,32776
16848,44023,32723
16820,44004,32676
16790,43988,32630
16774,43982,32583
16770,43984,32543
16753,43979,32502
16720,43961,32449
16688,43936,32382
16648,43898,32307
16579,43839,32216
16477,43756,32096
16353,43658,31948
16205,43542,31781
16027,43403,31596
15836,43256,31399
15661,43116,31197
15499,42983,31003
15338,42851,30822
15188,42731,30649
15063,42633,30493
14953,42549,30362
14846,42468,30244
14752,42394,30127
14682,42334,30014
14618,42281,29912
14549,42233,29817
14491,42195,29730
14453,42173,29658
14418,42155,29599
14375,42133,29540
14339,42111,29479
14312,42092,29417
14277,42067,29353
14229,42032,29284
14186,41994,29211
14146,41960,29137
14090,41914,29059
14012,41851,28971
13931,41783,28871
13850,41710,28765
13751,41622,28656
13634,41524,28538
13523,41429,28415
13422,41345,28295
13311,41259,28178
13194,41173,28063
13094,41101,27954
13011,41044,27859
12929,40992,27773
12848,40941,27689
12786,40897,27605
12736,40862,27529
12681,40826,27461
12628,40790,27393
12593,40761,27327
12561,40738,27265
12513,40708,27203
12454,40669,27132
12399,40628,27058
12339,40581,26986
12262,40519,26907
12179,40452,26814
12102,40390,26713
12019,40327,26611
11924,40258,26508
11834,40187,26401
11758,40122,26297
11683,40059,26204
11600,39991,26114
11529,39931,26027
11483,39887,25946
11444,39848,25870
11401,39808,25797
11365,39774,25724
11336,39747,25654
11287,39714,25587
11216,39666,25514
11144,39615,25432
11079,39569,25349
11009,39525,25270
10942,39489,25203
10911,39478,25164
10924,39498,25169
10969,39543,25229
11054,39617,25346
11200,39737,25527
11406,39904,25781
11654,40105,26106
11949,40342,26496
12309,40628,26949
12720,40960,27469
13158,41316,28041
13615,41686,28646
14100,42071,29274
14591,42461,29916
15059,42837,30556
15507,43197,31177
15945,43543,31772
16351,43864,32336
16701,44145,32853
17003,44390,33308
17271,44608,33705
17492,44796,34049
17660,44943,34340
17791,45058,34574
17899,45149,34758
17975,45214,34905
18017,45256,35017
18051,45287,35099
18096,45319,35165
18142,45350,35226
18182,45379,35284
18236,45415,35341
18305,45463,35405
18368,45513,35477
18416,45555,35549
18468,45595,35618
18529,45639,35685
18580,45676,35749
18618,45707,35806
18664,45745,35860
18718,45789,35917
18760,45825,35974
18790,45853,36027
18829,45887,36078
18868,45921,36129
18880,45938,36173
18865,45936,36194
18845,45927,36188
18820,45910,36164
18770,45873,36123
18699,45822,36063
18628,45770,35990
18551,45712,35909
18452,45638,35815
18342,45552,35705
18240,45469,35579
18145,45390,35448
18047,45312,35317
17954,45236,35185
17885,45174,35062
17829,45121,34953
17771,45073,34851
17723,45032,34755
17697,45010,34677
17681,45003,34623
17664,45001,34588
17655,45003,34566
17662,45012,34559
17674,45021,34565
17677,45023,34574
17684,45027,34581
17704,45042,34592
17718,45056,34608
17715,45060,34619
17713,45063,34624
17716,45064,34628
17705,45054,34635
17675,45033,34635
17647,45012,34624
17628,44999,34606
17600,44980,34581
17563,44952,34545
17536,44928,34498
17519,44910,34448
17492,44886,34397
17447,44854,34338
17405,44825,34272
17366,44796,34201
17307,44755,34122
17232,44700,34031
17165,44641,33931
17102,44580,33831
17026,44512,33729
16939,44439,33617
16860,44375,33500
16781,44315,33387
16681,44243,33273
16572,44162,33150
16473,44086,33021
16375,44012,32892
16260,43928,32760
16140,43839,32620
16035,43757,32480
15938,43680,32349
15838,43603,32227
15751,43535,32112
15687,43484,32009
15634,43441,31924
15580,43399,31852
15537,43364,31787
15511,43342,31728
15489,43324,31678
15460,43302,31625
15438,43281,31568
15429,43265,31510
15407,43244,31452
15361,43208,31388
15313,43169,31316
15267,43133,31240
15201,43083,31158
15107,43013,31064
15009,42934,30954
14911,42851,30836
14794,42756,30712
14664,42652,30578
14544,42556,30439
14439,42471,30308
14331,42390,30190
14226,42313,30077
14149,42253,29974
14093,42208,29888
14033,42163,29813
13969,42117,29739
13921,42079,29668
13884,42046,29607
13838,42011,29552
13790,41978,29492
13760,41958,29431
13738,41947,29376
13708,41932,29326
13679,41911,29273
13660,41893,29219
13633,41869,29166
13580,41830,29105
13512,41778,29029
13445,41722,28941
13371,41659,28849
13278,41579,28748
13183,41494,28636
13101,41418,28523
13023,41352,28419
12940,41291,28323
12869,41243,28233
12821,41212,28156
12780,41184,28093
12735,41152,28038
12697,41122,27980
12667,41098,27922
12626,41067,27866
12569,41028,27805
12520,40990,27735
12483,40955,27664
12435,40914,27596
12377,40867,27526
12334,40829,27456
12312,40808,27393
12289,40792,27338
12257,40775,27285
12240,40765,27238
12236,40762,27200
12222,40754,27165
12201,40743,27123
12193,40740,27080
12195,40744,27046
12187,40743,27017
12179,40744,26989
12200,40764,26974
12252,40809,26993
12325,40873,27052
12425,40959,27150
12571,41080,27300
12755,41231,27510
12963,41402,27783
13207,41599,28116
13500,41833,28511
13829,42098,28969
14181,42383,29480
14571,42697,30033
15009,43050,30630
15477,43427,31264
15954,43815,31918
16450,44215,32578
16969,44633,33238
17490,45056,33898
17996,45467,34544
18489,45866,35160
18966,46249,35744
19400,46600,36287
19775,46906,36771
20104,47171,37188
20393,47395,37544
20624,47574,37844
20801,47711,38087
20954,47825,38282
21088,47922,38442
21188,47998,38575
21251,48053,38681
21300,48098,38763
21336,48134,38830
21345,48153,38882
21338,48160,38918
21348,48174,38948
21383,48206,38990
21424,48242,39045
21471,48280,39107
21539,48329,39178
21617,48388,39260
21681,48443,39343
21740,48492,39423
21810,48544,39505
21880,48597,39589
21931,48636,39663
21972,48666,39719
22018,48697,39763
22058,48726,39800
22074,48744,39827
22082,48755,39838
22095,48764,39837
22099,48764,39827
22076,48743,39800
22036,48708,39744
21990,48665,39663
21922,48608,39562
21819,48528,39440
21705,48434,39297
21598,48342,39148
21484,48249,39001
21353,48149,38852
21228,48053,38703
21122,47970,38567
21022,47897,38452
20931,47831,38351
20869,47784,38267
20838,47761,38205
20818,47751,38166
20810,47749,38144
20832,47766,38137
20876,47799,38146
20913,47832,38167
20939,47858,38192
20973,47887,38221
21011,47917,38254
21029,47934,38281
21023,47934,38293
21014,47924,38289
21000,47907,38274
20962,47877,38244
20906,47832,38197
20853,47784,38137
20801,47735,38074
20738,47681,38009
20675,47629,37940
20635,47592,37873
20615,47569,37817
20595,47550,37766
20581,47537,37715
20585,47536,37664
20593,47538,37618
20584,47531,37570
20565,47517,37514
20550,47505,37453
20529,47486,37392
20486,47453,37324
20425,47408,37238
20355,47351,37138
20264,47276,37027
20146,47179,36899
20021,47072,36753
19897,46966,36605
19767,46859,36460
19626,46746,36314
19497,46640,36167
19384,46546,36028
19272,46456,35898
19158,46363,35769
19059,46279,35640
18979,46209,35520
18897,46141,35407
18810,46068,35296
18738,46002,35184
18678,45944,35074
18607,45880,34968
18518,45805,34858
18433,45731,34742
18355,45660,34628
18264,45585,34517
18172,45511,34409
18099,45454,34308
18040,45410,34217
17977,45366,34134
17912,45320,34050
17860,45277,33969
17804,45232,33891
17730,45178,33812
17650,45119,33722
17582,45065,33627
17515,45011,33535
17431,44948,33441
17342,44879,33337
17265,44819,33234
17190,44765,33142
17106,44705,33056
17023,44640,32968
16952,44581,32880
16874,44521,32791
16775,44445,32690
16667,44357,32573
16561,44267,32445
16445,44171,32314
16317,44066,32181
16196,43965,32047
16086,43877,31919
15968,43792,31796
15842,43700,31670
15728,43610,31538
15628,43524,31409
15522,43438,31282
15412,43353,31157
15325,43284,31041
15266,43236,30942
15213,43194,30863
15164,43158,30796
15137,43138,30740
15130,43132,30701
15122,43126,30676
15107,43114,30650
15101,43105,30620
15104,43104,30591
15092,43099,30559
15070,43089,30518
15058,43081,30472
15045,43069,30429
15009,43041,30381
14955,43004,30321
14903,42969,30255
14849,42931,30187
14778,42878,30114
14703,42822,30032
14646,42774,29947
14594,42732,29864
14533,42690,29784
14479,42652,29707
14444,42625,29637
14415,42604,29578
14373,42579,29522
14332,42553,29465
14305,42534,29414
14276,42515,29371
14236,42487,29335
14207,42467,29311
14211,42469,29321
14247,42496,29384
14313,42552,29506
14430,42650,29688
14608,42796,29937
14826,42979,30258
15075,43195,30642
15375,43449,31084
15726,43742,31586
16107,44057,32137
16508,44386,32718
16942,44734,33315
17397,45096,33924
17841,45451,34529
18257,45788,35109
18658,46110,35652
19029,46408,36154
19339,46666,36604
19589,46878,36989
19800,47056,37308
19973,47200,37574
20095,47302,37787
20173,47366,37945
20232,47412,38056
20268,47445,38137
20273,47458,38191
20257,47450,38215
20235,47426,38214
20192,47385,38199
20113,47323,38168
20013,47244,38112
19906,47157,38036
19785,47056,37948
19639,46939,37848
19484,46816,37735
19336,46697,37619
19188,46579,37509
19030,46456,37400
18880,46338,37290
18748,46233,37180
18621,46137,37081
18488,46041,36988
18367,45950,36896
18269,45873,36809
18175,45797,36730
18079,45720,36652
18000,45653,36568
17940,45603,36485
17878,45557,36406
17813,45509,36324
17761,45471,36235
17720,45441,36142
17665,45403,36046
17597,45356,35942
17537,45309,35831
17485,45267,35725
17417,45218,35623
17336,45162,35512
17265,45107,35394
17202,45056,35281
17131,45002,35176
17055,44944,35073
16999,44897,34978
16959,44860,34900
16911,44820,34835
16863,44779,34776
16833,44750,34726
16817,44732,34690
16794,44712,34662
16770,44689,34639
16761,44674,34623
16760,44669,34619
16748,44662,34619
16737,44652,34615
16734,44648,34604
16724,44642,34592
16694,44626,34572
16661,44605,34541
16638,44588,34503
16611,44568,34469
16568,44539,34430
16526,44507,34379
16501,44482,34327
16473,44458,34274
16427,44425,34213
16379,44387,34139
16329,44343,34048
16256,44284,33946
16158,44207,33832
16063,44126,33704
15979,44050,33574
15886,43969,33447
15786,43885,33317
15708,43812,33188
15647,43753,33070
15580,43697,32961
15508,43640,32854
15451,43593,32749
15408,43555,32654
15357,43510,32563
15293,43456,32468
15235,43406,32376
15180,43361,32286
15106,43307,32188
15024,43252,32084
14957,43208,31982
14904,43170,31888
14846,43123,31801
14790,43074,31713
14747,43032,31625
14705,42993,31542
14643,42944,31459
14570,42886,31367
14502,42825,31267
14429,42759,31164
14341,42685,31058
14256,42613,30947
14187,42555,30838
14122,42502,30741
14050,42445,30652
13986,42394,30566
13940,42354,30487
13889,42312,30415
13814,42251,30336
13733,42181,30244
13655,42108,30138
13559,42024,30023
13440,41927,29897
13323,41829,29767
13215,41741,29639
13094,41650,29511
12961,41552,29374
12839,41462,29235
12738,41385,29103
12641,41312,28983
12549,41240,28871
12478,41176,28765
12422,41123,28667
12358,41068,28572
12282,41009,28471
12216,40955,28367
12160,40911,28270
12095,40866,28180
12029,40823,28097
11987,40796,28028
11973,40787,27979
11969,40786,27950
11979,40797,27934
12017,40826,27931
12060,40861,27939
12085,40885,27946
12098,40901,27943
12115,40915,27930
12125,40923,27914
12115,40914,27892
12097,40896,27860
12090,40880,27819
12078,40863,27775
12048,40838,27724
12015,40810,27663
11994,40790,27601
11974,40773,27546
11942,40748,27488
11906,40717,27418
11870,40686,27341
11817,40645,27262
11740,40589,27176
11664,40528,27081
11600,40471,26986
11538,40418,26900
11478,40371,26826
11437,40340,26762
11418,40326,26712
11403,40320,26683
11395,40324,26672
11426,40354,26686
11504,40417,26744
11611,40508,26862
11755,40630,27044
11968,40801,27297
12243,41020,27627
12551,41276,28032
12889,41559,28493
13271,41873,29000
13694,42215,29553
14133,42570,30144
14579,42931,30751
15040,43298,31362
15499,43660,31972
15924,43999,32566
16314,44314,33126
16688,44614,33647
17041,44898,34137
17361,45157,34594
17661,45398,35010
17956,45634,35389
18234,45859,35737
18478,46061,36053
18698,46240,36329
18907,46403,36568
19092,46543,36773
19236,46657,36941
19352,46751,37070
19455,46835,37176
19538,46905,37266
19593,46958,37339
19637,47002,37391
19685,47042,37432
19725,47072,37465
19746,47089,37490
19766,47102,37509
19788,47117,37531
19792,47124,37552
19775,47117,37563
19759,47105,37562
19748,47093,37557
19725,47075,37549
19689,47051,37535
19668,47036,37513
19665,47032,37496
19658,47025,37481
19643,47010,37459
19638,46999,37430
19635,46989,37396
19613,46969,37355
19572,46936,37296
19530,46897,37219
19490,46860,37133
19435,46819,37039
19375,46775,36933
19329,46737,36826
19289,46704,36729
19236,46664,36642
19181,46621,36556
19141,46585,36473
19104,46556,36400
19058,46521,36336
19016,46487,36275
18992,46464,36222
18971,46448,36184
18939,46427,36155
18912,46407,36129
18909,46400,36116
18916,46402,36118
18924,46408,36131
18952,46426,36154
19009,46468,36196
19071,46522,36257
19121,46570,36323
19168,46612,36379
19217,46653,36424
19248,46679,36456
19257,46684,36467
19267,46682,36461
19276,46680,36446
19263,46669,36422
19227,46645,36382
19191,46617,36330
19153,46583,36271
19090,46534,36200
19004,46466,36108
18918,46389,35994
18835,46312,35871
18736,46227,35743
18622,46132,35606
18520,46042,35466
18430,45965,35334
18331,45889,35208
18227,45810,35077
18141,45743,34948
18075,45695,34838
18010,45653,34747
17953,45616,34665
17917,45590,34591
17892,45566,34523
17855,45530,34452
17810,45486,34369
17771,45444,34281
17731,45403,34199
17677,45356,34117
17617,45304,34026
17564,45257,33930
17508,45210,33842
17437,45154,33753
17356,45091,33652
17277,45030,33545
17196,44968,33442
17105,44898,33334
17014,44823,33215
16933,44752,33099
16849,44682,32990
16749,44606,32882
16646,44527,32764
16551,44452,32644
16451,44376,32530
16344,44295,32414
16253,44221,32292
16186,44163,32184
16130,44118,32098
16078,44077,32022
16042,44047,31950
16019,44026,31887
15988,44002,31835
15943,43970,31780
15905,43938,31719
15876,43914,31663
15832,43884,31612
15774,43838,31549
15722,43786,31471
15670,43731,31386
15594,43664,31294
15494,43579,31180
15386,43486,31050
15273,43390,30918
15146,43291,30787
15015,43193,30653
14903,43110,30524
14808,43043,30412
14714,42979,30315
14629,42917,30224
14567,42870,30143
14524,42839,30076
14484,42811,30018
14448,42785,29958
14427,42764,29896
14410,42746,29841
14387,42724,29788
14363,42701,29733
14346,42684,29683
14324,42671,29642
14292,42652,29607
14267,42635,29577
14268,42633,29569
14290,42653,29602
14338,42698,29681
14435,42778,29811
14592,42903,30011
14795,43068,30294
15036,43268,30646
15329,43501,31051
15671,43769,31507
16040,44064,32010
16434,44379,32545
16862,44716,33096
17314,45077,33664
17761,45445,34244
18193,45806,34815
18617,46158,35364
19031,46497,35890
19410,46807,36380
19744,47077,36814
20044,47312,37187
20307,47517,37513
20516,47686,37791
20671,47813,38008
20787,47906,38166
20864,47969,38280
20890,47997,38357
20879,47990,38389
20854,47965,38383
20817,47926,38355
20752,47868,38305
20662,47789,38228
20565,47701,38135
20463,47612,38043
20355,47523,37953
20257,47440,37858
20183,47376,37772
20127,47332,37719
20082,47299,37694
20052,47274,37674
20040,47262,37657
20030,47256,37650
20005,47242,37637
19975,47220,37605
19947,47194,37557
19901,47154,37498
19823,47094,37419
19727,47017,37311
19622,46929,37187
19495,46831,37055
19349,46723,36906
19207,46613,36736
19080,46510,36563
18950,46409,36395
18813,46304,36223
18687,46201,36046
18575,46101,35875
18459,45999,35714
18338,45897,35558
18234,45807,35412
18158,45740,35295
18101,45694,35213
18068,45669,35163
18082,45677,35146
18141,45725,35176
18232,45806,35254
18354,45912,35366
18514,46045,35503
18698,46199,35665
18878,46353,35833
19049,46495,35984
19216,46623,36113
19361,46731,36227
19460,46806,36320
19513,46845,36377
19535,46857,36401
19527,46845,36404
19484,46809,36382
19423,46758,36329
19364,46707,36261
19302,46658,36197
19233,46605,36133
19171,46553,36058
19127,46512,35982
19088,46478,35917
19038,46443,35852
18988,46405,35774
18948,46369,35690
18904,46334,35609
18852,46299,35521
18812,46265,35423
18787,46238,35332
18757,46209,35256
18712,46171,35181
18666,46131,35097
18620,46094,35009
18558,46052,34914
18480,45995,34805
18406,45927,34684
18337,45861,34570
18254,45790,34464
18158,45709,34351
18068,45627,34232
17986,45556,34122
17903,45491,34028
17823,45429,33937
17763,45378,33846
17726,45343,33769
17693,45317,33705
17661,45294,33642
17639,45279,33580
17619,45269,33527
17582,45252,33476
17530,45223,33411
17481,45186,33334
17433,45144,33259
17376,45093,33183
17317,45040,33098
17273,44996,33017
17235,44959,32949
17185,44914,32882
17124,44859,32798
17061,44802,32704
16992,44744,32613
16909,44678,32519
16823,44611,32416
16751,44554,32318
16684,44503,32237
16611,44451,32163
16548,44404,32086
16507,44372,32018
16481,44356,31969
16469,44352,31938
16489,44369,31918
16544,44412,31918
16610,44468,31940
16674,44523,31967
16739,44576,31989
16794,44619,32004
16816,44637,32004
16794,44623,31972
16738,44578,31905
16650,44505,31816
16517,44397,31700
16343,44257,31546
16154,44104,31365
15964,43950,31180
15769,43797,30996
15580,43649,30810
15419,43517,30632
15296,43413,30484
15198,43336,30368
15126,43280,30269
15089,43245,30186
15068,43223,30123
15038,43198,30064
14998,43163,29991
14954,43120,29899
14894,43065,29798
14810,42989,29691
14714,42904,29576
14633,42834,29474
14575,42791,29414
14541,42776,29401
14548,42793,29435
14616,42857,29536
14738,42971,29723
14908,43129,29986
15136,43329,30310
15429,43576,30703
15770,43862,31171
16146,44176,31697
16558,44515,32260
16998,44876,32854
17437,45242,33471
17857,45597,34080
18261,45933,34660
18647,46245,35204
18987,46517,35702
19266,46738,36138
19494,46916,36506
19674,47054,36816
19794,47148,37072
19857,47198,37260
19886,47219,37386
19889,47218,37471
19856,47192,37522
19793,47145,37537
19727,47093,37523
19669,47044,37503
19609,46999,37481
19550,46957,37449
19506,46923,37413
19477,46901,37391
19448,46887,37381
19421,46878,37368
19403,46868,37351
19386,46855,37339
19356,46832,37324
19315,46800,37293
19274,46768,37257
19230,46739,37231
19176,46706,37210
19123,46670,37181
19089,46643,37156
19067,46629,37145
19041,46615,37137
19015,46596,37116
18999,46578,37088
18978,46561,37061
18940,46535,37026
18891,46498,36968
18839,46455,36895
18776,46404,36817
18699,46342,36727
18619,46276,36620
18544,46212,36505
18462,46145,36389
18372,46071,36265
18292,45999,36134
18230,45938,36012
18168,45884,35910
18103,45828,35810
18048,45776,35711
18008,45736,35626
17964,45703,35556
17921,45676,35493
17897,45663,35439
17897,45668,35408
17906,45687,35403
17924,45715,35409
17964,45759,35430
18022,45818,35477
18085,45881,35540
18152,45943,35601
18234,46010,35663
18327,46083,35735
18409,46146,35810
18472,46193,35868
18524,46227,35906
18556,46250,35931
18556,46249,35936
18531,46228,35911
18492,46198,35865
18439,46162,35813
18368,46109,35747
18289,46045,35655
18217,45979,35550
18143,45913,35447
18055,45838,35339
17958,45752,35212
17861,45665,35079
17754,45575,34950
17629,45475,34815
17496,45365,34662
17366,45253,34499
17229,45138,34336
17083,45019,34167
16946,44902,33987
16825,44799,33817
16706,44706,33664
16582,44615,33519
16473,44532,33377
16381,44461,33251
16290,44392,33140
16195,44319,33024
16114,44251,32902
16052,44201,32796
15994,44161,32710
15938,44120,32625
15900,44082,32542
15877,44055,32474
15847,44031,32417
15805,43999,32349
15762,43961,32269
15717,43921,32190
15658,43873,32111
15588,43815,32017
15523,43757,31916
15467,43709,31826
15410,43662,31750
15356,43616,31672
15317,43581,31596
15285,43557,31536
15246,43532,31481
15205,43502,31419
15173,43476,31356
15146,43456,31307
15110,43435,31261
15072,43408,31200
15041,43379,31134
15007,43351,31077
14958,43317,31019
14908,43281,30947
14866,43251,30874
14828,43225,30810
14785,43194,30748
14750,43163,30681
14727,43137,30619
14698,43112,30569
14656,43081,30518
14614,43044,30458
14571,43003,30394
14511,42954,30328
14432,42890,30246
14350,42816,30144
14273,42742,30042
14187,42666,29943
14094,42590,29838
14012,42521,29727
13944,42467,29631
13878,42422,29551
13816,42380,29475
13775,42347,29401
13746,42321,29338
13707,42291,29282
13658,42255,29215
13612,42218,29140
13567,42182,29071
13516,42143,29006
13467,42107,28935
13439,42082,28865
13429,42067,28815
13421,42053,28779
13417,42040,28740
13426,42039,28702
13437,42048,28677
13435,42054,28654
13422,42050,28614
13405,42041,28562
13374,42022,28508
13315,41981,28443
13240,41916,28349
13162,41840,28239
13071,41758,28129
12961,41670,28017
12851,41580,27901
12758,41505,27805
12685,41453,27756
12640,41429,27755
12647,41444,27809
12725,41511,27941
12863,41628,28161
13055,41786,28457
13314,41993,28826
13635,42257,29280
14001,42568,29812
14404,42911,30397
14852,43283,31017
15338,43681,31670
15831,44086,32337
16317,44487,32992
16800,44879,33621
17266,45252,34222
17686,45590,34779
18049,45880,35272
18365,46126,35698
18631,46334,36069
18839,46499,36383
18999,46625,36631
19134,46728,36827
19252,46820,36995
19347,46896,37142
19428,46960,37259
19509,47027,37360
19590,47099,37464
19660,47165,37561
19720,47217,37634
19782,47265,37689
19839,47310,37740
19881,47346,37781
19914,47371,37804
19950,47394,37824
19981,47416,37858
19996,47430,37898
20008,47437,37928
20026,47449,37953
20041,47466,37984
20047,47482,38013
20059,47499,38034
20085,47524,38059
20112,47552,38092
20130,47571,38119
20151,47584,38133
20175,47597,38142
20186,47607,38147
20182,47604,38136
20176,47595,38109
20177,47590,38078
20170,47586,38043
20155,47578,37991
20148,47576,37927
20151,47578,37868
20146,47573,37813
20131,47552,37744
20116,47525,37660
20103,47501,37582
20081,47474,37514
20054,47448,37446
20040,47436,37385
20044,47438,37348
20049,47442,37331
20049,47443,37311
20053,47443,37288
20057,47443,37275
20052,47438,37266
20040,47427,37246
20039,47420,37225
20047,47423,37220
20052,47425,37224
20058,47426,37223
20074,47432,37227
20093,47445,37245
20105,47457,37265
20120,47469,37272
20149,47487,37271
20178,47506,37273
20193,47517,37267
20203,47521,37242
20214,47525,37212
20214,47520,37187
20191,47499,37152
20158,47468,37096
20116,47429,37027
20054,47378,36953
19973,47308,36862
19891,47229,36751
19813,47152,36635
19724,47073,36523
19624,46989,36403
19537,46912,36278
19463,46845,36163
19385,46782,36059
19301,46718,35953
19225,46657,35840
19157,46603,35730
19080,46545,35620
18993,46479,35499
18913,46411,35374
18840,46348,35261
18764,46283,35159
18677,46210,35047
18590,46134,34925
18502,46061,34809
18405,45986,34696
18302,45904,34571
18203,45820,34435
18103,45735,34304
17990,45639,34170
17864,45533,34018
17739,45427,33862
17615,45328,33717
17482,45229,33580
17351,45131,33438
17231,45037,33295
17112,44945,33161
16986,44848,33027
16868,44751,32885
16766,44662,32748
16672,44579,32625
16577,44501,32510
16494,44432,32393
16428,44378,32289
16367,44334,32207
16305,44291,32132
16256,44253,32055
16223,44222,31986
16182,44192,31924
16131,44151,31858
16083,44105,31784
16044,44062,31714
15999,44022,31653
15939,43975,31584
15877,43924,31503
15814,43870,31417
15732,43807,31327
15627,43729,31216
15516,43642,31086
15409,43556,30958
15299,43466,30838
15179,43367,30713
15061,43268,30582
14947,43177,30457
14830,43088,30338
14718,43000,30215
14627,42924,30094
14556,42866,29993
14492,42818,29911
14437,42777,29833
14406,42750,29764
14387,42736,29711
14362,42717,29663
14328,42682,29597
14289,42641,29517
14237,42595,29437
14162,42539,29355
14074,42471,29255
13990,42402,29146
13905,42332,29043
13817,42265,28945
13738,42205,28847
13674,42160,28756
13611,42119,28676
13540,42072,28595
13470,42021,28503
13406,41968,28408
13338,41913,28314
13263,41851,28213
13197,41791,28102
13147,41743,28003
13102,41707,27926
13058,41677,27860
13033,41663,27804
13031,41666,27769
13034,41676,27751
13036,41688,27730
13047,41699,27699
13068,41715,27675
13085,41733,27666
13104,41751,27668
13147,41784,27697
13223,41845,27775
13330,41935,27911
13480,42059,28103
13692,42230,28364
13967,42454,28711
14292,42725,29139
14669,43037,29630
15104,43392,30179
15582,43778,30786
16075,44176,31429
16575,44578,32081
17081,44986,32740
17577,45387,33402
18044,45765,34044
18479,46115,34641
18887,46437,35191
19256,46730,35700
19573,46985,36157
19845,47201,36547
20081,47387,36881
20272,47542,37171
20408,47654,37404
20500,47729,37572
20565,47781,37694
20604,47815,37787
20618,47829,37849
20625,47835,37881
20636,47843,37904
20639,47851,37931
20630,47852,37948
20626,47854,37953
20633,47859,37956
20640,47862,37961
20640,47860,37962
20648,47859,37961
20669,47866,37969
20689,47876,37985
20697,47878,37995
20704,47877,37995
20708,47874,37996
20694,47859,37996
20660,47830,37981
20619,47797,37952
20574,47761,37921
20514,47715,37880
20444,47657,37818
20373,47598,37738
20299,47537,37660
20209,47467,37578
20107,47385,37472
20006,47299,37343
19900,47209,37206
19777,47107,37056
19638,46994,36882
19504,46885,36697
19375,46780,36519
19238,46670,36345
19094,46556,36165
18956,46447,35992
18822,46342,35835
18688,46237,35688
18566,46138,35544
18469,46059,35419
18382,45995,35323
18299,45936,35244
18233,45885,35172
18186,45846,35115
18144,45816,35082
18105,45787,35059
18083,45766,35038
18080,45761,35028
18078,45763,35029
18072,45763,35030
18075,45765,35023
18085,45772,35019
18086,45774,35019
18067,45760,35002
18039,45733,34963
18002,45698,34912
17945,45651,34852
17872,45593,34773
17803,45532,34682
17743,45474,34596
17680,45416,34514
17612,45355,34424
17550,45297,34325
17486,45239,34228
17405,45170,34126
17306,45091,34007
17207,45010,33878
17111,44936,33755
17013,44864,33634
16919,44794,33506
16842,44732,33382
16779,44680,33276
16714,44627,33178
16649,44569,33074
16591,44512,32967
16527,44454,32867
16445,44389,32764
16355,44314,32646
16268,44237,32522
16178,44164,32408
16080,44091,32297
15987,44019,32176
15906,43952,32058
15826,43887,31952
15736,43818,31846
15647,43748,31728
15568,43684,31611
15492,43628,31508
15414,43575,31412
15351,43525,31312
15308,43483,31220
15267,43444,31143
15223,43401,31071
15188,43365,31000
15158,43340,30939
15117,43314,30883
15056,43273,30813
14989,43222,30726
14920,43170,30638
14839,43112,30546
14751,43047,30440
14672,42982,30330
14602,42924,30233
14529,42866,30150
14453,42805,30064
14387,42752,29977
14337,42712,29906
14297,42679,29850
14268,42651,29795
14262,42639,29745
14273,42643,29713
14285,42655,29695
14300,42672,29675
14326,42698,29657
14355,42727,29654
14373,42747,29654
14387,42761,29645
14406,42781,29633
14428,42806,29632
14445,42826,29631
14461,42839,29619
14484,42852,29607
14501,42862,29601
14501,42860,29591
14499,42850,29566
14497,42837,29531
14484,42821,29496
14456,42797,29452
14422,42769,29392
14395,42748,29329
14363,42727,29271
14316,42695,29201
14268,42658,29116
14221,42623,29033
14164,42584,28955
14090,42532,28864
14013,42473,28758
13938,42415,28654
13855,42350,28558
13769,42277,28460
13702,42212,28370
13658,42171,28313
13634,42153,28299
13640,42162,28323
13701,42214,28399
13826,42316,28549
14001,42465,28779
14223,42654,29077
14503,42889,29445
14839,43171,29892
15221,43491,30406
15646,43841,30964
16110,44217,31559
16590,44607,32183
17056,44988,32812
17507,45353,33421
17952,45705,34010
18378,46043,34579
18766,46356,35112
19119,46641,35591
19446,46905,36025
19739,47146,36424
19991,47355,36776
20213,47538,37073
20415,47706,37327
20590,47857,37551
20728,47977,37735
20842,48069,37873
20939,48140,37978
21014,48191,38061
21068,48224,38118
21118,48246,38153
21172,48272,38185
21215,48300,38218
21239,48321,38241
21261,48337,38255
21287,48356,38272
21305,48375,38297
21310,48386,38314
21315,48396,38319
21330,48416,38333
21346,48439,38355
21361,48459,38369
21386,48481,38377
21420,48513,38396
21448,48543,38417
21463,48563,38421
21473,48572,38407
21475,48570,38385
21454,48551,38347
21410,48508,38274
21351,48447,38171
21276,48379,38057
21182,48303,37935
21081,48220,37793
20990,48142,37644
20904,48070,37502
20815,47995,37366
20725,47916,37228
20643,47843,37099
20567,47779,36992
20493,47721,36898
20430,47669,36809
20391,47634,36739
20369,47619,36707
20361,47617,36703
20375,47627,36712
20417,47656,36737
20476,47700,36784
20542,47754,36846
20621,47816,36915
20714,47892,36999
20802,47969,37094
20875,48034,37182
20944,48090,37256
21011,48144,37326
21060,48190,37392
21087,48217,37433
21107,48231,37445
21124,48239,37445
21127,48233,37432
21114,48210,37393
21098,48180,37334
21081,48151,37274
21045,48113,37215
20989,48063,37141
20928,48008,37055
20866,47956,36969
20794,47901,36878
20716,47842,36776
20648,47787,36667
20585,47738,36566
20516,47686,36468
20443,47630,36362
20376,47574,36251
20308,47518,36146
20225,47451,36039
20129,47368,35912
20032,47275,35774
19931,47179,35642
19816,47078,35509
19697,46976,35364
19589,46885,35222
19484,46804,35095
19375,46720,34972
19268,46633,34840
19170,46549,34704
19072,46464,34574
18966,46374,34447
18866,46286,34316
18782,46211,34193
18701,46146,34087
18614,46081,33985
18535,46021,33880
18468,45972,33784
18397,45925,33700
18316,45873,33610
18242,45817,33506
18175,45764,33406
18102,45706,33314
18018,45637,33215
17940,45568,33110
17871,45502,33011
17798,45436,32920
17716,45362,32818
17639,45289,32707
17567,45224,32606
17491,45164,32515
17408,45101,32419
17328,45040,32313
17249,44980,32213
17157,44914,32115
17056,44837,32009
16962,44760,31898
16876,44689,31800
16792,44623,31708
16715,44562,31610
16656,44513,31512
16609,44473,31428
16561,44436,31355
16514,44398,31279
16474,44364,31205
16434,44332,31140
16382,44291,31070
16323,44242,30981
16262,44187,30884
16190,44126,30795
16104,44058,30709
16026,43993,30624
15975,43950,30569
15952,43937,30568
15958,43955,30617
16012,44010,30719
16128,44112,30895
16298,44260,31154
16522,44448,31484
16811,44677,31873
17163,44950,32328
17554,45258,32841
17967,45587,33389
18400,45934,33956
18842,46291,34538
19268,46640,35118
19663,46967,35660
20034,47274,36159
20387,47568,36634
20709,47839,37082
20997,48081,37483
21259,48301,37836
21492,48499,38155
21681,48664,38433
21824,48790,38651
21933,48881,38813
22005,48943,38934
22027,48965,39009
22002,48946,39024
21949,48900,38992
21871,48835,38938
21764,48752,38866
21644,48659,38772
21534,48574,38673
21439,48501,38587
21348,48433,38507
21270,48371,38425
21216,48324,38355
21186,48297,38313
21172,48284,38289
21180,48288,38275
21218,48317,38285
21273,48366,38323
21327,48417,38370
21377,48465,38404
21420,48504,38426
21437,48522,38433
21413,48503,38402
21356,48448,38319
21268,48367,38198
21135,48259,38047
20955,48119,37855
20746,47955,37626
20519,47777,37378
20271,47585,37122
20013,47381,36850
19769,47184,36573
19555,47013,36322
19365,46868,36112
19204,46746,35930
19087,46652,35779
19016,46591,35673
18977,46555,35610
18959,46534,35574
18970,46534,35561
19005,46556,35580
19047,46588,35620
19092,46621,35662
19151,46662,35710
19218,46713,35778
19279,46762,35854
19334,46806,35917
19388,46850,35974
19434,46892,36034
19463,46927,36086
19480,46950,36111
19495,46967,36114
19504,46982,36117
19502,46988,36115
19500,46985,36096
19505,46981,36072
19505,46978,36056
19490,46968,36035
19467,46949,35994
19439,46927,35939
19398,46896,35877
19335,46846,35800
19266,46782,35700
19203,46717,35590
19136,46652,35484
19066,46586,35375
19010,46531,35263
18974,46492,35159
18942,46464,35071
18906,46433,34984
18877,46406,34894
18852,46388,34813
18813,46364,34742
18757,46326,34661
18699,46278,34566
18638,46226,34471
18557,46164,34373
18453,46082,34251
18338,45989,34110
18216,45892,33970
18080,45788,33832
17936,45675,33682
17802,45565,33525
17683,45463,33383
17566,45361,33254
17452,45261,33122
17353,45171,32991
17263,45093,32873
17163,45015,32758
17045,44926,32624
16913,44824,32471
16760,44703,32309
16572,44551,32122
16353,44367,31898
16116,44163,31650
15851,43940,31391
15545,43693,31115
15206,43422,30805
14843,43134,30469
14453,42830,30122
14035,42506,29759
13612,42174,29374
13205,41851,28989
12812,41544,28623
12437,41253,28274
12104,40991,27944
11829,40771,27652
11607,40593,27416
11434,40459,27228
11328,40380,27087
11298,40360,27008
11326,40384,26989
11392,40436,27007
11496,40513,27045
11630,40613,27108
11762,40717,27187
11871,40805,27251
11957,40871,27286
12014,40912,27301
12031,40924,27295
12009,40907,27253
11967,40875,27186
11919,40841,27117
11864,40806,27052
11814,40773,26983
11789,40757,26922
11791,40762,26885
11806,40778,26867
11835,40803,26855
11889,40842,26859
11965,40896,26891
12049,40959,26944
12146,41031,27007
12267,41124,27094
12417,41245,27230
12592,41392,27420
12810,41571,27661
13091,41797,27977
13429,42075,28383
13815,42398,28867
14253,42760,29414
14739,43161,30021
15253,43587,30685
15776,44019,31373
16305,44451,32061
16840,44885,32747
17359,45307,33428
17848,45703,34078
18311,46073,34683
18746,46419,35250
19139,46734,35781
19482,47008,36254
19786,47247,36662
20057,47461,37023
20284,47645,37346
20467,47797,37617
20627,47933,37843
20773,48063,38048
20895,48178,38234
20991,48266,38379
21071,48337,38485
21139,48395,38573
21187,48431,38644
21221,48450,38689
21260,48467,38720
21305,48490,38757
21341,48512,38799
21370,48534,38831
21411,48568,38862
21463,48614,38909
21513,48662,38967
21566,48706,39023
21634,48755,39081
21707,48813,39152
21778,48871,39228
21852,48928,39299
21938,48991,39371
22020,49056,39451
22082,49111,39521
22126,49149,39562
22156,49171,39578
22156,49175,39578
22117,49150,39544
22046,49094,39463
21958,49020,39352
21848,48931,39227
21718,48827,39082
21583,48719,38913
21455,48618,38741
21331,48525,38586
21211,48435,38439
21112,48356,38296
21041,48296,38173
20983,48251,38078
20938,48216,37995
20920,48198,37928
20935,48203,37893
20967,48225,37891
21009,48256,37902
21068,48299,37922
21140,48353,37964
21206,48407,38023
21262,48452,38077
21318,48493,38121
21375,48537,38168
21417,48574,38214
21441,48592,38237
21458,48595,38236
21467,48590,38226
21457,48574,38211
21431,48544,38175
21396,48510,38124
21354,48475,38074
21294,48430,38019
21220,48372,37944
21142,48309,37858
21062,48247,37773
20972,48178,37682
20880,48101,37570
20797,48025,37449
20717,47953,37334
20632,47882,37220
20551,47812,37096
20480,47748,36971
20403,47682,36853
20305,47600,36731
20192,47500,36591
20073,47394,36438
19943,47284,36284
19795,47164,36118
19646,47040,35939
19510,46925,35765
19377,46817,35602
19246,46712,35442
19136,46621,35287
19052,46550,35153
18979,46491,35046
18909,46435,34949
18855,46388,34858
18816,46351,34779
18771,46315,34711
18717,46273,34642
18672,46232,34567
18639,46198,34503
18604,46167,34448
18563,46133,34387
18528,46102,34319
18502,46082,34259
18474,46066,34206
18442,46047,34147
18413,46025,34081
18379,46001,34018
18324,45964,33950
18251,45910,33860
18175,45846,33756
18095,45777,33653
18003,45701,33549
17912,45623,33437
17843,45561,33335
17792,45516,33255
17747,45478,33188
17712,45446,33121
17693,45424,33061
17672,45407,33012
17641,45384,32962
17610,45358,32903
17588,45336,32847
17559,45308,32800
17508,45267,32743
17443,45213,32665
17369,45152,32575
17275,45082,32482
17157,44998,32372
17035,44909,32245
16922,44825,32123
16806,44744,32014
16692,44662,31902
16599,44587,31790
16529,44526,31695
16465,44473,31614
16401,44419,31531
16348,44370,31441
16298,44325,31356
16233,44274,31274
16156,44213,31177
16078,44149,31065
16004,44083,30957
15924,44014,30853
15840,43943,30741
15765,43876,30626
15699,43817,30525
15628,43760,30436
15558,43706,30346
15505,43662,30258
15464,43630,30190
15423,43600,30133
15385,43574,30076
15371,43565,30037
15383,43578,30037
15415,43609,30074
15482,43667,30150
15601,43765,30285
15768,43908,30496
15980,44091,30780
16247,44316,31130
16574,44583,31550
16941,44886,32042
17335,45210,32582
17761,45556,33153
18212,45920,33750
18664,46290,34366
19100,46650,34976
19529,46998,35566
19951,47339,36139
20345,47662,36692
20701,47958,37203
21031,48232,37665
21336,48486,38085
21594,48710,38460
21809,48900,38780
21999,49064,39050
22164,49206,39284
22292,49317,39484
22383,49394,39640
22454,49446,39755
22508,49484,39844
22540,49506,39911
22557,49512,39953
22574,49513,39977
22592,49515,39997
