green_channel,red_channel,ir_channel
23476,6658,27747
23559,6705,27887
23691,6777,28052
23810,6837,28181
23828,6846,28222
23812,6838,28239
23851,6853,28292
23886,6862,28322
23837,6836,28282
23778,6811,28241
23784,6817,28237
23775,6814,28202
23683,6769,28106
23586,6723,28018
23549,6701,27967
23497,6668,27885
23378,6602,27754
23277,6548,27647
23238,6523,27575
23170,6482,27460
23035,6414,27303
22923,6364,27181
22867,6336,27091
22765,6280,26945
22592,6191,26752
22453,6123,26600
22370,6075,26477
22245,6005,26306
22079,5919,26109
21979,5866,25975
21941,5837,25885
21857,5791,25765
21736,5741,25649
21683,5727,25605
21683,5730,25595
21641,5708,25551
21583,5680,25511
21604,5692,25537
21670,5724,25586
21692,5734,25602
21705,5743,25638
21789,5788,25748
21898,5843,25870
21943,5868,25939
21973,5890,26005
22072,5944,26122
22174,5991,26230
22199,5999,26273
22220,6008,26318
22318,6052,26410
22416,6094,26484
22433,6098,26501
22438,6100,26522
22498,6126,26574
22533,6132,26584
22487,6098,26530
22443,6070,26491
22455,6071,26488
22442,6061,26450
22357,6025,26369
22289,6005,26317
22272,6006,26295
22216,5983,26225
22098,5931,26113
22018,5896,26041
21984,5876,25994
21899,5826,25894
21763,5756,25761
21685,5718,25676
21666,5704,25622
21593,5665,25514
21465,5608,25374
21380,5573,25275
21326,5546,25185
21211,5486,25034
21062,5413,24867
20979,5369,24752
20940,5337,24651
20849,5277,24499
20735,5213,24344
20689,5187,24255
20665,5171,24183
20574,5127,24062
20465,5083,23943
20430,5074,23885
20410,5063,23829
20314,5015,23717
20216,4966,23616
20203,4956,23577
20201,4951,23536
20127,4920,23447
20051,4892,23371
20046,4892,23337
20031,4880,23274
19946,4835,23159
19876,4797,23072
19879,4788,23038
19869,4768,22980
19790,4723,22884
19732,4697,22823
19742,4701,22802
19731,4692,22744
19665,4663,22654
19631,4655,22617
19646,4670,22625
19615,4661,22592
19526,4627,22520
19483,4614,22490
19495,4618,22490
19458,4596,22444
19372,4553,22377
19340,4537,22370
19358,4543,22392
19320,4525,22364
19235,4490,22315
19201,4481,22313
19196,4479,22313
19123,4444,22245
19011,4396,22153
18957,4375,22107
18932,4360,22061
18849,4316,21959
18752,4274,21859
18724,4269,21818
18705,4266,21764
18613,4225,21641
18511,4181,21522
18482,4166,21455
18455,4145,21376
18358,4093,21249
18268,4049,21148
18260,4043,21112
18264,4042,21080
18220,4026,21028
18216,4037,21037
18326,4100,21147
18472,4174,21299
18605,4243,21484
18818,4351,21779
19155,4511,22186
19514,4678,22614
19844,4834,23049
20226,5018,23557
20681,5235,24114
21097,5431,24615
21441,5597,25062
21805,5776,25527
22194,5962,25987
22512,6111,26360
22758,6228,26672
23032,6365,27005
23330,6516,27339
23545,6624,27596
23678,6696,27796
23830,6779,28008
23992,6861,28197
24071,6897,28298
24097,6910,28362
24163,6946,28466
24242,6987,28562
24243,6989,28583
24208,6981,28582
24225,6998,28621
24247,7009,28640
24185,6975,28586
24104,6933,28527
24093,6927,28517
24088,6921,28494
24005,6880,28414
23911,6839,28339
23886,6831,28308
23856,6814,28247
23751,6759,28121
23653,6707,28000
23627,6682,27922
23586,6645,27821
23468,6574,27673
23360,6516,27547
23312,6487,27461
23233,6443,27337
23079,6372,27167
22946,6315,27034
22868,6279,26936
22757,6222,26794
22599,6144,26620
22497,6095,26504
22468,6075,26436
22412,6038,26338
22323,5991,26231
22296,5978,26190
22327,5993,26194
22315,5986,26167
22266,5967,26135
22284,5979,26170
22359,6010,26236
22389,6016,26262
22393,6013,26282
22467,6046,26367
22578,6099,26481
22631,6127,26558
22651,6152,26634
22721,6207,26759
22801,6260,26875
22809,6270,26923
22803,6269,26956
22870,6303,27034
22948,6340,27101
22948,6341,27103
22935,6338,27102
22990,6365,27142
23032,6383,27154
22986,6359,27099
22928,6327,27043
22934,6319,27022
22929,6301,26969
22849,6251,26856
22778,6210,26766
22766,6201,26725
22726,6179,26655
22612,6126,26541
22512,6084,26460
22468,6061,26413
22399,6017,26317
22277,5947,26178
22190,5899,26076
22161,5874,26005
22086,5828,25884
21954,5764,25732
21867,5727,25628
21825,5711,25557
21726,5666,25436
21575,5597,25285
21479,5553,25178
21438,5527,25090
21351,5474,24950
21228,5407,24793
21166,5372,24692
21144,5353,24614
21070,5313,24493
20972,5270,24373
20936,5257,24317
20919,5248,24272
20835,5206,24173
20733,5159,24072
20696,5138,24030
20667,5112,23982
20568,5051,23870
20470,4998,23762
20459,4991,23717
20461,4992,23676
20393,4962,23588
20324,4934,23520
20332,4940,23511
20338,4944,23488
20271,4916,23415
20203,4891,23357
20197,4891,23345
20179,4881,23306
20100,4844,23223
20053,4823,23175
20078,4829,23169
20082,4819,23128
20030,4788,23053
20011,4781,23025
20045,4799,23036
20032,4794,23001
19957,4764,22930
19921,4753,22900
19929,4758,22894
19888,4737,22836
19802,4698,22750
19771,4683,22716
19790,4684,22714
19755,4659,22667
19671,4621,22600
19639,4611,22582
19645,4614,22581
19589,4589,22521
19490,4550,22437
19443,4532,22398
19419,4517,22357
19333,4472,22249
19223,4425,22136
19177,4413,22085
19152,4411,22038
19069,4380,21937
18984,4345,21843
18977,4341,21811
18992,4338,21785
18955,4313,21729
18944,4307,21724
19046,4355,21822
19197,4421,21963
19331,4480,22117
19523,4571,22355
19832,4717,22706
20174,4879,23092
20482,5032,23482
20821,5207,23932
21231,5415,24446
21620,5611,24932
21941,5780,25374
22276,5956,25835
22651,6143,26303
22971,6296,26701
23215,6413,27042
23479,6543,27404
23776,6686,27770
24008,6795,28062
24174,6874,28294
24369,6976,28548
24587,7090,28800
24726,7163,28973
24794,7204,29095
24888,7260,29237
24993,7317,29367
25020,7333,29421
24993,7329,29439
25009,7345,29484
25044,7359,29517
25012,7331,29482
24948,7292,29433
24938,7286,29433
24943,7287,29428
24881,7258,29362
24805,7226,29292
24791,7224,29272
24775,7219,29243
24679,7175,29152
24571,7124,29056
24530,7100,29001
24490,7071,28927
24382,7008,28796
24274,6948,28677
24228,6917,28603
24168,6878,28505
24038,6809,28359
23915,6751,28235
23855,6723,28153
23777,6680,28044
23638,6610,27894
23532,6556,27780
23500,6533,27709
23455,6502,27614
23370,6454,27500
23333,6434,27448
23361,6447,27454
23357,6447,27441
23310,6433,27414
23314,6447,27446
23373,6483,27512
23393,6494,27535
23377,6485,27537
23421,6506,27593
23516,6547,27675
23566,6565,27711
23585,6572,27732
23658,6610,27803
23759,6658,27891
23794,6673,27929
23793,6674,27957
23840,6701,28027
23902,6730,28087
23896,6723,28082
23867,6708,28070
23900,6724,28106
23944,6745,28136
23915,6732,28112
23873,6717,28091
23896,6731,28112
23912,6740,28112
23849,6711,28048
23777,6676,27981
23769,6665,27947
23753,6644,27881
23667,6590,27758
23592,6547,27657
23582,6536,27600
23553,6516,27522
23455,6469,27411
23369,6434,27331
23338,6424,27290
23276,6393,27213
23148,6335,27102
23044,6292,27027
22992,6268,26981
22910,6221,26887
22785,6151,26758
22708,6106,26672
22688,6085,26618
22630,6046,26520
22532,5995,26403
22479,5972,26334
22462,5965,26286
22393,5929,26192
22286,5878,26081
22231,5854,26015
22210,5838,25961
22136,5792,25858
22039,5737,25744
22004,5715,25682
22001,5705,25635
21945,5668,25546
21874,5629,25460
21862,5624,25432
21857,5623,25407
21776,5590,25328
21684,5555,25249
21666,5553,25225
21658,5551,25192
21584,5515,25106
21512,5481,25035
21514,5479,25017
21518,5476,24986
21458,5448,24917
21404,5426,24873
21413,5430,24874
21404,5422,24849
21325,5388,24780
21262,5368,24734
21262,5372,24720
21242,5361,24674
21167,5325,24599
21121,5306,24567
21132,5312,24573
21111,5302,24543
21041,5271,24482
21010,5263,24466
21026,5274,24477
20995,5260,24435
20914,5223,24353
20881,5205,24305
20895,5202,24270
20857,5172,24185
20772,5124,24082
20732,5098,24026
20723,5079,23977
20659,5036,23879
20562,4988,23775
20518,4970,23722
20496,4962,23673
20417,4928,23570
20316,4891,23461
20276,4884,23407
20259,4878,23362
20189,4838,23273
20126,4803,23208
20160,4816,23235
20242,4851,23303
20297,4876,23375
20397,4928,23522
20619,5040,23788
20889,5171,24098
21126,5291,24405
21396,5431,24768
21758,5616,25211
22137,5806,25661
22469,5975,26083
22819,6159,26538
23227,6371,27033
23606,6562,27489
23908,6717,27890
24210,6877,28303
24543,7049,28723
24824,7191,29073
25027,7295,29348
25242,7409,29630
25486,7532,29912
25663,7617,30121
25763,7666,30272
25881,7727,30438
26020,7798,30603
26091,7830,30685
26095,7834,30697
26131,7854,30725
26194,7880,30751
26194,7867,30698
26149,7833,30601
26145,7824,30555
26156,7823,30531
26101,7789,30452
26013,7742,30361
25978,7724,30330
25957,7710,30301
25871,7659,30190
25767,7605,30063
25728,7589,30004
25701,7578,29953
25606,7531,29833
25502,7484,29710
25463,7468,29652
25416,7444,29597
25285,7380,29489
25143,7313,29390
25065,7275,29328
24984,7229,29243
24839,7156,29117
24715,7097,29016
24669,7071,28958
24625,7040,28888
24532,6989,28798
24469,6961,28754
24475,6964,28759
24467,6958,28737
24409,6936,28687
24394,6941,28695
24447,6972,28753
24473,6981,28770
24456,6968,28753
24490,6985,28790
24587,7028,28873
24647,7048,28924
24663,7051,28955
24728,7084,29034
24832,7135,29131
24876,7158,29176
24879,7165,29201
24931,7194,29263
25006,7227,29326
25017,7226,29333
24996,7213,29322
25031,7231,29353
25088,7258,29388
25083,7253,29374
25053,7243,29354
25079,7266,29378
25107,7288,29389
25052,7267,29332
24972,7234,29264
24952,7228,29236
24933,7215,29191
24837,7164,29081
24738,7112,28975
24713,7097,28920
24688,7080,28858
24596,7035,28758
24508,7001,28679
24482,6995,28638
24437,6973,28568
24322,6918,28452
24220,6871,28361
24180,6850,28302
24122,6814,28206
24008,6752,28073
23925,6709,27979
23901,6690,27920
23847,6652,27823
23747,6598,27699
23689,6571,27625
23679,6567,27584
23619,6537,27496
23504,6485,27373
23429,6454,27292
23397,6437,27238
23321,6393,27142
23209,6337,27029
23155,6309,26964
23142,6290,26913
23077,6243,26815
22985,6188,26713
22955,6165,26672
22951,6155,26649
22886,6120,26581
22797,6085,26511
22771,6087,26495
22767,6092,26476
22702,6062,26395
22624,6029,26316
22614,6027,26294
22615,6019,26268
22551,5978,26190
22488,5942,26126
22503,5943,26120
22527,5948,26112
22490,5929,26063
22459,5923,26031
22492,5948,26042
22509,5960,26029
22448,5937,25971
22393,5918,25933
22394,5923,25928
22376,5915,25888
22297,5881,25808
22245,5860,25765
22256,5858,25755
22243,5838,25703
22176,5801,25619
22141,5785,25580
22149,5790,25575
22104,5770,25522
22001,5725,25434
21937,5701,25379
21915,5690,25334
21843,5651,25234
21730,5596,25108
21669,5565,25022
21650,5543,24952
21577,5494,24836
21467,5435,24714
21411,5406,24647
21385,5389,24591
21307,5352,24492
21209,5312,24395
21177,5300,24360
21175,5298,24342
21133,5275,24296
21111,5267,24288
21203,5317,24390
21360,5398,24558
21506,5476,24743
21696,5581,24999
21997,5740,25363
22330,5911,25760
22616,6061,26138
22918,6225,26543
23295,6425,27002
23670,6614,27447
23982,6768,27847
24306,6929,28263
24684,7116,28704
25027,7288,29102
25288,7427,29443
25543,7571,29789
25833,7727,30143
26070,7853,30433
26221,7944,30655
26381,8042,30879
26570,8145,31099
26699,8209,31237
26761,8240,31307
26853,8289,31406
26982,8352,31525
27043,8379,31569
27028,8375,31556
27035,8385,31582
27066,8400,31628
27033,8380,31605
26952,8339,31535
26917,8322,31508
26913,8314,31492
26856,8276,31412
26777,8228,31314
26752,8209,31279
26744,8191,31253
26669,8140,31153
26572,8087,31038
26529,8069,30986
26486,8050,30930
26367,7986,30791
26228,7911,30636
26154,7868,30543
26088,7823,30448
25956,7746,30290
25827,7677,30139
25772,7648,30054
25720,7620,29967
25610,7566,29831
25512,7526,29726
25484,7524,29701
25454,7513,29682
25377,7479,29641
25333,7463,29645
25360,7477,29696
25374,7480,29716
25338,7463,29703
25337,7469,29738
25403,7501,29815
25444,7514,29854
25442,7509,29870
25488,7533,29937
25589,7583,30039
25643,7608,30097
25643,7611,30124
25687,7639,30194
25772,7681,30285
25804,7694,30327
25793,7690,30345
25834,7715,30402
25912,7755,30471
25931,7767,30479
25907,7769,30453
25929,7799,30471
25969,7828,30494
25945,7816,30441
25897,7791,30362
25906,7792,30332
25920,7788,30296
25862,7746,30182
25793,7703,30068
25793,7696,30027
25797,7692,29985
25721,7652,29878
25624,7607,29778
25582,7587,29738
25529,7558,29693
25401,7494,29600
25277,7434,29519
25223,7401,29480
25166,7361,29416
25051,7294,29306
24961,7247,29221
24944,7233,29184
24906,7207,29117
24804,7155,29009
24727,7121,28936
24707,7109,28900
24657,7077,28817
24551,7018,28690
24479,6980,28603
24459,6965,28550
24402,6929,28457
24301,6877,28339
24246,6851,28271
24236,6843,28234
24171,6806,28149
24055,6749,28039
23993,6719,27974
23976,6705,27925
23910,6666,27832
23816,6621,27735
23786,6611,27696
23796,6617,27673
23756,6595,27603
23694,6565,27533
23693,6567,27527
23712,6573,27527
23664,6543,27469
23601,6509,27405
23599,6508,27391
23598,6503,27368
23529,6463,27290
23458,6426,27220
23461,6426,27202
23474,6430,27177
23424,6408,27114
23377,6392,27068
23395,6404,27065
23403,6405,27040
23341,6372,26967
23287,6344,26909
23293,6342,26884
23285,6330,26832
23223,6294,26746
23185,6274,26696
23203,6281,26687
23189,6273,26643
23114,6243,26574
23070,6231,26553
23078,6237,26561
23043,6215,26509
22948,6168,26413
22897,6145,26363
22898,6144,26349
22855,6119,26289
22766,6079,26201
22724,6066,26154
22719,6069,26123
22656,6044,26039
22545,6002,25934
22481,5984,25874
22448,5971,25822
22356,5921,25708
22235,5857,25577
22171,5821,25495
22133,5789,25418
22040,5730,25292
21932,5672,25173
21888,5646,25112
21860,5620,25049
21770,5565,24939
21685,5518,24846
21699,5516,24830
21763,5533,24852
21808,5550,24884
21899,5602,24995
22106,5715,25222
22354,5846,25491
22575,5968,25765
22838,6116,26110
23190,6305,26539
23554,6494,26969
23875,6664,27375
24223,6854,27825
24625,7071,28316
24993,7265,28770
25292,7428,29181
25602,7603,29615
25941,7790,30058
26220,7940,30430
26428,8050,30735
26658,8173,31052
26923,8308,31368
27124,8405,31585
27250,8470,31718
27394,8549,31865
27552,8630,32022
27634,8662,32102
27648,8661,32123
27693,8679,32174
27758,8706,32235
27755,8698,32220
27707,8676,32162
27700,8679,32148
27707,8684,32140
27641,8645,32054
27543,8593,31943
27502,8571,31891
27474,8547,31842
27380,8485,31721
27280,8423,31594
27252,8404,31539
27231,8389,31486
27130,8334,31359
27007,8274,31227
26938,8244,31158
26862,8209,31074
26715,8137,30920
26573,8066,30776
26500,8024,30687
26425,7980,30574
26296,7913,30395
26189,7861,30247
26150,7842,30179
26097,7815,30102
25995,7772,29992
25933,7751,29939
25940,7754,29948
25925,7739,29933
25862,7706,29897
25847,7704,29926
25901,7732,30009
25930,7742,30060
25924,7735,30089
25970,7759,30169
26064,7806,30283
26105,7828,30355
26099,7831,30400
26140,7862,30483
26219,7903,30574
26240,7913,30609
26227,7911,30625
26272,7941,30687
26349,7983,30754
26369,7996,30746
26363,8002,30709
26404,8036,30722
26453,8065,30735
26428,8049,30669
26380,8021,30588
26390,8023,30572
26405,8023,30559
26351,7990,30474
26293,7963,30389
26299,7969,30374
26301,7968,30354
26225,7928,30261
26137,7885,30166
26107,7865,30124
26062,7830,30075
25946,7760,29986
25842,7702,29925
25803,7676,29903
25745,7638,29853
25626,7575,29764
25527,7530,29702
25485,7515,29666
25412,7482,29580
25277,7420,29446
25173,7373,29342
25121,7345,29264
25030,7292,29144
24891,7221,28995
24803,7180,28896
24771,7161,28832
24693,7119,28727
24565,7061,28599
24485,7029,28517
24448,7010,28456
24363,6963,28353
24246,6902,28238
24190,6868,28172
24175,6846,28119
24107,6796,28021
24013,6739,27923
23979,6718,27885
23970,6709,27859
23905,6675,27782
23826,6641,27706
23813,6641,27685
23810,6640,27657
23738,6600,27569
23658,6556,27481
23649,6545,27445
23648,6536,27408
23579,6503,27330
23511,6482,27270
23516,6499,27257
23517,6508,27224
23450,6482,27142
23393,6459,27084
23402,6461,27073
23396,6450,27038
23324,6409,26955
23277,6382,26898
23296,6384,26881
23293,6373,26833
23235,6340,26754
23204,6325,26716
23226,6333,26710
23208,6319,26656
23132,6280,26566
23094,6261,26520
23105,6260,26507
23069,6236,26455
22985,6196,26380
22949,6181,26352
22959,6182,26351
22915,6155,26304
22819,6109,26231
22765,6091,26194
22739,6088,26162
22655,6053,26065
22542,6004,25942
22486,5982,25870
22460,5969,25814
22380,5924,25710
22283,5873,25604
22244,5854,25555
22212,5835,25501
22106,5781,25383
21986,5727,25262
21939,5706,25195
21907,5689,25121
21810,5643,24998
21720,5607,24897
21719,5612,24872
21746,5624,24867
21740,5623,24856
21781,5650,24918
21937,5730,25091
22133,5824,25307
22314,5911,25542
22563,6035,25867
22917,6210,26283
23284,6392,26707
23614,6565,27122
23983,6763,27592
24414,6989,28109
24805,7190,28585
25127,7365,29017
25465,7555,29473
25829,7753,29941
26126,7911,30341
26352,8036,30681
26606,8180,31037
26891,8333,31382
27104,8447,31626
27252,8533,31800
27426,8636,31998
27608,8738,32196
27709,8795,32310
27755,8827,32372
27833,8876,32470
27919,8917,32568
27928,8912,32579
27898,8887,32549
27918,8891,32566
27949,8898,32581
27907,8868,32516
27840,8834,32436
27832,8834,32420
27828,8834,32400
27748,8796,32300
27651,8748,32190
27615,8726,32144
27575,8699,32091
27463,8638,31972
27356,8584,31864
27317,8561,31819
27275,8530,31760
27169,8469,31637
27074,8417,31530
27042,8393,31472
26986,8354,31385
26861,8289,31250
26753,8237,31151
26700,8210,31099
26616,8162,31001
26478,8091,30849
26383,8050,30749
26355,8040,30710
26297,8008,30635
26199,7957,30529
26164,7943,30493
26195,7958,30516
26189,7951,30502
26143,7930,30462
26157,7939,30486
26220,7966,30546
26230,7965,30551
26202,7953,30534
26235,7974,30584
26310,8011,30664
26337,8021,30689
26346,8025,30702
26417,8064,30787
26510,8112,30894
26539,8127,30936
26549,8138,30968
26617,8183,31068
26686,8225,31163
26667,8219,31167
26624,8202,31147
26645,8215,31180
26672,8223,31200
26625,8191,31143
26576,8163,31083
26594,8169,31081
26599,8166,31054
26524,8129,30953
26445,8096,30862
26417,8088,30821
26364,8060,30744
26240,7993,30596
26137,7939,30473
26103,7912,30404
26046,7871,30299
25930,7809,30150
25843,7769,30047
25808,7753,30001
25729,7709,29927
25593,7639,29825
25500,7591,29769
25457,7560,29743
25365,7499,29664
25227,7418,29548
25144,7367,29473
25113,7339,29419
25034,7289,29314
24915,7229,29191
24850,7201,29123
24818,7185,29071
24727,7138,28963
24603,7079,28838
24535,7051,28759
24492,7030,28684
24386,6976,28553
24263,6919,28420
24214,6901,28352
24190,6890,28295
24105,6848,28194
24017,6808,28103
24004,6804,28070
23993,6796,28032
23907,6751,27945
23814,6704,27861
23791,6688,27820
23772,6670,27767
23695,6627,27673
23630,6598,27609
23633,6604,27599
23621,6601,27572
23540,6569,27503
23473,6546,27456
23471,6546,27446
23452,6529,27403
23376,6487,27321
23334,6465,27279
23358,6471,27277
23355,6460,27236
23300,6430,27164
23283,6425,27140
23316,6442,27152
23296,6431,27111
23220,6394,27031
23182,6376,26991
23184,6372,26973
23133,6340,26904
23039,6293,26812
22999,6273,26770
23000,6267,26748
22946,6234,26675
22861,6194,26588
22833,6183,26549
22833,6183,26517
22773,6154,26424
22687,6118,26318
22653,6114,26264
22628,6109,26209
22534,6063,26091
22429,6010,25974
22395,5991,25918
22370,5972,25856
22277,5919,25738
22178,5870,25632
22146,5855,25582
22104,5832,25515
21984,5774,25392
21865,5722,25279
21817,5700,25210
21769,5672,25123
21666,5619,25005
21599,5586,24938
21631,5596,24950
21680,5613,24974
21705,5628,25017
21801,5689,25162
22011,5805,25411
22254,5932,25687
22496,6062,25991
22819,6237,26392
23231,6455,26869
23624,6663,27336
23978,6858,27798
24380,7080,28323
24826,7320,28880
25209,7522,29379
25528,7692,29823
25877,7882,30283
26251,8080,30733
26552,8233,31107
26796,8358,31431
27079,8505,31774
27376,8656,32097
27587,8763,32320
27736,8849,32494
27917,8955,32701
28091,9052,32886
28172,9096,32970
28210,9120,33014
28291,9164,33095
28359,9193,33151
28339,9172,33111
28300,9148,33058
28323,9158,33067
28344,9168,33068
28285,9140,32998
28219,9113,32936
28218,9116,32932
28207,9107,32905
28121,9059,32809
28036,9014,32723
28014,8998,32687
27978,8970,32621
27876,8913,32494
27793,8872,32394
27772,8857,32345
27721,8821,32258
27605,8758,32121
27510,8713,32027
27464,8689,31980
27371,8638,31883
27218,8565,31738
27107,8516,31639
27051,8491,31583
26959,8441,31474
26830,8375,31320
26765,8345,31227
26759,8339,31189
26713,8309,31112
26636,8270,31017
26622,8267,30993
26655,8283,31012
26641,8273,30985
26602,8254,30951
26623,8270,30993
26672,8299,31063
26667,8298,31075
26654,8293,31080
26716,8322,31163
26803,8357,31259
26834,8365,31288
26862,8380,31315
26963,8434,31416
27062,8486,31516
27077,8499,31543
27076,8511,31563
27140,8553,31638
27195,8585,31691
27171,8573,31671
27149,8561,31659
27191,8578,31700
27216,8584,31717
27169,8557,31671
27125,8540,31641
27131,8549,31661
27108,8539,31643
27019,8497,31565
26951,8467,31513
26930,8454,31496
26867,8412,31423
26742,8340,31293
26659,8291,31205
26630,8267,31157
26559,8222,31054
26442,8162,30905
26378,8130,30808
26364,8116,30752
26296,8070,30642
26172,8001,30502
26090,7954,30421
26044,7920,30371
25939,7858,30276
25794,7787,30164
25707,7749,30101
25657,7722,30047
25554,7663,29942
25432,7597,29833
25378,7567,29781
25346,7547,29734
25252,7499,29635
25144,7450,29540
25103,7437,29492
25067,7422,29431
24958,7367,29306
24838,7309,29181
24789,7285,29105
24752,7259,29020
24655,7205,28890
24572,7163,28785
24566,7158,28738
24559,7149,28681
24488,7113,28587
24430,7088,28526
24428,7091,28512
24399,7077,28467
24301,7032,28385
24229,7004,28341
24222,7003,28328
24191,6982,28274
24110,6940,28191
24074,6923,28159
24101,6933,28164
24090,6920,28128
24026,6885,28062
24007,6874,28037
24033,6882,28033
24001,6862,27977
23915,6819,27894
23877,6800,27856
23881,6797,27832
23831,6765,27755
23745,6721,27659
23717,6708,27619
23724,6711,27603
23673,6684,27546
23591,6648,27482
23568,6643,27464
23566,6641,27443
23499,6602,27361
23415,6559,27272
23398,6550,27237
23392,6542,27203
23309,6500,27121
23215,6459,27045
23190,6451,27015
23166,6436,26960
23066,6389,26838
22960,6344,26715
22920,6326,26632
22874,6302,26535
22760,6248,26399
22652,6204,26289
22606,6189,26225
22538,6160,26134
22402,6100,26001
22286,6050,25893
22233,6021,25820
22163,5975,25711
22045,5909,25570
21973,5873,25487
21985,5875,25472
21999,5873,25460
22008,5877,25479
22110,5934,25613
22313,6041,25847
22524,6151,26102
22742,6266,26390
23059,6431,26782
23463,6634,27245
23844,6825,27696
24199,7014,28153
24608,7239,28671
25048,7478,29205
25425,7681,29684
25756,7861,30136
26122,8062,30618
26489,8260,31080
26772,8411,31450
27013,8541,31774
27299,8696,32124
27579,8844,32437
27763,8945,32640
27907,9035,32808
28087,9149,33021
28239,9242,33204
28288,9277,33288
28307,9293,33340
28374,9327,33418
28423,9346,33458
28392,9325,33418
28359,9303,33380
28376,9304,33390
28361,9288,33364
28271,9240,33268
28189,9201,33181
28162,9183,33136
28105,9146,33050
27985,9082,32901
27891,9035,32788
27853,9011,32732
27784,8965,32639
27664,8898,32503
27576,8852,32413
27527,8821,32361
27423,8757,32246
27259,8667,32069
27137,8599,31926
27062,8551,31812
26938,8476,31645
26774,8386,31449
26668,8327,31313
26607,8290,31217
26498,8230,31076
26361,8160,30923
26289,8123,30840
26260,8103,30789
26194,8061,30693
26124,8025,30604
26133,8034,30605
26174,8061,30639
26157,8059,30617
26126,8056,30597
26165,8090,30654
26221,8126,30722
26216,8128,30730
26219,8136,30749
26306,8182,30846
26407,8229,30945
26445,8247,30985
26483,8270,31040
26577,8319,31155
26647,8355,31242
26640,8355,31255
26644,8365,31277
26711,8402,31346
26758,8424,31386
26741,8416,31375
26734,8420,31393
26772,8448,31454
26769,8447,31456
26691,8407,31382
26638,8378,31335
26639,8370,31326
26601,8338,31266
26511,8283,31160
26463,8256,31097
26452,8248,31068
26382,8211,30982
26257,8149,30849
26174,8105,30752
26130,8069,30669
26033,8007,30526
25903,7938,30358
25825,7900,30247
25776,7872,30170
25667,7811,30061
25524,7738,29949
25433,7691,29885
25364,7648,29816
25244,7579,29690
25118,7514,29568
25062,7489,29507
25019,7470,29448
24907,7421,29336
24786,7373,29222
24733,7359,29155
24686,7340,29080
24573,7284,28960
24463,7227,28857
24423,7202,28801
24380,7170,28726
24271,7108,28605
24170,7056,28501
24136,7034,28437
24092,7003,28349
23990,6947,28225
23918,6912,28139
23916,6910,28097
23891,6896,28026
23808,6860,27927
23749,6841,27867
23738,6839,27837
23690,6810,27760
23586,6754,27645
23526,6721,27577
23524,6712,27551
23489,6685,27494
23413,6645,27421
23390,6635,27402
23416,6647,27411
23386,6633,27372
23305,6601,27311
23273,6595,27296
23279,6601,27293
23236,6576,27239
23167,6540,27170
23153,6537,27151
23162,6544,27138
23108,6521,27072
23027,6487,26998
23003,6477,26970
22997,6465,26935
22931,6420,26838
22855,6379,26743
22848,6377,26709
22847,6381,26678
22774,6351,26598
22689,6317,26525
22668,6304,26493
22642,6282,26440
22546,6230,26339
22458,6186,26258
22438,6176,26223
22406,6158,26164
22305,6109,26057
22211,6066,25967
22173,6047,25909
22106,6010,25810
21970,5946,25666
21850,5895,25554
21777,5864,25471
21678,5814,25345
21537,5743,25189
21442,5694,25081
21403,5672,25012
21331,5634,24912
21226,5586,24803
21194,5573,24769
21245,5594,24807
21296,5616,24856
21358,5654,24943
21531,5748,25146
21808,5885,25441
22095,6026,25761
22403,6184,26130
22808,6395,26601
23270,6630,27126
23686,6847,27633
24076,7062,28148
24512,7304,28712
24950,7537,29260
25307,7721,29726
25633,7892,30163
26013,8091,30628
26387,8285,31069
26661,8432,31428
26896,8565,31752
27169,8718,32091
27417,8852,32373
27567,8938,32546
27691,9014,32691
27856,9108,32862
27995,9184,32989
28046,9213,33027
28081,9240,33063
28154,9285,33143
28186,9304,33182
28139,9282,33147
28093,9263,33118
28086,9260,33119
28047,9230,33072
27953,9169,32969
27888,9127,32903
27872,9108,32882
27811,9066,32810
27697,9003,32691
27623,8964,32618
27590,8941,32579
27507,8887,32477
27377,8811,32326
27292,8764,32224
27244,8738,32153
27143,8685,32024
27000,8617,31860
26905,8573,31746
26838,8537,31654
26715,8468,31504
26565,8390,31340
26477,8348,31240
26417,8313,31153
26299,8245,31004
26171,8177,30859
26119,8149,30803
26096,8135,30770
26026,8099,30686
25967,8076,30619
25990,8098,30636
26029,8122,30660
26005,8113,30622
25984,8106,30595
26044,8133,30641
26117,8158,30690
26132,8159,30693
26156,8174,30722
26241,8220,30816
26307,8253,30889
26307,8258,30906
26317,8276,30951
26382,8320,31050
26418,8344,31112
26390,8334,31114
26387,8339,31147
26437,8364,31218
26451,8363,31237
26409,8339,31201
26401,8337,31200
26435,8356,31237
26416,8345,31215
26336,8307,31136
26292,8289,31089
26286,8281,31060
26226,8239,30964
26122,8175,30831
26069,8137,30755
26055,8117,30708
25983,8069,30608
25870,8011,30487
25810,7983,30420
25771,7961,30370
25664,7900,30276
25529,7829,30177
25453,7790,30129
25388,7754,30077
25255,7687,29969
25118,7624,29864
25059,7603,29812
25017,7584,29749
24904,7531,29624
24780,7474,29496
24719,7444,29410
24658,7409,29310
24533,7343,29165
24422,7287,29047
24386,7265,28980
24346,7238,28899
24246,7183,28781
24157,7137,28686
24127,7118,28629
24073,7085,28539
23955,7027,28408
23860,6986,28314
23825,6965,28255
23767,6926,28161
23661,6867,28039
23596,6834,27962
23593,6830,27924
23554,6808,27851
23465,6769,27756
23418,6752,27709
23418,6752,27689
23374,6724,27625
23292,6681,27540
23268,6664,27496
23288,6661,27465
23258,6632,27387
23194,6594,27297
23182,6587,27259
23191,6589,27237
23135,6561,27174
23048,6526,27112
23013,6520,27101
22994,6516,27086
22916,6482,27013
22835,6448,26940
22831,6454,26924
22847,6469,26914
22801,6455,26858
22749,6438,26807
22759,6450,26801
22765,6456,26780
22695,6426,26703
22624,6394,26633
22617,6388,26605
22598,6373,26558
22508,6329,26466
22427,6297,26398
22413,6295,26375
22386,6281,26322
22300,6238,26225
22230,6203,26153
22208,6191,26112
22160,6162,26030
22055,6107,25908
21982,6067,25826
21964,6051,25783
21910,6018,25705
21803,5968,25602
21732,5937,25545
21701,5919,25511
21617,5871,25425
21479,5802,25309
21388,5754,25230
21343,5724,25166
21252,5669,25053
21124,5599,24920
21050,5559,24832
21013,5538,24766
20932,5500,24665
20838,5461,24572
20822,5458,24557
20867,5479,24595
20908,5497,24643
20993,5544,24757
21205,5657,25002
21500,5806,25332
21796,5956,25690
22135,6136,26117
22576,6372,26640
23043,6618,27186
23441,6833,27695
23828,7047,28211
24270,7287,28758
24696,7510,29264
25038,7687,29699
25368,7859,30125
25735,8053,30560
26059,8224,30941
26288,8351,31252
26504,8476,31559
26753,8612,31867
26951,8713,32089
27064,8771,32216
27182,8832,32345
27332,8900,32490
27422,8935,32568
27442,8939,32576
27487,8964,32616
27567,9006,32688
27583,9013,32693
27533,8991,32642
27517,8991,32635
27536,9004,32657
27491,8978,32609
27390,8926,32507
27339,8899,32451
27329,8888,32418
27267,8847,32326
27174,8789,32211
27133,8761,32154
27111,8740,32110
27026,8684,31997
26910,8618,31864
26844,8583,31787
26794,8548,31707
26684,8477,31554
26560,8405,31395
26499,8371,31303
26444,8339,31217
26320,8275,31069
26190,8214,30917
26130,8190,30829
26079,8163,30744
25970,8103,30610
25879,8054,30504
25869,8042,30479
25862,8032,30471
25803,8002,30454
25764,7988,30480
25793,8006,30550
25810,8017,30592
25775,8005,30598
25772,8014,30641
25837,8049,30720
25881,8068,30765
25874,8066,30786
25899,8086,30850
25969,8127,30943
25997,8141,30990
25979,8129,31003
26009,8141,31057
26091,8175,31123
26129,8186,31121
26126,8185,31082
26169,8211,31090
26241,8246,31122
26253,8249,31099
26227,8236,31045
26246,8245,31035
26284,8256,31032
26258,8232,30962
26201,8201,30872
26192,8199,30844
26190,8201,30829
26119,8170,30747
26025,8132,30649
25986,8120,30603
25955,8101,30547
25860,8046,30429
25761,7990,30324
25728,7968,30283
25695,7945,30240
25589,7888,30156
25477,7833,30083
25427,7806,30049
25368,7767,29985
25238,7696,29868
25117,7636,29768
25063,7607,29710
24994,7572,29625
24863,7516,29500
24749,7474,29404
24691,7454,29340
24614,7416,29240
24489,7354,29104
24401,7310,29007
24370,7291,28947
24310,7255,28855
24208,7202,28742
24153,7174,28675
24147,7163,28638
24093,7125,28549
23985,7065,28421
23924,7031,28331
23910,7018,28268
23851,6986,28172
23757,6947,28070
23717,6937,28024
23711,6941,27997
23652,6916,27926
23564,6875,27850
23528,6857,27826
23518,6843,27809
23450,6799,27736
23362,6752,27659
23343,6741,27641
23347,6740,27630
23291,6712,27575
23231,6690,27530
23242,6702,27536
23258,6709,27531
23202,6678,27469
23135,6646,27406
23134,6644,27382
23136,6638,27343
23078,6605,27264
23026,6582,27210
23037,6588,27200
23035,6586,27164
22966,6557,27082
22903,6532,27016
22888,6526,26981
22843,6502,26907
22733,6450,26791
22651,6413,26712
22631,6400,26670
22585,6370,26592
22493,6319,26483
22441,6289,26417
22444,6281,26382
22402,6251,26301
22302,6203,26188
22237,6176,26118
22212,6162,26074
22137,6120,25979
22018,6061,25856
21952,6025,25777
21928,6002,25718
21854,5956,25617
21746,5907,25509
21695,5891,25459
21684,5888,25434
21634,5868,25384
21586,5856,25358
21635,5893,25425
21753,5954,25549
21865,6008,25685
22023,6090,25890
22296,6231,26209
22615,6394,26572
22894,6540,26917
23181,6696,27288
23543,6890,27718
23911,7079,28137
24210,7234,28503
24506,7390,28885
24862,7575,29311
25200,7749,29707
25453,7885,30040
25690,8022,30369
25963,8176,30714
26195,8304,31002
26341,8389,31213
26486,8474,31418
26667,8571,31621
26802,8640,31746
26866,8673,31793
26943,8715,31859
27056,8772,31954
27107,8793,31990
27081,8776,31963
27073,8772,31956
27099,8779,31966
27071,8754,31913
26988,8707,31810
26949,8684,31745
26951,8674,31707
26899,8634,31618
26800,8578,31502
26737,8545,31435
26696,8519,31384
26598,8463,31274
26474,8399,31141
26405,8363,31059
26356,8332,30978
26249,8269,30827
26129,8201,30670
26067,8166,30581
26011,8130,30496
25882,8054,30338
25739,7975,30175
25661,7933,30082
25592,7897,30006
25465,7834,29901
25348,7784,29825
25311,7774,29806
25279,7764,29781
25188,7725,29721
25110,7695,29684
25106,7696,29688
25105,7690,29677
25058,7661,29637
25046,7655,29645
25108,7685,29709
25158,7707,29757
25159,7711,29783
25189,7735,29846
25270,7781,29938
25319,7805,29990
25316,7806,30006
25353,7830,30057
25444,7879,30135
25496,7908,30170
25500,7916,30174
25540,7945,30214
25615,7986,30274
25632,7996,30282
25598,7984,30261
25607,7989,30276
25646,8000,30300
25628,7978,30267
25570,7945,30214
25557,7942,30208
25564,7945,30209
25507,7911,30148
25423,7867,30072
25392,7852,30038
25369,7832,29996
25281,7773,29895
25183,7712,29790
25153,7688,29731
25130,7667,29664
25030,7615,29544
24918,7563,29428
24869,7540,29354
24818,7513,29261
24701,7456,29123
24593,7405,29011
24550,7381,28948
24497,7348,28871
24383,7289,28760
24287,7242,28673
24257,7226,28624
24208,7197,28546
24097,7143,28432
24012,7104,28353
23987,7086,28307
23936,7050,28226
23839,6997,28113
23779,6967,28040
23767,6959,27999
23714,6930,27918
23608,6880,27810
23541,6850,27742
23515,6831,27695
23444,6786,27598
23335,6728,27478
23278,6701,27406
23262,6695,27362
23199,6665,27279
23105,6623,27186
23062,6607,27139
23044,6598,27105
22972,6560,27029
22876,6514,26947
22843,6500,26916
22837,6494,26892
22778,6461,26821
22709,6427,26755
22706,6427,26748
22712,6430,26736
22645,6399,26660
22567,6366,26581
22559,6366,26551
22563,6370,26520
22512,6348,26447
22465,6330,26389
22483,6336,26378
22489,6332,26349
22422,6297,26276
22359,6267,26223
22356,6262,26209
22338,6246,26169
22261,6205,26089
22203,6179,26037
22207,6180,26021
22186,6166,25975
22105,6134,25902
22043,6118,25862
22020,6115,25842
21953,6085,25772
21834,6030,25660
21758,5994,25585
21730,5974,25536
21658,5931,25445
21543,5875,25332
21476,5846,25259
21450,5830,25205
21367,5787,25104
21238,5728,24980
21158,5694,24895
21112,5668,24821
21022,5617,24706
20922,5564,24591
20895,5551,24543
20910,5558,24529
20892,5548,24499
20890,5551,24514
20992,5606,24638
21158,5689,24827
21312,5765,25034
21510,5866,25304
21826,6025,25680
22194,6206,26094
22524,6373,26486
22872,6557,26907
23290,6776,27382
23696,6987,27840
24020,7157,28244
24333,7322,28649
24688,7503,29074
25011,7666,29452
25252,7795,29765
25488,7928,30083
25761,8076,30413
25986,8195,30683
26130,8274,30897
26273,8355,31123
26443,8443,31346
26554,8493,31473
26590,8506,31509
26645,8534,31559
26737,8575,31637
26775,8587,31656
26753,8577,31629
26761,8588,31639
26798,8611,31669
26775,8602,31633
26699,8570,31556
26664,8555,31521
26659,8542,31497
26598,8496,31409
26507,8441,31297
26470,8413,31244
26457,8394,31212
26388,8349,31122
26292,8297,31015
26243,8272,30965
26204,8251,30915
26107,8198,30795
26004,8145,30671
25971,8129,30616
25949,8117,30564
25859,8070,30446
25758,8019,30322
25719,7999,30259
25677,7976,30210
25571,7921,30135
25477,7875,30088
25456,7864,30088
25438,7851,30071
25369,7815,30016
25318,7792,29990
25331,7797,30008
25329,7793,30005
25271,7764,29971
25241,7754,29973
25279,7773,30012
25302,7779,30022
25283,7768,30010
25306,7781,30050
25389,7824,30135
25434,7847,30187
25428,7848,30209
25462,7871,30273
25547,7910,30359
25590,7925,30398
25586,7923,30408
25626,7943,30453
25701,7977,30509
25723,7984,30519
25705,7981,30516
25733,8005,30553
25780,8031,30588
25759,8018,30559
25701,7990,30506
25690,7983,30485
25693,7978,30459
25636,7943,30381
25565,7908,30302
25552,7903,30274
25544,7896,30240
25463,7854,30147
25367,7807,30048
25331,7790,29990
25294,7768,29918
25187,7712,29797
25083,7662,29695
25045,7649,29648
25002,7632,29585
24890,7583,29470
24783,7539,29368
24737,7521,29304
24674,7489,29211
24546,7427,29074
24441,7379,28974
24401,7359,28922
24346,7327,28845
24245,7278,28745
24178,7250,28688
24166,7242,28664
24118,7208,28597
24014,7147,28489
23953,7111,28414
23949,7098,28364
23907,7065,28272
23826,7018,28157
23793,7000,28088
23797,6999,28050
23744,6968,27976
23648,6918,27888
23603,6894,27845
23597,6887,27823
23540,6855,27759
23455,6816,27686
23428,6807,27665
23426,6806,27652
23363,6775,27588
23279,6737,27517
23259,6728,27496
23266,6723,27484
23223,6693,27437
23174,6669,27401
23192,6681,27412
23212,6693,27406
23161,6668,27338
23104,6644,27267
23111,6651,27243
23120,6658,27214
23062,6638,27144
23000,6621,27091
22993,6625,27080
22976,6614,27044
22898,6571,26962
22842,6540,26905
22856,6538,26886
22853,6525,26835
22790,6490,26752
22742,6472,26711
22740,6476,26709
22699,6460,26666
22603,6419,26586
22544,6400,26545
22541,6403,26534
22500,6383,26480
22409,6340,26396
22359,6315,26354
22348,6305,26330
22285,6267,26252
22176,6211,26142
22117,6180,26070
22095,6164,26012
22020,6121,25910
21910,6067,25794
21851,6040,25722
21818,6018,25661
21728,5967,25550
21613,5906,25428
21555,5877,25357
21521,5857,25301
21440,5816,25204
21359,5779,25119
21356,5782,25105
21385,5795,25114
21385,5797,25118
21433,5830,25199
21609,5925,25403
21847,6046,25668
22067,6164,25950
22322,6307,26290
22671,6491,26705
23033,6673,27123
23341,6831,27512
23674,7008,27935
24078,7220,28403
24453,7414,28837
24747,7574,29222
25042,7741,29622
25377,7923,30035
25666,8074,30386
25873,8188,30677
26087,8310,30983
26330,8442,31292
26510,8536,31512
26618,8593,31647
26743,8662,31793
26888,8737,31950
26961,8770,32024
26965,8768,32029
27008,8788,32063
27087,8825,32117
27109,8831,32113
27090,8820,32080
27117,8835,32098
27164,8854,32135
27142,8836,32108
27078,8802,32051
27063,8794,32043
27067,8789,32039
27011,8749,31961
26933,8701,31863
26916,8689,31834
26913,8684,31821
26844,8647,31741
26760,8608,31646
26735,8597,31606
26708,8577,31560
26605,8516,31444
26495,8452,31327
26451,8421,31271
26403,8389,31209
26283,8329,31083
26161,8274,30962
26101,8248,30894
26035,8214,30807
25914,8152,30667
25818,8108,30561
25796,8099,30529
25771,8085,30485
25706,8055,30403
25680,8047,30369
25717,8065,30398
25736,8068,30406
25721,8058,30382
25751,8077,30412
25830,8119,30497
25867,8137,30547
25858,8133,30557
25899,8155,30610
25987,8195,30695
26031,8215,30729
26035,8224,30738
26089,8260,30802
26173,8304,30891
26201,8316,30923
26191,8314,30929
26228,8334,30981
26285,8355,31031
26286,8343,31013
26261,8328,30981
26284,8348,31011
26314,8370,31047
26273,8355,31008
26212,8331,30954
26210,8337,30961
26211,8340,30963
26143,8307,30890
26068,8275,30817
26059,8273,30808
26044,8263,30787
25954,8215,30692
25863,8166,30595
25834,8139,30549
25794,8101,30482
25690,8036,30362
25602,7985,30267
25577,7966,30229
25530,7934,30179
25418,7875,30104
25327,7829,30059
25292,7805,30033
25229,7761,29961
25117,7700,29859
25044,7666,29801
25020,7660,29770
24954,7631,29689
24832,7576,29575
24752,7542,29505
24721,7524,29463
24650,7481,29375
24543,7424,29265
24490,7397,29204
24477,7387,29169
24407,7352,29097
24298,7303,29012
24245,7280,28972
24228,7268,28939
24162,7234,28859
24081,7201,28776
24065,7203,28746
24072,7210,28723
24024,7186,28647
23963,7156,28563
23961,7156,28531
23973,7158,28506
23927,7129,28441
23879,7103,28389
23891,7108,28383
23891,7104,28355
23817,7064,28265
23745,7023,28180
23743,7013,28144
23743,7004,28108
23684,6974,28046
23631,6953,28007
23635,6957,28005
23624,6951,27978
23557,6924,27914
23515,6915,27890
23540,6936,27914
23548,6943,27910
23504,6925,27866
23482,6918,27852
23501,6926,27861
23478,6909,27820
23400,6866,27740
23359,6843,27699
23365,6839,27689
23319,6806,27631
23217,6753,27540
23162,6725,27485
23154,6714,27448
23099,6680,27365
23005,6635,27262
22963,6620,27210
22954,6618,27179
22891,6587,27104
22792,6545,27009
22743,6525,26955
22722,6507,26903
22645,6456,26800
22543,6401,26692
22497,6379,26638
22465,6361,26583
22367,6310,26467
22256,6255,26349
22209,6231,26281
22173,6209,26213
22080,6162,26107
22001,6130,26032
22013,6142,26029
22052,6162,26045
22062,6169,26061
22122,6208,26143
22300,6304,26326
22527,6421,26560
22740,6535,26826
23006,6679,27173
23364,6866,27598
23719,7051,28022
24021,7216,28426
24351,7400,28876
24735,7606,29355
25080,7789,29781
25364,7944,30153
25672,8115,30544
26011,8299,30944
26288,8447,31264
26490,8559,31504
26708,8682,31758
26948,8812,32019
27119,8901,32204
27227,8959,32332
27366,9037,32495
27527,9125,32670
27619,9174,32768
27655,9196,32817
27724,9233,32901
27804,9266,32985
27811,9256,32991
27775,9225,32961
27785,9215,32980
27812,9206,33000
27774,9167,32947
27714,9130,32882
27708,9130,32876
27699,9131,32865
27614,9093,32784
27516,9050,32698
27486,9039,32673
27465,9027,32645
27382,8985,32551
27298,8948,32459
27272,8937,32422
27225,8911,32360
27101,8846,32223
26984,8784,32095
26933,8749,32021
26869,8701,31920
26748,8628,31761
26652,8572,31638
26622,8547,31582
26571,8508,31497
26460,8447,31364
26380,8405,31279
26359,8390,31249
26316,8360,31190
26244,8322,31102
26232,8319,31079
26281,8344,31116
26287,8348,31117
26247,8334,31086
26257,8346,31112
26320,8374,31176
26345,8381,31196
26340,8383,31198
26388,8416,31264
26471,8462,31360
26499,8480,31402
26492,8487,31428
26536,8524,31512
26601,8563,31603
26607,8567,31620
26596,8568,31620
26652,8604,31684
26719,8643,31754
26710,8642,31750
26678,8632,31729
26707,8649,31763
26743,8659,31783
26710,8635,31728
26675,8613,31674
26700,8622,31679
26711,8620,31667
26640,8581,31588
26563,8540,31512
26541,8524,31487
26507,8497,31434
26410,8443,31315
26329,8402,31219
26310,8388,31177
26261,8360,31101
26144,8308,30973
26051,8271,30880
26010,8251,30833
25933,8203,30740
25802,8126,30596
25715,8073,30501
25685,8046,30456
25607,7995,30366
25471,7929,30241
25381,7890,30169
25336,7869,30136
25243,7822,30066
25116,7764,29983
25048,7738,29951
25024,7729,29935
24953,7692,29869
24852,7642,29786
24805,7619,29749
24782,7602,29722
24704,7556,29644
24608,7506,29558
24578,7493,29524
24572,7489,29501
24511,7458,29436
24443,7430,29376
24440,7432,29361
24436,7424,29327
24357,7378,29230
24272,7333,29138
24261,7325,29099
24262,7316,29056
24202,7281,28974
24141,7254,28912
24142,7254,28894
24133,7243,28857
24062,7199,28782
24007,7165,28737
24016,7160,28739
24012,7148,28717
23953,7116,28661
23915,7104,28639
23932,7122,28652
23917,7120,28619
23847,7093,28548
23805,7087,28520
23810,7101,28525
23777,7090,28485
23697,7053,28405
23663,7040,28368
23681,7048,28364
23655,7034,28321
23581,7003,28252
23555,6996,28223
23571,7000,28214
23531,6972,28154
23448,6927,28067
23414,6906,28023
23412,6895,27991
23355,6854,27914
23266,6807,27835
23230,6794,27809
23210,6786,27784
23124,6745,27699
23023,6698,27608
22989,6682,27566
22966,6664,27517
22875,6611,27410
22777,6559,27302
22751,6543,27242
22730,6530,27178
22632,6488,27069
22523,6447,26966
22477,6433,26901
22428,6406,26812
22314,6346,26683
22216,6296,26584
22189,6280,26540
22158,6261,26486
22077,6224,26406
22035,6210,26379
22084,6239,26431
22149,6274,26498
22204,6310,26584
22348,6394,26774
22610,6529,27062
22898,6672,27373
23185,6819,27708
23544,7006,28127
23971,7224,28608
24359,7419,29061
24692,7589,29483
25053,7779,29940
25439,7981,30407
25760,8148,30811
26025,8292,31169
26326,8453,31547
26645,8618,31911
26890,8744,32182
27077,8847,32399
27292,8969,32650
27507,9087,32896
27636,9160,33055
27716,9210,33176
27832,9276,33335
27941,9329,33470
27962,9331,33504
27953,9321,33506
27999,9341,33561
28040,9356,33602
27995,9332,33558
27932,9309,33506
27931,9318,33512
27921,9315,33498
27832,9271,33411
27741,9226,33326
27715,9206,33290
27676,9172,33223
27573,9110,33092
27487,9061,32990
27466,9043,32952
27424,9010,32888
27319,8953,32771
27230,8911,32679
27187,8891,32622
27101,8843,32510
26954,8764,32337
26844,8705,32202
26792,8668,32113
26701,8610,31980
26565,8536,31811
26483,8496,31703
26455,8482,31648
26387,8444,31552
26283,8387,31426
26240,8361,31365
26248,8358,31349
26218,8334,31291
26163,8307,31223
26172,8318,31234
26219,8346,31286
26217,8349,31295
26199,8349,31305
26248,8386,31391
26321,8430,31488
26338,8438,31512
26348,8438,31524
26433,8474,31607
26532,8519,31701
26566,8535,31732
26590,8552,31766
26673,8600,31860
26745,8640,31940
26738,8638,31945
26723,8633,31945
26769,8652,31993
26801,8660,32019
26762,8637,31980
26729,8627,31957
26751,8643,31986
26745,8638,31984
26668,8598,31918
26603,8569,31870
26588,8564,31863
26546,8541,31810
26450,8493,31696
26384,8465,31618
26371,8456,31589
26313,8419,31509
26197,8358,31380
26122,8320,31297
26096,8299,31254
26025,8250,31155
25907,8184,31015
25836,8149,30929
25811,8135,30879
25735,8095,30774
25616,8036,30640
25545,8004,30564
25505,7984,30514
25405,7933,30403
25272,7867,30266
25197,7830,30192
25152,7802,30134
25052,7745,30011
24935,7686,29880
24887,7661,29822
24856,7639,29787
24755,7581,29707
24637,7520,29630
24588,7493,29604
24551,7469,29570
24447,7414,29485
24346,7366,29413
24322,7355,29391
24296,7343,29354
24200,7300,29272
24107,7262,29208
24082,7254,29184
24056,7237,29132
23975,7194,29035
23921,7168,28973
23935,7173,28963
23924,7167,28928
23852,7138,28860
23810,7126,28831
23827,7135,28833
23812,7121,28792
23742,7082,28716
23712,7065,28680
23738,7070,28675
23719,7050,28622
23649,7011,28538
23625,6999,28502
23645,7005,28492
23615,6986,28430
23541,6951,28345
23518,6941,28306
23529,6942,28284
23481,6918,28218
23395,6886,28144
23361,6882,28120
23355,6885,28107
23295,6858,28044
23211,6825,27972
23188,6821,27945
23178,6816,27913
23099,6773,27822
23006,6726,27730
22985,6716,27690
22971,6707,27649
22880,6662,27562
22780,6617,27488
22753,6603,27458
22723,6581,27402
22612,6524,27286
22499,6469,27184
22460,6443,27127
22416,6409,27045
22299,6349,26909
22198,6304,26793
22166,6290,26719
22112,6261,26610
21986,6203,26463
21883,6159,26357
21853,6142,26300
21819,6118,26231
21761,6088,26166
21778,6102,26198
21905,6168,26328
22050,6244,26484
22206,6330,26680
22469,6474,26990
22832,6666,27389
23190,6848,27793
23532,7026,28210
23942,7243,28695
24401,7482,29213
24800,7691,29686
25141,7878,30135
25513,8084,30613
25895,8286,31067
26197,8443,31413
26444,8576,31700
26725,8731,32021
27006,8883,32332
27199,8989,32553
27349,9082,32744
27534,9198,32979
27701,9295,33187
27773,9336,33295
27818,9362,33372
27921,9413,33491
28015,9457,33589
28017,9456,33604
27997,9444,33604
28028,9456,33644
28042,9452,33644
27977,9407,33560
27912,9366,33479
27903,9352,33449
27866,9322,33390
27753,9259,33267
27652,9208,33172
27607,9186,33136
27540,9149,33062
27414,9081,32925
27317,9030,32815
27270,9000,32742
27187,8947,32623
27052,8873,32462
26956,8824,32351
26906,8800,32287
26803,8748,32173
26641,8669,32012
26521,8612,31895
26447,8571,31816
26324,8498,31683
26165,8407,31517
26075,8354,31411
26039,8327,31345
25962,8281,31238
25867,8234,31120
25846,8228,31079
25867,8241,31075
25841,8230,31026
25803,8216,30980
25840,8241,31020
25907,8276,31080
25921,8281,31078
25931,8289,31083
26019,8338,31172
26118,8393,31275
26142,8413,31317
26158,8433,31365
26245,8486,31478
26330,8531,31575
26336,8537,31596
26346,8553,31626
26429,8602,31721
26499,8634,31791
26489,8625,31784
26483,8624,31784
26534,8650,31833
26552,8655,31840
26490,8621,31777
26448,8602,31741
26461,8608,31749
26437,8590,31713
26352,8544,31630
26299,8519,31587
26293,8514,31579
26237,8475,31508
26119,8406,31383
26039,8355,31298
26003,8320,31245
25918,8259,31130
25794,8187,30972
25724,8149,30870
25692,8130,30804
25604,8081,30683
25477,8015,30536
25400,7974,30445
25346,7942,30371
25229,7880,30229
25088,7815,30068
25010,7787,29973
24954,7764,29894
24835,7706,29762
24702,7643,29647
24640,7615,29610
24594,7588,29579
24478,7527,29497
24348,7467,29420
24289,7440,29387
24241,7411,29341
24132,7351,29244
24036,7299,29160
24017,7283,29119
23994,7266,29060
23902,7221,28960
23822,7187,28887
23811,7182,28853
23786,7166,28791
23697,7121,28687
23625,7087,28616
23612,7077,28582
23578,7052,28516
23491,7005,28418
23440,6983,28365
23448,6990,28351
23423,6975,28293
23352,6942,28199
23326,6935,28154
23342,6945,28145
23302,6924,28091
23216,6882,28012
23191,6870,27987
23222,6881,27990
23204,6867,27945
23142,6839,27884
23129,6839,27873
23147,6849,27875
23103,6829,27822
23025,6795,27755
23003,6787,27735
23002,6784,27717
22942,6746,27642
22863,6702,27559
22848,6690,27529
22850,6682,27504
22786,6642,27431
22715,6608,27366
22712,6613,27357
22707,6618,27338
22615,6584,27252
22511,6549,27163
22480,6544,27117
22449,6526,27051
22346,6467,26935
22251,6413,26836
22224,6391,26780
22186,6361,26702
22081,6306,26584
21990,6264,26494
21960,6249,26445
21904,6216,26360
21782,6156,26233
21685,6114,26140
21649,6097,26074
21588,6061,25962
21481,6005,25821
21416,5972,25731
21410,5960,25684
21371,5932,25607
21304,5900,25532
21311,5909,25545
21405,5955,25637
21503,6002,25747
21618,6063,25906
21850,6184,26188
22183,6351,26558
22516,6522,26944
22858,6707,27374
23280,6936,27893
23744,7184,28443
24150,7403,28947
24517,7609,29433
24923,7840,29953
25322,8065,30448
25631,8242,30856
25904,8405,31231
26227,8594,31625
26545,8769,31974
26774,8890,32220
26974,8997,32442
27213,9126,32707
27419,9235,32942
27523,9292,33083
27598,9336,33196
27715,9395,33333
27801,9429,33419
27802,9419,33415
27810,9414,33413
27873,9435,33457
27898,9437,33464
27840,9403,33408
27787,9377,33374
27778,9374,33381
27725,9344,33336
27606,9282,33229
27523,9239,33159
27493,9217,33127
27427,9169,33040
27314,9102,32905
27252,9066,32821
27246,9058,32778
27192,9023,32686
27084,8966,32555
27019,8930,32472
26985,8902,32413
26883,8838,32290
26729,8753,32126
26624,8696,32006
26548,8650,31901
26414,8574,31732
26259,8494,31545
26177,8450,31431
26134,8420,31346
26041,8366,31212
25940,8319,31090
25914,8316,31057
25907,8320,31041
25835,8290,30965
25763,8263,30902
25780,8277,30928
25819,8294,30969
25800,8282,30960
25799,8284,30975
25889,8333,31065
25990,8383,31153
26028,8405,31183
26068,8436,31233
26165,8498,31342
26239,8545,31423
26237,8554,31436
26245,8571,31469
26308,8608,31544
26347,8623,31578
26330,8610,31562
26345,8616,31585
26418,8649,31656
26451,8656,31681
26425,8635,31656
26429,8637,31671
26470,8658,31723
26450,8648,31715
26368,8608,31650
26325,8590,31617
26321,8581,31600
26255,8534,31511
26140,8467,31379
26078,8429,31298
26051,8399,31236
25960,8334,31109
25834,8264,30964
25767,8233,30888
25727,8215,30828
25629,8165,30701
25509,8105,30561
25447,8075,30486
25399,8045,30414
25282,7978,30272
25152,7908,30125
25093,7876,30049
25047,7849,29991
24934,7792,29894
24820,7742,29819
24778,7729,29798
24735,7713,29764
24619,7663,29688
24507,7615,29627
24463,7592,29602
24407,7555,29548
24281,7487,29449
24178,7437,29376
24152,7421,29342
24120,7397,29281
24033,7352,29189
23973,7326,29136
23976,7327,29119
23946,7307,29056
23855,7262,28954
23799,7240,28897
23794,7238,28876
23746,7208,28808
23650,7155,28702
23611,7131,28641
23630,7134,28613
23603,7113,28545
23530,7076,28461
23507,7068,28433
23522,7072,28432
23480,7045,28381
23402,7005,28311
23381,6995,28289
23388,6995,28274
23334,6965,28204
23263,6935,28139
23265,6940,28136
23289,6950,28140
23241,6924,28090
23174,6895,28038
23175,6900,28037
23182,6905,28027
23105,6870,27957
23017,6833,27888
23008,6829,27871
23008,6822,27842
22937,6782,27758
22868,6750,27691
22876,6757,27679
22882,6761,27649
22813,6732,27572
22743,6709,27515
22730,6709,27498
22694,6690,27442
22583,6632,27327
22485,6585,27233
22453,6563,27176
22402,6525,27081
22296,6463,26949
22219,6421,26858
22196,6402,26807
22135,6363,26712
22019,6305,26582
21943,6272,26499
21919,6259,26452
21862,6226,26367
21778,6183,26277
21770,6180,26272
21847,6216,26339
21925,6252,26417
22020,6306,26547
22225,6421,26799
22514,6574,27133
22791,6720,27475
23073,6875,27854
23440,7079,28316
23852,7302,28800
24210,7495,29237
24546,7679,29672
24943,7892,30160
25347,8105,30639
25672,8274,31036
25973,8435,31403
26325,8623,31803
26659,8798,32173
26889,8924,32441
27080,9036,32677
27312,9163,32938
27516,9266,33148
27623,9318,33261
27708,9365,33364
27834,9432,33506
27929,9476,33606
27941,9475,33629
27952,9478,33659
28009,9504,33729
28021,9503,33743
27946,9464,33672
27880,9438,33618
27861,9429,33600
27805,9391,33525
27690,9323,33392
27612,9278,33302
27584,9253,33256
27510,9201,33157
27387,9129,33013
27309,9084,32917
27271,9054,32850
27172,8988,32725
27021,8900,32564
26921,8842,32455
26860,8800,32367
26741,8726,32217
26583,8639,32039
26481,8588,31920
26408,8548,31818
26277,8480,31651
26127,8408,31476
26047,8371,31381
25996,8341,31305
25892,8280,31168
25788,8224,31039
25770,8217,31004
25779,8226,30994
25727,8209,30929
25680,8199,30881
25720,8230,30919
25772,8260,30966
25758,8255,30957
25751,8256,30964
25824,8295,31039
25901,8333,31106
25920,8345,31118
25956,8371,31163
26064,8433,31282
26151,8480,31382
26164,8490,31427
26190,8511,31501
26273,8556,31623
26329,8581,31698
26325,8579,31712
26349,8598,31760
26424,8637,31845
26445,8642,31867
26396,8616,31831
26385,8614,31833
26418,8631,31865
26385,8612,31819
26286,8563,31709
26229,8534,31642
26211,8516,31601
26131,8468,31499
26011,8408,31371
25950,8379,31306
25922,8358,31265
25830,8301,31161
25700,8233,31034
25624,8196,30959
25568,8158,30889
25447,8083,30741
25310,8004,30571
25246,7965,30470
25199,7931,30379
25077,7862,30220
24943,7796,30066
24883,7773,29995
24825,7749,29939
24686,7684,29835
24546,7617,29739
24488,7588,29689
24431,7559,29621
24300,7499,29501
24180,7451,29411
24140,7439,29380
24090,7415,29328
23973,7360,29232
23875,7316,29163
23844,7303,29134
23787,7272,29067
23664,7214,28952
23578,7177,28872
23560,7163,28828
23513,7124,28745
23420,7063,28639
23379,7034,28590
23393,7034,28575
23358,7007,28510
23269,6957,28415
23231,6937,28373
23246,6938,28356
23211,6910,28282
23138,6869,28183
23128,6862,28145
23163,6876,28138
23143,6862,28087
23085,6840,28026
23084,6849,28023
23106,6865,28039
23062,6845,28008
22988,6818,27969
22974,6818,27973
22977,6815,27959
22911,6771,27875
22833,6725,27788
22829,6716,27759
22837,6715,27725
22774,6682,27636
22708,6656,27564
22719,6669,27552
22729,6680,27528
22658,6655,27445
22577,6627,27368
22560,6621,27330
22531,6598,27260
22428,6538,27135
22337,6485,27037
22313,6462,26985
22270,6427,26907
22158,6368,26793
22069,6325,26723
22048,6311,26695
22001,6281,26627
21897,6234,26531
21836,6216,26494
21850,6229,26513
21859,6236,26518
21867,6246,26538
21980,6313,26665
22209,6427,26889
22447,6542,27130
22690,6664,27403
23025,6835,27775
23427,7036,28207
23785,7214,28614
24108,7386,29020
24491,7595,29486
24901,7816,29962
25237,7995,30373
25524,8155,30759
25852,8338,31183
26180,8513,31575
26417,8640,31855
26614,8753,32094
26861,8892,32378
27097,9018,32639
27233,9090,32795
27334,9150,32918
27485,9237,33090
27613,9307,33233
27638,9322,33276
27642,9328,33299
27708,9362,33367
27761,9384,33398
27732,9364,33343
27698,9351,33291
27719,9366,33298
27710,9357,33276
27613,9304,33183
27521,9257,33108
27491,9236,33081
27433,9192,33009
27307,9115,32875
27212,9062,32781
27178,9041,32736
27105,8996,32638
26978,8925,32484
26891,8880,32377
26849,8856,32314
26748,8799,32188
26581,8714,32006
26455,8653,31868
26372,8605,31758
26233,8521,31584
26051,8419,31380
25934,8354,31247
25864,8311,31154
25747,8245,31010
25614,8179,30856
25563,8159,30786
25560,8155,30756
25507,8122,30678
25442,8089,30610
25456,8100,30633
25501,8120,30675
25483,8106,30652
25461,8097,30637
25525,8133,30711
25606,8172,30793
25620,8178,30805
25643,8195,30835
25752,8260,30950
25863,8324,31062
25893,8349,31103
25919,8378,31152
26014,8436,31258
26090,8475,31332
26083,8473,31326
26084,8481,31335
26150,8518,31400
26185,8535,31423
26140,8514,31372
26115,8507,31352
26152,8525,31385
26147,8515,31366
26070,8474,31289
26022,8454,31251
26021,8449,31252
25962,8408,31188
25839,8339,31072
25767,8302,31006
25752,8289,30976
25680,8246,30880
25556,8186,30744
25484,8158,30664
25452,8141,30609
25356,8085,30483
25221,8013,30320
25145,7972,30216
25100,7940,30143
24992,7874,30033
24862,7803,29930
24802,7767,29896
24765,7739,29864
24664,7677,29767
24547,7613,29667
24498,7589,29622
24457,7568,29569
24336,7508,29451
24204,7448,29334
24149,7427,29271
24104,7406,29199
23991,7353,29080
23885,7310,28989
23861,7303,28953
23833,7288,28889
23729,7235,28768
23629,7189,28666
23599,7171,28607
23559,7138,28519
23460,7077,28391
23389,7037,28310
23387,7035,28283
23357,7015,28224
23266,6969,28133
23210,6948,28094
23214,6952,28095
23182,6928,28049
23103,6875,27965
23075,6851,27926
23101,6855,27914
23076,6835,27855
23002,6800,27778
22982,6799,27756
23005,6818,27759
22974,6805,27717
22904,6775,27659
22892,6772,27649
22912,6777,27646
22866,6747,27584
22783,6706,27507
22761,6699,27486
22768,6703,27474
22711,6675,27410
22633,6643,27351
22624,6648,27355
22633,6653,27350
22560,6613,27268
22465,6562,27177
22444,6540,27137
22430,6516,27087
22340,6463,26979
22254,6420,26880
22250,6417,26834
22238,6405,26766
22141,6358,26643
22042,6320,26538
22010,6311,26476
21964,6291,26396
21844,6240,26277
21738,6200,26188
21700,6187,26140
21643,6158,26056
21528,6104,25935
21457,6075,25870
21471,6080,25865
21486,6082,25853
21492,6089,25866
21597,6153,26003
21821,6271,26248
22052,6388,26509
22274,6509,26805
22593,6681,27206
23001,6888,27668
23376,7072,28104
23720,7247,28535
24125,7462,29029
24569,7693,29546
24946,7886,29999
25268,8056,30415
25623,8244,30862
25979,8426,31284
26243,8560,31594
26457,8675,31846
26717,8818,32134
26976,8956,32408
27143,9045,32591
27275,9124,32745
27457,9230,32946
27617,9317,33115
27667,9344,33173
27683,9358,33205
27756,9399,33288
27819,9427,33348
27794,9409,33325
27760,9394,33308
27787,9410,33351
27794,9411,33364
27714,9366,33298
27631,9326,33234
27610,9314,33213
27570,9284,33154
27461,9221,33027
27378,9178,32931
27365,9168,32896
27323,9136,32822
27218,9078,32690
27146,9045,32600
27121,9031,32554
27042,8982,32447
26900,8902,32284
26802,8850,32171
26753,8819,32100
26651,8757,31972
26499,8676,31803
26403,8627,31691
26356,8602,31623
26257,8546,31499
26123,8473,31335
26052,8433,31233
26026,8415,31173
25954,8373,31068
25869,8333,30965
25868,8340,30956
25911,8363,30985
25899,8354,30965
25870,8347,30955
25915,8382,31029
25983,8417,31108
25986,8416,31113
25986,8419,31119
26069,8467,31205
26158,8515,31296
26169,8526,31321
26177,8539,31355
26257,8585,31456
26327,8618,31536
26311,8610,31538
26294,8606,31546
26344,8631,31611
26377,8640,31644
26333,8611,31602
26308,8599,31584
26353,8627,31629
26368,8638,31634
26310,8616,31573
26270,8608,31543
26278,8616,31554
26235,8588,31502
26121,8524,31388
26049,8487,31322
26038,8477,31302
25979,8438,31225
25865,8377,31103
25808,8345,31035
25803,8333,31001
25734,8284,30898
25605,8215,30753
25523,8174,30661
25473,8143,30590
25359,8077,30451
25209,7999,30288
25122,7956,30191
25067,7925,30125
24949,7861,30021
24813,7795,29927
24750,7769,29902
24715,7751,29879
24618,7699,29796
24512,7650,29715
24480,7641,29691
24451,7630,29651
24337,7574,29546
24215,7517,29448
24168,7494,29399
24125,7465,29324
24009,7404,29189
23904,7355,29075
23881,7341,29018
23861,7319,28949
23776,7270,28844
23706,7236,28778
23704,7233,28763
23679,7218,28720
23587,7178,28642
23520,7155,28603
23522,7160,28601
23494,7141,28551
23404,7092,28457
23356,7067,28409
23371,7070,28397
23347,7053,28341
23272,7020,28263
23251,7018,28240
23286,7038,28246
23265,7025,28199
23192,6993,28124
23172,6989,28099
23193,6998,28094
23150,6970,28033
23059,6921,27949
23023,6901,27914
23018,6889,27891
22955,6846,27815
22867,6799,27733
22847,6791,27711
22859,6795,27696
22808,6769,27627
22737,6742,27564
22730,6750,27558
22727,6754,27542
22638,6714,27459
22529,6666,27370
22489,6650,27325
22454,6631,27260
22350,6578,27132
22252,6527,27011
22232,6509,26937
22212,6486,26854
22118,6434,26732
22029,6396,26635
22011,6390,26588
21978,6370,26519
21873,6319,26413
21799,6290,26356
21822,6303,26372
21859,6319,26396
21881,6331,26435
21992,6393,26584
22227,6513,26838
22479,6637,27111
22716,6766,27411
23028,6941,27804
23414,7147,28255
23763,7325,28665
24066,7482,29052
24424,7668,29489
24828,7873,29945
25167,8039,30342
25453,8182,30710
25787,8355,31119
26141,8541,31524
26412,8689,31837
26622,8814,32097
26867,8958,32394
27113,9095,32678
27270,9180,32861
27375,9241,32997
27518,9322,33176
27654,9390,33333
27700,9404,33387
27718,9406,33410
27795,9442,33487
27861,9471,33546
27824,9454,33510
27763,9432,33463
27766,9441,33478
27753,9434,33469
27649,9379,33382
27545,9327,33302
27517,9309,33280
27481,9277,33226
27371,9213,33100
27278,9167,32998
27256,9156,32959
27210,9127,32889
27096,9066,32760
27010,9024,32663
26983,9007,32609
26913,8960,32498
26770,8879,32322
26660,8822,32191
26610,8793,32109
26519,8738,31977
26378,8663,31809
26294,8623,31711
26269,8609,31670
26190,8565,31581
26065,8502,31461
26001,8470,31402
25988,8454,31377
25929,8413,31295
25842,8368,31196
25825,8364,31172
25853,8376,31182
25837,8362,31143
25816,8347,31111
25876,8376,31171
25965,8419,31264
25987,8432,31301
25995,8448,31340
26076,8504,31459
26167,8555,31581
26178,8563,31618
26178,8569,31640
26255,8615,31726
26335,8656,31801
26333,8651,31801
26327,8649,31812
26391,8682,31887
26439,8701,31937
26401,8683,31909
26364,8672,31891
26387,8687,31927
26386,8679,31926
26309,8633,31848
26254,8603,31792
26266,8602,31787
26245,8583,31738
26152,8535,31636
26085,8509,31579
26074,8503,31570
26018,8462,31501
25896,8387,31374
25814,8338,31289
25780,8311,31237
25695,8256,31117
25560,8181,30952
25484,8142,30851
25461,8127,30797
25381,8085,30685
25250,8030,30544
25173,8010,30472
25136,8002,30438
25039,7956,30358
24908,7895,30265
24838,7860,30220
24796,7830,30179
24692,7765,30082
24574,7697,29981
24528,7668,29938
24505,7648,29900
24415,7599,29812
24317,7559,29734
24292,7563,29715
24272,7565,29680
24170,7524,29578
24064,7481,29484
24042,7472,29443
24027,7458,29385
23937,7410,29278
23857,7370,29194
23855,7362,29159
23839,7346,29110
23748,7302,29031
23673,7273,28983
23670,7273,28973
23647,7256,28926
23558,7210,28837
23497,7181,28788
23503,7174,28772
23482,7142,28709
23406,7092,28614
23371,7077,28575
23398,7094,28576
23382,7088,28533
23317,7059,28461
23303,7057,28438
23337,7075,28443
23307,7059,28396
23221,7018,28317
23190,6998,28283
23203,6989,28263
23153,6948,28188
23061,6896,28099
23030,6878,28064
23029,6874,28039
22963,6840,27960
22869,6801,27878
22841,6797,27861
22834,6797,27845
22753,6760,27766
22650,6717,27681
22616,6703,27645
22593,6688,27598
22500,6637,27489
22405,6589,27386
22383,6576,27338
22357,6559,27276
22247,6506,27151
22137,6458,27036
22107,6447,26972
22067,6426,26890
21945,6368,26760
21833,6318,26650
21792,6295,26579
21738,6258,26481
21623,6192,26343
21532,6144,26249
21513,6132,26207
21477,6112,26143
21400,6081,26074
21391,6090,26089
21487,6140,26186
21591,6185,26287
21683,6229,26409
21868,6323,26640
22151,6461,26959
22421,6593,27277
22670,6725,27610
23001,6905,28031
23395,7112,28495
23734,7288,28911
24018,7440,29307
24348,7618,29751
24703,7800,30194
24982,7940,30561
25212,8061,30894
25489,8212,31257
25778,8364,31590
25983,8470,31810
26148,8562,31981
26360,8679,32194
26563,8786,32384
26667,8838,32465
26732,8873,32521
26843,8934,32635
26932,8980,32726
26919,8975,32715
26882,8958,32687
26902,8966,32716
26905,8953,32713
26816,8894,32621
26727,8843,32537
26708,8829,32512
26678,8805,32460
26576,8749,32341
26485,8711,32241
26453,8702,32194
26391,8672,32109
26259,8608,31964
26154,8561,31849
26112,8538,31777
26033,8487,31655
25888,8405,31481
25777,8345,31355
25716,8305,31270
25601,8233,31123
25433,8140,30924
25325,8080,30789
25275,8047,30710
25175,7990,30588
25037,7922,30443
24969,7892,30373
24955,7884,30358
24891,7848,30317
24797,7804,30285
24772,7798,30321
24786,7808,30374
24745,7788,30377
24688,7765,30381
24711,7781,30441
24765,7808,30501
24755,7803,30505
24739,7799,30519
24812,7840,30598
24905,7886,30677
24923,7893,30703
24940,7906,30745
25034,7960,30844
25120,8005,30926
25112,8005,30945
25093,8004,30971
25144,8030,31036
25181,8038,31065
25135,8009,31026
25102,7997,30992
25144,8021,30996
25172,8031,30955
25126,8008,30844
25096,7999,30767
25124,8016,30753
25116,8010,30696
25036,7975,30586
24983,7960,30525
24980,7960,30514
24922,7921,30458
24793,7845,30359
24704,7790,30302
24663,7757,30271
24569,7698,30188
24430,7626,30079
24350,7589,30021
24321,7573,29976
24229,7523,29865
24086,7458,29723
23998,7428,29630
23948,7409,29550
23833,7351,29411
23681,7278,29262
23596,7236,29173
23546,7202,29093
23443,7136,28961
23326,7069,28833
23284,7042,28768
23262,7022,28708
23172,6972,28596
23074,6927,28494
23053,6924,28454
23039,6921,28408
22943,6880,28305
22839,6839,28209
22813,6832,28163
22791,6820,28097
22696,6772,27979
22604,6732,27885
22584,6723,27843
22563,6706,27782
22483,6663,27679
22425,6636,27610
22439,6642,27585
22424,6628,27530
22333,6584,27443
22268,6556,27401
22264,6553,27395
22229,6524,27342
22140,6474,27250
22102,6456,27210
22128,6464,27210
22114,6447,27169
22055,6413,27110
22054,6413,27109
22106,6435,27135
22097,6426,27110
22031,6398,27061
22016,6399,27058
22042,6412,27064
22003,6388,27013
21921,6348,26949
21903,6341,26943
21924,6348,26949
21887,6326,26901
21829,6303,26855
21841,6315,26873
21874,6330,26898
21833,6311,26865
21775,6290,26834
21787,6304,26861
21801,6310,26875
21734,6272,26819
21658,6233,26762
21665,6232,26759
21686,6232,26748
21639,6202,26689
21603,6180,26651
21645,6193,26663
21676,6198,26648
21625,6170,26578
21573,6148,26521
21582,6154,26500
21576,6147,26442
21505,6108,26334
21462,6086,26266
21495,6097,26253
21505,6093,26216
21460,6069,26156
21459,6070,26156
21527,6099,26208
21566,6112,26235
21570,6115,26266
21657,6163,26391
21836,6248,26591
22004,6326,26791
22168,6411,27020
22429,6551,27353
22773,6726,27754
23083,6881,28135
23369,7033,28522
23731,7231,28980
24137,7448,29458
24485,7633,29882
24804,7805,30298
25182,8009,30767
25570,8213,31231
25871,8371,31609
26126,8514,31939
26412,8679,32293
26676,8825,32607
26840,8910,32798
26970,8978,32945
27152,9071,33136
27316,9151,33297
27377,9178,33355
27411,9199,33396
27497,9248,33487
27553,9275,33539
27503,9248,33495
27436,9211,33440
27426,9198,33429
27395,9170,33380
27284,9107,33258
27182,9058,33155
27144,9041,33104
27075,9003,33009
26935,8930,32848
26821,8873,32718
26764,8837,32632
26669,8772,32484
26512,8677,32272
26397,8609,32108
26344,8568,31993
26242,8498,31816
26081,8404,31588
25967,8340,31416
25895,8290,31278
25756,8200,31071
25561,8088,30825
25426,8008,30640
25340,7947,30489
25202,7863,30296
25035,7778,30113
24933,7733,30014
24861,7698,29940
24727,7630,29817
24573,7560,29700
24501,7533,29648
24470,7517,29599
24388,7473,29503
24313,7438,29431
24334,7451,29436
24382,7473,29452
24363,7465,29429
24348,7464,29430
24424,7507,29500
24513,7552,29570
24534,7564,29600
24566,7588,29660
24677,7651,29784
24782,7706,29897
24811,7727,29968
24844,7757,30058
24941,7817,30188
25011,7857,30280
25005,7860,30317
25018,7876,30380
25092,7915,30471
25130,7928,30507
25097,7908,30493
25095,7908,30520
25152,7933,30580
25161,7931,30586
25103,7903,30547
25082,7900,30541
25099,7912,30547
25049,7887,30484
24934,7836,30381
24869,7812,30327
24852,7803,30292
24779,7760,30195
24666,7700,30076
24605,7671,30008
24564,7650,29948
24450,7593,29830
24298,7523,29702
24210,7485,29629
24149,7451,29560
24025,7382,29440
23887,7316,29326
23827,7292,29276
23786,7271,29223
23670,7209,29107
23541,7141,28988
23490,7108,28920
23445,7072,28840
23329,7003,28706
23223,6946,28592
23204,6932,28541
23183,6916,28483
23080,6866,28382
22975,6823,28295
22940,6812,28249
22895,6791,28172
22783,6739,28046
22695,6702,27958
22684,6699,27923
22658,6685,27861
22570,6646,27762
22510,6625,27707
22515,6628,27694
22484,6607,27633
22390,6562,27535
22336,6541,27487
22337,6541,27473
22294,6511,27409
22205,6459,27317
22174,6436,27280
22199,6437,27270
22171,6412,27212
22100,6376,27141
22093,6374,27132
22129,6387,27143
22100,6368,27099
22031,6338,27037
22026,6338,27026
22053,6344,27021
22011,6314,26962
21941,6278,26901
21938,6280,26900
21962,6290,26898
21920,6267,26838
21860,6241,26782
21871,6248,26782
21884,6254,26764
21807,6220,26670
21713,6182,26580
21695,6177,26550
21680,6169,26510
21585,6124,26413
21490,6087,26332
21473,6086,26300
21444,6073,26237
21331,6020,26116
21226,5974,26009
21189,5959,25941
21125,5925,25836
20983,5859,25686
20873,5808,25576
20842,5785,25507
20790,5745,25402
20680,5685,25270
20607,5649,25191
20592,5639,25147
20535,5603,25051
20423,5549,24922
20367,5527,24850
20382,5533,24824
20370,5521,24775
20342,5505,24737
20416,5540,24807
20592,5620,24970
20756,5698,25147
20920,5787,25365
21184,5929,25692
21520,6100,26081
21817,6250,26457
22097,6398,26855
22452,6585,27328
22844,6783,27813
23173,6950,28243
23481,7115,28669
23855,7318,29150
24231,7516,29618
24506,7660,30012
24738,7792,30381
25020,7953,30770
25281,8097,31104
25436,8189,31327
25568,8266,31500
25765,8360,31689
25938,8434,31822
26006,8461,31852
26058,8488,31878
26162,8538,31954
26223,8561,31990
26182,8537,31942
26136,8517,31902
26145,8523,31905
26121,8506,31858
26027,8453,31739
25960,8418,31658
25954,8410,31633
25910,8384,31564
25802,8337,31443
25730,8314,31373
25713,8310,31355
25650,8272,31285
25531,8204,31160
25461,8165,31080
25441,8147,31038
25360,8093,30931
25230,8015,30771
25158,7967,30660
25131,7932,30579
25047,7868,30442
24926,7797,30293
24858,7764,30223
24811,7743,30186
24693,7688,30101
24553,7627,30013
24496,7605,29992
24482,7592,29986
24419,7550,29937
24357,7516,29907
24384,7530,29953
24434,7554,30007
24416,7544,30004
24398,7541,30007
24465,7580,30065
24545,7618,30115
24555,7623,30120
24574,7637,30152
24681,7688,30246
24784,7732,30327
24810,7744,30366
24843,7771,30432
24942,7829,30538
25011,7866,30602
24999,7863,30610
25001,7867,30642
25062,7889,30703
25090,7885,30713
25048,7852,30673
25036,7839,30667
25083,7851,30687
25084,7836,30648
25016,7798,30568
24984,7788,30533
24994,7796,30517
24938,7769,30433
24818,7713,30308
24747,7682,30227
24721,7664,30161
24632,7607,30028
24495,7530,29864
24413,7484,29746
24362,7451,29637
24241,7385,29471
24082,7308,29292
23987,7263,29168
23923,7222,29051
23798,7148,28878
23657,7075,28704
23592,7045,28599
23548,7025,28511
23431,6971,28377
23304,6919,28256
23255,6907,28197
23216,6892,28128
23097,6837,28000
22974,6781,27885
22934,6761,27826
22902,6739,27761
22800,6689,27659
22711,6651,27588
22699,6648,27571
22677,6635,27528
22582,6595,27440
22500,6568,27381
22484,6569,27362
22449,6552,27308
22351,6504,27218
22287,6473,27170
22291,6466,27154
22263,6441,27092
22175,6396,26997
22128,6378,26955
22138,6385,26955
22102,6363,26911
22014,6323,26842
21981,6313,26829
22000,6321,26845
21968,6301,26812
21892,6266,26757
21879,6260,26752
21914,6266,26766
21890,6243,26724
21826,6213,26666
21818,6220,26661
21832,6234,26661
21770,6211,26599
21671,6176,26523
21634,6168,26495
21615,6154,26459
21524,6098,26356
21421,6041,26254
21400,6024,26213
21396,6009,26170
21311,5958,26069
21215,5913,25976
21197,5906,25937
21177,5894,25877
21067,5841,25752
20951,5789,25636
20915,5771,25566
20879,5747,25477
20770,5690,25348
20676,5649,25252
20658,5643,25209
20625,5624,25140
20526,5576,25039
20456,5546,24983
20470,5549,24976
20483,5544,24951
20464,5530,24923
20520,5563,24990
20687,5645,25149
20868,5729,25320
21049,5819,25519
21324,5960,25826
21684,6137,26215
22010,6295,26592
22294,6439,26968
22638,6618,27410
23034,6817,27883
23370,6984,28301
23658,7132,28698
23999,7310,29145
24373,7498,29593
24665,7640,29961
24893,7759,30288
25164,7903,30637
25445,8044,30962
25631,8133,31200
25762,8200,31400
25933,8289,31614
26098,8369,31773
26168,8398,31811
26206,8417,31813
26303,8470,31873
26388,8514,31920
26368,8511,31874
26319,8502,31819
26328,8521,31827
26321,8523,31814
26228,8479,31723
26141,8440,31642
26132,8432,31621
26116,8411,31574
26028,8360,31458
25950,8324,31364
25936,8320,31329
25893,8291,31257
25773,8226,31128
25676,8179,31041
25639,8158,31002
25569,8116,30915
25442,8049,30777
25355,8008,30687
25322,7990,30640
25238,7942,30535
25098,7869,30382
25011,7825,30284
24974,7799,30234
24877,7738,30148
24730,7654,30048
24652,7605,30008
24636,7582,30002
24575,7539,29954
24487,7493,29899
24468,7488,29904
24490,7499,29928
24456,7484,29905
24403,7469,29881
24425,7491,29913
24481,7515,29946
24480,7503,29923
24474,7494,29907
24550,7530,29959
24644,7572,30014
24667,7580,30017
24680,7591,30038
24762,7639,30119
24838,7682,30187
24830,7682,30200
24818,7683,30220
24880,7716,30281
24935,7738,30320
24911,7723,30308
24892,7720,30316
24935,7752,30364
24945,7765,30368
24872,7736,30314
24811,7713,30280
24809,7709,30272
24779,7683,30212
24685,7630,30099
24620,7598,30024
24613,7593,29990
24566,7564,29907
24464,7513,29789
24407,7492,29724
24395,7489,29686
24324,7450,29587
24196,7383,29452
24122,7343,29369
24096,7320,29310
24007,7263,29195
23864,7187,29049
23776,7141,28949
23722,7107,28860
23603,7036,28714
23451,6954,28554
23371,6909,28447
23331,6879,28347
23232,6820,28196
23112,6759,28055
23060,6738,27987
23029,6724,27925
22926,6675,27805
22806,6623,27688
22760,6607,27633
22723,6588,27573
22618,6532,27463
22527,6485,27379
22525,6480,27362
22518,6475,27328
22425,6443,27234
22329,6418,27152
22309,6420,27115
22289,6407,27060
22209,6360,26970
22153,6328,26917
22173,6330,26912
22172,6320,26876
22105,6286,26800
22066,6269,26757
22092,6278,26745
22088,6266,26690
22025,6228,26601
21998,6213,26567
22029,6225,26575
22016,6215,26542
21947,6186,26487
21925,6186,26485
21949,6201,26504
21916,6180,26464
21834,6138,26393
21810,6127,26370
21832,6135,26363
21792,6112,26297
21708,6076,26216
21681,6067,26186
21681,6064,26159
21613,6025,26071
21508,5972,25967
21461,5948,25907
21437,5927,25846
21351,5875,25738
21252,5822,25639
21224,5808,25598
21207,5798,25549
21110,5752,25437
20999,5706,25330
20964,5697,25279
20929,5683,25214
20817,5631,25096
20717,5589,25005
20708,5590,24979
20705,5590,24942
20628,5559,24866
20563,5539,24827
20587,5561,24857
20622,5580,24885
20628,5583,24910
20710,5626,25029
20922,5725,25256
21163,5834,25509
21388,5942,25781
21680,6089,26143
22058,6272,26575
22414,6439,26981
22720,6583,27362
23075,6758,27802
23486,6960,28278
23844,7134,28699
24139,7287,29080
24472,7465,29500
24834,7654,29924
25113,7798,30268
25316,7910,30561
25552,8040,30874
25806,8169,31166
25973,8251,31356
26076,8307,31480
26213,8383,31623
26352,8449,31744
26398,8464,31762
26390,8461,31738
26426,8482,31759
26459,8493,31763
26406,8455,31674
26333,8414,31572
26333,8414,31544
26338,8415,31520
26258,8373,31418
26160,8329,31315
26134,8318,31281
26107,8298,31235
26002,8241,31120
25908,8195,31029
25896,8189,31013
25875,8176,30976
25778,8128,30867
25685,8083,30769
25653,8062,30724
25597,8021,30641
25471,7943,30484
25371,7883,30352
25339,7854,30279
25275,7808,30187
25150,7738,30076
25060,7690,30017
25024,7667,29995
24943,7617,29926
24809,7545,29824
24739,7507,29772
24741,7501,29749
24703,7475,29684
24620,7439,29607
24604,7441,29594
24647,7462,29611
24643,7453,29591
24609,7436,29576
24644,7461,29626
24728,7504,29697
24758,7520,29727
24764,7532,29764
24835,7578,29866
24926,7628,29972
24946,7640,30013
24945,7644,30041
25016,7683,30120
25103,7725,30192
25112,7729,30199
25108,7735,30206
25171,7775,30260
25223,7802,30291
25184,7782,30258
25137,7760,30230
25163,7770,30247
25186,7776,30241
25130,7750,30181
25072,7731,30132
25075,7738,30119
25051,7719,30067
24949,7660,29960
24867,7611,29877
24857,7591,29830
24823,7552,29741
24720,7487,29612
24639,7446,29525
24619,7435,29476
24563,7400,29380
24444,7338,29250
24370,7304,29174
24357,7295,29134
24296,7255,29046
24181,7194,28932
24116,7162,28868
24096,7146,28824
24017,7097,28722
23891,7029,28592
23829,6991,28509
23816,6973,28447
23745,6928,28338
23638,6876,28222
23591,6861,28168
23576,6856,28121
23500,6818,28016
23398,6773,27911
23370,6764,27870
23373,6764,27839
23314,6732,27754
23242,6699,27673
23242,6700,27650
23250,6696,27616
23184,6655,27523
23115,6619,27444
23128,6623,27428
23141,6627,27407
23072,6592,27332
22999,6559,27271
23003,6561,27260
23001,6554,27222
22925,6511,27127
22867,6482,27062
22888,6491,27055
22895,6491,27025
22838,6463,26956
22805,6451,26921
22839,6467,26927
22845,6463,26896
22782,6428,26826
22755,6415,26809
22797,6430,26833
22799,6423,26808
22738,6393,26746
22719,6386,26729
22752,6397,26737
22730,6377,26690
22656,6336,26609
22633,6326,26574
22654,6335,26561
22610,6314,26493
22511,6273,26401
22467,6257,26361
22465,6247,26336
22404,6204,26249
22312,6150,26143
22284,6133,26093
22283,6130,26055
22217,6100,25969
22122,6065,25887
22090,6060,25861
22074,6053,25828
21986,6007,25728
21888,5964,25626
21871,5959,25582
21865,5954,25535
21774,5911,25435
21671,5866,25348
21648,5855,25316
21629,5839,25263
21542,5793,25163
21487,5767,25104
21547,5789,25127
21640,5819,25168
21700,5840,25217
21812,5896,25356
22032,6004,25599
22261,6114,25854
22446,6207,26099
22691,6331,26418
23033,6495,26804
23363,6652,27167
23643,6798,27510
23969,6977,27910
24353,7179,28343
24680,7345,28717
24931,7475,29041
25211,7624,29393
25525,7783,29749
25767,7901,30031
25942,7988,30265
26152,8093,30522
26381,8203,30761
26521,8268,30894
26591,8308,30962
26698,8367,31056
26817,8420,31136
26852,8423,31122
26843,8408,31069
26887,8420,31068
26938,8431,31071
26904,8402,31000
26836,8366,30917
26824,8362,30902
26813,8356,30878
26725,8310,30769
26634,8266,30654
26624,8265,30614
26620,8262,30571
26539,8221,30453
26453,8182,30340
26438,8175,30293
26409,8153,30227
26299,8090,30092
26197,8035,29972
26167,8011,29913
26121,7972,29832
26000,7904,29707
25893,7852,29629
25849,7829,29608
25779,7786,29555
25644,7715,29465
25550,7671,29422
25528,7657,29414
25479,7625,29362
25390,7578,29283
25362,7566,29259
25401,7582,29273
25401,7573,29240
25357,7546,29178
25371,7552,29168
25435,7579,29188
25442,7575,29168
25408,7555,29142
25444,7573,29183
25535,7614,29253
25567,7622,29274
25563,7616,29284
25620,7644,29349
25707,7686,29420
25726,7695,29432
25714,7696,29437
25766,7730,29501
25839,7768,29567
25841,7769,29573
25829,7770,29584
25887,7806,29646
25940,7831,29685
25899,7806,29651
25842,7775,29613
25860,7778,29619
25881,7775,29606
25818,7738,29538
25756,7708,29487
25771,7709,29485
25771,7694,29452
25690,7642,29363
25614,7599,29291
25604,7582,29255
25564,7546,29178
25448,7480,29050
25364,7440,28957
25356,7435,28904
25319,7411,28807
25215,7363,28679
25139,7336,28597
25111,7329,28547
25036,7294,28447
24909,7235,28311
24839,7205,28225
24832,7198,28173
24776,7165,28079
24670,7116,27972
24619,7094,27920
24614,7081,27886
24554,7034,27800
24454,6975,27700
24412,6954,27658
24405,6948,27629
24339,6917,27543
24248,6883,27446
24224,6883,27405
24228,6890,27372
24165,6860,27290
24083,6825,27218
24072,6824,27203
24083,6823,27181
24031,6786,27103
23981,6757,27043
24017,6776,27052
24060,6797,27058
24016,6779,27007
23961,6763,26967
23978,6778,26971
23986,6782,26947
23915,6748,26873
23856,6726,26832
23874,6740,26846
23881,6743,26842
23823,6714,26802
23785,6699,26791
23813,6712,26817
23813,6707,26804
23742,6672,26745
23705,6658,26727
23738,6672,26747
23733,6663,26722
23664,6631,26663
23638,6627,26654
23665,6647,26673
23638,6635,26630
23551,6596,26553
23519,6585,26525
23538,6593,26517
23495,6567,26453
23402,6524,26370
23369,6512,26338
23380,6514,26317
23325,6481,26238
23228,6434,26148
23193,6415,26111
23190,6399,26072
23122,6349,25965
23027,6298,25852
23004,6285,25802
23005,6281,25761
22943,6248,25671
22876,6224,25599
22899,6248,25606
22950,6277,25631
22946,6276,25630
22973,6292,25683
23128,6367,25839
23328,6463,26030
23483,6546,26217
23670,6654,26463
23961,6811,26786
24262,6964,27111
24499,7088,27412
24759,7225,27757
25100,7397,28149
25425,7553,28517
25672,7676,28849
25934,7813,29205
26254,7973,29575
26532,8103,29876
26727,8195,30117
26937,8303,30384
27184,8426,30650
27368,8513,30818
27477,8571,30909
27615,8646,31029
27782,8731,31172
27874,8770,31235
27890,8771,31232
27939,8790,31264
28018,8816,31313
28029,8805,31295
27990,8779,31242
28000,8786,31240
28037,8802,31253
28005,8778,31197
27932,8738,31108
27911,8725,31068
27910,8714,31034
27838,8664,30924
27743,8606,30800
27725,8590,30753
27731,8582,30721
27667,8542,30618
27589,8505,30515
27579,8507,30486
27563,8501,30450
27461,8447,30337
27353,8392,30219
27328,8371,30165
27308,8344,30098
27210,8283,29964
27108,8235,29852
27074,8222,29813
27032,8197,29756
26927,8143,29637
26847,8107,29548
26843,8104,29524
26833,8090,29483
26774,8053,29403
26752,8042,29375
26799,8066,29417
26824,8074,29428
26799,8061,29399
26817,8075,29428
26888,8112,29510
26919,8123,29544
26909,8117,29539
26959,8145,29601
27067,8198,29713
27119,8218,29767
27116,8217,29781
27165,8245,29848
27256,8287,29937
27285,8297,29954
27275,8298,29939
27323,8333,29990
27404,8376,30065
27414,8379,30062
27379,8366,30028
27395,8377,30052
27424,8384,30076
27377,8351,30021
27308,8319,29955
27309,8326,29961
27317,8331,29966
27240,8293,29889
27149,8251,29803
27133,8245,29776
27117,8230,29731
27019,8173,29610
26928,8123,29497
26918,8112,29454
26903,8093,29403
26813,8038,29289
26731,7996,29193
26714,7989,29162
26672,7966,29124
26557,7911,29058
26467,7873,29036
26449,7863,29059
26411,7834,29039
26313,7780,28976
26251,7746,28949
26253,7733,28948
26212,7693,28890
26104,7630,28794
26046,7601,28744
26041,7597,28718
25983,7566,28639
25883,7521,28540
25849,7513,28497
25865,7526,28475
25820,7502,28400
25729,7458,28305
25698,7446,28261
25709,7449,28233
25662,7417,28157
25583,7375,28077
25570,7370,28058
25587,7379,28053
25542,7358,27996
25477,7329,27939
25478,7331,27939
25495,7328,27936
25445,7286,27875
25396,7251,27826
25434,7267,27846
25478,7292,27860
25437,7280,27811
25384,7266,27768
25403,7282,27776
25419,7288,27767
25357,7258,27706
25303,7238,27670
25324,7254,27686
25335,7261,27679
25275,7233,27625
25229,7213,27588
25246,7219,27579
25240,7206,27533
25167,7164,27446
25121,7144,27401
25138,7153,27395
25123,7142,27348
25049,7105,27273
25012,7091,27243
25022,7098,27235
24975,7071,27164
24869,7012,27052
24815,6982,26990
24819,6973,26959
24773,6937,26882
24679,6885,26785
24637,6864,26743
24638,6863,26723
24578,6830,26650
24473,6777,26553
24430,6755,26501
24431,6749,26464
24384,6719,26385
24326,6693,26315
24359,6715,26330
24448,6759,26394
24507,6786,26452
24585,6829,26565
24771,6928,26783
25010,7047,27037
25213,7148,27273
25442,7270,27553
25769,7445,27918
26113,7627,28292
26381,7773,28623
26643,7919,28967
26976,8095,29348
27300,8258,29695
27541,8385,29974
27777,8516,30253
28067,8669,30565
28317,8794,30826
28474,8874,31005
28627,8954,31185
28827,9049,31393
28986,9114,31546
29061,9141,31630
29149,9182,31740
29283,9249,31883
29361,9283,31951
29361,9282,31939
29387,9299,31956
29444,9329,32003
29434,9320,31981
29362,9283,31901
29343,9277,31869
29371,9289,31875
29337,9265,31824
29254,9221,31740
29228,9208,31716
29242,9205,31710
29194,9164,31631
29111,9111,31530
29088,9093,31500
29091,9084,31491
29031,9042,31413
28950,8996,31325
28934,8987,31308
28927,8980,31294
28845,8935,31202
28745,8885,31100
28717,8870,31064
28702,8855,31021
28617,8805,30907
28534,8766,30806
28530,8766,30787
28529,8762,30770
28452,8723,30694
28380,8692,30631
28386,8698,30633
28395,8697,30620
28346,8668,30551
28320,8659,30515
28369,8691,30550
28405,8713,30566
28380,8709,30540
28382,8720,30558
28451,8756,30633
28495,8769,30669
28486,8755,30658
28523,8769,30701
28624,8813,30801
28685,8833,30860
28697,8835,30878
28760,8870,30951
28871,8928,31068
28917,8951,31124
28901,8947,31135
28934,8971,31198
29010,9010,31287
29021,9014,31302
28979,9000,31274
28989,9015,31295
29031,9037,31328
29004,9019,31284
28933,8983,31201
28904,8968,31154
28883,8944,31089
28780,8867,30925
28646,8771,30718
28578,8704,30558
28528,8639,30394
28409,8544,30160
28285,8457,29938
28237,8412,29798
28189,8366,29663
28060,8287,29468
27928,8214,29284
27873,8181,29180
27825,8152,29090
27711,8096,28975
27615,8062,28930
27601,8076,28990
27589,8095,29073
27523,8096,29152
27481,8118,29283
27513,8174,29459
27529,8215,29597
27488,8225,29690
27481,8254,29815
27539,8304,29953
27561,8324,30001
27523,8312,29964
27516,8320,29946
27552,8345,29948
27529,8330,29872
27440,8277,29731
27396,8244,29634
27399,8229,29568
27348,8181,29445
27255,8118,29297
27223,8090,29210
27236,8079,29150
27191,8038,29035
27107,7986,28912
27079,7968,28868
27071,7955,28860
26998,7908,28824
26903,7858,28801
26878,7848,28836
26882,7852,28871
26836,7827,28861
26792,7808,28867
26826,7833,28930
26876,7864,28987
26857,7861,28988
26828,7861,28992
26867,7894,29034
26902,7916,29047
26855,7894,29006
26809,7875,28976
26836,7888,28985
26859,7893,28972
26810,7867,28914
26763,7852,28869
26769,7865,28853
26747,7860,28803
26653,7818,28712
26578,7787,28649
26568,7778,28613
26537,7750,28535
26447,7692,28426
26388,7656,28363
26387,7646,28337
26342,7612,28263
26234,7554,28154
26173,7523,28086
26166,7513,28039
26109,7473,27934
26001,7413,27798
25950,7383,27710
25948,7371,27646
25885,7328,27538
25768,7267,27419
25697,7234,27347
25658,7214,27284
25567,7168,27176
25462,7114,27066
25445,7099,27026
25489,7109,27022
25508,7110,27011
25553,7137,27060
25716,7230,27231
25947,7353,27464
26155,7461,27701
26391,7587,27993
26727,7767,28376
27082,7951,28772
27364,8099,29128
27636,8249,29499
27976,8434,29913
28310,8610,30285
28564,8750,30575
28814,8895,30866
29123,9064,31204
29407,9212,31507
29606,9321,31733
29799,9433,31962
30035,9564,32225
30226,9659,32437
30330,9703,32571
30436,9751,32719
30576,9815,32890
30664,9849,32986
30683,9851,33010
30726,9872,33063
30810,9912,33142
30828,9913,33148
30770,9880,33094
30743,9867,33074
30752,9865,33080
30702,9826,33018
30606,9767,32906
30570,9741,32845
30582,9737,32819
30541,9706,32742
30466,9668,32651
30450,9668,32630
30463,9680,32640
30410,9658,32594
30324,9624,32533
30293,9620,32526
30280,9614,32517
30203,9567,32438
30113,9516,32355
30091,9504,32339
30076,9492,32322
29987,9444,32237
29893,9399,32156
29877,9395,32147
29861,9389,32135
29769,9343,32054
29683,9300,31980
29684,9298,31977
29701,9301,31975
29664,9278,31922
29652,9275,31902
29719,9312,31956
29775,9339,31996
29766,9337,31987
29777,9349,32010
29852,9390,32090
29902,9415,32133
29888,9415,32127
29904,9438,32173
29982,9488,32274
30030,9514,32332
30033,9520,32348
30086,9558,32423
30194,9618,32545
30252,9646,32612
30256,9648,32638
30303,9676,32711
30385,9715,32804
30400,9713,32823
30360,9685,32798
30368,9683,32820
30408,9693,32853
30383,9669,32810
30321,9633,32737
30313,9632,32725
30330,9639,32731
30281,9609,32669
30201,9568,32587
30174,9558,32564
30152,9547,32533
30053,9489,32420
29939,9424,32294
29906,9400,32236
29888,9380,32180
29802,9329,32064
29723,9292,31968
29722,9299,31950
29713,9298,31931
29621,9254,31849
29522,9211,31768
29489,9199,31739
29449,9175,31689
29349,9119,31577
29272,9078,31489
29269,9073,31464
29249,9058,31418
29168,9017,31320
29112,8991,31260
29118,8991,31260
29089,8970,31223
28997,8924,31135
28942,8901,31091
28944,8900,31093
28905,8868,31040
28813,8814,30941
28773,8792,30899
28790,8795,30900
28759,8771,30851
28683,8731,30770
28665,8725,30748
28692,8741,30763
28658,8725,30720
28577,8691,30646
28548,8688,30626
28549,8698,30619
28489,8674,30544
28400,8641,30454
28376,8639,30428
28381,8637,30417
28331,8598,30348
28271,8561,30279
28283,8564,30285
28309,8570,30299
28267,8543,30249
28222,8523,30206
28251,8544,30238
28281,8563,30267
28228,8540,30225
28162,8518,30181
28162,8527,30191
28160,8529,30180
28091,8497,30100
28036,8476,30039
28055,8487,30051
28063,8485,30050
28001,8448,29991
27953,8422,29955
27964,8421,29971
27944,8401,29948
27853,8352,29862
27789,8326,29813
27784,8329,29810
27747,8310,29762
27660,8270,29674
27618,8258,29642
27633,8268,29652
27597,8248,29608
27504,8204,29521
27458,8187,29481
27456,8184,29468
27394,8145,29386
27284,8084,29256
27234,8053,29177
27230,8036,29125
27167,7988,29022
27071,7931,28908
27035,7911,28864
27030,7907,28856
26968,7876,28822
26889,7844,28806
26887,7854,28860
26928,7881,28938
26942,7889,28995
26986,7918,29101
27143,8011,29309
27349,8127,29539
27516,8224,29720
27704,8336,29928
27993,8500,30233
28309,8670,30555
28568,8809,30830
28841,8959,31135
29195,9147,31521
29535,9325,31896
29786,9462,32199
30027,9601,32508
30323,9760,32860
30584,9891,33163
30756,9977,33383
30938,10073,33616
31177,10193,33881
31369,10284,34068
31472,10338,34158
31584,10405,34269
31734,10485,34418
31825,10523,34490
31846,10523,34482
31899,10538,34514
31988,10564,34588
32012,10557,34592
31976,10530,34541
31984,10536,34549
32030,10556,34599
32004,10537,34579
31925,10498,34517
31899,10491,34511
31905,10489,34521
31845,10447,34455
31755,10396,34361
31731,10383,34336
31734,10379,34326
31673,10338,34238
31588,10293,34135
31560,10284,34108
31533,10269,34084
31426,10205,33966
31303,10136,33829
31248,10106,33765
31195,10073,33699
31069,10005,33552
30953,9948,33419
30923,9936,33384
30897,9923,33368
30800,9875,33310
30710,9835,33280
30701,9830,33314
30693,9817,33325
30629,9776,33279
30599,9759,33267
30649,9787,33320
30688,9809,33349
30672,9810,33330
30690,9835,33350
30774,9889,33427
30829,9919,33475
30827,9917,33485
30866,9944,33550
30960,9999,33665
31009,10026,33727
31003,10024,33731
31043,10049,33774
31126,10093,33849
31154,10103,33852
31135,10091,33806
31169,10111,33823
31242,10146,33879
31253,10147,33870
31224,10135,33831
31249,10151,33859
31296,10174,33913
31268,10156,33896
31201,10127,33850
31186,10128,33867
31187,10130,33887
31123,10094,33822
31045,10056,33742
31034,10054,33745
31030,10050,33761
30953,10002,33690
30866,9953,33603
30851,9942,33588
30836,9928,33575
30747,9881,33504
30666,9844,33454
30665,9847,33471
30666,9846,33470
30598,9809,33403
30530,9778,33350
30518,9775,33349
30480,9752,33318
30371,9695,33229
30288,9655,33169
30279,9647,33158
30251,9624,33114
30163,9578,33029
30105,9552,32988
30106,9549,32990
30068,9522,32946
29969,9472,32857
29915,9452,32816
29919,9455,32813
29882,9432,32756
29805,9393,32661
29783,9388,32629
29807,9403,32640
29775,9387,32601
29693,9349,32529
29665,9338,32504
29676,9339,32496
29625,9302,32426
29536,9252,32331
29509,9236,32295
29516,9231,32275
29464,9194,32190
29386,9152,32096
29369,9146,32074
29369,9140,32057
29302,9094,31965
29221,9047,31871
29214,9045,31855
29218,9051,31848
29153,9024,31777
29086,9003,31709
29094,9017,31711
29096,9023,31706
29021,8987,31637
28950,8955,31584
28952,8955,31591
28951,8951,31578
28887,8920,31508
28836,8904,31465
28851,8914,31480
28841,8903,31460
28759,8856,31371
28696,8823,31308
28691,8815,31294
28661,8788,31244
28582,8741,31149
28538,8721,31108
28547,8728,31120
28514,8709,31077
28427,8663,30974
28382,8641,30906
28376,8635,30863
28314,8596,30763
28207,8536,30626
28152,8503,30545
28136,8484,30497
28062,8437,30396
27950,8379,30266
27891,8353,30192
27861,8337,30142
27772,8289,30033
27661,8232,29905
27620,8210,29837
27616,8197,29787
27564,8160,29683
27507,8131,29595
27535,8153,29607
27600,8194,29659
27627,8214,29682
27686,8252,29749
27865,8349,29935
28093,8468,30170
28289,8575,30387
28521,8709,30660
28854,8900,31040
29202,9097,31436
29484,9261,31787
29772,9429,32159
30123,9623,32586
30443,9792,32967
30678,9916,33256
30915,10046,33550
31200,10195,33878
31448,10317,34143
31618,10401,34315
31790,10495,34497
31993,10605,34712
32133,10676,34854
32190,10706,34909
32262,10748,34988
32363,10800,35094
32401,10812,35125
32381,10794,35088
32406,10802,35096
32473,10828,35146
32475,10816,35129
32420,10778,35061
32406,10769,35046
32417,10772,35054
32356,10735,34982
32253,10682,34868
32208,10663,34815
32195,10653,34787
32123,10603,34687
32030,10544,34569
32003,10523,34532
31997,10509,34517
31920,10456,34423
31817,10400,34311
31774,10380,34273
31731,10353,34228
31604,10280,34084
31462,10207,33921
31398,10174,33831
31349,10140,33743
31242,10075,33587
31148,10023,33451
31131,10013,33405
31110,10001,33358
31025,9960,33246
30957,9930,33161
30961,9933,33162
30949,9925,33166
30874,9890,33138
30837,9878,33164
30887,9903,33259
30927,9915,33328
30912,9907,33353
30940,9932,33425
31041,9990,33553
31106,10022,33640
31113,10032,33671
31165,10071,33742
31268,10130,33847
31314,10154,33881
31307,10150,33854
31355,10176,33884
31448,10222,33956
31475,10232,33960
31452,10225,33932
31481,10249,33977
31535,10282,34054
31516,10276,34058
31454,10252,34026
31452,10257,34053
31475,10266,34083
31424,10232,34020
31342,10188,33931
31326,10180,33918
31332,10173,33914
31268,10126,33819
31190,10081,33717
31178,10079,33700
31162,10071,33680
31054,10015,33566
30934,9956,33441
30887,9936,33393
30843,9909,33350
30729,9846,33253
30630,9795,33179
30610,9783,33172
30582,9761,33147
30486,9709,33064
30401,9669,33001
30378,9662,32993
30330,9639,32954
30216,9589,32859
30130,9555,32799
30107,9541,32786
30057,9505,32738
29961,9450,32651
29913,9428,32620
29926,9438,32644
29896,9424,32624
29815,9390,32563
29782,9384,32552
29793,9400,32581
29752,9385,32556
29669,9350,32492
29647,9348,32484
29677,9367,32506
29653,9358,32469
29589,9334,32411
29580,9339,32415
29605,9351,32439
29574,9327,32399
29512,9292,32339
29505,9287,32337
29515,9282,32332
29462,9241,32249
29396,9199,32161
29399,9196,32147
29411,9198,32141
29349,9165,32067
29274,9136,31997
29268,9144,31999
29259,9146,31995
29171,9107,31924
29085,9072,31857
29075,9076,31848
29063,9073,31829
28982,9035,31752
28912,9009,31691
28910,9015,31689
28892,9003,31657
28804,8956,31560
28728,8917,31484
28710,8903,31457
28663,8870,31385
28551,8806,31255
28468,8759,31163
28447,8739,31121
28393,8699,31034
28287,8638,30901
28224,8606,30818
28215,8600,30783
28164,8568,30703
28072,8520,30590
28038,8503,30542
28060,8509,30545
28049,8495,30514
28027,8479,30485
28098,8513,30553
28249,8587,30692
28382,8655,30815
28515,8731,30960
28742,8858,31203
29029,9010,31503
29273,9137,31773
29496,9263,32047
29782,9425,32391
30087,9589,32737
30320,9714,33008
30529,9834,33271
30805,9989,33603
31092,10141,33937
31305,10253,34193
31503,10365,34429
31756,10510,34715
31990,10643,34976
32132,10732,35138
32254,10813,35280
32425,10912,35473
32564,10981,35627
32607,10998,35685
32646,11016,35741
32740,11059,35847
32806,11083,35914
32799,11071,35901
32806,11076,35911
32866,11110,35978
32885,11118,35998
32833,11092,35950
32805,11086,35939
32823,11098,35977
32793,11077,35959
32703,11027,35877
32662,11006,35847
32678,11009,35872
32650,10984,35842
32576,10942,35766
32548,10931,35746
32554,10936,35761
32499,10904,35708
32397,10850,35609
32341,10820,35560
32310,10795,35527
32216,10733,35418
32090,10662,35282
32024,10628,35217
31992,10608,35180
31907,10561,35078
31808,10516,34971
31779,10511,34952
31772,10512,34954
31704,10474,34880
31635,10437,34800
31648,10442,34806
31681,10451,34824
31655,10428,34775
31644,10418,34746
31719,10456,34813
31797,10495,34888
31802,10503,34900
31811,10521,34928
31888,10572,35028
31950,10606,35105
31945,10602,35110
31964,10611,35148
32052,10653,35256
32115,10679,35326
32109,10675,35321
32122,10689,35343
32190,10729,35417
32216,10740,35440
32173,10720,35397
32158,10721,35391
32190,10739,35422
32172,10723,35387
32102,10680,35292
32078,10664,35250
32092,10668,35255
32038,10637,35194
31926,10580,35082
31863,10549,35022
31838,10529,34994
31757,10474,34897
31639,10405,34763
31574,10369,34691
31542,10347,34643
31455,10293,34524
31341,10231,34384
31287,10202,34319
31251,10176,34265
31146,10110,34129
31021,10040,33978
30958,10008,33907
30908,9980,33845
30792,9917,33720
30678,9862,33614
30645,9852,33593
30621,9844,33574
30522,9798,33493
30416,9751,33415
30380,9735,33391
30340,9710,33346
30234,9653,33238
30149,9615,33157
30140,9615,33144
30113,9602,33115
30021,9558,33038
29952,9528,32991
29950,9524,32997
29924,9500,32965
29835,9447,32884
29784,9417,32846
29798,9416,32853
29779,9393,32812
29708,9351,32728
29678,9342,32691
29695,9357,32696
29660,9341,32646
29571,9299,32551
29529,9285,32509
29536,9289,32504
29494,9263,32448
29417,9223,32371
29396,9215,32359
29413,9224,32380
29371,9202,32350
29287,9166,32301
29253,9154,32303
29242,9146,32308
29172,9106,32241
29084,9062,32156
29060,9054,32134
29060,9053,32123
29002,9018,32047
28933,8983,31964
28925,8985,31950
28917,8985,31935
28834,8944,31847
28743,8899,31752
28723,8889,31718
28706,8877,31682
28621,8829,31594
28543,8789,31530
28539,8787,31532
28529,8779,31521
28460,8745,31462
28422,8729,31434
28474,8755,31477
28544,8788,31526
28594,8812,31563
28711,8875,31682
28928,8990,31902
29149,9107,32127
29339,9216,32345
29579,9360,32640
29882,9531,32994
30151,9673,33305
30371,9790,33580
30638,9937,33911
30953,10109,34282
31207,10245,34584
31398,10352,34814
31623,10480,35071
31872,10615,35339
32054,10708,35524
32183,10781,35652
32347,10877,35819
32526,10972,35994
32627,11021,36087
32681,11046,36139
32768,11090,36236
32852,11127,36330
32851,11118,36332
32821,11098,36304
32850,11114,36342
32888,11128,36379
32858,11103,36328
32818,11077,36265
32836,11084,36270
32843,11082,36264
32772,11039,36173
32693,10994,36082
32679,10979,36067
32660,10959,36048
32575,10905,35956
32496,10863,35876
32478,10855,35868
32439,10833,35835
32333,10777,35721
32239,10728,35617
32200,10702,35564
32131,10655,35472
31995,10578,35314
31885,10519,35193
31834,10488,35132
31750,10438,35031
31618,10370,34878
31533,10330,34778
31503,10313,34730
31437,10271,34637
31337,10213,34509
31296,10192,34454
31309,10196,34462
31272,10170,34422
31193,10130,34347
31169,10126,34341
31191,10145,34382
31170,10136,34371
31128,10117,34334
31156,10138,34369
31222,10178,34440
31238,10192,34452
31234,10201,34448
31285,10241,34517
31353,10283,34597
31363,10284,34593
31360,10276,34570
31422,10302,34624
31490,10330,34691
31484,10322,34682
31467,10314,34667
31511,10342,34723
31546,10361,34769
31497,10337,34728
31441,10312,34681
31453,10317,34698
31458,10314,34695
31389,10279,34611
31321,10252,34539
31307,10253,34535
31265,10235,34506
31151,10181,34406
31055,10138,34326
31020,10119,34302
30964,10082,34240
30857,10021,34117
30781,9983,34032
30762,9973,34007
30702,9938,33947
30582,9875,33851
30501,9836,33805
30469,9817,33796
30390,9767,33734
30262,9693,33626
30180,9648,33553
30137,9618,33494
30035,9556,33367
29886,9474,33201
29789,9420,33090
29735,9381,33008
29637,9319,32876
29520,9257,32736
29470,9234,32668
29451,9223,32630
29374,9183,32540
29271,9139,32449
29218,9127,32423
29174,9115,32399
29064,9064,32305
28951,9007,32208
28921,8989,32184
28914,8980,32174
28850,8945,32117
28790,8924,32071
28806,8946,32089
28823,8959,32095
28765,8935,32036
28709,8916,31987
28721,8928,31994
28719,8926,31985
28646,8891,31917
28581,8864,31864
28573,8864,31855
28532,8840,31802
28416,8781,31682
28326,8736,31591
28302,8719,31547
28256,8686,31474
28163,8636,31370
28115,8617,31315
28126,8628,31312
28098,8616,31268
28015,8580,31179
27970,8563,31133
27966,8561,31118
27913,8529,31050
27815,8475,30944
27766,8447,30887
27762,8435,30863
27710,8399,30801
27627,8354,30728
27609,8348,30723
27640,8367,30762
27642,8372,30779
27652,8386,30818
27759,8450,30956
27929,8546,31143
28079,8636,31309
28246,8741,31511
28500,8888,31807
28777,9036,32120
28993,9146,32375
29202,9255,32623
29481,9399,32932
29765,9539,33234
29977,9645,33468
30181,9755,33709
30445,9899,34011
30697,10033,34292
30868,10127,34489
31025,10217,34669
31218,10326,34876
31372,10406,35025
31441,10439,35079
31511,10475,35144
31625,10532,35262
31705,10565,35341
31720,10565,35354
31750,10583,35396
31822,10627,35492
31853,10648,35542
31824,10643,35532
31827,10658,35560
31870,10687,35627
31868,10685,35633
31821,10657,35579
31816,10652,35564
31846,10661,35583
31813,10633,35539
31724,10581,35444
31678,10551,35393
31666,10529,35364
31597,10473,35263
31492,10400,35124
31436,10356,35041
31401,10323,34981
31299,10259,34850
31165,10189,34696
31079,10150,34605
31006,10113,34519
30879,10042,34356
30750,9972,34191
30695,9946,34120
30660,9931,34092
30567,9886,34027
30481,9845,33979
30475,9844,34008
30475,9845,34041
30408,9815,34016
30349,9795,33998
30373,9813,34043
30413,9834,34084
30405,9835,34076
30415,9853,34096
30492,9902,34185
30549,9935,34250
30539,9935,34255
30550,9945,34281
30621,9979,34354
30672,9995,34391
30669,9988,34374
30693,10000,34390
30770,10033,34446
30807,10038,34440
30780,10017,34368
30780,10017,34333
30813,10030,34341
30793,10010,34295
30723,9969,34204
30700,9957,34170
30719,9966,34185
30683,9947,34168
30604,9916,34138
30576,9912,34161
30580,9912,34194
30527,9876,34163
30444,9827,34109
30413,9808,34103
30403,9796,34095
30331,9752,34014
30239,9706,33920
30205,9695,33889
30183,9688,33864
30096,9646,33774
29993,9600,33669
29954,9583,33614
29923,9561,33551
29828,9503,33423
29735,9451,33305
29710,9436,33252
29680,9418,33187
29577,9367,33062
29476,9322,32956
29439,9308,32909
29393,9279,32842
29284,9218,32720
29192,9171,32625
29161,9155,32588
29117,9129,32531
29019,9074,32429
28939,9035,32359
28914,9022,32333
28861,8995,32272
28756,8946,32170
28693,8919,32114
28689,8913,32102
28652,8882,32045
28569,8833,31948
28530,8814,31904
28538,8820,31905
28497,8799,31859
28407,8761,31779
28364,8749,31744
28365,8748,31737
28324,8718,31676
28253,8677,31590
28236,8664,31558
28251,8665,31548
28215,8640,31487
28152,8608,31414
28140,8603,31396
28145,8604,31385
28090,8572,31314
28010,8534,31231
27980,8522,31204
27954,8509,31175
27867,8464,31079
27780,8423,30985
27767,8422,30963
27765,8426,30945
27700,8400,30874
27632,8378,30812
27628,8386,30807
27617,8380,30785
27535,8332,30701
27459,8286,30623
27444,8269,30590
27416,8245,30535
27325,8195,30425
27248,8155,30338
27229,8142,30309
27189,8115,30259
27093,8063,30163
27029,8030,30101
27030,8031,30091
27022,8028,30063
26998,8022,30031
27043,8056,30087
27169,8129,30228
27295,8195,30368
27413,8258,30510
27611,8363,30736
27880,8497,31023
28123,8617,31282
28339,8731,31533
28614,8881,31854
28934,9047,32206
29199,9182,32502
29422,9306,32771
29688,9455,33086
29963,9605,33404
30162,9714,33644
30322,9804,33848
30519,9913,34084
30714,10012,34304
30838,10071,34436
30936,10124,34533
31075,10202,34666
31199,10266,34769
31237,10283,34776
31253,10289,34763
31319,10319,34812
31374,10338,34855
31356,10319,34821
31332,10301,34786
31362,10312,34810
31375,10310,34811
31312,10272,34735
31246,10235,34662
31235,10219,34639
31201,10185,34585
31101,10120,34458
31024,10074,34356
31011,10060,34314
30969,10029,34244
30864,9973,34125
30781,9936,34044
30745,9917,34021
30671,9871,33972
30549,9803,33891
30469,9763,33855
30438,9743,33849
30363,9698,33785
30240,9639,33679
30157,9610,33616
30116,9599,33572
30033,9558,33464
29915,9498,33319
29860,9467,33233
29857,9455,33186
29816,9423,33107
29756,9386,33031
29760,9386,33032
29801,9399,33061
29796,9386,33043
29777,9373,33026
29819,9392,33073
29878,9412,33126
29880,9400,33117
29879,9391,33110
29948,9423,33172
30022,9461,33239
30025,9470,33246
30024,9485,33257
30086,9530,33318
30140,9565,33360
30122,9563,33337
30104,9563,33323
30144,9585,33355
30174,9593,33367
30143,9570,33325
30121,9560,33298
30152,9577,33316
30158,9580,33305
30101,9553,33242
30062,9537,33207
30071,9538,33214
30050,9518,33180
29974,9475,33094
29921,9452,33037
29909,9448,33015
29854,9419,32953
29748,9369,32854
29681,9340,32795
29655,9326,32763
29581,9282,32671
29466,9217,32538
29403,9181,32454
29385,9163,32404
29319,9120,32313
29217,9068,32206
29166,9047,32153
29138,9034,32121
29051,8988,32034
28938,8934,31926
28883,8907,31870
28853,8888,31822
28772,8842,31719
28677,8796,31618
28642,8783,31586
28618,8772,31559
28532,8728,31467
28435,8682,31363
28404,8668,31312
28388,8654,31258
28313,8611,31151
28238,8577,31059
28227,8577,31034
28213,8573,31009
28137,8538,30936
28067,8507,30878
28058,8501,30869
28043,8483,30838
27971,8438,30758
27915,8410,30710
27918,8412,30717
27907,8404,30702
27847,8379,30646
27812,8373,30624
27824,8389,30641
27801,8382,30613
27728,8352,30540
27694,8346,30506
27712,8358,30511
27692,8343,30474
27630,8307,30401
27607,8293,30375
27622,8297,30381
27589,8275,30334
27516,8237,30255
27491,8226,30222
27498,8227,30210
27456,8196,30147
27387,8152,30065
27370,8136,30037
27380,8132,30030
27335,8103,29978
27261,8070,29918
27237,8065,29907
27227,8058,29895
27154,8018,29819
27063,7973,29729
27030,7956,29691
27004,7937,29647
26922,7891,29544
26842,7856,29450
26827,7854,29419
26812,7850,29387
26734,7815,29308
26657,7784,29241
26641,7776,29221
26619,7755,29180
26531,7705,29082
26456,7667,29001
26450,7659,28975
26450,7651,28947
26419,7634,28899
26431,7648,28911
26528,7707,29015
26636,7770,29136
26730,7827,29260
26897,7921,29464
27152,8055,29753
27404,8182,30039
27634,8299,30308
27926,8449,30639
28276,8625,31024
28585,8775,31368
28841,8906,31671
29124,9059,32002
29428,9218,32342
29662,9337,32615
29834,9430,32843
30035,9543,33104
30256,9658,33365
30414,9734,33550
30530,9792,33694
30679,9871,33872
30824,9946,34043
30891,9979,34128
30914,9994,34170
30973,10024,34240
31031,10043,34280
31016,10019,34218
30982,9989,34125
30998,9988,34091
31011,9983,34066
30952,9941,33990
30887,9899,33920
30878,9884,33904
30859,9857,33872
30767,9795,33780
30672,9737,33698
30633,9709,33661
30590,9677,33605
30496,9619,33497
30424,9576,33412
30413,9564,33380
30376,9542,33323
30271,9496,33211
30180,9461,33117
30134,9441,33058
30054,9398,32960
29924,9330,32818
29829,9285,32718
29790,9268,32668
29720,9230,32577
29611,9172,32452
29550,9140,32381
29540,9131,32358
29493,9101,32293
29411,9053,32192
29389,9034,32142
29420,9035,32130
29416,9019,32083
29387,9005,32026
29413,9026,32040
29471,9058,32091
29478,9064,32098
29459,9064,32091
29497,9090,32139
29557,9118,32198
29562,9113,32199
29557,9109,32201
29626,9148,32279
29714,9195,32374
29734,9210,32414
29742,9226,32456
29808,9272,32552
29867,9305,32627
29848,9297,32626
29825,9287,32626
29865,9307,32671
29900,9323,32693
29870,9310,32649
29841,9300,32616
29863,9313,32630
29865,9309,32614
29803,9270,32537
29751,9240,32480
29750,9232,32469
29721,9206,32429
29631,9154,32343
29564,9122,32295
29551,9116,32295
29504,9085,32251
29402,9030,32165
29330,9001,32127
29301,8993,32124
29233,8958,32060
29123,8903,31947
29065,8877,31878
29059,8873,31843
29012,8846,31763
28928,8809,31659
28890,8800,31601
28882,8801,31556
28813,8766,31452
28706,8711,31323
28650,8680,31246
28622,8652,31190
28545,8596,31082
28460,8541,30962
28445,8524,30907
28449,8518,30869
28389,8482,30772
28313,8447,30676
28292,8445,30652
28273,8444,30637
28191,8410,30562
28110,8376,30489
28102,8378,30480
28107,8383,30468
28057,8360,30400
28014,8344,30348
28039,8361,30355
28056,8372,30348
28002,8350,30293
27952,8336,30257
27958,8347,30270
27948,8342,30259
27880,8308,30200
27839,8292,30173
27864,8307,30198
27871,8309,30191
27826,8288,30145
27808,8287,30140
27838,8305,30173
27833,8297,30152
27781,8265,30083
27771,8254,30061
27806,8260,30078
27790,8241,30050
27730,8207,29989
27715,8200,29978
27731,8204,29997
27687,8178,29960
27598,8137,29891
27558,8121,29865
27552,8114,29849
27491,8077,29766
27401,8030,29656
27364,8012,29600
27350,8002,29563
27281,7965,29478
27194,7926,29383
27162,7911,29339
27133,7892,29294
27036,7835,29180
26936,7780,29064
26912,7765,29017
26903,7758,28977
26834,7724,28881
26775,7700,28804
26798,7719,28809
26837,7743,28831
26832,7742,28830
26853,7758,28874
26968,7820,29008
27121,7895,29168
27263,7967,29322
27461,8075,29544
27746,8226,29853
28029,8370,30154
28266,8494,30418
28528,8634,30719
28842,8796,31064
29121,8932,31363
29338,9038,31605
29576,9160,31879
29848,9297,32181
30060,9402,32418
30203,9476,32593
30362,9561,32787
30534,9649,32990
30627,9692,33115
30652,9702,33178
30710,9730,33260
30794,9765,33337
30816,9767,33335
30793,9753,33297
30809,9763,33301
30838,9778,33310
30796,9755,33253
30712,9716,33176
30670,9700,33148
30643,9681,33126
30556,9626,33043
30456,9565,32953
30420,9538,32925
30398,9516,32905
30309,9462,32820
30211,9408,32728
30183,9390,32697
30153,9372,32653
30047,9316,32531
29938,9260,32410
29897,9238,32347
29851,9209,32265
29729,9147,32120
29606,9094,31991
29542,9072,31923
29460,9035,31835
29317,8968,31690
29199,8914,31570
29153,8889,31506
29102,8854,31415
29007,8797,31278
28950,8763,31190
28962,8761,31171
28954,8744,31128
28900,8711,31049
28887,8704,31024
28929,8722,31051
28941,8723,31041
28917,8710,31003
28947,8729,31029
29027,8773,31103
29066,8796,31138
29068,8805,31154
29119,8838,31233
29203,8880,31336
29237,8889,31378
29239,8886,31396
29293,8914,31469
29371,8949,31552
29389,8950,31569
29376,8946,31569
29409,8973,31624
29449,9000,31673
29421,8990,31646
29376,8974,31600
29391,8985,31607
29411,8993,31615
29361,8965,31559
29303,8934,31501
29305,8933,31494
29302,8930,31472
29225,8894,31384
29139,8855,31298
29113,8840,31266
29082,8817,31216
28992,8763,31105
28914,8720,31018
28898,8709,30988
28868,8688,30939
28777,8638,30841
28696,8599,30772
28666,8587,30749
28610,8560,30687
28497,8509,30572
28412,8476,30484
28379,8463,30433
28317,8430,30341
28211,8377,30210
28148,8348,30134
28134,8340,30113
28079,8310,30052
27981,8266,29949
27924,8249,29888
27902,8247,29859
27837,8216,29786
27743,8171,29691
27701,8154,29643
27693,8153,29618
27632,8123,29543
27544,8082,29451
27509,8068,29418
27496,8060,29397
27429,8025,29310
27347,7985,29212
27325,7975,29184
27321,7968,29164
27262,7933,29078
27203,7904,28992
27216,7912,28982
27240,7923,28991
27199,7904,28953
27148,7885,28915
27156,7893,28931
27153,7893,28928
27082,7859,28855
27027,7835,28796
27049,7849,28801
27063,7855,28798
27002,7828,28749
26947,7807,28728
26953,7814,28757
26945,7809,28749
26879,7778,28686
26839,7764,28657
26858,7776,28675
26854,7772,28656
26799,7748,28594
26771,7743,28575
26785,7756,28597
26757,7743,28568
26680,7706,28495
26649,7695,28473
26664,7701,28488
26628,7678,28451
26544,7637,28374
26504,7620,28336
26501,7614,28322
26447,7581,28251
26358,7535,28145
26322,7519,28090
26324,7517,28056
26275,7488,27967
26201,7452,27864
26179,7443,27821
26173,7441,27794
26112,7411,27709
26042,7380,27623
26046,7385,27616
26084,7402,27642
26094,7404,27642
26138,7430,27687
26288,7511,27847
26484,7615,28061
26655,7708,28267
26857,7818,28518
27154,7972,28860
27480,8137,29219
27767,8285,29542
28074,8448,29897
28439,8636,30310
28778,8806,30690
29043,8942,30999
29296,9076,31303
29575,9217,31622
29807,9328,31884
29959,9403,32073
30109,9482,32268
30286,9570,32477
30413,9625,32620
30475,9650,32700
30554,9690,32802
30659,9743,32929
30708,9767,33000
30695,9763,33011
30712,9775,33040
30755,9798,33081
30738,9785,33058
30668,9746,32984
30641,9722,32943
30646,9706,32920
30595,9660,32843
30508,9605,32743
30464,9580,32694
30441,9566,32660
30360,9522,32565
30251,9470,32454
30194,9446,32403
30157,9428,32363
30068,9382,32262
29975,9340,32152
29946,9329,32099
29921,9314,32048
29828,9267,31930
29725,9222,31799
29678,9205,31721
29628,9178,31648
29515,9116,31527
29402,9052,31414
29350,9015,31354
29300,8974,31287
29204,8915,31178
29134,8874,31100
29133,8871,31091
29131,8868,31074
29089,8850,31018
29080,8852,30996
29138,8886,31035
29181,8911,31060
29181,8917,31056
29211,8941,31099
29284,8983,31183
29324,9001,31222
29325,9000,31225
29366,9025,31280
29452,9068,31373
29495,9087,31420
29498,9089,31435
29548,9122,31496
29637,9174,31581
29676,9197,31606
29671,9199,31598
29703,9220,31635
29754,9246,31687
29742,9238,31678
29692,9210,31641
29686,9204,31650
29695,9202,31657
29646,9170,31598
29580,9138,31534
29573,9141,31533
29575,9143,31533
29509,9109,31467
29430,9073,31393
29405,9067,31374
29376,9055,31339
29276,9002,31231
29175,8948,31124
29147,8930,31074
29127,8913,31023
29042,8867,30927
28953,8828,30845
28923,8817,30813
28884,8796,30756
28779,8746,30642
28683,8708,30542
28651,8699,30489
28613,8678,30416
28524,8630,30302
28459,8600,30235
28449,8596,30226
28414,8574,30189
28330,8531,30113
28275,8508,30075
28263,8500,30072
28215,8470,30027
28121,8422,29944
28067,8398,29897
28059,8388,29877
28013,8354,29813
27931,8309,29720
27896,8290,29675
27900,8286,29660
27857,8258,29602
27780,8222,29525
27749,8212,29496
27743,8211,29475
27691,8180,29398
27624,8144,29312
27609,8140,29292
27610,8146,29291
27558,8126,29237
27495,8105,29182
27491,8114,29193
27500,8121,29209
27456,8098,29168
27413,8075,29130
27435,8082,29152
27465,8089,29168
27442,8068,29126
27422,8055,29097
27462,8077,29129
27493,8095,29155
27456,8083,29129
27413,8074,29103
27417,8085,29110
27411,8082,29090
27354,8055,29024
27321,8046,28992
27352,8062,29013
27363,8060,29008
27318,8036,28962
27294,8030,28947
27315,8040,28973
27302,8028,28956
27231,7989,28884
27190,7963,28842
27193,7956,28836
27160,7935,28791
27090,7906,28714
27059,7901,28683
27060,7907,28674
27010,7885,28611
26921,7846,28523
26883,7829,28489
26884,7823,28479
26844,7793,28423
26785,7761,28361
26782,7762,28365
26813,7775,28393
26814,7767,28385
26825,7767,28394
26922,7812,28490
27071,7881,28627
27202,7941,28749
27365,8027,28917
27631,8171,29199
27938,8334,29531
28199,8477,29836
28465,8634,30161
28807,8830,30560
29152,9020,30953
29422,9171,31277
29680,9315,31596
29984,9478,31944
30266,9621,32247
30472,9724,32472
30673,9831,32700
30914,9959,32966
31116,10062,33190
31232,10124,33333
31338,10184,33462
31467,10251,33599
31545,10285,33663
31546,10284,33642
31561,10295,33636
31614,10320,33664
31622,10319,33640
31578,10297,33566
31568,10294,33535
31596,10301,33543
31572,10274,33496
31500,10224,33404
31468,10198,33359
31467,10186,33344
31414,10146,33270
31323,10091,33153
31276,10062,33085
31258,10046,33045
31191,10005,32950
31097,9957,32833
31044,9934,32770
31005,9909,32725
30910,9848,32627
30790,9775,32521
30717,9729,32472
30659,9685,32433
30545,9615,32340
30425,9553,32250
30376,9533,32223
30345,9519,32201
30256,9476,32127
30166,9436,32059
30152,9428,32049
30159,9423,32041
30125,9398,31996
30106,9389,31978
30154,9413,32019
30197,9432,32053
30185,9428,32043
30187,9435,32049
30246,9466,32100
30301,9491,32137
30321,9500,32140
30375,9530,32184
30484,9587,32280
30561,9626,32343
30582,9641,32364
30629,9669,32418
30711,9711,32504
30750,9730,32549
30743,9729,32553
30775,9747,32591
30845,9779,32654
30869,9790,32670
30852,9787,32654
30873,9804,32678
30921,9830,32719
30912,9823,32700
30858,9793,32649
30838,9778,32636
30841,9766,32632
30796,9722,32570
30724,9670,32483
30695,9646,32442
30684,9631,32409
30622,9595,32325
30543,9563,32241
30517,9561,32222
30495,9557,32206
30408,9515,32119
30310,9467,32018
30276,9444,31974
30247,9418,31931
30157,9366,31835
30072,9323,31748
30052,9311,31715
30027,9295,31675
29939,9256,31589
29856,9225,31510
29832,9214,31469
29796,9188,31404
29702,9134,31288
29627,9094,31194
29612,9078,31150
29586,9055,31094
29515,9018,31016
29466,9002,30979
29460,9005,30984
29431,8992,30955
29369,8966,30893
29345,8961,30871
29356,8972,30877
29323,8954,30826
29246,8913,30727
29209,8897,30667
29214,8902,30645
29186,8888,30592
29136,8863,30525
29129,8863,30509
29150,8875,30516
29128,8860,30479
29082,8837,30428
29082,8839,30430
29104,8844,30446
29072,8818,30409
29018,8784,30357
29014,8777,30353
29027,8771,30349
28987,8739,30288
28937,8714,30230
28949,8726,30237
28972,8743,30253
28928,8731,30212
28869,8718,30168
28869,8732,30176
28873,8738,30176
28813,8711,30114
28751,8684,30051
28756,8683,30033
28765,8673,30000
28719,8636,29923
28676,8614,29874
28680,8616,29874
28662,8601,29841
28583,8562,29757
28512,8534,29693
28484,8522,29664
28432,8493,29603
28339,8448,29506
28283,8423,29445
28278,8417,29422
28249,8396,29364
28187,8362,29278
28167,8351,29247
28199,8365,29269
28224,8375,29279
28247,8390,29297
28346,8444,29398
28518,8529,29567
28686,8612,29738
28858,8702,29932
29103,8833,30213
29402,8987,30546
29670,9124,30858
29914,9259,31169
30200,9419,31527
30504,9580,31885
30750,9708,32177
30961,9821,32436
31204,9949,32726
31444,10069,33006
31610,10153,33204
31749,10230,33358
31928,10331,33535
32093,10426,33683
32175,10483,33740
32225,10526,33771
32306,10582,33838
32365,10615,33881
32353,10611,33851
32336,10606,33818
32364,10620,33831
32381,10621,33827
32340,10593,33767
32297,10566,33720
32288,10553,33724
32253,10524,33700
32162,10473,33619
32084,10437,33555
32048,10421,33532
31992,10387,33471
31899,10332,33357
31845,10294,33275
31843,10274,33235
31812,10237,33153
31732,10187,33021
31672,10158,32919
31639,10139,32851
31558,10096,32743
31430,10034,32603
31339,9988,32508
31280,9949,32443
31181,9881,32347
31064,9807,32250
31001,9766,32212
30972,9741,32199
30905,9699,32146
30824,9658,32086
30797,9648,32082
30797,9646,32093
30762,9622,32057
30723,9602,32024
30743,9616,32052
30783,9637,32094
30782,9635,32096
30789,9643,32118
30867,9690,32215
30959,9741,32318
31000,9763,32365
31040,9781,32409
31132,9824,32500
31218,9860,32580
31242,9869,32605
31263,9887,32637
31332,9932,32706
31383,9964,32749
31374,9968,32744
31378,9978,32759
31427,10002,32808
31453,10003,32813
31429,9978,32754
31426,9969,32712
31463,9981,32715
31460,9972,32687
31401,9941,32622
31361,9924,32591
31349,9919,32588
31293,9892,32546
31193,9851,32471
31132,9831,32433
31113,9823,32424
31055,9792,32373
30964,9749,32289
30907,9724,32240
30873,9704,32207
30800,9660,32129
30706,9609,32029
30654,9575,31966
30623,9542,31908
30552,9489,31797
30467,9435,31676
30432,9408,31604
30410,9384,31544
30335,9338,31446
30250,9296,31354
30220,9284,31324
30197,9275,31301
30116,9237,31221
30028,9199,31137
29996,9190,31100
29973,9182,31053
29906,9149,30958
29845,9123,30878
29836,9121,30853
29823,9110,30823
29759,9075,30756
29701,9048,30711
29692,9045,30715
29669,9032,30698
29595,8999,30633
29539,8979,30586
29535,8976,30576
29522,8963,30546
29475,8940,30489
29456,8934,30467
29476,8944,30484
29463,8934,30468
29409,8906,30416
29388,8900,30399
29408,8909,30413
29396,8900,30387
29350,8879,30334
29338,8880,30325
29356,8893,30345
29327,8884,30323
29260,8859,30274
29226,8848,30264
29209,8838,30264
29145,8802,30209
29064,8760,30129
29041,8744,30093
29048,8739,30075
29014,8712,30013
28965,8682,29947
28958,8675,29932
28958,8673,29920
28906,8647,29851
28842,8615,29773
28824,8604,29742
28810,8591,29708
28737,8553,29624
28660,8521,29548
28641,8517,29521
28621,8505,29482
28545,8466,29388
28468,8429,29296
28444,8414,29249
28420,8395,29201
28353,8359,29122
28298,8341,29070
28294,8347,29066
28279,8341,29044
28223,8320,28988
28208,8318,28970
28275,8343,29018
28363,8370,29084
28452,8404,29169
28608,8481,29339
28837,8595,29589
29061,8709,29845
29271,8822,30102
29527,8963,30414
29822,9123,30762
30087,9266,31079
30324,9397,31380
30593,9546,31713
30880,9697,32047
31113,9816,32316
31303,9916,32550
31520,10029,32813
31737,10144,33067
31886,10228,33232
31989,10297,33347
32115,10376,33489
32239,10446,33616
32300,10478,33658
32333,10499,33671
32407,10540,33734
32484,10577,33797
32498,10584,33790
32496,10588,33767
32541,10613,33796
32576,10625,33812
32541,10600,33755
32485,10563,33683
32469,10541,33650
32442,10504,33596
32360,10441,33482
32283,10389,33378
32253,10364,33331
32217,10333,33277
32137,10284,33184
32067,10242,33114
32034,10217,33090
31978,10179,33033
31871,10122,32920
31781,10080,32829
31733,10053,32779
31663,10009,32695
31559,9951,32571
31483,9919,32489
31441,9907,32459
31366,9875,32404
31262,9825,32326
31204,9796,32300
31187,9786,32311
31144,9762,32287
31082,9735,32247
31072,9739,32253
31109,9757,32288
31119,9757,32294
31113,9757,32295
31152,9780,32344
31208,9808,32405
31222,9815,32424
31221,9821,32439
31271,9854,32505
31345,9890,32580
31380,9904,32608
31412,9922,32637
31489,9966,32717
31560,10005,32793
31567,10009,32797
31560,10006,32776
31599,10025,32792
31633,10036,32793
31612,10021,32733
31594,10009,32686
31625,10019,32700
31639,10020,32708
31584,9994,32660
31526,9970,32616
31515,9965,32622
31492,9951,32618
31422,9922,32575
31368,9911,32553
31358,9914,32562
31326,9892,32534
31248,9850,32464
31186,9819,32417
31150,9793,32390
31078,9744,32315
30966,9677,32195
30890,9629,32110
30860,9603,32061
30801,9565,31974
30706,9514,31858
30647,9484,31782
30626,9467,31729
30577,9432,31642
30506,9392,31543
30471,9379,31487
30456,9373,31459
30401,9343,31404
30320,9307,31337
30272,9290,31301
30237,9267,31266
30160,9218,31182
30076,9168,31090
30048,9144,31049
30038,9129,31021
29982,9098,30947
29909,9069,30869
29881,9062,30839
29860,9053,30813
29790,9023,30742
29726,9000,30676
29717,9000,30659
29704,8999,30646
29640,8981,30598
29578,8966,30557
29563,8968,30549
29536,8958,30520
29465,8925,30446
29420,8902,30387
29428,8904,30368
29427,8901,30332
29392,8883,30268
29372,8876,30237
29389,8883,30245
29383,8874,30228
29334,8844,30177
29308,8826,30154
29319,8821,30162
29299,8800,30141
29243,8769,30094
29214,8757,30082
29210,8756,30092
29165,8736,30054
29090,8702,29984
29056,8685,29949
29051,8677,29933
29010,8649,29879
28942,8615,29812
28909,8604,29791
28894,8599,29778
28835,8567,29708
28757,8528,29619
28720,8507,29568
28697,8486,29521
28634,8443,29434
28565,8406,29349
28544,8396,29313
28524,8382,29278
28443,8337,29188
28347,8292,29088
28303,8270,29033
28275,8249,28986
28211,8216,28910
28162,8201,28858
28184,8221,28875
28227,8247,28909
28252,8266,28928
28321,8310,28994
28479,8391,29147
28660,8483,29335
28822,8576,29529
29020,8694,29776
29283,8838,30089
29541,8974,30394
29770,9097,30673
30020,9232,30979
30294,9372,31311
30530,9491,31603
30725,9595,31848
30944,9710,32109
31185,9829,32390
31373,9915,32613
31505,9977,32779
31653,10050,32959
31810,10126,33137
31908,10171,33237
31961,10197,33284
32036,10239,33361
32118,10284,33450
32143,10296,33474
32129,10289,33456
32142,10292,33460
32161,10293,33453
32128,10265,33380
32070,10233,33290
32048,10227,33253
32034,10224,33226
31969,10194,33137
31886,10157,33038
31847,10141,32997
31817,10123,32965
31737,10079,32880
31653,10036,32796
31627,10016,32774
31611,9995,32755
31548,9953,32686
31485,9916,32630
31458,9901,32617
31406,9872,32584
31297,9820,32501
31194,9772,32423
31135,9739,32376
31068,9697,32310
30966,9642,32211
30894,9604,32142
30873,9589,32116
30841,9562,32068
30780,9523,31992
30742,9502,31951
30739,9504,31951
30716,9496,31933
30671,9483,31901
30674,9493,31911
30721,9522,31958
30746,9540,31982
30756,9552,31993
30811,9585,32052
30897,9630,32139
30942,9650,32183
30954,9660,32203
30998,9687,32259
31057,9716,32328
31072,9719,32349
31066,9715,32348
31101,9733,32386
31151,9755,32429
31157,9757,32420
31145,9753,32399
31169,9768,32424
31195,9781,32452
31165,9764,32424
31116,9742,32379
31108,9738,32372
31102,9730,32360
31049,9698,32298
30998,9670,32237
30997,9665,32216
30994,9652,32184
30934,9611,32107
30865,9575,32033
30833,9560,31992
30784,9532,31926
30686,9477,31810
30603,9432,31715
30572,9412,31668
30529,9388,31606
30443,9351,31515
30369,9325,31450
30332,9308,31422
30274,9275,31370
30183,9225,31286
30123,9192,31233
30103,9174,31204
30057,9139,31136
29981,9094,31037
