green_channel,red_channel,ir_channel
22310,9718,43957
22266,9675,43873
22220,9628,43788
22175,9583,43707
22135,9548,43634
22092,9516,43561
22043,9477,43482
21995,9441,43408
21954,9411,43345
21915,9383,43281
21874,9348,43209
21839,9313,43139
21813,9285,43078
21786,9256,43020
21753,9221,42962
21719,9189,42908
21691,9165,42862
21663,9143,42819
21637,9118,42782
21618,9097,42756
21605,9086,42740
21592,9078,42727
21580,9072,42718
21574,9072,42719
21574,9078,42728
21576,9080,42740
21579,9078,42756
21590,9084,42784
21604,9098,42818
21613,9108,42847
21620,9117,42872
21636,9137,42904
21658,9164,42940
21678,9184,42970
21695,9195,42998
21718,9212,43034
21746,9232,43071
21764,9243,43094
21772,9247,43107
21777,9252,43120
21775,9251,43125
21763,9235,43112
21747,9210,43089
21734,9186,43065
21719,9162,43036
21695,9131,42992
21663,9096,42941
21630,9069,42895
21595,9044,42845
21557,9016,42785
21519,8992,42724
21488,8975,42667
21457,8956,42608
21423,8926,42544
21392,8897,42486
21370,8878,42437
21344,8857,42387
21311,8828,42330
21278,8799,42276
21249,8774,42225
21216,8742,42169
21178,8705,42111
21142,8674,42056
21111,8649,42003
21076,8621,41945
21038,8588,41884
21005,8558,41830
20981,8533,41784
20959,8508,41739
20938,8482,41694
20920,8459,41655
20900,8436,41617
20872,8409,41572
20843,8383,41530
20824,8368,41500
20810,8359,41475
20789,8343,41444
20767,8323,41410
20754,8314,41387
20747,8313,41370
20739,8309,41351
20731,8302,41331
20730,8297,41315
20729,8291,41300
20719,8278,41279
20703,8262,41257
20688,8252,41238
20669,8243,41218
20639,8227,41192
20608,8210,41164
20585,8201,41139
20566,8193,41116
20544,8176,41091
20528,8162,41073
20523,8158,41066
20521,8153,41061
20515,8141,41051
20513,8136,41042
20520,8140,41038
20525,8141,41029
20523,8134,41019
20523,8130,41021
20535,8141,41040
20554,8159,41069
20580,8187,41112
20624,8238,41184
20690,8316,41294
20776,8409,41439
20886,8520,41628
21027,8657,41875
21200,8820,42177
21397,9000,42523
21615,9195,42907
21857,9412,43332
22117,9645,43788
22380,9875,44256
22639,10101,44720
22896,10328,45174
23138,10540,45602
23350,10722,45979
23535,10877,46304
23701,11016,46583
23844,11129,46812
23947,11207,46980
24015,11255,47092
24058,11284,47158
24074,11289,47177
24059,11264,47146
24018,11219,47077
23964,11166,46980
23895,11104,46859
23810,11028,46715
23719,10947,46556
23627,10866,46391
23530,10781,46220
23426,10689,46042
23322,10600,45866
23224,10524,45703
23129,10450,45545
23033,10369,45384
22941,10290,45228
22858,10220,45083
22784,10154,44946
22713,10091,44817
22652,10035,44700
22600,9985,44596
22546,9934,44498
22487,9882,44401
22430,9835,44309
22378,9794,44220
22325,9749,44127
22268,9696,44035
22217,9648,43955
22175,9610,43883
22130,9573,43808
22083,9534,43732
22040,9498,43659
21997,9462,43586
21953,9422,43510
21915,9383,43437
21891,9358,43378
21870,9344,43330
21845,9327,43285
21821,9313,43246
21810,9310,43219
21807,9311,43198
21803,9311,43180
21800,9313,43172
21804,9321,43178
21809,9326,43187
21812,9327,43195
21818,9332,43209
21830,9350,43236
21846,9371,43269
21859,9389,43301
21875,9409,43335
21896,9437,43372
21915,9461,43409
21929,9475,43444
21947,9489,43483
21970,9509,43528
21991,9529,43570
22005,9542,43602
22019,9553,43627
22035,9564,43649
22043,9570,43661
22039,9571,43662
22030,9572,43655
22019,9570,43640
21999,9557,43610
21970,9532,43570
21946,9507,43535
21929,9487,43501
21911,9466,43459
21888,9444,43411
21864,9423,43367
21838,9403,43326
21805,9374,43276
21770,9340,43219
21742,9311,43163
21713,9280,43102
21676,9239,43030
21634,9196,42955
21602,9166,42894
21580,9147,42841
21555,9125,42784
21530,9099,42725
21509,9077,42673
21487,9054,42625
21457,9026,42572
21424,8998,42520
21397,8978,42474
21369,8956,42427
21336,8927,42373
21304,8897,42320
21280,8876,42279
21259,8857,42244
21235,8829,42207
21215,8800,42169
21203,8776,42134
21188,8754,42099
21167,8731,42062
21148,8712,42028
21134,8701,42001
21117,8688,41971
21092,8668,41935
21069,8650,41903
21053,8639,41877
21036,8628,41851
21017,8612,41823
21005,8596,41800
21000,8584,41780
20989,8568,41752
20969,8547,41715
20948,8530,41681
20928,8518,41653
20903,8501,41622
20874,8480,41589
20852,8470,41561
20838,8467,41534
20822,8455,41500
20807,8441,41472
20806,8437,41460
20810,8439,41460
20813,8444,41467
20824,8459,41494
20859,8496,41553
20919,8555,41645
20998,8628,41773
21101,8722,41949
21238,8849,42184
21403,9006,42474
21593,9184,42812
21810,9384,43199
22055,9614,43634
22318,9860,44101
22586,10105,44583
22851,10347,45069
23111,10587,45551
23356,10811,46006
23574,11007,46416
23768,11180,46780
23940,11333,47097
24080,11458,47360
24184,11545,47559
24258,11603,47702
24312,11642,47792
24337,11657,47823
24332,11646,47801
24308,11619,47743
24271,11583,47658
24214,11529,47542
24134,11459,47403
24042,11385,47254
23948,11311,47101
23852,11229,46937
23754,11140,46765
23662,11060,46598
23575,10987,46438
23487,10913,46278
23400,10837,46122
23321,10768,45981
23250,10709,45851
23180,10652,45727
23111,10596,45611
23053,10547,45510
23006,10503,45417
22954,10458,45326
22902,10416,45241
22856,10383,45166
22814,10354,45097
22765,10316,45025
22713,10275,44953
22672,10244,44887
22636,10217,44820
22594,10184,44746
22551,10148,44672
22512,10116,44603
22472,10084,44534
22425,10046,44462
22381,10006,44395
22345,9975,44334
22311,9950,44279
22274,9922,44226
22241,9895,44178
22216,9875,44137
22190,9856,44101
22164,9836,44069
22144,9825,44048
22136,9823,44039
22134,9821,44036
22138,9815,44038
22153,9818,44054
22180,9835,44080
22207,9856,44107
22229,9874,44133
22252,9895,44167
22277,9922,44210
22298,9946,44254
22316,9967,44296
22341,9996,44346
22369,10030,44399
22390,10056,44441
22404,10075,44471
22424,10097,44501
22440,10115,44528
22443,10119,44543
22438,10115,44548
22435,10116,44552
22434,10112,44547
22427,10096,44522
22416,10076,44485
22407,10061,44448
22387,10040,44403
22352,10006,44344
22314,9968,44279
22279,9937,44218
22242,9907,44155
22199,9870,44084
22156,9830,44011
22124,9798,43948
22095,9768,43886
22061,9734,43819
22028,9700,43750
21998,9671,43683
21962,9637,43612
21916,9592,43536
21872,9546,43464
21840,9510,43403
21811,9475,43342
21779,9438,43274
21748,9407,43209
21724,9385,43149
21700,9362,43087
21671,9335,43022
21643,9314,42963
21621,9300,42911
21597,9282,42856
21568,9254,42797
21543,9229,42748
21524,9209,42709
21500,9185,42666
21471,9156,42617
21448,9136,42573
21431,9125,42533
21412,9109,42489
21392,9090,42444
21380,9074,42410
21367,9059,42383
21345,9035,42350
21317,9010,42317
21297,8998,42297
21282,8994,42282
21263,8981,42256
21245,8963,42225
21237,8951,42199
21230,8940,42173
21220,8924,42141
21210,8906,42111
21202,8893,42087
21188,8879,42063
21166,8860,42036
21144,8842,42015
21130,8834,42006
21122,8829,41999
21116,8820,41997
21123,8822,42014
21149,8848,42064
21191,8893,42144
21255,8957,42257
21353,9055,42422
21490,9189,42648
21657,9348,42928
21848,9526,43254
22071,9727,43634
22324,9957,44070
22591,10199,44541
22862,10443,45031
23137,10690,45534
23409,10936,46033
23663,11166,46502
23896,11376,46932
24111,11570,47323
24304,11742,47667
24464,11878,47945
24584,11974,48155
24674,12044,48314
24737,12095,48427
24768,12119,48486
24775,12118,48497
24770,12109,48472
24749,12090,48414
24701,12045,48317
24631,11980,48187
24553,11910,48045
24466,11832,47889
24363,11738,47715
24251,11639,47535
24145,11549,47358
24045,11466,47179
23946,11382,46997
23854,11301,46823
23774,11232,46665
23700,11168,46519
23623,11106,46376
23549,11051,46245
23484,11005,46132
23421,10956,46027
23353,10897,45924
23294,10842,45834
23250,10800,45764
23207,10761,45697
23159,10718,45620
23118,10680,45542
23084,10650,45468
23044,10613,45388
22993,10568,45301
22943,10528,45219
22897,10493,45143
22846,10451,45062
22790,10400,44975
22741,10356,44894
22699,10320,44820
22659,10281,44741
22619,10241,44661
22588,10212,44598
22565,10194,44554
22543,10177,44517
22523,10162,44485
22511,10160,44470
22502,10164,44468
22491,10165,44471
22487,10170,44479
22499,10187,44501
22519,10211,44532
22534,10232,44561
22550,10254,44594
22578,10285,44639
22612,10319,44688
22644,10346,44731
22674,10368,44773
22709,10394,44817
22740,10418,44855
22757,10432,44881
22767,10440,44900
22777,10450,44919
22780,10454,44931
22771,10445,44931
22758,10433,44929
22747,10423,44931
22728,10404,44926
22702,10378,44910
22683,10361,44891
22673,10354,44873
22662,10345,44848
22646,10332,44815
22632,10323,44783
22620,10318,44754
22601,10306,44721
22571,10285,44679
22541,10262,44636
22514,10242,44592
22483,10220,44538
22446,10191,44473
22409,10159,44407
22378,10129,44344
22344,10091,44273
22307,10046,44194
22275,10004,44116
22246,9967,44040
22212,9930,43961
22173,9893,43882
22138,9866,43817
22105,9845,43762
22065,9816,43707
22021,9781,43650
21988,9752,43603
21962,9724,43561
21928,9690,43513
21890,9654,43460
21860,9627,43411
21837,9603,43361
21810,9573,43308
21785,9545,43256
21769,9530,43211
21753,9519,43165
21733,9501,43116
21714,9483,43072
21700,9473,43040
21683,9460,43012
21657,9437,42977
21634,9414,42942
21621,9398,42915
21608,9383,42888
21587,9361,42852
21569,9343,42814
21557,9336,42783
21539,9328,42755
21511,9312,42730
21486,9296,42712
21472,9286,42702
21461,9274,42692
21448,9256,42676
21442,9240,42656
21443,9230,42632
21440,9218,42597
21431,9204,42553
21421,9197,42518
21412,9195,42494
21397,9186,42468
21376,9172,42440
21360,9165,42420
21350,9163,42404
21335,9151,42381
21318,9134,42356
21309,9125,42342
21305,9122,42337
21298,9117,42337
21298,9116,42353
21323,9132,42401
21372,9171,42481
21434,9229,42593
21519,9311,42747
21638,9427,42958
21790,9569,43226
21970,9734,43546
22186,9928,43924
22440,10159,44360
22719,10417,44839
23006,10683,45340
23296,10952,45857
23586,11222,46381
23863,11478,46889
24113,11707,47360
24340,11911,47789
24545,12094,48169
24715,12244,48480
24846,12353,48716
24946,12435,48897
25020,12501,49033
25060,12539,49114
25066,12540,49139
25053,12521,49126
25027,12492,49080
24981,12446,48993
24918,12385,48871
24851,12322,48736
24780,12261,48593
24699,12190,48432
24608,12107,48257
24516,12024,48083
24425,11943,47915
24327,11856,47740
24224,11765,47561
24126,11677,47390
24032,11590,47227
23939,11501,47063
23852,11418,46904
23778,11352,46760
23712,11299,46632
23646,11249,46512
23584,11203,46400
23536,11171,46304
23493,11145,46219
23443,11108,46132
23389,11065,46045
23338,11025,45966
23284,10984,45890
23225,10937,45811
23167,10887,45730
23115,10842,45654
23063,10799,45578
23004,10748,45497
22949,10700,45418
22906,10664,45349
22870,10632,45281
22835,10596,45210
22804,10563,45141
22779,10537,45081
22754,10512,45027
22727,10483,44977
22705,10458,44938
22689,10444,44911
22674,10432,44887
22656,10417,44863
22645,10411,44851
22643,10418,44856
22644,10429,44866
22651,10442,44880
22672,10464,44907
22698,10492,44945
22716,10516,44985
22730,10537,45026
22754,10564,45079
22784,10593,45137
22811,10615,45189
22833,10632,45234
22860,10654,45278
22888,10679,45316
22906,10692,45340
22917,10693,45352
22929,10699,45359
22936,10706,45362
22926,10701,45353
22904,10688,45336
22886,10681,45320
22871,10675,45304
22849,10661,45274
22823,10642,45236
22800,10626,45200
22776,10606,45158
22747,10578,45105
22718,10551,45048
22694,10532,44999
22667,10511,44951
22629,10479,44895
22589,10444,44837
22556,10414,44783
22526,10383,44727
22495,10344,44665
22468,10307,44605
22444,10275,44546
22415,10243,44482
22376,10206,44409
22337,10170,44336
22299,10138,44268
22258,10104,44195
22213,10068,44116
22170,10033,44039
22130,10000,43972
22091,9965,43906
22050,9927,43843
22010,9892,43785
21976,9862,43730
21941,9829,43668
21905,9796,43603
21873,9771,43550
21847,9753,43504
21819,9733,43457
21790,9710,43409
21767,9695,43368
21746,9685,43331
21724,9670,43291
21704,9657,43256
21694,9655,43230
21687,9654,43209
21674,9646,43184
21656,9632,43160
21642,9621,43143
21630,9609,43124
21612,9587,43099
21593,9564,43074
21577,9547,43051
21562,9531,43023
21543,9512,42986
21527,9497,42951
21518,9489,42924
21512,9480,42898
21499,9463,42866
21484,9444,42837
21478,9435,42819
21473,9429,42805
21458,9415,42787
21440,9402,42775
21426,9393,42768
21411,9384,42754
21391,9369,42730
21371,9356,42704
21354,9352,42683
21333,9344,42661
21308,9328,42641
21293,9313,42625
21288,9304,42609
21280,9293,42586
21268,9283,42563
21261,9281,42553
21264,9289,42555
21269,9291,42563
21275,9292,42578
21295,9307,42615
21331,9342,42675
21377,9389,42755
21440,9457,42871
21536,9554,43042
21665,9680,43270
21819,9826,43551
22001,9997,43886
22216,10200,44278
22458,10426,44717
22720,10659,45188
22994,10900,45681
23277,11150,46189
23557,11399,46692
23825,11636,47173
24081,11861,47623
24317,12074,48037
24523,12262,48402
24690,12415,48705
24824,12535,48947
24931,12632,49140
25008,12702,49284
25054,12741,49372
25076,12757,49413
25078,12755,49417
25055,12734,49379
25007,12691,49294
24949,12635,49178
24883,12570,49046
24801,12492,48893
24702,12400,48716
24602,12309,48531
24508,12227,48347
24410,12145,48156
24310,12060,47964
24217,11980,47784
24130,11905,47618
24042,11827,47455
23955,11748,47297
23878,11683,47155
23810,11625,47030
23741,11564,46909
23670,11505,46792
23606,11455,46688
23550,11414,46594
23494,11371,46500
23436,11328,46408
23386,11294,46333
23343,11264,46270
23295,11226,46203
23240,11185,46133
23188,11148,46061
23138,11109,45987
23082,11064,45907
23022,11019,45824
22971,10978,45748
22927,10938,45675
22883,10895,45598
22839,10854,45525
22799,10822,45463
22761,10793,45407
22723,10757,45352
22693,10722,45302
22674,10696,45267
22657,10674,45241
22634,10648,45214
22613,10630,45190
22607,10627,45176
22609,10631,45170
22615,10633,45174
22633,10642,45195
22665,10658,45231
22692,10676,45273
22706,10692,45317
22719,10709,45365
22738,10732,45418
22758,10753,45464
22777,10771,45504
22801,10792,45542
22825,10816,45575
22842,10833,45594
22854,10843,45604
22866,10852,45611
22874,10857,45609
22867,10850,45591
22851,10835,45561
22835,10824,45531
22819,10811,45496
22798,10787,45449
22770,10757,45393
22744,10730,45339
22715,10704,45285
22681,10671,45222
22642,10634,45154
22605,10606,45090
22565,10579,45027
22516,10537,44954
22466,10488,44875
22424,10443,44801
22386,10404,44727
22348,10364,44649
22318,10329,44572
22292,10302,44505
22262,10273,44439
22224,10238,44366
22187,10203,44294
22159,10178,44231
22134,10152,44169
22102,10115,44100
22071,10081,44039
22046,10059,43990
22018,10037,43944
21984,10008,43897
21952,9985,43855
21925,9969,43821
21896,9949,43782
21867,9924,43738
21843,9904,43701
21826,9888,43670
21807,9861,43633
21784,9826,43591
21761,9798,43558
21740,9778,43530
21720,9758,43495
21702,9738,43457
21691,9725,43425
21679,9715,43394
21659,9697,43351
21631,9673,43305
21604,9658,43268
21578,9652,43239
21547,9639,43207
21513,9621,43174
21486,9606,43148
21462,9593,43123
21437,9576,43092
21415,9563,43061
21401,9557,43038
21392,9554,43023
21381,9540,43006
21370,9524,42991
21366,9515,42983
21366,9512,42972
21362,9508,42954
21357,9503,42937
21354,9501,42925
21346,9496,42913
21330,9487,42899
21312,9479,42890
21299,9477,42889
21286,9477,42889
21272,9469,42881
21264,9460,42869
21265,9460,42861
21264,9458,42850
21257,9449,42835
21254,9448,42828
21262,9460,42837
21273,9476,42854
21292,9496,42885
21331,9534,42948
21395,9601,43051
21482,9687,43194
21593,9791,43385
21741,9927,43639
21928,10098,43957
22141,10290,44326
22375,10498,44740
22634,10729,45200
22908,10972,45690
23179,11215,46187
23443,11457,46681
23705,11700,47172
23957,11932,47641
24183,12137,48066
24381,12316,48443
24560,12475,48773
24713,12611,49046
24831,12713,49253
24915,12783,49398
24970,12829,49492
24995,12849,49531
24984,12838,49512
24950,12803,49451
24905,12757,49364
24847,12700,49246
24770,12628,49097
24681,12548,48932
24587,12466,48760
24486,12378,48579
24376,12286,48388
24266,12198,48200
24164,12121,48025
24063,12046,47858
23961,11966,47693
23870,11890,47536
23795,11819,47390
23721,11746,47243
23641,11668,47092
23564,11596,46952
23493,11532,46827
23422,11469,46711
23350,11408,46600
23286,11357,46505
23230,11315,46424
23177,11273,46345
23129,11229,46269
23085,11188,46197
23039,11147,46120
22989,11099,46033
22940,11049,45946
22897,11006,45869
22855,10970,45800
22810,10928,45727
22764,10884,45656
22729,10851,45592
22699,10824,45530
22668,10795,45465
22644,10770,45404
22630,10751,45358
22616,10730,45323
22596,10705,45292
22574,10686,45269
22558,10681,45259
22549,10683,45256
22540,10686,45253
22538,10695,45262
22546,10714,45286
22555,10731,45312
22561,10741,45332
22573,10752,45358
22591,10770,45393
22606,10789,45430
22612,10802,45463
22620,10820,45502
22640,10848,45549
22661,10870,45588
22673,10875,45612
22681,10872,45628
22694,10871,45637
22707,10866,45639
22714,10858,45633
22721,10854,45624
22724,10854,45613
22712,10848,45590
22691,10832,45558
22670,10815,45523
22648,10800,45486
22616,10780,45440
22579,10756,45387
22549,10739,45339
22525,10725,45291
22494,10702,45234
22457,10673,45171
22425,10651,45115
22398,10631,45061
22369,10599,44997
22336,10557,44929
22310,10523,44865
22285,10496,44799
22253,10464,44723
22218,10428,44645
22187,10401,44575
22156,10376,44508
22122,10344,44434
22091,10310,44362
22063,10283,44299
22030,10253,44238
21985,10210,44172
21938,10166,44112
21901,10130,44066
21869,10098,44025
21834,10063,43979
21795,10032,43932
21759,10011,43891
21728,9992,43850
21699,9969,43807
21679,9951,43769
21667,9940,43737
21655,9927,43704
21636,9907,43666
21619,9886,43634
21605,9871,43610
21584,9856,43579
21553,9833,43539
21524,9814,43502
21501,9801,43470
21475,9781,43433
21447,9753,43395
21423,9731,43366
21401,9718,43343
21379,9704,43319
21361,9691,43293
21356,9685,43273
21357,9678,43253
21351,9661,43225
21341,9645,43197
21337,9642,43180
21336,9644,43169
21329,9637,43150
21318,9626,43128
21312,9623,43112
21304,9619,43097
21288,9606,43075
21270,9588,43054
21260,9577,43039
21254,9570,43025
21245,9560,43006
21241,9555,42997
21251,9568,43012
21278,9595,43053
21320,9635,43122
21387,9697,43233
21487,9791,43399
21611,9914,43616
21757,10060,43879
21932,10232,44198
22137,10431,44573
22365,10646,44989
22610,10869,45438
22874,11104,45917
23150,11347,46411
23419,11584,46899
23673,11809,47369
23915,12027,47814
24142,12238,48226
24342,12424,48588
24506,12578,48891
24641,12704,49138
24747,12802,49327
24815,12869,49456
24852,12906,49533
24869,12925,49567
24865,12924,49558
24834,12895,49498
24781,12844,49398
24719,12785,49276
24650,12719,49138
24566,12636,48978
24470,12541,48802
24375,12445,48614
24278,12347,48417
24172,12243,48210
24062,12139,48001
23960,12046,47803
23863,11959,47617
23760,11868,47433
23657,11778,47255
23564,11702,47096
23476,11636,46953
23386,11570,46822
23305,11507,46706
23237,11452,46608
23171,11397,46514
23102,11338,46417
23041,11284,46325
22992,11240,46239
22944,11195,46149
22887,11144,46051
22829,11098,45955
22775,11061,45869
22721,11022,45785
22661,10974,45699
22605,10927,45617
22561,10888,45538
22518,10848,45458
22474,10802,45380
22439,10760,45315
22412,10724,45258
22386,10692,45204
22356,10662,45153
22329,10640,45111
22311,10624,45082
22296,10609,45056
22280,10595,45032
22275,10591,45022
22278,10595,45024
22282,10600,45032
22289,10610,45049
22308,10634,45077
22331,10663,45110
22348,10681,45137
22362,10694,45164
22383,10716,45206
22404,10740,45256
22413,10754,45295
22415,10762,45324
22419,10774,45354
22423,10784,45383
22421,10783,45400
22419,10777,45411
22422,10776,45420
22421,10774,45419
22412,10764,45408
22405,10753,45391
22401,10747,45369
22393,10739,45333
22376,10725,45285
22357,10708,45236
22340,10696,45192
22318,10677,45148
22283,10646,45097
22247,10611,45045
22213,10580,44997
22176,10548,44943
22135,10511,44879
22096,10477,44816
22065,10448,44756
22036,10417,44694
22004,10383,44626
21974,10351,44562
21947,10323,44500
21912,10288,44432
21872,10244,44361
21833,10204,44296
21791,10172,44232
21741,10134,44161
21694,10091,44089
21660,10055,44028
21635,10025,43973
21608,9990,43911
21581,9954,43847
21563,9929,43792
21548,9911,43744
21524,9886,43694
21495,9857,43647
21471,9838,43607
21450,9824,43568
21427,9804,43526
21406,9781,43485
21392,9766,43450
21377,9756,43418
21356,9740,43380
21337,9722,43344
21324,9709,43315
21312,9695,43285
21297,9678,43249
21285,9662,43217
21279,9654,43192
21272,9647,43165
21258,9634,43134
21244,9624,43107
21229,9621,43086
21210,9614,43063
21186,9597,43034
21165,9578,43008
21152,9567,42990
21140,9557,42972
21123,9543,42949
21108,9535,42927
21100,9534,42910
21095,9535,42893
21088,9536,42881
21092,9545,42883
21111,9563,42903
21139,9587,42938
21180,9621,42997
21248,9676,43096
21341,9756,43241
21454,9856,43434
21589,9981,43683
21755,10142,43997
21955,10334,44369
22180,10547,44784
22428,10782,45241
22703,11040,45738
22986,11305,46250
23256,11556,46753
23514,11792,47236
23761,12016,47693
23987,12217,48106
24175,12381,48457
24330,12510,48745
24461,12617,48980
24562,12697,49157
24627,12740,49273
24662,12755,49336
24678,12751,49355
24671,12727,49327
24639,12684,49256
24593,12634,49154
24539,12585,49031
24472,12529,48886
24389,12458,48718
24299,12380,48539
24210,12305,48358
24112,12223,48169
24005,12130,47970
23901,12041,47775
23801,11959,47591
23698,11872,47407
23593,11782,47228
23496,11700,47065
23412,11626,46920
23333,11553,46783
23261,11483,46655
23199,11426,46544
23141,11379,46450
23079,11332,46358
23011,11283,46266
22947,11240,46182
22887,11203,46102
22827,11158,46015
22768,11105,45925
22714,11058,45842
22661,11015,45760
22602,10966,45673
22545,10914,45585
22503,10873,45506
22475,10839,45434
22447,10799,45357
22418,10756,45280
22392,10724,45212
22367,10701,45150
22336,10674,45085
22303,10647,45026
22275,10628,44985
22248,10614,44959
22218,10597,44937
22197,10584,44922
22192,10583,44923
22196,10588,44937
22200,10588,44950
22208,10592,44966
22226,10611,44994
22245,10631,45029
22259,10644,45063
22278,10662,45100
22306,10691,45145
22331,10719,45187
22350,10736,45223
22371,10753,45261
22399,10778,45303
22424,10799,45338
22436,10808,45362
22447,10817,45379
22458,10825,45390
22458,10820,45381
22446,10802,45357
22432,10786,45328
22417,10775,45296
22393,10760,45257
22362,10741,45213
22334,10725,45170
22308,10711,45130
22277,10689,45082
22242,10664,45031
22210,10641,44985
22178,10616,44938
22139,10580,44881
22102,10542,44822
22075,10514,44771
22050,10492,44725
22016,10465,44674
21981,10434,44621
21955,10410,44575
21935,10390,44529
21908,10362,44472
21879,10331,44409
21853,10306,44348
21822,10279,44284
21780,10245,44216
21736,10207,44149
21699,10176,44088
21663,10144,44028
21625,10106,43963
21590,10070,43905
21563,10045,43859
21538,10022,43814
21509,9992,43765
21482,9965,43723
21465,9951,43694
21448,9939,43665
21424,9921,43635
21404,9905,43609
21389,9891,43585
21369,9867,43551
21343,9832,43508
21318,9798,43465
21293,9769,43425
21264,9739,43383
21233,9711,43341
21211,9691,43305
21197,9680,43274
21183,9674,43244
21172,9669,43217
21168,9669,43199
21165,9666,43185
21157,9656,43166
21147,9646,43143
21142,9643,43124
21137,9643,43106
21122,9634,43081
21100,9618,43055
21086,9606,43032
21078,9598,43013
21064,9589,42994
21041,9581,42977
21024,9577,42964
21013,9574,42955
21003,9569,42953
21004,9572,42971
21026,9597,43016
21070,9642,43088
21131,9700,43191
21218,9779,43336
21342,9891,43536
21499,10031,43791
21678,10192,44095
21887,10381,44457
22126,10602,44879
22380,10845,45345
22643,11102,45842
22921,11366,46361
23207,11630,46889
23485,11883,47400
23744,12115,47881
23983,12330,48323
24199,12526,48716
24385,12691,49047
24536,12816,49311
24658,12911,49514
24753,12982,49661
24812,13024,49750
24834,13040,49786
24831,13040,49782
24807,13024,49739
24762,12984,49653
24703,12927,49537
24640,12868,49409
24568,12806,49269
24479,12731,49108
24380,12643,48932
24283,12554,48755
24188,12465,48576
24086,12369,48385
23982,12272,48192
23886,12181,48008
23794,12091,47831
23699,12000,47658
23609,11916,47498
23530,11847,47357
23456,11785,47227
23384,11721,47102
23318,11665,46993
23261,11624,46903
23207,11590,46822
23153,11551,46738
23104,11512,46656
23066,11484,46582
23029,11454,46509
22982,11410,46427
22930,11362,46343
22879,11319,46263
22821,11274,46178
22755,11223,46087
22694,11173,45999
22644,11133,45918
22596,11092,45835
22546,11043,45747
22502,10999,45668
22472,10966,45601
22441,10933,45537
22404,10897,45475
22372,10869,45430
22351,10852,45398
22334,10837,45369
22324,10827,45347
22329,10833,45344
22345,10850,45355
22362,10864,45368
22380,10877,45386
22404,10898,45420
22428,10925,45464
22447,10946,45505
22464,10963,45545
22487,10985,45589
22513,11008,45631
22534,11027,45667
22554,11047,45704
22578,11073,45747
22600,11096,45787
22613,11107,45811
22621,11108,45821
22625,11110,45827
22623,11108,45825
22609,11095,45808
22588,11078,45784
22572,11063,45762
22556,11045,45735
22535,11020,45697
22515,10998,45657
22500,10983,45617
22479,10965,45570
22447,10936,45511
22410,10900,45446
22375,10869,45381
22340,10834,45312
22297,10791,45240
22253,10748,45172
22214,10709,45108
22172,10665,45038
22125,10616,44966
22078,10573,44898
22032,10535,44830
21980,10493,44755
21924,10447,44674
21875,10407,44597
21831,10371,44524
21781,10329,44445
21726,10281,44362
21677,10237,44288
21633,10196,44221
21589,10152,44153
21544,10110,44086
21506,10081,44029
21472,10058,43980
21435,10031,43926
21404,10002,43870
21382,9978,43820
21363,9957,43774
21338,9929,43728
21313,9899,43685
21293,9877,43647
21271,9856,43609
21247,9832,43569
21227,9814,43532
21214,9805,43503
21196,9796,43474
21169,9780,43441
21142,9764,43412
21124,9755,43393
21109,9747,43377
21089,9732,43358
21068,9719,43342
21051,9715,43332
21036,9710,43320
21019,9695,43305
21006,9678,43290
21002,9666,43274
21002,9657,43255
20999,9647,43233
20999,9641,43215
21000,9640,43199
20994,9633,43178
20978,9619,43152
20964,9608,43128
20950,9600,43108
20929,9583,43081
20903,9558,43048
20881,9540,43020
20866,9532,42997
20851,9522,42975
20840,9510,42956
20843,9510,42953
20859,9523,42968
20883,9543,42997
20921,9581,43046
20984,9649,43133
21067,9742,43268
21168,9847,43453
21297,9972,43692
21466,10132,43989
21668,10321,44339
21891,10529,44732
22134,10758,45167
22403,11010,45645
22685,11271,46150
22966,11526,46660
23241,11774,47161
23504,12010,47640
23740,12220,48077
23945,12397,48460
24123,12547,48786
24275,12675,49058
24392,12774,49270
24472,12842,49418
24524,12888,49511
24555,12920,49560
24560,12931,49563
24536,12916,49520
24497,12884,49445
24448,12840,49349
24389,12782,49228
24315,12713,49084
24232,12643,48930
24146,12577,48771
24052,12503,48603
23952,12420,48422
23856,12339,48243
23767,12262,48074
23676,12178,47906
23584,12089,47737
23502,12007,47578
23430,11937,47434
23357,11867,47294
23284,11796,47156
23220,11732,47033
23159,11675,46922
23098,11618,46813
23045,11564,46710
23006,11518,46629
22972,11477,46561
22927,11433,46492
22878,11392,46423
22834,11362,46362
22791,11336,46303
22742,11305,46237
22694,11274,46170
22652,11246,46104
22611,11217,46034
22566,11180,45955
22523,11140,45876
22488,11108,45808
22453,11079,45744
22410,11044,45675
22368,11007,45609
22339,10982,45556
22315,10966,45511
22292,10953,45469
22279,10945,45438
22275,10947,45423
22272,10948,45413
22265,10944,45401
22263,10943,45393
22267,10952,45397
22271,10961,45405
22269,10961,45413
22272,10964,45431
22281,10977,45460
22289,10988,45491
22296,10998,45521
22311,11016,45559
22334,11038,45599
22354,11053,45630
22370,11060,45654
22386,11066,45677
22400,11070,45694
22403,11063,45694
22397,11050,45680
22389,11041,45664
22377,11033,45644
22356,11016,45615
22331,10995,45583
22310,10978,45553
22288,10964,45518
22260,10943,45470
22232,10917,45417
22213,10895,45367
22196,10872,45319
22170,10838,45262
22135,10804,45200
22100,10779,45141
22066,10758,45080
22028,10727,45006
21992,10691,44926
21963,10660,44851
21932,10630,44780
21890,10596,44702
21848,10563,44627
21816,10533,44562
21782,10492,44497
21741,10435,44427
21702,10385,44365
21670,10350,44315
21636,10316,44264
21594,10275,44206
21556,10237,44150
21526,10210,44098
21496,10181,44040
21464,10148,43975
21434,10121,43915
21405,10104,43863
21372,10088,43813
21336,10067,43765
21304,10046,43726
21280,10025,43689
21253,9998,43646
21225,9970,43601
21205,9949,43563
21198,9934,43527
21189,9909,43483
21172,9876,43434
21158,9847,43394
21149,9824,43357
21132,9802,43311
21108,9777,43264
21089,9761,43225
21073,9747,43192
21054,9725,43154
21035,9700,43117
21025,9683,43093
21018,9672,43078
21004,9656,43060
20987,9638,43042
20971,9625,43026
20954,9614,43004
20931,9596,42975
20906,9576,42945
20892,9564,42921
20880,9554,42896
20862,9536,42864
20845,9517,42834
20834,9507,42811
20821,9500,42789
20805,9486,42764
20790,9475,42740
20783,9473,42724
20778,9475,42709
20775,9474,42702
20785,9484,42716
20812,9510,42755
20847,9545,42814
20892,9589,42893
20962,9657,43001
21058,9750,43143
21172,9858,43318
21306,9983,43538
21472,10138,43819
21671,10327,44162
21891,10538,44551
22128,10763,44978
22386,11007,45442
22657,11260,45930
22928,11505,46416
23194,11742,46890
23451,11975,47347
23688,12190,47769
23891,12368,48136
24060,12510,48450
24201,12630,48718
24310,12729,48933
24381,12795,49083
24423,12834,49175
24445,12855,49222
24442,12854,49217
24411,12826,49161
24363,12782,49071
24307,12733,48960
24238,12673,48825
24151,12594,48663
24056,12505,48488
23963,12417,48315
23866,12329,48142
23764,12236,47964
23667,12151,47791
23576,12076,47630
23479,12000,47469
23378,11918,47304
23287,11842,47147
23209,11777,47007
23137,11716,46876
23069,11656,46754
23015,11605,46649
22970,11565,46558
22922,11525,46467
22869,11481,46374
22822,11445,46289
22780,11413,46211
22734,11372,46128
22683,11324,46043
22640,11281,45963
22604,11238,45885
22563,11185,45799
22518,11127,45709
22481,11079,45631
22447,11038,45562
22405,10994,45486
22361,10950,45406
22324,10917,45334
22293,10894,45267
22260,10869,45201
22230,10848,45142
22209,10834,45099
22190,10824,45069
22170,10812,45042
22156,10800,45022
22155,10798,45016
22160,10803,45020
22162,10807,45029
22170,10814,45048
22186,10831,45080
22203,10848,45116
22218,10862,45147
22237,10881,45182
22266,10913,45227
22297,10942,45274
22321,10957,45314
22338,10967,45353
22350,10989,45398
22354,11011,45438
22351,11022,45459
22354,11032,45468
22364,11050,45477
22373,11057,45479
22378,11045,45470
22382,11033,45457
22384,11027,45439
22377,11017,45412
22362,10999,45377
22345,10983,45342
22330,10971,45307
22309,10957,45267
22284,10938,45224
22260,10922,45189
22238,10906,45155
22207,10878,45110
22175,10844,45057
22152,10817,45009
22135,10793,44964
22108,10760,44910
22077,10724,44849
22049,10696,44790
22019,10670,44728
21978,10636,44657
21933,10600,44589
21898,10573,44533
21870,10552,44483
21838,10526,44431
21806,10497,44380
21783,10473,44334
21762,10452,44290
21738,10427,44239
21710,10405,44187
21685,10391,44143
21655,10375,44100
21621,10349,44051
21589,10321,44002
21567,10299,43961
21544,10274,43923
21515,10241,43885
21488,10210,43852
21464,10187,43822
21437,10165,43783
21408,10142,43739
21383,10122,43701
21358,10107,43670
21331,10091,43636
21307,10072,43602
21291,10061,43577
21280,10057,43561
21267,10052,43541
21254,10043,43518
21247,10039,43501
21244,10040,43489
21238,10036,43472
21233,10027,43451
21230,10021,43437
21229,10019,43423
21220,10008,43399
21207,9991,43371
21199,9980,43349
21191,9971,43332
21175,9958,43311
21159,9945,43291
21146,9940,43283
21131,9934,43274
21106,9914,43252
21080,9889,43227
21062,9872,43208
21048,9857,43191
21034,9843,43175
21027,9843,43174
21036,9864,43198
21061,9900,43245
21100,9947,43317
21166,10016,43428
21263,10114,43586
21384,10237,43787
21522,10374,44028
21688,10531,44316
21888,10715,44651
22109,10916,45026
22343,11126,45436
22595,11351,45879
22858,11589,46346
23117,11826,46816
23363,12052,47271
23597,12265,47704
23814,12462,48104
23996,12629,48451
24141,12763,48737
24259,12873,48970
24352,12962,49150
24414,13021,49270
24446,13049,49334
24459,13057,49357
24454,13047,49339
24424,13011,49275
24370,12953,49176
24306,12890,49061
24231,12823,48929
24139,12740,48771
24036,12648,48593
23935,12557,48412
23836,12467,48229
23728,12368,48032
23614,12263,47825
23509,12170,47628
23409,12083,47447
23306,11995,47276
23210,11908,47114
23129,11834,46967
23054,11768,46831
22979,11700,46702
22915,11640,46589
22868,11594,46496
22825,11552,46414
22778,11505,46333
22734,11461,46255
22696,11428,46186
22659,11398,46118
22615,11362,46045
22573,11327,45975
22534,11300,45911
22491,11273,45840
22442,11237,45758
22393,11197,45674
22349,11162,45599
22309,11129,45527
22272,11094,45456
22242,11065,45395
22214,11040,45346
22183,11011,45301
22155,10980,45257
22136,10958,45227
22126,10950,45209
22119,10948,45195
22112,10949,45185
22114,10958,45187
22122,10974,45201
22127,10988,45220
22135,11005,45248
22158,11033,45292
22190,11065,45346
22218,11086,45391
22243,11104,45429
22275,11128,45470
22309,11154,45514
22334,11172,45551
22352,11187,45583
22372,11209,45618
22387,11231,45652
22387,11241,45673
22383,11241,45685
22385,11243,45700
22391,11245,45713
22387,11236,45712
22377,11222,45696
22370,11218,45683
22362,11215,45668
22346,11200,45640
22333,11182,45611
22328,11170,45590
22316,11153,45564
22291,11128,45526
22268,11108,45487
22254,11095,45454
22235,11079,45416
22206,11055,45370
22179,11032,45323
22156,11017,45280
22130,10999,45230
22099,10977,45172
22074,10961,45118
22054,10948,45068
22028,10927,45014
21996,10899,44954
21967,10874,44899
21943,10854,44854
21916,10828,44806
21882,10795,44755
21855,10769,44712
21837,10750,44675
21817,10727,44635
21798,10702,44591
21784,10687,44555
21772,10678,44523
21750,10660,44478
21723,10633,44426
21702,10611,44380
21687,10587,44336
21665,10555,44284
21641,10522,44230
21622,10498,44186
21602,10475,44144
21578,10444,44096
21554,10409,44044
21535,10383,43997
21514,10359,43950
21481,10326,43892
21443,10289,43832
21408,10258,43781
21376,10230,43736
21345,10200,43687
21320,10175,43638
21309,10162,43601
21299,10150,43571
21282,10130,43536
21266,10112,43503
21256,10099,43475
21242,10083,43440
21224,10064,43398
21212,10056,43365
21208,10064,43346
21204,10069,43331
21202,10064,43317
21208,10061,43315
21222,10068,43330
21242,10078,43354
21268,10093,43387
21308,10128,43447
21365,10186,43540
21436,10259,43664
21531,10353,43829
21657,10480,44047
21810,10637,44315
21983,10811,44621
22177,11002,44967
22395,11217,45360
22629,11446,45788
22866,11672,46228
23103,11894,46674
23342,12117,47127
23574,12329,47567
23781,12519,47972
23966,12688,48339
24133,12844,48669
24276,12982,48952
24384,13089,49177
24461,13166,49348
24516,13222,49473
24543,13251,49549
24537,13251,49571
24508,13232,49549
24467,13205,49497
24413,13165,49415
24343,13107,49299
24267,13040,49160
24190,12975,49011
24107,12904,48854
24013,12821,48687
23915,12732,48518
23822,12647,48350
23728,12565,48181
23630,12484,48016
23539,12408,47865
23461,12342,47730
23387,12277,47599
23313,12213,47475
23251,12161,47366
23197,12119,47270
23144,12076,47180
23091,12029,47094
23044,11987,47017
22999,11951,46944
22946,11910,46866
22892,11866,46784
22851,11833,46710
22819,11806,46641
22783,11773,46564
22744,11732,46482
22706,11695,46405
22668,11664,46327
22622,11626,46242
22575,11587,46157
22535,11551,46081
22497,11514,46009
22455,11470,45937
22417,11433,45874
22391,11411,45830
22368,11396,45798
22344,11379,45767
22328,11366,45748
22326,11366,45748
22332,11372,45759
22338,11379,45771
22350,11391,45790
22370,11411,45820
22387,11429,45847
22399,11441,45872
22414,11457,45905
22435,11480,45950
22452,11500,45996
22464,11512,46040
22479,11526,46088
22504,11549,46136
22529,11567,46173
22545,11574,46196
22560,11578,46212
22574,11583,46220
22583,11581,46214
22583,11571,46195
22581,11563,46175
22578,11559,46155
22569,11553,46127
22552,11540,46093
22533,11527,46061
22516,11514,46029
22494,11494,45989
22470,11472,45944
22452,11456,45901
22431,11439,45850
22395,11407,45784
22352,11367,45711
22317,11337,45645
22284,11313,45582
22245,11280,45512
22202,11241,45437
22166,11204,45370
22135,11164,45305
22099,11117,45234
22062,11070,45163
22033,11035,45101
22006,11003,45042
21973,10967,44979
21939,10933,44921
21909,10909,44872
21877,10886,44827
21842,10859,44782
21812,10836,44743
21789,10819,44712
21768,10799,44678
21742,10771,44637
21718,10744,44592
21698,10721,44547
21675,10697,44498
21645,10668,44446
21619,10645,44402
21601,10632,44368
21582,10616,44332
21560,10592,44293
21541,10571,44257
21521,10557,44223
21496,10541,44184
21470,10518,44142
21449,10498,44108
21431,10487,44085
21408,10470,44060
21378,10448,44031
21354,10433,44007
21336,10426,43988
21320,10416,43965
21306,10403,43942
21301,10397,43929
21298,10393,43922
21289,10379,43905
21273,10362,43879
21260,10355,43857
21250,10356,43837
21237,10354,43815
21225,10351,43799
21221,10352,43794
21216,10352,43793
21204,10345,43787
21194,10338,43783
21192,10337,43785
21192,10338,43787
21188,10335,43785
21189,10336,43789
21203,10351,43816
21230,10378,43869
21270,10418,43948
21330,10483,44064
21417,10576,44225
21530,10690,44427
21667,10823,44673
21832,10983,44973
22027,11172,45324
22241,11379,45712
22466,11594,46126
22704,11819,46562
22952,12055,47016
23197,12286,47469
23430,12500,47905
23653,12704,48323
23862,12897,48711
24043,13067,49052
24194,13205,49339
24323,13317,49576
24430,13403,49765
24504,13460,49895
24547,13488,49966
24568,13496,49992
24572,13488,49980
24550,13460,49923
24505,13415,49832
24446,13362,49722
24376,13297,49596
24289,13218,49449
24193,13132,49288
24095,13047,49125
23999,12962,48959
23903,12872,48786
23812,12784,48609
23730,12706,48443
23652,12635,48285
23572,12563,48127
23493,12490,47972
23424,12426,47828
23357,12362,47691
23286,12293,47559
23224,12227,47438
23176,12171,47332
23138,12117,47238
23099,12062,47154
23058,12017,47081
23016,11986,47020
22971,11957,46956
22920,11921,46881
22873,11891,46809
22839,11869,46743
22803,11840,46671
22757,11799,46588
22712,11758,46504
22670,11723,46426
22624,11685,46343
22577,11646,46257
22540,11612,46181
22510,11585,46115
22479,11555,46049
22444,11518,45984
22414,11487,45931
22390,11465,45890
22367,11440,45850
22349,11411,45813
22340,11390,45788
22332,11372,45769
22318,11353,45747
22306,11341,45734
22306,11344,45742
22318,11361,45766
22330,11382,45797
22346,11406,45835
22371,11435,45882
22396,11462,45927
22412,11480,45967
22426,11497,46008
22443,11520,46054
22455,11540,46094
22456,11549,46119
22456,11555,46137
22461,11565,46152
22467,11574,46161
22469,11571,46157
22470,11566,46146
22473,11565,46135
22470,11561,46117
22456,11547,46086
22437,11530,46050
22421,11514,46014
22403,11495,45968
22376,11468,45914
22348,11443,45860
22324,11423,45809
22298,11397,45753
22267,11360,45693
22240,11325,45634
22217,11294,45579
22186,11260,45521
22149,11223,45459
22114,11194,45401
22085,11172,45345
22055,11148,45283
22023,11120,45219
21995,11098,45160
21969,11079,45103
21935,11048,45037
21894,11007,44962
21860,10972,44894
21827,10941,44833
21789,10907,44771
21749,10874,44718
21715,10850,44679
21683,10830,44645
21653,10805,44608
21632,10780,44567
21613,10759,44526
21589,10738,44482
21561,10711,44430
21536,10682,44379
21517,10660,44337
21502,10639,44299
21483,10611,44255
21463,10577,44208
21448,10548,44169
21432,10520,44132
21408,10488,44093
21382,10461,44060
21358,10446,44033
21328,10432,44001
21292,10412,43962
21262,10392,43927
21243,10380,43900
21225,10365,43872
21202,10341,43837
21182,10321,43804
21168,10311,43774
21154,10302,43737
21135,10287,43687
21118,10269,43636
21106,10253,43592
21090,10229,43547
21070,10201,43505
21053,10177,43474
21042,10159,43449
21024,10140,43423
21005,10125,43404
20997,10125,43400
21003,10139,43412
21013,10157,43435
21031,10184,43475
21066,10232,43544
21120,10298,43643
21187,10374,43764
21272,10462,43912
21383,10570,44102
21518,10696,44336
21675,10835,44604
21856,10996,44911
22066,11185,45262
22296,11395,45652
22531,11607,46063
22773,11822,46492
23021,12046,46932
23263,12270,47367
23490,12480,47783
23701,12677,48176
23896,12859,48538
24062,13013,48853
24192,13133,49112
24297,13227,49321
24384,13303,49483
24446,13357,49594
24481,13382,49652
24495,13387,49669
24489,13379,49653
24462,13350,49594
24417,13297,49494
24367,13232,49370
24311,13165,49228
24239,13090,49066
24154,13006,48891
24065,12918,48715
23974,12828,48543
23878,12736,48374
23778,12641,48209
23683,12556,48054
23602,12484,47914
23526,12418,47778
23451,12351,47645
23390,12293,47526
23345,12246,47422
23302,12197,47320
23257,12145,47222
23217,12102,47140
23183,12068,47069
23146,12030,46996
23110,11990,46924
23079,11958,46861
23047,11928,46805
23008,11892,46743
22971,11854,46679
22941,11825,46621
22913,11801,46565
22879,11775,46504
22846,11753,46441
22821,11742,46389
22798,11735,46343
22770,11721,46293
22737,11703,46248
22707,11690,46214
22677,11674,46181
22646,11650,46147
22621,11629,46120
22606,11616,46106
22596,11602,46096
22588,11590,46085
22586,11588,46082
22588,11594,46091
22594,11601,46106
22602,11607,46122
22619,11620,46143
22645,11642,46172
22667,11660,46202
22683,11671,46230
22700,11686,46264
22722,11705,46303
22738,11717,46339
22750,11727,46372
22767,11744,46411
22788,11763,46448
22806,11773,46470
22819,11775,46480
22833,11780,46488
22844,11786,46492
22847,11783,46482
22842,11775,46459
22836,11770,46437
22829,11765,46415
22813,11748,46384
22788,11725,46347
22760,11706,46312
22729,11684,46275
22694,11650,46230
22662,11615,46178
22641,11587,46124
22623,11557,46063
22595,11516,45992
22565,11472,45922
22541,11441,45865
22516,11419,45813
22484,11396,45756
22455,11374,45700
22433,11356,45650
22407,11333,45596
22375,11299,45538
22343,11264,45487
22315,11234,45447
22285,11202,45406
22250,11162,45357
22219,11127,45309
22200,11105,45268
22181,11089,45223
22159,11069,45169
22141,11049,45119
22124,11025,45076
22099,10989,45023
22069,10945,44962
22041,10911,44904
22017,10882,44852
21994,10851,44798
21975,10821,44749
21963,10801,44713
21954,10789,44687
21944,10775,44661
21935,10759,44633
21929,10747,44609
21921,10735,44586
21905,10715,44557
21888,10691,44526
21876,10674,44498
21864,10660,44469
21843,10640,44433
21821,10620,44400
21805,10611,44375
21793,10609,44354
21777,10605,44329
21763,10603,44308
21757,10608,44298
21752,10613,44286
21741,10609,44267
21729,10602,44246
21721,10598,44229
21714,10594,44214
21702,10584,44199
21690,10574,44187
21685,10573,44184
21685,10572,44178
21684,10563,44164
21684,10558,44150
21690,10563,44144
21694,10568,44142
21695,10569,44148
21704,10579,44171
21728,10606,44220
21765,10646,44295
21815,10699,44402
21891,10775,44547
22001,10878,44738
22137,11002,44971
22298,11147,45249
22493,11324,45576
22715,11529,45950
22952,11746,46356
23201,11970,46790
23465,12211,47258
23734,12462,47742
23992,12703,48215
24236,12927,48666
24467,13136,49092
24677,13326,49480
24857,13484,49815
25006,13613,50097
25129,13725,50330
25224,13814,50510
25287,13871,50631
25327,13903,50704
25352,13919,50742
25358,13918,50740
25343,13895,50695
25313,13856,50620
25274,13811,50531
25222,13758,50425
25154,13695,50297
25081,13627,50159
25011,13559,50019
24940,13485,49869
24861,13402,49708
24776,13317,49544
24691,13239,49390
24606,13166,49245
24520,13094,49102
24441,13027,48968
24380,12973,48850
24328,12926,48739
24281,12877,48629
24241,12834,48530
24211,12801,48447
24181,12769,48369
24140,12733,48291
24098,12700,48218
24059,12673,48151
24017,12640,48082
23972,12601,48012
23931,12563,47942
23892,12530,47869
23848,12490,47786
23803,12446,47700
23761,12402,47619
23717,12360,47540
23665,12311,47455
23610,12256,47365
23564,12210,47284
23526,12170,47213
23488,12125,47142
23452,12081,47075
23427,12048,47021
23409,12023,46975
23391,11995,46926
23373,11971,46885
23366,11961,46860
23365,11958,46845
23361,11950,46832
23358,11943,46828
23362,11946,46839
23370,11952,46858
23378,11954,46879
23386,11958,46909
23399,11974,46951
23415,11994,46996
23428,12012,47037
23446,12034,47076
23470,12061,47114
23490,12080,47149
23502,12088,47177
23512,12097,47203
23522,12108,47228
23526,12114,47244
23521,12105,47248
23515,12089,47238
23511,12069,47215
23502,12044,47181
23487,12019,47140
23469,12001,47100
23450,11986,47060
23425,11965,47017
23393,11934,46969
23360,11906,46919
23327,11886,46869
23286,11860,46807
23237,11822,46730
23192,11783,46649
23150,11745,46567
23104,11696,46474
23057,11644,46374
23019,11599,46283
22982,11557,46200
22937,11509,46113
22894,11460,46026
22859,11420,45951
22828,11388,45884
22794,11351,45817
22763,11311,45750
22738,11275,45692
22714,11245,45638
22686,11217,45581
22655,11197,45530
22630,11189,45492
22608,11183,45459
22583,11169,45422
22563,11154,45384
22550,11144,45351
22537,11130,45320
22517,11105,45283
22499,11078,45243
22491,11059,45207
22482,11041,45171
22466,11015,45128
22448,10987,45084
22434,10967,45043
22418,10944,44997
22395,10914,44945
22376,10888,44896
22364,10869,44852
22352,10847,44807
22335,10819,44759
22318,10794,44713
22305,10774,44670
22284,10750,44623
22253,10719,44576
22225,10690,44534
22205,10664,44493
22183,10638,44445
22161,10613,44397
22146,10595,44356
22134,10578,44319
22118,10557,44280
22099,10534,44242
22084,10516,44212
22069,10501,44187
22046,10482,44160
22023,10463,44136
22015,10457,44132
22023,10463,44144
22039,10479,44169
22069,10508,44220
22120,10558,44304
22189,10627,44420
22272,10709,44563
22377,10812,44746
22512,10943,44980
22673,11095,45259
22849,11258,45571
23045,11438,45925
23269,11645,46326
23509,11863,46761
23750,12077,47210
23994,12293,47667
24237,12512,48121
24465,12719,48551
24666,12901,48941
24844,13063,49290
25000,13210,49593
25125,13332,49839
25219,13425,50027
25292,13494,50169
25349,13547,50273
25382,13575,50331
25388,13577,50341
25375,13561,50315
25347,13535,50259
25301,13492,50171
25237,13434,50054
25166,13371,49922
25086,13300,49774
24994,13217,49606
24898,13128,49431
24811,13048,49265
24730,12976,49104
24648,12899,48940
24571,12821,48781
24505,12752,48641
24444,12689,48516
24377,12624,48393
24306,12561,48280
24244,12512,48185
24189,12475,48103
24134,12441,48024
24083,12412,47955
24043,12391,47903
24007,12371,47857
23969,12341,47805
23934,12310,47750
23905,12283,47699
23875,12252,47644
23837,12209,47574
23795,12164,47499
23749,12123,47424
23695,12080,47340
23634,12032,47248
23575,11988,47161
23522,11953,47084
23469,11918,47013
23414,11877,46941
23366,11838,46874
23329,11807,46816
23297,11776,46760
23268,11743,46705
23251,11719,46663
23251,11707,46633
23251,11697,46610
23244,11685,46589
23240,11682,46579
23244,11690,46581
23247,11697,46585
23252,11702,46593
23265,11720,46617
23286,11751,46658
23308,11779,46700
23332,11803,46739
23364,11830,46779
23401,11856,46816
23430,11870,46845
23451,11877,46866
23469,11885,46882
23480,11888,46889
23477,11877,46878
23465,11862,46856
23453,11852,46836
23436,11842,46814
23409,11821,46780
23380,11798,46742
23359,11780,46709
23339,11762,46677
23317,11738,46640
23298,11714,46603
23284,11692,46568
23266,11666,46527
23237,11631,46479
23204,11594,46432
23171,11560,46390
23137,11528,46345
23105,11496,46292
23077,11469,46239
23050,11448,46188
23018,11425,46132
22978,11395,46067
22937,11364,45999
22898,11337,45931
22862,11307,45860
22824,11266,45786
22788,11224,45713
22756,11190,45647
22721,11157,45581
22682,11121,45513
22646,11090,45449
22617,11064,45392
22583,11035,45335
22546,11005,45283
22517,10985,45244
22498,10974,45210
22476,10958,45169
22452,10935,45123
22433,10917,45086
22416,10901,45053
22391,10877,45009
22362,10847,44958
22340,10821,44909
22323,10798,44861
22299,10772,44812
22274,10747,44766
22256,10728,44725
22239,10707,44681
22213,10676,44625
22183,10641,44565
22159,10612,44515
22138,10586,44471
22117,10560,44423
22103,10542,44375
22098,10533,44338
22091,10523,44305
22078,10510,44272
22071,10505,44250
22071,10510,44240
22072,10512,44230
22069,10504,44215
22071,10497,44207
22082,10503,44216
22099,10518,44237
22120,10535,44272
22156,10564,44335
22216,10613,44434
22295,10685,44566
22397,10781,44740
22532,10907,44967
22701,11063,45247
22893,11239,45564
23097,11428,45914
23315,11636,46301
23543,11857,46718
23770,12076,47153
23995,12293,47595
24220,12508,48036
24436,12712,48456
24631,12893,48837
24806,13053,49178
24964,13201,49482
25101,13332,49739
25208,13432,49940
25285,13502,50087
25343,13552,50191
25377,13580,50248
25381,13583,50260
25362,13568,50234
25331,13545,50182
25287,13511,50103
25224,13457,49993
25152,13390,49861
25082,13324,49722
25009,13260,49580
24928,13188,49429
24850,13114,49274
24781,13048,49122
24713,12983,48968
24639,12909,48813
24563,12836,48669
24489,12774,48545
24416,12715,48423
24344,12653,48296
24283,12599,48180
24228,12555,48087
24171,12509,48003
24111,12459,47921
24059,12418,47846
24013,12381,47778
23963,12335,47703
23907,12282,47621
23853,12232,47541
23800,12188,47461
23744,12144,47376
23685,12096,47286
23634,12054,47200
23590,12016,47116
23542,11972,47027
23494,11928,46939
23454,11888,46860
23418,11847,46783
23380,11802,46702
23341,11758,46625
23310,11724,46564
23288,11701,46520
23269,11678,46477
23255,11657,46437
23252,11648,46415
23255,11652,46411
23254,11656,46411
23255,11664,46419
23267,11685,46442
23282,11709,46475
23297,11729,46510
23318,11752,46552
23346,11786,46604
23375,11823,46657
23400,11849,46701
23424,11868,46738
23450,11887,46773
23470,11900,46800
23480,11902,46820
23487,11905,46844
23496,11914,46870
23499,11923,46890
23494,11928,46900
23492,11935,46907
23498,11947,46914
23501,11952,46914
23499,11948,46905
23497,11946,46895
23493,11947,46883
23482,11941,46860
23463,11927,46824
23443,11912,46788
23423,11901,46756
23403,11886,46722
23383,11867,46685
23364,11852,46648
23345,11839,46610
23323,11823,46567
23298,11807,46524
23275,11797,46490
23255,11789,46460
23229,11769,46422
23201,11744,46379
23184,11727,46342
23171,11716,46307
23151,11697,46264
23127,11670,46215
23107,11647,46169
23088,11625,46125
23063,11597,46077
23033,11563,46026
23004,11534,45979
22974,11508,45934
22942,11478,45885
22911,11449,45838
22889,11431,45800
22868,11416,45766
22846,11398,45726
22828,11380,45686
22813,11368,45652
22793,11354,45615
22766,11331,45571
22742,11309,45530
22723,11293,45498
22701,11273,45465
22674,11247,45426
22646,11224,45391
22621,11203,45360
22592,11179,45322
22558,11150,45279
22529,11127,45244
22504,11112,45217
22477,11099,45191
22454,11088,45166
22441,11085,45148
22437,11089,45134
22434,11090,45119
22431,11088,45110
22440,11096,45124
22466,11120,45167
22503,11153,45234
22556,11204,45334
22637,11286,45484
22746,11397,45687
22877,11531,45941
23037,11690,46247
23232,11878,46606
23455,12086,47008
23693,12302,47435
23940,12523,47881
24198,12753,48341
24453,12985,48800
24695,13205,49238
24925,13409,49650
25139,13600,50033
25328,13769,50374
25482,13909,50658
25608,14023,50887
25707,14114,51066
25773,14173,51190
25803,14197,51258
25807,14200,51286
25794,14189,51286
25765,14160,51252
25719,14112,51183
25663,14054,51091
25602,13992,50983
25531,13921,50855
25447,13838,50704
25360,13752,50540
25278,13672,50373
25192,13588,50201
25099,13498,50027
25009,13414,49859
24927,13337,49701
24843,13261,49547
24757,13187,49395
24680,13126,49256
24614,13078,49133
24555,13031,49020
24499,12981,48915
24451,12941,48825
24409,12911,48745
24362,12876,48663
24309,12831,48579
24257,12789,48501
24207,12751,48426
24157,12710,48344
24110,12665,48257
24071,12622,48174
24034,12574,48088
23990,12518,47989
23945,12459,47883
23906,12410,47783
23866,12367,47690
23817,12323,47600
23767,12279,47515
23726,12245,47444
23691,12217,47381
23657,12191,47322
23629,12170,47274
23607,12157,47244
23589,12149,47226
23574,12139,47210
23568,12135,47201
23576,12142,47205
23590,12153,47217
23603,12161,47233
23619,12174,47259
23641,12194,47297
23663,12216,47339
23686,12236,47382
23718,12261,47430
23755,12291,47481
23784,12317,47527
23802,12333,47568
23820,12348,47608
23838,12367,47648
23851,12385,47678
23859,12399,47700
23866,12414,47719
23874,12428,47735
23878,12432,47740
23877,12426,47732
23872,12421,47723
23863,12416,47711
23847,12402,47687
23826,12386,47659
23808,12375,47635
23792,12365,47609
23768,12349,47573
23741,12329,47531
23719,12312,47488
23699,12292,47439
23671,12262,47379
23645,12229,47315
23627,12201,47254
23607,12177,47194
23574,12146,47128
23538,12109,47062
23507,12076,47001
23481,12050,46938
23454,12024,46870
23430,11998,46805
23414,11976,46746
23401,11951,46687
23384,11920,46626
23365,11891,46568
23342,11868,46516
23310,11840,46465
23269,11804,46412
23230,11770,46363
23202,11746,46322
23177,11725,46282
23150,11700,46240
23126,11676,46197
23108,11657,46153
23088,11635,46103
23063,11608,46052
23040,11585,46006
23022,11569,45966
23001,11550,45921
22976,11529,45871
22950,11509,45826
22927,11488,45783
22901,11456,45732
22876,11419,45678
22855,11388,45634
22831,11361,45593
22799,11331,45543
22766,11299,45488
22742,11277,45439
22724,11265,45398
22704,11252,45366
22691,11242,45350
22696,11248,45361
22723,11275,45404
22769,11319,45482
22839,11384,45607
22944,11481,45786
23080,11604,46011
23236,11744,46280
23422,11912,46607
23644,12114,46996
23892,12342,47433
24154,12581,47894
24426,12830,48376
24707,13085,48872
24982,13334,49359
25237,13563,49818
25473,13780,50249
25692,13985,50650
25880,14163,51000
26035,14299,51292
26162,14405,51531
26264,14489,51719
26334,14546,51853
26370,14577,51932
26384,14592,51967
26385,14595,51968
26369,14580,51932
26335,14543,51860
26292,14494,51763
26243,14438,51650
26181,14368,51516
26109,14288,51369
26032,14211,51220
25949,14136,51070
25856,14051,50912
25761,13962,50750
25673,13885,50601
25593,13816,50462
25513,13744,50320
25437,13671,50176
25375,13608,50046
25321,13555,49931
25263,13500,49822
25206,13447,49720
25159,13404,49636
25118,13368,49561
25076,13330,49487
25034,13293,49416
24998,13264,49357
24962,13237,49302
24922,13203,49240
24880,13165,49176
24838,13131,49117
24796,13097,49054
24751,13060,48980
24709,13023,48906
24670,12991,48840
24623,12955,48774
24572,12912,48701
24528,12876,48636
24495,12856,48588
24466,12835,48549
24434,12807,48511
24406,12781,48483
24389,12760,48465
24374,12734,48443
24356,12705,48417
24346,12689,48401
24345,12687,48400
24344,12688,48406
24342,12692,48419
24349,12706,48448
24366,12730,48486
24386,12753,48523
24407,12772,48558
24432,12796,48597
24458,12821,48635
24478,12836,48661
24495,12842,48677
24514,12848,48695
24528,12855,48713
24531,12854,48720
24529,12846,48719
24531,12843,48719
24532,12842,48719
24525,12833,48708
24514,12816,48687
24501,12801,48663
24481,12789,48632
24458,12773,48587
24438,12752,48537
24421,12732,48494
24398,12708,48448
24364,12678,48394
24329,12650,48343
24297,12623,48298
24260,12590,48242
24214,12544,48167
24167,12496,48087
24124,12458,48011
24077,12420,47932
24027,12377,47847
23985,12335,47771
23953,12301,47704
23925,12270,47641
23895,12238,47580
23868,12208,47524
23847,12186,47477
23827,12166,47430
23802,12146,47378
23780,12133,47330
23765,12124,47292
23751,12112,47252
23731,12096,47208
23713,12081,47169
23697,12069,47138
23675,12053,47101
23645,12032,47060
23616,12014,47024
23589,11995,46989
23559,11968,46947
23527,11937,46901
23503,11909,46860
23481,11885,46819
23453,11855,46772
23423,11823,46723
23400,11799,46686
23379,11782,46658
23350,11763,46629
23324,11749,46600
23308,11746,46578
23295,11746,46555
23276,11738,46524
23258,11726,46490
23248,11716,46460
23237,11705,46428
23218,11684,46390
23201,11666,46357
23191,11662,46335
23181,11661,46315
23167,11653,46288
23159,11648,46268
23166,11653,46265
23175,11660,46276
23182,11664,46304
23204,11682,46363
23259,11728,46456
23341,11798,46582
23444,11891,46750
23577,12018,46977
23743,12179,47268
23936,12363,47612
24153,12563,48005
24398,12783,48450
24664,13020,48933
24933,13261,49426
25196,13496,49915
25456,13728,50399
25708,13956,50871
25941,14166,51307
26152,14353,51698
26345,14525,52047
26514,14678,52348
26649,14799,52587
26748,14890,52770
26821,14962,52907
26870,15014,52995
26892,15036,53031
26892,15031,53026
26884,15014,52993
26863,14986,52934
26823,14941,52845
26770,14886,52737
26711,14830,52619
26646,14766,52488
26570,14686,52342
26489,14599,52187
26411,14520,52030
26330,14442,51872
26241,14356,51713
26153,14277,51560
26075,14215,51424
26005,14160,51296
25935,14102,51170
25871,14046,51052
25814,14002,50947
25759,13961,50849
25699,13916,50753
25640,13872,50666
25590,13833,50590
25545,13794,50521
25502,13755,50453
25469,13721,50389
25445,13691,50326
25420,13659,50255
25385,13619,50177
25345,13576,50098
25305,13535,50019
25260,13490,49930
25209,13444,49835
25161,13407,49749
25113,13372,49668
25057,13326,49581
25000,13278,49495
24951,13243,49425
24906,13212,49364
24857,13175,49298
24811,13138,49237
24782,13114,49192
24767,13099,49158
24752,13083,49127
24739,13069,49107
24738,13064,49109
24747,13065,49124
24763,13065,49141
24789,13074,49168
24826,13102,49209
24865,13138,49255
24901,13172,49298
24937,13202,49344
24973,13235,49396
25002,13265,49446
25019,13284,49484
25031,13298,49513
25043,13313,49541
25051,13323,49558
25052,13321,49554
25050,13317,49542
25051,13317,49529
25047,13313,49509
25031,13295,49478
25012,13273,49443
24997,13255,49407
24972,13232,49361
24936,13202,49304
24902,13175,49249
24877,13151,49197
24849,13120,49139
24814,13079,49075
24780,13042,49008
24752,13009,48940
24718,12971,48865
24676,12929,48786
24638,12896,48712
24605,12866,48642
24567,12828,48562
24525,12785,48476
24489,12750,48395
24456,12719,48320
24415,12677,48236
24366,12627,48143
24318,12579,48051
24267,12528,47957
24208,12467,47857
24146,12405,47759
24095,12353,47671
24052,12307,47592
24004,12258,47513
23960,12211,47437
23926,12176,47372
23894,12145,47308
23857,12110,47241
23825,12078,47178
23800,12055,47127
23774,12034,47080
23747,12011,47031
23728,11994,46986
23720,11988,46953
23715,11982,46921
23706,11968,46885
23696,11956,46852
23691,11951,46830
23682,11943,46804
23667,11930,46771
23655,11921,46743
23651,11918,46725
23647,11911,46708
23633,11898,46688
23615,11885,46669
23601,11877,46653
23592,11867,46632
23587,11852,46608
23585,11837,46590
23582,11822,46574
23571,11801,46547
23554,11777,46511
23540,11759,46479
23529,11748,46450
23512,11734,46415
23491,11717,46378
23478,11705,46353
23470,11700,46334
23453,11689,46307
23427,11673,46272
23406,11663,46241
23394,11654,46214
23378,11637,46183
23359,11618,46154
23343,11606,46135
23333,11597,46122
23322,11587,46106
23316,11582,46102
23330,11596,46131
23368,11632,46196
23425,11688,46297
23509,11773,46448
23630,11894,46665
23782,12042,46942
23960,12207,47270
24169,12399,47652
24412,12624,48092
24675,12872,48573
24944,13131,49074
25220,13399,49592
25502,13675,50113
25776,13938,50613
26029,14176,51076
26264,14393,51504
26479,14589,51894
26661,14748,52229
26804,14870,52505
26922,14970,52730
27020,15054,52911
27091,15110,53040
27134,15135,53117
27157,15146,53155
27162,15145,53156
27143,15120,53111
27103,15076,53029
27053,15029,52930
26994,14981,52819
26922,14921,52687
26842,14853,52543
26763,14789,52404
26685,14726,52267
26602,14655,52119
26518,14581,51968
26439,14514,51824
26360,14449,51687
26277,14374,51549
26198,14296,51413
26134,14227,51284
26078,14167,51160
26018,14108,51034
25955,14056,50913
25899,14017,50808
25843,13983,50716
25783,13942,50631
25730,13899,50552
25685,13857,50480
25638,13809,50406
25586,13755,50321
25535,13701,50232
25487,13652,50147
25436,13600,50057
25382,13542,49958
25334,13493,49862
25296,13458,49773
25259,13426,49686
25217,13389,49598
25179,13354,49516
25146,13322,49440
25108,13285,49362
25064,13242,49283
25026,13203,49212
24999,13172,49157
24976,13144,49113
24954,13120,49079
24941,13107,49059
24933,13101,49050
24922,13091,49046
24915,13082,49049
24923,13083,49067
24937,13089,49090
24942,13090,49103
24940,13090,49113
24943,13103,49137
24956,13124,49170
24971,13139,49200
24993,13152,49233
25020,13171,49271
25043,13193,49301
25054,13202,49311
25059,13202,49308
25069,13204,49306
25074,13203,49298
25063,13191,49276
25043,13173,49248
25025,13154,49223
25004,13130,49192
24979,13101,49147
24958,13077,49097
24946,13065,49050
24931,13055,48998
24905,13036,48934
24876,13010,48863
24849,12983,48794
24815,12949,48718
24774,12903,48631
24732,12853,48547
24694,12809,48472
24650,12765,48396
24598,12717,48314
24549,12674,48239
24506,12635,48172
24463,12592,48099
24419,12546,48015
24380,12506,47930
24347,12473,47849
24310,12436,47762
24270,12397,47669
24235,12363,47581
24203,12331,47501
24165,12289,47416
24121,12242,47329
24080,12201,47256
24040,12163,47189
23996,12119,47118
23956,12078,47047
23930,12053,46990
23912,12033,46943
23885,12004,46892
23852,11971,46839
23828,11947,46796
23808,11927,46758
23783,11903,46716
23755,11880,46674
23732,11866,46639
23713,11858,46606
23691,11845,46564
23673,11830,46523
23665,11819,46493
23659,11804,46466
23642,11779,46430
23622,11753,46388
23605,11737,46353
23586,11722,46318
23562,11701,46273
23538,11681,46230
23518,11671,46197
23498,11661,46161
23474,11641,46117
23456,11618,46074
23448,11602,46036
23436,11583,45999
23416,11559,45962
23394,11538,45930
23375,11525,45907
23351,11509,45885
23323,11486,45862
23300,11469,45846
23287,11462,45837
23274,11452,45821
23257,11437,45799
23241,11429,45781
23227,11426,45763
23207,11414,45735
23188,11402,45704
23178,11402,45686
23175,11407,45681
23173,11405,45678
23180,11402,45681
23206,11418,45705
23248,11453,45756
23296,11501,45829
23360,11564,45940
23454,11655,46106
23581,11773,46329
23736,11912,46601
23921,12077,46925
24140,12280,47308
24386,12511,47741
24645,12753,48205
24915,13007,48698
25193,13272,49214
25466,13530,49728
25721,13769,50215
25961,13993,50670
26184,14200,51092
26376,14379,51467
26533,14525,51783
26668,14650,52048
26784,14758,52269
26869,14836,52434
26918,14879,52538
26945,14900,52594
26956,14906,52605
26938,14889,52566
26892,14848,52484
26835,14798,52380
26771,14743,52261
26693,14674,52122
26604,14590,51965
26515,14505,51804
26430,14423,51642
26344,14339,51473
26254,14254,51296
26167,14178,51123
26083,14107,50957
25994,14031,50793
25902,13958,50636
25820,13898,50497
25746,13842,50372
25669,13778,50248
25597,13711,50127
25538,13656,50017
25485,13609,49915
25432,13559,49815
25385,13513,49721
25345,13474,49640
25304,13437,49561
25259,13394,49475
25213,13351,49391
25172,13313,49318
25133,13275,49247
25089,13231,49169
25046,13187,49090
25007,13147,49015
24967,13108,48939
24922,13066,48858
24878,13024,48785
24840,12992,48724
24800,12960,48669
24757,12925,48612
24721,12899,48567
24698,12886,48541
24681,12876,48521
24666,12863,48500
24659,12855,48486
24659,12854,48483
24657,12851,48482
24651,12845,48483
24646,12845,48493
24647,12853,48512
24651,12861,48531
24657,12866,48552
24673,12881,48582
24698,12904,48617
24721,12925,48650
24740,12941,48681
24763,12962,48714
24786,12983,48745
24799,12995,48763
24803,12998,48772
24807,13005,48783
24808,13017,48793
24800,13021,48789
24789,13019,48777
24785,13020,48768
24781,13019,48757
24769,13006,48730
24752,12984,48693
24737,12962,48651
24718,12936,48599
24684,12896,48533
24641,12851,48459
24601,12812,48387
24563,12775,48315
24520,12736,48236
24475,12698,48159
24436,12668,48091
24401,12638,48024
24365,12601,47951
24331,12569,47881
24302,12547,47820
24268,12521,47756
24225,12485,47683
24182,12448,47612
24143,12418,47550
24100,12382,47481
24052,12338,47403
24012,12299,47333
23984,12267,47273
23953,12229,47208
23917,12183,47139
23882,12140,47074
23845,12103,47013
23806,12066,46951
23769,12030,46890
23739,12001,46838
23713,11976,46794
23686,11948,46749
23662,11924,46705
23645,11913,46673
23631,11907,46644
23609,11890,46603
23580,11865,46555
23556,11844,46514
23531,11827,46477
23501,11803,46436
23472,11778,46396
23452,11762,46367
23434,11749,46338
23414,11731,46299
23394,11715,46258
23380,11704,46222
23369,11691,46184
23353,11670,46139
23337,11649,46096
23326,11636,46066
23314,11625,46043
23293,11608,46015
23270,11591,45991
23254,11581,45976
23241,11571,45962
23227,11556,45944
23217,11545,45928
23212,11544,45921
23204,11541,45913
23189,11526,45896
23174,11508,45874
23163,11493,45853
23149,11474,45829
23130,11448,45799
23117,11429,45773
23112,11422,45754
23107,11417,45734
23102,11412,45719
23109,11419,45718
23131,11438,45734
23162,11466,45762
23207,11505,45814
23274,11570,45913
23366,11663,46066
23479,11776,46268
23616,11912,46525
23786,12080,46847
23986,12277,47224
24206,12496,47643
24447,12734,48103
24711,12991,48598
24986,13254,49108
25255,13510,49606
25514,13754,50079
25761,13984,50524
25983,14188,50924
26169,14355,51265
26323,14490,51553
26450,14601,51791
26548,14681,51974
26613,14726,52096
26650,14745,52166
26667,14753,52196
26659,14743,52181
26623,14707,52117
26571,14653,52021
26513,14595,51907
26446,14527,51774
26361,14443,51616
26268,14351,51443
26176,14260,51265
26079,14167,51078
25975,14070,50885
25873,13979,50700
25780,13896,50528
25689,13813,50359
25597,13731,50194
25512,13661,50046
25436,13606,49915
25364,13555,49792
25296,13503,49675
25240,13456,49576
25197,13418,49495
25156,13381,49418
25115,13340,49343
25075,13303,49274
25035,13266,49205
24988,13220,49127
24937,13170,49045
24890,13130,48967
24846,13094,48889
24796,13050,48801
24748,13001,48713
24708,12961,48632
24668,12926,48553
24621,12886,48472
24575,12847,48391
24539,12814,48319
24505,12781,48254
24472,12747,48191
24445,12718,48133
24426,12699,48085
24406,12683,48042
24379,12659,47998
24352,12637,47964
24336,12630,47951
24329,12631,47951
24325,12629,47956
24329,12631,47972
24345,12646,48002
24364,12663,48038
24379,12675,48074
24401,12689,48115
24430,12715,48164
24454,12741,48213
24467,12762,48256
24481,12785,48301
24501,12809,48348
24519,12826,48386
24532,12835,48410
24550,12847,48432
24572,12861,48451
24585,12862,48456
24586,12851,48442
24583,12836,48420
24571,12819,48392
24547,12795,48352
24513,12765,48299
24477,12740,48250
24440,12720,48204
24395,12693,48153
24347,12661,48098
24309,12639,48046
24277,12622,47990
24240,12596,47920
24202,12561,47843
24169,12528,47771
24138,12494,47701
24098,12455,47627
24054,12415,47555
24016,12382,47493
23980,12351,47435
23942,12316,47375
23910,12283,47317
23888,12259,47265
23868,12234,47213
23841,12204,47156
23813,12173,47098
23787,12146,47044
23761,12118,46988
23726,12081,46925
23686,12041,46862
23651,12011,46807
23615,11983,46753
23570,11947,46694
23531,11912,46638
23505,11888,46590
23480,11864,46540
23452,11833,46489
23432,11807,46445
23421,11790,46412
23404,11771,46376
23380,11746,46333
23360,11726,46293
23347,11718,46258
23332,11711,46219
23316,11701,46178
23306,11695,46144
23297,11689,46115
23282,11677,46083
23264,11657,46055
23248,11640,46037
23232,11625,46025
23213,11604,46003
23192,11581,45971
23182,11569,45946
23177,11562,45926
23167,11547,45902
23151,11531,45878
23136,11523,45862
23120,11515,45846
23100,11499,45823
23080,11481,45799
23068,11472,45785
23064,11471,45773
23062,11471,45762
23063,11475,45759
23076,11491,45771
23101,11516,45796
23139,11546,45835
23198,11596,45908
23282,11679,46030
23384,11786,46202
23504,11912,46428
23655,12071,46716
23841,12267,47067
24059,12487,47465
24298,12716,47897
24553,12959,48364
24818,13213,48855
25081,13463,49345
25330,13697,49818
25567,13915,50271
25790,14119,50694
25987,14300,51071
26152,14453,51391
26293,14582,51664
26409,14687,51887
26492,14760,52051
26542,14799,52159
26569,14819,52223
26580,14821,52242
26567,14797,52214
26531,14756,52148
26485,14712,52062
26429,14659,51952
26354,14583,51811
26267,14490,51648
26179,14399,51478
26089,14312,51301
25988,14218,51117
25882,14124,50933
25784,14038,50756
25686,13954,50582
25582,13865,50403
25480,13774,50226
25387,13692,50060
25296,13616,49903
25205,13541,49750
25120,13473,49609
25050,13418,49489
24989,13370,49381
24928,13319,49274
24871,13270,49172
24821,13226,49081
24770,13180,48993
24714,13128,48904
24663,13083,48820
24622,13048,48747
24582,13012,48673
24540,12969,48591
24501,12928,48515
24468,12890,48446
24432,12850,48376
24393,12808,48304
24358,12773,48242
24327,12745,48192
24294,12717,48143
24262,12689,48091
24242,12672,48051
24232,12665,48030
24227,12661,48017
24226,12659,48006
24231,12667,48006
24238,12678,48012
24242,12684,48019
24250,12692,48030
24268,12710,48056
24289,12734,48092
24309,12752,48129
24329,12770,48170
24360,12794,48223
24395,12819,48283
24421,12840,48334
24439,12860,48378
24457,12887,48418
24474,12914,48451
24482,12930,48471
24485,12939,48483
24490,12951,48496
24490,12959,48504
24481,12954,48497
24469,12939,48481
24462,12926,48462
24455,12911,48434
24444,12886,48394
24434,12860,48350
24424,12839,48309
24404,12816,48262
24369,12782,48200
24330,12749,48133
24295,12724,48071
24257,12696,48007
24211,12656,47936
24167,12614,47864
24131,12580,47795
24096,12542,47722
24056,12498,47645
24018,12455,47571
23986,12417,47498
23950,12374,47418
23909,12326,47336
23868,12280,47261
23826,12240,47193
23779,12197,47123
23731,12156,47053
23691,12126,46995
23660,12107,46949
23628,12086,46900
23600,12066,46849
23581,12056,46804
23562,12048,46760
23538,12030,46710
23513,12005,46659
23493,11987,46616
23474,11971,46577
23448,11949,46534
23424,11927,46492
23410,11913,46457
23396,11900,46424
23374,11880,46388
23350,11859,46356
23332,11844,46331
23312,11825,46302
23284,11799,46263
23256,11771,46222
23235,11750,46187
23216,11725,46151
23192,11692,46106
23168,11661,46063
23151,11641,46030
23135,11623,45997
23117,11604,45962
23106,11589,45930
23102,11582,45902
23096,11576,45871
23086,11568,45838
23076,11564,45811
23069,11564,45791
23065,11561,45772
23063,11554,45758
23068,11554,45756
23080,11563,45768
23093,11576,45790
23108,11593,45826
23138,11626,45889
23191,11681,45989
23270,11757,46128
23380,11856,46313
23525,11986,46554
23696,12147,46854
23886,12327,47202
24097,12530,47596
24337,12761,48038
24595,13008,48510
24847,13253,48995
25095,13498,49482
25344,13749,49963
25586,13992,50417
25809,14202,50823
26010,14381,51180
26187,14537,51496
26332,14662,51754
26440,14747,51942
26514,14800,52071
26566,14835,52158
26596,14851,52204
26603,14842,52203
26595,14818,52167
26572,14785,52103
26528,14734,52002
26462,14661,51867
26384,14579,51715
26300,14500,51561
26205,14418,51399
26099,14331,51231
25991,14249,51066
25890,14177,50908
25794,14103,50743
25705,14024,50568
25624,13950,50400
25544,13883,50249
25461,13815,50103
25379,13744,49959
25307,13679,49834
25247,13625,49729
25191,13571,49631
25142,13519,49538
25101,13485,49459
25059,13462,49387
25005,13431,49310
24946,13392,49234
24894,13360,49168
24851,13333,49106
24808,13295,49034
24770,13250,48954
24741,13213,48881
24709,13179,48812
24672,13135,48735
24635,13088,48655
24606,13054,48587
24580,13026,48526
24550,12995,48461
24521,12968,48405
24498,12949,48368
24477,12930,48340
24456,12908,48312
24444,12895,48289
24445,12896,48279
24448,12903,48277
24446,12905,48277
24445,12910,48289
24455,12925,48323
24470,12943,48365
24488,12959,48406
24514,12983,48454
24549,13021,48511
24580,13056,48565
24601,13080,48608
24625,13102,48647
24654,13127,48684
24676,13143,48713
24686,13147,48731
24697,13151,48748
24709,13154,48762
24709,13147,48760
24698,13133,48742
24688,13121,48720
24680,13110,48697
24664,13092,48665
24639,13067,48622
24615,13046,48576
24594,13028,48527
24567,13004,48468
24534,12974,48405
24503,12945,48345
24471,12916,48283
24433,12878,48216
24393,12834,48144
24357,12794,48075
24321,12756,48004
24276,12711,47920
24229,12665,47832
24191,12627,47752
24158,12593,47679
24123,12557,47606
24088,12523,47538
24057,12496,47481
24024,12467,47425
23984,12428,47362
23940,12386,47298
23900,12352,47239
23861,12319,47177
23821,12283,47108
23787,12255,47044
23763,12237,46991
23739,12216,46939
23709,12187,46881
23680,12157,46824
23660,12133,46770
23641,12109,46712
23616,12078,46654
23589,12047,46605
23564,12022,46563
23538,11995,46516
23513,11971,46472
23492,11957,46438
23475,11950,46410
23456,11939,46378
23434,11923,46342
23414,11909,46310
23398,11901,46282
23382,11891,46254
23367,11881,46229
23359,11873,46214
23351,11862,46199
23335,11841,46176
23316,11818,46148
23304,11805,46127
23295,11798,46107
23284,11788,46079
23274,11781,46055
23272,11778,46042
23272,11772,46028
23265,11760,46007
23257,11747,45990
23255,11742,45984
23258,11742,45984
23259,11741,45986
23267,11747,46008
23296,11776,46062
23346,11830,46151
23415,11904,46277
23514,12006,46458
23649,12141,46703
23817,12301,47004
24013,12483,47353
24240,12694,47757
24495,12933,48214
24762,13185,48701
25030,13433,49199
25299,13681,49700
25564,13931,50197
25812,14165,50663
26033,14373,51084
26233,14563,51460
26411,14733,51786
26560,14867,52055
26676,14964,52266
26765,15037,52427
26830,15091,52541
26862,15116,52604
26865,15113,52618
26851,15095,52596
26822,15064,52545
26770,15015,52460
26701,14952,52347
26629,14889,52221
26553,14822,52082
26465,14740,51923
26369,14649,51748
26279,14566,51573
26194,14490,51397
26106,14407,51219
26018,14323,51045
25940,14249,50880
25865,14176,50722
25788,14098,50565
25716,14022,50417
25654,13959,50289
25598,13904,50173
25538,13848,50063
25479,13795,49966
25429,13751,49893
25384,13711,49832
25337,13669,49766
25292,13635,49703
25255,13611,49647
25218,13587,49586
25176,13551,49511
25135,13512,49430
25099,13480,49352
25062,13446,49273
25019,13402,49188
24979,13358,49104
24944,13319,49023
24904,13275,48939
24856,13225,48853
24812,13176,48775
24773,13135,48711
24733,13096,48650
24695,13058,48594
24669,13032,48554
24650,13020,48528
24633,13011,48506
24621,13005,48488
24623,13010,48486
24633,13022,48495
24640,13027,48504
24648,13030,48514
24667,13045,48544
24693,13069,48587
24715,13089,48624
24733,13105,48654
24755,13127,48689
24781,13154,48727
24801,13175,48757
24815,13192,48782
24829,13211,48812
24842,13229,48840
24849,13235,48853
24851,13234,48856
24853,13235,48857
24852,13234,48856
24845,13224,48845
24837,13216,48832
24829,13212,48823
24818,13204,48806
24801,13189,48770
24780,13173,48724
24762,13163,48680
24739,13145,48632
24706,13112,48572
24673,13077,48514
24644,13050,48463
24615,13022,48409
24582,12988,48348
24553,12959,48288
24524,12933,48227
24485,12895,48156
24438,12845,48076
24397,12797,48001
24361,12753,47935
24324,12707,47867
24287,12664,47795
24255,12633,47728
24226,12609,47665
24197,12581,47600
24166,12553,47538
24137,12530,47486
24108,12509,47435
24075,12481,47378
24040,12448,47318
24011,12420,47267
23984,12394,47218
23953,12365,47166
23923,12334,47117
23897,12310,47079
23873,12288,47042
23849,12260,46996
23828,12232,46948
23812,12213,46905
23794,12198,46863
23767,12179,46816
23741,12159,46769
23723,12146,46731
23703,12129,46694
23672,12103,46652
23639,12075,46612
23612,12052,46576
23588,12029,46537
23560,12000,46493
23537,11971,46457
23524,11949,46433
23514,11932,46409
23499,11911,46376
23482,11893,46345
23471,11884,46320
23460,11874,46291
23443,11856,46258
23424,11838,46232
23411,11823,46210
23399,11806,46185
23383,11785,46156
23372,11772,46134
23369,11773,46124
23370,11776,46120
23376,11779,46125
23396,11795,46151
23431,11830,46201
23475,11879,46275
23537,11947,46390
23637,12048,46568
23774,12184,46809
23936,12340,47098
24124,12514,47439
24344,12719,47838
24592,12950,48285
24851,13189,48761
25117,13434,49255
25392,13685,49761
25665,13933,50260
25918,14165,50731
26152,14380,51169
26371,14579,51571
26568,14753,51924
26731,14892,52213
26866,15003,52445
26976,15095,52631
27054,15163,52770
27097,15201,52853
27112,15217,52891
27111,15223,52898
27096,15215,52874
27063,15185,52810
27022,15140,52719
26979,15092,52611
26923,15029,52483
26847,14948,52331
26760,14861,52168
26671,14778,52003
26574,14689,51830
26469,14590,51645
26372,14496,51463
26289,14418,51297
26208,14344,51134
26123,14266,50973
26043,14195,50825
25971,14132,50693
25897,14066,50569
25825,14002,50455
25768,13952,50357
25723,13913,50273
25679,13875,50191
25637,13837,50112
25607,13811,50045
25584,13792,49987
25552,13764,49922
25514,13730,49847
25478,13700,49776
25440,13669,49704
25394,13629,49623
25345,13586,49535
25306,13549,49455
25272,13517,49381
25235,13478,49306
25197,13436,49233
25165,13403,49175
25134,13371,49121
25100,13333,49061
25068,13298,49000
25043,13269,48949
25018,13240,48905
24989,13208,48859
24964,13183,48822
24951,13171,48803
24945,13164,48797
24938,13156,48795
24940,13156,48804
24958,13169,48829
24979,13181,48856
24996,13189,48882
25018,13201,48913
25045,13220,48949
25066,13240,48979
25081,13258,49002
25099,13278,49028
25123,13302,49062
25146,13322,49090
25163,13333,49110
25181,13340,49123
25197,13345,49129
25203,13339,49119
25193,13325,49097
25176,13311,49074
25154,13297,49047
25122,13271,49006
25086,13236,48953
25054,13202,48898
25025,13169,48841
24993,13130,48773
24957,13094,48700
24923,13067,48633
24892,13042,48567
24854,13009,48495
24814,12971,48419
24778,12939,48348
24742,12909,48281
24701,12875,48209
24661,12839,48137
24630,12808,48075
24598,12776,48013
24559,12737,47945
24515,12695,47876
24473,12652,47811
24432,12609,47742
24387,12563,47669
24344,12524,47600
24309,12500,47544
24276,12479,47488
24239,12450,47429
24208,12422,47374
24188,12399,47327
24169,12373,47272
24140,12339,47208
24110,12306,47145
24087,12277,47090
24063,12242,47035
24032,12200,46977
24005,12165,46927
23988,12144,46885
23970,12124,46842
23949,12104,46797
23932,12087,46759
23919,12074,46723
23900,12051,46677
23876,12020,46627
23859,11998,46588
23848,11986,46560
23832,11966,46528
23813,11938,46492
23798,11917,46461
23784,11900,46431
23762,11876,46394
23737,11850,46359
23720,11835,46335
23710,11826,46312
23697,11814,46284
23682,11806,46255
23678,11810,46234
23677,11815,46218
23670,11807,46196
23661,11793,46172
23654,11780,46153
23645,11766,46134
23630,11743,46107
23615,11723,46076
23608,11712,46053
23600,11704,46031
23587,11690,46004
23572,11679,45978
23559,11675,45957
23542,11665,45933
23518,11642,45903
23499,11618,45873
23492,11603,45850
23487,11597,45832
23483,11599,45825
23495,11616,45844
23528,11651,45899
23575,11700,45988
23638,11765,46121
23734,11859,46311
23868,11987,46561
24033,12140,46861
24226,12320,47217
24453,12536,47638
24715,12785,48119
24998,13049,48633
25293,13318,49167
25594,13595,49713
25887,13865,50251
26158,14110,50755
26407,14329,51215
26635,14529,51632
26834,14709,51994
26995,14852,52287
27120,14961,52516
27224,15050,52700
27304,15116,52835
27350,15151,52911
27369,15165,52939
27366,15168,52934
27340,15151,52893
27293,15109,52815
27234,15053,52709
27170,14993,52584
27095,14923,52440
27007,14838,52274
26917,14752,52097
26834,14678,51923
26748,14600,51748
26653,14512,51567
26565,14431,51394
26489,14367,51241
26416,14301,51093
26342,14224,50946
26274,14152,50811
26214,14094,50692
26152,14040,50580
26087,13983,50469
26029,13933,50370
25979,13893,50288
25933,13852,50208
25887,13808,50126
25847,13767,50050
25809,13728,49978
25764,13682,49898
25709,13632,49811
25655,13590,49727
25607,13554,49648
25558,13513,49566
25512,13469,49483
25473,13431,49405
25439,13397,49331
25399,13356,49252
25360,13312,49170
25330,13278,49099
25300,13249,49033
25261,13214,48962
25221,13178,48897
25189,13152,48851
25165,13132,48812
25142,13110,48770
25126,13093,48737
25120,13087,48727
25118,13085,48729
25115,13079,48734
25114,13078,48745
25122,13088,48768
25137,13101,48795
25150,13111,48817
25166,13129,48844
25186,13155,48882
25204,13179,48918
25218,13194,48944
25236,13207,48966
25257,13223,48988
25272,13230,49000
25272,13223,48995
25268,13213,48982
25267,13207,48971
25260,13195,48952
25244,13173,48921
25231,13153,48889
25218,13140,48858
25197,13122,48818
25172,13099,48770
25150,13078,48721
25126,13056,48671
25091,13024,48612
25047,12982,48543
25007,12945,48476
24974,12914,48413
24940,12879,48343
24907,12842,48268
24881,12813,48198
24856,12786,48133
24817,12744,48059
24767,12692,47978
24720,12646,47903
24674,12602,47826
24619,12553,47737
24565,12507,47646
24525,12474,47567
24490,12444,47493
24453,12406,47413
24418,12367,47333
24390,12336,47258
24361,12307,47186
24323,12271,47111
24282,12231,47037
24252,12197,46975
24226,12166,46919
24193,12133,46863
24162,12109,46814
24141,12098,46778
24121,12089,46745
24098,12073,46709
24080,12060,46676
24073,12056,46649
24062,12047,46616
24044,12026,46576
24030,12006,46545
24023,11997,46524
24010,11986,46501
23990,11968,46474
23971,11953,46450
23954,11942,46431
23933,11927,46407
23912,11910,46379
23896,11898,46356
23885,11888,46336
23872,11870,46307
23857,11848,46270
23849,11831,46238
23845,11818,46209
23831,11797,46178
23812,11776,46150
23797,11765,46133
23784,11756,46120
23767,11743,46097
23751,11732,46068
23745,11733,46048
23743,11738,46033
23737,11732,46012
23726,11722,45990
23718,11720,45977
23706,11719,45968
23685,11711,45952
23668,11706,45939
23658,11706,45937
23644,11705,45933
23625,11695,45920
23610,11685,45903
23606,11684,45897
23608,11688,45898
23610,11689,45902
23621,11701,45923
23654,11735,45978
23706,11787,46066
23779,11859,46195
23885,11962,46382
24029,12103,46633
24203,12268,46937
24401,12452,47290
24628,12663,47697
24883,12901,48162
25157,13150,48667
25442,13404,49195
25733,13663,49734
26021,13920,50269
26291,14160,50771
26538,14379,51231
26765,14581,51649
26970,14762,52019
27140,14908,52319
27272,15022,52552
27377,15119,52734
27451,15196,52867
27486,15240,52944
27493,15258,52972
27490,15264,52970
27477,15251,52936
27443,15208,52862
27387,15143,52754
27321,15076,52625
27243,15004,52473
27150,14917,52294
27050,14821,52104
26955,14733,51919
26860,14648,51736
26756,14560,51548
26652,14474,51367
26561,14396,51205
26478,14324,51055
26399,14252,50910
26329,14186,50776
26271,14132,50660
26217,14077,50550
26158,14012,50441
26104,13952,50340
26061,13910,50255
26017,13874,50178
25964,13832,50100
25915,13794,50028
25874,13765,49963
25830,13731,49891
25779,13684,49807
25731,13640,49722
25686,13602,49640
25634,13558,49549
25575,13509,49451
25522,13468,49364
25480,13438,49290
25440,13400,49213
25402,13355,49130
25376,13320,49056
25359,13294,48993
25338,13266,48933
25312,13239,48876
25293,13226,48836
25281,13220,48813
25266,13209,48793
25251,13201,48778
25249,13205,48781
25257,13214,48795
25262,13218,48808
25268,13220,48824
25279,13230,48853
25289,13240,48887
25295,13245,48914
25304,13250,48938
25325,13265,48976
25350,13286,49020
25366,13302,49053
25381,13318,49078
25403,13339,49105
25421,13354,49127
25427,13356,49134
25430,13355,49135
25436,13363,49140
25436,13368,49140
25423,13363,49125
25410,13355,49105
25402,13351,49083
25387,13342,49053
25362,13320,49007
25338,13298,48955
25314,13280,48903
25279,13253,48839
25236,13216,48763
25200,13181,48693
25174,13155,48634
25143,13122,48569
25107,13080,48495
25077,13041,48421
25049,13007,48353
25009,12964,48279
24960,12914,48198
24915,12872,48121
24871,12835,48048
24819,12794,47970
24766,12753,47896
24725,12724,47837
24692,12700,47785
24654,12668,47724
24615,12628,47655
24584,12590,47590
24552,12555,47524
24509,12517,47452
24465,12483,47383
24427,12458,47328
24390,12433,47276
24352,12398,47218
24319,12361,47159
24301,12330,47104
24288,12302,47048
24270,12273,46988
24251,12247,46933
24234,12229,46888
24211,12210,46837
24177,12184,46779
24140,12158,46725
24110,12135,46683
24082,12112,46645
24052,12085,46604
24028,12063,46566
24014,12046,46535
23999,12029,46504
23980,12008,46472
23965,11989,46445
23951,11973,46423
23933,11956,46397
23910,11936,46365
23890,11923,46338
23876,11916,46320
23865,11907,46298
23856,11898,46273
23852,11892,46251
23853,11887,46229
23848,11876,46198
23840,11861,46166
23835,11852,46143
23828,11842,46122
23810,11823,46092
23787,11803,46058
23771,11793,46035
23759,11788,46019
23739,11774,45993
23717,11756,45964
23704,11746,45944
23700,11740,45929
23697,11730,45911
23694,11724,45899
23699,11732,45903
23710,11750,45923
23722,11777,45957
23752,11819,46017
23812,11890,46121
23902,11987,46272
24017,12103,46469
24166,12250,46725
24357,12432,47050
24578,12639,47436
24820,12859,47869
25085,13098,48351
25371,13358,48877
25662,13624,49422
25947,13882,49963
26230,14139,50495
26506,14390,51007
26761,14614,51470
26984,14804,51870
27179,14972,52216
27344,15117,52510
27470,15225,52739
27557,15300,52905
27616,15358,53023
27652,15399,53098
27660,15410,53124
27641,15395,53103
27605,15370,53051
27553,15338,52973
27489,15286,52866
27420,15217,52736
27352,15147,52594
27279,15076,52438
27193,14992,52261
27097,14901,52073
26997,14813,51886
26890,14728,51700
26777,14636,51506
26668,14539,51315
26572,14448,51140
26479,14364,50979
26383,14281,50822
26294,14203,50679
26222,14137,50556
26160,14078,50445
26097,14018,50336
26041,13962,50231
25997,13915,50138
25955,13873,50052
25907,13828,49961
25857,13784,49870
25815,13747,49789
25777,13713,49711
25732,13672,49625
25688,13634,49541
25651,13603,49466
25613,13568,49390
25567,13524,49311
25527,13486,49238
25498,13456,49174
25471,13428,49113
25440,13400,49054
25412,13380,49008
25390,13368,48974
25368,13356,48939
25346,13338,48900
25333,13326,48871
25331,13323,48855
25327,13321,48843
25325,13319,48837
25332,13328,48848
25346,13343,48872
25353,13348,48895
25360,13349,48916
25376,13359,48945
25395,13374,48979
25409,13384,49006
25424,13393,49032
25447,13413,49069
25472,13434,49111
25493,13444,49144
25511,13447,49175
25531,13455,49208
25545,13462,49231
25546,13459,49236
25540,13457,49232
25534,13462,49225
25521,13463,49209
25497,13454,49180
25470,13443,49147
25448,13440,49119
25426,13436,49085
25398,13418,49039
25371,13396,48991
25352,13379,48948
25332,13357,48901
25305,13322,48844
25279,13286,48785
25258,13256,48724
25231,13223,48655
25192,13182,48575
25152,13142,48495
25117,13106,48421
25078,13065,48343
25034,13018,48259
24991,12971,48178
24945,12929,48103
24894,12883,48021
24841,12834,47930
24791,12794,47850
24744,12763,47783
24696,12730,47715
24651,12696,47646
24620,12669,47585
24595,12643,47526
24565,12609,47458
24532,12572,47390
24507,12545,47332
24485,12521,47277
24454,12493,47217
24419,12462,47154
24394,12439,47102
24375,12421,47059
24353,12399,47017
24333,12377,46980
24321,12363,46951
24309,12351,46922
24289,12334,46883
24271,12319,46847
24262,12312,46822
24254,12303,46799
24237,12286,46767
24221,12268,46735
24207,12252,46706
24185,12227,46671
24155,12193,46627
24128,12165,46588
24106,12147,46557
24083,12129,46522
24054,12104,46477
24027,12080,46434
24006,12061,46402
23982,12039,46370
23952,12013,46331
23927,11996,46295
23908,11990,46265
23886,11982,46230
23860,11967,46191
23839,11954,46166
23824,11944,46153
23809,11928,46137
23792,11907,46117
23780,11894,46102
23773,11888,46089
23764,11876,46067
23756,11859,46043
23758,11851,46029
23766,11849,46025
23772,11848,46028
23787,11857,46048
23827,11892,46103
23892,11953,46200
23973,12033,46337
24078,12138,46523
24221,12277,46772
24399,12446,47082
24606,12635,47440
24840,12848,47852
25098,13086,48314
25370,13337,48809
25645,13589,49316
25918,13846,49831
26181,14106,50344
26429,14352,50837
26660,14571,51289
26873,14767,51695
27068,14945,52057
27238,15096,52361
27374,15209,52594
27479,15292,52769
27560,15353,52894
27612,15386,52965
27630,15390,52986
27625,15376,52972
27605,15354,52930
27562,15313,52854
27495,15254,52742
27421,15186,52609
27344,15114,52465
27255,15033,52301
27156,14944,52120
27059,14862,51937
26965,14785,51751
26861,14700,51555
26751,14608,51357
26646,14522,51176
26549,14444,51014
26451,14364,50854
26355,14285,50698
26269,14217,50561
26197,14162,50445
26131,14106,50335
26070,14054,50232
26020,14013,50143
25978,13977,50063
25938,13938,49982
25901,13898,49901
25871,13861,49829
25844,13822,49758
25811,13773,49676
25774,13723,49590
25742,13682,49507
25709,13647,49424
25668,13607,49337
25623,13566,49256
25580,13529,49187
25532,13489,49116
25481,13445,49036
25436,13405,48959
25399,13373,48895
25360,13341,48833
25315,13300,48768
25275,13261,48708
25245,13234,48661
25217,13213,48620
25187,13192,48588
25170,13181,48575
25168,13186,48580
25170,13195,48594
25175,13207,48615
25193,13231,48650
25221,13267,48699
25248,13302,48748
25271,13334,48795
25302,13372,48850
25341,13412,48910
25377,13439,48961
25403,13458,49005
25425,13478,49049
25445,13497,49089
25456,13503,49114
25463,13503,49126
25470,13506,49133
25473,13505,49131
25462,13490,49110
25443,13466,49078
25428,13447,49044
25411,13426,49004
25382,13391,48947
25348,13349,48880
25319,13311,48814
25289,13273,48745
25249,13230,48669
25207,13188,48589
25170,13158,48513
25130,13131,48437
25084,13097,48358
25039,13060,48283
25005,13029,48218
24974,12999,48158
24938,12963,48092
24899,12924,48023
24865,12892,47958
24831,12861,47894
24792,12827,47829
24755,12798,47770
24725,12774,47719
24691,12744,47664
24652,12708,47600
24622,12679,47543
24603,12660,47499
24581,12639,47451
24554,12614,47396
24529,12591,47342
24507,12570,47286
24475,12539,47216
24438,12500,47138
24405,12462,47072
24374,12422,47013
24338,12377,46950
24300,12338,46889
24276,12319,46841
24261,12314,46800
24240,12304,46755
24214,12288,46712
24194,12278,46682
24178,12272,46658
24155,12259,46626
24132,12245,46592
24118,12236,46566
24110,12226,46544
24097,12207,46514
24082,12187,46481
24073,12174,46457
24069,12163,46437
24063,12147,46412
24053,12131,46385
24044,12120,46364
24031,12108,46343
24011,12092,46319
23994,12078,46297
23986,12071,46278
23976,12064,46258
23957,12051,46233
23937,12038,46210
23927,12034,46194
23914,12028,46178
23894,12010,46154
23877,11993,46132
23867,11982,46117
23853,11965,46098
23834,11943,46075
23821,11929,46057
23813,11924,46041
23801,11916,46018
23784,11902,45991
23770,11892,45968
23759,11888,45951
23745,11884,45929
23732,11879,45909
23727,11884,45907
23732,11901,45923
23747,11926,45952
23779,11965,46008
23839,12031,46111
23924,12119,46261
24034,12223,46455
24175,12352,46704
24354,12519,47021
24567,12720,47402
24801,12940,47828
25055,13178,48295
25335,13440,48808
25627,13717,49350
25917,13989,49893
26201,14251,50424
26477,14503,50933
26728,14733,51401
26945,14931,51813
27134,15103,52172
27300,15254,52484
27433,15374,52736
27529,15455,52918
27595,15506,53039
27640,15540,53117
27656,15550,53150
27639,15528,53133
27603,15492,53076
27557,15452,52988
27491,15396,52869
27403,15323,52721
27311,15248,52556
27220,15172,52382
27121,15083,52196
27013,14981,51998
26909,14884,51804
26812,14798,51621
26716,14711,51439
26618,14619,51260
26524,14534,51093
26434,14459,50940
26345,14385,50796
26262,14313,50662
26196,14254,50549
26141,14204,50450
26085,14150,50354
26031,14096,50261
25988,14056,50179
25952,14023,50105
25912,13982,50026
25866,13937,49943
25824,13899,49869
25782,13863,49799
25733,13820,49721
25684,13773,49636
25639,13728,49555
25592,13680,49470
25539,13627,49375
25489,13577,49283
25450,13539,49206
25416,13508,49141
25382,13475,49077
25353,13447,49018
25337,13430,48971
25322,13419,48927
25303,13405,48884
25287,13398,48850
25279,13401,48833
25273,13403,48822
25269,13400,48813
25273,13405,48819
25287,13425,48842
25303,13446,48877
25318,13463,48916
25338,13483,48963
25370,13506,49018
25404,13525,49074
25433,13537,49126
25463,13553,49177
25497,13576,49226
25527,13593,49265
25547,13607,49296
25566,13626,49332
25583,13645,49362
25589,13649,49372
25587,13643,49366
25586,13640,49356
25577,13637,49340
25555,13623,49308
25530,13603,49267
25512,13593,49228
25495,13586,49189
25470,13572,49141
25444,13554,49088
25427,13539,49038
25411,13522,48987
25386,13499,48931
25355,13473,48870
25324,13450,48813
25285,13423,48753
25235,13384,48684
25181,13341,48615
25135,13302,48553
25095,13262,48490
25053,13214,48418
25008,13166,48348
24965,13128,48286
24925,13094,48221
24885,13056,48148
24849,13020,48078
24816,12992,48015
24780,12963,47950
24738,12925,47877
24699,12887,47806
24668,12855,47743
24634,12821,47676
24593,12781,47603
24556,12742,47536
24528,12711,47477
24501,12679,47422
24470,12642,47366
24447,12611,47317
24431,12592,47274
24412,12577,47229
24388,12561,47183
24369,12547,47144
24358,12533,47112
24343,12515,47079
24320,12495,47046
24300,12482,47018
24284,12473,46989
24265,12456,46955
24245,12434,46924
24231,12418,46902
24217,12408,46883
24200,12397,46857
24185,12383,46826
24176,12371,46800
24171,12362,46776
24159,12348,46746
24140,12333,46715
24120,12323,46689
24099,12311,46660
24074,12291,46622
24048,12271,46584
24026,12261,46552
24003,12247,46520
23977,12219,46486
23956,12192,46458
23948,12177,46443
23946,12170,46431
23935,12159,46414
23921,12152,46395
23916,12151,46377
23909,12142,46355
23894,12119,46323
23876,12099,46291
23861,12089,46265
23845,12078,46241
23830,12063,46218
23824,12057,46208
23829,12065,46219
23843,12081,46246
23869,12108,46296
23917,12159,46387
23988,12234,46522
24079,12328,46694
24197,12448,46913
24350,12604,47197
24536,12790,47542
24748,12995,47933
24986,13221,48372
25249,13476,48861
25528,13747,49383
25804,14014,49912
26074,14270,50433
26343,14521,50941
26598,14760,51420
26823,14971,51849
27019,15154,52227
27194,15313,52556
27342,15443,52826
27456,15538,53029
27538,15605,53172
27595,15655,53266
27627,15683,53312
27630,15683,53310
27612,15664,53270
27582,15636,53204
27538,15593,53112
27476,15528,52991
27402,15455,52849
27320,15383,52697
27230,15304,52535
27132,15216,52358
27034,15128,52175
26941,15047,51995
26848,14963,51816
26751,14869,51637
26659,14778,51467
26575,14698,51306
26487,14621,51144
26396,14541,50984
26313,14463,50839
26240,14390,50708
26170,14317,50583
26103,14246,50462
26045,14186,50351
25994,14137,50251
25939,14092,50152
25883,14045,50055
25832,14002,49973
25788,13964,49902
25744,13925,49829
25703,13888,49755
25671,13861,49687
25639,13836,49621
25598,13799,49549
25555,13756,49476
25516,13719,49410
25479,13686,49345
25436,13649,49272
25394,13615,49200
25361,13595,49145
25336,13583,49102
25313,13570,49065
25299,13565,49042
25296,13570,49036
25296,13576,49039
25295,13573,49043
25301,13569,49051
25316,13576,49071
25332,13587,49098
25345,13595,49128
25360,13608,49171
25386,13631,49227
25413,13654,49284
25436,13675,49334
25461,13697,49381
25489,13721,49428
25512,13738,49465
25528,13744,49491
25544,13752,49514
25562,13768,49538
25575,13782,49556
25581,13788,49563
25585,13793,49561
25585,13796,49551
25576,13790,49526
25557,13775,49492
25534,13756,49453
25506,13731,49408
25471,13695,49349
25429,13655,49280
25391,13620,49211
25354,13589,49143
25310,13550,49068
25267,13510,48990
25231,13479,48918
25195,13454,48847
25152,13422,48770
25106,13383,48692
25063,13348,48627
25019,13312,48568
24971,13266,48503
24927,13222,48437
24893,13188,48376
24861,13158,48315
24825,13123,48246
24788,13088,48177
24756,13060,48113
24725,13028,48048
24692,12984,47976
24664,12943,47910
24643,12915,47852
24616,12890,47793
24582,12859,47728
24553,12828,47668
24533,12802,47617
24509,12774,47569
24476,12738,47519
24440,12703,47472
24408,12673,47430
24375,12645,47386
24342,12619,47340
24316,12599,47297
24297,12586,47258
24275,12568,47216
24247,12545,47171
24223,12528,47130
24205,12517,47095
24185,12503,47058
24162,12488,47020
24145,12480,46994
24137,12480,46981
24131,12477,46972
24130,12476,46966
24138,12483,46968
24148,12490,46970
24147,12484,46963
24141,12469,46950
24142,12460,46942
24144,12453,46933
24141,12442,46920
24137,12432,46909
24136,12428,46903
24133,12424,46895
24120,12411,46881
24098,12392,46865
24078,12381,46853
24063,12374,46837
24045,12365,46813
24029,12359,46787
24020,12362,46767
24015,12369,46751
24011,12373,46738
24016,12384,46742
24040,12409,46773
24079,12444,46830
24132,12488,46917
24208,12555,47051
24317,12656,47244
24457,12787,47496
24624,12946,47803
24825,13142,48170
25060,13367,48591
25312,13604,49050
25572,13845,49532
25842,14094,50031
26117,14345,50534
26381,14581,51018
26623,14795,51470
26849,14992,51888
27056,15171,52264
27231,15324,52587
27378,15453,52857
27505,15566,53079
27607,15657,53248
27672,15712,53353
27705,15732,53405
27718,15735,53423
27711,15721,53405
27676,15682,53344
27618,15624,53245
27549,15562,53123
27471,15493,52980
27381,15410,52816
27283,15322,52641
27185,15240,52465
27081,15155,52283
26968,15059,52092
26854,14959,51899
26749,14869,51717
26654,14781,51544
26565,14686,51375
26483,14604,51219
26411,14545,51090
26346,14494,50977
26282,14442,50865
26229,14397,50763
26190,14366,50678
26148,14334,50600
26098,14291,50519
26048,14249,50442
26005,14212,50374
25962,14171,50304
25914,14127,50229
25867,14088,50157
25821,14053,50086
25770,14014,50005
25715,13966,49915
25668,13923,49831
25631,13889,49755
25594,13857,49680
25556,13823,49606
25521,13793,49541
25490,13768,49487
25461,13742,49438
25436,13715,49396
25419,13696,49371
25405,13684,49362
25389,13671,49359
25380,13665,49361
25387,13677,49377
25405,13700,49402
25421,13718,49425
25435,13732,49452
25453,13752,49495
25475,13775,49546
25496,13794,49594
25522,13815,49637
25557,13838,49684
25594,13862,49730
25625,13880,49768
25652,13897,49802
25682,13920,49838
25710,13942,49869
25725,13950,49884
25734,13956,49889
25747,13970,49894
25756,13981,49892
25752,13973,49876
25742,13956,49852
25731,13940,49828
25711,13922,49799
25681,13903,49760
25650,13887,49718
25623,13876,49678
25590,13858,49630
25551,13829,49569
25514,13799,49504
25480,13769,49439
25436,13730,49362
25388,13685,49274
25349,13644,49193
25315,13606,49121
25275,13562,49045
25229,13516,48962
25185,13475,48887
25147,13441,48816
25110,13406,48739
25072,13370,48661
25034,13338,48590
24996,13307,48521
24954,13270,48442
24915,13230,48356
24886,13194,48280
24863,13162,48213
24836,13127,48148
24807,13093,48088
24782,13070,48047
24760,13053,48015
24734,13030,47981
24708,13007,47945
24687,12989,47914
24666,12968,47882
24643,12940,47843
24619,12911,47800
24598,12886,47760
24574,12860,47721
24545,12829,47677
24520,12801,47634
24505,12781,47599
24492,12760,47563
24469,12732,47524
24446,12710,47487
24425,12698,47455
24400,12684,47420
24366,12660,47378
24332,12639,47336
24303,12624,47296
24273,12605,47253
24242,12579,47206
24216,12557,47166
24197,12544,47135
24177,12529,47102
24155,12512,47068
24141,12501,47039
24132,12496,47010
24116,12486,46973
24091,12469,46934
24075,12455,46906
24069,12448,46890
24063,12440,46876
24060,12434,46869
24068,12441,46886
24091,12460,46927
24127,12488,46988
24183,12534,47083
24268,12614,47229
24378,12725,47428
24509,12856,47674
24668,13012,47975
24864,13201,48340
25092,13417,48759
25338,13646,49213
25600,13890,49699
25877,14149,50212
26160,14408,50731
26435,14655,51234
26700,14891,51709
26948,15114,52147
27168,15307,52531
27351,15464,52855
27502,15596,53127
27627,15710,53352
27719,15796,53523
27775,15847,53636
27807,15876,53703
27821,15892,53732
27814,15887,53721
27786,15861,53670
27747,15822,53590
27698,15773,53483
27631,15708,53347
27548,15628,53184
27461,15542,53010
27370,15455,52829
27271,15358,52638
27170,15258,52440
27077,15172,52251
26994,15101,52078
26909,15029,51914
26822,14956,51756
26742,14890,51615
26671,14833,51493
26604,14778,51380
26546,14726,51276
26500,14685,51187
26460,14648,51109
26418,14607,51034
26378,14567,50964
26348,14538,50907
26323,14514,50854
26289,14482,50794
26246,14444,50730
26203,14410,50668
26159,14376,50601
26110,14333,50521
26062,14289,50437
26020,14251,50360
25977,14214,50281
25929,14168,50192
25880,14119,50102
25839,14078,50024
25798,14038,49951
25752,13990,49877
25712,13945,49810
25686,13914,49761
25662,13890,49722
25638,13865,49687
25621,13852,49664
25619,13858,49656
25626,13871,49660
25635,13885,49672
25654,13908,49698
25685,13939,49738
25717,13968,49779
25745,13995,49819
25778,14028,49868
25814,14065,49926
25843,14095,49979
25867,14116,50025
25895,14137,50072
25922,14158,50117
25940,14171,50149
25950,14180,50169
25956,14192,50187
25958,14200,50199
25951,14194,50192
25943,14177,50175
25938,14163,50159
25934,14154,50137
25925,14138,50100
25912,14119,50055
25900,14107,50011
25880,14092,49961
25849,14062,49897
25812,14024,49825
25775,13989,49755
25735,13955,49687
25685,13912,49615
25633,13866,49540
25587,13831,49473
25543,13800,49406
25495,13764,49330
25453,13731,49253
25423,13703,49180
25393,13670,49106
25356,13631,49025
25318,13597,48947
25285,13569,48878
25252,13539,48812
25217,13504,48743
25186,13474,48679
25160,13450,48622
25130,13417,48564
25096,13373,48499
25065,13330,48435
25039,13299,48378
25011,13269,48323
24980,13236,48267
24956,13208,48218
24937,13183,48175
24912,13155,48129
24882,13130,48084
24854,13115,48051
24831,13108,48026
24805,13094,47993
24777,13074,47953
24755,13056,47914
24735,13039,47877
24706,13009,47833
24670,12977,47787
24641,12958,47747
24617,12942,47710
24591,12918,47669
24567,12896,47629
24551,12881,47599
24538,12867,47572
24523,12848,47541
24510,12833,47511
24504,12832,47492
24500,12833,47474
24493,12825,47450
24485,12812,47425
24481,12801,47405
24473,12784,47382
24455,12760,47350
24430,12737,47316
24407,12717,47287
24383,12694,47256
24354,12666,47217
24332,12643,47179
24320,12632,47151
24310,12621,47125
24296,12605,47098
24287,12597,47083
24291,12606,47089
24305,12625,47115
24334,12658,47170
24394,12717,47273
24486,12808,47432
24605,12921,47641
24754,13062,47907
24944,13245,48246
25171,13465,48654
25422,13702,49110
25692,13952,49605
25981,14220,50140
26281,14497,50694
26574,14765,51236
26853,15023,51754
27119,15272,52245
27363,15501,52693
27573,15694,53080
27752,15852,53409
27910,15990,53689
28039,16106,53918
28129,16184,54082
28189,16233,54191
28233,16263,54259
28254,16272,54282
28244,16254,54259
28214,16218,54201
28178,16176,54121
28126,16123,54014
28054,16056,53878
27972,15985,53726
27891,15916,53568
27805,15840,53399
27711,15749,53217
27618,15655,53038
27532,15569,52872
27444,15484,52709
27351,15397,52544
27263,15319,52390
27186,15251,52252
27112,15183,52119
27037,15115,51988
26972,15056,51871
26922,15011,51774
26876,14972,51684
26830,14931,51598
26787,14894,51524
26745,14862,51457
26698,14827,51385
26646,14788,51307
26598,14749,51225
26552,14708,51140
26501,14660,51048
26450,14609,50950
26408,14568,50863
26370,14532,50783
26325,14487,50696
26277,14437,50604
26233,14392,50518
26188,14349,50437
26139,14301,50357
26093,14256,50282
26064,14228,50227
26043,14211,50187
26021,14192,50149
25999,14175,50116
25987,14169,50095
25980,14167,50081
25974,14161,50067
25973,14156,50062
25984,14160,50070
25999,14167,50088
26010,14167,50105
26020,14170,50127
26037,14187,50163
26056,14212,50206
26071,14229,50241
26086,14247,50276
26107,14276,50318
26126,14302,50354
26139,14316,50377
26152,14330,50399
26167,14347,50423
26173,14355,50438
26170,14352,50436
26168,14349,50427
26167,14346,50417
26156,14333,50396
26132,14310,50360
26108,14290,50324
26085,14275,50289
26056,14253,50241
26023,14224,50182
25993,14197,50123
25964,14169,50063
25927,14130,49989
25885,14084,49904
25847,14040,49824
25807,14001,49746
25756,13955,49659
25702,13905,49567
25656,13861,49482
25614,13821,49398
25567,13779,49309
25523,13738,49221
25488,13703,49140
25452,13667,49060
25407,13619,48969
25354,13565,48874
25307,13520,48790
25265,13479,48707
25219,13435,48621
25174,13393,48541
25138,13360,48480
25105,13328,48427
25072,13290,48372
25046,13255,48318
25028,13230,48270
25008,13203,48223
24978,13169,48167
24948,13136,48109
24924,13114,48056
24897,13090,48001
24864,13057,47941
24835,13028,47889
24815,13008,47847
24791,12985,47805
24766,12960,47763
24752,12946,47727
24747,12942,47697
24737,12930,47663
24720,12908,47630
24705,12894,47607
24692,12887,47590
24669,12871,47563
24635,12847,47526
24606,12827,47494
24584,12811,47467
24562,12791,47434
24539,12773,47398
24525,12770,47372
24516,12771,47350
24502,12764,47320
24485,12749,47284
24476,12737,47255
24470,12722,47232
24457,12697,47201
24444,12673,47167
24437,12659,47139
24423,12647,47114
24399,12633,47088
24377,12619,47064
24364,12615,47047
24353,12613,47029
24337,12604,47004
24323,12594,46979
24320,12591,46965
24319,12592,46958
24316,12589,46954
24322,12591,46963
24341,12606,46994
24368,12632,47044
24402,12665,47118
24461,12719,47234
24555,12814,47410
24682,12945,47644
24837,13103,47932
25027,13291,48283
25254,13510,48702
25507,13752,49174
25781,14011,49684
26071,14288,50229
26368,14573,50789
26657,14846,51337
26937,15101,51858
27209,15347,52357
27465,15580,52825
27690,15784,53241
27884,15949,53591
28055,16088,53884
28203,16207,54123
28314,16293,54297
28389,16350,54413
28438,16391,54486
28461,16412,54520
28454,16406,54506
28423,16377,54451
28383,16340,54374
28335,16293,54279
28270,16231,54163
28195,16162,54031
28119,16095,53894
28039,16025,53747
27948,15942,53582
27856,15855,53411
27773,15773,53247
27687,15691,53084
27594,15605,52914
27503,15523,52749
27425,15455,52602
27352,15391,52464
27281,15325,52331
27218,15265,52214
27166,15218,52118
27119,15178,52027
27070,15137,51935
27021,15102,51851
26980,15073,51776
26942,15041,51699
26903,15004,51617
26868,14971,51539
26837,14943,51467
26800,14909,51390
26753,14865,51303
26708,14826,51220
26669,14796,51145
26624,14760,51068
26571,14716,50988
26525,14681,50917
26488,14655,50856
26450,14624,50791
26410,14590,50725
26377,14563,50672
26350,14539,50631
26319,14510,50589
26291,14484,50548
26277,14472,50520
26272,14469,50505
26267,14461,50491
26266,14453,50481
26278,14456,50486
26296,14466,50502
26313,14474,50521
26330,14486,50547
26352,14505,50584
26372,14523,50622
26388,14535,50653
26403,14545,50682
26423,14561,50715
26440,14576,50745
26447,14576,50762
26450,14570,50768
26453,14570,50773
26447,14568,50769
26430,14555,50751
26413,14543,50733
26403,14539,50722
26390,14532,50703
26369,14513,50665
26350,14495,50620
26332,14480,50573
26304,14457,50514
26264,14418,50439
26225,14375,50364
26192,14338,50298
26155,14299,50227
26111,14252,50146
26067,14208,50066
26023,14168,49991
25976,14126,49911
25933,14083,49827
25897,14049,49747
25860,14015,49668
25813,13967,49576
25764,13912,49476
25724,13867,49386
25687,13828,49301
25641,13784,49207
25591,13737,49109
25545,13697,49021
25501,13659,48934
25451,13613,48839
25400,13562,48749
25355,13517,48676
25310,13477,48607
25261,13430,48531
25215,13383,48456
25181,13350,48392
25151,13320,48329
25112,13283,48260
25074,13247,48194
25044,13221,48139
25014,13196,48089
24977,13163,48038
24943,13133,47993
24922,13115,47958
24902,13099,47922
24873,13074,47878
24850,13055,47834
24842,13050,47801
24835,13045,47767
24822,13027,47727
24812,13008,47694
24807,12995,47671
24796,12979,47642
24779,12953,47605
24765,12934,47575
24753,12925,47554
24737,12917,47533
24716,12903,47511
24700,12894,47495
24689,12891,47480
24676,12882,47456
24660,12868,47425
24649,12859,47399
24637,12849,47374
24616,12826,47337
24590,12801,47293
24570,12786,47256
24553,12776,47228
24533,12757,47200
24513,12736,47176
24502,12726,47164
24496,12723,47155
24484,12713,47134
24469,12697,47107
24455,12682,47085
24435,12662,47061
24408,12633,47030
24380,12606,46994
24357,12588,46963
24337,12571,46936
24316,12547,46911
24302,12532,46896
24304,12537,46900
24313,12551,46916
24325,12569,46950
24356,12611,47020
24418,12687,47140
24506,12788,47306
24622,12907,47521
24776,13058,47803
24975,13249,48159
25209,13472,48579
25472,13720,49052
25767,13999,49579
26087,14301,50145
26413,14604,50722
26728,14896,51290
27033,15178,51844
27323,15445,52371
27584,15679,52845
27812,15878,53259
28014,16058,53622
28188,16217,53938
28322,16342,54191
28417,16429,54377
28489,16492,54509
28536,16534,54590
28550,16542,54614
28539,16522,54591
28518,16488,54537
28483,16440,54453
28428,16373,54337
28360,16301,54199
28290,16233,54058
28212,16164,53906
28119,16084,53737
28020,16001,53565
27925,15925,53404
27831,15851,53246
27734,15769,53084
27643,15687,52926
27565,15616,52781
27488,15549,52638
27403,15476,52488
27319,15405,52345
27245,15346,52223
27182,15296,52117
27123,15245,52021
27074,15201,51940
27039,15169,51875
27011,15141,51816
26983,15108,51754
26957,15076,51690
26932,15050,51623
26897,15018,51545
26853,14973,51455
26805,14924,51364
26759,14879,51276
26704,14826,51180
26642,14761,51076
26586,14701,50975
26534,14653,50878
26475,14604,50779
26412,14556,50682
26363,14520,50600
26325,14490,50529
26286,14455,50458
26251,14418,50395
26229,14393,50351
26213,14375,50326
26190,14352,50303
26166,14328,50282
26154,14320,50270
26149,14320,50268
26142,14317,50266
26143,14319,50276
26161,14337,50305
26190,14365,50345
26222,14392,50386
26256,14421,50430
26293,14455,50482
26327,14487,50533
26352,14509,50572
26370,14525,50604
26389,14543,50640
26403,14559,50667
26406,14564,50675
26405,14561,50672
26405,14561,50669
26396,14556,50658
26375,14539,50633
26351,14515,50601
26325,14493,50568
26291,14470,50527
26249,14439,50475
26212,14411,50420
26184,14388,50364
26150,14357,50297
26109,14312,50212
26071,14269,50125
26034,14234,50043
25989,14193,49956
25938,14144,49860
25891,14098,49768
25848,14054,49678
25802,14006,49583
25752,13955,49484
25704,13911,49395
25657,13870,49314
25607,13822,49228
25557,13770,49142
25516,13729,49066
25479,13694,48998
25433,13653,48928
25385,13608,48856
25344,13569,48788
25306,13530,48716
25261,13488,48635
25213,13447,48553
25171,13415,48477
25132,13387,48408
25094,13351,48334
25062,13310,48259
25040,13275,48196
25017,13244,48141
24989,13209,48081
24961,13177,48023
24939,13157,47978
24918,13142,47934
24891,13123,47884
24866,13108,47838
24846,13103,47804
24823,13096,47769
24795,13077,47726
24771,13054,47692
24753,13034,47666
24734,13012,47638
24709,12986,47607
24688,12963,47581
24672,12948,47560
24656,12932,47538
24637,12913,47514
24623,12899,47492
24616,12888,47470
24603,12874,47441
24582,12855,47411
24562,12838,47387
24548,12824,47365
24525,12802,47335
24493,12775,47298
24466,12756,47265
24445,12743,47236
24422,12724,47204
24403,12701,47170
24395,12685,47139
24394,12675,47107
24389,12664,47070
24382,12654,47040
24378,12653,47027
24372,12654,47022
24357,12645,47010
24341,12635,46995
24332,12635,46987
24326,12637,46981
24314,12631,46971
24306,12629,46968
24314,12643,46987
24335,12668,47028
24369,12704,47095
24430,12768,47205
24524,12868,47376
24649,12996,47605
24804,13145,47889
24995,13325,48236
25223,13540,48651
25481,13778,49116
25756,14029,49614
26045,14294,50140
26348,14569,50687
26645,14838,51231
26922,15090,51750
27185,15332,52239
27428,15560,52688
27640,15759,53079
27820,15924,53409
27977,16067,53688
28110,16187,53916
28209,16274,54081
28275,16325,54185
28320,16354,54246
28345,16368,54272
28343,16359,54256
28317,16330,54202
28276,16291,54124
28219,16237,54022
28142,16165,53894
28051,16088,53748
27958,16016,53600
27863,15943,53449
27761,15856,53286
27656,15765,53115
27562,15683,52952
27476,15606,52796
27387,15525,52638
27303,15449,52483
27230,15385,52338
27163,15326,52199
27092,15262,52061
27022,15203,51934
26963,15157,51830
26913,15119,51740
26865,15077,51652
26819,15039,51575
26781,15012,51515
26749,14987,51461
26716,14955,51400
26684,14921,51332
26658,14891,51262
26633,14860,51185
26604,14821,51099
26572,14783,51013
26538,14748,50932
26494,14705,50847
26438,14657,50758
26386,14613,50676
26344,14578,50606
26298,14538,50539
26244,14493,50470
26196,14455,50411
26154,14425,50362
26113,14390,50313
26074,14352,50261
26045,14329,50218
26025,14318,50188
26007,14310,50166
25995,14302,50152
25996,14305,50158
26004,14318,50181
26012,14331,50208
26025,14350,50240
26053,14378,50283
26087,14407,50332
26118,14427,50377
26152,14444,50418
26192,14465,50463
26232,14488,50507
26261,14500,50540
26280,14506,50564
26296,14516,50589
26305,14526,50602
26301,14526,50592
26291,14521,50569
26281,14514,50546
26266,14500,50515
26242,14477,50472
26213,14455,50425
26188,14437,50380
26160,14413,50327
26122,14377,50259
26078,14336,50186
26034,14297,50113
25987,14255,50035
25933,14204,49949
25883,14154,49864
25841,14108,49781
25795,14061,49691
25745,14009,49596
25700,13964,49505
25659,13928,49421
25614,13887,49335
25564,13841,49248
25518,13800,49167
25476,13762,49090
25432,13720,49009
25387,13678,48928
25347,13645,48856
25311,13617,48791
25271,13578,48720
25229,13533,48646
25197,13497,48578
25173,13467,48518
25146,13434,48455
25119,13403,48395
25100,13382,48345
25085,13366,48301
25065,13346,48253
25044,13328,48207
25027,13317,48171
25007,13307,48139
24979,13286,48099
24950,13260,48058
24930,13238,48025
24908,13215,47994
24878,13190,47956
24847,13167,47924
24823,13152,47906
24800,13136,47887
24774,13115,47857
24751,13092,47818
24733,13075,47783
24712,13058,47749
24687,13035,47713
24666,13018,47685
24648,13010,47665
24625,12997,47638
24599,12978,47601
24581,12965,47568
24570,12960,47544
24552,12948,47518
24526,12928,47488
24505,12911,47464
24493,12902,47442
24479,12888,47412
24463,12868,47377
24455,12851,47347
24450,12836,47322
24441,12818,47293
24431,12802,47269
24431,12800,47262
24442,12809,47273
24457,12822,47295
24486,12848,47343
24543,12904,47438
24627,12990,47583
24731,13096,47775
24863,13227,48023
25033,13394,48339
25237,13590,48714
25462,13804,49137
25707,14042,49603
25977,14309,50106
26264,14586,50626
26552,14850,51136
26829,15098,51629
27091,15333,52104
27330,15548,52544
27538,15733,52929
27716,15891,53261
27865,16026,53546
27978,16132,53774
28060,16204,53937
28122,16254,54047
28171,16288,54116
28194,16298,54137
28184,16277,54105
28150,16234,54036
28102,16178,53940
28036,16110,53815
27955,16031,53662
27865,15948,53497
27769,15864,53323
27667,15773,53137
27561,15676,52942
27456,15583,52750
27356,15494,52566
27258,15403,52380
27161,15312,52195
27072,15232,52022
26988,15160,51865
26908,15087,51714
26837,15018,51570
26783,14961,51448
26746,14916,51342
26707,14872,51243
26664,14828,51151
26624,14790,51071
26585,14753,50995
26540,14709,50914
26495,14663,50834
26453,14623,50761
26409,14584,50689
26355,14537,50608
26300,14490,50520
26253,14454,50436
26209,14421,50348
26160,14379,50253
26107,14334,50157
26058,14296,50073
26008,14261,49993
25958,14224,49913
25915,14190,49845
25884,14168,49797
25858,14147,49755
25832,14119,49711
25815,14094,49676
25812,14083,49659
25812,14076,49650
25807,14065,49643
25807,14064,49646
25815,14073,49659
25823,14081,49673
25831,14087,49692
25849,14103,49730
25881,14131,49784
25911,14158,49835
25935,14177,49879
25957,14200,49927
25980,14229,49977
25996,14249,50014
26004,14262,50037
26015,14280,50059
26025,14300,50077
26024,14308,50081
26018,14307,50076
26020,14313,50076
26026,14324,50079
26020,14321,50068
26004,14304,50045
25988,14287,50015
25964,14267,49975
25931,14235,49917
25895,14196,49851
25863,14161,49788
25829,14126,49724
25786,14083,49649
25743,14039,49569
25709,14005,49498
25673,13971,49428
25626,13929,49345
25578,13885,49257
25534,13845,49172
25489,13799,49086
25440,13746,48994
25394,13698,48906
25357,13662,48831
25318,13626,48757
25274,13584,48680
25237,13547,48607
25207,13516,48541
25173,13477,48472
25130,13431,48398
25088,13394,48332
25049,13370,48274
25007,13348,48212
24965,13321,48148
24931,13298,48092
24909,13278,48046
24888,13255,48001
24867,13229,47958
24851,13209,47920
24837,13194,47885
24818,13171,47842
24797,13143,47793
24781,13122,47754
24766,13104,47721
24740,13079,47681
24712,13049,47637
24697,13025,47601
24688,13004,47572
24674,12981,47540
24659,12960,47506
24652,12951,47479
24649,12949,47458
24638,12940,47435
24619,12927,47412
24603,12922,47397
24583,12915,47380
24556,12896,47354
24530,12874,47325
24510,12862,47303
24494,12854,47278
24474,12839,47245
24452,12823,47211
24435,12812,47186
24419,12799,47166
24398,12782,47142
24380,12769,47122
24376,12764,47112
24379,12760,47105
24381,12760,47104
24394,12774,47122
24428,12807,47170
24474,12852,47246
24535,12913,47357
24628,13005,47522
24759,13134,47752
24920,13290,48038
25106,13470,48377
25329,13682,48779
25587,13924,49238
25867,14177,49731
26155,14433,50246
26449,14698,50779
26736,14965,51311
27005,15214,51818
27256,15442,52289
27492,15659,52722
27703,15858,53105
27874,16022,53424
28009,16152,53683
28122,16256,53892
28210,16332,54046
28264,16372,54133
28286,16383,54164
28285,16379,54161
28263,16355,54121
28217,16305,54037
28155,16239,53917
28082,16169,53777
27995,16091,53618
27893,16000,53436
27785,15904,53242
27680,15812,53050
27575,15723,52858
27469,15629,52664
27367,15536,52479
27275,15455,52311
27183,15376,52152
27090,15292,51994
27007,15218,51847
26939,15164,51721
26874,15116,51606
26809,15064,51496
26754,15017,51401
26711,14981,51324
26667,14943,51253
26617,14897,51182
26573,14853,51120
26536,14817,51063
26493,14778,50997
26443,14735,50920
26398,14699,50844
26360,14669,50769
26318,14632,50685
26268,14587,50592
26219,14542,50501
26173,14498,50414
26123,14446,50322
26070,14392,50226
26025,14348,50144
25986,14312,50073
25944,14276,50002
25905,14246,49938
25879,14230,49893
25862,14224,49864
25846,14219,49841
25831,14216,49825
25828,14223,49828
25832,14236,49846
25836,14248,49868
25846,14262,49896
25870,14291,49938
25901,14328,49988
25928,14358,50034
25958,14388,50080
25995,14421,50132
26029,14445,50183
26053,14457,50224
26075,14468,50260
26100,14482,50295
26117,14488,50318
26123,14483,50329
26127,14477,50339
26132,14477,50349
26130,14477,50345
26120,14470,50323
26111,14464,50297
26104,14461,50272
26087,14452,50238
26060,14433,50197
26030,14410,50153
26000,14384,50107
25963,14349,50051
25923,14308,49985
25886,14269,49919
25853,14234,49852
25815,14192,49774
25771,14143,49687
25730,14098,49603
25691,14059,49520
25647,14014,49431
25602,13967,49340
25560,13931,49256
25518,13899,49178
25470,13861,49097
25422,13820,49019
25387,13785,48954
25356,13753,48897
25318,13710,48832
25276,13664,48765
25239,13627,48708
25203,13595,48653
25164,13558,48589
25127,13521,48520
25098,13492,48452
25069,13462,48384
25029,13423,48313
24987,13384,48246
24956,13359,48191
24930,13340,48140
24901,13315,48084
24871,13290,48030
24847,13270,47983
24823,13247,47938
24794,13216,47888
24767,13187,47840
24745,13165,47799
24725,13145,47758
24702,13124,47712
24684,13106,47669
24670,13091,47634
24654,13071,47597
24636,13048,47554
24620,13026,47511
24607,13006,47469
24588,12978,47424
24562,12945,47379
24539,12918,47343
24523,12903,47316
24503,12885,47287
24482,12865,47257
24466,12851,47234
24451,12839,47210
24429,12819,47175
24405,12798,47138
24390,12787,47114
24380,12783,47100
24365,12778,47087
24354,12777,47081
24360,12790,47094
24381,12814,47127
24413,12846,47183
24467,12896,47274
24553,12977,47412
24668,13087,47607
24810,13223,47864
24986,13392,48187
25203,13603,48576
25451,13842,49022
25721,14094,49509
26010,14361,50033
26311,14641,50582
26607,14922,51127
26885,15187,51648
27150,15437,52139
27402,15672,52598
27627,15883,53007
27817,16060,53353
27974,16208,53639
28105,16326,53867
28202,16407,54031
28264,16453,54134
28297,16476,54192
28306,16480,54214
28288,16458,54192
28248,16416,54127
28200,16367,54035
28148,16311,53922
28081,16239,53782
28002,16157,53621
27922,16075,53455
27838,15992,53282
27744,15898,53094
27644,15799,52900
27553,15708,52718
27470,15625,52546
27381,15538,52372
27286,15448,52200
27192,15367,52044
27101,15292,51901
27010,15216,51764
26928,15144,51639
26862,15087,51533
26805,15039,51441
26746,14989,51350
26691,14943,51263
26649,14911,51188
26612,14884,51116
26572,14850,51038
26532,14815,50961
26493,14789,50891
26450,14759,50816
26398,14718,50730
26348,14676,50646
26302,14636,50569
26251,14591,50486
26190,14536,50391
26131,14484,50299
26081,14441,50220
26034,14396,50141
25988,14346,50058
25953,14303,49985
25927,14272,49929
25901,14246,49878
25877,14219,49830
25864,14201,49797
25862,14194,49780
25860,14187,49770
25860,14182,49766
25870,14188,49774
25887,14205,49794
25898,14219,49817
25904,14230,49841
25920,14251,49877
25945,14279,49920
25968,14301,49960
25987,14318,49996
26008,14338,50033
26030,14362,50069
26043,14379,50097
26052,14391,50118
26066,14407,50137
26080,14423,50155
26083,14425,50162
26077,14417,50157
26070,14411,50149
26059,14400,50129
26038,14379,50093
26012,14354,50053
25987,14332,50015
25957,14307,49969
25921,14271,49910
25886,14234,49844
25855,14206,49781
25823,14178,49714
25785,14139,49634
25749,14099,49552
25721,14063,49476
25689,14022,49403
25649,13971,49329
25611,13923,49257
25578,13885,49189
25536,13846,49122
25480,13806,49052
25425,13775,48982
25379,13753,48915
25335,13730,48842
25292,13700,48765
25256,13671,48690
25226,13646,48620
25191,13613,48543
25152,13573,48463
25122,13539,48394
25097,13507,48332
25064,13469,48262
25026,13430,48189
24994,13402,48129
24967,13383,48078
24935,13359,48021
24902,13329,47963
24877,13308,47916
24855,13289,47876
24826,13260,47833
24794,13229,47790
24771,13204,47753
24752,13181,47714
24730,13153,47668
24706,13126,47624
24689,13113,47595
24681,13107,47575
24672,13095,47552
24662,13082,47527
24657,13074,47507
24648,13062,47487
24632,13045,47459
24612,13029,47429
24593,13020,47398
24570,13010,47363
24544,12992,47322
24525,12973,47286
24518,12962,47258
24511,12946,47226
24497,12923,47186
24485,12904,47151
24473,12889,47121
24453,12865,47085
24427,12837,47044
24405,12816,47010
24387,12804,46981
24368,12790,46949
24347,12772,46914
24333,12759,46890
24328,12757,46881
24326,12759,46878
24332,12766,46886
24357,12790,46923
24405,12835,46996
24472,12898,47106
24568,12989,47270
24704,13120,47502
24877,13290,47804
25074,13485,48167
25300,13705,48587
25566,13956,49064
25861,14229,49585
26165,14506,50127
26471,14784,50678
26776,15062,51232
27068,15328,51763
27337,15565,52250
27580,15777,52686
27796,15965,53072
27978,16121,53396
28118,16238,53648
28223,16323,53837
28306,16392,53980
28365,16434,54071
28396,16443,54111
28405,16433,54111
28395,16418,54077
28358,16386,54004
28295,16334,53891
28222,16272,53757
28149,16208,53615
28069,16135,53460
27977,16054,53288
27885,15975,53112
27801,15900,52944
27711,15818,52776
27611,15728,52607
27516,15646,52446
27431,15576,52294
27344,15505,52144
27254,15431,51998
27174,15366,51869
27106,15313,51759
27039,15257,51655
26975,15197,51555
26927,15149,51472
26891,15108,51400
26851,15060,51322
26806,15011,51237
26767,14974,51160
26730,14943,51087
26683,14905,51006
