green_channel,red_channel,ir_channel
26571,7851,28535
26525,7834,28492
26507,7819,28450
26493,7807,28411
26451,7791,28373
26404,7772,28334
26381,7753,28298
26357,7733,28266
26311,7711,28239
26267,7691,28210
26246,7671,28178
26220,7649,28145
26176,7628,28110
26142,7608,28075
26131,7592,28043
26113,7582,28017
26074,7574,27993
26047,7564,27967
26039,7554,27941
26019,7544,27914
25980,7532,27881
25956,7516,27843
25949,7502,27807
25926,7492,27774
25886,7483,27743
25866,7477,27716
25859,7469,27689
25832,7460,27660
25788,7448,27629
25761,7432,27593
25745,7418,27552
25708,7401,27510
25659,7381,27464
25630,7364,27418
25610,7351,27375
25566,7336,27331
25510,7316,27285
25469,7294,27234
25431,7271,27180
25371,7246,27124
25311,7220,27068
25285,7202,27018
25271,7192,26979
25244,7186,26953
25231,7189,26948
25266,7207,26978
25330,7239,27045
25403,7285,27146
25508,7344,27280
25668,7419,27445
25851,7508,27641
26034,7607,27863
26237,7711,28103
26473,7820,28357
26705,7935,28622
26911,8050,28888
27119,8159,29142
27338,8259,29379
27537,8351,29602
27702,8436,29809
27864,8512,29999
28027,8583,30173
28158,8649,30331
28254,8705,30471
28348,8749,30591
28437,8782,30693
28483,8803,30774
28492,8813,30831
28505,8816,30867
28526,8817,30889
28524,8815,30898
28504,8810,30894
28499,8802,30883
28498,8793,30865
28470,8782,30841
28426,8768,30812
28402,8755,30781
28389,8744,30747
28358,8733,30714
28321,8721,30681
28303,8707,30650
28290,8694,30621
28256,8683,30594
28218,8671,30564
28204,8660,30531
28192,8650,30493
28151,8635,30449
28103,8615,30398
28076,8595,30342
28050,8574,30284
28003,8551,30227
27960,8528,30169
27941,8509,30114
27916,8495,30068
27867,8480,30030
27821,8465,29995
27798,8453,29963
27775,8447,29936
27739,8439,29913
27718,8428,29893
27726,8422,29883
27731,8421,29882
27725,8423,29889
27737,8428,29902
27770,8437,29917
27786,8447,29932
27786,8455,29946
27805,8465,29960
27845,8479,29978
27869,8495,29994
27875,8507,30006
27897,8516,30015
27929,8523,30024
27939,8528,30035
27933,8528,30042
27939,8526,30043
27951,8523,30039
27938,8518,30030
27910,8511,30016
27905,8505,29999
27911,8500,29983
27894,8494,29964
27862,8483,29938
27843,8467,29901
27824,8449,29856
27773,8426,29810
27714,8399,29760
27673,8371,29703
27634,8347,29641
27574,8323,29580
27509,8297,29520
27463,8274,29459
27417,8252,29398
27348,8228,29332
27279,8199,29262
27229,8170,29192
27171,8141,29126
27095,8113,29061
27031,8086,28996
26996,8064,28934
26957,8045,28876
26899,8023,28820
26850,7998,28762
26819,7975,28703
26772,7952,28647
26708,7929,28593
26662,7908,28539
26639,7891,28491
26606,7875,28448
26554,7856,28405
26516,7836,28363
26493,7815,28319
26456,7794,28271
26406,7770,28218
26375,7747,28165
26361,7726,28119
26328,7708,28080
26285,7692,28046
26264,7682,28017
26256,7678,27993
26227,7675,27970
26184,7668,27942
26156,7656,27910
26133,7643,27873
26087,7628,27834
26037,7611,27793
26013,7595,27756
25997,7580,27725
25962,7565,27696
25924,7548,27662
25907,7532,27628
25893,7523,27600
25861,7517,27574
25832,7512,27543
25826,7506,27508
25821,7500,27477
25799,7493,27450
25781,7485,27428
25782,7477,27406
25776,7469,27385
25748,7459,27361
25725,7446,27332
25716,7429,27296
25692,7411,27257
25648,7391,27216
25613,7371,27171
25592,7355,27130
25554,7340,27091
25493,7325,27047
25444,7307,27000
25415,7287,26951
25374,7265,26897
25318,7241,26840
25281,7219,26783
25267,7205,26735
25248,7201,26705
25231,7204,26697
25258,7218,26718
25327,7248,26778
25410,7293,26879
25515,7350,27017
25673,7423,27188
25869,7511,27391
26068,7613,27618
26275,7723,27861
26516,7839,28116
26772,7958,28385
27006,8078,28665
27228,8195,28941
27464,8311,29209
27697,8424,29467
27898,8526,29709
28081,8618,29929
28267,8702,30128
28433,8780,30309
28558,8847,30468
28668,8904,30605
28775,8951,30722
28855,8987,30820
28894,9015,30899
28919,9034,30958
28945,9042,30997
28942,9039,31016
28898,9024,31015
28847,9000,30994
28806,8971,30958
28754,8941,30914
28684,8911,30866
28631,8886,30817
28602,8870,30776
28565,8857,30745
28519,8842,30717
28496,8828,30695
28496,8819,30678
28486,8811,30660
28470,8805,30640
28475,8803,30621
28490,8803,30604
28480,8800,30585
28449,8788,30556
28424,8771,30520
28401,8754,30482
28353,8733,30436
28291,8710,30378
28244,8687,30316
28201,8667,30255
28137,8647,30193
28068,8623,30129
28019,8599,30066
27975,8574,30007
27913,8548,29950
27850,8521,29894
27813,8496,29846
27789,8476,29809
27758,8462,29784
27740,8453,29768
27753,8452,29765
27773,8460,29773
27780,8471,29793
27794,8485,29820
27835,8502,29848
27877,8521,29876
27902,8536,29903
27936,8547,29931
27992,8562,29959
28040,8580,29984
28068,8599,30006
28103,8619,30028
28151,8641,30048
28178,8660,30066
28182,8673,30077
28195,8684,30083
28222,8691,30085
28230,8692,30079
28222,8690,30066
28231,8689,30048
28252,8689,30028
28251,8686,30006
28230,8678,29982
28222,8669,29954
28220,8659,29926
28195,8646,29894
28153,8628,29855
28124,8608,29808
28099,8587,29760
28055,8565,29712
28004,8542,29662
27973,8521,29614
27941,8499,29565
27880,8476,29510
27810,8448,29447
27764,8420,29381
27727,8394,29316
27673,8368,29253
27623,8343,29190
27599,8322,29132
27579,8305,29078
27541,8288,29029
27509,8271,28987
27500,8260,28949
27485,8248,28913
27447,8232,28877
27412,8210,28836
27398,8187,28793
27379,8166,28753
27340,8147,28717
27312,8128,28684
27306,8113,28654
27292,8100,28626
27258,8090,28593
27234,8082,28557
27229,8076,28523
27210,8070,28490
27178,8061,28457
27167,8051,28425
27176,8043,28399
27173,8038,28382
27163,8032,28366
27182,8023,28355
27218,8014,28353
27226,8008,28352
27211,8002,28340
27202,7995,28319
27197,7989,28297
27170,7984,28275
27125,7978,28249
27094,7970,28218
27066,7962,28185
27017,7950,28148
26959,7933,28107
26919,7913,28062
26886,7893,28016
26841,7876,27969
26801,7863,27923
26789,7854,27883
26782,7846,27849
26750,7835,27815
26707,7818,27779
26678,7801,27741
26644,7780,27699
26585,7754,27649
26526,7722,27591
26491,7689,27529
26455,7655,27467
26398,7620,27407
26347,7587,27350
26325,7564,27305
26305,7554,27279
26283,7554,27273
26294,7567,27290
26352,7598,27339
26431,7647,27425
26522,7709,27545
26651,7780,27698
26818,7862,27883
26989,7954,28095
27160,8052,28328
27358,8154,28571
27580,8258,28818
27793,8362,29065
27996,8465,29309
28215,8565,29549
28443,8662,29787
28647,8754,30018
28822,8838,30234
28993,8916,30435
29152,8987,30619
29273,9051,30779
29369,9105,30912
29465,9151,31021
29552,9188,31113
29607,9216,31186
29643,9236,31242
29683,9251,31289
29714,9262,31327
29716,9267,31352
29707,9268,31361
29708,9265,31360
29703,9261,31351
29673,9254,31335
29642,9245,31313
29633,9237,31286
29625,9230,31257
29601,9221,31227
29581,9209,31199
29581,9196,31174
29580,9185,31150
29559,9175,31126
29537,9164,31098
29521,9153,31065
29486,9140,31026
29427,9125,30981
29380,9110,30932
29354,9098,30885
29322,9088,30842
29278,9077,30801
29250,9066,30761
29240,9056,30723
29218,9046,30687
29178,9031,30652
29150,9013,30619
29141,8998,30592
29121,8985,30568
29095,8973,30544
29092,8966,30525
29105,8965,30512
29108,8967,30503
29107,8969,30497
29125,8973,30497
29155,8984,30502
29175,8999,30511
29198,9018,30525
29248,9037,30546
29306,9058,30573
29346,9077,30602
29379,9093,30630
29426,9110,30657
29469,9126,30680
29486,9138,30697
29496,9146,30709
29522,9151,30717
29545,9156,30722
29544,9160,30722
29537,9161,30716
29538,9158,30702
29527,9153,30682
29488,9141,30657
29448,9123,30628
29420,9101,30595
29384,9078,30556
29329,9051,30511
29279,9020,30461
29243,8989,30409
29195,8957,30353
29127,8926,30289
29068,8897,30220
29023,8869,30149
28967,8842,30075
28900,8815,29996
28847,8790,29916
28811,8770,29840
28759,8746,29764
28687,8717,29686
28627,8686,29609
28574,8654,29535
28499,8618,29458
28405,8577,29376
28320,8533,29291
28241,8489,29209
28147,8446,29127
28046,8403,29043
27958,8360,28960
27872,8316,28875
27767,8269,28785
27655,8220,28687
27561,8172,28589
27475,8126,28497
27376,8083,28409
27283,8041,28328
27217,8006,28256
27159,7976,28194
27084,7946,28138
27013,7916,28085
26966,7887,28033
26924,7861,27978
26866,7835,27920
26815,7810,27861
26791,7792,27809
26766,7780,27765
26724,7771,27726
26686,7762,27689
26661,7751,27651
26626,7736,27609
26574,7715,27564
26530,7691,27522
26506,7670,27486
26476,7652,27451
26432,7635,27416
26399,7618,27380
26384,7605,27346
26359,7595,27313
26319,7584,27278
26297,7571,27243
26295,7563,27216
26287,7558,27197
26273,7554,27180
26277,7554,27167
26292,7555,27158
26288,7556,27152
26260,7555,27138
26237,7550,27114
26219,7540,27082
26181,7525,27043
26132,7504,27000
26100,7484,26954
26075,7468,26906
26032,7452,26855
25984,7436,26803
25953,7423,26755
25926,7411,26710
25883,7395,26663
25839,7377,26618
25819,7363,26585
25813,7354,26567
25808,7353,26571
25836,7366,26608
25923,7399,26685
26052,7456,26806
26202,7533,26971
26385,7628,27178
26607,7737,27417
26842,7853,27677
27063,7970,27943
27287,8083,28210
27522,8192,28476
27742,8296,28736
27945,8393,28991
28156,8485,29237
28369,8578,29473
28547,8671,29693
28687,8758,29894
28827,8836,30077
28968,8908,30243
29079,8968,30391
29160,9016,30517
29243,9054,30621
29327,9089,30712
29385,9117,30788
29421,9137,30849
29468,9151,30900
29522,9164,30941
29551,9176,30970
29559,9183,30983
29568,9185,30982
29572,9178,30967
29550,9162,30941
29519,9142,30908
29506,9127,30874
29497,9118,30843
29465,9108,30815
29429,9096,30789
29412,9085,30764
29398,9078,30739
29369,9070,30711
29341,9059,30680
29334,9048,30646
29327,9038,30611
29301,9027,30574
29277,9015,30535
29271,9005,30502
29261,8994,30474
29228,8982,30442
29195,8966,30404
29176,8949,30361
29151,8931,30313
29107,8911,30263
29070,8892,30213
29058,8878,30172
29045,8871,30142
29017,8863,30117
28997,8855,30095
28989,8847,30078
28970,8838,30063
28937,8824,30045
28920,8811,30028
28927,8804,30020
28932,8800,30018
28933,8799,30020
28955,8803,30028
28993,8813,30043
29016,8825,30058
29022,8835,30071
29038,8845,30085
29063,8856,30103
29070,8866,30121
29069,8873,30136
29086,8879,30146
29112,8885,30154
29124,8892,30160
29123,8897,30162
29132,8901,30158
29142,8905,30149
29130,8905,30134
29115,8901,30115
29124,8899,30093
29139,8900,30073
29139,8903,30054
29135,8902,30028
29140,8899,29999
29134,8896,29968
29101,8890,29932
29061,8873,29887
29027,8847,29834
28978,8814,29772
28903,8775,29705
28829,8737,29636
28774,8702,29570
28713,8669,29501
28633,8635,29426
28559,8599,29350
28502,8564,29277
28439,8529,29207
28365,8493,29135
28309,8458,29062
28273,8428,28994
28227,8403,28934
28171,8383,28881
28133,8366,28834
28114,8351,28790
28083,8336,28746
28039,8318,28699
28004,8298,28651
27978,8282,28605
27937,8266,28557
27882,8247,28507
27844,8228,28463
27815,8210,28423
27766,8189,28383
27704,8162,28335
27654,8134,28283
27609,8107,28234
27549,8081,28188
27493,8057,28144
27465,8040,28104
27448,8028,28070
27420,8018,28038
27398,8011,28012
27403,8009,27992
27415,8012,27978
27414,8018,27972
27416,8024,27969
27438,8030,27971
27460,8038,27975
27465,8045,27983
27472,8053,27994
27490,8060,28003
27497,8064,28002
27480,8062,27988
27461,8055,27964
27452,8047,27933
27428,8037,27897
27385,8025,27859
27352,8013,27818
27335,8002,27779
27305,7986,27740
27255,7965,27698
27215,7944,27651
27195,7925,27604
27166,7909,27561
27125,7894,27521
27103,7884,27486
27100,7875,27454
27086,7866,27421
27066,7857,27394
27078,7856,27385
27122,7870,27399
27175,7900,27443
27243,7942,27523
27355,7996,27638
27499,8064,27787
27647,8144,27961
27805,8232,28153
27995,8330,28364
28205,8436,28596
28405,8543,28841
28602,8645,29088
28812,8743,29329
29015,8837,29564
29187,8924,29791
29351,9004,30005
29526,9080,30207
29693,9155,30399
29830,9229,30582
29960,9296,30753
30098,9361,30910
30221,9418,31052
30311,9465,31173
30389,9501,31272
30467,9530,31351
30525,9553,31412
30553,9571,31456
30578,9583,31488
30609,9587,31508
30617,9587,31518
30592,9580,31513
30562,9568,31495
30544,9553,31469
30515,9534,31436
30472,9514,31399
30440,9494,31360
30418,9473,31317
30379,9452,31270
30324,9426,31216
30278,9395,31159
30246,9366,31107
30203,9338,31056
30152,9309,31000
30114,9284,30943
30083,9261,30886
30028,9235,30827
29958,9210,30763
29905,9185,30700
29861,9161,30640
29803,9137,30583
29739,9115,30529
29694,9097,30480
29660,9082,30438
29617,9069,30400
29582,9058,30366
29578,9052,30338
29588,9050,30314
29585,9048,30299
29587,9046,30296
29612,9049,30301
29639,9052,30310
29644,9051,30318
29646,9048,30327
29666,9045,30341
29686,9045,30360
29691,9049,30383
29702,9055,30408
29728,9062,30434
29741,9069,30457
29731,9071,30471
29725,9070,30473
29731,9071,30470
29726,9073,30465
29708,9075,30457
29703,9076,30447
29710,9074,30435
29702,9068,30416
29673,9055,30387
29648,9038,30350
29629,9020,30313
29590,8998,30274
29538,8973,30227
29500,8947,30175
29472,8927,30125
29429,8910,30076
29374,8891,30025
29332,8869,29972
29296,8846,29919
29242,8820,29861
29180,8792,29797
29134,8764,29728
29096,8737,29658
29042,8710,29586
28979,8683,29514
28929,8658,29447
28879,8632,29382
28805,8602,29312
28729,8571,29241
28675,8542,29175
28627,8513,29114
28562,8481,29052
28499,8450,28990
28460,8425,28933
28428,8407,28883
28387,8392,28840
28357,8378,28799
28347,8368,28761
28332,8360,28724
28299,8347,28687
28272,8333,28649
28264,8322,28614
28248,8312,28581
28212,8301,28547
28178,8289,28512
28153,8276,28477
28113,8261,28442
28059,8241,28403
28017,8216,28358
27995,8193,28319
27967,8174,28284
27929,8159,28251
27905,8144,28219
27891,8130,28189
27860,8115,28159
27817,8099,28124
27789,8084,28088
27774,8074,28056
27745,8066,28031
27703,8055,28009
27675,8043,27986
27655,8031,27962
27621,8017,27937
27582,7999,27908
27561,7980,27876
27549,7963,27844
27524,7947,27810
27497,7933,27772
27487,7922,27734
27478,7914,27696
27449,7905,27661
27416,7895,27626
27398,7884,27592
27383,7875,27562
27361,7871,27544
27358,7876,27547
27397,7894,27578
27467,7929,27645
27556,7979,27751
27686,8044,27895
27862,8126,28074
28057,8222,28283
28256,8328,28513
28478,8439,28761
28729,8556,29025
28982,8678,29300
29220,8800,29576
29458,8920,29846
29697,9039,30108
29911,9152,30358
30099,9255,30592
30288,9346,30809
30481,9431,31011
30647,9509,31199
30785,9577,31370
30920,9639,31521
31049,9693,31651
31143,9737,31759
31208,9773,31845
31273,9804,31914
31331,9828,31967
31359,9842,32002
31371,9849,32022
31392,9851,32031
31410,9852,32033
31403,9850,32024
31380,9842,32006
31366,9830,31983
31349,9814,31954
31309,9796,31922
31265,9776,31891
31242,9758,31860
31225,9742,31828
31193,9728,31791
31159,9711,31751
31137,9694,31713
31110,9676,31676
31062,9655,31637
31014,9632,31593
30979,9609,31546
30940,9590,31498
30883,9569,31449
30832,9546,31398
30802,9527,31348
30768,9511,31300
30721,9495,31254
30684,9480,31211
30664,9468,31173
30637,9456,31139
30598,9442,31108
30575,9433,31084
30577,9430,31071
30577,9429,31065
30569,9428,31062
30574,9430,31064
30591,9433,31074
30594,9436,31089
30590,9439,31104
30605,9445,31120
30634,9453,31139
30651,9462,31157
30661,9473,31176
30688,9488,31197
30723,9503,31219
30737,9513,31233
30738,9515,31239
30749,9514,31241
30763,9512,31242
30756,9509,31240
30741,9504,31231
30740,9499,31219
30741,9497,31203
30720,9494,31181
30688,9486,31153
30664,9472,31120
30632,9453,31080
30574,9427,31033
30513,9397,30981
30468,9365,30925
30421,9334,30864
30359,9304,30803
30303,9275,30744
30264,9249,30687
30221,9225,30628
30164,9202,30564
30110,9176,30498
30067,9148,30432
30013,9121,30364
29944,9092,30296
29889,9062,30229
29855,9033,30168
29817,9008,30112
29769,8987,30061
29735,8968,30013
29710,8952,29964
29665,8937,29914
29602,8917,29859
29549,8894,29804
29509,8871,29748
29457,8847,29688
29397,8821,29630
29357,8801,29578
29329,8783,29532
29285,8763,29489
29232,8738,29445
29196,8714,29404
29170,8694,29369
29133,8671,29335
29093,8645,29296
29070,8622,29256
29056,8605,29222
29027,8592,29192
28996,8580,29163
28986,8570,29137
28977,8562,29112
28946,8553,29084
28907,8544,29050
28883,8534,29015
28864,8525,28979
28835,8515,28943
28812,8503,28907
28806,8493,28874
28793,8484,28845
28760,8471,28813
28724,8450,28775
28700,8426,28734
28669,8405,28697
28625,8386,28663
28589,8370,28630
28575,8360,28602
28558,8354,28577
28523,8345,28546
28488,8331,28510
28457,8310,28469
28408,8284,28420
28345,8255,28366
28292,8228,28309
28251,8206,28253
28201,8187,28197
28141,8167,28143
28100,8148,28098
28080,8134,28068
28064,8127,28057
28061,8129,28067
28100,8146,28110
28182,8181,28192
28289,8235,28311
28427,8307,28468
28613,8398,28664
28832,8503,28896
29056,8622,29151
29287,8747,29419
29539,8877,29696
29794,9007,29978
30028,9131,30259
30251,9245,30533
30481,9353,30796
30703,9458,31046
30896,9558,31281
31073,9649,31498
31246,9733,31698
31399,9810,31877
31518,9876,32033
31619,9930,32163
31715,9974,32272
31785,10006,32361
31816,10025,32427
31831,10034,32469
31847,10039,32492
31846,10042,32501
31827,10040,32500
31815,10032,32488
31812,10022,32469
31797,10009,32452
31762,9993,32433
31729,9975,32408
31705,9954,32377
31673,9930,32345
31635,9907,32311
31613,9886,32279
31602,9871,32250
31576,9860,32222
31538,9848,32190
31515,9836,32155
31500,9824,32122
31465,9807,32087
31414,9786,32046
31370,9763,31997
31333,9741,31946
31283,9717,31894
31229,9692,31840
31193,9672,31788
31162,9656,31740
31115,9640,31693
31066,9621,31649
31036,9602,31612
31016,9587,31584
30987,9575,31560
30962,9566,31538
30957,9560,31522
30955,9560,31513
30940,9562,31508
30927,9563,31508
30927,9566,31514
30925,9569,31523
30912,9569,31530
30908,9565,31535
30924,9561,31541
30940,9563,31551
30943,9567,31562
30948,9572,31571
30964,9575,31580
30973,9576,31588
30967,9575,31591
30968,9573,31590
30981,9575,31589
30983,9576,31584
30968,9575,31571
30959,9572,31553
30955,9566,31529
30932,9554,31501
30893,9537,31466
30859,9517,31428
30831,9496,31389
30786,9474,31346
30725,9449,31297
30673,9423,31245
30626,9397,31188
30560,9368,31123
30486,9334,31053
30426,9300,30983
30374,9268,30914
30312,9237,30845
30246,9206,30778
30195,9181,30714
30148,9160,30652
30083,9140,30585
30017,9116,30514
29970,9090,30443
29926,9064,30376
29865,9036,30311
29803,9006,30248
29759,8979,30190
29716,8953,30135
29654,8924,30079
29592,8893,30019
29544,8863,29954
29497,8833,29889
29441,8806,29825
29394,8786,29766
29366,8772,29717
29335,8758,29675
29290,8745,29632
29251,8733,29588
29224,8720,29544
29185,8703,29502
29133,8682,29458
29093,8661,29412
29065,8642,29368
29023,8622,29328
28970,8603,29287
28932,8586,29248
28907,8566,29213
28869,8541,29181
28824,8517,29147
28796,8498,29113
28780,8486,29082
28752,8475,29049
28714,8462,29012
28688,8445,28975
28672,8429,28941
28644,8413,28908
28612,8398,28873
28596,8386,28840
28588,8376,28811
28564,8369,28783
28533,8362,28755
28514,8357,28724
28493,8349,28691
28448,8334,28651
28397,8313,28604
28361,8290,28555
28329,8267,28508
28282,8242,28460
28232,8213,28409
28194,8184,28355
28152,8155,28299
28089,8125,28237
28025,8094,28170
27977,8064,28106
27929,8039,28046
27865,8019,27987
27803,8000,27929
27755,7981,27874
27707,7964,27823
27659,7950,27779
27640,7944,27753
27665,7954,27760
27718,7983,27808
27798,8029,27902
27927,8093,28043
28104,8175,28227
28302,8274,28445
28510,8383,28688
28743,8497,28949
28993,8619,29227
29235,8747,29520
29468,8874,29818
29712,8999,30115
29961,9123,30406
30189,9240,30686
30395,9346,30946
30598,9444,31185
30794,9538,31409
30964,9624,31617
31112,9700,31805
31258,9770,31971
31392,9831,32117
31493,9882,32240
31567,9920,32340
31633,9946,32421
31681,9966,32484
31695,9978,32528
31697,9981,32554
31706,9980,32569
31709,9976,32574
31689,9966,32566
31662,9952,32548
31645,9939,32523
31622,9926,32493
31578,9910,32453
31534,9890,32407
31505,9870,32361
31472,9850,32316
31428,9830,32275
31394,9810,32239
31376,9794,32208
31348,9783,32174
31302,9771,32134
31264,9757,32089
31235,9740,32037
31192,9716,31976
31133,9689,31912
31082,9661,31850
31045,9636,31795
31001,9615,31746
30949,9592,31699
30913,9569,31653
30889,9548,31610
30852,9530,31569
30810,9513,31531
30789,9498,31499
30787,9490,31480
30779,9489,31472
30765,9492,31469
30769,9498,31474
30782,9506,31487
30780,9514,31502
30773,9518,31517
30781,9522,31531
30794,9528,31546
30794,9533,31562
30799,9536,31575
30824,9541,31588
30853,9549,31601
30864,9557,31611
30872,9566,31618
30888,9576,31625
30897,9584,31632
30884,9583,31635
30868,9574,31633
30866,9562,31626
30861,9551,31615
30837,9539,31596
30811,9528,31572
30793,9516,31542
30763,9502,31504
30711,9482,31459
30661,9460,31410
30625,9438,31354
30581,9414,31294
30527,9390,31232
30486,9369,31172
30459,9349,31117
30418,9329,31062
30359,9304,31003
30309,9278,30940
30268,9250,30874
30211,9219,30803
30139,9182,30729
30074,9143,30654
30020,9110,30582
29959,9080,30513
29891,9050,30446
29840,9025,30386
29802,9008,30333
29753,8993,30281
29691,8976,30224
29642,8956,30164
29603,8935,30106
29555,8914,30051
29509,8895,29998
29479,8878,29948
29452,8861,29902
29409,8841,29857
29363,8818,29814
29332,8795,29773
29304,8770,29732
29262,8743,29687
29218,8716,29641
29187,8693,29597
29156,8677,29556
29112,8663,29519
29072,8647,29485
29047,8632,29453
29020,8617,29420
28979,8599,29382
28945,8581,29342
28929,8567,29306
28911,8557,29274
28878,8547,29243
28851,8534,29212
28833,8522,29180
28803,8510,29150
28756,8496,29118
28720,8480,29083
28697,8466,29044
28663,8453,29001
28619,8440,28957
28589,8428,28918
28573,8415,28883
28545,8399,28848
28502,8379,28812
28469,8362,28777
28445,8348,28743
28409,8335,28706
28366,8319,28666
28338,8305,28627
28319,8293,28589
28282,8280,28552
28233,8261,28510
28193,8237,28461
28155,8213,28408
28100,8188,28349
28040,8158,28285
27995,8128,28222
27949,8101,28160
27887,8075,28098
27825,8048,28035
27781,8021,27975
27744,8002,27925
27704,7991,27886
27686,7988,27868
27710,8000,27884
27771,8032,27944
27863,8083,28049
28004,8154,28202
28200,8249,28405
28426,8363,28651
28662,8488,28926
28914,8618,29216
29183,8749,29513
29449,8878,29811
29700,9002,30103
29951,9126,30388
30204,9248,30672
30430,9365,30948
30629,9471,31207
30823,9570,31449
31009,9663,31673
31163,9747,31875
31285,9817,32052
31399,9877,32203
31510,9928,32332
31595,9972,32436
31654,10006,32517
31712,10032,32580
31765,10050,32627
31789,10059,32658
31788,10058,32668
31786,10049,32663
31778,10035,32647
31742,10013,32622
31692,9988,32586
31655,9964,32546
31622,9942,32502
31576,9920,32456
31528,9897,32408
31493,9873,32364
31457,9851,32320
31403,9826,32270
31346,9800,32218
31303,9779,32170
31257,9760,32123
31190,9737,32069
31124,9709,32010
31074,9682,31947
31026,9656,31880
30966,9629,31811
30913,9602,31746
30876,9578,31689
30836,9556,31640
30785,9533,31594
30743,9510,31547
30711,9489,31505
30671,9470,31470
30628,9451,31439
30611,9433,31415
30622,9425,31402
30633,9425,31398
30642,9432,31400
30666,9443,31411
30699,9458,31430
30718,9474,31451
30727,9490,31472
30751,9506,31497
30786,9522,31525
30803,9536,31550
30809,9543,31572
30830,9549,31591
30859,9556,31609
30876,9565,31624
30885,9573,31636
30901,9581,31648
30914,9589,31658
30905,9594,31660
30884,9591,31650
30869,9584,31632
30855,9575,31607
30825,9561,31575
30792,9543,31539
30773,9528,31503
30749,9515,31469
30706,9500,31430
30660,9483,31384
30623,9466,31335
30580,9446,31283
30517,9417,31223
30451,9381,31156
30394,9342,31083
30332,9304,31007
30259,9269,30929
30196,9239,30854
30152,9217,30785
30103,9199,30723
30033,9177,30659
29966,9151,30593
29909,9122,30524
29843,9090,30454
29767,9057,30382
29704,9020,30308
29656,8984,30237
29600,8947,30167
29536,8914,30099
29491,8887,30038
29461,8863,29983
29421,8841,29934
29372,8819,29885
29338,8799,29836
29314,8781,29787
29278,8763,29734
29234,8744,29681
29199,8726,29630
29168,8710,29579
29124,8696,29529
29076,8678,29478
29044,8662,29435
29018,8650,29399
28980,8638,29367
28942,8627,29340
28923,8615,29318
28907,8602,29289
28875,8585,29254
28841,8566,29217
28823,8549,29186
28806,8531,29161
28775,8513,29137
28746,8495,29109
28728,8480,29078
28703,8465,29049
28660,8451,29019
28621,8433,28985
28600,8414,28949
28580,8396,28913
28552,8380,28881
28531,8366,28851
28516,8356,28818
28484,8349,28782
28438,8340,28742
28400,8329,28700
28373,8318,28656
28334,8305,28609
28285,8287,28561
28248,8268,28514
28225,8251,28474
28192,8236,28438
28144,8217,28398
28103,8194,28353
28064,8168,28303
28005,8136,28243
27933,8101,28172
27877,8067,28099
27834,8039,28035
27789,8014,27979
27755,7994,27938
27761,7989,27925
27804,8005,27951
27867,8043,28023
27962,8099,28142
28108,8173,28309
28293,8265,28524
28493,8372,28777
28713,8488,29054
28965,8614,29342
29233,8747,29632
29496,8880,29925
29761,9013,30223
30037,9145,30518
30299,9272,30800
30529,9390,31066
30739,9498,31312
30940,9596,31538
31118,9685,31748
31266,9766,31939
31402,9840,32109
31534,9912,32259
31641,9977,32388
31710,10027,32489
31761,10061,32565
31800,10081,32616
31811,10084,32645
31797,10074,32657
31786,10060,32656
31788,10049,32648
31779,10040,32633
31752,10028,32609
31729,10012,32579
31709,9993,32543
31669,9971,32498
31616,9946,32447
31574,9923,32393
31543,9902,32340
31498,9880,32285
31443,9854,32227
31403,9830,32172
31372,9808,32122
31329,9783,32071
31275,9754,32017
31227,9724,31960
31179,9695,31902
31115,9665,31841
31048,9636,31777
30999,9612,31713
30959,9591,31651
30913,9570,31593
30871,9552,31539
30847,9538,31495
30826,9530,31460
30795,9521,31431
30770,9517,31412
30766,9518,31405
30768,9520,31406
30763,9519,31410
30764,9514,31416
30781,9513,31426
30802,9519,31442
30816,9531,31466
30839,9547,31497
30880,9567,31536
30914,9586,31579
30928,9600,31616
30943,9611,31645
30967,9618,31669
30982,9623,31688
30984,9626,31698
30995,9628,31701
31018,9632,31699
31029,9637,31693
31027,9639,31683
31030,9639,31674
31038,9637,31663
31029,9631,31648
31002,9621,31624
30975,9607,31590
30951,9589,31550
30913,9567,31502
30868,9541,31450
30835,9517,31397
30806,9495,31342
30762,9474,31285
30710,9450,31227
30665,9428,31166
30619,9408,31100
30559,9384,31033
30493,9355,30966
30437,9323,30902
30384,9291,30840
30319,9260,30776
30257,9226,30709
30215,9197,30647
30179,9176,30592
30137,9156,30541
30102,9135,30492
30083,9121,30447
30058,9113,30405
30014,9102,30363
29969,9084,30319
29936,9064,30273
29901,9044,30225
29854,9024,30176
29814,9006,30127
29791,8991,30082
29767,8977,30038
29734,8963,29997
29711,8950,29960
29701,8938,29928
29681,8926,29898
29651,8913,29864
29632,8900,29829
29622,8887,29796
29601,8874,29765
29570,8860,29733
29552,8844,29702
29546,8832,29671
29532,8822,29641
29513,8812,29614
29507,8804,29597
29507,8799,29583
29492,8795,29568
29468,8791,29549
29455,8787,29528
29448,8787,29507
29424,8784,29486
29396,8777,29462
29383,8770,29437
29373,8764,29415
29349,8758,29394
29320,8752,29370
29298,8745,29344
29271,8736,29317
29227,8721,29286
29182,8703,29252
29150,8682,29218
29117,8658,29181
29068,8628,29137
29020,8594,29088
28990,8563,29038
28959,8538,28988
28915,8517,28939
28874,8499,28892
28846,8488,28850
28818,8480,28811
28785,8474,28777
28767,8472,28753
28770,8474,28744
28785,8481,28755
28817,8498,28798
28892,8531,28878
29014,8584,29000
29164,8655,29162
29335,8742,29361
29542,8845,29594
29778,8961,29855
30016,9083,30133
30247,9206,30417
30488,9333,30702
30733,9459,30984
30959,9579,31257
31170,9691,31517
31382,9798,31766
31590,9901,32004
31773,9995,32224
31933,10077,32425
32083,10151,32607
32216,10214,32764
32312,10264,32891
32386,10299,32989
32458,10325,33065
32516,10345,33122
32545,10356,33160
32561,10361,33179
32577,10363,33187
32576,10361,33187
32547,10352,33176
32508,10335,33151
32478,10315,33113
32442,10294,33067
32389,10270,33017
32339,10245,32964
32302,10220,32912
32262,10195,32861
32211,10170,32812
32165,10146,32760
32131,10122,32703
32090,10097,32644
32033,10069,32581
31977,10035,32512
31930,10001,32439
31875,9968,32366
31809,9937,32292
31756,9910,32223
31717,9888,32164
31672,9866,32112
31619,9843,32061
31578,9823,32014
31552,9809,31972
31526,9797,31935
31503,9787,31906
31502,9781,31891
31518,9783,31891
31530,9789,31902
31540,9800,31919
31564,9817,31942
31593,9837,31968
31608,9853,31991
31620,9866,32012
31649,9879,32037
31684,9895,32067
31710,9910,32101
31733,9924,32137
31766,9936,32174
31800,9946,32209
31820,9954,32235
31841,9961,32254
31877,9972,32269
31908,9983,32282
31918,9991,32290
31923,9994,32294
31937,9997,32297
31940,9998,32293
31920,9991,32279
31890,9976,32254
31861,9957,32218
31823,9936,32174
31775,9914,32127
31733,9895,32079
31701,9879,32030
31659,9863,31978
31602,9842,31917
31544,9816,31851
31491,9786,31784
31426,9752,31717
31355,9716,31649
31301,9683,31586
31261,9654,31528
31217,9630,31470
31170,9606,31411
31135,9584,31353
31111,9565,31299
31075,9548,31247
31028,9529,31194
30991,9508,31140
30960,9486,31084
30917,9464,31026
30866,9442,30963
30823,9419,30902
30782,9397,30848
30727,9376,30797
30667,9354,30747
30624,9331,30700
30594,9307,30659
30558,9282,30617
30519,9259,30573
30489,9240,30533
30459,9226,30498
30416,9211,30464
30375,9196,30430
30346,9179,30394
30321,9164,30359
30287,9147,30323
30260,9132,30286
30251,9122,30258
30243,9118,30238
30222,9116,30218
30203,9112,30196
30195,9106,30173
30180,9095,30151
30151,9079,30126
30124,9062,30099
30108,9046,30069
30086,9032,30034
30056,9020,29998
30035,9012,29964
30027,9005,29933
30009,8999,29904
29981,8990,29877
29960,8979,29852
29949,8969,29830
29927,8959,29806
29898,8945,29776
29878,8929,29742
29865,8914,29708
29844,8900,29672
29812,8884,29630
29787,8866,29591
29761,8845,29554
29718,8820,29510
29665,8794,29463
29624,8770,29423
29602,8753,29398
29590,8746,29393
29598,8754,29418
29649,8783,29481
29739,8833,29586
29854,8902,29730
30002,8986,29909
30189,9083,30120
30395,9190,30356
30604,9303,30608
30824,9420,30869
31064,9541,31135
31307,9665,31404
31537,9787,31672
31766,9907,31938
31999,10028,32204
32216,10144,32461
32401,10248,32698
32571,10339,32906
32730,10418,33088
32866,10486,33244
32978,10541,33375
33082,10586,33482
33179,10625,33575
33253,10655,33657
33301,10676,33724
33340,10692,33773
33375,10705,33808
33389,10715,33831
33385,10717,33840
33386,10714,33835
33390,10707,33820
33376,10693,33795
33345,10676,33757
33320,10656,33713
33301,10636,33672
33270,10617,33632
33233,10598,33590
33207,10580,33546
33184,10561,33504
33146,10543,33463
33100,10524,33418
33059,10503,33369
33017,10482,33319
32966,10459,33267
32915,10436,33210
32878,10414,33151
32846,10394,33095
32807,10376,33047
32772,10358,33004
32752,10345,32966
32735,10338,32938
32710,10333,32913
32690,10330,32889
32686,10328,32870
32683,10325,32860
32673,10323,32856
32675,10322,32859
32698,10322,32870
32721,10326,32888
32736,10334,32909
32759,10345,32929
32790,10356,32952
32810,10365,32978
32817,10373,33005
32831,10379,33031
32858,10387,33058
32880,10395,33085
32898,10402,33112
32927,10412,33139
32963,10424,33168
32986,10435,33193
32998,10443,33212
33017,10451,33227
33037,10457,33235
33036,10459,33232
33016,10453,33216
32997,10443,33189
32977,10430,33153
32938,10414,33108
32888,10393,33054
32849,10371,32999
32817,10347,32944
32776,10322,32890
32730,10293,32834
32691,10265,32780
32652,10242,32724
32601,10222,32665
32551,10200,32605
32513,10178,32544
32473,10153,32483
32423,10123,32424
32374,10093,32367
32342,10071,32316
32312,10055,32267
32272,10042,32216
32237,10029,32163
32214,10016,32110
32182,10001,32060
32134,9981,32012
32088,9959,31964
32052,9937,31918
32012,9916,31875
31968,9894,31833
31936,9875,31795
31920,9863,31764
31898,9854,31737
31865,9842,31709
31840,9826,31682
31824,9809,31653
31798,9790,31619
31764,9771,31583
31739,9754,31551
31724,9741,31525
31706,9733,31503
31685,9725,31482
31679,9718,31466
31679,9714,31454
31665,9711,31444
31643,9706,31433
31632,9699,31417
31626,9693,31395
31611,9686,31367
31591,9678,31336
31585,9673,31310
31581,9672,31291
31561,9668,31273
31536,9660,31255
31523,9653,31237
31509,9644,31220
31478,9630,31197
31445,9612,31166
31426,9594,31132
31408,9576,31096
31376,9556,31060
31345,9538,31024
31323,9524,30989
31295,9509,30950
31250,9490,30907
31204,9467,30863
31168,9440,30819
31132,9413,30773
31097,9388,30733
31080,9369,30707
31088,9361,30704
31109,9366,30728
31147,9388,30782
31223,9430,30869
31337,9490,30990
31469,9564,31139
31617,9651,31314
31796,9751,31516
32003,9862,31745
32218,9982,31994
32434,10106,32254
32665,10233,32520
32906,10361,32791
33134,10484,33060
33346,10597,33320
33556,10703,33568
33758,10801,33806
33935,10889,34030
34095,10968,34235
34253,11042,34419
34399,11110,34583
34515,11169,34724
34610,11218,34841
34698,11261,34938
34768,11297,35015
34804,11319,35070
34820,11332,35100
34833,11337,35110
34834,11336,35107
34815,11327,35094
34791,11311,35070
34774,11294,35039
34752,11278,35004
34714,11260,34966
34677,11241,34926
34647,11222,34886
34609,11202,34848
34558,11176,34808
34510,11146,34762
34473,11118,34712
34433,11091,34661
34384,11065,34605
34345,11041,34545
34318,11021,34488
34284,11001,34431
34234,10978,34370
34186,10955,34305
34147,10933,34245
34103,10909,34191
34053,10885,34140
34014,10863,34092
33989,10848,34051
33964,10839,34022
33941,10832,34004
33941,10829,33997
33959,10832,34004
33974,10839,34019
33983,10847,34040
34001,10854,34065
34025,10863,34094
34038,10873,34121
34050,10882,34141
34074,10895,34159
34104,10909,34178
34123,10921,34195
34140,10931,34209
34172,10943,34224
34205,10958,34241
34222,10968,34257
34235,10972,34270
34259,10976,34281
34277,10980,34290
34271,10975,34292
34255,10966,34283
34248,10957,34268
34239,10948,34251
34216,10937,34233
34194,10925,34207
34177,10915,34175
34151,10902,34139
34109,10886,34100
34070,10864,34052
34036,10838,33999
33994,10811,33944
33943,10783,33883
33900,10756,33818
33867,10734,33753
33829,10714,33692
33781,10694,33632
33736,10674,33573
33696,10656,33519
33644,10636,33469
33579,10614,33419
33520,10592,33366
33471,10569,33309
33417,10542,33246
33362,10511,33182
33319,10483,33120
33284,10458,33064
33240,10432,33012
33191,10406,32960
33156,10387,32912
33128,10373,32870
33092,10358,32831
33055,10341,32793
33030,10323,32754
33011,10306,32716
32983,10290,32677
32956,10275,32638
32942,10261,32604
32931,10250,32578
32909,10239,32557
32885,10226,32535
32869,10213,32511
32846,10198,32487
32806,10179,32457
32767,10160,32419
32744,10145,32381
32724,10134,32346
32693,10124,32313
32666,10114,32282
32651,10106,32259
32631,10100,32243
32599,10092,32226
32570,10081,32204
32549,10067,32177
32523,10054,32152
32491,10041,32125
32471,10030,32093
32463,10022,32061
32447,10015,32033
32423,10007,32005
32409,9999,31979
32399,9990,31952
32374,9977,31920
32334,9957,31880
32302,9933,31835
32279,9910,31793
32248,9892,31755
32215,9880,31723
32199,9873,31704
32200,9876,31703
32206,9887,31721
32225,9907,31758
32278,9939,31820
32364,9982,31912
32474,10038,32038
32616,10107,32198
32800,10195,32391
33006,10299,32612
33215,10414,32855
33431,10533,33114
33662,10657,33382
33895,10780,33658
34115,10900,33932
34330,11015,34197
34547,11129,34450
34752,11238,34694
34936,11340,34926
35110,11434,35142
35281,11520,35342
35431,11595,35522
35551,11657,35677
35655,11707,35806
35750,11747,35912
35823,11778,35998
35871,11800,36060
35909,11817,36099
35945,11831,36125
35962,11840,36142
35959,11843,36146
35955,11841,36140
35949,11835,36126
35924,11822,36103
35882,11801,36070
35842,11776,36026
35807,11750,35982
35766,11725,35940
35721,11700,35898
35691,11676,35859
35672,11658,35825
35641,11643,35792
35602,11628,35752
35573,11613,35706
35547,11596,35657
35507,11576,35604
35463,11553,35545
35428,11532,35488
35397,11513,35436
35354,11493,35384
35313,11472,35332
35292,11455,35284
35275,11440,35244
35247,11423,35212
35219,11407,35186
35206,11398,35167
35195,11395,35154
35178,11393,35145
35167,11390,35141
35173,11389,35147
35185,11392,35163
35192,11396,35183
35207,11400,35205
35235,11409,35230
35263,11422,35259
35284,11438,35289
35310,11453,35317
35343,11466,35343
35371,11475,35367
35391,11482,35387
35416,11488,35401
35447,11495,35415
35463,11501,35423
35459,11500,35421
35452,11496,35412
35441,11491,35396
35411,11480,35373
35366,11460,35339
35324,11437,35299
35290,11415,35259
35248,11392,35220
35201,11369,35177
35162,11348,35134
35127,11327,35089
35078,11307,35040
35023,11284,34985
34978,11258,34926
34941,11232,34868
34897,11206,34813
34852,11179,34756
34819,11152,34693
34790,11128,34631
34750,11106,34567
34704,11082,34501
34662,11058,34437
34614,11034,34378
34552,11008,34319
34488,10981,34256
34437,10955,34194
34391,10932,34136
34338,10910,34079
34290,10887,34020
34254,10865,33964
34216,10841,33908
34164,10812,33851
34115,10784,33797
34080,10763,33750
34046,10748,33709
34007,10734,33674
33977,10721,33643
33956,10708,33616
33927,10693,33591
33887,10671,33558
33850,10646,33519
33820,10624,33483
33783,10604,33453
33746,10587,33420
33725,10575,33384
33713,10565,33349
33690,10555,33318
33657,10543,33286
33634,10532,33253
33617,10521,33223
33588,10506,33193
33547,10487,33156
33512,10469,33116
33483,10453,33075
33451,10439,33037
33422,10425,33002
33406,10412,32972
33392,10399,32946
33367,10385,32920
33338,10372,32893
33318,10361,32868
33298,10350,32844
33264,10338,32817
33225,10324,32784
33189,10311,32745
33146,10293,32701
33086,10269,32650
33025,10241,32591
32974,10214,32532
32926,10187,32476
32874,10161,32422
32831,10138,32371
32805,10119,32327
32781,10104,32293
32760,10095,32271
32757,10098,32272
32784,10115,32304
32833,10147,32372
32906,10191,32470
33019,10249,32598
33176,10325,32761
33355,10413,32960
33546,10516,33188
33765,10634,33442
34007,10766,33715
34250,10902,33998
34489,11036,34284
34732,11167,34572
34972,11294,34858
35191,11414,35138
35390,11524,35402
35580,11625,35643
35759,11717,35862
35910,11795,36058
36036,11862,36231
36150,11923,36378
36251,11975,36503
36326,12016,36606
36382,12047,36685
36431,12072,36743
36468,12089,36785
36480,12093,36808
36475,12089,36811
36468,12081,36800
36454,12071,36778
36420,12057,36745
36380,12038,36704
36346,12018,36658
36316,11999,36616
36278,11981,36575
36239,11959,36531
36209,11937,36484
36173,11916,36440
36122,11891,36395
36069,11863,36348
36028,11835,36300
35988,11809,36251
35939,11782,36201
35893,11754,36150
35857,11728,36099
35812,11699,36049
35756,11667,35996
35703,11638,35940
35662,11613,35887
35619,11590,35835
35571,11568,35784
35535,11550,35736
35511,11537,35698
35484,11526,35669
35459,11516,35646
35451,11510,35630
35458,11507,35623
35462,11509,35622
35461,11515,35624
35470,11524,35629
35492,11535,35639
35511,11548,35655
35529,11561,35672
35552,11574,35691
35580,11589,35714
35600,11600,35738
35617,11608,35757
35641,11617,35772
35668,11625,35788
35686,11629,35802
35698,11630,35810
35714,11633,35813
35726,11640,35817
35722,11646,35820
35711,11649,35816
35698,11649,35804
35677,11643,35785
35639,11627,35755
35596,11604,35716
35557,11577,35670
35514,11550,35622
35463,11522,35572
35416,11497,35517
35379,11475,35459
35337,11452,35398
35282,11424,35335
35228,11395,35271
35179,11364,35204
35124,11333,35137
35061,11302,35068
35005,11272,34998
34958,11244,34930
34902,11216,34862
34840,11186,34793
34788,11158,34727
34745,11135,34667
34698,11115,34612
34647,11096,34561
34609,11081,34514
34578,11070,34470
34538,11057,34427
34491,11037,34381
34453,11013,34333
34419,10988,34287
34372,10960,34238
34323,10930,34187
34287,10907,34139
34255,10890,34098
34215,10876,34063
34174,10862,34027
34146,10849,33992
34123,10840,33960
34093,10830,33927
34063,10818,33888
34045,10805,33848
34027,10790,33812
34002,10773,33777
33981,10756,33743
33972,10744,33713
33962,10734,33690
33941,10722,33666
33916,10708,33639
33893,10694,33609
33864,10678,33578
33827,10660,33544
33796,10643,33511
33777,10630,33481
33752,10619,33451
33717,10611,33421
33685,10604,33393
33660,10598,33366
33628,10588,33339
33585,10572,33308
33550,10554,33272
33522,10535,33235
33482,10513,33195
33432,10488,33146
33389,10462,33091
33353,10437,33036
33315,10414,32987
33277,10394,32943
33256,10381,32908
33253,10379,32893
33260,10389,32901
33288,10410,32933
33350,10442,32996
33439,10489,33097
33546,10548,33228
33677,10619,33385
33838,10705,33570
34021,10804,33782
34211,10912,34016
34415,11025,34265
34637,11145,34524
34862,11268,34792
35080,11388,35064
35294,11503,35330
35505,11613,35584
35697,11719,35825
35864,11815,36046
36015,11904,36242
36157,11986,36413
36280,12057,36563
36378,12113,36694
36465,12153,36803
36545,12184,36898
36606,12209,36977
36642,12225,37033
36664,12233,37067
36676,12232,37081
36668,12223,37078
36638,12205,37058
36605,12182,37025
36578,12160,36989
36545,12139,36948
36501,12119,36902
36462,12100,36854
36428,12084,36809
36384,12069,36765
36331,12051,36717
36281,12032,36666
36238,12014,36616
36188,11994,36566
36138,11972,36514
36101,11950,36463
36070,11929,36413
36033,11910,36364
35993,11892,36316
35964,11878,36271
35937,11865,36230
35902,11848,36190
35867,11827,36151
35844,11809,36115
35826,11795,36084
35806,11783,36054
35793,11773,36028
35800,11770,36016
35816,11775,36017
35828,11783,36026
35842,11795,36041
35866,11813,36061
35890,11831,36085
35905,11846,36108
35925,11859,36133
35958,11873,36160
35994,11890,36191
36028,11908,36226
36065,11926,36260
36106,11942,36294
36135,11955,36330
36148,11962,36362
36157,11963,36386
36165,11961,36403
36163,11958,36414
36151,11953,36418
36144,11949,36418
36147,11952,36421
36143,11956,36419
36128,11957,36406
36117,11955,36384
36108,11951,36358
36087,11939,36325
36053,11918,36280
36019,11894,36225
35986,11872,36165
35942,11849,36100
35889,11826,36032
35841,11802,35966
35795,11778,35906
35741,11751,35850
35684,11722,35793
35636,11694,35733
35587,11668,35672
35524,11638,35611
35456,11605,35549
35394,11573,35486
35335,11542,35423
35273,11513,35358
35216,11487,35289
35169,11461,35220
35123,11434,35156
35073,11407,35097
35025,11383,35041
34990,11363,34992
34956,11344,34948
34915,11321,34903
34875,11295,34857
34846,11273,34812
34818,11254,34772
34787,11238,34734
34761,11224,34700
34748,11213,34673
34734,11204,34649
34711,11197,34626
34691,11190,34602
34675,11182,34578
34651,11173,34554
34619,11161,34526
34593,11147,34493
34576,11136,34464
34555,11126,34438
34530,11116,34408
34509,11105,34378
34490,11096,34350
34461,11085,34321
34422,11069,34287
34386,11049,34250
34350,11029,34210
34306,11005,34164
34257,10978,34112
34217,10953,34061
34178,10930,34013
34131,10906,33966
34087,10886,33922
34060,10872,33887
34043,10863,33866
34029,10859,33860
34035,10866,33876
34075,10885,33917
34142,10920,33987
34229,10972,34085
34349,11039,34212
34506,11121,34371
34684,11214,34563
34867,11313,34782
35061,11418,35019
35269,11529,35269
35476,11642,35527
35674,11752,35783
35875,11858,36031
36084,11965,36278
36287,12070,36520
36470,12168,36749
36636,12255,36962
36787,12329,37157
36909,12392,37329
37003,12442,37473
37084,12483,37587
37157,12518,37679
37208,12543,37746
37239,12557,37789
37263,12563,37811
37281,12568,37823
37281,12570,37827
37265,12566,37814
37248,12559,37790
37231,12549,37759
37200,12532,37724
37160,12510,37683
37130,12491,37643
37107,12477,37605
37077,12464,37568
37042,12449,37529
37010,12436,37490
36977,12422,37453
36933,12403,37412
36889,12381,37364
36856,12360,37314
36825,12340,37265
36784,12317,37215
36742,12294,37165
36708,12274,37116
36672,12255,37066
36622,12231,37012
36570,12202,36959
36529,12174,36910
36493,12149,36864
36453,12125,36819
36421,12105,36777
36404,12093,36744
36390,12087,36719
36373,12084,36700
36366,12082,36685
36371,12083,36677
36376,12087,36677
36379,12096,36686
36394,12110,36703
36420,12126,36724
36438,12140,36748
36445,12150,36771
36455,12157,36792
36468,12164,36811
36470,12167,36825
36464,12167,36831
36463,12165,36830
36468,12164,36831
36469,12165,36833
36462,12164,36831
36458,12163,36822
36453,12159,36809
36435,12148,36789
36406,12129,36761
36377,12105,36724
36346,12082,36682
36301,12059,36632
36248,12035,36574
36200,12012,36509
36152,11990,36443
36093,11968,36377
36031,11941,36310
35981,11912,36245
35931,11880,36180
35870,11844,36109
35802,11806,36034
35740,11769,35958
35678,11736,35884
35612,11705,35814
35551,11677,35746
35500,11651,35682
35447,11626,35621
35386,11598,35561
35329,11568,35500
35279,11539,35438
35230,11513,35377
35178,11489,35318
35135,11466,35261
35104,11447,35206
35072,11430,35155
35032,11411,35104
34994,11393,35056
34960,11375,35011
34914,11353,34967
34860,11326,34920
34815,11298,34868
34781,11275,34819
34748,11257,34779
34716,11238,34740
34693,11221,34706
34675,11207,34679
34650,11195,34654
34617,11179,34625
34588,11161,34591
34564,11146,34557
34535,11132,34523
34503,11120,34488
34480,11112,34456
34461,11105,34430
34438,11096,34403
34410,11086,34369
34385,11076,34333
34359,11064,34299
34324,11045,34264
34284,11019,34224
34249,10992,34183
34216,10967,34142
34177,10941,34098
34140,10916,34049
34112,10894,34003
34082,10873,33959
34041,10853,33913
33997,10835,33865
33959,10819,33820
33929,10805,33785
33912,10798,33767
33920,10805,33773
33965,10833,33818
34036,10877,33904
34132,10935,34028
34263,11007,34186
34427,11093,34376
34604,11188,34589
34795,11290,34821
35009,11401,35071
35244,11521,35337
35484,11646,35615
35722,11771,35899
35961,11895,36183
36196,12020,36466
36411,12139,36741
36605,12246,37001
36788,12345,37239
36959,12437,37457
37110,12521,37652
37239,12590,37825
37355,12649,37978
37451,12698,38108
37520,12734,38213
37568,12761,38295
37607,12784,38358
37638,12804,38406
37655,12816,38438
37666,12821,38455
37683,12822,38463
37697,12821,38463
37697,12819,38453
37694,12814,38439
37699,12810,38426
37700,12806,38417
37689,12800,38410
37672,12793,38403
37659,12787,38392
37643,12777,38379
37616,12762,38359
37588,12746,38329
37565,12732,38294
37540,12717,38257
37512,12699,38215
37488,12683,38171
37466,12669,38130
37432,12655,38091
37385,12638,38048
37336,12617,38001
37291,12595,37949
37240,12573,37894
37187,12549,37835
37144,12525,37777
37112,12508,37727
37078,12494,37685
37040,12482,37645
37010,12471,37612
36986,12461,37588
36954,12452,37571
36919,12442,37556
36892,12432,37543
36874,12422,37532
36860,12414,37522
36851,12405,37509
36852,12396,37498
36856,12388,37490
36852,12379,37485
36847,12370,37483
36848,12367,37486
36851,12369,37491
36846,12370,37492
36840,12370,37490
36840,12370,37486
36836,12370,37477
36819,12366,37460
36798,12357,37437
36777,12346,37411
36752,12333,37383
36716,12316,37352
36677,12298,37312
36640,12278,37261
36593,12254,37200
36534,12225,37129
36476,12193,37053
36426,12161,36979
36374,12130,36911
36317,12095,36842
36265,12057,36769
36221,12022,36695
36169,11992,36623
36103,11959,36551
36038,11927,36478
35977,11898,36405
35913,11871,36332
35847,11840,36257
35786,11806,36182
35730,11771,36110
35671,11736,36041
35611,11702,35972
35560,11672,35908
35518,11649,35849
35469,11628,35792
35416,11606,35732
35367,11580,35674
35318,11553,35618
35260,11524,35561
35204,11493,35501
35161,11464,35444
35123,11440,35392
35077,11415,35342
35032,11391,35292
34999,11371,35244
34967,11355,35200
34924,11336,35155
34878,11314,35107
34840,11291,35057
34805,11272,35010
34768,11254,34964
34734,11234,34919
34707,11215,34877
34680,11197,34838
34645,11179,34798
34607,11159,34754
34575,11142,34709
34538,11123,34663
34493,11101,34614
34451,11079,34564
34419,11058,34519
34384,11036,34476
34342,11013,34434
34304,10992,34392
34269,10976,34348
34228,10963,34302
34180,10948,34253
34135,10929,34204
34093,10906,34157
34044,10880,34106
33988,10850,34048
33939,10820,33989
33900,10793,33937
33862,10767,33891
33820,10741,33843
33788,10721,33793
33766,10708,33752
33744,10699,33722
33726,10692,33702
33728,10694,33699
33758,10710,33726
33811,10742,33782
33889,10788,33869
33998,10848,33991
34132,10920,34148
34279,11004,34334
34440,11097,34542
34622,11199,34772
34814,11305,35016
35008,11410,35266
35206,11517,35517
35412,11627,35766
35614,11736,36015
35799,11838,36257
35976,11933,36487
36151,12022,36705
36310,12107,36910
36446,12183,37098
36563,12247,37263
36665,12300,37407
36743,12343,37531
36795,12372,37630
36834,12389,37707
36869,12400,37767
36895,12407,37810
36911,12411,37837
36928,12413,37853
36950,12421,37868
36965,12430,37883
36967,12436,37888
36969,12437,37882
36975,12438,37869
36971,12434,37852
36961,12428,37833
36956,12422,37817
36953,12418,37806
36945,12414,37798
36934,12410,37787
36924,12405,37773
36909,12397,37753
36878,12384,37726
36840,12365,37690
36808,12340,37648
36778,12312,37606
36739,12284,37563
36696,12256,37517
36657,12233,37467
36617,12210,37417
36568,12187,37364
36520,12161,37308
36479,12135,37251
36444,12112,37196
36410,12092,37143
36382,12076,37090
36367,12064,37044
36354,12058,37010
36335,12051,36981
36315,12039,36953
36294,12021,36924
36263,11998,36893
36219,11969,36856
36169,11939,36814
36126,11915,36774
36088,11898,36743
36054,11885,36720
36030,11874,36699
36018,11867,36681
36008,11861,36666
35997,11855,36651
35993,11850,36633
35992,11846,36614
35982,11839,36588
35961,11828,36554
35941,11816,36516
35921,11802,36478
35894,11785,36441
35862,11767,36405
35834,11751,36370
35810,11736,36333
35777,11716,36289
35737,11691,36242
35704,11666,36192
35673,11640,36140
35631,11610,36085
35581,11579,36023
35530,11550,35953
35472,11522,35878
35399,11488,35799
35320,11449,35718
35243,11407,35637
35164,11367,35557
35082,11327,35471
35006,11288,35380
34942,11252,35292
34885,11220,35216
34827,11189,35147
34772,11159,35083
34720,11131,35019
34664,11104,34953
34601,11075,34882
34542,11046,34809
34492,11015,34737
34442,10983,34670
34389,10949,34607
34341,10919,34546
34305,10894,34490
34271,10868,34436
34233,10842,34381
34198,10818,34326
34170,10796,34276
34137,10774,34226
34095,10750,34173
34056,10729,34115
34020,10710,34058
33976,10693,34001
33924,10671,33944
33873,10649,33889
33823,10629,33837
33766,10607,33783
33705,10580,33725
33649,10551,33665
33601,10524,33609
33552,10496,33553
33503,10467,33496
33467,10442,33440
33439,10421,33388
33408,10405,33343
33375,10388,33298
33347,10371,33253
33318,10355,33209
33281,10337,33162
33243,10315,33110
33212,10291,33056
33182,10265,33006
33146,10239,32959
33108,10216,32913
33072,10195,32865
33032,10172,32813
32982,10146,32755
32930,10122,32695
32881,10097,32635
32828,10070,32575
32766,10039,32512
32710,10010,32447
32668,9988,32390
32635,9971,32344
32610,9958,32314
32606,9950,32307
32623,9950,32321
32652,9960,32350
32694,9979,32397
32764,10011,32471
32861,10064,32577
32974,10130,32710
33100,10204,32862
33249,10285,33036
33415,10371,33230
33579,10457,33438
33739,10539,33649
33903,10621,33858
34070,10706,34067
34232,10791,34273
34387,10870,34471
34542,10948,34659
34692,11026,34839
34825,11097,35004
34937,11156,35149
35031,11203,35276
35107,11240,35386
35161,11266,35478
35200,11284,35549
35237,11299,35605
35267,11313,35650
35279,11323,35684
35285,11329,35707
35293,11334,35721
35296,11335,35727
35284,11330,35727
35268,11322,35719
35258,11314,35704
35246,11304,35685
35228,11292,35666
35214,11279,35649
35210,11270,35637
35209,11265,35627
35202,11261,35617
35197,11259,35609
35193,11257,35599
35183,11252,35587
35164,11244,35570
35140,11233,35541
35125,11217,35506
35112,11197,35467
35091,11172,35421
35067,11147,35367
35037,11121,35312
34992,11093,35259
34937,11064,35202
34887,11036,35144
34845,11012,35088
34797,10991,35037
34746,10969,34986
34706,10950,34941
34678,10936,34907
34649,10925,34883
34621,10912,34860
34604,10897,34834
34593,10885,34810
34579,10875,34790
34566,10866,34774
34562,10861,34762
34563,10862,34756
34561,10865,34750
34560,10872,34741
34567,10882,34734
34574,10891,34730
34570,10892,34719
34557,10886,34700
34543,10876,34674
34527,10863,34644
34504,10846,34611
34481,10828,34576
34460,10812,34541
34436,10792,34506
34404,10772,34474
34372,10755,34443
34339,10739,34406
34293,10720,34362
34235,10696,34307
34177,10670,34245
34124,10644,34183
34068,10619,34123
34012,10593,34060
33968,10568,33993
33933,10543,33929
33891,10518,33869
33838,10489,33807
33787,10460,33743
33741,10432,33679
33686,10401,33614
33626,10369,33548
33577,10339,33481
33536,10307,33412
33494,10275,33340
33448,10244,33271
33409,10219,33207
33372,10201,33147
33326,10184,33086
33275,10163,33024
33225,10136,32961
33175,10109,32900
33119,10080,32843
33062,10050,32790
33013,10022,32739
32969,9998,32691
32925,9976,32644
32886,9957,32601
32854,9941,32560
32818,9924,32517
32773,9904,32470
32723,9880,32420
32675,9854,32365
32627,9827,32307
32575,9801,32251
32532,9779,32201
32501,9764,32160
32472,9750,32122
32437,9733,32083
32409,9715,32047
32392,9701,32015
32371,9687,31979
32343,9671,31939
32320,9655,31898
32306,9642,31856
32288,9628,31810
32261,9612,31760
32237,9596,31713
32215,9584,31673
32186,9572,31637
32149,9556,31601
32114,9541,31567
32081,9527,31537
32040,9509,31506
31995,9486,31468
31953,9458,31422
31916,9434,31373
31878,9414,31324
31841,9395,31277
31808,9378,31234
31774,9360,31192
31729,9337,31147
31678,9312,31096
31629,9288,31042
31582,9263,30986
31531,9236,30927
31484,9207,30866
31447,9182,30809
31414,9159,30755
31375,9135,30699
31335,9113,30644
31302,9094,30595
31269,9078,30547
31232,9059,30498
31201,9043,30455
31189,9035,30428
31192,9039,30422
31215,9054,30441
31264,9082,30488
31338,9123,30565
31427,9170,30663
31520,9220,30777
31628,9277,30910
31755,9342,31060
31889,9413,31221
32027,9487,31395
32177,9563,31583
32339,9645,31783
32498,9729,31988
32653,9811,32191
32810,9892,32388
32961,9969,32578
33094,10038,32754
33210,10097,32911
33320,10150,33046
33421,10199,33168
33509,10243,33278
33582,10278,33370
33648,10309,33446
33705,10335,33508
33743,10352,33559
33767,10362,33599
33787,10370,33626
33800,10376,33644
33798,10381,33654
33787,10383,33655
33781,10382,33650
33775,10378,33642
33758,10371,33627
33734,10363,33602
33712,10355,33577
33693,10347,33556
33671,10336,33538
33652,10322,33523
33646,10312,33514
33643,10305,33505
33632,10295,33490
33617,10280,33463
33599,10265,33425
33575,10249,33383
33542,10230,33339
33508,10210,33294
33479,10193,33251
33446,10177,33211
33405,10158,33167
33364,10137,33120
33327,10115,33072
33290,10092,33025
33253,10070,32981
33230,10052,32942
33221,10039,32911
33216,10031,32889
33210,10025,32871
33206,10022,32857
33206,10022,32849
33201,10021,32841
33190,10018,32830
33180,10016,32819
33171,10015,32814
33159,10014,32810
33146,10012,32805
33142,10012,32801
33142,10012,32797
33134,10008,32789
33125,10001,32779
33125,9998,32770
33129,9995,32763
33126,9991,32756
33124,9988,32751
33127,9987,32748
33125,9985,32743
33110,9979,32729
33087,9969,32706
33065,9956,32674
33035,9942,32637
32992,9923,32591
32945,9900,32541
32903,9879,32490
32861,9864,32440
32814,9848,32389
32769,9830,32338
32727,9808,32288
32680,9782,32239
32629,9750,32184
32583,9719,32127
32547,9692,32072
32509,9668,32019
32464,9643,31966
32423,9619,31916
32386,9598,31868
32342,9576,31819
32296,9552,31765
32255,9526,31710
32217,9503,31658
32174,9481,31610
32127,9458,31565
32088,9436,31522
32057,9417,31482
32026,9400,31440
31992,9384,31394
31961,9369,31344
31934,9356,31296
31902,9340,31250
31869,9322,31209
31843,9306,31173
31817,9293,31139
31782,9277,31103
31746,9259,31064
31717,9242,31025
31689,9227,30986
31660,9212,30943
31633,9196,30899
31608,9180,30859
31580,9167,30824
31547,9151,30790
31513,9134,30754
31482,9118,30714
31452,9105,30674
31423,9092,30634
31401,9082,30595
31387,9076,30562
31369,9069,30530
31340,9058,30495
31312,9042,30464
31287,9024,30438
31254,9002,30409
31213,8976,30374
31179,8954,30338
31155,8939,30307
31129,8928,30274
31100,8916,30238
31076,8904,30202
31054,8890,30164
31022,8870,30121
30980,8846,30073
30938,8823,30027
30901,8802,29987
30859,8779,29947
30814,8755,29907
30777,8734,29866
30746,8715,29826
30709,8696,29786
30668,8680,29743
30632,8666,29699
30596,8653,29656
30557,8639,29614
30522,8622,29576
30503,8609,29548
30496,8604,29534
30496,8606,29532
30514,8617,29548
30558,8641,29586
30619,8676,29646
30691,8716,29722
30779,8760,29815
30888,8811,29925
31009,8870,30055
31138,8933,30202
31282,9000,30366
31444,9074,30547
31609,9153,30738
31765,9231,30930
31913,9307,31118
32060,9384,31302
32199,9458,31481
32325,9526,31650
32438,9586,31808
32543,9642,31953
32632,9690,32081
32698,9729,32189
32753,9760,32278
32806,9785,32352
32848,9805,32412
32878,9819,32460
32903,9830,32495
32921,9842,32517
32930,9853,32528
32929,9860,32526
32922,9861,32514
32910,9858,32498
32889,9850,32477
32867,9840,32454
32855,9832,32434
32846,9826,32415
32829,9818,32396
32804,9807,32373
32784,9796,32350
32768,9787,32327
32747,9776,32304
32725,9763,32280
32705,9748,32254
32682,9734,32228
32650,9715,32197
32617,9693,32160
32591,9671,32120
32564,9649,32080
32533,9628,32039
32502,9609,31998
32478,9595,31964
32455,9583,31934
32428,9569,31908
32401,9551,31885
32377,9536,31864
32358,9526,31842
32342,9519,31821
32337,9516,31806
32342,9520,31798
32350,9528,31793
32351,9535,31787
32352,9539,31783
32357,9542,31779
32357,9541,31773
32353,9537,31765
32353,9533,31758
32356,9529,31750
32351,9523,31743
32340,9519,31735
32335,9515,31726
32335,9512,31719
32332,9510,31708
32325,9507,31695
32322,9505,31684
32316,9502,31676
32297,9495,31665
32267,9484,31649
32237,9471,31631
32208,9456,31608
32177,9440,31579
32150,9424,31546
32131,9409,31515
32113,9398,31482
32090,9385,31446
32064,9371,31409
32037,9354,31371
32004,9335,31330
31962,9313,31285
31922,9290,31234
31887,9269,31183
31853,9250,31134
31814,9230,31087
31775,9207,31039
31740,9184,30995
31699,9161,30950
31649,9136,30902
31599,9109,30852
31559,9086,30805
31523,9070,30760
31488,9056,30714
31459,9046,30671
31436,9037,30629
31408,9029,30585
31371,9016,30540
31333,8999,30498
31302,8981,30458
31272,8964,30419
31241,8950,30383
31219,8941,30355
31202,8934,30331
31181,8925,30306
31157,8913,30276
31140,8901,30247
31130,8890,30218
31114,8877,30185
31090,8861,30151
31070,8848,30120
31054,8837,30093
31030,8825,30066
30999,8810,30036
30971,8797,30007
30946,8785,29979
30914,8772,29950
30884,8759,29922
30865,8748,29895
30855,8741,29871
30846,8737,29847
30839,8734,29824
30837,8733,29804
30832,8737,29789
30819,8739,29773
30803,8736,29750
30789,8728,29722
30767,8713,29690
30732,8690,29657
30698,8662,29625
30663,8640,29597
30621,8626,29565
30574,8612,29531
30531,8597,29497
30491,8578,29459
30445,8554,29411
30394,8527,29355
30346,8500,29301
30305,8476,29252
30266,8452,29203
30230,8430,29156
30204,8415,29114
30186,8403,29076
30167,8392,29037
30145,8382,28998
30131,8374,28968
30127,8369,28954
30130,8367,28956
30147,8372,28975
30188,8388,29015
30254,8419,29081
30335,8462,29172
30430,8515,29282
30546,8579,29413
30674,8651,29561
30807,8728,29721
30946,8805,29888
31093,8881,30059
31242,8954,30234
31384,9024,30411
31523,9090,30587
31663,9155,30760
31799,9218,30928
31920,9278,31090
32029,9332,31241
32132,9381,31379
32223,9425,31498
32292,9457,31599
32343,9478,31684
32384,9494,31752
32413,9509,31803
32433,9519,31841
32448,9525,31869
32455,9528,31890
32450,9526,31901
32434,9518,31901
32418,9506,31891
32412,9495,31878
32406,9486,31863
32397,9479,31843
32389,9475,31818
32381,9471,31795
32366,9465,31772
32343,9456,31750
32323,9445,31728
32307,9434,31708
32288,9423,31686
32268,9411,31662
32253,9401,31640
32242,9393,31618
32226,9385,31591
32203,9373,31556
32182,9362,31521
32164,9352,31490
32142,9343,31457
32118,9333,31424
32099,9323,31393
32083,9312,31365
32059,9302,31342
32033,9293,31321
32014,9285,31303
32003,9279,31288
31990,9274,31272
31978,9266,31256
31975,9259,31242
31976,9255,31233
31977,9251,31227
31983,9250,31226
31999,9253,31233
32013,9259,31242
32015,9260,31247
32012,9259,31252
32011,9260,31262
32009,9261,31271
32004,9261,31278
32006,9261,31285
32014,9264,31290
32022,9268,31291
32026,9270,31289
32032,9273,31285
32039,9277,31281
32034,9280,31273
32013,9279,31256
31989,9273,31232
31966,9263,31207
31936,9245,31177
31902,9224,31142
31874,9204,31107
31852,9188,31072
31824,9171,31035
31789,9153,30994
31754,9133,30951
31722,9116,30906
31684,9098,30857
31642,9077,30804
31603,9057,30752
31565,9035,30701
31524,9010,30649
31480,8983,30599
31442,8958,30555
31410,8939,30514
31374,8923,30472
31340,8911,30432
31315,8902,30397
31290,8893,30360
31256,8880,30318
31217,8863,30273
31184,8843,30227
31152,8821,30179
31113,8800,30131
31071,8783,30088
31034,8770,30047
30997,8755,30009
30956,8738,29973
30918,8718,29941
30886,8700,29909
30856,8684,29877
30826,8668,29841
30801,8655,29806
30785,8647,29775
30769,8641,29744
30748,8634,29708
30729,8625,29670
30712,8615,29635
30689,8601,29601
30663,8585,29568
30643,8569,29535
30626,8555,29508
30605,8541,29485
30580,8526,29462
30560,8512,29441
30544,8501,29422
30527,8492,29402
30506,8482,29377
30485,8471,29350
30465,8461,29321
30439,8448,29288
30411,8435,29253
30390,8424,29221
30369,8416,29192
30340,8406,29162
30311,8393,29133
30289,8379,29109
30270,8367,29086
30244,8355,29055
30215,8339,29019
30191,8322,28983
30168,8307,28947
30140,8292,28909
30112,8279,28873
30092,8270,28840
30070,8265,28807
30042,8258,28773
30017,8250,28743
30005,8242,28719
30000,8237,28706
30003,8238,28709
30028,8250,28735
30080,8273,28787
30146,8305,28864
30220,8344,28960
30307,8392,29076
30410,8448,29209
30524,8507,29353
30649,8569,29506
30790,8638,29668
30946,8714,29841
31108,8792,30020
31264,8868,30201
31419,8946,30380
31570,9028,30557
31705,9106,30731
31823,9177,30893
31931,9239,31045
32034,9294,31186
32125,9339,31311
32202,9373,31417
32270,9402,31509
32324,9427,31586
32360,9446,31649
32384,9458,31699
32403,9466,31739
32415,9471,31766
32412,9470,31776
32399,9464,31773
32389,9457,31766
32382,9450,31755
32372,9438,31740
32362,9423,31723
32356,9410,31707
32346,9400,31694
32327,9391,31679
32305,9382,31664
32286,9374,31648
32269,9367,31629
32250,9359,31608
32233,9352,31585
32217,9346,31563
32196,9339,31543
32165,9327,31522
32134,9310,31496
32104,9291,31462
32067,9271,31420
32028,9249,31376
31997,9233,31333
31979,9225,31300
31966,9220,31274
31953,9213,31250
31945,9206,31228
31943,9203,31214
31940,9202,31205
31932,9201,31193
31928,9201,31180
31934,9202,31168
31939,9203,31159
31943,9205,31154
31951,9209,31158
31960,9215,31168
31959,9221,31179
31955,9225,31187
31959,9230,31195
31968,9235,31200
31972,9237,31200
31977,9236,31197
31990,9238,31199
32001,9241,31208
32006,9243,31220
32008,9242,31230
32011,9241,31236
32007,9239,31235
31992,9231,31223
31973,9220,31200
31958,9206,31176
31942,9194,31153
31919,9181,31131
31896,9167,31106
31877,9153,31079
31851,9140,31051
31817,9125,31017
31782,9105,30979
31743,9084,30937
31696,9061,30888
31647,9038,30834
31603,9017,30781
31566,8999,30732
31529,8979,30684
31490,8956,30634
31453,8934,30584
31416,8911,30535
31376,8888,30489
31336,8863,30438
31300,8841,30385
31272,8827,30339
31244,8816,30297
31212,8803,30258
31184,8792,30224
31161,8787,30197
31137,8784,30173
31112,8783,30149
31089,8781,30123
31066,8774,30092
31040,8762,30056
31013,8746,30018
30992,8731,29984
30974,8717,29952
30951,8701,29919
30924,8683,29885
30895,8667,29856
30863,8651,29827
30824,8635,29793
30785,8619,29756
30756,8603,29720
30728,8589,29687
30697,8574,29654
30667,8559,29619
30644,8546,29588
30630,8540,29561
30617,8535,29537
30605,8530,29515
30593,8525,29496
30575,8516,29477
30548,8501,29452
30519,8486,29425
30493,8471,29399
30465,8456,29372
30433,8440,29345
30406,8427,29316
30388,8417,29288
30369,8407,29257
30345,8396,29221
30323,8385,29190
30303,8374,29160
30274,8359,29120
30237,8340,29069
30205,8322,29019
30178,8308,28976
30149,8296,28939
30117,8284,28903
30091,8273,28868
30070,8262,28836
30047,8249,28804
30026,8237,28773
30014,8229,28751
30012,8227,28743
30020,8231,28752
30044,8246,28783
30094,8273,28836
30167,8314,28910
30251,8361,29006
30348,8414,29120
30464,8474,29252
30596,8541,29403
30737,8612,29567
30885,8687,29742
31042,8765,29929
31203,8846,30124
31358,8924,30320
31508,8996,30515
31653,9064,30708
31789,9130,30894
31910,9190,31068
32024,9246,31226
32134,9298,31369
32233,9345,31498
32318,9385,31613
32395,9422,31716
32463,9454,31805
32513,9479,31875
32545,9495,31926
32568,9504,31961
32589,9510,31987
32603,9514,32004
32608,9518,32015
32613,9525,32024
32618,9533,32029
32616,9537,32026
32609,9535,32017
32602,9531,32008
32599,9525,31998
32590,9516,31982
32575,9506,31963
32562,9498,31944
32548,9490,31925
32524,9480,31906
32494,9465,31881
32462,9447,31852
32427,9427,31816
32385,9402,31771
32345,9377,31724
32316,9357,31681
32290,9338,31643
32260,9319,31608
32229,9304,31578
32203,9294,31552
32180,9285,31526
32154,9272,31499
32131,9258,31476
32118,9249,31459
32113,9248,31446
32110,9251,31437
32111,9257,31433
32114,9261,31435
32115,9264,31439
32111,9265,31442
32112,9268,31448
32125,9276,31460
32137,9283,31470
32142,9288,31480
32151,9294,31489
32165,9302,31499
32174,9309,31508
32177,9312,31512
32185,9313,31513
32195,9314,31513
32197,9313,31512
32191,9311,31510
32187,9307,31504
32184,9301,31498
32176,9293,31489
32158,9282,31474
32140,9271,31449
32119,9261,31416
32089,9246,31376
32055,9227,31334
32025,9207,31295
31995,9188,31254
31960,9170,31210
31926,9153,31165
31898,9140,31121
31870,9129,31079
31833,9117,31037
31791,9100,30995
31755,9081,30955
31719,9060,30912
31677,9036,30862
31636,9010,30811
31603,8989,30762
31570,8973,30715
31529,8957,30666
31489,8939,30617
31450,8921,30571
31408,8904,30527
31363,8885,30485
31324,8866,30447
31295,8851,30417
31265,8838,30390
31228,8822,30357
31191,8807,30321
31160,8791,30281
31127,8772,30236
31093,8752,30186
31065,8735,30137
31039,8721,30093
31009,8707,30052
30973,8693,30013
30941,8682,29976
30913,8672,29942
30879,8659,29909
30844,8642,29877
30818,8626,29849
30798,8615,29826
30777,8609,29803
30756,8602,29776
30738,8596,29750
30717,8591,29724
30688,8581,29694
30659,8565,29662
30639,8549,29636
30624,8536,29615
30609,8525,29596
30592,8514,29573
30576,8504,29547
30557,8493,29517
30527,8480,29480
30494,8465,29442
30465,8450,29406
30440,8436,29372
30412,8420,29336
30386,8404,29305
30369,8391,29277
30354,8383,29251
30334,8375,29227
30310,8365,29205
30285,8354,29181
30255,8340,29152
30221,8323,29118
30191,8308,29080
30170,8298,29044
30149,8291,29009
30125,8283,28975
30102,8275,28941
30079,8266,28910
30054,8254,28883
30027,8240,28859
30008,8230,28843
30010,8229,28845
30028,8237,28865
30063,8255,28905
30126,8286,28969
30219,8329,29057
30330,8381,29165
30452,8439,29292
30591,8508,29441
30745,8584,29612
30902,8662,29796
31062,8742,29991
31234,8823,30199
31411,8906,30414
31579,8989,30625
31740,9070,30833
31899,9150,31039
32048,9229,31234
32179,9302,31412
32298,9367,31574
32410,9427,31721
32511,9481,31854
32595,9527,31972
32668,9566,32077
32737,9601,32172
32793,9630,32251
32829,9646,32308
32858,9652,32349
32889,9657,32381
32912,9662,32404
32918,9664,32418
32915,9664,32426
32908,9663,32426
32893,9659,32416
32871,9649,32396
32852,9636,32371
32840,9624,32350
32828,9616,32333
32815,9609,32319
32806,9604,32308
32795,9599,32295
32773,9592,32271
32742,9580,32240
32712,9563,32209
32690,9548,32180
32668,9534,32150
32640,9518,32119
32617,9504,32091
32599,9495,32067
32575,9488,32042
32545,9478,32014
32519,9465,31986
32499,9450,31960
32476,9432,31931
32454,9419,31903
32443,9414,31887
32439,9416,31883
32435,9422,31885
32432,9428,31885
32434,9434,31887
32436,9437,31892
32432,9437,31892
32425,9432,31888
32425,9426,31886
32429,9424,31887
32431,9427,31892
32435,9431,31898
32444,9439,31907
32453,9445,31916
32458,9446,31922
32466,9443,31925
32477,9441,31927
32485,9440,31927
32487,9438,31922
32489,9436,31914
32492,9437,31907
32487,9436,31898
32466,9430,31883
32438,9421,31865
32408,9409,31845
32371,9394,31819
32331,9376,31787
32298,9357,31752
32270,9340,31716
32240,9325,31673
32202,9308,31621
32167,9290,31566
32132,9272,31512
32089,9250,31455
32040,9225,31394
31993,9199,31334
31950,9175,31277
31906,9151,31224
31860,9131,31172
31821,9115,31126
31786,9099,31086
31749,9081,31047
31711,9059,31005
31680,9036,30960
31651,9016,30917
31618,8999,30873
31584,8984,30829
31552,8970,30785
31519,8953,30741
31485,8936,30698
31456,8921,30658
31435,8911,30625
31414,8903,30597
31388,8892,30571
31361,8879,30548
31339,8866,30526
31320,8856,30503
31298,8848,30479
31278,8843,30457
31263,8840,30439
31246,8832,30414
31223,8820,30381
31201,8807,30347
31185,8796,30317
31168,8787,30287
31146,8776,30256
31123,8763,30226
31103,8752,30198
31076,8740,30169
31044,8725,30138
31014,8706,30108
30995,8688,30083
30979,8671,30057
30963,8656,30030
30949,8644,30007
30937,8637,29981
30916,8629,29952
30884,8618,29921
30849,8608,29891
30813,8600,29860
30773,8587,29823
30733,8570,29781
30703,8552,29738
30679,8536,29701
30650,8521,29665
30621,8506,29632
30598,8496,29602
30576,8488,29573
30548,8480,29543
30521,8476,29513
30503,8475,29483
30487,8474,29452
30464,8469,29417
30434,8458,29383
30407,8447,29353
30381,8436,29326
30356,8424,29305
30347,8415,29295
30362,8418,29303
30399,8434,29336
30458,8464,29395
30544,8505,29480
30654,8558,29593
30777,8624,29730
30910,8696,29885
31060,8775,30056
31227,8859,30241
31398,8944,30434
31569,9027,30635
31746,9109,30844
31923,9191,31055
32091,9270,31266
32245,9343,31470
32391,9411,31668
32527,9473,31856
32647,9530,32028
32754,9579,32183
32858,9625,32327
32955,9669,32458
33031,9709,32571
33085,9740,32659
33124,9764,32727
33150,9785,32775
33160,9798,32802
33163,9805,32813
33165,9807,32814
33167,9808,32808
33166,9807,32798
33163,9804,32785
33156,9797,32770
33142,9787,32752
33116,9772,32730
33085,9752,32705
33057,9734,32678
33032,9721,32650
33003,9708,32617
32977,9696,32582
32955,9685,32550
32926,9675,32517
32884,9659,32479
32839,9638,32439
32799,9616,32400
32761,9597,32361
32725,9581,32318
32692,9569,32276
32663,9558,32237
32631,9545,32199
32597,9528,32162
32570,9512,32133
32558,9504,32112
32554,9500,32096
32549,9496,32082
32550,9491,32073
32556,9487,32070
32557,9481,32067
32549,9472,32060
32541,9464,32050
32537,9459,32043
32530,9455,32037
32522,9453,32034
32522,9455,32039
32530,9461,32050
32537,9467,32062
32540,9472,32071
32545,9474,32081
32550,9478,32092
32546,9481,32097
32536,9480,32092
32524,9478,32080
32510,9475,32064
32491,9470,32045
32473,9463,32024
32457,9456,32003
32439,9449,31983
32411,9441,31963
32377,9430,31941
32343,9417,31918
32308,9400,31891
32267,9379,31856
32221,9353,31812
32176,9326,31766
32130,9299,31718
32079,9272,31664
32028,9245,31609
31979,9222,31553
31927,9197,31493
31868,9170,31429
31812,9142,31366
31764,9113,31305
31715,9083,31245
31664,9053,31183
31620,9029,31122
31585,9010,31068
31549,8995,31020
31510,8981,30976
31476,8971,30938
31444,8961,30903
31403,8945,30861
31359,8924,30814
31319,8904,30770
31280,8887,30731
31240,8872,30692
31204,8860,30652
31177,8850,30615
31150,8838,30580
31114,8820,30542
31070,8798,30499
31028,8777,30456
30991,8762,30416
30956,8751,30376
30924,8743,30341
30901,8740,30313
30884,8736,30292
30865,8728,30274
30848,8717,30257
30833,8708,30240
30814,8698,30222
30790,8686,30202
30766,8672,30181
30747,8658,30156
30727,8645,30129
30703,8632,30101
30680,8622,30078
30660,8615,30061
30637,8608,30039
30607,8597,30010
30579,8586,29981
30556,8574,29952
30528,8558,29916
30498,8544,29877
30474,8536,29842
30460,8533,29812
30446,8532,29784
30426,8529,29757
30402,8523,29731
30375,8514,29704
30340,8500,29676
30305,8488,29651
30287,8482,29634
30286,8485,29628
30297,8494,29636
30321,8508,29658
30367,8532,29702
30432,8566,29768
30508,8605,29851
30595,8650,29950
30700,8701,30067
30823,8761,30209
30957,8826,30370
31101,8895,30542
31254,8970,30723
31409,9047,30910
31563,9126,31096
31716,9204,31279
31867,9279,31459
32006,9347,31628
32128,9405,31782
32238,9453,31924
32342,9498,32056
32438,9539,32177
32516,9575,32282
32581,9605,32372
32636,9633,32449
32677,9659,32512
32699,9677,32557
32708,9689,32588
32708,9695,32608
32698,9692,32615
32679,9683,32605
32659,9671,32583
32646,9661,32552
32633,9650,32516
32614,9636,32480
32595,9622,32444
32577,9610,32412
32554,9598,32383
32526,9585,32354
32496,9571,32327
32462,9555,32298
32420,9536,32265
32373,9515,32225
32328,9495,32180
32291,9478,32135
32251,9460,32088
32208,9442,32039
32176,9428,31992
32155,9418,31950
32135,9409,31911
32113,9401,31875
32091,9393,31845
32069,9383,31820
32043,9370,31798
32020,9358,31781
32010,9348,31771
32011,9343,31764
32017,9343,31763
32027,9348,31769
32046,9358,31780
32070,9369,31797
32097,9383,31819
32124,9396,31847
32149,9406,31875
32168,9414,31898
32183,9418,31915
32200,9422,31928
32220,9427,31941
32236,9432,31954
32245,9437,31967
32253,9443,31980
32261,9451,31996
32263,9458,32008
32256,9464,32011
32248,9468,32009
32240,9468,32003
32223,9461,31987
32200,9451,31963
32179,9439,31938
32162,9424,31912
32142,9410,31884
32118,9394,31852
32094,9378,31819
32069,9361,31782
32038,9343,31737
32000,9325,31686
31966,9306,31636
31937,9288,31593
31907,9270,31553
31875,9251,31514
31846,9237,31479
31818,9225,31446
31788,9213,31407
31760,9201,31364
31739,9192,31322
31718,9184,31279
31690,9173,31233
31661,9157,31187
31640,9143,31145
31620,9131,31107
31592,9118,31068
31562,9103,31029
31533,9085,30993
31499,9065,30958
31457,9043,30920
31418,9021,30879
31386,9000,30841
31358,8982,30807
31334,8967,30776
31318,8955,30751
31310,8951,30733
31299,8951,30715
31280,8948,30693
31260,8939,30669
31243,8929,30647
31223,8920,30626
31198,8912,30603
31175,8904,30579
31157,8899,30554
31137,8895,30525
31112,8886,30495
31092,8878,30468
31078,8873,30441
31060,8867,30410
31037,8858,30376
31018,8849,30341
31005,8841,30308
30989,8829,30278
30968,8813,30250
30948,8797,30226
30926,8783,30202
30898,8770,30175
30871,8762,30151
30858,8759,30136
30855,8762,30133
30862,8771,30144
30889,8788,30174
30946,8818,30230
31025,8860,30314
31117,8910,30420
31224,8965,30546
31350,9028,30693
31488,9097,30856
31632,9168,31031
31781,9241,31211
31940,9319,31396
32104,9398,31583
32266,9477,31770
32428,9555,31957
32590,9635,32146
32744,9714,32331
32878,9785,32506
32993,9846,32669
33093,9900,32814
33177,9943,32939
33245,9975,33041
33303,9998,33121
33350,10015,33183
33382,10024,33226
33402,10025,33254
33418,10023,33270
33428,10021,33278
33425,10018,33276
33412,10014,33262
33397,10013,33239
33381,10011,33211
33354,10005,33178
33320,9992,33140
33291,9976,33101
33267,9961,33067
33239,9946,33036
33210,9930,33004
33189,9914,32974
33172,9899,32942
33150,9884,32908
33122,9871,32873
33095,9859,32841
33067,9845,32810
33031,9828,32774
32993,9810,32731
32962,9793,32684
32933,9777,32637
32902,9760,32594
32876,9744,32559
32856,9735,32531
32839,9729,32507
32822,9724,32488
32811,9721,32475
32808,9719,32465
32809,9715,32454
32810,9711,32445
32818,9710,32442
32830,9714,32447
32836,9721,32456
32836,9728,32468
32843,9735,32482
32859,9744,32499
32872,9756,32516
32881,9766,32528
32895,9773,32536
32916,9780,32543
32934,9787,32549
32945,9792,32554
32956,9798,32563
32967,9802,32574
32967,9802,32578
32956,9795,32573
32943,9785,32563
32930,9776,32553
32917,9769,32539
32905,9764,32522
32897,9762,32507
32887,9759,32487
32861,9749,32455
32823,9734,32416
32784,9716,32376
32748,9698,32337
32714,9679,32296
32678,9658,32253
32644,9639,32206
32611,9619,32157
32573,9598,32103
32531,9573,32046
32488,9547,31991
32440,9520,31935
32387,9494,31877
32336,9469,31818
32293,9447,31761
32252,9428,31707
32207,9407,31662
32160,9381,31627
32117,9357,31595
32077,9337,31556
32037,9315,31510
32000,9295,31461
31970,9280,31417
31946,9269,31377
31923,9259,31340
31906,9251,31307
31891,9246,31277
31867,9241,31246
31835,9231,31211
31802,9219,31173
31776,9210,31139
31751,9203,31110
31726,9194,31087
31706,9188,31070
31693,9184,31056
31679,9179,31039
31665,9169,31015
31655,9157,30992
31649,9143,30970
31640,9124,30947
31626,9108,30922
31616,9097,30896
31606,9090,30872
31590,9083,30849
31570,9076,30823
31552,9071,30796
31529,9066,30767
31496,9057,30736
31466,9042,30704
31446,9026,30670
31433,9012,30637
31418,9000,30608
31408,8993,30584
31407,8994,30571
31409,9000,30570
31415,9008,30584
31439,9025,30618
31492,9054,30676
31572,9097,30759
31673,9150,30870
31798,9213,31011
31947,9289,31179
32106,9372,31364
32270,9458,31561
32439,9547,31772
32612,9638,31994
32786,9728,32219
32963,9820,32446
33149,9913,32679
33340,10009,32912
33523,10106,33136
33695,10198,33350
33858,10284,33552
34009,10365,33743
34139,10436,33917
34247,10493,34068
34341,10540,34196
34422,10577,34301
34483,10602,34384
34528,10619,34446
34570,10634,34493
34602,10645,34527
34618,10651,34549
34621,10652,34559
34622,10648,34557
34618,10640,34545
34603,10627,34528
34583,10611,34507
34568,10596,34484
34553,10587,34460
34539,10581,34435
34529,10578,34413
34524,10577,34398
34522,10580,34393
34515,10582,34389
34503,10580,34380
34487,10576,34368
34466,10568,34354
34438,10556,34335
34411,10541,34312
34390,10529,34290
34373,10519,34269
34354,10510,34247
34338,10500,34224
34324,10488,34198
34305,10476,34166
34281,10461,34128
34258,10449,34086
34242,10440,34049
34226,10429,34016
34211,10417,33989
34203,10409,33970
34199,10407,33962
34194,10407,33961
34184,10404,33961
34176,10403,33963
34173,10406,33965
34171,10410,33966
34175,10413,33967
34191,10418,33973
34212,10425,33984
34223,10432,33993
34225,10439,33998
34226,10448,34001
34227,10456,34004
34223,10457,34007
34219,10452,34004
34221,10445,33994
34223,10438,33982
34217,10430,33965
34204,10422,33944
34185,10413,33921
34159,10402,33894
34123,10384,33860
34086,10363,33819
34054,10343,33772
34020,10321,33721
33982,10299,33668
33947,10278,33617
33919,10261,33573
33891,10245,33532
33858,10226,33491
33821,10206,33450
33781,10184,33408
33733,10160,33362
33677,10131,33307
33624,10100,33246
33578,10070,33185
33530,10041,33128
33477,10015,33074
33431,9993,33024
33392,9977,32977
33352,9961,32930
33310,9944,32882
33274,9930,32839
33244,9918,32799
33210,9904,32754
33174,9888,32705
33144,9871,32657
33120,9858,32613
33094,9845,32570
33066,9829,32525
33042,9812,32485
33024,9797,32452
33005,9784,32423
32985,9773,32394
32967,9764,32370
32948,9756,32350
32920,9745,32328
32889,9731,32303
32864,9718,32279
32844,9704,32256
32821,9688,32232
32797,9673,32205
32778,9662,32180
32764,9654,32156
32749,9647,32129
32735,9640,32100
32724,9635,32070
32709,9629,32037
32682,9617,31999
32652,9602,31961
32624,9586,31924
32596,9570,31888
32563,9555,31850
32531,9542,31816
32504,9532,31786
32476,9524,31756
32442,9515,31725
32413,9505,31694
32396,9495,31668
32385,9486,31649
32386,9483,31642
32410,9493,31656
32461,9518,31699
32534,9554,31771
32625,9600,31871
32742,9660,32004
32881,9733,32166
33032,9812,32349
33194,9897,32550
33372,9988,32766
33561,10087,32997
33754,10189,33239
33952,10293,33487
34161,10402,33738
34373,10512,33992
34577,10616,34245
34770,10715,34491
34952,10809,34727
35118,10895,34950
35261,10969,35151
35380,11033,35327
35484,11089,35477
35577,11137,35606
35654,11177,35718
35720,11209,35813
35780,11241,35894
35830,11271,35962
35863,11294,36013
35883,11310,36046
35897,11319,36065
35904,11322,36076
35902,11317,36081
35898,11311,36083
35898,11308,36084
35896,11307,36082
35889,11306,36077
35884,11304,36069
35882,11300,36057
35875,11293,36044
35863,11283,36033
35855,11271,36024
35856,11261,36016
35854,11252,36005
35841,11240,35988
35825,11228,35968
35804,11213,35947
35779,11196,35923
35750,11175,35890
35720,11154,35853
35691,11138,35814
35659,11126,35772
35627,11112,35727
35600,11100,35680
35579,11089,35634
35558,11078,35588
35540,11068,35545
35529,11065,35514
35525,11065,35494
35519,11066,35480
35511,11065,35468
35507,11066,35459
35501,11066,35453
35488,11061,35446
35471,11050,35435
35458,11038,35427
35447,11029,35423
35436,11021,35421
35429,11014,35416
35427,11011,35411
35425,11011,35408
35414,11007,35401
35395,10996,35390
35376,10985,35377
35358,10977,35364
35335,10969,35346
35315,10960,35323
35302,10952,35297
35287,10944,35269
35267,10934,35239
35247,10921,35207
35230,10905,35174
35207,10888,35136
35172,10867,35088
35133,10847,35032
35091,10827,34975
35041,10805,34914
34986,10779,34849
34940,10754,34787
34900,10734,34732
34859,10712,34681
34813,10687,34624
34768,10664,34564
34726,10643,34503
34681,10621,34440
34636,10600,34377
34596,10579,34315
34562,10556,34256
34521,10531,34199
34473,10506,34143
34426,10481,34086
34381,10454,34028
34336,10429,33968
34289,10406,33908
34241,10383,33849
34192,10359,33792
34146,10336,33740
34110,10316,33691
34085,10302,33649
34064,10293,33615
34038,10281,33585
34008,10265,33552
33976,10246,33514
33944,10227,33472
33910,10205,33428
33877,10182,33382
33849,10164,33341
33819,10151,33303
33784,10139,33264
33752,10128,33225
33725,10118,33191
33694,10109,33161
33662,10099,33128
33636,10087,33090
33617,10077,33054
33601,10068,33022
33579,10057,32990
33555,10045,32960
33529,10032,32932
33498,10017,32904
33460,9999,32869
33423,9981,32832
33394,9964,32798
33368,9946,32765
33341,9930,32732
33318,9916,32700
33297,9905,32669
33269,9889,32631
33233,9869,32588
33201,9849,32541
33167,9829,32490
33125,9808,32437
33081,9785,32386
33048,9765,32340
33021,9748,32301
32987,9727,32261
32950,9704,32217
32916,9681,32175
32883,9661,32135
32845,9641,32095
32814,9626,32060
32802,9620,32039
32808,9626,32039
32834,9645,32067
32892,9680,32127
32986,9732,32222
33108,9797,32350
33247,9870,32506
33405,9953,32694
33583,10044,32908
33776,10140,33144
33982,10242,33397
34202,10351,33663
34431,10468,33941
34659,10590,34230
34882,10709,34519
35103,10826,34801
35313,10939,35073
35505,11047,35333
35680,11148,35576
35847,11239,35798
36003,11318,36000
36139,11386,36179
36256,11444,36334
36361,11495,36467
36450,11539,36580
36515,11575,36672
36560,11603,36739
36594,11625,36788
36615,11639,36824
36622,11643,36847
36624,11641,36859
36635,11641,36864
36650,11643,36866
36658,11644,36862
36660,11641,36853
36663,11640,36845
36666,11642,36844
36661,11645,36846
36656,11646,36845
36656,11647,36845
36656,11646,36848
36650,11643,36848
36638,11637,36839
36626,11630,36825
36610,11621,36806
36585,11609,36779
36557,11593,36747
36530,11579,36714
36499,11565,36681
36461,11547,36643
36423,11526,36598
36385,11503,36546
36344,11480,36492
36302,11455,36435
36265,11433,36379
36235,11415,36327
36208,11397,36279
36179,11380,36232
36158,11365,36194
36146,11354,36168
36135,11347,36152
36120,11341,36137
36105,11335,36124
36094,11331,36117
36084,11329,36110
36078,11330,36101
36084,11334,36099
36098,11336,36104
36114,11332,36113
36128,11329,36125
36137,11332,36137
36140,11336,36146
36132,11336,36146
36118,11333,36134
36105,11330,36112
36091,11325,36083
36070,11316,36045
36046,11303,36001
36027,11290,35959
36006,11279,35924
35977,11265,35887
35946,11247,35842
35914,11227,35794
35876,11206,35745
35830,11183,35695
35783,11156,35643
35739,11129,35590
35691,11103,35530
35637,11075,35463
35583,11044,35388
35528,11012,35310
35468,10979,35233
35404,10945,35156
35342,10912,35078
35287,10882,35005
35238,10854,34941
35190,10827,34885
35148,10804,34834
35111,10784,34787
35071,10762,34742
35024,10739,34691
34978,10719,34635
34934,10702,34577
34884,10683,34517
34832,10661,34455
34790,10639,34396
34758,10620,34342
34728,10601,34295
34698,10581,34251
34672,10563,34208
34645,10547,34165
34610,10529,34118
34570,10509,34067
34530,10487,34017
34489,10463,33967
34448,10440,33918
34414,10419,33873
34392,10401,33833
34377,10390,33800
34360,10384,33773
34340,10381,33747
34324,10377,33724
34310,10373,33703
34291,10366,33680
34267,10354,33650
34243,10342,33615
34216,10328,33578
34186,10313,33541
34158,10299,33504
34135,10286,33467
34111,10273,33431
34079,10257,33393
34044,10238,33355
34012,10221,33317
33979,10206,33278
33943,10190,33237
33909,10173,33192
33883,10158,33149
33859,10145,33108
33829,10130,33066
33800,10115,33026
33771,10098,32988
33734,10078,32946
33693,10057,32901
33660,10039,32854
33634,10024,32809
33608,10007,32764
33581,9993,32720
33559,9984,32677
33534,9973,32633
33498,9956,32584
33455,9936,32534
33411,9917,32488
33363,9899,32444
33311,9876,32400
33262,9850,32357
33229,9828,32323
33209,9812,32297
33199,9802,32284
33206,9801,32290
33238,9814,32325
33296,9843,32389
33379,9889,32481
33494,9949,32603
33641,10023,32757
33809,10108,32942
33988,10206,33155
34182,10311,33392
34395,10422,33651
34619,10537,33925
34846,10652,34207
35079,10769,34494
35322,10893,34792
35564,11020,35094
35795,11146,35386
36013,11265,35663
36212,11375,35918
36387,11470,36149
36540,11549,36354
36675,11618,36532
36793,11679,36686
36890,11729,36816
36964,11766,36921
37025,11795,37005
37077,11818,37074
37115,11834,37128
37138,11841,37165
37153,11844,37187
37165,11845,37197
37173,11846,37200
37176,11845,37195
37174,11844,37185
37167,11843,37172
37150,11837,37154
37131,11827,37129
37117,11818,37109
37108,11812,37096
37097,11804,37081
37080,11793,37063
37065,11783,37045
37051,11773,37027
37030,11759,37005
37007,11745,36979
36984,11731,36948
36953,11715,36909
36907,11692,36862
36857,11667,36811
36815,11644,36758
36778,11624,36706
36739,11603,36655
36703,11583,36605
36671,11566,36560
36640,11552,36518
36607,11535,36476
36578,11517,36433
36562,11506,36396
36550,11498,36369
36537,11493,36354
36529,11492,36349
36527,11494,36351
36525,11494,36353
36521,11492,36351
36523,11488,36346
36530,11483,36344
36534,11479,36344
36533,11475,36342
36536,11473,36339
36542,11472,36338
36543,11471,36340
36535,11467,36341
36530,11461,36336
36531,11459,36324
36526,11458,36309
36511,11455,36288
36494,11453,36264
36473,11449,36235
36443,11439,36197
36412,11426,36153
36387,11414,36109
36362,11402,36064
36333,11387,36015
36301,11369,35963
36271,11348,35912
36238,11320,35860
36194,11284,35800
36145,11244,35736
36098,11207,35670
36050,11173,35606
35995,11141,35540
35938,11112,35476
35886,11089,35414
35833,11066,35348
35773,11039,35276
35714,11012,35200
35663,10985,35128
35616,10958,35063
35566,10928,35000
35519,10901,34936
35476,10879,34875
35432,10860,34818
35380,10838,34760
35330,10816,34702
35290,10800,34649
35255,10786,34599
35224,10772,34550
35203,10759,34501
35185,10744,34450
35155,10723,34398
35111,10696,34347
35061,10668,34295
35014,10643,34245
34967,10622,34196
34922,10604,34150
34887,10590,34112
34857,10576,34080
34822,10560,34048
34787,10544,34013
34757,10529,33976
34732,10514,33942
34705,10496,33903
34677,10479,33858
34651,10466,33817
34623,10454,33783
34591,10438,33749
34559,10422,33711
34531,10410,33671
34506,10399,33631
34479,10388,33595
34454,10378,33560
34438,10370,33530
34424,10361,33501
34401,10346,33471
34374,10330,33439
34349,10317,33404
34324,10306,33367
34296,10293,33326
34268,10279,33284
34242,10266,33246
34212,10254,33209
34177,10239,33169
34143,10223,33127
34111,10204,33087
34074,10181,33048
34029,10154,33002
33985,10128,32952
33947,10106,32905
33911,10087,32861
33874,10068,32814
33844,10050,32764
33819,10036,32717
33790,10023,32672
33755,10007,32623
33720,9988,32574
33683,9969,32523
33640,9945,32468
33595,9921,32412
33558,9902,32362
33523,9885,32313
33481,9864,32265
33436,9839,32219
33398,9818,32181
33369,9802,32152
33346,9791,32133
33340,9791,32133
33366,9808,32161
33427,9842,32220
33518,9890,32310
33637,9955,32438
33787,10035,32606
33959,10127,32807
34147,10227,33034
34355,10335,33283
34582,10451,33554
34819,10574,33841
35060,10698,34135
35304,10820,34431
35553,10941,34727
35794,11059,35019
36022,11174,35301
36238,11287,35570
36439,11392,35825
36618,11486,36059
36773,11566,36266
36909,11635,36446
37026,11690,36600
37116,11732,36728
37179,11760,36826
37225,11780,36897
37264,11797,36945
37290,11810,36973
37305,11820,36988
37316,11830,36997
37321,11843,37003
37318,11852,37005
37309,11855,36999
37300,11851,36982
37294,11842,36961
37280,11828,36939
37259,11812,36913
37237,11796,36885
37214,11782,36855
37186,11765,36824
37157,11747,36790
37136,11730,36757
37115,11715,36725
37089,11700,36692
37064,11684,36658
37044,11670,36624
37024,11655,36590
36997,11641,36554
36961,11625,36512
36922,11607,36464
36879,11586,36414
36829,11560,36362
36784,11534,36308
36750,11513,36258
36723,11495,36213
36698,11479,36176
36681,11469,36147
36672,11467,36127
36664,11469,36115
36655,11471,36104
36651,11471,36097
36655,11471,36093
36659,11469,36091
36661,11466,36087
36664,11466,36082
36670,11468,36082
36675,11469,36086
36681,11469,36088
36691,11471,36090
36704,11477,36097
36716,11484,36109
36722,11490,36118
36727,11494,36122
36724,11496,36120
36706,11490,36107
36677,11477,36083
36649,11463,36052
36621,11448,36021
36586,11431,35987
36547,11412,35945
36513,11393,35898
36485,11376,35851
36454,11357,35806
36420,11337,35758
36382,11317,35706
36335,11295,35647
36278,11266,35578
36217,11232,35502
36161,11201,35425
36106,11172,35352
36046,11139,35279
35987,11105,35206
35935,11076,35138
35887,11048,35075
35839,11021,35019
35794,10994,34968
35751,10970,34918
35701,10945,34864
35643,10918,34803
35589,10891,34740
35541,10864,34676
35491,10834,34614
35435,10804,34550
35381,10777,34484
35331,10755,34422
35282,10733,34367
35234,10710,34312
35193,10689,34259
35156,10669,34212
35119,10650,34167
35084,10631,34118
35060,10618,34070
35039,10608,34028
35012,10598,33989
34983,10587,33948
34955,10577,33907
34925,10566,33868
34890,10552,33828
34856,10536,33788
34827,10522,33752
34802,10507,33717
34774,10490,33680
34744,10471,33639
34714,10454,33600
34683,10435,33564
34647,10414,33527
34614,10393,33487
34589,10376,33451
34563,10360,33417
34526,10341,33381
34489,10323,33343
34461,10308,33307
34437,10295,33273
34409,10281,33238
34382,10267,33202
34360,10253,33169
34339,10240,33138
34309,10225,33108
34272,10213,33079
34238,10199,33046
34207,10179,33008
34172,10158,32963
34134,10140,32913
34098,10124,32863
34060,10107,32813
34019,10088,32763
33981,10069,32716
33947,10053,32674
33910,10035,32630
33867,10012,32581
33827,9988,32527
33785,9963,32472
33734,9936,32417
33676,9907,32365
33622,9878,32318
33574,9850,32273
33525,9824,32224
33476,9800,32171
33436,9781,32121
33403,9766,32072
33367,9750,32023
33329,9733,31975
33294,9717,31930
33265,9703,31892
33241,9692,31864
33233,9687,31856
33249,9694,31878
33294,9715,31929
33366,9749,32008
33469,9797,32120
33605,9864,32269
33769,9950,32455
33952,10051,32673
34153,10162,32917
34376,10282,33184
34612,10407,33469
34849,10532,33762
35086,10655,34056
35323,10776,34345
35553,10893,34624
35772,11003,34890
35982,11106,35143
36178,11205,35384
36353,11294,35607
36507,11372,35805
36639,11438,35969
36748,11492,36106
36831,11536,36223
36890,11569,36316
36936,11595,36388
36971,11615,36443
36989,11626,36481
36992,11630,36503
36992,11630,36512
36989,11630,36511
36974,11625,36495
36953,11615,36462
36932,11600,36419
36911,11584,36378
36886,11567,36343
36860,11549,36308
36837,11533,36274
36811,11517,36243
36778,11498,36209
36742,11478,36169
36707,11460,36128
36670,11445,36086
36625,11426,36040
36577,11405,35989
36532,11384,35937
36486,11364,35884
36434,11340,35827
36383,11313,35766
36336,11284,35709
36289,11257,35654
36241,11227,35598
36199,11198,35540
36170,11174,35483
36147,11156,35431
36125,11143,35387
36109,11137,35353
36105,11138,35331
36105,11141,35324
36104,11145,35325
36109,11154,35333
36121,11166,35344
36133,11176,35356
36143,11183,35365
36155,11187,35372
36165,11190,35377
36169,11187,35380
36170,11182,35379
36173,11178,35380
36177,11175,35385
36175,11173,35390
36165,11172,35390
36159,11173,35386
36156,11172,35380
36147,11165,35370
36128,11153,35353
36105,11137,35329
36078,11121,35302
36043,11104,35272
36005,11084,35234
35969,11067,35190
35933,11051,35142
35890,11031,35092
35846,11009,35039
35808,10990,34981
35767,10968,34920
35718,10942,34854
35667,10915,34787
35622,10890,34723
35577,10870,34663
35529,10851,34608
35478,10830,34551
35426,10809,34488
35368,10785,34421
35305,10758,34351
35246,10732,34280
35191,10706,34211
35133,10675,34142
35074,10643,34073
35026,10613,34005
34989,10587,33940
34949,10562,33877
34904,10536,33814
34863,10512,33754
34828,10493,33703
34787,10477,33658
34740,10458,33614
34694,10441,33574
34652,10426,33540
34608,10407,33503
34566,10383,33461
34531,10360,33412
34500,10339,33361
34462,10318,33311
34419,10295,33262
34383,10274,33216
34352,10253,33175
34318,10233,33137
34280,10212,33098
34247,10192,33058
34217,10172,33017
34181,10152,32976
34145,10135,32937
34115,10120,32899
34087,10104,32862
34055,10086,32825
34024,10069,32784
34000,10057,32743
33978,10047,32709
33954,10037,32680
33930,10027,32653
33911,10021,32628
33889,10014,32603
33860,10004,32577
33826,9991,32547
33792,9976,32511
33756,9957,32474
33714,9934,32434
33676,9909,32391
33646,9884,32349
33614,9863,32308
33582,9843,32267
33555,9827,32228
33534,9814,32192
33510,9802,32158
33480,9793,32125
33450,9787,32093
33427,9783,32061
33402,9776,32024
33371,9762,31979
33336,9742,31931
33299,9723,31885
33256,9702,31837
33209,9675,31784
33164,9648,31729
33124,9626,31676
33084,9608,31625
33042,9588,31578
33003,9568,31533
32965,9549,31488
32924,9529,31441
32877,9503,31390
32832,9477,31337
32788,9451,31286
32741,9424,31232
32698,9398,31175
32667,9376,31122
32644,9360,31078
32625,9350,31049
32626,9350,31045
32658,9366,31076
32721,9400,31147
32818,9453,31258
32951,9524,31405
33114,9612,31591
33298,9715,31814
33501,9829,32066
33720,9949,32335
33953,10074,32615
34193,10198,32901
34435,10320,33189
34679,10441,33477
34928,10564,33765
35171,10684,34048
35400,10798,34321
35617,10907,34579
35814,11008,34823
35983,11098,35047
36123,11174,35246
36247,11241,35419
36356,11298,35565
36445,11341,35682
36511,11371,35769
36558,11391,35828
36590,11403,35869
36606,11409,35896
36608,11410,35908
36604,11408,35908
36592,11400,35897
36567,11384,35871
36532,11362,35830
36493,11339,35780
36453,11315,35728
36408,11289,35674
36360,11263,35618
36312,11237,35559
36265,11213,35499
36217,11192,35442
36172,11173,35391
36134,11156,35347
36098,11141,35309
36062,11124,35272
36026,11107,35233
35995,11093,35195
35964,11079,35154
35924,11061,35106
35882,11039,35053
35841,11017,34997
35797,10995,34942
35755,10973,34888
35720,10950,34836
35692,10934,34791
35667,10922,34755
35648,10913,34728
35641,10907,34708
35641,10905,34699
35639,10905,34698
35636,10908,34701
35642,10916,34709
35659,10925,34721
35672,10930,34734
35680,10934,34745
35689,10938,34754
35700,10943,34766
35707,10945,34779
35710,10946,34788
35716,10946,34797
35725,10947,34806
35731,10949,34811
35733,10952,34813
35734,10955,34813
35730,10956,34808
35714,10951,34796
35694,10942,34777
35673,10931,34754
35648,10918,34725
35612,10897,34689
35570,10873,34646
35535,10851,34600
35502,10828,34549
35462,10804,34491
35419,10781,34431
35380,10763,34371
35337,10744,34312
35284,10722,34253
35225,10696,34192
35168,10670,34130
35112,10642,34067
35049,10610,33997
34987,10576,33923
34930,10542,33847
34873,10506,33773
34809,10468,33696
34744,10432,33619
34683,10403,33544
34621,10377,33475
34559,10353,33412
34500,10332,33352
34447,10313,33294
34393,10292,33235
34336,10266,33174
34284,10238,33116
34238,10211,33062
34190,10185,33009
34139,10159,32954
34091,10134,32899
34049,10110,32843
34007,10085,32784
33967,10059,32722
33932,10037,32661
33903,10019,32609
33871,10002,32565
33837,9989,32524
33808,9979,32487
33782,9970,32453
33756,9958,32422
33725,9943,32391
33693,9928,32360
33660,9914,32327
33622,9899,32289
33580,9881,32250
33542,9863,32214
33505,9844,32173
33465,9819,32126
33428,9791,32082
33395,9766,32046
33362,9746,32014
33328,9731,31983
33300,9721,31956
33273,9713,31932
33242,9704,31909
33204,9690,31882
33165,9673,31851
33130,9656,31817
33093,9639,31777
33050,9618,31733
33006,9595,31690
32966,9573,31648
32926,9552,31605
32887,9531,31559
32855,9513,31512
32828,9499,31469
32800,9486,31426
32771,9471,31380
32742,9456,31334
32710,9440,31290
32669,9420,31242
32618,9394,31190
32567,9367,31136
32516,9345,31082
32458,9323,31024
32397,9299,30960
32338,9273,30898
32282,9247,30832
32222,9217,30759
32158,9185,30681
32098,9153,30604
32042,9124,30532
31990,9096,30465
31941,9066,30402
31897,9040,30347
31859,9018,30301
31828,9003,30269
31820,9002,30261
31848,9020,30289
31912,9056,30355
32010,9110,30462
32147,9184,30612
32320,9276,30805
32521,9384,31033
32745,9503,31291
32987,9628,31572
33237,9754,31867
33487,9879,32165
33732,10003,32462
33975,10129,32756
34217,10254,33042
34449,10372,33316
34665,10482,33573
34869,10586,33813
35059,10682,34038
35225,10765,34245
35365,10835,34432
35488,10895,34599
35592,10945,34743
35669,10986,34862
35719,11015,34953
35753,11036,35021
35776,11051,35066
35782,11054,35089
35776,11047,35088
35763,11033,35066
35742,11016,35030
35710,10996,34987
35670,10977,34938
35627,10958,34881
35582,10937,34819
35532,10912,34754
35478,10883,34684
35422,10853,34612
35359,10820,34541
35289,10785,34472
35223,10747,34405
35164,10711,34340
35107,10677,34279
35047,10644,34220
34990,10613,34160
34942,10585,34102
34895,10560,34046
34845,10538,33986
34794,10521,33926
34751,10505,33870
34708,10488,33819
34661,10466,33769
34616,10443,33717
34579,10421,33667
34545,10401,33624
34516,10385,33588
34499,10376,33562
34493,10373,33551
34487,10372,33550
34483,10373,33552
34492,10381,33557
34512,10395,33566
34536,10412,33580
34560,10428,33599
34592,10444,33624
34628,10459,33655
34660,10472,33686
34685,10484,33714
34707,10493,33740
34726,10501,33762
34735,10505,33775
34739,10508,33781
34746,10514,33786
34756,10522,33790
34761,10527,33790
34756,10528,33784
34748,10524,33773
34732,10516,33758
34707,10502,33735
34674,10482,33706
34636,10460,33673
34592,10437,33638
34538,10411,33595
34479,10380,33543
34423,10348,33482
34370,10319,33414
34316,10290,33341
34263,10263,33266
34217,10239,33192
34170,10216,33122
34117,10195,33055
34061,10174,32987
34007,10151,32919
33952,10126,32852
33893,10097,32781
33831,10066,32707
33766,10034,32632
33694,10003,32557
33623,9972,32480
33563,9943,32407
33512,9916,32342
33463,9891,32284
33413,9863,32228
33367,9835,32175
33326,9811,32127
33283,9788,32078
33237,9763,32027
33194,9737,31974
33152,9712,31920
33107,9687,31864
33061,9661,31806
33020,9640,31753
32982,9623,31708
32945,9607,31666
32911,9591,31629
32883,9575,31598
32858,9561,31570
32830,9546,31538
32800,9531,31506
32774,9519,31478
32755,9511,31452
32735,9502,31422
32713,9491,31388
32694,9481,31356
32676,9470,31330
32652,9460,31310
32626,9455,31295
32605,9453,31281
32588,9450,31261
32564,9441,31232
32534,9426,31198
32502,9411,31158
32469,9395,31110
32433,9375,31060
32400,9354,31013
32370,9335,30966
32335,9315,30921
32293,9294,30879
32249,9271,30844
32207,9246,30811
32157,9219,30770
32101,9191,30721
32050,9166,30665
32005,9144,30609
31961,9121,30557
31924,9102,30511
31908,9095,30480
31916,9102,30471
31945,9121,30490
31998,9149,30541
32087,9193,30631
32211,9255,30760
32364,9333,30927
32541,9422,31126
32742,9520,31352
32960,9625,31602
33185,9734,31865
33414,9848,32133
33647,9965,32402
33877,10086,32669
34100,10205,32930
34314,10320,33180
34520,10430,33419
34711,10532,33645
34879,10621,33852
35029,10700,34039
35165,10774,34207
35281,10835,34354
35369,10878,34477
35436,10907,34578
35486,10927,34656
35518,10938,34713
35534,10942,34749
35543,10941,34766
35549,10942,34771
35548,10942,34764
35536,10938,34746
35519,10930,34719
35499,10921,34688
35467,10910,34652
35425,10895,34608
35377,10875,34557
35326,10849,34500
35268,10817,34438
35204,10782,34371
35140,10748,34297
35081,10715,34220
35021,10680,34139
34957,10640,34052
34892,10602,33966
34828,10568,33884
34762,10535,33805
34697,10502,33725
34639,10472,33645
34584,10444,33566
34526,10417,33492
34470,10392,33423
34423,10373,33365
34383,10360,33320
34349,10348,33286
34325,10338,33259
34312,10332,33241
34309,10330,33236
34314,10331,33241
34330,10336,33249
34356,10346,33258
34384,10361,33273
34410,10377,33296
34441,10394,33324
34479,10412,33356
34516,10430,33395
34547,10445,33436
34576,10458,33476
34603,10470,33512
34623,10482,33541
34635,10488,33560
34643,10490,33567
34653,10491,33571
34664,10492,33574
34670,10491,33574
34668,10488,33564
34661,10484,33550
34646,10477,33533
34625,10469,33512
34607,10461,33489
34587,10453,33467
34554,10439,33438
34510,10422,33398
34465,10406,33352
34424,10388,33303
34383,10367,33250
34336,10344,33190
34285,10322,33124
34235,10299,33052
34182,10277,32976
34126,10250,32896
34071,10220,32819
34018,10192,32748
33961,10163,32678
33901,10128,32605
33844,10093,32531
33786,10060,32460
33717,10025,32389
33645,9989,32318
33578,9952,32248
33516,9915,32182
33456,9877,32119
33400,9843,32061
33355,9817,32007
33318,9795,31955
33280,9777,31903
33246,9762,31854
33221,9749,31809
33200,9736,31764
33173,9721,31718
33142,9708,31675
33107,9697,31636
33067,9685,31599
33024,9671,31565
32986,9656,31537
32952,9642,31511
32917,9628,31482
32882,9612,31449
32850,9594,31415
32824,9577,31384
32797,9558,31352
32768,9537,31316
32742,9517,31283
32723,9502,31256
32706,9491,31224
32683,9478,31185
32660,9465,31143
32638,9452,31104
32611,9438,31069
32574,9422,31038
32541,9406,31010
32510,9392,30982
32475,9375,30948
32436,9359,30911
32403,9343,30875
32378,9332,30845
32364,9326,30825
32368,9330,30826
32402,9349,30860
32471,9383,30927
32568,9432,31029
32696,9498,31168
32860,9584,31348
33050,9688,31563
33261,9802,31804
33492,9922,32062
33738,10047,32331
33981,10172,32605
34212,10292,32877
34437,10409,33145
34660,10521,33412
34873,10626,33674
35072,10723,33922
35261,10812,34150
35442,10894,34359
35611,10974,34553
35762,11051,34731
35899,11122,34887
36017,11184,35021
36106,11233,35133
36168,11268,35222
36212,11291,35290
36239,11302,35335
36249,11304,35357
36241,11296,35359
36222,11281,35344
36195,11263,35318
36152,11239,35279
36097,11212,35227
36040,11183,35167
35986,11155,35105
35932,11128,35039
35881,11101,34970
35839,11075,34907
35800,11051,34847
35759,11027,34789
35719,11003,34733
35684,10982,34681
35645,10964,34628
35596,10944,34567
35543,10920,34498
35489,10894,34425
35432,10868,34354
35368,10842,34281
35305,10815,34210
35249,10789,34141
35198,10764,34074
35150,10737,34010
35113,10710,33956
35091,10690,33918
35075,10676,33895
35062,10668,33881
35059,10666,33872
35066,10670,33868
35076,10678,33871
35084,10688,33879
35097,10700,33887
35118,10710,33900
35142,10721,33923
35170,10736,33956
35208,10755,33994
35255,10779,34035
35301,10804,34075
35341,10827,34115
35376,10848,34154
35407,10867,34192
35429,10881,34223
35441,10887,34246
35448,10889,34260
35452,10889,34269
35446,10887,34269
35431,10881,34261
35414,10873,34246
35399,10863,34226
35380,10849,34200
35352,10833,34164
35321,10816,34122
35286,10799,34081
35246,10779,34037
35203,10755,33984
35160,10729,33922
35111,10698,33853
35052,10661,33776
34990,10626,33692
34934,10595,33609
34879,10563,33531
34820,10529,33457
34762,10494,33385
34710,10462,33316
34658,10433,33247
34599,10403,33178
34532,10372,33106
34465,10340,33034
34402,10309,32963
34340,10278,32892
34279,10248,32818
34223,10221,32749
34167,10195,32687
34107,10170,32627
34054,10148,32572
34007,10128,32522
33960,10108,32473
33910,10086,32425
33867,10065,32377
33833,10047,32332
33804,10033,32290
33773,10019,32250
33746,10006,32212
33722,9995,32178
33696,9982,32146
33667,9962,32112
33639,9940,32078
33614,9920,32046
33586,9902,32013
33559,9886,31980
33538,9875,31951
33517,9870,31928
33491,9867,31903
33468,9862,31876
33453,9856,31852
33442,9849,31830
33424,9841,31804
33402,9831,31778
33383,9819,31754
33361,9805,31728
33332,9787,31699
33303,9769,31669
33282,9752,31638
33261,9734,31603
33236,9716,31567
33208,9697,31532
33182,9679,31498
33159,9666,31468
33145,9658,31443
33149,9659,31435
33180,9674,31458
33239,9706,31518
33329,9756,31617
33456,9827,31758
33617,9918,31941
33800,10026,32158
33999,10145,32401
34223,10274,32669
34470,10410,32959
34728,10546,33263
34990,10681,33573
35256,10814,33882
35523,10951,34190
35782,11087,34492
36027,11219,34782
36262,11341,35056
36481,11453,35311
36672,11549,35543
36836,11628,35746
36978,11693,35922
37102,11750,36078
37204,11797,36215
37285,11831,36327
37351,11858,36413
37400,11880,36481
37428,11896,36528
37441,11906,36556
37444,11908,36569
37435,11903,36570
37412,11890,36555
37379,11871,36526
37342,11849,36488
37306,11827,36445
37269,11806,36397
37235,11787,36345
37209,11773,36298
37189,11765,36259
37171,11759,36226
37155,11754,36194
37137,11748,36162
37113,11737,36130
37080,11721,36093
37047,11699,36049
37020,11674,35999
36993,11647,35948
36961,11622,35898
36933,11602,35849
36907,11587,35801
36879,11575,35754
36846,11561,35710
36814,11546,35672
36783,11531,35638
36752,11515,35604
36722,11495,35568
36699,11476,35533
36683,11461,35507
36673,11449,35492
36668,11444,35486
36676,11447,35488
36696,11456,35494
36718,11463,35503
36735,11468,35508
36747,11473,35512
36758,11482,35518
36767,11492,35529
36778,11505,35543
36797,11520,35561
36821,11533,35582
36841,11545,35603
36855,11556,35619
36870,11566,35633
36883,11574,35649
36887,11575,35657
36883,11567,35648
36877,11552,35629
36867,11536,35607
36849,11517,35585
36825,11498,35559
36797,11482,35530
36768,11468,35502
36735,11453,35469
36698,11436,35430
36658,11416,35384
36612,11393,35332
36557,11364,35268
36501,11330,35195
36444,11293,35116
36379,11257,35037
36308,11221,34957
36242,11188,34876
36184,11161,34800
36129,11141,34728
36074,11121,34658
36021,11098,34589
35969,11074,34521
35911,11047,34453
35850,11015,34381
35796,10985,34307
35746,10955,34234
35694,10924,34162
35644,10894,34090
35601,10868,34025
35564,10846,33968
35525,10826,33917
35487,10807,33870
35456,10791,33826
35427,10777,33786
35389,10761,33746
35345,10740,33704
35302,10718,33661
35260,10695,33621
35213,10672,33585
35167,10648,33546
35131,10626,33503
35104,10607,33461
35080,10592,33423
35065,10582,33391
35061,10578,33364
35055,10576,33338
35037,10570,33309
35014,10558,33275
34991,10546,33238
34967,10533,33199
34942,10519,33162
34922,10506,33131
34908,10493,33108
34896,10484,33090
34875,10475,33072
34852,10469,33051
34828,10463,33028
34799,10455,33001
34765,10440,32966
34730,10422,32928
34699,10404,32890
34665,10383,32854
34631,10360,32817
34607,10341,32780
34590,10327,32748
34571,10319,32725
34556,10315,32714
34565,10322,32724
34610,10346,32766
34686,10387,32845
34797,10447,32962
34951,10530,33121
35141,10630,33323
35350,10741,33562
35574,10862,33828
35816,10992,34116
36073,11125,34422
36330,11257,34734
36586,11388,35043
36842,11520,35345
37093,11649,35641
37329,11771,35926
37554,11887,36199
37775,11999,36463
37983,12103,36712
38169,12194,36938
38336,12275,37139
38485,12350,37319
38607,12413,37474
38699,12460,37598
38773,12493,37690
38834,12515,37758
38879,12529,37807
38908,12538,37838
38926,12545,37855
38939,12550,37863
38944,12553,37862
38937,12551,37851
38921,12543,37831
38895,12530,37802
38855,12510,37764
38806,12484,37721
38762,12461,37678
38721,12441,37636
38676,12422,37593
38628,12400,37546
38588,12379,37502
38558,12363,37464
38531,12347,37427
38503,12327,37386
38480,12307,37343
38460,12289,37304
38437,12272,37267
38409,12254,37228
38379,12235,37188
38349,12217,37147
38314,12199,37102
38276,12179,37049
38237,12159,36996
38199,12145,36951
38159,12132,36909
38122,12118,36869
38094,12106,36834
38076,12098,36807
38062,12093,36786
38051,12091,36768
38052,12091,36754
38060,12094,36744
38066,12097,36738
38074,12100,36737
38087,12105,36740
38099,12109,36749
38107,12110,36760
38116,12111,36771
38128,12113,36782
38139,12114,36790
38149,12114,36791
38164,12118,36787
38181,12128,36785
38188,12135,36784
38185,12137,36780
38178,12134,36771
38167,12128,36755
38147,12119,36731
38119,12102,36695
38088,12080,36650
38055,12058,36606
38019,12036,36565
37980,12012,36520
37944,11991,36474
37905,11973,36427
37859,11954,36375
37807,11933,36314
37754,11909,36245
37699,11884,36173
37638,11855,36098
37576,11822,36020
37520,11785,35943
37466,11748,35870
37408,11710,35799
37349,11672,35727
37295,11635,35653
37242,11602,35580
37186,11572,35509
37127,11543,35438
37070,11515,35373
37015,11487,35311
36955,11456,35249
36896,11424,35185
36839,11391,35118
36780,11356,35050
36717,11323,34983
36662,11294,34917
36621,11271,34856
36586,11253,34801
36552,11237,34749
36520,11223,34699
36493,11213,34659
36466,11205,34625
36437,11196,34595
36410,11185,34565
36386,11175,34534
36358,11166,34502
36328,11156,34467
36302,11146,34433
36276,11134,34402
36242,11115,34369
36204,11092,34330
36174,11070,34289
36149,11051,34250
36122,11034,34214
36092,11018,34176
36069,11005,34135
36052,10994,34099
36035,10986,34068
36013,10979,34040
35989,10968,34014
35962,10955,33987
35928,10936,33955
35890,10915,33917
35856,10897,33881
35824,10881,33847
35786,10863,33808
35747,10842,33764
35713,10824,33719
35681,10808,33676
35648,10790,33632
35618,10771,33585
35594,10754,33541
35567,10740,33504
35529,10730,33467
35487,10722,33426
35451,10717,33384
35424,10713,33347
35409,10711,33324
35420,10716,33324
35462,10735,33357
35539,10773,33433
35652,10831,33555
35806,10907,33721
35997,11004,33929
36216,11117,34172
36457,11239,34443
36720,11370,34741
36997,11510,35057
37274,11652,35382
37546,11792,35706
37821,11931,36027
38095,12071,36342
38353,12203,36646
38593,12325,36936
38820,12437,37205
39029,12540,37452
39209,12628,37675
39363,12702,37870
39498,12766,38035
39616,12821,38174
39714,12868,38288
39790,12908,38379
39853,12945,38449
39900,12976,38500
39924,12997,38533
39932,13008,38550
39931,13010,38554
39921,13008,38549
39899,13002,38537
39873,12992,38516
39845,12978,38486
39810,12957,38449
39769,12931,38404
39732,12905,38350
39704,12883,38294
39680,12864,38243
39655,12846,38197
39635,12829,38154
39621,12814,38116
39607,12802,38082
39583,12788,38046
39552,12771,38008
39520,12755,37970
39484,12736,37930
39438,12713,37884
39388,12688,37831
39340,12663,37776
39291,12636,37720
39244,12609,37663
39202,12582,37607
39167,12559,37556
39138,12540,37511
39115,12525,37470
39106,12516,37438
39104,12513,37417
39101,12513,37406
39097,12514,37401
39098,12518,37401
39104,12527,37409
39111,12538,37426
39120,12547,37445
39135,12556,37468
39152,12566,37494
39162,12572,37518
39167,12573,37536
39175,12571,37550
39188,12571,37562
39199,12574,37570
39205,12577,37571
39211,12579,37565
39215,12579,37555
39212,12574,37539
39205,12566,37515
39198,12556,37488
39185,12547,37461
39163,12534,37430
39134,12515,37392
39101,12497,37350
39058,12477,37306
39003,12452,37255
38943,12424,37194
38889,12395,37126
38836,12367,37056
38781,12337,36986
38730,12307,36920
38686,12280,36858
38643,12254,36795
38594,12227,36726
38546,12199,36652
38498,12172,36579
38443,12144,36505
38379,12114,36429
38317,12085,36355
38259,12059,36285
38197,12032,36217
38132,12002,36148
38072,11971,36075
38018,11941,36001
37962,11910,35929
37903,11877,35858
37850,11846,35791
37805,11819,35728
37758,11793,35671
37710,11765,35616
37667,11739,35562
37630,11716,35513
37595,11695,35467
37558,11673,35421
37525,11654,35377
37494,11640,35334
37461,11627,35293
37427,11611,35254
37400,11594,35223
37372,11578,35195
37337,11561,35167
37302,11545,35136
37274,11530,35105
37246,11515,35071
37209,11498,35032
37167,11477,34985
37128,11457,34937
37096,11439,34893
37065,11421,34850
37036,11404,34808
37013,11391,34770
36991,11380,34735
36964,11368,34700
36942,11357,34669
36928,11348,34644
36913,11340,34623
36894,11330,34601
36873,11318,34573
36847,11303,34537
36814,11283,34499
36776,11261,34459
36742,11240,34418
36708,11221,34374
36666,11198,34326
36615,11170,34270
36563,11140,34211
36510,11110,34151
36452,11082,34091
36391,11052,34029
36338,11021,33968
36291,10993,33905
36240,10964,33837
36187,10938,33769
36144,10919,33707
36111,10905,33654
36083,10893,33612
36065,10887,33583
36066,10890,33577
36094,10906,33605
36154,10935,33671
36248,10983,33777
36382,11050,33928
36549,11135,34119
36739,11235,34344
36955,11350,34596
37198,11477,34873
37454,11615,35173
37717,11756,35488
37990,11900,35808
38270,12046,36133
38546,12192,36457
38813,12334,36775
39071,12470,37080
39314,12598,37367
39531,12716,37629
39721,12821,37866
39891,12912,38081
40040,12989,38268
40164,13053,38426
40259,13103,38557
40335,13141,38660
40394,13168,38739
40429,13181,38793
40442,13181,38818
40441,13173,38817
40430,13162,38797
40407,13147,38765
40374,13129,38724
40343,13111,38679
40312,13096,38634
40274,13078,38587
40233,13059,38539
40193,13041,38489
40157,13022,38439
40123,13002,38389
40086,12981,38340
40048,12961,38291
40007,12940,38243
39955,12914,38195
39897,12886,38142
39845,12861,38087
39790,12836,38033
39725,12804,37972
39659,12766,37903
39597,12729,37833
39538,12694,37767
39480,12660,37705
39429,12629,37645
39386,12605,37591
39349,12587,37544
39315,12571,37500
39290,12562,37460
39277,12560,37426
39265,12563,37401
39250,12566,37384
39240,12568,37370
39238,12568,37364
39238,12569,37367
39237,12570,37375
39242,12576,37385
39254,12585,37402
39263,12592,37423
39271,12598,37444
39284,12606,37465
39300,12616,37486
39308,12621,37500
39308,12617,37506
39312,12609,37509
39320,12602,37512
39322,12597,37512
39315,12589,37505
39301,12577,37490
39280,12564,37467
39248,12547,37432
39209,12527,37390
39169,12506,37345
39125,12485,37300
39070,12463,37250
39010,12439,37191
38954,12415,37127
38897,12388,37060
38836,12357,36991
38777,12325,36920
38721,12292,36848
38662,12256,36773
38595,12214,36688
38526,12168,36599
38461,12124,36511
38398,12084,36428
38332,12048,36349
38268,12013,36269
38211,11982,36195
38154,11952,36126
38091,11924,36058
38029,11894,35987
37969,11863,35918
37905,11831,35851
37838,11797,35784
37778,11764,35715
37727,11732,35646
37677,11700,35579
37622,11670,35511
37572,11645,35444
37532,11626,35386
37497,11611,35336
37460,11594,35289
37424,11575,35241
37389,11554,35197
37351,11534,35155
37309,11515,35108
37270,11496,35058
37235,11478,35010
37195,11457,34965
37153,11436,34924
37118,11418,34887
37091,11404,34852
37064,11391,34817
37038,11378,34782
37019,11368,34750
37002,11360,34723
36985,11353,34699
36966,11345,34673
36948,11337,34646
36925,11326,34619
36893,11310,34587
36857,11287,34550
36821,11264,34511
36783,11243,34473
36739,11224,34434
36701,11207,34396
36673,11191,34361
36643,11176,34327
36605,11161,34291
36570,11147,34254
36542,11132,34215
36510,11115,34172
36467,11093,34123
36422,11071,34069
36378,11051,34016
36334,11029,33965
36291,11007,33914
36256,10986,33863
36224,10965,33813
36189,10944,33765
36152,10923,33717
36119,10903,33671
36083,10886,33624
36037,10866,33573
35980,10841,33518
35924,10811,33458
35866,10782,33395
35797,10750,33327
35718,10714,33252
35638,10675,33175
35563,10636,33101
35494,10600,33028
35436,10574,32961
35398,10561,32917
35391,10566,32909
35422,10587,32942
35504,10632,33025
35647,10707,33170
35844,10808,33376
36080,10929,33631
36351,11064,33925
36651,11213,34249
36964,11372,34592
37277,11535,34946
37584,11697,35302
37883,11854,35654
38169,12004,35995
38436,12143,36319
38686,12273,36623
38922,12396,36910
39141,12511,37180
39334,12614,37428
39504,12700,37647
39656,12774,37839
39784,12840,38006
39885,12895,38143
39964,12937,38251
40019,12965,38331
40048,12981,38387
40056,12986,38418
40052,12980,38423
40038,12970,38412
40013,12955,38383
39978,12936,38338
39942,12915,38283
39906,12895,38225
39862,12873,38168
39808,12849,38107
39756,12824,38046
39707,12798,37989
39656,12769,37937
39603,12739,37884
39550,12712,37829
39497,12688,37773
39440,12662,37715
39385,12633,37651
39342,12605,37583
39306,12579,37516
39266,12554,37451
39220,12530,37390
39174,12508,37334
39127,12485,37283
39079,12460,37233
39037,12435,37180
38999,12411,37129
38959,12388,37083
38914,12366,37042
38869,12345,37005
38835,12328,36978
38813,12316,36961
38797,12308,36953
38789,12303,36949
38795,12303,36953
38810,12309,36965
38829,12319,36982
38852,12334,37003
38881,12355,37030
38909,12377,37060
38929,12397,37091
38951,12420,37121
38976,12444,37148
38996,12465,37173
39007,12482,37194
39014,12493,37210
39021,12497,37225
39017,12493,37231
39002,12482,37222
38981,12469,37201
38959,12454,37175
38929,12433,37144
38896,12409,37108
38865,12386,37069
38830,12364,37026
38786,12338,36976
38737,12311,36923
38687,12287,36867
38636,12263,36810
38580,12236,36747
38519,12204,36675
38459,12173,36600
38398,12144,36526
38332,12112,36448
38261,12077,36363
38193,12041,36277
38123,12003,36196
38045,11962,36111
37964,11920,36016
37889,11878,35921
37818,11836,35833
37747,11792,35752
37680,11753,35673
37620,11721,35597
37560,11690,35523
37496,11659,35450
37431,11628,35379
37365,11597,35310
37298,11564,35242
37234,11531,35176
37179,11502,35113
37130,11475,35056
37078,11445,34999
37025,11416,34943
36982,11388,34888
36949,11362,34838
36916,11338,34790
36879,11317,34741
36846,11297,34690
36815,11277,34642
36778,11257,34598
36739,11234,34560
36704,11213,34525
36670,11195,34490
36634,11179,34450
36599,11161,34405
36573,11145,34355
36552,11133,34308
36527,11122,34266
36499,11107,34227
36475,11093,34194
36454,11081,34166
36427,11069,34139
36399,11055,34111
36373,11045,34082
36343,11035,34052
36302,11021,34021
36260,11004,33988
36221,10989,33956
36181,10973,33921
36134,10952,33879
36083,10925,33829
36035,10897,33777
35990,10873,33728
35948,10852,33684
35912,10832,33640
35885,10814,33597
35857,10797,33553
35821,10779,33505
35781,10758,33453
35740,10738,33398
35697,10716,33342
35648,10690,33282
35601,10663,33222
35556,10638,33163
35505,10614,33102
35446,10586,33039
35388,10555,32975
35333,10526,32912
35275,10498,32847
35211,10468,32779
35151,10437,32709
35090,10406,32639
35024,10375,32572
34962,10348,32511
34916,10329,32461
34888,10318,32434
34884,10319,32439
34919,10339,32481
35008,10387,32574
35153,10465,32725
35343,10568,32933
35575,10691,33190
35848,10832,33489
36146,10987,33821
36458,11149,34174
36773,11314,34537
37087,11482,34902
37393,11646,35264
37681,11798,35609
37952,11939,35933
38203,12074,36239
38429,12200,36525
38630,12313,36782
38807,12410,37009
38961,12492,37208
39090,12558,37378
39193,12608,37519
39278,12646,37633
39353,12677,37727
39409,12695,37799
39444,12702,37846
39466,12705,37870
39476,12706,37875
39467,12699,37863
39442,12685,37835
39413,12671,37793
39377,12656,37741
39327,12635,37681
39262,12603,37617
39191,12568,37555
39119,12534,37491
39046,12497,37423
38976,12459,37351
38915,12425,37281
38863,12397,37217
38811,12369,37153
38759,12340,37089
38714,12314,37024
38674,12291,36958
38628,12268,36892
38577,12245,36827
38531,12223,36767
38492,12204,36712
38449,12185,36659
38404,12165,36606
38365,12146,36558
38334,12132,36517
38306,12123,36479
38284,12117,36446
38274,12113,36422
38277,12110,36412
38284,12107,36411
38294,12107,36415
38312,12114,36427
38337,12129,36445
38360,12145,36464
38382,12162,36486
38404,12180,36512
38424,12197,36542
38439,12208,36573
38457,12216,36601
38480,12225,36625
38502,12234,36648
38520,12239,36667
38541,12241,36684
38565,12244,36700
38583,12249,36712
38593,12252,36718
38598,12256,36721
38598,12260,36721
38589,12262,36716
38570,12258,36705
38546,12248,36684
38515,12235,36654
38472,12217,36613
38424,12195,36560
38375,12169,36501
38325,12144,36439
38271,12117,36373
38215,12088,36304
38161,12059,36237
38109,12027,36171
38049,11990,36103
37982,11951,36028
37914,11915,35951
37844,11879,35874
37768,11837,35796
37690,11793,35715
37618,11751,35632
37551,11712,35551
37484,11676,35471
37417,11643,35388
37357,11615,35310
37301,11592,35239
37243,11569,35171
37188,11544,35102
37141,11518,35037
37093,11492,34978
37040,11462,34919
36989,11428,34857
36942,11393,34791
36892,11359,34725
36839,11324,34658
36789,11291,34592
36748,11266,34533
36710,11246,34483
36673,11229,34437
36642,11215,34397
36615,11204,34365
36587,11192,34338
36554,11177,34311
36520,11162,34280
36489,11147,34248
36459,11129,34217
36430,11110,34185
36406,11095,34151
36387,11085,34119
36367,11075,34092
36345,11066,34066
36329,11060,34041
36318,11055,34017
36304,11050,33995
36286,11044,33972
36269,11038,33951
36252,11031,33933
36228,11020,33913
36203,11007,33887
36186,10995,33857
36171,10984,33828
36147,10974,33797
36115,10965,33764
36084,10957,33731
36054,10950,33699
36021,10942,33665
35987,10930,33627
35956,10915,33586
35925,10897,33544
35888,10876,33499
35850,10855,33450
35810,10833,33399
35765,10809,33347
35713,10781,33289
35659,10752,33220
35608,10722,33147
35557,10689,33075
35508,10657,33005
35466,10629,32940
35436,10608,32887
35416,10595,32853
35412,10593,32847
35439,10608,32881
35506,10645,32961
35612,10704,33089
35762,10785,33265
35958,10886,33489
36192,11008,33756
36451,11144,34058
36727,11288,34380
37016,11440,34715
37310,11595,35055
37599,11749,35395
37878,11898,35727
38152,12043,36048
38418,12180,36354
38665,12305,36640
38889,12418,36903
39094,12521,37144
39278,12616,37365
39434,12700,37561
39564,12772,37729
39677,12835,37873
39773,12888,37996
39846,12928,38093
39894,12954,38161
39928,12971,38203
39952,12979,38225
39964,12979,38232
39967,12975,38227
39966,12973,38214
39954,12970,38193
39927,12960,38161
39890,12943,38117
39849,12920,38067
39801,12893,38016
39745,12861,37966
39688,12830,37914
39632,12801,37862
39577,12774,37811
39522,12744,37756
39469,12715,37698
39421,12688,37639
39371,12659,37577
39316,12627,37505
39266,12593,37428
39221,12559,37350
39171,12522,37273
39118,12485,37196
39066,12452,37122
39019,12425,37052
38976,12400,36992
38933,12375,36941
38899,12357,36900
38873,12347,36870
38849,12342,36853
38826,12340,36845
38814,12338,36840
38815,12338,36839
38823,12340,36844
38836,12343,36852
38861,12352,36868
38890,12364,36889
38914,12372,36907
38936,12375,36922
38959,12379,36938
38979,12383,36956
38990,12386,36972
39000,12392,36986
39012,12402,37000
39020,12412,37015
39020,12416,37025
39010,12414,37026
39002,12409,37021
38996,12400,37010
38981,12387,36989
38956,12371,36957
38923,12355,36916
38877,12339,36864
38821,12321,36799
38763,12297,36725
38707,12270,36648
38648,12237,36570
38586,12201,36489
38525,12165,36410
38465,12132,36334
38400,12098,36261
38327,12060,36184
38252,12021,36102
38177,11982,36017
38099,11940,35928
38017,11895,35834
37936,11846,35737
37854,11794,35640
37765,11741,35540
37669,11688,35438
37574,11636,35332
37484,11586,35229
37395,11539,35129
37308,11493,35035
37229,11452,34947
37159,11417,34866
37096,11382,34787
