green_channel,red_channel,ir_channel
29344,59796,37882
29299,59761,37836
29257,59725,37791
29216,59690,37749
29175,59658,37706
29131,59627,37658
29086,59595,37608
29043,59563,37559
28997,59530,37509
28950,59497,37455
28903,59467,37402
28854,59433,37348
28802,59394,37291
28748,59355,37229
28696,59317,37170
28644,59280,37119
28594,59245,37075
28548,59214,37036
28504,59187,36998
28464,59164,36960
28427,59143,36921
28390,59122,36880
28351,59101,36839
28308,59077,36800
28266,59051,36764
28228,59026,36730
28192,59004,36696
28155,58984,36658
28120,58964,36614
28092,58945,36570
28073,58926,36529
28057,58908,36494
28041,58888,36464
28024,58865,36436
28004,58842,36408
27980,58816,36374
27951,58788,36333
27918,58760,36286
27882,58736,36242
27843,58712,36199
27806,58689,36154
27775,58670,36110
27747,58652,36069
27716,58630,36023
27683,58602,35969
27649,58572,35910
27610,58541,35852
27568,58510,35797
27528,58481,35742
27492,58454,35687
27457,58429,35636
27423,58406,35589
27394,58387,35543
27368,58370,35501
27339,58350,35461
27302,58321,35416
27262,58288,35364
27223,58256,35313
27185,58227,35260
27149,58200,35206
27117,58178,35152
27090,58155,35102
27066,58129,35058
27045,58101,35019
27030,58079,34987
27022,58066,34969
27022,58063,34968
27031,58067,34986
27051,58082,35026
27082,58109,35089
27122,58150,35173
27175,58206,35279
27243,58275,35406
27327,58356,35553
27422,58444,35713
27522,58531,35878
27622,58617,36042
27719,58703,36208
27813,58784,36376
27904,58860,36538
27991,58930,36689
28071,58993,36829
28142,59047,36951
28201,59091,37053
28250,59127,37137
28289,59154,37205
28316,59171,37256
28333,59178,37291
28345,59181,37315
28353,59184,37334
28355,59187,37348
28353,59187,37359
28353,59187,37370
28355,59188,37381
28357,59189,37386
28358,59191,37387
28358,59196,37388
28359,59201,37388
28362,59209,37392
28370,59216,37403
28380,59222,37421
28390,59227,37449
28401,59232,37479
28417,59239,37508
28434,59245,37535
28446,59250,37556
28455,59250,37568
28458,59243,37571
28456,59233,37570
28447,59223,37565
28436,59213,37557
28429,59206,37548
28424,59199,37540
28418,59188,37531
28414,59176,37517
28413,59166,37499
28410,59157,37481
28404,59149,37464
28398,59143,37450
28394,59138,37441
28396,59133,37441
28403,59130,37446
28412,59128,37450
28425,59130,37457
28435,59133,37466
28438,59131,37472
28436,59124,37471
28433,59117,37468
28430,59112,37469
28427,59107,37475
28426,59103,37481
28426,59102,37480
28425,59103,37475
28422,59101,37466
28415,59095,37450
28405,59083,37427
28390,59064,37400
28369,59036,37365
28345,59004,37324
28318,58976,37284
28288,58952,37249
28257,58929,37214
28232,58907,37182
28213,58887,37152
28194,58866,37122
28171,58842,37084
28145,58813,37038
28117,58783,36991
28085,58752,36945
28050,58723,36901
28018,58699,36857
27990,58675,36813
27961,58648,36770
27931,58616,36723
27904,58585,36673
27877,58556,36627
27847,58526,36582
27814,58494,36534
27780,58463,36484
27743,58432,36436
27703,58403,36392
27662,58376,36350
27624,58352,36310
27589,58329,36273
27556,58306,36237
27525,58284,36200
27497,58264,36166
27467,58245,36135
27434,58223,36102
27400,58199,36064
27365,58175,36027
27332,58153,35990
27304,58134,35954
27278,58120,35920
27254,58109,35889
27227,58094,35859
27195,58071,35825
27161,58043,35786
27128,58015,35748
27094,57988,35712
27059,57960,35677
27027,57935,35640
26997,57913,35603
26967,57888,35564
26936,57856,35521
26905,57824,35475
26874,57797,35429
26841,57771,35383
26807,57742,35333
26771,57710,35282
26738,57680,35236
26707,57655,35196
26679,57633,35156
26658,57618,35116
26639,57610,35080
26617,57599,35042
26591,57584,34998
26565,57570,34955
26538,57557,34916
26506,57542,34881
26473,57522,34845
26444,57503,34808
26418,57485,34773
26390,57464,34734
26358,57432,34686
26323,57394,34632
26288,57353,34577
26250,57312,34522
26209,57272,34469
26166,57238,34417
26128,57212,34367
26095,57190,34316
26067,57171,34266
26044,57154,34217
26017,57134,34169
25988,57111,34127
25965,57092,34096
25951,57083,34085
25947,57084,34098
25956,57099,34132
25982,57125,34188
26020,57163,34265
26068,57210,34362
26126,57266,34474
26197,57335,34602
26281,57416,34755
26373,57505,34929
26471,57597,35115
26575,57690,35306
26680,57782,35498
26782,57870,35681
26875,57949,35850
26963,58021,36007
27044,58086,36153
27115,58144,36283
27177,58194,36394
27230,58239,36489
27275,58278,36572
27313,58309,36645
27350,58335,36705
27388,58358,36759
27424,58382,36809
27453,58401,36852
27475,58414,36885
27493,58425,36913
27508,58439,36941
27523,58456,36969
27540,58476,36995
27559,58497,37022
27579,58518,37054
27597,58535,37087
27616,58548,37120
27631,58558,37157
27641,58564,37193
27647,58566,37225
27650,58566,37252
27653,58565,37279
27656,58564,37309
27659,58564,37338
27665,58568,37363
27672,58575,37387
27679,58585,37410
27687,58594,37430
27689,58599,37441
27685,58596,37447
27674,58586,37447
27664,58572,37445
27657,58561,37445
27657,58555,37449
27658,58554,37455
27660,58556,37459
27663,58561,37459
27665,58566,37460
27662,58569,37460
27654,58568,37458
27643,58565,37456
27632,58564,37461
27624,58566,37468
27620,58570,37474
27623,58576,37480
27629,58582,37489
27633,58584,37496
27634,58578,37494
27632,58569,37486
27627,58555,37473
27617,58535,37454
27607,58515,37431
27599,58500,37413
27592,58485,37403
27585,58471,37397
27578,58459,37390
27571,58447,37382
27563,58434,37373
27553,58415,37355
27539,58394,37324
27522,58371,37286
27502,58344,37244
27480,58315,37199
27455,58287,37154
27430,58262,37111
27407,58237,37069
27385,58213,37025
27364,58192,36981
27344,58175,36938
27322,58156,36896
27298,58135,36852
27271,58110,36806
27240,58082,36761
27205,58053,36719
27171,58025,36678
27138,58000,36641
27104,57978,36611
27072,57955,36585
27041,57928,36555
27010,57901,36524
26974,57875,36494
26933,57848,36458
26895,57822,36414
26860,57799,36367
26822,57772,36317
26782,57743,36265
26739,57713,36212
26694,57682,36160
26647,57650,36111
26600,57619,36067
26560,57592,36026
26528,57573,35990
26499,57558,35958
26471,57546,35926
26445,57532,35895
26423,57519,35867
26400,57508,35839
26369,57492,35811
26332,57471,35784
26295,57449,35757
26255,57429,35726
26210,57406,35693
26162,57380,35660
26116,57355,35627
26072,57332,35593
26030,57310,35555
25989,57289,35515
25950,57270,35477
25909,57248,35440
25866,57222,35400
25819,57191,35356
25770,57159,35313
25717,57124,35269
25663,57088,35227
25611,57056,35187
25564,57029,35149
25522,57004,35110
25479,56977,35065
25436,56950,35016
25388,56920,34965
25332,56888,34912
25270,56855,34858
25205,56826,34804
25141,56799,34751
25076,56771,34699
25015,56746,34647
24962,56726,34595
24911,56707,34544
24860,56684,34490
24808,56656,34431
24759,56624,34373
24708,56591,34320
24654,56555,34265
24599,56519,34210
24547,56489,34164
24504,56467,34133
24473,56455,34117
24454,56451,34119
24444,56457,34141
24447,56472,34182
24462,56495,34239
24491,56528,34314
24534,56575,34413
24587,56636,34538
24649,56710,34680
24719,56796,34836
24797,56892,35004
24882,56993,35180
24972,57093,35357
25067,57190,35531
25161,57281,35700
25245,57363,35857
25317,57432,35996
25379,57492,36115
25431,57541,36220
25474,57580,36313
25507,57607,36392
25535,57627,36458
25555,57643,36514
25568,57655,36563
25574,57661,36602
25580,57663,36629
25581,57661,36650
25575,57657,36664
25565,57655,36669
25554,57655,36668
25545,57660,36671
25538,57670,36682
25539,57683,36697
25547,57699,36719
25559,57720,36749
25569,57740,36783
25579,57759,36817
25590,57781,36855
25603,57806,36900
25612,57827,36947
25621,57845,36989
25631,57859,37025
25638,57870,37057
25643,57880,37086
25645,57891,37111
25646,57903,37132
25642,57912,37148
25631,57917,37156
25616,57917,37153
25598,57914,37145
25579,57905,37133
25559,57892,37116
25538,57879,37097
25516,57865,37077
25491,57848,37056
25463,57827,37031
25438,57807,37010
25420,57797,36998
25406,57793,36994
25398,57797,36998
25398,57807,37006
25401,57820,37018
25406,57832,37031
25408,57840,37041
25405,57842,37047
25400,57841,37053
25390,57838,37057
25375,57836,37058
25359,57835,37061
25345,57834,37067
25333,57833,37071
25321,57829,37070
25307,57821,37062
25292,57808,37049
25273,57789,37029
25254,57768,37004
25237,57747,36979
25217,57724,36951
25195,57699,36915
25171,57674,36870
25143,57650,36819
25108,57625,36767
25068,57598,36711
25029,57570,36653
24990,57541,36596
24949,57511,36547
24909,57482,36504
24872,57454,36464
24843,57431,36428
24818,57413,36395
24796,57395,36360
24779,57377,36325
24763,57360,36288
24741,57340,36246
24709,57313,36199
24673,57285,36150
24639,57260,36108
24608,57241,36075
24582,57225,36046
24562,57210,36017
24545,57196,35987
24525,57178,35954
24502,57153,35912
24477,57123,35864
24454,57094,35818
24428,57069,35776
24402,57045,35736
24379,57024,35698
24361,57006,35668
24345,56992,35643
24328,56979,35615
24308,56966,35582
24284,56950,35549
24252,56931,35515
24217,56910,35482
24185,56891,35452
24159,56878,35432
24137,56869,35421
24117,56860,35409
24097,56851,35394
24074,56840,35375
24047,56827,35351
24020,56812,35317
23993,56798,35278
23964,56783,35237
23934,56765,35197
23906,56746,35160
23884,56726,35128
23863,56705,35095
23840,56681,35057
23813,56654,35013
23783,56627,34968
23747,56598,34921
23711,56568,34873
23678,56539,34825
23648,56511,34779
23619,56485,34739
23588,56461,34702
23558,56437,34665
23527,56415,34628
23491,56390,34589
23453,56360,34544
23414,56328,34490
23377,56295,34435
23342,56263,34383
23309,56233,34334
23283,56208,34291
23266,56189,34260
23257,56177,34241
23256,56174,34233
23265,56179,34237
23281,56192,34259
23302,56212,34300
23332,56240,34362
23376,56278,34448
23435,56329,34558
23504,56390,34685
23583,56460,34823
23674,56538,34972
23771,56615,35128
23865,56690,35287
23954,56762,35448
24040,56831,35608
24126,56898,35764
24210,56961,35914
24293,57020,36055
24371,57076,36184
24442,57127,36297
24503,57171,36390
24555,57209,36463
24599,57246,36524
24635,57279,36578
24664,57309,36623
24686,57336,36658
24704,57362,36688
24717,57385,36715
24729,57400,36738
24743,57412,36755
24756,57422,36768
24764,57428,36778
24767,57431,36785
24770,57432,36791
24774,57434,36804
24779,57438,36828
24787,57447,36857
24801,57461,36888
24818,57478,36922
24833,57493,36957
24847,57504,36988
24860,57510,37012
24868,57514,37031
24869,57514,37044
24863,57511,37050
24857,57507,37052
24850,57504,37054
24842,57500,37053
24832,57496,37045
24824,57491,37034
24816,57486,37025
24809,57482,37017
24802,57480,37007
24798,57478,36999
24795,57475,36995
24790,57470,36993
24786,57467,36992
24786,57470,36996
24790,57479,37009
24798,57488,37026
24809,57499,37044
24821,57512,37063
24831,57522,37079
24838,57527,37089
24847,57531,37096
24857,57537,37104
24863,57541,37114
24861,57541,37120
24852,57540,37123
24839,57536,37122
24823,57528,37119
24804,57516,37108
24788,57506,37092
24774,57495,37073
24758,57483,37049
24741,57466,37019
24720,57443,36982
24695,57418,36940
24667,57390,36894
24639,57362,36841
24613,57334,36787
24592,57307,36741
24572,57284,36702
24553,57263,36666
24535,57246,36628
24517,57228,36589
24496,57207,36552
24474,57183,36515
24453,57162,36472
24431,57142,36427
24408,57124,36382
24386,57104,36339
24363,57083,36297
24338,57061,36260
24313,57038,36224
24290,57012,36186
24269,56986,36149
24246,56957,36111
24221,56927,36068
24194,56895,36019
24165,56862,35971
24134,56830,35926
24102,56801,35885
24071,56776,35847
24044,56756,35813
24020,56739,35782
23998,56723,35754
23980,56708,35725
23964,56695,35698
23946,56682,35671
23924,56666,35639
23902,56645,35602
23881,56625,35567
23859,56605,35536
23834,56584,35509
23813,56567,35482
23793,56556,35455
23770,56546,35427
23744,56532,35398
23721,56516,35367
23701,56500,35337
23679,56484,35310
23655,56466,35283
23631,56448,35254
23605,56430,35227
23579,56410,35199
23551,56388,35164
23522,56364,35125
23490,56335,35085
23455,56303,35037
23419,56269,34982
23381,56235,34927
23341,56203,34876
23303,56179,34828
23271,56159,34781
23242,56141,34738
23213,56123,34701
23183,56103,34667
23156,56085,34632
23132,56066,34596
23104,56044,34557
23070,56017,34512
23031,55986,34464
22993,55954,34416
22955,55924,34376
22920,55895,34344
22894,55873,34320
22877,55862,34309
22870,55865,34316
22874,55878,34336
22888,55899,34370
22912,55929,34425
22946,55968,34500
22991,56012,34595
23047,56062,34710
23120,56122,34847
23208,56194,35005
23307,56277,35176
23415,56368,35359
23528,56464,35550
23643,56561,35742
23755,56656,35932
23859,56747,36112
23953,56832,36281
24035,56906,36436
24109,56969,36576
24177,57027,36704
24240,57082,36820
24293,57130,36922
24337,57172,37006
24375,57207,37076
24408,57236,37136
24435,57260,37187
24458,57279,37226
24476,57290,37255
24488,57294,37280
24494,57293,37301
24497,57290,37318
24499,57290,37337
24499,57293,37361
24499,57300,37391
24504,57309,37428
24514,57319,37472
24527,57330,37519
24540,57341,37565
24557,57354,37612
24577,57369,37664
24598,57386,37719
24620,57403,37773
24644,57421,37827
24673,57443,37881
24701,57466,37934
24726,57485,37979
24749,57497,38011
24763,57502,38033
24763,57497,38043
24749,57484,38039
24731,57465,38023
24712,57444,38007
24694,57419,37993
24678,57391,37981
24664,57364,37972
24655,57341,37966
24649,57321,37963
24644,57303,37958
24643,57288,37951
24641,57274,37944
24636,57255,37934
24626,57232,37922
24613,57212,37910
24598,57194,37902
24578,57175,37896
24558,57161,37893
24543,57154,37896
24531,57146,37900
24513,57134,37899
24487,57114,37891
24455,57091,37880
24421,57068,37871
24385,57046,37860
24351,57025,37846
24318,57003,37829
24283,56979,37811
24246,56955,37788
24207,56928,37760
24170,56900,37730
24133,56871,37696
24098,56841,37655
24062,56808,37607
24023,56776,37557
23979,56741,37507
23930,56701,37454
23879,56660,37399
23830,56618,37346
23779,56575,37297
23730,56531,37249
23684,56494,37203
23640,56465,37162
23594,56438,37121
23545,56410,37078
23497,56384,37033
23447,56357,36989
23396,56325,36944
23349,56291,36898
23310,56258,36855
23274,56228,36820
23240,56202,36789
23206,56180,36757
23171,56161,36722
23135,56141,36686
23100,56119,36647
23066,56090,36600
23031,56058,36549
22993,56027,36501
22948,55997,36456
22902,55969,36416
22860,55948,36381
22822,55931,36351
22787,55915,36323
22758,55902,36293
22734,55892,36261
22708,55879,36227
22680,55861,36186
22649,55836,36140
22617,55809,36092
22581,55779,36048
22542,55747,36005
22505,55719,35966
22472,55697,35931
22441,55681,35900
22412,55665,35871
22386,55650,35841
22361,55632,35811
22330,55610,35778
22295,55586,35743
22262,55559,35704
22232,55535,35667
22202,55512,35634
22173,55489,35599
22146,55468,35562
22114,55445,35523
22075,55416,35479
22030,55385,35427
21983,55353,35373
21935,55320,35324
21888,55290,35279
21842,55262,35237
21798,55237,35196
21755,55213,35151
21710,55188,35100
21665,55159,35044
21623,55130,34987
21582,55100,34934
21541,55067,34879
21502,55034,34823
21466,55001,34771
21430,54966,34722
21390,54929,34671
21345,54892,34621
21301,54860,34578
21260,54834,34548
21226,54818,34531
21206,54814,34533
21203,54825,34557
21215,54848,34605
21240,54880,34674
21280,54921,34765
21336,54974,34880
21403,55038,35018
21481,55111,35173
21572,55192,35344
21674,55281,35526
21780,55374,35715
21885,55466,35906
21988,55555,36093
22084,55638,36273
22167,55711,36437
22239,55772,36579
22305,55826,36701
22363,55873,36808
22409,55913,36902
22446,55948,36984
22479,55979,37055
22507,56008,37115
22528,56034,37166
22543,56054,37208
22551,56064,37240
22552,56066,37268
22547,56062,37292
22542,56058,37312
22543,56060,37335
22546,56068,37365
22550,56079,37397
22558,56091,37427
22568,56105,37459
22580,56122,37497
22589,56139,37539
22595,56153,37579
22601,56169,37621
22608,56187,37666
22615,56206,37710
22624,56226,37751
22635,56244,37790
22642,56257,37827
22647,56268,37856
22648,56275,37874
22643,56280,37884
22632,56277,37887
22616,56266,37881
22597,56253,37869
22577,56243,37858
22555,56234,37848
22527,56219,37835
22498,56202,37820
22469,56186,37804
22438,56172,37786
22407,56158,37765
22384,56145,37744
22369,56137,37729
22359,56134,37723
22349,56134,37721
22344,56139,37724
22344,56145,37729
22341,56149,37733
22332,56146,37729
22316,56138,37719
22292,56126,37707
22263,56109,37695
22231,56086,37678
22198,56063,37659
22166,56043,37641
22135,56024,37624
22105,56007,37605
22077,55993,37587
22046,55979,37568
22012,55963,37549
21973,55942,37526
21930,55919,37501
21886,55893,37472
21841,55865,37442
21797,55837,37405
21756,55812,37363
21716,55787,37318
21671,55759,37268
21625,55729,37217
21579,55701,37165
21531,55673,37107
21476,55639,37046
21420,55602,36987
21365,55569,36933
21312,55541,36883
21261,55514,36833
21212,55489,36785
21167,55470,36744
21124,55455,36709
21086,55442,36671
21049,55430,36628
21011,55413,36582
20969,55389,36535
20922,55358,36483
20874,55324,36429
20827,55291,36382
20781,55263,36344
20735,55241,36311
20693,55227,36284
20656,55215,36259
20620,55200,36231
20584,55181,36196
20547,55162,36155
20513,55140,36114
20478,55114,36071
20443,55088,36027
20407,55066,35982
20368,55045,35940
20325,55023,35896
20279,54998,35851
20235,54972,35807
20193,54947,35766
20153,54926,35729
20116,54907,35694
20082,54893,35664
20047,54883,35634
20010,54873,35601
19974,54863,35563
19939,54853,35528
19902,54842,35497
19864,54828,35467
19829,54816,35440
19801,54808,35420
19774,54800,35401
19745,54783,35377
19712,54760,35342
19673,54732,35299
19626,54701,35249
19577,54665,35192
19530,54629,35132
19489,54597,35078
19452,54567,35027
19416,54535,34974
19381,54503,34917
19347,54473,34859
19312,54446,34801
19277,54422,34741
19240,54399,34679
19200,54379,34622
19154,54358,34569
19106,54332,34517
19060,54307,34468
19018,54283,34423
18977,54258,34381
18937,54234,34337
18899,54215,34294
18860,54197,34253
18819,54175,34208
18776,54146,34155
18730,54113,34100
18682,54077,34046
18635,54041,33996
18594,54008,33950
18563,53984,33914
18543,53970,33897
18537,53967,33904
18547,53977,33937
18572,54001,33997
18613,54040,34083
18668,54093,34187
18739,54158,34307
18826,54235,34451
18923,54322,34616
19027,54416,34797
19137,54514,34988
19252,54614,35185
19369,54713,35383
19486,54810,35573
19600,54906,35757
19707,54998,35934
19801,55080,36093
19879,55148,36226
19941,55202,36333
19993,55248,36424
20037,55285,36504
20076,55315,36573
20113,55340,36629
20146,55363,36676
20176,55385,36716
20206,55405,36748
20236,55428,36776
20262,55450,36803
20284,55467,36830
20304,55480,36851
20327,55492,36869
20349,55502,36890
20370,55510,36916
20393,55521,36944
20421,55533,36978
20449,55550,37021
20480,55572,37073
20516,55601,37128
20556,55634,37182
20595,55663,37235
20628,55686,37285
20657,55702,37330
20683,55715,37370
20702,55726,37408
20716,55736,37443
20729,55742,37471
20740,55748,37493
20748,55752,37507
20750,55755,37511
20751,55757,37508
20754,55757,37499
20754,55755,37489
20751,55748,37475
20746,55737,37459
20743,55725,37445
20740,55715,37435
20737,55709,37428
20738,55706,37426
20747,55710,37435
20762,55718,37454
20779,55729,37477
20797,55742,37502
20814,55757,37533
20830,55772,37566
20840,55784,37593
20847,55790,37613
20851,55789,37628
20849,55785,37641
20847,55784,37651
20846,55788,37661
20847,55795,37673
20846,55802,37679
20844,55803,37677
20842,55801,37669
20837,55794,37658
20825,55786,37643
20806,55773,37618
20785,55753,37588
20764,55734,37558
20743,55716,37528
20725,55699,37499
20711,55685,37472
20699,55670,37447
20684,55652,37416
20667,55631,37378
20651,55609,37336
20633,55587,37293
20612,55565,37249
20591,55544,37210
20573,55527,37177
20555,55512,37149
20536,55494,37120
20517,55475,37091
20495,55455,37064
20472,55434,37036
20446,55413,37005
20420,55397,36971
20394,55383,36938
20369,55371,36909
20344,55356,36884
20321,55341,36860
20300,55327,36836
20280,55314,36812
20260,55297,36783
20241,55278,36751
20221,55257,36720
20195,55231,36685
20167,55203,36646
20138,55176,36604
20109,55154,36563
20079,55135,36523
20052,55121,36483
20029,55111,36446
20011,55103,36415
19993,55093,36387
19970,55080,36355
19943,55065,36322
19915,55049,36291
19885,55030,36261
19856,55013,36231
19830,54996,36204
19808,54982,36182
19784,54968,36162
19757,54952,36137
19732,54936,36108
19705,54918,36073
19677,54898,36032
19650,54874,35985
19623,54849,35937
19593,54824,35890
19561,54799,35841
19531,54776,35793
19502,54756,35746
19474,54735,35698
19446,54713,35647
19420,54689,35594
19393,54666,35544
19362,54640,35494
19331,54614,35447
19303,54591,35402
19275,54570,35363
19248,54550,35331
19226,54527,35299
19210,54500,35263
19190,54471,35225
19165,54445,35193
19138,54423,35164
19117,54409,35142
19105,54406,35139
19102,54413,35158
19109,54428,35195
19131,54456,35254
19168,54496,35337
19215,54548,35441
19272,54608,35562
19343,54677,35703
19429,54755,35862
19527,54843,36033
19635,54941,36212
19753,55047,36400
19874,55153,36595
19990,55253,36786
20096,55345,36965
20193,55429,37133
20281,55502,37287
20359,55560,37424
20428,55607,37543
20491,55647,37649
20545,55684,37745
20591,55718,37829
20632,55750,37900
20669,55778,37959
20702,55799,38005
20728,55814,38042
20752,55829,38075
20775,55848,38112
20798,55869,38154
20822,55893,38197
20852,55919,38242
20884,55949,38290
20914,55977,38339
20940,56000,38382
20964,56022,38421
20986,56042,38462
21003,56057,38502
21017,56067,38537
21030,56076,38570
21042,56083,38608
21053,56092,38651
21068,56105,38693
21090,56122,38731
21110,56136,38762
21124,56144,38783
21128,56146,38790
21123,56143,38785
21108,56136,38774
21085,56122,38759
21061,56103,38741
21039,56085,38724
21016,56069,38707
20991,56054,38687
20969,56040,38664
20953,56028,38642
20935,56018,38621
20914,56009,38603
20891,56001,38589
20873,55993,38580
20860,55988,38578
20853,55986,38580
20852,55987,38582
20856,55990,38586
20860,55992,38588
20859,55992,38586
20854,55989,38580
20847,55983,38573
20838,55977,38568
20826,55969,38563
20815,55963,38559
20805,55958,38557
20792,55953,38551
20772,55941,38534
20749,55924,38507
20723,55902,38472
20692,55878,38427
20659,55853,38375
20625,55827,38325
20592,55799,38279
20560,55769,38237
20528,55739,38193
20494,55712,38152
20461,55689,38113
20425,55666,38072
20385,55640,38025
20341,55610,37975
20293,55576,37926
20241,55540,37874
20190,55502,37821
20145,55467,37773
20103,55434,37730
20059,55404,37686
20014,55372,37636
19968,55341,37585
19923,55312,37535
19878,55285,37488
19835,55256,37442
19793,55227,37396
19753,55200,37351
19712,55174,37306
19675,55150,37258
19641,55125,37207
19608,55097,37155
19573,55065,37100
19535,55033,37046
19497,55007,36996
19455,54981,36948
19411,54956,36902
19372,54932,36860
19337,54911,36825
19302,54890,36793
19269,54869,36759
19240,54848,36722
19210,54826,36686
19174,54802,36651
19132,54780,36613
19090,54759,36574
19049,54736,36533
19004,54708,36493
18956,54675,36450
18911,54643,36402
18868,54613,36347
18824,54582,36287
18779,54551,36229
18738,54525,36180
18700,54505,36140
18662,54483,36103
18622,54459,36063
18583,54435,36023
18545,54414,35984
18506,54392,35941
18464,54368,35890
18423,54340,35837
18383,54310,35786
18341,54278,35732
18301,54246,35675
18261,54216,35618
18223,54185,35565
18187,54154,35512
18150,54122,35454
18109,54089,35397
18064,54055,35342
18016,54021,35282
17967,53987,35217
17919,53954,35154
17871,53923,35096
17824,53893,35039
17782,53867,34985
17744,53845,34935
17707,53823,34886
17668,53796,34834
17627,53764,34778
17587,53730,34724
17545,53698,34675
17504,53670,34630
17472,53646,34596
17453,53632,34578
17447,53631,34581
17456,53643,34605
17485,53670,34654
17529,53708,34730
17582,53757,34827
17647,53817,34945
17728,53890,35087
17821,53975,35252
17919,54066,35431
18024,54165,35617
18138,54271,35810
18258,54381,36008
18377,54486,36202
18489,54581,36385
18590,54664,36554
18678,54734,36707
18751,54794,36843
18809,54845,36964
18855,54889,37071
18898,54928,37168
18938,54961,37252
18977,54987,37321
19013,55011,37377
19046,55032,37423
19072,55047,37457
19094,55059,37482
19109,55069,37503
19114,55078,37521
19115,55086,37537
19118,55097,37555
19129,55109,37583
19143,55121,37622
19156,55134,37659
19169,55154,37692
19185,55178,37729
19201,55203,37772
19215,55225,37815
19228,55244,37855
19242,55262,37898
19256,55281,37943
19270,55298,37987
19283,55314,38030
19293,55330,38071
19300,55343,38107
19301,55348,38127
19298,55345,38134
19288,55338,38135
19271,55326,38128
19252,55313,38113
19232,55300,38094
19210,55287,38074
19187,55275,38052
19166,55265,38027
19150,55256,38005
19138,55247,37989
19123,55235,37972
19104,55222,37952
19084,55210,37932
19064,55200,37919
19046,55192,37912
19031,55185,37911
19020,55183,37914
19009,55185,37924
19000,55187,37934
18995,55192,37940
18992,55199,37943
18988,55203,37944
18976,55200,37937
18957,55190,37922
18932,55177,37904
18901,55158,37884
18866,55135,37859
18834,55111,37828
18805,55088,37794
18779,55066,37759
18753,55045,37723
18725,55024,37684
18695,55003,37646
18661,54981,37607
18622,54957,37567
18578,54930,37523
18536,54905,37479
18493,54883,37436
18451,54862,37391
18415,54842,37345
18382,54825,37305
18353,54808,37269
18327,54792,37237
18305,54779,37205
18283,54767,37172
18259,54752,37138
18232,54733,37097
18203,54713,37053
18170,54694,37009
18133,54670,36965
18096,54645,36921
18063,54623,36880
18033,54604,36845
18003,54586,36810
17974,54568,36771
17944,54552,36730
17913,54536,36688
17881,54518,36643
17846,54496,36597
17808,54472,36552
17772,54449,36512
17737,54427,36476
17706,54409,36440
17678,54391,36403
17648,54372,36364
17616,54353,36322
17584,54334,36280
17550,54314,36238
17512,54292,36195
17471,54268,36152
17428,54240,36107
17386,54214,36068
17347,54193,36037
17310,54175,36006
17278,54154,35970
17250,54135,35934
17223,54119,35898
17193,54100,35858
17158,54078,35812
17121,54053,35766
17081,54026,35722
17036,53999,35679
16989,53974,35637
16939,53952,35593
16889,53929,35548
16845,53907,35501
16806,53890,35456
16771,53875,35414
16738,53857,35371
16707,53839,35324
16674,53825,35278
16638,53813,35235
16597,53800,35190
16554,53782,35143
16514,53762,35100
16479,53746,35067
16451,53736,35041
16431,53731,35014
16414,53730,34986
16397,53728,34957
16375,53719,34921
16351,53702,34879
16326,53682,34833
16297,53656,34785
16264,53629,34732
16231,53603,34676
16199,53579,34623
16169,53554,34576
16142,53531,34536
16125,53513,34510
16118,53505,34502
16120,53505,34512
16131,53511,34539
16155,53525,34584
16194,53552,34651
16240,53589,34734
16296,53638,34834
16364,53701,34950
16447,53774,35087
16540,53852,35241
16645,53936,35408
16762,54025,35586
16885,54114,35768
17003,54201,35946
17113,54282,36112
17215,54359,36267
17310,54431,36410
17396,54496,36539
17471,54554,36652
17537,54604,36749
17592,54646,36833
17635,54677,36902
17669,54701,36956
17696,54721,37001
17718,54740,37044
17738,54757,37083
17756,54771,37115
17774,54784,37141
17790,54794,37160
17799,54797,37169
17804,54797,37171
17806,54796,37176
17808,54794,37183
17811,54792,37193
17817,54793,37207
17827,54799,37229
17840,54809,37258
17858,54821,37289
17881,54839,37323
17907,54859,37359
17929,54880,37393
17949,54901,37422
17970,54919,37444
17989,54934,37463
18001,54945,37478
18004,54947,37487
18000,54944,37491
17991,54938,37490
17977,54929,37483
17961,54920,37469
17946,54912,37453
17934,54908,37440
17925,54905,37434
17920,54903,37430
17917,54901,37426
17918,54901,37424
17922,54903,37423
17928,54907,37423
17935,54912,37428
17938,54919,37437
17937,54925,37449
17936,54931,37461
17937,54938,37475
17936,54944,37491
17931,54947,37504
17927,54949,37514
17925,54952,37523
17922,54952,37530
17920,54948,37534
17920,54942,37531
17921,54937,37525
17922,54931,37515
17920,54924,37496
17917,54918,37468
17909,54911,37439
17893,54898,37410
17871,54880,37378
17847,54857,37341
17821,54831,37299
17793,54805,37255
17765,54779,37207
17742,54751,37156
17722,54721,37102
17701,54686,37047
17677,54648,36989
17653,54611,36931
17626,54575,36876
17594,54538,36819
17558,54500,36762
17521,54464,36709
17486,54435,36664
17456,54411,36625
17431,54390,36586
17414,54375,36548
17401,54366,36512
17387,54358,36475
17371,54343,36434
17351,54322,36390
17327,54298,36346
17297,54271,36303
17263,54246,36261
17227,54224,36223
17193,54206,36189
17162,54190,36155
17132,54172,36115
17106,54155,36073
17083,54137,36031
17056,54116,35985
17023,54094,35933
16985,54066,35880
16943,54036,35830
16901,54005,35780
16861,53975,35729
16826,53950,35679
16791,53927,35635
16754,53901,35593
16718,53874,35553
16684,53853,35516
16652,53834,35479
16620,53810,35436
16589,53784,35387
16560,53760,35339
16531,53738,35299
16501,53717,35263
16475,53700,35228
16447,53685,35198
16414,53668,35171
16378,53652,35142
16344,53639,35112
16312,53628,35081
16278,53615,35045
16244,53599,35002
16212,53581,34954
16183,53561,34905
16150,53535,34849
16113,53506,34789
16074,53477,34729
16038,53451,34673
15998,53424,34618
15954,53399,34561
15915,53375,34508
15881,53355,34463
15849,53336,34420
15819,53317,34372
15793,53299,34326
15773,53282,34284
15756,53266,34251
15744,53256,34229
15740,53253,34223
15744,53257,34238
15758,53270,34274
15787,53295,34332
15834,53334,34414
15893,53385,34520
15964,53446,34648
16047,53515,34793
16136,53593,34950
16229,53675,35113
16324,53758,35273
16422,53839,35428
16521,53915,35581
16615,53986,35730
16703,54051,35869
16787,54112,35998
16866,54169,36116
16937,54222,36221
17001,54270,36312
17059,54313,36388
17109,54351,36454
17149,54382,36511
17181,54405,36553
17207,54422,36584
17227,54436,36609
17238,54446,36632
17246,54455,36652
17254,54467,36674
17263,54480,36703
17275,54494,36740
17295,54509,36783
17322,54529,36832
17354,54554,36887
17389,54582,36939
17421,54607,36984
17452,54632,37028
17487,54658,37077
17525,54683,37129
17565,54708,37180
17605,54736,37234
17645,54765,37288
17680,54790,37335
17709,54807,37372
17733,54817,37399
17747,54821,37419
17752,54819,37427
17752,54815,37426
17749,54812,37421
17744,54808,37414
17739,54801,37403
17736,54790,37385
17734,54776,37364
17733,54757,37340
17733,54736,37317
17733,54715,37295
17733,54696,37277
17734,54682,37264
17736,54673,37252
17744,54669,37244
17756,54670,37240
17768,54674,37239
17781,54676,37237
17795,54677,37237
17806,54676,37240
17807,54667,37239
17803,54654,37235
17797,54644,37231
17792,54638,37231
17788,54637,37230
17785,54636,37224
17783,54635,37214
17781,54634,37201
17776,54630,37186
17766,54622,37164
17752,54613,37139
17736,54602,37114
17716,54587,37088
17695,54570,37060
17675,54557,37033
17656,54547,37007
17634,54536,36980
17611,54523,36949
17589,54505,36914
17565,54483,36876
17538,54461,36840
17508,54441,36805
17478,54422,36772
17448,54403,36743
17417,54384,36715
17387,54368,36689
17353,54354,36665
17316,54341,36641
17273,54327,36612
17228,54314,36580
17183,54305,36552
17133,54294,36527
17079,54280,36500
17025,54267,36471
16974,54257,36446
16924,54249,36426
16871,54239,36402
16818,54230,36370
16766,54221,36332
16713,54208,36292
16663,54188,36247
16616,54164,36202
16569,54136,36158
16522,54107,36115
16477,54078,36072
16434,54049,36030
16395,54021,35989
16359,53996,35950
16323,53972,35906
16284,53945,35857
16241,53916,35805
16196,53883,35749
16153,53851,35690
16116,53822,35635
16081,53795,35585
16048,53769,35540
16018,53746,35493
15990,53720,35444
15960,53690,35395
15927,53657,35343
15890,53625,35283
15852,53593,35219
15809,53560,35156
15762,53525,35091
15717,53489,35028
15676,53455,34971
15632,53422,34918
15588,53391,34865
15545,53361,34807
15508,53332,34748
15473,53304,34686
15435,53275,34619
15394,53245,34550
15351,53214,34486
15307,53180,34428
15264,53143,34371
15226,53106,34314
15191,53071,34259
15154,53037,34206
15114,53002,34146
15074,52964,34081
15030,52927,34016
14984,52887,33955
14941,52849,33902
14908,52818,33859
14886,52798,33833
14876,52791,33825
14883,52799,33837
14908,52824,33875
14949,52864,33936
15004,52913,34017
15073,52970,34115
15154,53035,34232
15242,53106,34369
15332,53177,34517
15427,53255,34677
15530,53340,34846
15634,53426,35013
15731,53505,35169
15817,53573,35307
15889,53629,35429
15943,53670,35536
15985,53700,35625
16016,53724,35695
16039,53741,35751
16051,53749,35798
16054,53754,35836
16055,53760,35867
16059,53768,35899
16066,53775,35932
16072,53781,35960
16081,53790,35982
16091,53800,36001
16099,53810,36018
16101,53817,36031
16100,53822,36045
16100,53828,36061
16104,53837,36081
16111,53851,36103
16123,53869,36128
16138,53887,36155
16153,53903,36186
16167,53918,36216
16179,53933,36246
16189,53945,36276
16196,53956,36301
16198,53965,36317
16198,53969,36328
16198,53969,36335
16193,53964,36338
16186,53957,36333
16177,53950,36323
16170,53943,36310
16161,53933,36291
16150,53920,36261
16135,53906,36225
16113,53889,36187
16087,53868,36147
16060,53847,36106
16033,53830,36069
16009,53815,36041
15986,53802,36021
15969,53794,36006
15960,53792,35998
15955,53791,35998
15949,53786,35997
15940,53779,35990
15929,53771,35980
15914,53763,35969
15896,53756,35956
15878,53747,35941
15864,53740,35927
15851,53732,35915
15839,53723,35902
15825,53715,35887
15808,53707,35869
15788,53695,35848
15763,53678,35820
15735,53657,35785
15702,53634,35745
15663,53610,35698
15624,53584,35644
15585,53561,35589
15546,53537,35537
15506,53513,35489
15467,53488,35440
15434,53463,35393
15402,53437,35347
15369,53411,35300
15333,53381,35248
15296,53351,35192
15260,53320,35133
15221,53288,35075
15179,53257,35018
15141,53229,34966
15105,53203,34917
15069,53177,34866
15035,53151,34812
15004,53127,34759
14971,53104,34709
14935,53079,34662
14897,53053,34616
14856,53024,34567
14812,52995,34519
14766,52964,34473
14721,52932,34425
14676,52902,34376
14629,52873,34328
14580,52844,34278
14533,52814,34226
14490,52784,34175
14445,52756,34125
14396,52729,34077
14345,52706,34031
14296,52690,33992
14246,52680,33958
14194,52672,33927
14142,52665,33897
14092,52661,33872
14042,52660,33852
13993,52661,33830
13944,52660,33807
13897,52655,33782
13847,52644,33752
13793,52630,33715
13739,52616,33672
13687,52601,33629
13632,52581,33587
13573,52555,33542
13515,52528,33496
13457,52498,33450
13398,52463,33400
13342,52425,33344
13288,52387,33285
13237,52347,33222
13183,52308,33157
13130,52272,33092
13079,52239,33027
13031,52208,32965
12984,52178,32905
12939,52149,32847
12897,52122,32793
12853,52096,32741
12809,52072,32690
12769,52054,32640
12734,52041,32595
12705,52030,32554
12679,52016,32511
12652,52000,32458
12623,51979,32399
12591,51952,32339
12555,51921,32280
12518,51889,32220
12483,51857,32162
12453,51830,32111
12427,51810,32070
12409,51799,32046
12405,51801,32042
12414,51813,32059
12435,51834,32091
12468,51865,32141
12514,51908,32212
12572,51958,32299
12639,52011,32400
12716,52069,32515
12801,52135,32643
12890,52204,32781
12980,52277,32923
13071,52352,33066
13162,52424,33207
13249,52491,33343
13328,52550,33463
13400,52602,33566
13463,52649,33654
13515,52687,33727
13558,52716,33781
13597,52740,33825
13634,52762,33867
13665,52781,33903
13691,52798,33928
13712,52812,33945
13726,52821,33961
13732,52826,33972
13732,52824,33974
13729,52819,33973
13724,52814,33973
13723,52810,33977
13731,52809,33986
13749,52812,34003
13775,52823,34028
13805,52836,34054
13836,52851,34080
13864,52871,34110
13888,52891,34144
13912,52910,34176
13937,52929,34206
13962,52950,34236
13985,52973,34266
14005,52992,34289
14025,53002,34303
14041,53003,34308
14050,52998,34304
14054,52990,34292
14056,52983,34276
14056,52978,34260
14054,52970,34241
14056,52962,34222
14059,52954,34207
14061,52947,34198
14060,52940,34191
14060,52935,34184
14067,52932,34177
14078,52934,34172
14090,52937,34168
14102,52942,34167
14114,52951,34169
14128,52961,34178
14146,52971,34190
14168,52984,34202
14192,52998,34212
14213,53009,34223
14226,53013,34229
14235,53012,34231
14244,53010,34231
14253,53007,34232
14260,53005,34232
14267,53004,34226
14278,53004,34219
14289,52999,34207
14299,52987,34187
14307,52969,34158
14313,52947,34123
14317,52923,34087
14314,52896,34047
14310,52868,34005
14306,52844,33962
14301,52825,33923
14297,52806,33882
14295,52783,33839
14290,52757,33796
14281,52730,33753
14271,52702,33706
14263,52675,33656
14254,52653,33606
14244,52631,33560
14236,52610,33517
14231,52590,33478
14229,52571,33443
14226,52550,33409
14223,52526,33375
14219,52507,33341
14216,52490,33309
14210,52472,33276
14205,52459,33248
14201,52451,33229
14197,52446,33214
14192,52441,33199
14186,52436,33179
14183,52436,33158
14178,52434,33136
14167,52425,33112
14152,52412,33085
14135,52399,33059
14116,52387,33034
14098,52377,33009
14083,52370,32982
14069,52363,32957
14056,52357,32936
14040,52351,32912
14022,52343,32884
14003,52334,32858
13981,52321,32835
13957,52307,32813
13932,52290,32790
13907,52274,32768
13880,52257,32746
13852,52241,32721
13826,52229,32696
13802,52219,32675
13780,52211,32653
13756,52205,32624
13733,52199,32590
13713,52192,32558
13694,52183,32525
13673,52172,32490
13653,52160,32456
13631,52148,32428
13606,52135,32403
13580,52120,32378
13556,52104,32350
13535,52087,32323
13514,52068,32296
13499,52051,32271
13488,52038,32250
13483,52030,32236
13485,52029,32229
13498,52033,32229
13524,52048,32246
13563,52076,32286
13612,52110,32347
13671,52147,32423
13744,52192,32518
13830,52250,32639
13923,52321,32782
14021,52398,32937
14126,52478,33100
14234,52560,33269
14342,52640,33435
14450,52719,33591
14559,52795,33738
14662,52863,33875
14755,52924,33998
14838,52979,34106
14912,53029,34205
14976,53072,34297
15031,53107,34379
15084,53138,34451
15135,53166,34518
15182,53192,34582
15222,53216,34640
15256,53238,34690
15286,53257,34738
15311,53272,34783
15332,53284,34823
15355,53299,34860
15382,53318,34903
15412,53339,34952
15444,53361,35001
15482,53385,35051
15524,53411,35108
15563,53438,35170
15602,53466,35234
15641,53497,35297
15680,53528,35360
15715,53554,35422
15746,53576,35478
15774,53595,35529
15795,53611,35575
15807,53623,35613
15818,53636,35644
15831,53653,35672
15844,53670,35698
15856,53685,35718
15866,53697,35728
15874,53708,35732
15877,53715,35731
15875,53715,35725
15867,53708,35714
15857,53701,35704
15848,53694,35699
15840,53688,35698
15836,53683,35700
15832,53683,35706
15828,53689,35719
15828,53694,35730
15832,53698,35739
15837,53701,35749
15838,53701,35757
15833,53695,35756
15825,53685,35751
15816,53675,35744
15809,53669,35738
15805,53668,35732
15805,53671,35725
15809,53674,35719
15813,53677,35712
15816,53680,35703
15820,53682,35694
15820,53680,35687
15809,53671,35676
15790,53653,35660
15769,53634,35641
15751,53618,35621
15734,53606,35597
15717,53594,35565
15702,53582,35532
15689,53571,35502
15674,53555,35471
15657,53534,35429
15640,53509,35381
15619,53481,35332
15593,53451,35283
15561,53422,35232
15527,53396,35181
15493,53369,35133
15462,53342,35088
15433,53317,35047
15410,53298,35014
15394,53285,34988
15381,53275,34963
15367,53268,34940
15353,53260,34918
15339,53250,34896
15322,53238,34869
15304,53227,34840
15283,53216,34812
15256,53200,34784
15227,53183,34756
15203,53167,34728
15184,53154,34703
15163,53142,34676
15140,53128,34645
15118,53116,34611
15095,53103,34576
15069,53084,34537
15043,53062,34495
15018,53038,34450
14993,53014,34408
14969,52990,34368
14946,52966,34331
14927,52947,34298
14907,52932,34266
14886,52916,34231
14863,52898,34191
14839,52882,34148
14813,52867,34105
14785,52850,34062
14757,52829,34014
14732,52806,33968
14709,52784,33927
14682,52762,33890
14653,52739,33850
14627,52716,33809
14604,52692,33766
14582,52665,33719
14557,52635,33665
14529,52606,33609
14496,52579,33556
14460,52553,33502
14426,52527,33445
14396,52502,33389
14364,52477,33340
14332,52455,33294
14300,52434,33250
14268,52415,33211
14238,52396,33179
14212,52375,33144
14191,52355,33105
14174,52339,33067
14160,52327,33034
14149,52316,33008
14143,52310,32995
14148,52315,33004
14166,52333,33038
14196,52363,33095
14239,52405,33174
14299,52461,33278
14376,52531,33409
14468,52607,33558
14570,52688,33719
14678,52774,33889
14787,52860,34062
14897,52945,34233
15008,53028,34401
15116,53110,34564
15219,53186,34717
15316,53253,34859
15406,53314,34990
15486,53369,35111
15556,53417,35218
15617,53461,35309
15671,53499,35387
15718,53532,35455
15756,53557,35510
15788,53578,35553
15816,53597,35592
15843,53614,35629
15868,53629,35664
15892,53643,35700
15917,53657,35737
15941,53672,35776
15965,53687,35818
15993,53706,35862
16028,53728,35914
16067,53753,35976
16104,53779,36039
16140,53808,36102
16173,53839,36165
16202,53867,36225
16224,53890,36277
16244,53910,36323
16264,53933,36369
16279,53955,36415
16289,53975,36453
16294,53992,36482
16298,54005,36506
16298,54013,36525
16296,54017,36539
16294,54020,36548
16292,54024,36552
16290,54029,36554
16288,54028,36552
16285,54024,36547
16281,54018,36539
16274,54008,36528
16265,53996,36514
16253,53984,36501
16240,53976,36491
16228,53971,36483
16219,53966,36477
16216,53964,36472
16214,53966,36471
16212,53967,36469
16211,53966,36467
16213,53967,36466
16215,53968,36467
16213,53968,36466
16209,53966,36462
16205,53963,36460
16195,53959,36460
16182,53951,36457
16171,53940,36450
16163,53933,36442
16155,53930,36431
16146,53930,36417
16141,53933,36401
16137,53937,36386
16128,53936,36369
16115,53928,36346
16103,53916,36315
16087,53899,36283
16063,53877,36247
16029,53851,36204
15989,53822,36159
15946,53793,36115
15903,53764,36074
15860,53737,36033
15820,53715,35994
15784,53696,35959
15750,53676,35924
15718,53652,35883
15689,53625,35837
15657,53598,35790
15617,53569,35740
15574,53542,35688
15534,53515,35637
15494,53488,35593
15453,53462,35553
15414,53437,35511
15379,53413,35470
15345,53394,35435
15312,53375,35401
15280,53356,35366
15252,53336,35327
15225,53317,35289
15197,53298,35249
15167,53282,35206
15138,53267,35162
15106,53250,35117
15068,53226,35070
15028,53200,35020
14987,53174,34972
14944,53148,34927
14902,53120,34884
14869,53095,34843
14844,53075,34810
14819,53060,34783
14791,53043,34753
14764,53025,34717
14736,53005,34678
14705,52982,34636
14670,52957,34590
14636,52933,34542
14604,52914,34499
14570,52897,34462
14536,52878,34420
14502,52857,34372
14470,52836,34328
14437,52813,34287
14404,52791,34246
14372,52772,34205
14338,52753,34164
14298,52730,34118
14255,52704,34064
14211,52678,34006
14169,52653,33951
14131,52627,33898
14096,52600,33843
14065,52576,33788
14030,52552,33734
13994,52523,33680
13958,52489,33624
13923,52455,33569
13884,52424,33513
13840,52392,33455
13792,52358,33392
13744,52323,33328
13698,52290,33266
13657,52262,33208
13625,52238,33155
13602,52223,33117
13591,52218,33103
13593,52222,33112
13610,52240,33144
13644,52273,33197
13696,52317,33271
13762,52370,33363
13840,52431,33471
13926,52499,33600
14016,52574,33743
14111,52652,33893
14214,52735,34054
14324,52823,34228
14435,52912,34408
14542,53000,34583
14642,53085,34749
14730,53163,34903
14806,53230,35043
14872,53285,35164
14929,53331,35268
14975,53372,35356
15012,53407,35428
15040,53436,35485
15065,53461,35531
15089,53485,35572
15110,53505,35610
15128,53520,35643
15146,53535,35674
15165,53550,35705
15184,53564,35735
15201,53575,35762
15218,53588,35788
15233,53604,35822
15248,53624,35859
15264,53643,35898
15282,53663,35942
15304,53686,35994
15328,53712,36050
15356,53741,36107
15386,53774,36165
15416,53810,36224
15444,53845,36277
15471,53877,36322
15495,53906,36358
15510,53931,36386
15513,53948,36401
15508,53957,36407
15499,53960,36408
15485,53958,36406
15470,53950,36397
15455,53938,36386
15440,53923,36377
15425,53906,36367
15411,53886,36351
15398,53868,36332
15381,53854,36315
15359,53840,36292
15331,53823,36264
15303,53805,36237
15278,53785,36213
15253,53766,36193
15231,53752,36179
15216,53745,36173
15207,53746,36177
15201,53753,36187
15198,53763,36196
15199,53773,36204
15201,53782,36213
15200,53787,36220
15197,53787,36218
15189,53784,36210
15177,53778,36197
15163,53770,36182
15145,53762,36162
15123,53754,36141
15095,53744,36118
15062,53730,36085
15029,53709,36046
14996,53687,36006
14960,53663,35964
14919,53635,35916
14881,53605,35865
14844,53575,35814
14806,53544,35764
14765,53511,35713
14721,53479,35660
14679,53449,35614
14640,53423,35575
14608,53401,35538
14583,53384,35501
14560,53370,35463
14533,53354,35423
14502,53336,35377
14471,53315,35326
14444,53293,35278
14419,53272,35238
14396,53253,35203
14374,53236,35170
14353,53219,35137
14331,53202,35103
14307,53187,35063
14282,53175,35021
14258,53164,34982
14232,53150,34945
14202,53131,34902
14172,53109,34854
14138,53084,34806
14097,53056,34759
14054,53027,34712
14013,52998,34665
13972,52967,34622
13930,52937,34582
13892,52909,34542
13860,52885,34505
13832,52863,34468
13805,52843,34429
13777,52822,34385
13749,52800,34339
13716,52778,34294
13681,52757,34248
13650,52741,34201
13621,52728,34158
13592,52712,34118
13563,52694,34078
13536,52675,34039
13513,52659,34000
13490,52644,33960
13463,52626,33915
13432,52604,33866
13397,52580,33819
13360,52555,33775
13325,52530,33728
13293,52511,33682
13262,52492,33641
13228,52471,33603
13194,52446,33560
13161,52419,33511
13126,52392,33459
13088,52359,33403
13051,52323,33347
13019,52290,33297
12997,52264,33256
12981,52249,33225
12973,52245,33208
12977,52250,33208
12993,52262,33228
13017,52279,33266
13050,52303,33321
13098,52338,33398
13160,52386,33495
13232,52443,33604
13317,52510,33726
13413,52585,33864
13516,52667,34016
13620,52750,34176
13725,52833,34338
13830,52914,34498
13929,52988,34654
14020,53055,34797
14104,53115,34926
14181,53170,35042
14249,53217,35147
14308,53255,35233
14359,53286,35299
14400,53309,35349
14429,53324,35388
14448,53332,35421
14461,53340,35446
14470,53350,35465
14475,53359,35482
14480,53370,35496
14490,53385,35510
14506,53401,35529
14527,53417,35555
14550,53429,35580
14575,53439,35602
14598,53447,35623
14619,53457,35643
14642,53469,35667
14668,53484,35695
14697,53501,35729
14728,53519,35767
14760,53538,35805
14794,53559,35841
14826,53579,35873
14853,53592,35895
14876,53600,35905
14896,53604,35904
14910,53604,35897
14922,53600,35887
14930,53596,35873
14935,53596,35857
14938,53596,35843
14938,53591,35828
14935,53580,35809
14931,53568,35788
14924,53554,35770
14911,53539,35754
14895,53522,35741
14881,53510,35738
14873,53506,35744
14871,53509,35756
14878,53516,35768
14893,53525,35781
14909,53537,35797
14923,53548,35810
14933,53555,35815
14940,53559,35815
14944,53560,35810
14945,53559,35801
14943,53557,35790
14942,53556,35781
14937,53551,35775
14928,53543,35767
14918,53534,35755
14906,53525,35738
14892,53514,35712
14873,53497,35676
14852,53475,35634
14827,53451,35592
14798,53426,35550
14767,53402,35506
14741,53381,35461
14716,53364,35416
14692,53348,35369
14666,53329,35317
14641,53310,35263
14613,53288,35210
14580,53258,35156
14544,53225,35103
14509,53194,35056
14480,53168,35021
14453,53144,34990
14426,53121,34956
14400,53100,34922
14375,53081,34890
14349,53062,34855
14320,53041,34816
14290,53022,34777
14258,53003,34740
14224,52982,34704
14191,52964,34669
14162,52951,34637
14133,52938,34605
14102,52917,34566
14069,52891,34519
14036,52864,34467
13999,52837,34412
13963,52808,34357
13930,52779,34303
13897,52753,34252
13865,52726,34204
13830,52695,34152
13795,52661,34098
13759,52628,34046
13717,52595,33998
13674,52563,33953
13636,52536,33909
13607,52515,33868
13582,52495,33833
13558,52476,33798
13537,52459,33758
13516,52446,33717
13494,52429,33671
13467,52403,33617
13435,52374,33563
13400,52344,33513
13359,52312,33464
13317,52280,33416
13276,52251,33372
13234,52226,33330
13191,52203,33283
13150,52181,33227
13111,52158,33169
13073,52135,33116
13032,52112,33064
12993,52090,33011
12961,52071,32960
12933,52055,32915
12905,52037,32869
12874,52015,32818
12838,51986,32762
12794,51950,32705
12745,51907,32645
12696,51861,32579
12649,51815,32514
12603,51771,32452
12561,51732,32395
12532,51705,32351
12517,51693,32325
12514,51694,32321
12524,51703,32335
12551,51721,32369
12595,51750,32429
12651,51790,32514
12715,51841,32620
12792,51904,32748
12882,51977,32898
12983,52058,33065
13094,52144,33244
13210,52235,33428
13327,52328,33618
13441,52417,33804
13548,52497,33977
13645,52570,34134
13730,52638,34276
13801,52701,34403
13866,52756,34516
13926,52806,34617
13983,52853,34705
14033,52895,34781
14076,52931,34841
14115,52962,34893
14148,52987,34940
14174,53004,34983
14197,53020,35020
14222,53037,35059
14252,53058,35103
14282,53080,35147
14308,53101,35186
14331,53123,35224
14353,53150,35263
14373,53178,35304
14395,53207,35349
14422,53240,35402
14452,53272,35463
14487,53303,35526
14529,53337,35586
14574,53370,35643
14615,53401,35698
14653,53426,35747
14688,53447,35787
14722,53465,35825
14751,53481,35861
14774,53493,35892
14794,53500,35912
14807,53502,35923
14812,53499,35922
14808,53489,35910
14800,53475,35891
14792,53460,35873
14786,53448,35857
14783,53440,35842
14782,53435,35825
14782,53432,35808
14782,53429,35791
14780,53425,35773
14779,53421,35756
14777,53419,35749
14775,53422,35755
14773,53427,35766
14774,53435,35778
14774,53443,35790
14771,53448,35799
14768,53450,35802
14767,53450,35801
14768,53451,35801
14768,53454,35801
14763,53457,35794
14755,53457,35784
14743,53451,35772
14728,53440,35756
14713,53426,35734
14698,53413,35712
14681,53398,35687
14657,53379,35656
14630,53358,35617
14602,53335,35578
14572,53306,35542
14538,53276,35509
14503,53249,35477
14467,53224,35445
14429,53201,35409
14390,53175,35367
14352,53146,35316
14317,53120,35265
14282,53097,35217
14249,53077,35170
14220,53061,35123
14195,53044,35075
14168,53023,35026
14136,52996,34975
14099,52966,34920
14056,52936,34864
14009,52904,34809
13962,52871,34754
13922,52842,34701
13885,52816,34651
13851,52792,34603
13819,52769,34554
13790,52748,34506
13759,52726,34458
13723,52702,34411
13684,52680,34365
13645,52662,34320
13604,52644,34276
13561,52624,34233
13518,52601,34186
13476,52576,34138
13431,52549,34091
13384,52519,34044
13337,52488,33998
13293,52460,33956
13251,52435,33920
13212,52409,33884
13176,52384,33845
13137,52360,33805
13091,52335,33764
13039,52309,33720
12985,52282,33672
12932,52259,33627
12876,52239,33585
12820,52221,33543
12771,52206,33499
12727,52191,33455
12681,52176,33411
12633,52157,33360
12584,52134,33301
12535,52107,33240
12485,52077,33178
12435,52048,33120
12387,52020,33067
12343,51994,33021
12301,51972,32975
12258,51952,32925
12215,51932,32871
12171,51911,32813
12119,51883,32751
12059,51850,32684
11995,51817,32619
11933,51788,32560
11873,51759,32503
11816,51730,32444
11762,51701,32387
11710,51672,32331
11658,51645,32276
11607,51618,32219
11556,51589,32163
11505,51560,32112
11452,51532,32065
11407,51508,32029
11374,51494,32012
11355,51491,32015
11351,51501,32039
11368,51525,32088
11408,51561,32162
11464,51605,32258
11530,51656,32370
11606,51717,32495
11690,51791,32636
11775,51872,32793
11864,51957,32956
11957,52043,33117
12049,52128,33275
12135,52208,33428
12214,52282,33571
12287,52348,33699
12348,52403,33811
12394,52446,33904
12425,52477,33978
12445,52499,34034
12454,52516,34076
12457,52524,34106
12457,52526,34124
12460,52525,34135
12462,52522,34141
12464,52518,34143
12465,52515,34142
12468,52513,34138
12471,52515,34137
12472,52519,34142
12470,52526,34151
12471,52537,34166
12477,52555,34191
12485,52574,34220
12494,52589,34248
12506,52602,34277
12516,52616,34310
12523,52632,34348
12525,52648,34385
12525,52664,34419
12524,52677,34448
12521,52689,34473
12517,52699,34491
12513,52708,34502
12508,52717,34506
12502,52723,34503
12493,52721,34490
12481,52712,34468
12461,52695,34440
12435,52672,34405
12405,52647,34365
12374,52622,34328
12339,52599,34292
12301,52578,34254
12265,52561,34219
12234,52545,34190
12208,52532,34168
12187,52523,34148
12173,52517,34129
12163,52511,34111
12150,52502,34094
12136,52493,34076
12122,52486,34058
12112,52480,34043
12103,52473,34032
12094,52464,34019
12090,52457,34009
12086,52451,34002
12079,52442,33994
12066,52429,33977
12050,52414,33952
12031,52397,33925
12007,52376,33891
11976,52352,33855
11941,52327,33820
11906,52302,33785
11870,52279,33744
11835,52258,33698
11801,52239,33650
11768,52219,33601
11734,52197,33550
11696,52168,33495
11654,52134,33438
11609,52098,33379
11564,52065,33321
11525,52035,33268
11491,52007,33219
11457,51979,33173
11420,51951,33125
11384,51925,33074
11350,51902,33026
11315,51875,32980
11279,51846,32935
11246,51821,32891
11220,51804,32852
11193,51791,32815
11162,51777,32774
11128,51760,32732
11091,51743,32691
11053,51723,32648
11016,51702,32602
10979,51680,32555
10941,51659,32511
10900,51638,32469
10862,51619,32424
10829,51604,32380
10796,51588,32336
10760,51568,32291
10721,51545,32239
10682,51520,32184
10641,51493,32131
10595,51465,32077
10549,51443,32027
10511,51427,31989
10481,51419,31963
10450,51414,31939
10416,51409,31910
10379,51401,31878
10336,51389,31844
10289,51373,31804
10239,51352,31758
10188,51327,31707
10134,51299,31654
10074,51267,31596
10015,51234,31535
9960,51205,31477
9908,51178,31423
9858,51156,31371
9807,51141,31316
9759,51129,31261
9716,51113,31205
9674,51089,31144
9628,51059,31078
9582,51028,31020
9536,50999,30971
9491,50971,30924
9449,50944,30875
9409,50920,30828
9371,50898,30783
9335,50875,30740
9301,50852,30698
9273,50830,30659
9244,50813,30622
9216,50801,30590
9197,50799,30568
9191,50805,30562
9196,50819,30575
9214,50840,30607
9248,50873,30663
9296,50915,30739
9355,50962,30830
9423,51012,30930
9498,51062,31037
9578,51115,31152
9658,51170,31270
9740,51231,31393
9825,51300,31519
9911,51376,31646
9992,51450,31768
10066,51516,31877
10133,51573,31970
10191,51622,32047
10237,51663,32108
10272,51696,32157
10297,51721,32199
10314,51742,32234
10330,51760,32264
10348,51779,32288
10367,51800,32310
10386,51819,32330
10401,51832,32345
10414,51841,32353
10426,51847,32355
10433,51850,32355
10439,51851,32355
10445,51852,32358
10453,51858,32366
10463,51869,32380
10474,51882,32394
10487,51897,32408
10502,51914,32422
10515,51931,32436
10528,51944,32447
10539,51956,32456
10551,51971,32467
10562,51982,32480
10572,51990,32487
10582,51998,32486
10588,52004,32480
10587,52005,32469
10584,52001,32451
10579,51992,32431
10571,51981,32411
10557,51965,32391
10539,51947,32366
10519,51928,32338
10503,51912,32314
10489,51899,32291
10480,51892,32270
10477,51893,32255
10477,51897,32248
10479,51901,32243
10483,51904,32237
10487,51909,32234
10490,51914,32235
10491,51917,32239
10493,51921,32240
10494,51926,32242
10493,51928,32246
10489,51926,32249
10487,51921,32247
10486,51913,32241
10484,51904,32233
10476,51893,32218
10463,51880,32193
10446,51867,32165
10424,51851,32131
10397,51833,32092
10373,51816,32052
10352,51802,32016
10331,51790,31981
10307,51777,31944
10283,51762,31903
10258,51743,31859
10228,51717,31809
10192,51683,31752
10155,51647,31691
10120,51612,31633
10084,51579,31578
10048,51549,31526
10014,51528,31479
9984,51511,31436
9955,51492,31390
9926,51471,31336
9901,51450,31282
9878,51430,31232
9855,51408,31185
9831,51387,31138
9807,51369,31094
9781,51354,31058
9754,51337,31025
9729,51322,30992
9709,51311,30961
9689,51302,30930
9667,51288,30896
9642,51267,30853
9617,51243,30808
9590,51222,30768
9562,51203,30731
9536,51190,30696
9513,51181,30659
9493,51173,30622
9474,51162,30584
9458,51152,30546
9443,51143,30510
9429,51130,30475
9414,51111,30437
9396,51090,30393
9375,51068,30348
9350,51045,30306
9320,51017,30265
9286,50988,30222
9254,50962,30183
9225,50943,30148
9198,50926,30115
9177,50911,30083
9160,50896,30052
9141,50882,30017
9120,50867,29977
9099,50851,29929
9073,50832,29879
9040,50811,29827
9006,50789,29775
8971,50767,29724
8936,50742,29676
8901,50714,29626
8867,50687,29572
8836,50663,29516
8807,50641,29459
8778,50619,29401
8751,50594,29341
8725,50569,29278
8696,50543,29215
8662,50518,29154
8627,50493,29091
8590,50467,29029
8550,50436,28968
8511,50403,28907
8475,50372,28850
8444,50342,28801
8418,50316,28765
8399,50294,28739
8384,50277,28726
8378,50269,28727
8384,50272,28746
8400,50284,28777
8433,50305,28821
8483,50337,28886
8543,50377,28970
8609,50424,29067
8680,50478,29181
8756,50537,29312
8836,50601,29458
8923,50669,29613
9015,50743,29771
9109,50820,29929
9202,50897,30085
9292,50971,30234
9375,51039,30369
9448,51101,30489
9512,51153,30591
9567,51195,30675
9613,51229,30743
9650,51256,30799
9678,51275,30845
9700,51287,30877
9719,51293,30899
9736,51297,30916
9748,51298,30930
9757,51299,30940
9762,51301,30946
9765,51303,30956
9769,51306,30971
9777,51311,30992
9785,51321,31020
9794,51337,31054
9810,51358,31088
9835,51382,31123
9864,51410,31164
9893,51438,31209
9919,51463,31253
9947,51485,31291
9973,51506,31326
9995,51520,31359
10010,51530,31388
10021,51539,31410
10030,51548,31430
10035,51557,31447
10036,51562,31457
10039,51563,31462
10043,51564,31467
10046,51564,31469
10046,51564,31460
10049,51565,31445
10053,51568,31431
10051,51569,31416
10041,51565,31397
10027,51561,31377
10015,51558,31361
10004,51554,31348
9996,51546,31337
9992,51541,31331
9989,51541,31332
9988,51542,31333
9989,51543,31333
9992,51546,31332
9997,51551,31336
10002,51555,31341
10005,51555,31342
10005,51552,31339
10003,51551,31335
9996,51550,31329
9988,51548,31319
9981,51546,31306
9976,51545,31292
9968,51541,31277
9960,51532,31255
9954,51521,31230
9950,51511,31204
9943,51496,31173
9934,51474,31138
9922,51450,31100
9908,51428,31063
9892,51405,31021
9872,51382,30972
9849,51362,30921
9822,51343,30870
9790,51323,30819
9759,51304,30771
9732,51286,30732
9707,51271,30696
9683,51257,30658
9663,51243,30616
9647,51228,30576
9632,51208,30536
9612,51182,30493
9585,51151,30448
9552,51121,30404
9515,51094,30361
9477,51069,30316
9441,51047,30273
9413,51030,30238
9393,51018,30211
9379,51009,30189
9369,51002,30169
9363,50997,30154
9356,50996,30137
9346,50998,30117
9334,51003,30097
9318,51007,30076
9296,51006,30053
9270,50996,30023
9241,50979,29990
9208,50960,29957
9173,50939,29922
9139,50921,29884
9110,50907,29849
9083,50893,29815
9056,50877,29775
9031,50861,29730
9005,50844,29683
8976,50824,29634
8943,50802,29582
8909,50779,29530
8875,50755,29481
8839,50727,29434
8802,50698,29387
8767,50669,29341
8736,50644,29299
8705,50621,29258
8674,50597,29214
8645,50576,29170
8620,50559,29133
8594,50544,29095
8567,50523,29049
8539,50496,28995
8507,50468,28937
8471,50442,28881
8432,50415,28824
8393,50388,28767
8354,50363,28714
8315,50336,28663
8278,50309,28615
8245,50287,28572
8215,50268,28531
8185,50247,28492
8158,50225,28449
8135,50206,28403
8114,50191,28358
8091,50176,28312
8064,50158,28264
8035,50139,28215
8008,50118,28172
7981,50098,28134
7954,50081,28099
7931,50070,28073
7919,50069,28063
7918,50076,28067
7931,50090,28084
7956,50112,28118
7992,50141,28170
8035,50177,28235
8089,50222,28314
8152,50275,28410
8219,50336,28525
8288,50399,28652
8363,50465,28786
8444,50532,28927
8525,50597,29073
8608,50660,29218
8690,50723,29357
8769,50787,29491
8839,50849,29616
8902,50906,29725
8961,50959,29822
9014,51005,29905
9054,51042,29973
9080,51068,30023
9095,51086,30056
9100,51096,30077
9094,51098,30087
9083,51096,30088
9071,51093,30088
9062,51092,30091
9056,51093,30101
9055,51098,30111
9060,51107,30121
9065,51118,30130
9067,51126,30140
9068,51128,30146
9070,51129,30149
9073,51129,30156
9075,51127,30166
9079,51124,30178
9083,51124,30191
9089,51129,30208
9094,51138,30227
9099,51146,30246
9107,51158,30267
9116,51170,30287
9122,51176,30299
9126,51176,30301
9129,51173,30296
9125,51169,30285
9116,51162,30270
9107,51155,30253
9097,51150,30238
9086,51144,30227
9072,51137,30212
9059,51134,30194
9048,51130,30177
9039,51126,30164
9030,51123,30149
9021,51119,30132
9013,51113,30115
9004,51103,30100
8993,51091,30085
8983,51081,30073
8975,51074,30064
8965,51068,30056
8959,51063,30050
8960,51062,30046
8964,51064,30046
8969,51066,30048
8972,51066,30044
8974,51065,30034
8974,51063,30021
8968,51056,30004
8958,51045,29983
8946,51031,29961
8931,51018,29940
8914,51005,29919
8899,50992,29896
8886,50979,29871
8873,50968,29846
8858,50953,29815
8840,50931,29776
8819,50904,29733
8793,50873,29691
8762,50841,29645
8731,50811,29595
8700,50781,29545
8668,50753,29500
8635,50730,29458
8603,50713,29414
8574,50700,29371
8548,50684,29331
8522,50667,29292
8499,50651,29251
8477,50636,29208
8454,50618,29162
8429,50596,29112
8407,50573,29061
8389,50551,29014
8376,50530,28971
8362,50511,28931
8350,50499,28892
8338,50496,28858
8328,50497,28827
8323,50498,28799
8325,50499,28772
8324,50498,28746
8315,50491,28717
8298,50476,28686
8276,50454,28654
8253,50430,28623
8231,50406,28588
8213,50385,28551
8197,50366,28514
8180,50345,28477
8163,50324,28442
8148,50304,28407
8134,50286,28370
8119,50266,28335
8102,50244,28297
8084,50219,28254
8065,50192,28211
8044,50167,28168
8021,50142,28123
7995,50113,28073
7968,50085,28024
7942,50062,27980
7919,50046,27939
7904,50035,27899
7894,50027,27861
7887,50021,27827
7875,50011,27790
7857,49999,27746
7836,49986,27701
7814,49972,27655
7793,49959,27608
7775,49947,27562
7761,49937,27522
7751,49926,27487
7740,49913,27451
7729,49897,27414
7715,49877,27374
7700,49854,27332
7685,49826,27287
7669,49799,27240
7654,49775,27198
7641,49757,27166
7633,49746,27145
7639,49744,27141
7659,49752,27158
7693,49767,27195
7739,49794,27247
7801,49832,27312
7873,49878,27391
7954,49927,27479
8041,49975,27574
8134,50023,27674
8231,50076,27778
8331,50129,27885
8428,50180,27992
8523,50229,28097
8614,50274,28197
8695,50312,28287
8768,50345,28369
8834,50373,28443
8893,50395,28509
8943,50412,28563
8985,50423,28602
9019,50430,28631
9046,50435,28655
9065,50438,28671
9082,50439,28679
9101,50440,28685
9123,50441,28693
9141,50439,28695
9159,50438,28691
9180,50438,28687
9204,50436,28685
9228,50432,28686
9253,50430,28692
9280,50432,28702
9310,50439,28719
9344,50450,28739
9383,50464,28765
9426,50483,28799
9467,50501,28835
9508,50517,28862
9548,50533,28881
9582,50545,28895
9605,50547,28904
9619,50540,28906
9630,50532,28905
9641,50529,28903
9651,50530,28903
9661,50532,28902
9673,50537,28905
9687,50544,28915
9704,50551,28928
9721,50556,28937
9737,50560,28944
9752,50563,28954
9765,50564,28964
9781,50566,28974
9804,50570,28990
9831,50577,29012
9858,50586,29036
9883,50598,29062
9910,50612,29090
9936,50627,29120
9962,50642,29148
9988,50658,29174
10012,50672,29197
10030,50680,29217
10040,50683,29230
10046,50684,29240
10052,50690,29254
10058,50700,29272
10068,50709,29290
10081,50717,29301
10093,50724,29308
10100,50730,29311
10098,50732,29304
10093,50729,29289
10087,50725,29275
10079,50720,29263
10073,50716,29250
10073,50717,29241
10076,50719,29234
10077,50719,29224
10079,50715,29206
10082,50707,29185
10083,50697,29163
10078,50685,29136
10069,50672,29106
10060,50661,29076
10053,50653,29051
10046,50646,29025
10040,50637,28997
10036,50630,28974
10031,50624,28955
10022,50617,28934
10009,50611,28911
9998,50603,28891
9989,50593,28872
9979,50584,28855
9967,50577,28837
9956,50570,28819
9949,50563,28799
9945,50553,28778
9943,50542,28757
9944,50530,28735
9944,50520,28710
9943,50509,28680
9938,50496,28647
9930,50482,28618
9918,50466,28591
9906,50450,28567
9901,50436,28543
9902,50427,28522
9904,50422,28507
9906,50418,28493
9909,50417,28480
9909,50420,28468
9905,50423,28453
9898,50424,28433
9892,50422,28407
9888,50418,28380
9887,50413,28354
9887,50408,28325
9882,50402,28295
9874,50393,28266
9865,50381,28236
9861,50369,28205
9860,50360,28174
9857,50351,28143
9850,50337,28112
9841,50318,28077
9832,50299,28038
9816,50279,27998
9792,50258,27959
9766,50237,27918
9742,50216,27876
9716,50197,27837
9688,50180,27801
9664,50161,27763
9646,50142,27730
9631,50125,27704
9620,50110,27685
9615,50100,27670
9615,50097,27662
9626,50101,27666
9646,50111,27688
9677,50130,27730
9722,50159,27796
9778,50198,27883
9843,50244,27984
9915,50298,28096
9993,50359,28220
10073,50422,28354
10154,50485,28495
10238,50553,28643
10327,50625,28800
10415,50698,28961
10503,50767,29116
10594,50833,29265
10686,50897,29410
10777,50957,29550
10862,51014,29678
10941,51067,29791
11011,51117,29893
11072,51164,29981
11125,51204,30054
11173,51235,30114
11212,51260,30167
11242,51280,30211
11264,51297,30247
11286,51315,30281
11310,51334,30317
11337,51355,30352
11370,51379,30385
11411,51409,30425
11453,51441,30473
11493,51470,30521
11533,51493,30565
11573,51514,30612
11611,51535,30665
11648,51559,30721
11688,51589,30779
11732,51627,30841
11781,51667,30907
11828,51706,30972
11872,51745,31035
11915,51781,31096
11953,51814,31150
11985,51840,31195
12011,51861,31229
12031,51877,31258
12044,51886,31282
12050,51889,31298
12052,51888,31309
12055,51889,31317
12061,51890,31323
12071,51890,31328
12085,51889,31334
12100,51890,31341
12109,51888,31348
12114,51884,31349
12115,51881,31346
12116,51882,31342
12116,51881,31340
12116,51882,31341
12123,51889,31349
12137,51902,31366
12154,51917,31385
12176,51931,31403
12200,51947,31419
12221,51964,31435
12237,51978,31450
12249,51985,31463
12257,51987,31472
12261,51989,31479
12259,51988,31482
12254,51988,31481
12250,51989,31475
12246,51990,31467
12239,51987,31454
12227,51979,31435
12216,51970,31413
12203,51960,31391
12187,51949,31365
12171,51935,31335
12158,51921,31305
12141,51907,31275
12121,51895,31244
12102,51886,31211
12086,51879,31181
12071,51871,31152
12055,51858,31119
12039,51845,31087
12024,51833,31058
12006,51818,31031
11987,51801,31000
11968,51781,30968
11950,51760,30938
11927,51741,30907
11902,51720,30871
11878,51698,30834
11860,51679,30800
11846,51664,30769
11836,51653,30739
11831,51647,30711
11828,51643,30686
11823,51639,30661
11816,51634,30632
11808,51629,30597
11799,51622,30562
11786,51609,30527
11768,51592,30491
11747,51575,30455
11726,51559,30424
11707,51541,30395
11692,51524,30363
11677,51510,30330
11664,51498,30301
11655,51487,30277
11650,51477,30254
11648,51467,30230
11644,51458,30206
11635,51448,30180
11622,51434,30150
11607,51420,30119
11590,51407,30090
11573,51394,30062
11557,51380,30031
11542,51366,29999
11525,51349,29971
11506,51329,29941
11490,51309,29909
11475,51292,29874
11456,51277,29836
11433,51263,29796
11405,51245,29757
11374,51224,29719
11337,51201,29679
11293,51177,29636
11247,51153,29590
11201,51129,29545
11154,51104,29501
11109,51080,29458
11073,51057,29416
11041,51035,29375
11008,51015,29333
10974,50993,29289
10940,50968,29243
10906,50940,29199
10870,50909,29158
10835,50880,29119
10805,50855,29084
10785,50840,29059
10775,50834,29046
10776,50840,29047
10792,50855,29069
10822,50879,29112
10862,50912,29174
10910,50952,29252
10965,51002,29344
11029,51059,29453
11099,51121,29575
11176,51189,29709
11262,51266,29855
11352,51346,30010
11438,51424,30163
11518,51498,30308
11594,51567,30442
11664,51629,30567
11726,51680,30680
11781,51722,30778
11831,51757,30866
11871,51787,30944
11902,51813,31013
11929,51838,31070
11955,51862,31120
11979,51885,31164
12001,51906,31204
12025,51926,31240
12053,51947,31275
12079,51967,31311
12101,51985,31344
12120,52002,31373
12140,52019,31400
12158,52031,31427
12173,52038,31450
12189,52042,31474
12208,52050,31503
12227,52062,31537
12248,52077,31572
12273,52095,31612
12300,52115,31657
12327,52134,31705
12354,52157,31750
12386,52183,31793
12423,52212,31838
12458,52238,31880
12489,52259,31915
12515,52277,31942
12537,52292,31963
12549,52301,31974
12556,52303,31969
12561,52297,31952
12562,52291,31935
12559,52284,31920
12558,52279,31903
12561,52275,31885
12565,52272,31875
12569,52274,31875
12581,52284,31883
12601,52300,31898
12626,52318,31916
12653,52335,31933
12683,52349,31947
12712,52362,31962
12737,52374,31979
12757,52383,31992
12774,52385,31999
12789,52384,32002
12802,52380,32001
12809,52371,31997
12816,52361,31993
12826,52356,31992
12838,52355,31997
12850,52356,32000
12863,52357,32000
12873,52357,32000
12875,52357,32000
12873,52357,31999
12873,52357,31995
12872,52357,31991
12867,52355,31984
12861,52351,31972
12855,52347,31955
12848,52344,31937
12838,52338,31917
12826,52329,31892
12815,52320,31864
12805,52309,31834
12791,52296,31806
12775,52280,31779
12761,52265,31752
12749,52253,31726
12736,52241,31701
12723,52230,31673
12707,52218,31642
12690,52201,31611
12672,52180,31578
12653,52155,31545
12634,52133,31511
12614,52115,31483
12593,52099,31457
12573,52084,31429
12557,52074,31401
12545,52068,31374
12534,52061,31347
12526,52054,31315
12519,52046,31284
12512,52036,31254
12504,52025,31222
12497,52017,31189
12490,52011,31159
12480,51999,31131
12466,51982,31101
12452,51961,31068
12441,51941,31037
12428,51924,31008
12414,51909,30980
12401,51895,30952
12390,51883,30926
12380,51870,30901
12369,51855,30873
12355,51840,30845
12338,51824,30818
12319,51807,30790
12300,51789,30758
12283,51772,30726
12264,51756,30697
12241,51739,30670
12219,51723,30642
12200,51708,30612
12180,51693,30580
12158,51681,30547
12139,51671,30517
12125,51667,30489
12113,51665,30464
12105,51662,30437
12099,51657,30405
12092,51651,30370
12082,51642,30332
12069,51628,30288
12053,51611,30241
12037,51594,30197
12017,51573,30156
11992,51548,30114
11964,51523,30073
11935,51501,30033
11904,51482,29993
11872,51463,29955
11842,51443,29916
11811,51423,29876
11782,51401,29836
11755,51378,29796
11735,51358,29763
11723,51346,29740
11717,51339,29727
11713,51335,29723
11720,51336,29733
11740,51347,29762
11770,51368,29808
11808,51399,29868
11855,51441,29945
11912,51492,30046
11979,51552,30168
12058,51621,30304
12146,51697,30453
12243,51778,30613
12343,51860,30776
12444,51939,30936
12542,52015,31095
12636,52089,31253
12726,52158,31401
12810,52221,31533
12886,52274,31648
12954,52320,31751
13011,52358,31840
13060,52390,31915
13101,52421,31979
13136,52451,32037
13170,52478,32092
13204,52502,32143
13238,52522,32190
13269,52541,32234
13297,52559,32272
13322,52578,32306
13348,52597,32341
13375,52616,32382
13405,52632,32422
13438,52651,32459
13473,52676,32498
13511,52703,32543
13546,52728,32589
13579,52750,32634
13608,52774,32684
13631,52800,32738
13654,52827,32790
13681,52859,32845
13710,52894,32904
13736,52930,32961
13760,52963,33011
13784,52995,33053
13808,53024,33088
13832,53047,33116
13854,53063,33134
13875,53078,33148
13893,53090,33159
13905,53096,33166
13910,53096,33165
13910,53091,33162
13908,53084,33163
13903,53076,33166
13899,53068,33167
13900,53063,33172
13908,53064,33182
13920,53070,33193
13935,53078,33202
13949,53086,33210
13962,53096,33220
13972,53105,33228
13979,53109,33234
13983,53107,33240
13985,53100,33247
13985,53087,33253
13985,53075,33256
13986,53066,33257
13987,53059,33257
13987,53053,33254
13987,53048,33248
13985,53041,33241
13977,53031,33228
13962,53018,33211
13946,53004,33195
13929,52991,33180
13908,52977,33163
13884,52963,33146
13864,52951,33128
13845,52941,33110
13822,52928,33088
13797,52912,33061
13770,52892,33030
13740,52867,32997
13704,52838,32961
13662,52806,32922
13618,52777,32887
13576,52751,32859
13534,52729,32834
13494,52713,32808
13458,52699,32779
13422,52684,32748
13383,52666,32717
13342,52646,32681
13302,52623,32641
13262,52599,32602
13220,52575,32562
13177,52556,32519
13135,52542,32477
13095,52532,32445
13054,52522,32419
13015,52512,32396
12979,52504,32374
12946,52498,32355
12913,52492,32334
12880,52486,32309
12850,52480,32284
12820,52471,32257
12790,52459,32226
12761,52447,32190
12732,52435,32154
12703,52421,32118
12675,52407,32081
12649,52391,32043
12625,52371,32005
12600,52350,31968
12576,52329,31931
12554,52308,31891
12528,52287,31851
12498,52264,31808
12466,52239,31761
12431,52214,31711
12398,52190,31661
12364,52167,31612
12332,52148,31563
12305,52134,31517
12278,52121,31478
12251,52103,31441
12221,52083,31401
12190,52062,31361
12158,52041,31323
12123,52023,31285
12090,52007,31246
12059,51993,31207
12027,51976,31173
11994,51959,31138
11959,51943,31099
11924,51928,31056
11888,51914,31010
11851,51897,30958
11812,51875,30899
11770,51849,30840
11726,51820,30782
11681,51788,30726
11642,51758,30673
11607,51728,30627
11576,51699,30591
11553,51674,30563
11542,51656,30549
11543,51649,30554
11554,51651,30580
11578,51665,30624
11616,51691,30686
11665,51728,30764
11723,51776,30858
11789,51834,30965
11867,51900,31088
11954,51973,31227
12047,52053,31374
12143,52134,31523
12238,52212,31669
12330,52285,31815
12414,52352,31955
12488,52412,32085
12555,52464,32201
12614,52511,32309
12668,52555,32406
12723,52594,32491
12781,52629,32565
12833,52659,32633
12874,52683,32689
12905,52704,32732
12933,52724,32767
12954,52743,32795
12964,52756,32817
12969,52767,32836
12979,52779,32854
12992,52791,32876
13005,52801,32898
13020,52812,32921
13039,52825,32946
13060,52840,32975
13082,52858,33007
13106,52874,33038
13133,52889,33068
13157,52902,33101
13175,52914,33135
13189,52926,33169
13202,52941,33200
13211,52955,33222
13215,52965,33233
13220,52974,33239
13227,52981,33243
13228,52982,33242
13221,52979,33236
13216,52977,33225
13215,52977,33211
13212,52976,33198
13208,52976,33182
13206,52978,33167
13208,52984,33156
13218,52991,33152
13231,52993,33146
13242,52990,33140
13256,52987,33143
13276,52986,33152
13299,52989,33163
13323,52996,33170
13345,53005,33178
13359,53010,33186
13369,53012,33196
13381,53015,33210
13395,53018,33226
13409,53022,33240
13424,53027,33249
13442,53033,33255
13464,53041,33262
13483,53049,33263
13495,53052,33256
13502,53052,33243
13502,53049,33227
13497,53042,33206
13489,53030,33182
13481,53015,33156
13473,52998,33130
13464,52980,33102
13457,52965,33075
13454,52955,33050
13450,52946,33027
13444,52937,33003
13436,52928,32976
13426,52921,32947
13415,52910,32916
13404,52894,32878
13392,52883,32840
13381,52876,32806
13369,52867,32776
13357,52852,32744
13344,52833,32713
13330,52814,32683
13314,52798,32655
13298,52785,32627
13288,52776,32600
13283,52771,32576
13279,52767,32551
13274,52761,32524
13269,52752,32492
13264,52742,32460
13256,52728,32430
13243,52711,32400
13228,52695,32371
13213,52680,32345
13195,52666,32319
13175,52650,32291
13154,52636,32262
13133,52622,32234
13114,52609,32208
13100,52597,32183
13091,52588,32159
13084,52581,32137
13076,52576,32113
13065,52570,32085
13051,52561,32055
13036,52549,32024
13017,52532,31990
12995,52512,31954
12970,52492,31919
12946,52474,31890
12923,52458,31866
12901,52445,31840
12882,52431,31813
12862,52414,31782
12843,52393,31742
12824,52367,31693
12807,52342,31641
12791,52322,31593
12775,52307,31550
12759,52297,31512
12747,52291,31479
12735,52284,31450
12716,52273,31419
12690,52257,31385
12657,52238,31351
12616,52212,31311
12570,52179,31262
12526,52139,31207
12484,52098,31152
12443,52059,31099
12406,52025,31050
12376,51999,31009
12352,51984,30981
12334,51977,30968
12325,51978,30967
12330,51988,30978
12348,52008,31008
12376,52036,31058
12414,52071,31128
12465,52120,31220
12523,52178,31331
12591,52242,31460
12670,52313,31600
12759,52389,31750
12850,52466,31907
12940,52542,32064
13031,52616,32220
13125,52690,32375
13218,52760,32523
13303,52824,32658
13379,52880,32777
13447,52931,32886
13508,52975,32991
13562,53013,33089
13610,53050,33177
13655,53085,33253
13696,53116,33320
13731,53144,33379
13762,53172,33431
13793,53200,33476
13823,53226,33515
13851,53248,33547
13880,53265,33578
13909,53279,33613
13933,53292,33650
13954,53307,33689
13980,53329,33733
14013,53359,33786
14048,53392,33847
14080,53426,33907
14113,53461,33962
14147,53497,34015
14183,53534,34068
14220,53565,34117
14256,53590,34162
14286,53608,34204
14310,53621,34240
14328,53631,34269
14341,53636,34293
14353,53640,34314
14362,53643,34330
14367,53647,34339
14375,53656,34345
14384,53669,34349
14390,53677,34351
14390,53678,34349
14388,53677,34349
14386,53678,34350
14384,53680,34351
14385,53682,34351
14390,53684,34352
14399,53685,34357
14412,53685,34362
14429,53688,34367
14449,53698,34379
14472,53711,34396
14495,53722,34409
14520,53732,34419
14543,53741,34429
14561,53747,34440
14573,53749,34449
14581,53751,34457
14587,53757,34467
14589,53761,34474
14586,53760,34472
14583,53754,34466
14583,53748,34458
14581,53739,34446
14577,53724,34425
14572,53707,34399
14569,53693,34374
14566,53683,34351
14565,53676,34324
14564,53666,34294
14560,53654,34264
14546,53640,34233
14527,53623,34198
14509,53605,34162
14491,53584,34127
14469,53562,34094
14446,53541,34060
14426,53524,34028
14408,53509,33997
14387,53495,33966
14366,53479,33933
14348,53461,33901
14329,53444,33871
14309,53429,33840
14289,53414,33807
14271,53399,33774
14255,53382,33745
14241,53367,33717
14231,53357,33691
14225,53349,33667
14220,53341,33647
14210,53331,33622
14196,53316,33591
14177,53299,33556
14151,53279,33520
14120,53257,33482
14086,53232,33440
14053,53210,33399
14020,53193,33362
13992,53178,33329
13969,53165,33299
13946,53152,33274
13920,53137,33251
13891,53116,33222
13863,53091,33183
13837,53067,33139
13811,53043,33092
13784,53018,33042
13758,52995,32992
13732,52975,32950
13705,52955,32914
13683,52935,32881
13667,52917,32849
13653,52901,32819
13634,52886,32790
13614,52871,32758
13593,52856,32724
13568,52837,32689
13539,52813,32651
13505,52785,32608
13472,52757,32563
13439,52733,32520
13404,52713,32479
13371,52697,32435
13343,52684,32394
13317,52671,32357
13289,52656,32316
13258,52637,32268
13227,52612,32216
13191,52581,32162
13152,52548,32106
13110,52514,32050
13069,52483,31997
13032,52456,31949
12999,52434,31903
12972,52415,31857
12949,52399,31818
12929,52386,31786
12911,52376,31757
12899,52374,31734
12894,52377,31726
12896,52385,31735
12909,52398,31762
12936,52420,31812
12976,52454,31886
13028,52499,31982
13091,52554,32095
13165,52618,32224
13250,52687,32366
13342,52758,32515
13438,52828,32664
13532,52898,32814
13622,52968,32965
13707,53034,33114
13787,53094,33253
13862,53151,33382
13933,53207,33508
13998,53262,33626
14058,53314,33732
14116,53363,33827
14168,53404,33911
14212,53436,33979
14248,53456,34032
14277,53468,34076
14301,53475,34114
14321,53479,34147
14339,53485,34176
14358,53500,34205
14381,53526,34234
14407,53556,34266
14433,53587,34301
14460,53619,34340
14488,53650,34384
14516,53678,34430
14545,53703,34476
14577,53728,34523
14612,53750,34569
14641,53769,34608
14665,53786,34646
14686,53805,34689
14704,53823,34735
14722,53839,34778
14739,53853,34816
14753,53869,34852
14764,53881,34881
14770,53887,34898
14772,53888,34907
14771,53889,34911
14767,53892,34911
14758,53892,34904
14749,53890,34891
14741,53885,34876
14733,53877,34857
14724,53866,34838
14717,53858,34823
14714,53852,34813
14714,53849,34806
14717,53848,34797
14721,53853,34792
14729,53862,34794
14742,53870,34799
14757,53876,34802
14772,53881,34805
14786,53885,34810
14796,53883,34813
14802,53876,34812
14804,53869,34808
14802,53862,34804
14797,53856,34798
14792,53853,34789
14790,53850,34780
14788,53847,34772
14784,53842,34760
14783,53837,34743
14784,53832,34726
14782,53825,34707
14776,53815,34683
14764,53802,34654
14745,53783,34623
14718,53762,34592
14688,53742,34563
14658,53725,34535
14625,53710,34508
14593,53693,34477
14561,53671,34438
14530,53645,34392
14501,53619,34346
14469,53594,34301
14435,53569,34253
14402,53542,34205
14369,53514,34162
14336,53489,34125
14301,53464,34089
14268,53441,34055
14237,53421,34023
14206,53404,33991
14177,53387,33953
14150,53372,33911
14120,53357,33864
14085,53338,33813
14044,53314,33757
14000,53289,33703
13956,53265,33654
13912,53241,33610
13869,53217,33568
13830,53197,33532
13793,53179,33497
13756,53159,33460
13718,53136,33417
13679,53114,33373
13641,53092,33329
13604,53068,33286
13571,53045,33246
13540,53025,33212
13507,53008,33184
13471,52992,33159
13438,52980,33130
13407,52972,33100
13373,52965,33066
13338,52954,33027
13302,52942,32983
13266,52929,32942
13227,52911,32905
13189,52889,32865
13155,52866,32825
13125,52848,32792
13096,52835,32760
13068,52827,32724
13041,52821,32685
13013,52816,32648
12977,52804,32611
12936,52786,32568
12896,52763,32518
12859,52738,32470
12819,52713,32422
12778,52688,32373
12735,52664,32327
12694,52644,32284
12655,52626,32240
12619,52610,32194
12587,52595,32148
12555,52579,32103
12519,52557,32055
12478,52529,31999
12434,52499,31939
12388,52468,31880
12340,52439,31826
12293,52412,31774
12250,52388,31724
12210,52368,31679
12169,52352,31637
12129,52339,31599
12091,52325,31564
12055,52310,31531
12021,52294,31499
11992,52280,31472
11972,52270,31456
11959,52266,31458
11957,52271,31480
11968,52289,31524
11995,52322,31590
12036,52371,31679
12087,52431,31789
12147,52499,31918
12215,52572,32060
12285,52649,32211
12357,52725,32360
12433,52795,32503
12511,52860,32642
12587,52918,32774
12660,52969,32894
12730,53020,33007
12797,53069,33114
12858,53112,33210
12908,53149,33294
12952,53184,33367
12994,53216,33429
13029,53242,33479
13055,53260,33518
13074,53274,33549
13088,53287,33576
13097,53301,33600
13106,53320,33626
13121,53341,33653
13142,53363,33684
13162,53386,33716
13179,53409,33744
13194,53429,33768
13206,53444,33792
13216,53459,33816
13227,53477,33844
13242,53500,33880
13260,53526,33925
13276,53550,33971
13292,53573,34016
13308,53594,34059
13324,53611,34096
13338,53625,34123
13349,53637,34138
13356,53645,34146
13358,53647,34148
13356,53644,34145
13352,53641,34141
13347,53641,34141
13342,53638,34140
13336,53629,34133
13332,53617,34120
13331,53607,34106
13329,53599,34091
13323,53590,34073
13314,53580,34052
13302,53571,34034
13287,53563,34020
13275,53556,34010
13270,53553,34006
13272,53556,34013
13277,53564,34024
13287,53571,34030
13300,53577,34033
13315,53582,34034
13324,53587,34034
13331,53593,34031
13342,53598,34027
13354,53603,34024
13364,53606,34019
13372,53606,34014
13376,53604,34009
13375,53598,34003
13369,53587,33994
13357,53573,33978
13339,53555,33958
13314,53536,33935
13285,53518,33912
13256,53502,33885
13232,53487,33853
13211,53471,33819
13193,53453,33783
13176,53433,33746
13161,53413,33707
13146,53393,33664
13131,53370,33616
13115,53346,33568
13101,53325,33525
13087,53302,33484
13070,53280,33443
13052,53261,33402
13035,53246,33362
13018,53230,33321
12999,53212,33282
12981,53198,33247
12964,53191,33217
12948,53184,33189
12930,53174,33158
12912,53162,33127
12893,53149,33100
12872,53134,33077
12851,53120,33054
12834,53107,33031
12818,53093,33010
12801,53078,32991
12783,53063,32968
12764,53047,32941
12745,53027,32913
12724,53006,32880
12700,52984,32841
12675,52960,32800
12650,52936,32762
12627,52912,32726
12606,52893,32690
12589,52878,32656
12575,52867,32624
12556,52857,32591
12533,52845,32555
12510,52832,32515
12488,52817,32473
12464,52799,32429
12437,52775,32383
12407,52750,32337
12374,52724,32292
12340,52699,32244
12308,52676,32197
12275,52654,32153
12237,52630,32115
12203,52606,32081
12174,52584,32051
12150,52562,32023
12125,52541,31993
12099,52522,31956
12075,52507,31912
12052,52492,31865
12026,52476,31816
12002,52457,31766
11979,52434,31713
11952,52409,31660
11918,52381,31605
11882,52352,31551
11849,52327,31501
11821,52304,31456
11795,52281,31416
11770,52261,31380
11748,52247,31350
11733,52241,31331
11725,52239,31326
11726,52240,31335
11742,52251,31364
11772,52271,31414
11812,52299,31481
11863,52337,31562
11926,52389,31663
11998,52451,31782
12077,52518,31913
12162,52589,32053
12255,52668,32203
12353,52752,32360
12451,52834,32515
12548,52910,32661
12639,52980,32798
12718,53039,32923
12786,53088,33032
12847,53131,33126
12901,53168,33207
12946,53198,33273
12983,53220,33322
13016,53237,33356
13048,53251,33383
13076,53259,33408
13102,53261,33428
13124,53264,33443
13144,53271,33460
13160,53284,33479
13174,53301,33496
13190,53318,33514
13207,53335,33538
13224,53351,33568
13243,53369,33604
13270,53390,33644
13302,53412,33684
13333,53433,33724
13364,53450,33758
13393,53467,33786
13420,53482,33813
13439,53493,33839
13452,53502,33864
13463,53511,33885
13472,53520,33907
13479,53527,33926
13483,53532,33939
13482,53537,33943
13478,53541,33939
13471,53541,33927
13466,53538,33909
13465,53535,33892
13465,53530,33876
13465,53524,33860
13465,53515,33839
13464,53508,33820
13460,53501,33808
13458,53498,33804
13465,53499,33805
13478,53505,33812
13492,53513,33824
13505,53522,33836
13521,53532,33848
13541,53543,33862
13559,53553,33875
13573,53561,33884
13590,53566,33888
13609,53573,33891
13627,53578,33892
13643,53582,33891
13657,53587,33888
13672,53592,33884
13684,53595,33878
13690,53595,33869
13692,53593,33858
13691,53590,33846
13687,53585,33830
13680,53575,33805
13670,53562,33773
13659,53547,33741
13643,53531,33707
13625,53511,33669
13603,53486,33629
13581,53461,33593
13558,53437,33560
13537,53416,33526
13520,53399,33491
13503,53386,33456
13487,53374,33421
13475,53364,33388
13466,53358,33361
13457,53353,33335
13449,53346,33307
13443,53339,33275
13437,53330,33239
13425,53318,33202
13407,53301,33163
13388,53282,33124
13372,53264,33090
13357,53246,33061
13338,53226,33032
13316,53203,32998
13294,53181,32964
13274,53159,32930
13252,53137,32893
13230,53115,32856
13211,53096,32824
13194,53082,32796
13179,53072,32767
13168,53064,32737
13162,53059,32709
13155,53053,32682
13147,53044,32652
13136,53033,32616
13123,53019,32574
13100,52997,32527
13064,52965,32476
13019,52925,32421
12971,52881,32367
12921,52839,32315
12872,52800,32263
12831,52767,32214
12795,52738,32169
12762,52714,32125
12730,52694,32079
12704,52676,32036
12681,52658,31997
12659,52639,31959
12639,52621,31918
12623,52601,31877
12606,52582,31835
12589,52565,31790
12569,52548,31743
12548,52527,31696
12524,52502,31650
12495,52473,31601
12460,52443,31548
12421,52411,31492
12378,52379,31435
12333,52343,31375
12287,52306,31314
12247,52272,31258
12213,52242,31209
12186,52216,31163
12164,52195,31125
12148,52180,31098
12137,52169,31080
12135,52163,31071
12143,52166,31076
12162,52182,31098
12191,52209,31139
12230,52246,31200
12279,52294,31286
12339,52352,31396
12409,52416,31521
12487,52481,31657
12574,52549,31803
12668,52621,31960
12765,52693,32120
12864,52763,32279
12961,52832,32439
13055,52897,32596
13143,52957,32741
13221,53011,32869
13291,53063,32982
13353,53110,33084
13410,53151,33175
13461,53187,33253
13509,53221,33321
13555,53254,33382
13594,53281,33433
13625,53302,33473
13653,53322,33509
13677,53344,33542
13698,53365,33575
13718,53382,33604
13739,53397,33634
13762,53413,33668
13786,53430,33702
13808,53449,33736
13829,53470,33774
13850,53493,33817
13874,53517,33861
13903,53541,33904
13934,53565,33949
13964,53585,33993
13989,53603,34034
14011,53621,34072
14034,53642,34113
14056,53661,34153
14074,53676,34187
14088,53687,34213
14098,53693,34232
14102,53696,34243
14103,53696,34244
14103,53695,34240
14101,53691,34233
14095,53683,34221
14085,53669,34201
14074,53652,34177
14061,53636,34155
14048,53618,34134
14035,53601,34115
14026,53588,34101
14022,53582,34094
14021,53581,34090
14021,53581,34085
14025,53580,34079
14029,53579,34075
14032,53576,34069
14034,53572,34059
14035,53566,34047
14034,53558,34034
14030,53547,34020
14026,53535,34004
14019,53525,33989
14009,53514,33977
13996,53505,33965
13982,53499,33952
13969,53496,33941
13960,53494,33930
13949,53488,33914
13933,53475,33893
13913,53457,33869
13889,53435,33843
13863,53410,33809
13838,53387,33769
13812,53368,33731
13783,53353,33698
13754,53340,33666
13727,53328,33635
13702,53316,33605
13675,53306,33576
13644,53296,33545
13613,53282,33510
13582,53265,33475
13548,53245,33437
13514,53223,33393
13482,53198,33347
13451,53174,33301
13418,53149,33257
13386,53126,33217
13358,53107,33181
13332,53094,33152
13304,53083,33124
13275,53072,33091
13248,53060,33053
13223,53046,33015
13197,53031,32975
13171,53015,32932
13146,52999,32890
13120,52983,32853
13094,52968,32820
13066,52957,32788
13035,52945,32758
13003,52933,32730
12973,52922,32702
12945,52914,32670
12920,52909,32640
12896,52904,32611
12871,52895,32581
12848,52883,32551
12828,52875,32523
12806,52870,32496
12782,52864,32466
12755,52858,32436
12731,52852,32410
12709,52848,32387
12686,52844,32362
12661,52839,32335
12636,52835,32311
12608,52828,32286
12578,52816,32256
12549,52803,32219
12520,52789,32183
12489,52772,32145
12453,52751,32101
12413,52726,32054
12370,52701,32008
12325,52677,31963
12281,52654,31919
12241,52634,31878
12202,52619,31841
12164,52606,31804
12127,52593,31764
12094,52580,31719
12060,52564,31673
12025,52545,31627
11987,52521,31580
11947,52495,31533
11908,52468,31491
11872,52444,31459
11841,52429,31439
11821,52425,31434
11810,52431,31446
11808,52445,31474
11818,52469,31521
11843,52501,31585
11879,52542,31668
11922,52587,31765
11972,52640,31875
12031,52700,31994
12093,52766,32123
12156,52833,32254
12224,52900,32383
12294,52968,32509
12359,53032,32631
12416,53088,32746
12468,53137,32852
12512,53181,32954
12550,53223,33051
12583,53260,33135
12614,53293,33207
12645,53321,33273
12674,53342,33333
12695,53358,33381
12707,53376,33418
12711,53394,33446
12711,53411,33467
12708,53424,33478
12702,53434,33484
12694,53444,33490
12685,53455,33498
12680,53465,33508
12678,53474,33522
12680,53483,33544
12687,53495,33573
12697,53509,33606
12708,53527,33643
12719,53545,33682
12727,53563,33720
12736,53580,33754
12748,53595,33786
12759,53607,33815
12764,53614,33836
12762,53619,33848
12754,53621,33855
12740,53618,33856
12723,53610,33853
12706,53599,33844
12691,53589,33833
12675,53578,33820
12656,53569,33803
12635,53563,33783
12615,53558,33763
12600,53551,33747
12585,53541,33731
12570,53529,33713
12554,53518,33698
12534,53505,33682
12512,53491,33663
12491,53481,33645
12477,53476,33634
12469,53477,33632
12466,53481,33636
12465,53487,33644
12466,53493,33650
12467,53498,33651
12466,53497,33646
12463,53493,33634
12455,53486,33618
12441,53473,33597
12420,53454,33569
12394,53432,33538
12364,53409,33507
12331,53385,33474
12297,53361,33437
12263,53337,33402
12232,53314,33370
12205,53296,33340
12179,53280,33307
12157,53265,33272
12137,53247,33236
12114,53224,33196
12086,53197,33147
12051,53167,33094
12015,53138,33040
11981,53114,32987
11946,53093,32936
11912,53077,32890
11880,53063,32853
11853,53051,32819
11833,53041,32786
11817,53032,32751
11801,53020,32714
11782,53000,32672
11760,52975,32625
11736,52950,32582
11709,52926,32542
11681,52903,32505
11659,52885,32474
11642,52871,32448
11629,52861,32424
11617,52853,32399
11606,52844,32369
11592,52833,32334
11573,52818,32295
11549,52796,32251
11522,52768,32203
11491,52737,32157
11456,52706,32113
11421,52676,32069
11391,52650,32027
11365,52629,31990
11343,52614,31955
11321,52601,31917
11303,52587,31877
11288,52571,31836
11271,52551,31793
11250,52528,31749
11226,52505,31703
11200,52483,31660
11173,52463,31618
11149,52443,31578
11131,52428,31540
11116,52415,31505
11098,52403,31469
11076,52389,31428
11053,52373,31384
11029,52354,31340
11003,52333,31298
10978,52312,31258
10953,52293,31221
10929,52277,31189
10907,52264,31160
10890,52252,31130
10874,52241,31101
10860,52230,31072
10845,52218,31043
10832,52208,31019
10822,52202,31002
10817,52199,30994
10820,52198,30996
10834,52201,31016
10860,52214,31059
10895,52237,31123
10939,52269,31203
10996,52310,31296
11062,52359,31399
11131,52412,31506
11201,52465,31612
11273,52517,31718
11346,52569,31826
11415,52619,31934
11479,52663,32036
11540,52705,32135
11599,52745,32231
11654,52782,32318
11701,52815,32391
11742,52843,32452
11778,52869,32509
11810,52893,32558
11841,52917,32595
11872,52939,32622
11897,52955,32643
11914,52963,32656
11925,52966,32660
11935,52967,32662
11948,52970,32669
11963,52976,32680
11981,52986,32693
12003,53001,32708
12026,53017,32726
12051,53033,32741
12079,53049,32756
12109,53064,32776
12136,53078,32799
12157,53088,32818
12175,53097,32832
12197,53106,32849
12218,53110,32865
12236,53114,32875
12250,53120,32879
12264,53127,32879
12278,53132,32875
12290,53132,32866
12300,53132,32852
12306,53130,32837
12306,53125,32820
12306,53118,32800
12307,53110,32777
12307,53102,32760
12303,53092,32749
12300,53080,32738
12302,53072,32731
12310,53068,32728
12321,53068,32729
12339,53076,32734
12364,53090,32746
12392,53108,32766
12415,53126,32789
12434,53142,32805
12453,53152,32815
12469,53158,32819
12479,53163,32818
12486,53168,32815
12492,53170,32809
12493,53166,32803
12491,53157,32793
12486,53147,32781
12481,53141,32771
12477,53137,32760
12470,53130,32743
12462,53120,32718
12452,53107,32692
12436,53092,32663
12413,53073,32630
12388,53050,32594
12366,53027,32559
12347,53005,32523
12330,52983,32486
12319,52964,32449
12313,52950,32416
12308,52941,32387
12300,52930,32354
12289,52914,32317
12271,52897,32285
12246,52878,32254
12220,52858,32222
12196,52841,32187
12175,52827,32154
12156,52813,32122
12139,52798,32090
12129,52786,32058
12121,52774,32028
12114,52758,31996
12103,52737,31961
12090,52718,31923
12073,52699,31885
12055,52680,31848
12038,52662,31814
12026,52647,31785
12017,52632,31761
12007,52616,31739
11995,52598,31713
11981,52583,31685
11966,52568,31654
11946,52552,31620
11923,52533,31582
11896,52513,31543
11870,52494,31507
11845,52477,31472
11826,52461,31439
11812,52448,31409
11800,52438,31383
11789,52431,31356
11780,52427,31327
11770,52424,31300
11756,52420,31275
11736,52414,31248
11713,52405,31220
11691,52397,31193
11667,52387,31166
11640,52371,31134
11616,52352,31099
11594,52333,31063
11573,52315,31023
11550,52294,30977
11521,52269,30926
11491,52242,30875
11460,52211,30824
11431,52179,30773
11406,52152,30726
11386,52133,30689
11368,52119,30660
11352,52108,30639
11343,52101,30628
11342,52100,30627
11345,52104,30634
11352,52114,30652
11369,52131,30688
11395,52157,30742
11430,52193,30812
11475,52238,30896
11530,52291,30998
11592,52348,31116
11659,52407,31245
11734,52468,31376
11818,52530,31509
11905,52591,31644
11988,52647,31772
12064,52699,31891
12132,52747,32001
12191,52788,32104
12243,52821,32200
12293,52850,32287
12344,52881,32369
12391,52912,32444
12431,52939,32507
12468,52964,32558
12501,52988,32601
12526,53011,32639
12545,53029,32670
12562,53044,32699
12582,53059,32730
12602,53072,32764
12622,53082,32799
12645,53095,32837
12673,53117,32886
12706,53148,32942
12744,53181,32996
12788,53211,33047
12833,53240,33099
12876,53267,33150
12918,53291,33198
12956,53313,33240
12991,53335,33281
13020,53356,33321
13043,53376,33356
13066,53397,33388
13089,53419,33418
13107,53436,33441
13119,53448,33454
13126,53457,33463
13130,53464,33467
13130,53465,33466
13127,53457,33457
13125,53444,33442
13121,53429,33424
13113,53412,33404
13101,53395,33382
13088,53382,33362
13078,53373,33348
13073,53369,33338
13073,53368,33330
13074,53368,33327
13078,53369,33329
13082,53368,33330
13085,53364,33326
13088,53359,33320
13091,53355,33316
13093,53348,33311
13096,53342,33306
13098,53340,33303
13099,53340,33304
13102,53341,33306
13109,53346,33307
13118,53351,33306
13123,53354,33304
13124,53350,33296
13123,53343,33281
13120,53335,33264
13114,53326,33244
13107,53314,33220
13100,53298,33192
13088,53281,33162
13071,53263,33130
13054,53247,33095
13041,53230,33056
13027,53212,33017
13009,53196,32979
12993,53180,32943
12983,53167,32912
12978,53155,32890
12971,53139,32868
12958,53116,32837
12940,53092,32799
12919,53070,32759
12896,53050,32717
12873,53030,32670
12852,53009,32626
12832,52988,32586
12814,52966,32547
12797,52944,32509
12781,52927,32478
12768,52915,32455
12760,52905,32433
12754,52896,32408
12747,52888,32387
12742,52882,32372
12734,52873,32357
12721,52860,32340
12705,52846,32320
12688,52831,32297
12671,52815,32270
12656,52802,32240
12645,52793,32215
12637,52785,32196
12627,52773,32174
12614,52761,32147
12599,52752,32122
12584,52744,32096
12568,52733,32068
12554,52725,32039
12541,52718,32010
12526,52706,31977
12508,52689,31937
12487,52669,31892
12462,52647,31846
12430,52623,31800
12398,52600,31755
12367,52579,31714
12335,52559,31675
12302,52539,31638
12270,52524,31607
12240,52514,31579
12213,52507,31554
12189,52498,31528
12166,52485,31499
12147,52472,31470
12129,52458,31440
12109,52441,31406
12086,52421,31363
12061,52402,31316
12032,52379,31270
12001,52352,31222
11972,52322,31170
11944,52294,31122
11915,52271,31085
11888,52255,31055
11864,52243,31032
11846,52235,31022
11833,52228,31028
11822,52225,31043
11817,52230,31068
11822,52246,31105
11841,52270,31152
11873,52303,31212
11916,52344,31285
11968,52393,31377
12028,52449,31489
12093,52510,31615
12166,52576,31751
12242,52645,31893
12318,52711,32036
12394,52773,32171
12471,52833,32297
12546,52891,32415
12611,52942,32520
12667,52987,32609
12716,53028,32682
12758,53065,32743
12789,53096,32796
12813,53121,32845
12834,53143,32889
12853,53165,32933
12869,53185,32977
12886,53205,33017
12907,53224,33054
12929,53243,33091
12948,53260,33125
12961,53277,33154
12972,53296,33183
12981,53317,33213
12988,53333,33245
12996,53347,33277
13009,53364,33314
13026,53384,33357
13049,53409,33406
13082,53441,33459
13121,53476,33515
13158,53507,33566
13184,53534,33607
13203,53556,33637
13216,53574,33664
13220,53586,33688
13218,53591,33706
13212,53590,33716
13207,53587,33724
13198,53586,33730
13183,53585,33727
13166,53582,33716
13150,53580,33707
13136,53578,33699
13124,53577,33685
13114,53576,33665
13103,53574,33646
13086,53565,33628
13068,53552,33610
13052,53541,33594
13037,53535,33585
13025,53534,33583
13013,53537,33583
13004,53544,33585
12995,53551,33591
12986,53555,33596
12976,53555,33593
12966,53551,33587
12955,53544,33583
12943,53539,33579
12929,53536,33571
12914,53535,33559
12894,53534,33546
12871,53532,33534
12850,53526,33523
12831,53521,33512
12810,53515,33502
12787,53505,33486
12763,53490,33458
12740,53474,33422
12714,53457,33381
12685,53437,33338
12655,53415,33294
12625,53396,33252
12593,53379,33214
12558,53362,33178
12522,53347,33143
12488,53333,33113
12455,53318,33086
12421,53300,33057
12389,53279,33025
12359,53260,32993
12330,53242,32959
12297,53222,32918
12265,53199,32874
12233,53176,32834
12199,53155,32796
12164,53134,32755
12133,53114,32714
12106,53097,32677
12080,53081,32645
12056,53065,32612
12034,53052,32580
12010,53039,32548
11981,53020,32507
11947,52994,32459
11910,52965,32407
11872,52937,32357
11836,52912,32310
11802,52886,32265
11770,52861,32223
11736,52835,32180
11698,52807,32132
11659,52778,32081
11622,52751,32031
11586,52722,31982
11547,52687,31930
11505,52649,31874
11460,52611,31820
11413,52576,31771
11364,52542,31722
11316,52511,31671
11271,52484,31620
11226,52458,31569
11184,52433,31518
11147,52408,31467
11113,52383,31415
11078,52355,31362
11041,52324,31307
11005,52289,31249
10970,52254,31192
10934,52221,31134
10897,52192,31077
10858,52167,31024
10818,52148,30978
10778,52131,30938
10741,52113,30896
10706,52095,30852
10675,52076,30811
10643,52053,30769
10610,52025,30721
10579,51995,30672
10551,51965,30625
10522,51935,30577
10489,51902,30524
10452,51866,30471
10414,51831,30420
10378,51797,30372
10346,51766,30327
10321,51746,30292
10306,51738,30272
10302,51737,30267
10310,51742,30274
10330,51754,30298
10359,51775,30342
10396,51803,30402
10441,51837,30479
10496,51877,30575
10558,51924,30684
10623,51976,30800
10691,52033,30920
10765,52094,31044
10842,52157,31173
10921,52220,31301
11002,52282,31422
11080,52338,31537
11149,52387,31644
11202,52428,31735
11242,52464,31806
11272,52497,31862
11292,52524,31906
11306,52544,31939
11320,52561,31967
11335,52574,31993
11349,52584,32015
11362,52591,32032
11375,52598,32047
11391,52606,32061
11406,52613,32075
11422,52619,32087
11438,52628,32102
11452,52642,32123
11468,52658,32150
11488,52678,32179
11513,52701,32212
11540,52727,32251
11567,52756,32293
11596,52782,32335
11623,52806,32377
11644,52826,32420
11658,52840,32458
11668,52848,32488
11678,52854,32509
11688,52860,32524
11699,52866,32531
11707,52870,32530
11713,52871,32522
11714,52865,32509
11711,52854,32492
11705,52840,32469
11700,52827,32447
11698,52818,32428
11693,52808,32409
11690,52798,32391
11689,52792,32377
11688,52789,32367
11686,52789,32358
11687,52790,32347
11690,52791,32340
11693,52789,32336
11695,52782,32332
11697,52774,32326
11702,52773,32327
11711,52779,32335
11721,52789,32341
11730,52803,32342
11739,52814,32343
11745,52819,32339
11749,52822,32328
11752,52823,32311
11753,52819,32292
11747,52810,32271
11739,52798,32246
11733,52786,32219
11730,52776,32198
11726,52763,32177
11722,52748,32150
11719,52735,32119
11715,52723,32087
11707,52707,32050
11693,52684,32005
11677,52658,31956
11658,52630,31906
11639,52601,31855
11620,52572,31806
11601,52543,31761
11584,52517,31722
11569,52497,31686
11561,52487,31653
11561,52482,31625
11567,52478,31602
11573,52473,31578
11581,52467,31549
11588,52463,31520
11592,52455,31492
11592,52447,31466
11591,52440,31445
11591,52434,31428
11591,52428,31412
11590,52420,31391
11589,52409,31366
11590,52394,31341
11588,52379,31313
11579,52364,31279
11565,52346,31239
11549,52328,31199
11532,52308,31158
11512,52284,31117
11491,52263,31078
11471,52246,31045
11455,52231,31013
11441,52215,30978
11428,52196,30943
11412,52177,30910
11394,52157,30879
11375,52132,30846
11357,52109,30812
11338,52090,30782
11315,52072,30751
11294,52051,30715
11279,52029,30680
11267,52013,30649
11257,52001,30620
11248,51991,30590
11239,51982,30561
11228,51971,30531
11215,51957,30499
11201,51945,30463
11187,51936,30426
11170,51926,30390
11152,51914,30354
11134,51902,30319
11117,51889,30284
11100,51872,30251
11083,51853,30216
11066,51833,30178
11047,51813,30139
11026,51792,30101
11003,51775,30064
10985,51761,30029
10971,51750,30000
10957,51737,29977
10942,51723,29956
10928,51713,29936
10919,51707,29924
10920,51708,29922
10926,51715,29928
10939,51728,29940
10959,51748,29969
10988,51771,30016
11024,51797,30079
11070,51828,30158
11124,51869,30258
11187,51920,30377
11258,51980,30507
11338,52047,30646
11426,52119,30794
11517,52193,30943
11609,52268,31090
11697,52341,31233
11779,52410,31371
11853,52471,31499
11917,52521,31610
11971,52563,31707
12019,52599,31799
12063,52633,31883
12107,52667,31959
12150,52703,32028
12191,52740,32092
12230,52771,32148
12266,52795,32192
12301,52815,32227
12334,52833,32257
12363,52850,32284
12390,52868,32310
12417,52891,32342
12444,52916,32384
12470,52942,32430
12499,52970,32479
12532,53000,32530
12566,53033,32582
12603,53065,32633
12643,53096,32683
12684,53126,32734
12723,53154,32784
12757,53179,32828
12787,53200,32866
12814,53219,32903
12841,53234,32938
12867,53245,32969
12891,53256,32993
12913,53266,33011
12930,53273,33025
12943,53276,33031
12951,53272,33026
12955,53264,33013
12956,53252,32996
12953,53237,32979
12951,53226,32968
12950,53221,32963
12949,53219,32962
12953,53221,32963
12963,53229,32967
12975,53241,32975
12987,53256,32983
13001,53269,32990
13018,53282,32999
13033,53289,33006
13043,53290,33009
13051,53291,33009
13062,53293,33011
13075,53296,33015
13090,53298,33018
13105,53302,33018
13123,53310,33018
13141,53319,33019
13157,53325,33016
13173,53329,33008
13187,53332,32997
13193,53331,32983
13194,53326,32965
13194,53320,32947
13195,53315,32932
13195,53310,32919
13193,53305,32902
13191,53303,32886
13189,53303,32872
13188,53301,32858
13185,53293,32836
13179,53276,32805
13167,53249,32765
13147,53218,32719
13122,53190,32670
13100,53169,32629
13087,53160,32605
13077,53162,32595
13070,53169,32588
13066,53177,32580
13061,53183,32570
13052,53183,32554
13037,53178,32527
13017,53167,32493
12992,53147,32456
12965,53122,32416
12937,53094,32374
12910,53067,32334
12884,53039,32300
12860,53011,32267
12840,52985,32234
12823,52965,32204
12809,52946,32176
12794,52926,32146
12779,52909,32114
12767,52894,32082
12753,52876,32047
12737,52856,32012
12724,52841,31980
12717,52833,31955
12713,52829,31935
12709,52824,31913
12706,52820,31891
12703,52816,31866
12696,52808,31837
12682,52791,31802
12659,52767,31760
12630,52741,31720
12596,52715,31683
12563,52689,31647
12532,52665,31611
12503,52646,31576
12475,52626,31541
12445,52604,31502
12416,52580,31460
12385,52553,31413
12346,52519,31360
12303,52481,31305
12259,52445,31256
12218,52415,31216
12181,52390,31181
12149,52366,31144
12126,52346,31104
12106,52326,31066
12083,52306,31029
12057,52283,30986
12027,52257,30942
11994,52232,30900
11960,52208,30858
11929,52189,30816
11899,52174,30778
11870,52160,30746
11842,52142,30711
11811,52120,30669
11779,52098,30627
11749,52077,30588
11719,52059,30555
11696,52046,30530
11681,52042,30519
11674,52042,30522
11677,52048,30538
11695,52065,30570
11722,52091,30622
11755,52123,30692
11794,52162,30776
11841,52207,30873
11896,52260,30988
11956,52319,31117
12021,52383,31255
12090,52449,31397
12161,52516,31542
12229,52579,31684
12292,52639,31819
12352,52697,31945
12410,52751,32063
12461,52798,32169
12506,52838,32261
12548,52875,32342
12586,52911,32416
12616,52945,32482
12643,52976,32538
12670,53007,32587
12694,53036,32629
12711,53059,32663
12725,53079,32687
12734,53098,32708
12739,53113,32729
12742,53125,32750
12747,53135,32772
12755,53147,32799
12770,53162,32832
12787,53179,32867
12803,53196,32903
12821,53216,32944
12840,53240,32991
12859,53265,33038
12881,53291,33084
12904,53319,33135
12923,53347,33192
12937,53373,33247
12950,53397,33296
12963,53421,33339
12972,53441,33375
12977,53454,33400
12982,53462,33415
12986,53468,33423
12984,53472,33425
12977,53472,33417
12967,53471,33401
12953,53469,33382
12933,53461,33362
12907,53450,33341
12884,53446,33322
12865,53447,33308
12846,53448,33297
12828,53446,33285
12810,53447,33275
12793,53447,33266
12776,53443,33256
12759,53435,33244
12743,53429,33235
12729,53427,33233
12715,53426,33236
12704,53426,33240
12697,53428,33244
12689,53431,33246
12677,53434,33245
12664,53432,33240
12649,53427,33232
12629,53420,33219
12605,53412,33204
12580,53406,33186
12556,53403,33170
12534,53402,33156
12512,53399,33141
12488,53398,33122
12460,53395,33101
12426,53386,33075
12383,53368,33041
12336,53345,33000
12288,53320,32959
12240,53292,32921
12192,53261,32879
12150,53230,32834
12112,53202,32792
12075,53177,32753
12036,53153,32715
11997,53133,32677
11960,53117,32643
11923,53102,32608
11886,53084,32573
11850,53065,32536
11817,53047,32503
11784,53032,32471
11750,53021,32437
11717,53012,32399
11684,52999,32358
11647,52979,32313
11608,52955,32268
11569,52933,32228
11529,52916,32198
11489,52902,32177
11453,52893,32162
11422,52889,32148
11393,52887,32133
11362,52883,32116
11326,52874,32090
11287,52863,32058
11244,52851,32023
11198,52835,31984
11149,52815,31941
11101,52795,31901
11058,52776,31868
11017,52754,31837
10976,52730,31805
10935,52705,31774
10892,52683,31745
10844,52662,31715
10796,52646,31685
10750,52635,31653
10706,52627,31621
10661,52617,31581
10615,52604,31532
10570,52588,31484
10523,52567,31438
10477,52541,31392
10432,52512,31348
10390,52486,31308
10349,52462,31272
10308,52437,31231
10270,52414,31186
10232,52390,31143
10190,52367,31100
10144,52340,31050
10093,52309,30995
10038,52277,30943
9980,52243,30892
9923,52211,30835
9870,52180,30779
9819,52151,30727
9766,52121,30679
9710,52087,30630
9651,52051,30577
9590,52017,30523
9533,51983,30469
9490,51952,30419
9460,51928,30381
9437,51914,30359
9420,51904,30351
9409,51895,30351
9408,51895,30362
9416,51904,30383
9429,51922,30413
9451,51948,30455
9484,51984,30513
9529,52025,30587
9581,52072,30676
9640,52126,30778
9706,52187,30890
9773,52247,31008
9838,52300,31125
9898,52347,31236
9951,52393,31341
9996,52435,31438
10038,52474,31528
10082,52511,31612
10126,52547,31689
10162,52577,31753
10190,52601,31804
10211,52620,31843
10227,52633,31870
10237,52640,31886
10243,52640,31890
10247,52640,31888
10252,52643,31885
10259,52648,31884
10267,52655,31886
10277,52665,31894
10287,52677,31909
10298,52693,31929
10313,52708,31949
10334,52726,31969
10358,52750,31995
10382,52773,32021
10403,52790,32044
10422,52803,32064
10440,52817,32087
10457,52831,32111
10470,52843,32132
10476,52851,32149
10477,52854,32160
10476,52853,32162
10475,52851,32155
10473,52845,32142
10467,52836,32123
10456,52823,32097
10446,52811,32069
10442,52802,32045
10440,52797,32030
10438,52795,32016
10440,52796,32001
10447,52799,31989
10454,52803,31976
10460,52805,31960
10463,52805,31943
10464,52804,31931
10462,52801,31926
10462,52799,31927
10470,52804,31935
10485,52816,31950
10502,52829,31964
10515,52840,31974
10527,52851,31982
10539,52864,31994
10549,52878,32006
10559,52887,32015
10568,52894,32019
10574,52898,32021
10571,52895,32018
10565,52885,32005
10559,52869,31983
10552,52857,31957
10542,52846,31926
10531,52831,31888
10517,52813,31849
10500,52793,31812
10481,52771,31773
10463,52749,31731
10445,52730,31689
10428,52716,31652
10412,52705,31615
10399,52698,31575
10388,52691,31535
10376,52681,31496
10361,52665,31457
10344,52643,31415
10330,52619,31375
10319,52597,31338
10310,52581,31303
10302,52569,31269
10296,52559,31237
10289,52546,31207
10276,52527,31172
10260,52508,31131
10242,52492,31089
10219,52477,31048
10193,52459,31006
10167,52439,30963
10144,52419,30924
10121,52398,30890
10099,52376,30860
10082,52362,30836
10068,52357,30815
10055,52353,30795
10038,52345,30769
10019,52331,30735
9998,52312,30697
9969,52286,30652
9937,52255,30602
9907,52225,30554
9878,52198,30511
9849,52171,30468
9825,52144,30426
9805,52121,30389
9786,52100,30356
9765,52083,30322
9744,52069,30285
9725,52059,30247
9703,52047,30211
9678,52031,30175
9651,52013,30135
9628,51996,30097
9607,51980,30063
9586,51964,30033
9567,51948,30004
9554,51935,29976
9544,51923,29948
9532,51909,29915
9515,51893,29878
9493,51878,29839
9468,51861,29799
9438,51843,29758
9406,51825,29714
9378,51806,29674
9352,51788,29642
9329,51772,29612
9309,51761,29584
9296,51753,29564
9290,51750,29553
9292,51753,29553
9305,51764,29569
9327,51782,29605
9357,51804,29657
9391,51829,29720
9427,51861,29792
9471,51901,29876
9523,51945,29971
9582,51994,30076
9647,52048,30189
9715,52105,30310
9782,52164,30430
9848,52222,30544
9908,52276,30649
9960,52324,30744
9998,52362,30822
10026,52388,30885
10049,52407,30939
10069,52420,30985
10084,52428,31025
10097,52434,31057
10110,52441,31087
10120,52453,31117
10127,52468,31142
10136,52485,31162
10150,52503,31179
10166,52519,31194
10182,52531,31208
10196,52538,31221
10212,52543,31235
10227,52546,31251
10239,52548,31267
10252,52552,31286
10270,52563,31313
10293,52578,31348
10319,52596,31387
10347,52619,31429
10375,52642,31471
10399,52662,31510
10419,52677,31539
10434,52686,31558
10443,52691,31570
10445,52690,31574
10440,52682,31569
10431,52671,31560
10415,52657,31551
10394,52643,31543
10374,52630,31533
10357,52624,31523
10347,52623,31516
10343,52624,31507
10339,52624,31496
10332,52622,31483
10326,52619,31468
10322,52615,31451
10321,52612,31433
10327,52615,31418
10338,52621,31409
10347,52627,31408
10356,52634,31413
10368,52644,31421
10380,52652,31433
10391,52657,31446
10403,52660,31455
10415,52666,31460
10423,52673,31459
10427,52678,31452
10430,52679,31440
10432,52680,31429
10433,52677,31419
10433,52670,31404
10433,52664,31387
10435,52662,31373
10436,52662,31359
10433,52659,31340
10429,52653,31316
10424,52644,31293
10419,52632,31270
10411,52619,31245
10399,52607,31219
10386,52600,31196
10373,52595,31174
10362,52587,31150
10352,52578,31121
10341,52567,31084
10324,52551,31041
10303,52531,30993
10283,52509,30943
10265,52487,30898
10246,52463,30856
10230,52440,30817
10218,52421,30781
10211,52405,30750
10208,52396,30723
10208,52391,30695
10210,52388,30666
10209,52384,30639
10203,52379,30611
10196,52373,30583
10186,52366,30554
10169,52357,30525
10148,52344,30494
10126,52330,30462
10106,52317,30433
10088,52308,30409
10072,52299,30385
10064,52290,30360
10062,52282,30336
10064,52275,30311
10067,52266,30284
10068,52254,30253
10065,52242,30220
10054,52229,30187
10038,52212,30150
10021,52193,30111
10004,52176,30074
9986,52160,30039
9969,52142,30002
9960,52124,29964
9955,52108,29930
9949,52093,29901
9938,52078,29868
9925,52063,29831
9906,52049,29794
9882,52035,29756
9858,52020,29716
9838,52004,29675
9820,51985,29638
9803,51964,29602
9788,51946,29566
9774,51933,29530
9762,51924,29496
9749,51917,29462
9734,51908,29425
9720,51898,29384
9707,51890,29344
9692,51879,29306
9678,51866,29269
9666,51854,29237
9655,51844,29210
9644,51833,29188
9634,51822,29171
9629,51815,29160
9628,51814,29156
9633,51819,29162
9648,51833,29180
9673,51854,29216
9706,51880,29271
9749,51912,29343
9804,51952,29431
9869,52000,29532
9939,52054,29644
10011,52111,29758
10087,52168,29871
10161,52226,29984
10229,52281,30097
10289,52329,30203
10345,52371,30301
10399,52411,30395
10452,52451,30486
10504,52490,30568
10556,52528,30644
10608,52563,30715
10652,52591,30779
10688,52614,30831
10719,52634,30871
10747,52651,30903
10768,52665,30927
10784,52676,30945
10799,52686,30963
10815,52698,30987
10834,52713,31014
10856,52729,31039
10883,52745,31062
10909,52764,31085
10933,52782,31111
10955,52800,31136
10980,52817,31163
11006,52832,31193
11029,52845,31224
11053,52862,31255
11082,52887,31290
11112,52913,31328
11141,52936,31362
11167,52954,31390
11190,52972,31413
11210,52987,31432
11225,52996,31447
11239,53002,31458
11254,53006,31466
11266,53009,31470
11273,53008,31464
11276,53002,31450
11278,52996,31436
11278,52989,31425
11276,52984,31415
11273,52983,31409
11272,52984,31408
11271,52985,31411
11271,52988,31414
11271,52991,31418
11269,52993,31424
11268,52993,31430
11271,52996,31433
11279,53003,31439
11290,53014,31450
11301,53026,31459
11313,53039,31463
11324,53052,31468
11336,53065,31476
11344,53073,31481
11346,53074,31479
11344,53068,31472
11334,53060,31462
11317,53049,31446
11296,53032,31423
11277,53013,31399
11262,53001,31377
11247,52992,31357
11233,52985,31336
11221,52977,31319
11209,52969,31306
11196,52959,31291
11183,52950,31269
11174,52944,31247
11164,52939,31227
11148,52929,31204
11129,52917,31177
11110,52906,31152
11093,52899,31129
11076,52894,31105
11060,52890,31080
11045,52881,31054
11028,52868,31026
11007,52854,30993
10985,52837,30954
10962,52821,30913
10939,52807,30873
10918,52795,30833
10901,52785,30796
10886,52777,30765
10870,52769,30735
10856,52757,30705
10841,52745,30675
10824,52734,30647
10802,52723,30620
10781,52711,30594
10764,52702,30567
10749,52695,30543
10738,52684,30517
10732,52668,30486
10727,52651,30454
10717,52634,30422
10698,52615,30387
10676,52596,30349
10653,52584,30311
10631,52578,30275
10609,52573,30239
10587,52567,30203
10569,52560,30168
10550,52548,30137
10528,52530,30106
10506,52507,30071
10483,52483,30032
10455,52459,29989
10426,52435,29941
10397,52416,29893
10372,52404,29849
10350,52396,29812
10333,52386,29777
10318,52371,29740
10301,52351,29700
10278,52327,29658
10250,52298,29610
10218,52271,29561
10186,52248,29517
10155,52230,29478
10122,52212,29443
10092,52197,29408
10066,52184,29372
10039,52170,29332
10009,52151,29285
9978,52125,29232
9950,52097,29179
9920,52070,29129
9892,52044,29084
9868,52021,29047
9846,52001,29018
9825,51983,28996
9808,51969,28978
9800,51963,28967
9798,51964,28971
9802,51974,28991
9819,51993,29026
9848,52024,29075
9891,52064,29141
9945,52109,29222
10008,52156,29313
10077,52208,29415
10147,52263,29525
10216,52319,29638
10283,52375,29747
10346,52431,29851
10404,52482,29952
10458,52529,30047
10509,52572,30132
10553,52610,30209
10590,52641,30277
10619,52665,30330
10644,52685,30370
10667,52703,30402
10687,52717,30426
10703,52723,30441
10715,52722,30448
10725,52718,30453
10733,52714,30460
10738,52709,30464
10743,52705,30467
10750,52706,30469
10757,52709,30472
10762,52712,30472
10765,52716,30474
10767,52723,30482
10764,52727,30492
10761,52727,30503
10761,52725,30515
10763,52727,30533
10767,52730,30555
10776,52736,30574
10789,52748,30592
10802,52766,30611
10809,52783,30628
10813,52791,30638
10812,52793,30642
10807,52790,30642
10798,52780,30636
10787,52767,30625
10775,52756,30612
10764,52745,30601
10754,52734,30589
10745,52721,30576
10737,52710,30562
10729,52699,30545
10716,52684,30524
10698,52669,30499
10682,52656,30475
10666,52644,30453
10653,52636,30435
10647,52633,30420
10647,52633,30411
10649,52635,30406
10652,52636,30401
10657,52637,30395
10661,52639,30392
10662,52641,30393
10660,52641,30392
10656,52636,30388
10651,52631,30383
10645,52627,30378
10641,52624,30370
10638,52622,30361
10638,52623,30354
10636,52623,30347
10632,52617,30332
10627,52607,30310
10616,52595,30285
10600,52580,30255
10582,52562,30220
10565,52544,30184
10550,52527,30151
10535,52510,30120
10518,52489,30083
10501,52467,30044
10483,52445,30005
10465,52420,29967
10448,52395,29929
10433,52374,29894
10418,52359,29862
10399,52346,29833
10379,52335,29804
10362,52326,29778
10347,52320,29755
10334,52315,29731
10321,52308,29703
10310,52297,29673
10297,52285,29643
10282,52273,29613
10267,52265,29583
10257,52258,29553
10250,52250,29525
10245,52238,29497
10239,52225,29467
10234,52212,29440
10229,52200,29415
10222,52187,29390
10214,52175,29366
10204,52161,29343
10192,52146,29318
10175,52127,29287
10156,52106,29248
10138,52087,29210
10116,52069,29173
10093,52051,29137
10074,52035,29103
10059,52023,29073
10045,52013,29043
10031,52005,29011
10021,51998,28981
10009,51988,28951
9992,51973,28915
9972,51955,28875
9956,51938,28836
9943,51922,28804
9932,51908,28776
9918,51895,28748
9905,51884,28719
9891,51873,28691
9872,51861,28660
9850,51846,28623
9827,51830,28588
9802,51810,28556
9777,51785,28522
9756,51761,28486
9741,51741,28454
9732,51724,28431
9727,51709,28417
9728,51701,28414
9739,51706,28427
9757,51724,28455
9781,51749,28497
9811,51775,28550
9845,51806,28612
9883,51842,28684
9927,51882,28765
9978,51923,28856
10037,51966,28956
10099,52011,29060
10162,52056,29159
10225,52101,29250
10288,52145,29333
10345,52183,29407
10395,52214,29469
10439,52241,29520
10475,52266,29569
10502,52288,29614
10524,52305,29651
10542,52321,29679
10558,52334,29701
10572,52346,29715
10582,52354,29722
10589,52359,29724
10594,52361,29727
10598,52359,29731
10604,52357,29738
10612,52357,29746
10624,52362,29759
10639,52370,29777
10661,52379,29800
10687,52389,29830
10709,52402,29862
10728,52414,29888
10744,52426,29907
10760,52437,29924
10777,52448,29942
10793,52457,29963
10809,52464,29981
10820,52472,29997
10826,52482,30008
10830,52491,30011
10835,52495,30007
10838,52496,29997
10839,52494,29985
10835,52488,29968
10830,52478,29948
10824,52468,29931
10814,52461,29914
10800,52457,29898
10789,52454,29884
10780,52454,29875
10773,52453,29871
10767,52451,29871
10765,52452,29873
10769,52455,29879
10776,52455,29883
10781,52450,29882
10786,52445,29880
10790,52445,29883
10790,52444,29888
10786,52443,29889
10783,52444,29890
10783,52449,29893
10783,52452,29895
10780,52451,29891
10776,52448,29883
10773,52444,29873
10766,52437,29861
10754,52425,29844
10737,52407,29823
10717,52386,29800
10695,52363,29772
10672,52339,29740
10649,52318,29709
10628,52302,29678
10608,52289,29647
10592,52278,29614
10578,52265,29580
10564,52250,29545
10547,52233,29506
10527,52214,29463
10505,52196,29423
10482,52178,29388
10459,52157,29355
10441,52139,29325
10426,52126,29302
10410,52114,29279
10389,52102,29251
10369,52093,29221
10354,52086,29193
10339,52076,29167
10322,52062,29139
10303,52044,29108
10283,52027,29074
10262,52014,29038
10240,52002,29002
10221,51994,28968
10206,51987,28938
10192,51977,28909
10177,51961,28879
10162,51944,28851
10149,51929,28826
10132,51912,28800
10112,51893,28771
10094,51876,28739
10077,51861,28706
10060,51848,28671
10043,51832,28633
10025,51815,28595
10010,51799,28560
9994,51783,28528
9981,51768,28496
9971,51759,28468
9964,51756,28447
9957,51753,28428
9949,51751,28404
9939,51746,28373
9925,51738,28338
9906,51725,28300
9884,51710,28261
9866,51698,28224
9848,51686,28190
9829,51671,28156
9810,51655,28123
9795,51641,28097
9781,51625,28073
9766,51609,28043
9753,51595,28008
9738,51581,27973
9721,51565,27941
9704,51548,27912
9688,51533,27889
9676,51521,27873
9669,51515,27867
9670,51519,27875
9680,51535,27900
9700,51562,27944
9731,51594,28001
9772,51629,28067
9821,51670,28144
9874,51715,28230
9928,51760,28319
9982,51804,28407
10039,51849,28499
10099,51898,28598
10161,51949,28699
10227,52000,28798
10296,52051,28899
10366,52103,29000
10432,52153,29092
10493,52199,29172
10545,52238,29239
10588,52267,29295
10622,52288,29339
10650,52305,29375
10672,52318,29407
10688,52326,29437
10701,52328,29459
10715,52328,29475
10731,52331,29491
10748,52335,29506
10761,52333,29514
10771,52328,29515
10785,52325,29516
10798,52325,29521
10812,52329,29529
10833,52339,29543
10860,52353,29563
10889,52368,29587
10919,52381,29612
10950,52391,29635
10980,52400,29659
11007,52407,29684
11033,52410,29706
11057,52411,29723
11077,52414,29740
11091,52418,29754
11105,52424,29765
11120,52427,29773
11133,52430,29777
11141,52430,29773
11143,52427,29757
11141,52420,29733
11136,52408,29708
11130,52394,29681
11125,52382,29655
11124,52376,29638
11128,52373,29628
11132,52368,29619
11138,52362,29608
11144,52357,29599
11148,52353,29594
11150,52352,29595
11151,52351,29601
11154,52352,29611
11159,52357,29622
11168,52364,29634
11187,52375,29645
11210,52387,29653
11231,52399,29658
11246,52407,29656
11255,52411,29649
11258,52411,29643
11254,52408,29637
11246,52401,29626
11236,52388,29613
11227,52374,29604
11217,52361,29595
11205,52348,29581
11194,52334,29566
11187,52324,29554
11180,52317,29543
11172,52311,29526
11166,52304,29501
11159,52296,29475
11149,52286,29451
11136,52275,29426
11124,52266,29400
11115,52260,29379
11108,52255,29359
11101,52249,29336
11094,52242,29315
11086,52231,29295
11077,52218,29272
11065,52205,29247
11053,52196,29224
11046,52193,29204
11040,52192,29183
11034,52189,29159
11026,52185,29133
11015,52178,29106
10996,52166,29072
10974,52153,29032
10953,52140,28995
10939,52125,28966
10929,52110,28941
10923,52097,28917
10915,52085,28893
10903,52075,28869
10888,52066,28845
10872,52055,28820
10858,52044,28800
10844,52031,28782
10827,52016,28764
10811,52000,28745
10792,51986,28724
10771,51969,28699
10748,51952,28670
10726,51937,28638
10705,51927,28611
10683,51919,28589
10664,51913,28570
10651,51909,28552
10638,51904,28532
10622,51895,28507
10604,51882,28477
10584,51868,28444
10560,51854,28411
10532,51837,28383
10505,51817,28355
10481,51795,28328
10459,51772,28300
10435,51750,28266
10411,51730,28224
10387,51712,28179
10359,51693,28131
10328,51672,28081
10296,51649,28030
10265,51623,27984
10237,51599,27948
10214,51577,27924
10200,51563,27912
10197,51557,27915
10203,51561,27932
10216,51571,27960
10234,51586,27994
10259,51607,28039
10291,51636,28100
10329,51672,28174
10375,51712,28259
10431,51758,28353
10494,51809,28455
10560,51862,28557
10625,51917,28656
10687,51972,28753
