green_channel,red_channel,ir_channel
54161,28068,54617
54083,28019,54520
54003,27969,54422
53920,27920,54322
53834,27872,54218
53745,27823,54111
53656,27772,54000
53568,27724,53889
53485,27681,53783
53407,27644,53682
53336,27612,53587
53271,27586,53497
53216,27563,53418
53169,27543,53349
53130,27523,53290
53098,27504,53237
53075,27486,53194
53060,27474,53162
53049,27465,53144
53046,27465,53138
53050,27473,53144
53062,27488,53160
53079,27508,53186
53102,27536,53222
53130,27572,53267
53162,27613,53319
53196,27657,53377
53232,27705,53441
53272,27755,53509
53312,27805,53581
53352,27855,53657
53389,27906,53737
53422,27956,53816
53445,28003,53890
53459,28045,53955
53465,28081,54012
53463,28109,54055
53450,28129,54083
53423,28138,54095
53384,28135,54090
53337,28124,54069
53281,28106,54036
53221,28085,53990
53159,28059,53930
53095,28027,53855
53029,27989,53768
52965,27949,53675
52905,27910,53579
52851,27869,53486
52804,27828,53398
52761,27787,53316
52721,27748,53240
52685,27711,53168
52652,27675,53100
52625,27643,53036
52605,27615,52974
52591,27587,52917
52582,27556,52861
52575,27521,52800
52572,27485,52731
52570,27449,52655
52568,27409,52573
52564,27364,52489
52556,27316,52404
52543,27270,52320
52526,27225,52244
52506,27185,52177
52480,27151,52119
52451,27121,52070
52420,27097,52030
52387,27080,51998
52353,27066,51970
52317,27053,51940
52282,27037,51907
52251,27018,51867
52222,26996,51821
52196,26968,51770
52174,26937,51713
52156,26903,51649
52140,26866,51581
52125,26826,51514
52110,26785,51449
52097,26748,51390
52085,26714,51339
52073,26686,51301
52062,26669,51275
52054,26662,51259
52046,26662,51250
52039,26665,51245
52033,26671,51240
52026,26677,51233
52016,26679,51227
52000,26677,51220
51982,26671,51211
51962,26664,51197
51943,26655,51179
51925,26646,51159
51911,26639,51141
51901,26635,51130
51897,26638,51132
51905,26651,51156
51932,26682,51207
51983,26735,51294
52064,26812,51428
52177,26919,51616
52325,27057,51860
52503,27225,52155
52705,27417,52494
52922,27625,52861
53146,27839,53239
53367,28052,53614
53577,28258,53978
53773,28453,54322
53951,28635,54642
54111,28801,54929
54248,28946,55178
54362,29065,55386
54452,29155,55547
54517,29217,55664
54560,29256,55740
54583,29275,55781
54591,29279,55792
54589,29271,55780
54579,29253,55751
54563,29228,55703
54544,29199,55642
54522,29166,55574
54497,29123,55498
54470,29075,55416
54441,29027,55333
54408,28981,55252
54373,28936,55173
54336,28893,55096
54296,28853,55020
54254,28815,54944
54210,28777,54867
54166,28735,54790
54119,28691,54718
54070,28646,54650
54020,28603,54584
53973,28563,54520
53928,28526,54459
53882,28491,54398
53833,28454,54331
53780,28416,54258
53723,28379,54183
53660,28343,54105
53592,28307,54030
53525,28274,53960
53462,28243,53894
53406,28216,53834
53359,28194,53787
53325,28180,53755
53302,28175,53738
53293,28182,53736
53296,28199,53752
53311,28225,53784
53337,28258,53832
53373,28297,53893
53418,28342,53962
53469,28392,54036
53523,28443,54114
53579,28495,54196
53633,28547,54279
53684,28597,54360
53729,28643,54435
53769,28683,54499
53802,28717,54549
53831,28743,54587
53854,28762,54616
53871,28775,54636
53882,28782,54646
53895,28783,54645
53909,28781,54635
53924,28775,54619
53942,28766,54600
53965,28752,54577
53993,28735,54549
54021,28711,54513
54049,28682,54467
54079,28648,54413
54111,28608,54355
54142,28560,54297
54175,28508,54238
54212,28455,54176
54253,28401,54108
54298,28345,54036
54344,28284,53960
54388,28223,53882
54430,28161,53804
54472,28095,53725
54513,28025,53648
54550,27952,53573
54583,27879,53504
54612,27812,53439
54637,27754,53375
54660,27706,53315
54681,27663,53264
54699,27625,53223
54715,27591,53186
54732,27562,53151
54751,27534,53115
54774,27506,53073
54801,27470,53028
54831,27427,52978
54863,27378,52921
54895,27323,52856
54930,27259,52784
54969,27191,52708
55009,27122,52630
55050,27054,52555
55090,26988,52488
55134,26929,52431
55182,26881,52384
55228,26841,52346
55273,26808,52317
55311,26783,52299
55340,26764,52287
55363,26750,52278
55379,26738,52269
55387,26726,52258
55391,26716,52246
55395,26705,52232
55405,26692,52212
55421,26678,52186
55439,26660,52154
55460,26637,52113
55484,26610,52066
55506,26580,52019
55528,26549,51976
55554,26523,51939
55583,26500,51909
55611,26480,51884
55641,26464,51866
55673,26458,51861
55709,26464,51874
55752,26483,51910
55805,26516,51971
55871,26563,52061
55948,26628,52179
56032,26707,52323
56125,26798,52492
56229,26900,52681
56342,27011,52882
56459,27127,53086
56577,27246,53291
56693,27367,53497
56806,27484,53700
56913,27593,53893
57012,27697,54075
57103,27795,54244
57185,27880,54399
57256,27949,54533
57315,28006,54642
57366,28054,54727
57412,28091,54789
57449,28114,54827
57475,28123,54846
57491,28123,54849
57497,28113,54838
57494,28094,54818
57482,28072,54791
57463,28049,54762
57438,28028,54731
57408,28011,54702
57378,27995,54673
57349,27981,54646
57322,27971,54624
57294,27966,54608
57267,27961,54594
57243,27955,54584
57220,27947,54574
57199,27940,54562
57179,27934,54547
57159,27925,54532
57137,27916,54517
57113,27909,54504
57087,27905,54495
57059,27900,54490
57030,27896,54485
57001,27896,54477
56972,27895,54468
56945,27894,54458
56917,27892,54445
56886,27889,54430
56855,27886,54414
56825,27880,54401
56797,27872,54389
56772,27865,54378
56751,27861,54372
56736,27862,54373
56729,27867,54382
56729,27877,54396
56737,27893,54415
56751,27912,54439
56770,27932,54470
56792,27955,54507
56816,27980,54550
56843,28007,54595
56872,28036,54646
56903,28068,54698
56932,28100,54747
56956,28130,54789
56975,28156,54823
56991,28175,54846
57005,28186,54857
57014,28188,54859
57016,28181,54851
57016,28168,54833
57015,28149,54808
57011,28126,54778
57006,28099,54742
57003,28073,54705
57000,28051,54668
56998,28032,54637
56999,28018,54610
57005,28010,54589
57013,28006,54574
57018,28004,54561
57019,28000,54547
57018,27996,54527
57018,27989,54501
57016,27980,54469
57012,27965,54432
57007,27947,54392
57001,27925,54347
56995,27900,54298
56985,27872,54244
56974,27844,54187
56962,27818,54130
56950,27794,54077
56934,27770,54027
56916,27745,53980
56898,27720,53939
56877,27696,53902
56853,27674,53868
56827,27652,53836
56804,27636,53807
56788,27626,53780
56777,27620,53755
56769,27616,53729
56760,27610,53705
56750,27601,53680
56739,27586,53653
56730,27567,53624
56720,27546,53596
56712,27528,53570
56708,27512,53545
56704,27499,53521
56698,27488,53499
56691,27483,53483
56684,27488,53476
56675,27496,53477
56666,27504,53481
56656,27512,53487
56642,27519,53491
56624,27523,53491
56604,27525,53486
56581,27525,53475
56556,27523,53463
56528,27520,53453
56495,27515,53443
56457,27510,53432
56418,27505,53419
56376,27497,53403
56331,27486,53385
56286,27475,53364
56241,27466,53344
56198,27458,53323
56156,27448,53300
56118,27437,53274
56085,27432,53248
56061,27433,53229
56047,27438,53222
56044,27452,53234
56055,27480,53274
56088,27527,53351
56147,27598,53467
56235,27696,53623
56349,27816,53816
56483,27952,54040
56629,28100,54286
56781,28253,54543
56933,28410,54802
57083,28566,55056
57226,28716,55297
57358,28855,55520
57476,28975,55721
57577,29079,55901
57664,29165,56057
57736,29232,56189
57791,29282,56296
57831,29319,56379
57856,29343,56442
57871,29358,56490
57876,29366,56521
57873,29370,56540
57862,29371,56546
57844,29370,56542
57821,29368,56531
57796,29361,56514
57768,29351,56488
57737,29336,56455
57705,29318,56419
57671,29300,56381
57636,29281,56345
57606,29263,56310
57581,29247,56279
57561,29237,56254
57542,29227,56231
57525,29218,56207
57510,29208,56185
57496,29198,56165
57485,29191,56144
57475,29184,56123
57462,29176,56102
57442,29167,56081
57420,29160,56062
57396,29156,56045
57372,29151,56027
57350,29145,56007
57328,29137,55987
57305,29129,55967
57284,29120,55946
57263,29106,55921
57243,29090,55892
57223,29075,55864
57206,29061,55839
57194,29050,55818
57190,29042,55803
57193,29038,55789
57201,29038,55780
57213,29040,55775
57225,29045,55773
57239,29055,55775
57255,29070,55784
57273,29086,55800
57291,29104,55824
57307,29126,55854
57323,29151,55890
57336,29177,55929
57346,29203,55969
57353,29228,56005
57357,29246,56034
57359,29259,56053
57357,29266,56059
57352,29268,56056
57343,29263,56044
57330,29250,56026
57318,29236,56005
57307,29224,55985
57296,29212,55964
57285,29202,55944
57274,29195,55928
57258,29189,55910
57239,29180,55886
57215,29166,55857
57187,29150,55825
57154,29134,55792
57118,29120,55760
57084,29106,55729
57054,29092,55695
57026,29078,55657
56996,29062,55617
56965,29041,55572
56935,29017,55522
56908,28988,55469
56882,28956,55413
56857,28925,55357
56836,28896,55306
56818,28868,55260
56801,28841,55217
56787,28817,55177
56775,28796,55139
56764,28776,55100
56753,28757,55060
56741,28735,55016
56727,28711,54969
56709,28685,54920
56688,28659,54872
56667,28633,54827
56646,28611,54787
56625,28589,54749
56605,28565,54710
56585,28541,54668
56567,28518,54623
56550,28494,54578
56538,28473,54534
56527,28454,54496
56520,28437,54465
56513,28421,54441
56508,28410,54423
56506,28403,54410
56504,28399,54398
56502,28395,54387
56499,28393,54378
56497,28393,54371
56496,28395,54365
56497,28395,54360
56501,28395,54355
56506,28394,54349
56514,28391,54340
56526,28386,54328
56540,28376,54310
56554,28365,54287
56564,28351,54260
56568,28332,54229
56566,28311,54195
56561,28289,54160
56555,28264,54125
56550,28242,54095
56548,28226,54067
56549,28216,54045
56552,28210,54028
56561,28208,54020
56573,28213,54019
56586,28224,54026
56603,28239,54041
56626,28261,54071
56661,28292,54121
56713,28337,54196
56785,28403,54302
56878,28491,54439
56989,28596,54606
57111,28712,54797
57239,28838,55009
57372,28970,55233
57510,29105,55465
57651,29241,55700
57786,29371,55930
57913,29495,56149
58033,29613,56355
58146,29723,56544
58251,29822,56714
58344,29906,56862
58425,29975,56984
58493,30027,57082
58548,30061,57155
58593,30082,57204
58627,30092,57233
58652,30094,57247
58668,30086,57244
58678,30071,57226
58683,30050,57197
58683,30023,57161
58679,29993,57122
58670,29962,57080
58658,29932,57037
58643,29904,56995
58627,29879,56957
58613,29854,56924
58601,29830,56895
58592,29812,56873
58587,29800,56860
58587,29791,56852
58590,29784,56847
58595,29775,56840
58603,29766,56832
58615,29755,56823
58630,29745,56813
58645,29736,56803
58661,29727,56793
58676,29719,56780
58691,29706,56761
58706,29689,56738
58716,29669,56711
58722,29649,56681
58726,29628,56648
58727,29607,56613
58724,29586,56581
58721,29569,56553
58719,29555,56528
58718,29544,56509
58718,29537,56497
58722,29535,56489
58726,29533,56483
58729,29532,56478
58732,29529,56476
58737,29525,56475
58744,29522,56475
58753,29522,56478
58763,29528,56486
58777,29539,56499
58794,29554,56518
58812,29570,56539
58829,29585,56559
58845,29596,56575
58859,29603,56583
58872,29605,56585
58880,29605,56580
58883,29603,56571
58885,29597,56559
58887,29589,56547
58891,29583,56535
58898,29578,56525
58907,29574,56513
58919,29568,56500
58932,29564,56482
58947,29563,56463
58962,29559,56441
58976,29549,56415
58989,29535,56387
59003,29522,56357
59018,29511,56327
59031,29498,56296
59047,29482,56263
59064,29464,56225
59079,29444,56185
59092,29420,56144
59099,29395,56101
59098,29369,56057
59091,29342,56013
59078,29314,55972
59062,29286,55934
59041,29259,55898
59016,29234,55865
58988,29212,55838
58958,29193,55815
58927,29179,55795
58896,29169,55778
58866,29161,55761
58836,29152,55741
58805,29141,55718
58772,29126,55690
58741,29109,55659
58716,29091,55627
58695,29074,55594
58674,29056,55561
58657,29039,55529
58646,29026,55500
58645,29018,55478
58653,29015,55463
58668,29017,55454
58691,29021,55452
58719,29026,55452
58752,29033,55451
58787,29041,55445
58820,29047,55435
58851,29050,55421
58876,29049,55401
58896,29042,55376
58914,29030,55348
58930,29016,55319
58942,29000,55289
58950,28983,55259
58952,28966,55233
58950,28949,55210
58945,28934,55190
58937,28922,55170
58926,28912,55148
58911,28900,55127
58891,28889,55107
58868,28877,55086
58849,28864,55067
58833,28851,55047
58819,28840,55028
58807,28832,55012
58798,28829,54999
58786,28826,54986
58771,28822,54970
58751,28818,54953
58728,28813,54933
58700,28806,54912
58671,28795,54890
58643,28783,54870
58617,28771,54856
58596,28762,54850
58581,28757,54853
58573,28759,54866
58578,28772,54894
58599,28800,54946
58640,28846,55026
58698,28908,55132
58771,28985,55263
58855,29074,55417
58948,29174,55591
59050,29282,55781
59157,29401,55986
59267,29526,56201
59379,29655,56421
59492,29784,56638
59604,29907,56849
59710,30023,57049
59808,30131,57233
59894,30227,57398
59966,30310,57542
60025,30381,57663
60071,30436,57761
60106,30478,57836
60129,30509,57889
60143,30531,57924
60150,30546,57946
60151,30551,57955
60144,30547,57950
60131,30537,57932
60112,30522,57904
60089,30501,57870
60061,30474,57832
60028,30445,57792
59991,30414,57754
59953,30384,57718
59917,30358,57686
59884,30337,57657
59856,30322,57633
59830,30311,57612
59807,30302,57594
59785,30297,57582
59764,30294,57574
59742,30290,57565
59721,30285,57552
59697,30281,57535
59672,30278,57516
59647,30275,57496
59620,30266,57476
59590,30254,57455
59560,30240,57436
59533,30226,57418
59509,30216,57402
59491,30210,57388
59476,30204,57375
59466,30198,57364
59455,30192,57356
59445,30187,57346
59434,30183,57333
59423,30181,57320
59414,30182,57311
59406,30186,57305
59401,30195,57307
59400,30207,57319
59403,30222,57339
59412,30241,57363
59424,30261,57391
59435,30283,57423
59446,30307,57455
59457,30329,57484
59468,30348,57511
59475,30363,57535
59479,30374,57553
59478,30380,57566
59474,30380,57576
59467,30378,57582
59455,30375,57585
59442,30372,57585
59426,30368,57580
59407,30363,57568
59383,30355,57548
59354,30341,57520
59320,30322,57488
59282,30300,57451
59240,30277,57409
59195,30257,57367
59147,30240,57328
59099,30228,57292
59053,30219,57259
59007,30210,57227
58961,30202,57195
58916,30193,57165
58873,30185,57138
58833,30175,57110
58793,30163,57078
58754,30154,57045
58718,30145,57010
58683,30136,56972
58645,30127,56930
58601,30117,56885
58554,30101,56836
58507,30079,56784
58460,30051,56728
58415,30020,56673
58372,29990,56619
58334,29963,56567
58300,29938,56518
58270,29915,56474
58244,29898,56437
58220,29890,56407
58198,29886,56383
58176,29884,56358
58153,29881,56331
58126,29877,56306
58095,29872,56282
58063,29864,56259
58032,29855,56236
57999,29846,56211
57965,29837,56187
57932,29828,56165
57900,29820,56145
57870,29816,56127
57841,29813,56108
57813,29808,56086
57786,29800,56061
57762,29793,56036
57742,29789,56013
57724,29787,55991
57708,29787,55972
57695,29786,55958
57687,29785,55945
57685,29788,55934
57687,29794,55925
57692,29803,55919
57698,29813,55918
57703,29820,55916
57704,29822,55911
57699,29820,55904
57690,29817,55896
57677,29812,55885
57661,29805,55869
57640,29798,55850
57612,29789,55825
57577,29777,55797
57536,29761,55762
57489,29744,55722
57436,29725,55675
57374,29703,55625
57303,29681,55571
57227,29660,55518
57150,29641,55468
57075,29626,55425
57006,29613,55388
56947,29605,55362
56903,29606,55354
56882,29623,55371
56888,29662,55418
56926,29727,55500
56993,29817,55622
57087,29930,55787
57206,30065,55989
57348,30216,56221
57506,30376,56472
57673,30538,56732
57837,30697,56991
57995,30846,57243
58144,30985,57481
58279,31110,57701
58397,31220,57900
58496,31316,58077
58579,31399,58232
58647,31470,58366
58701,31528,58477
58745,31575,58566
58779,31616,58639
58803,31646,58695
58813,31666,58734
58809,31676,58753
58794,31678,58753
58772,31670,58736
58743,31654,58707
58709,31630,58667
58670,31601,58617
58628,31569,58559
58584,31533,58493
58541,31493,58416
58498,31449,58330
58455,31404,58243
58414,31360,58157
58376,31318,58076
58342,31281,58002
58312,31249,57941
58283,31221,57888
58255,31195,57841
58227,31172,57796
58195,31150,57753
58161,31130,57710
58126,31111,57669
58090,31092,57630
58052,31071,57591
58010,31045,57549
57962,31017,57501
57910,30989,57447
57857,30962,57391
57809,30938,57339
57769,30916,57293
57736,30899,57255
57712,30887,57227
57696,30881,57212
57688,30883,57212
57689,30890,57224
57697,30901,57243
57709,30919,57270
57726,30943,57304
57748,30973,57346
57773,31006,57394
57799,31039,57443
57824,31071,57493
57847,31103,57542
57867,31131,57589
57884,31156,57629
57895,31177,57660
57900,31192,57684
57898,31204,57700
57890,31212,57710
57875,31215,57713
57856,31211,57708
57831,31203,57696
57799,31194,57679
57763,31183,57658
57721,31171,57630
57673,31155,57595
57622,31135,57555
57569,31115,57512
57514,31093,57467
57459,31069,57420
57405,31042,57371
57350,31016,57319
57294,30990,57267
57240,30964,57214
57191,30942,57160
57147,30923,57105
57107,30903,57048
57069,30883,56992
57034,30863,56935
57002,30840,56876
56971,30810,56817
56942,30775,56757
56914,30740,56698
56888,30706,56641
56863,30674,56584
56836,30642,56525
56810,30611,56465
56784,30581,56405
56751,30550,56346
56713,30520,56287
56671,30489,56229
56625,30456,56173
56574,30421,56119
56520,30387,56065
56467,30356,56015
56416,30326,55968
56365,30298,55925
56315,30273,55882
56267,30252,55841
56224,30234,55801
56182,30216,55762
56143,30199,55723
56105,30185,55684
56070,30173,55648
56037,30163,55618
56008,30155,55595
55984,30149,55576
55968,30146,55558
55958,30148,55543
55951,30150,55531
55942,30148,55519
55927,30142,55506
55905,30133,55490
55879,30126,55475
55852,30121,55458
55823,30113,55439
55789,30100,55418
55749,30083,55395
55707,30065,55369
55666,30046,55341
55623,30026,55308
55576,30003,55269
55525,29979,55225
55471,29953,55177
55414,29925,55122
55352,29893,55061
55285,29859,54995
55215,29822,54926
55142,29783,54856
55069,29745,54787
54998,29709,54718
54927,29671,54650
54857,29628,54581
54787,29582,54515
54717,29533,54454
54651,29484,54401
54593,29442,54362
54550,29411,54341
54527,29399,54349
54534,29413,54398
54577,29460,54499
54660,29547,54658
54779,29674,54874
54930,29839,55139
55105,30032,55442
55295,30240,55770
55491,30449,56107
55689,30650,56446
55880,30842,56775
56058,31021,57085
56219,31183,57373
56361,31326,57637
56479,31449,57870
56574,31551,58068
56644,31632,58232
56695,31694,58363
56728,31740,58462
56745,31770,58530
56746,31786,58570
56733,31787,58584
56709,31775,58573
56674,31752,58539
56628,31721,58487
56576,31684,58423
56524,31643,58350
56477,31600,58273
56436,31559,58192
56398,31518,58109
56362,31474,58022
56326,31428,57933
56290,31381,57842
56253,31330,57751
56215,31279,57662
56174,31228,57577
56128,31176,57496
56078,31124,57415
56027,31075,57339
55979,31028,57270
55936,30985,57208
55902,30949,57151
55875,30918,57097
55852,30890,57042
55833,30863,56984
55817,30838,56926
55803,30814,56870
55793,30791,56821
55783,30767,56777
55775,30747,56736
55769,30732,56699
55767,30721,56670
55771,30716,56651
55782,30716,56643
55803,30722,56647
55832,30734,56664
55868,30752,56692
55907,30777,56729
55946,30805,56774
55984,30835,56826
56020,30864,56880
56051,30889,56930
56075,30911,56977
56095,30931,57023
56112,30950,57066
56126,30966,57105
56132,30980,57137
56131,30991,57163
56126,30999,57178
56118,31004,57184
56107,31003,57185
56091,30995,57183
56069,30979,57174
56042,30955,57159
56011,30925,57138
55972,30889,57111
55928,30850,57079
55883,30813,57042
55842,30781,57002
55806,30753,56957
55776,30728,56908
55751,30704,56857
55728,30678,56802
55706,30650,56745
55682,30619,56686
55656,30588,56624
55628,30555,56560
55595,30518,56494
55558,30480,56427
55520,30439,56362
55482,30398,56296
55442,30356,56230
55398,30314,56164
55353,30275,56099
55308,30237,56038
55263,30201,55981
55217,30163,55924
55170,30124,55863
55120,30085,55800
55068,30045,55734
55014,30000,55667
54959,29952,55598
54903,29901,55529
54844,29848,55462
54785,29798,55396
54730,29750,55331
54682,29706,55270
54642,29669,55212
54609,29639,55160
54582,29616,55115
54561,29600,55078
54547,29587,55048
54542,29577,55020
54541,29569,54995
54540,29563,54971
54539,29560,54952
54537,29557,54939
54532,29554,54930
54524,29550,54925
54515,29545,54920
54506,29541,54913
54495,29536,54904
54486,29531,54895
54478,29527,54885
54469,29519,54872
54458,29509,54858
54447,29497,54840
54435,29485,54818
54424,29471,54795
54409,29458,54770
54392,29444,54745
54375,29430,54720
54359,29416,54695
54346,29403,54673
54338,29391,54654
54335,29382,54636
54334,29373,54619
54333,29365,54603
54330,29355,54583
54323,29344,54558
54314,29331,54533
54301,29319,54508
54285,29310,54483
54270,29299,54458
54257,29287,54434
54246,29274,54410
54233,29258,54380
54214,29241,54345
54189,29219,54306
54160,29195,54265
54128,29169,54223
54098,29144,54185
54077,29126,54159
54067,29121,54155
54076,29137,54185
54113,29182,54263
54187,29262,54394
54297,29375,54582
54440,29518,54819
54614,29685,55097
54810,29872,55407
55016,30071,55737
55226,30273,56074
55436,30470,56408
55640,30655,56731
55829,30826,57035
55998,30980,57315
56142,31117,57565
56264,31235,57782
56364,31337,57964
56446,31419,58115
56508,31481,58234
56550,31521,58321
56570,31543,58376
56574,31548,58404
56562,31540,58410
56532,31519,58396
56489,31488,58365
56438,31448,58322
56382,31403,58270
56324,31354,58211
56269,31305,58145
56220,31258,58072
56177,31213,57995
56134,31168,57917
56091,31123,57839
56047,31079,57762
56005,31038,57685
55964,30996,57609
55926,30957,57539
55891,30920,57479
55859,30884,57426
55829,30853,57380
55799,30826,57337
55769,30802,57295
55736,30781,57256
55702,30763,57215
55667,30742,57171
55631,30714,57123
55594,30682,57073
55559,30647,57023
55524,30611,56973
55494,30577,56924
55468,30547,56879
55448,30521,56841
55433,30501,56810
55427,30486,56787
55426,30477,56774
55427,30473,56770
55431,30475,56773
55437,30478,56784
55445,30483,56801
55458,30495,56826
55474,30514,56858
55495,30540,56898
55519,30567,56943
55543,30593,56991
55564,30617,57038
55578,30638,57083
55586,30652,57122
55590,30664,57155
55589,30676,57179
55584,30686,57196
55577,30691,57206
55569,30691,57211
55562,30688,57209
55555,30682,57199
55549,30673,57182
55542,30660,57159
55533,30641,57131
55522,30620,57097
55510,30598,57057
55499,30576,57013
55487,30554,56966
55475,30531,56921
55463,30511,56880
55450,30492,56842
55440,30473,56809
55432,30455,56776
55424,30438,56740
55412,30419,56698
55395,30395,56649
55370,30369,56597
55339,30340,56542
55305,30307,56483
55269,30273,56422
55232,30239,56363
55194,30205,56307
55154,30169,56250
55112,30129,56187
55065,30082,56115
55013,30031,56035
54956,29978,55953
54899,29925,55874
54841,29874,55799
54782,29825,55727
54724,29781,55657
54671,29737,55591
54622,29694,55532
54577,29653,55480
54540,29620,55437
54515,29596,55402
54499,29582,55370
54490,29572,55340
54486,29567,55313
54487,29564,55289
54490,29563,55265
54492,29560,55242
54493,29556,55222
54495,29548,55204
54495,29538,55186
54493,29524,55170
54488,29509,55155
54482,29494,55140
54474,29481,55123
54461,29465,55104
54444,29448,55081
54422,29429,55056
54395,29411,55029
54365,29393,55003
54335,29378,54980
54306,29364,54958
54280,29352,54939
54257,29339,54922
54238,29326,54907
54220,29311,54895
54202,29293,54883
54186,29276,54866
54171,29258,54844
54153,29238,54815
54132,29217,54781
54110,29196,54743
54088,29176,54703
54065,29159,54662
54043,29142,54623
54024,29124,54587
54007,29105,54553
53988,29087,54520
53970,29072,54490
53954,29058,54464
53939,29046,54436
53926,29034,54407
53915,29023,54378
53902,29012,54349
53887,28998,54316
53866,28979,54278
53841,28956,54237
53815,28929,54196
53788,28901,54158
53759,28872,54121
53731,28846,54087
53707,28824,54061
53689,28810,54051
53684,28808,54067
53699,28830,54119
53739,28881,54217
53809,28960,54365
53909,29068,54563
54033,29200,54802
54177,29355,55075
54338,29529,55377
54510,29714,55698
54687,29903,56027
54864,30093,56355
55038,30277,56674
55201,30450,56977
55349,30609,57256
55482,30751,57506
55595,30874,57724
55692,30975,57908
55774,31059,58056
55838,31127,58169
55886,31176,58249
55915,31206,58296
55931,31219,58312
55934,31217,58300
55925,31200,58269
55906,31169,58223
55878,31129,58163
55842,31083,58092
55801,31033,58014
55755,30981,57931
55705,30930,57848
55652,30878,57765
55595,30827,57687
55539,30779,57615
55484,30735,57547
55430,30692,57481
55378,30651,57417
55329,30613,57356
55282,30580,57297
55238,30549,57242
55198,30518,57190
55163,30486,57139
55129,30454,57088
55098,30423,57037
55067,30393,56983
55037,30361,56926
55008,30326,56868
54980,30294,56813
54955,30267,56765
54933,30241,56720
54912,30217,56680
54895,30198,56649
54882,30185,56629
54875,30181,56617
54871,30180,56615
54870,30181,56617
54872,30184,56622
54878,30190,56634
54887,30198,56651
54894,30209,56675
54900,30222,56700
54906,30236,56726
54911,30249,56754
54912,30261,56784
54909,30272,56815
54903,30280,56843
54897,30286,56868
54889,30289,56892
54879,30291,56914
54863,30292,56932
54844,30290,56945
54824,30285,56955
54804,30278,56961
54788,30272,56961
54773,30266,56955
54757,30262,56944
54741,30257,56926
54723,30249,56900
54699,30233,56868
54671,30212,56830
54638,30186,56784
54603,30159,56732
54568,30132,56677
54529,30104,56622
54489,30075,56564
54449,30042,56504
54410,30007,56441
54371,29971,56377
54333,29934,56313
54298,29901,56252
54265,29870,56193
54231,29839,56136
54195,29807,56079
54159,29775,56020
54121,29743,55958
54082,29712,55896
54044,29682,55833
54008,29652,55768
53972,29622,55703
53938,29591,55640
53903,29559,55578
53868,29523,55518
53836,29485,55462
53807,29448,55410
53784,29413,55358
53762,29381,55307
53741,29351,55258
53722,29324,55211
53702,29303,55167
53683,29286,55123
53665,29270,55081
53650,29256,55042
53637,29244,55008
53621,29230,54976
53601,29213,54945
53581,29197,54913
53562,29183,54884
53543,29170,54857
53525,29157,54831
53505,29141,54805
53486,29125,54777
53466,29107,54749
53444,29087,54719
53416,29064,54686
53382,29036,54646
53345,29005,54606
53304,28972,54567
53262,28937,54530
53221,28903,54493
53180,28871,54460
53144,28843,54429
53115,28820,54403
53095,28806,54384
53083,28798,54370
53077,28795,54357
53078,28793,54344
53082,28791,54329
53082,28789,54309
53076,28783,54285
53066,28772,54258
53051,28755,54228
53030,28734,54193
53005,28711,54153
52978,28687,54110
52950,28663,54065
52919,28638,54018
52890,28610,53970
52862,28581,53920
52836,28553,53870
52813,28527,53824
52792,28505,53780
52773,28487,53736
52755,28473,53694
52743,28460,53654
52733,28445,53615
52725,28429,53576
52717,28412,53537
52708,28395,53497
52701,28379,53459
52695,28365,53429
52693,28352,53404
52694,28342,53383
52700,28339,53372
52715,28346,53378
52744,28369,53414
52792,28418,53493
52868,28498,53624
52974,28610,53809
53110,28751,54049
53270,28921,54339
53450,29111,54664
53644,29314,55014
53846,29523,55377
54048,29730,55740
54242,29928,56093
54424,30115,56430
54589,30287,56745
54736,30442,57033
54864,30574,57289
54972,30686,57509
55062,30780,57689
55129,30855,57828
55174,30910,57930
55200,30944,57998
55207,30961,58036
55200,30965,58047
55182,30954,58035
55157,30931,58004
55126,30900,57956
55091,30860,57892
55053,30815,57816
55013,30767,57732
54972,30716,57644
54928,30663,57553
54881,30610,57458
54828,30556,57360
54771,30500,57262
54710,30440,57163
54645,30378,57063
54581,30315,56967
54515,30253,56876
54448,30193,56787
54382,30137,56699
54320,30084,56616
54263,30036,56540
54211,29994,56468
54165,29954,56398
54122,29913,56327
54080,29871,56257
54034,29831,56186
53988,29792,56114
53943,29755,56045
53900,29722,55982
53860,29691,55926
53823,29664,55879
53788,29642,55842
53756,29630,55819
53731,29633,55812
53714,29648,55819
53707,29669,55841
53711,29694,55875
53727,29724,55919
53752,29757,55970
53782,29791,56022
53811,29824,56075
53839,29856,56124
53865,29883,56169
53886,29903,56208
53902,29916,56240
53917,29927,56269
53930,29938,56298
53941,29950,56326
53948,29965,56352
53955,29984,56373
53962,30005,56392
53969,30025,56407
53973,30042,56419
53975,30055,56427
53972,30063,56428
53962,30065,56417
53948,30061,56396
53933,30054,56367
53917,30044,56336
53900,30029,56302
53880,30009,56266
53859,29983,56224
53833,29952,56176
53801,29917,56123
53763,29878,56063
53719,29835,55998
53670,29787,55927
53614,29734,55849
53553,29679,55763
53490,29625,55674
53425,29573,55585
53360,29521,55496
53297,29471,55407
53237,29420,55318
53178,29370,55229
53123,29321,55145
53073,29277,55066
53027,29238,54990
52983,29202,54918
52937,29169,54851
52893,29137,54791
52851,29107,54735
52808,29079,54679
52764,29049,54624
52716,29016,54570
52664,28979,54512
52611,28940,54447
52556,28898,54377
52499,28853,54302
52441,28804,54226
52384,28754,54150
52331,28707,54078
52284,28663,54012
52242,28626,53949
52203,28596,53890
52169,28573,53839
52141,28556,53794
52115,28543,53754
52092,28533,53719
52070,28526,53690
52050,28519,53664
52028,28511,53640
52003,28501,53619
51978,28494,53603
51954,28488,53589
51930,28479,53575
51905,28467,53557
51877,28452,53534
51848,28435,53508
51816,28417,53478
51780,28394,53444
51742,28368,53407
51702,28343,53367
51662,28318,53325
51623,28292,53281
51585,28265,53235
51549,28240,53188
51515,28217,53147
51482,28197,53111
51449,28179,53079
51417,28165,53049
51388,28154,53024
51360,28145,52999
51335,28140,52974
51311,28134,52949
51284,28124,52920
51255,28108,52885
51226,28085,52843
51196,28057,52793
51164,28027,52740
51132,27996,52684
51098,27965,52622
51065,27931,52557
51034,27898,52496
51006,27869,52440
50981,27846,52392
50962,27830,52355
50948,27824,52333
50944,27833,52329
50955,27859,52352
50987,27903,52410
51041,27969,52509
51121,28061,52655
51230,28182,52852
51365,28332,53099
51525,28503,53394
51706,28692,53727
51906,28897,54087
52117,29113,54462
52332,29329,54839
52542,29538,55206
52740,29736,55553
52922,29920,55871
53087,30086,56159
53235,30233,56414
53365,30360,56638
53474,30468,56832
53562,30555,56993
53631,30624,57120
53681,30676,57216
53716,30712,57282
53735,30731,57318
53740,30735,57324
53734,30724,57306
53717,30699,57265
53691,30667,57206
53655,30629,57133
53609,30581,57049
53554,30525,56957
53491,30462,56854
53426,30395,56744
53357,30326,56629
53284,30256,56513
53210,30183,56396
53134,30109,56275
53055,30033,56148
52972,29955,56017
52888,29877,55887
52807,29799,55759
52728,29723,55633
52652,29649,55510
52580,29579,55391
52514,29515,55278
52452,29457,55168
52394,29404,55064
52344,29354,54966
52302,29308,54876
52266,29267,54795
52233,29230,54723
52205,29197,54661
52184,29171,54611
52170,29153,54577
52163,29145,54559
52163,29149,54558
52172,29164,54574
52190,29189,54606
52217,29224,54652
52250,29268,54709
52291,29315,54775
52337,29358,54850
52386,29398,54931
52433,29438,55015
52477,29482,55099
52521,29530,55183
52563,29578,55268
52605,29624,55350
52645,29668,55427
52680,29708,55493
52711,29742,55544
52738,29770,55581
52760,29793,55605
52774,29810,55619
52782,29819,55625
52786,29821,55622
52783,29812,55611
52773,29797,55592
52756,29778,55564
52732,29757,55529
52705,29736,55491
52676,29714,55450
52646,29692,55404
52616,29669,55355
52586,29640,55302
52555,29607,55245
52523,29571,55183
52491,29530,55119
52458,29487,55052
52423,29443,54980
52387,29400,54899
52352,29357,54815
52316,29314,54730
52277,29271,54642
52239,29229,54552
52200,29184,54464
52160,29136,54378
52116,29091,54293
52073,29050,54210
52031,29011,54130
51986,28972,54053
51941,28933,53979
51895,28895,53908
51847,28854,53839
51799,28813,53772
51749,28775,53708
51699,28741,53647
51651,28709,53588
51603,28675,53529
51557,28640,53468
51512,28602,53405
51469,28565,53339
51428,28528,53273
51393,28495,53208
51363,28467,53143
51338,28442,53082
51314,28416,53025
51289,28388,52972
51265,28363,52922
51245,28339,52879
51227,28314,52843
51213,28293,52813
51202,28276,52790
51195,28264,52775
51189,28258,52767
51188,28259,52763
51189,28263,52761
51190,28268,52761
51191,28274,52762
51193,28280,52758
51195,28283,52749
51193,28281,52736
51187,28273,52720
51179,28262,52697
51171,28249,52671
51159,28234,52644
51144,28218,52617
51129,28203,52590
51117,28190,52565
51108,28179,52541
51099,28170,52518
51092,28162,52496
51088,28157,52477
51085,28152,52456
51080,28145,52432
51074,28137,52406
51065,28126,52376
51054,28112,52346
51041,28097,52318
51028,28084,52290
51014,28071,52261
50999,28058,52233
50984,28046,52206
50971,28037,52180
50962,28029,52161
50958,28024,52153
50963,28025,52159
50981,28040,52187
51017,28076,52248
51074,28138,52353
51155,28230,52507
51266,28351,52716
51405,28499,52977
51566,28671,53286
51746,28863,53634
51941,29072,54011
52145,29291,54406
52354,29514,54805
52560,29733,55190
52757,29939,55551
52941,30128,55880
53107,30296,56173
53254,30439,56426
53378,30559,56637
53480,30656,56808
53562,30733,56943
53626,30789,57049
53672,30826,57123
53702,30847,57166
53717,30855,57180
53720,30850,57165
53712,30833,57129
53692,30806,57075
53659,30770,57005
53617,30726,56919
53564,30675,56822
53501,30616,56716
53430,30551,56604
53355,30483,56487
53282,30415,56367
53210,30346,56248
53138,30277,56129
53067,30207,56013
53001,30138,55899
52937,30070,55787
52877,30004,55678
52819,29940,55571
52764,29880,55471
52712,29825,55381
52662,29776,55297
52618,29733,55220
52581,29692,55149
52547,29653,55084
52517,29616,55021
52490,29582,54959
52462,29550,54897
52433,29517,54837
52404,29485,54779
52375,29456,54725
52349,29431,54677
52327,29411,54638
52313,29402,54613
52307,29403,54605
52310,29414,54613
52324,29433,54637
52348,29461,54677
52383,29499,54733
52428,29545,54803
52479,29595,54886
52536,29648,54980
52596,29702,55078
52653,29753,55177
52706,29802,55273
52755,29848,55360
52799,29889,55436
52839,29929,55501
52875,29967,55554
52908,30000,55596
52936,30025,55628
52955,30041,55649
52967,30048,55657
52968,30050,55656
52963,30048,55650
52955,30039,55639
52946,30023,55621
52937,30001,55596
52923,29977,55562
52904,29951,55518
52884,29923,55467
52861,29892,55408
52833,29861,55344
52798,29828,55275
52757,29788,55200
52714,29740,55120
52670,29686,55034
52625,29631,54949
52583,29579,54868
52543,29531,54792
52506,29486,54721
52471,29445,54655
52440,29408,54588
52412,29375,54520
52387,29346,54450
52360,29315,54375
52328,29282,54298
52291,29246,54222
52250,29209,54147
52206,29173,54075
52159,29139,54006
52110,29104,53939
52061,29070,53873
52010,29033,53806
51960,28995,53739
51911,28959,53673
51865,28925,53607
51827,28891,53541
51797,28858,53477
51773,28826,53419
51752,28796,53367
51734,28768,53323
51721,28745,53284
51711,28726,53249
51701,28710,53218
51692,28698,53193
51685,28689,53170
51678,28683,53146
51668,28676,53120
51655,28667,53089
51641,28656,53056
51626,28645,53024
51609,28631,52993
51592,28614,52960
51574,28593,52926
51555,28572,52895
51535,28550,52867
51512,28527,52841
51489,28505,52816
51468,28487,52794
51449,28472,52774
51434,28461,52756
51423,28453,52737
51413,28446,52718
51402,28439,52697
51391,28432,52676
51382,28427,52653
51374,28418,52628
51365,28405,52600
51355,28386,52571
51345,28368,52539
51333,28351,52508
51321,28338,52476
51309,28328,52444
51293,28317,52410
51272,28302,52372
51249,28284,52333
51226,28262,52293
51204,28238,52252
51182,28212,52213
51160,28185,52176
51139,28162,52137
51121,28146,52101
51105,28135,52074
51095,28134,52067
51099,28149,52088
51122,28187,52150
51170,28253,52265
51249,28349,52439
51363,28481,52673
51512,28647,52963
51692,28839,53303
51900,29051,53680
52128,29278,54083
52364,29513,54494
52598,29745,54899
52826,29968,55285
53042,30176,55643
53241,30364,55967
53417,30531,56254
53569,30677,56502
53698,30798,56711
53803,30893,56880
53882,30964,57012
53937,31013,57108
53970,31043,57169
53983,31055,57200
53979,31053,57206
53962,31040,57190
53937,31014,57155
53907,30979,57104
53873,30938,57039
53833,30894,56965
53791,30847,56885
53748,30799,56801
53702,30748,56713
53656,30695,56619
53608,30639,56520
53556,30581,56417
53501,30522,56310
53445,30462,56201
53387,30402,56095
53328,30340,55994
53268,30279,55897
53207,30220,55802
53146,30163,55706
53087,30109,55612
53029,30055,55517
52972,30002,55422
52910,29949,55327
52844,29896,55231
52776,29842,55135
52710,29789,55042
52646,29738,54955
52585,29689,54877
52528,29643,54809
52476,29602,54755
52431,29570,54714
52395,29548,54685
52370,29539,54670
52360,29540,54670
52361,29551,54685
52372,29570,54711
52392,29595,54747
52419,29624,54793
52453,29658,54847
52494,29696,54909
52539,29738,54974
52583,29780,55044
52625,29822,55117
52669,29866,55189
52714,29911,55259
52754,29954,55326
52789,29992,55387
52817,30023,55443
52840,30049,55489
52860,30067,55523
52872,30077,55545
52875,30081,55558
52870,30083,55564
52858,30079,55559
52840,30066,55544
52816,30046,55516
52787,30021,55477
52753,29995,55430
52713,29966,55377
52671,29933,55318
52625,29895,55256
52573,29853,55189
52516,29805,55113
52458,29752,55029
52397,29697,54940
52334,29641,54851
52267,29585,54759
52198,29527,54663
52126,29468,54563
52055,29410,54461
51985,29353,54357
51917,29300,54251
51853,29247,54148
51794,29195,54046
51741,29145,53945
51694,29098,53850
51650,29052,53762
51608,29007,53680
51567,28964,53608
51529,28926,53543
51498,28893,53483
51472,28865,53428
51448,28840,53374
51425,28816,53319
51399,28789,53264
51370,28761,53209
51341,28733,53154
51313,28702,53098
51287,28669,53040
51262,28636,52982
51232,28604,52926
51196,28574,52870
51157,28544,52815
51118,28518,52761
51082,28496,52713
51053,28479,52671
51029,28466,52635
51010,28457,52605
50997,28449,52581
50991,28442,52560
50988,28433,52538
50990,28425,52519
50993,28419,52500
50996,28412,52480
50996,28402,52455
50995,28390,52425
50992,28373,52392
50989,28355,52361
50982,28339,52333
50973,28326,52311
50965,28316,52293
50958,28309,52280
50953,28304,52271
50950,28301,52264
50945,28300,52255
50940,28299,52243
50937,28299,52229
50932,28297,52214
50923,28291,52194
50912,28280,52169
50900,28264,52140
50886,28244,52107
50868,28221,52071
50847,28194,52034
50823,28164,51995
50793,28132,51952
50756,28102,51906
50714,28071,51855
50671,28042,51804
50628,28014,51757
50587,27991,51713
50552,27975,51676
50522,27966,51647
50499,27963,51633
50489,27973,51644
50501,28004,51692
50544,28066,51791
50620,28161,51946
50733,28289,52162
50881,28446,52435
51058,28627,52757
51256,28828,53115
51468,29042,53499
51688,29263,53899
51909,29488,54301
52123,29704,54689
52323,29904,55050
52501,30084,55376
52654,30240,55665
52782,30373,55913
52885,30485,56119
52964,30573,56284
53017,30635,56412
53047,30675,56503
53058,30698,56559
53056,30707,56587
53045,30704,56593
53024,30687,56577
52994,30660,56540
52954,30623,56487
52910,30580,56422
52862,30532,56346
52810,30481,56258
52753,30427,56158
52691,30370,56049
52625,30308,55934
52552,30243,55815
52473,30172,55693
52392,30098,55570
52311,30022,55446
52230,29945,55318
52149,29866,55188
52068,29789,55054
51986,29716,54921
51906,29644,54786
51827,29575,54651
51750,29504,54517
51675,29432,54384
51603,29360,54255
51534,29289,54133
51465,29221,54018
51395,29157,53910
51330,29098,53811
51272,29046,53723
51221,29003,53646
51181,28970,53583
51155,28947,53536
51142,28933,53502
51140,28928,53480
51149,28932,53473
51169,28945,53484
51200,28969,53516
51235,29003,53564
51276,29044,53627
51323,29092,53703
51377,29147,53792
51435,29207,53894
51499,29270,54007
51569,29337,54128
51641,29406,54250
51711,29476,54365
51778,29543,54471
51842,29606,54569
51903,29661,54658
51960,29708,54734
52009,29742,54794
52049,29767,54840
52081,29785,54872
52104,29797,54892
52119,29802,54899
52125,29800,54894
52124,29794,54881
52120,29785,54862
52112,29773,54839
52098,29756,54808
52075,29735,54769
52045,29711,54720
52008,29682,54663
51968,29648,54600
51926,29608,54528
51879,29562,54448
51828,29511,54360
51778,29456,54267
51727,29400,54171
51674,29342,54074
51619,29286,53978
51566,29234,53883
51516,29185,53791
51470,29138,53703
51426,29095,53619
51384,29056,53542
51345,29021,53470
51308,28985,53399
51271,28948,53330
51234,28911,53262
51201,28874,53198
51173,28841,53139
51146,28813,53083
51121,28788,53028
51098,28764,52977
51076,28742,52928
51058,28723,52882
51047,28706,52840
51039,28690,52801
51031,28673,52765
51024,28654,52732
51015,28636,52696
51004,28617,52657
50989,28597,52619
50974,28578,52584
50958,28560,52552
50943,28544,52524
50930,28532,52501
50916,28522,52481
50903,28515,52463
50895,28508,52447
50889,28502,52433
50882,28496,52413
50869,28489,52387
50850,28479,52355
50825,28463,52319
50798,28443,52282
50770,28422,52245
50744,28402,52213
50722,28385,52185
50702,28371,52161
50686,28359,52138
50673,28352,52117
50662,28346,52098
50651,28336,52080
50640,28322,52058
50630,28305,52033
50620,28287,52007
50610,28271,51981
50603,28258,51955
50600,28246,51932
50598,28234,51913
50598,28224,51893
50598,28214,51869
50599,28206,51845
50603,28201,51824
50610,28202,51808
50623,28209,51801
50641,28222,51811
50668,28245,51846
50710,28285,51918
50775,28347,52034
50865,28437,52202
50979,28555,52423
51117,28700,52688
51275,28869,52992
51449,29054,53321
51632,29247,53664
51821,29445,54010
52010,29641,54349
52188,29828,54676
52351,29999,54981
52497,30151,55257
52629,30286,55503
52746,30403,55717
52850,30503,55898
52942,30586,56047
53020,30653,56167
53082,30706,56259
53128,30747,56327
53158,30774,56367
53174,30788,56380
53177,30786,56369
53169,30771,56335
53151,30746,56284
53125,30711,56218
53089,30665,56140
53041,30608,56051
52984,30543,55953
52923,30473,55848
52860,30401,55740
52797,30331,55629
52737,30264,55515
52681,30199,55397
52628,30136,55280
52577,30076,55166
52528,30016,55056
52480,29955,54946
52430,29892,54836
52376,29825,54724
52320,29757,54612
52260,29693,54500
52201,29632,54390
52146,29574,54283
52096,29517,54182
52047,29463,54084
52001,29414,53990
51959,29367,53899
51925,29325,53815
51899,29289,53742
51883,29261,53685
51873,29246,53644
51872,29242,53622
51882,29249,53621
51902,29266,53644
51932,29293,53687
51972,29331,53750
52022,29378,53829
52077,29435,53924
52137,29498,54029
52200,29563,54141
52265,29628,54257
52330,29693,54372
52391,29758,54483
52450,29822,54584
52502,29880,54671
52546,29924,54741
52581,29958,54799
52606,29986,54848
52625,30007,54889
52639,30024,54922
52647,30035,54947
52651,30041,54964
52649,30041,54971
52644,30035,54966
52636,30023,54949
52626,30007,54924
52615,29989,54895
52601,29970,54862
52588,29952,54824
52571,29930,54779
52548,29901,54725
52518,29865,54661
52479,29825,54589
52434,29782,54512
52386,29735,54430
52336,29683,54343
52287,29629,54254
52236,29574,54166
52185,29521,54081
52134,29471,53996
52083,29423,53910
52032,29376,53823
51979,29332,53739
51926,29290,53656
51876,29250,53577
51830,29213,53503
51785,29175,53429
51739,29136,53353
51692,29092,53274
51643,29047,53194
51592,29001,53116
51544,28957,53042
51503,28918,52971
51468,28886,52906
51440,28861,52846
51418,28839,52792
51404,28817,52741
51394,28797,52693
51387,28779,52649
51379,28761,52608
51366,28741,52569
51351,28718,52531
51336,28696,52493
51318,28675,52454
51297,28655,52420
51274,28636,52390
51251,28617,52362
51229,28602,52334
51207,28588,52309
51186,28574,52283
51170,28564,52260
51160,28558,52242
51155,28554,52229
51151,28548,52219
51149,28538,52209
51148,28526,52193
51148,28509,52172
51144,28491,52147
51137,28475,52118
51130,28461,52090
51123,28450,52062
51116,28438,52034
51111,28429,52006
51108,28424,51981
51105,28424,51959
51103,28424,51937
51099,28422,51914
51093,28418,51889
51084,28408,51865
51073,28396,51843
51062,28383,51822
51052,28372,51805
51047,28362,51792
51048,28358,51787
51060,28364,51797
51089,28385,51833
51135,28426,51906
51205,28493,52025
51303,28591,52197
51430,28722,52425
51586,28883,52703
51766,29069,53023
51961,29274,53375
52163,29491,53749
52366,29711,54130
52564,29926,54505
52751,30130,54863
52923,30317,55199
53077,30485,55503
53212,30631,55772
53324,30754,56005
53413,30854,56198
53483,30934,56356
53537,30995,56483
53579,31039,56579
53608,31066,56642
53625,31078,56673
53631,31077,56676
53627,31065,56658
53614,31040,56621
53592,31004,56567
53564,30960,56498
53530,30913,56422
53492,30865,56342
53448,30817,56257
53399,30766,56168
53350,30715,56076
53297,30664,55980
53240,30609,55882
53179,30551,55783
53116,30490,55679
53052,30423,55569
52986,30351,55453
52919,30276,55336
52846,30201,55215
52766,30125,55092
52685,30053,54970
52607,29985,54849
52534,29922,54727
52463,29860,54607
52397,29797,54491
52338,29736,54384
52284,29681,54286
52233,29633,54197
52188,29594,54122
52154,29565,54065
52136,29547,54024
52134,29539,54001
52144,29543,53994
52162,29560,54002
52189,29585,54025
52224,29615,54061
52266,29649,54110
52313,29685,54170
52364,29724,54243
52417,29766,54324
52469,29813,54412
52521,29864,54507
52571,29916,54607
52620,29967,54708
52666,30017,54803
52708,30065,54891
52744,30112,54967
52773,30152,55032
52794,30185,55085
52810,30210,55126
52825,30231,55158
52838,30244,55180
52851,30249,55188
52859,30246,55183
52862,30237,55168
52858,30222,55143
52844,30201,55110
52820,30173,55070
52793,30142,55023
52763,30110,54973
52730,30079,54921
52693,30048,54867
52655,30018,54812
52615,29988,54756
52575,29957,54697
52533,29925,54638
52488,29889,54576
52439,29849,54508
52385,29803,54434
52325,29750,54350
52260,29689,54257
52192,29627,54158
52124,29568,54056
52060,29512,53951
52000,29461,53844
51944,29410,53739
51894,29360,53639
51847,29310,53543
51801,29259,53451
51755,29210,53365
51712,29164,53288
51674,29125,53220
51638,29092,53160
51605,29063,53107
51576,29039,53063
51550,29018,53023
51527,28997,52986
51506,28979,52947
51485,28963,52907
51463,28946,52864
51443,28925,52821
51422,28903,52777
51399,28879,52733
51375,28852,52690
51352,28823,52647
51332,28795,52606
51314,28771,52565
51297,28750,52522
51277,28733,52478
51258,28718,52433
51238,28703,52391
51218,28686,52352
51197,28668,52320
51176,28654,52294
51158,28642,52274
51143,28631,52258
51130,28619,52244
51117,28610,52228
51105,28604,52212
51093,28599,52196
51081,28592,52177
51071,28583,52155
51060,28574,52132
51049,28563,52107
51035,28550,52080
51017,28534,52051
50994,28514,52019
50971,28488,51988
50948,28460,51958
50923,28432,51927
50895,28407,51895
50864,28384,51861
50831,28364,51827
50801,28349,51796
50773,28337,51772
50751,28330,51758
50739,28333,51762
50742,28354,51796
50769,28401,51878
50824,28477,52018
50913,28586,52220
51036,28727,52477
51188,28895,52781
51363,29085,53122
51555,29290,53488
51758,29505,53871
51966,29722,54257
52167,29932,54633
52356,30131,54992
52530,30318,55323
52686,30487,55619
52825,30635,55877
52945,30765,56097
53047,30873,56282
53127,30957,56430
53188,31021,56543
53230,31065,56622
53254,31089,56670
53261,31096,56691
53254,31089,56688
53235,31067,56664
53205,31034,56619
53167,30994,56558
53125,30947,56483
53079,30896,56397
53029,30840,56302
52974,30780,56199
52914,30715,56090
52850,30646,55978
52786,30576,55864
52721,30507,55750
52655,30443,55639
52587,30381,55533
52517,30320,55430
52444,30260,55329
52374,30204,55229
52307,30150,55130
52243,30094,55030
52179,30036,54929
52118,29974,54828
52055,29911,54728
51991,29848,54632
51927,29786,54540
51867,29729,54453
51810,29677,54370
51760,29633,54295
51715,29600,54230
51678,29573,54174
51648,29548,54127
51625,29524,54089
51610,29505,54059
51604,29494,54040
51605,29491,54037
51612,29498,54050
51623,29517,54078
51640,29546,54122
51665,29583,54181
51695,29628,54251
51731,29676,54327
51769,29724,54407
51809,29771,54489
51847,29817,54567
51885,29863,54639
51919,29904,54704
51949,29938,54760
51975,29965,54807
51999,29987,54846
52022,30005,54876
52043,30018,54898
52063,30025,54913
52080,30026,54918
52095,30024,54915
52106,30021,54906
52109,30012,54890
52104,29999,54870
52094,29985,54846
52079,29971,54815
52057,29957,54778
52033,29938,54735
52006,29914,54685
51974,29882,54627
51933,29843,54558
51885,29798,54479
51832,29750,54393
51776,29699,54304
51719,29643,54212
51661,29584,54118
51605,29527,54021
51552,29469,53922
51501,29410,53822
51450,29352,53720
51397,29295,53621
51343,29243,53529
51288,29194,53442
51233,29149,53358
51179,29107,53276
51127,29065,53195
51078,29024,53117
51029,28986,53042
50981,28948,52968
50936,28909,52893
50892,28868,52818
50849,28827,52740
50808,28785,52662
50771,28744,52588
50740,28708,52519
50715,28678,52456
50691,28652,52399
50666,28629,52347
50639,28608,52299
50613,28589,52255
50589,28572,52217
50565,28557,52184
50543,28543,52156
50522,28529,52134
50498,28514,52114
50471,28498,52094
50446,28480,52070
50420,28460,52038
50392,28438,51998
50359,28411,51950
50320,28377,51896
50279,28340,51839
50235,28300,51777
50191,28262,51715
50147,28227,51655
50106,28197,51600
50069,28173,51553
50033,28152,51510
49997,28134,51471
49961,28116,51437
49925,28099,51409
49889,28082,51386
49854,28065,51366
49822,28049,51344
49793,28032,51319
49765,28017,51291
49736,28002,51259
49706,27985,51225
49674,27966,51193
49644,27951,51165
49621,27944,51147
49610,27949,51150
49615,27971,51185
49643,28017,51260
49696,28089,51384
49774,28187,51561
49880,28310,51789
50013,28459,52066
50168,28633,52385
50339,28823,52735
50521,29022,53101
50709,29223,53473
50897,29422,53844
51081,29619,54205
51256,29807,54546
51415,29982,54858
51555,30140,55133
51673,30276,55371
51770,30386,55568
51843,30473,55723
51890,30537,55840
51917,30577,55919
51925,30596,55963
51918,30597,55976
51897,30583,55962
51863,30556,55925
51818,30513,55865
51763,30455,55785
51699,30386,55688
51627,30311,55579
51548,30232,55462
51461,30151,55338
51372,30069,55209
51285,29988,55080
51201,29906,54952
51118,29823,54821
51037,29739,54688
50958,29656,54557
50883,29577,54427
50809,29500,54299
50736,29426,54175
50662,29356,54057
50589,29292,53940
50519,29234,53825
50453,29178,53714
50393,29124,53606
50339,29074,53499
50290,29027,53397
50242,28980,53303
50197,28932,53216
50159,28888,53138
50125,28849,53071
50096,28816,53015
50072,28790,52973
50054,28770,52945
50043,28755,52929
50037,28745,52925
50030,28739,52929
50020,28738,52938
50010,28741,52952
50002,28748,52972
49997,28756,52998
49998,28770,53031
50004,28790,53068
50014,28812,53110
50026,28831,53154
50036,28848,53199
50044,28864,53242
50047,28878,53282
50044,28892,53317
50041,28903,53347
50037,28913,53374
50033,28918,53393
50026,28917,53402
50018,28912,53402
50008,28906,53393
49993,28896,53374
49972,28881,53344
49944,28861,53300
49909,28832,53245
49867,28798,53183
49822,28760,53115
49773,28720,53044
49722,28680,52970
49671,28641,52895
49620,28603,52818
49567,28566,52737
49515,28528,52657
49466,28490,52579
49421,28455,52506
49379,28421,52434
49339,28389,52365
49302,28360,52297
49266,28334,52229
49233,28309,52162
49208,28287,52101
49191,28264,52043
49180,28242,51986
49172,28220,51931
49165,28196,51877
49154,28171,51824
49142,28149,51772
49125,28129,51723
49107,28110,51682
49090,28091,51647
49074,28072,51616
49058,28053,51585
49042,28037,51553
49026,28023,51521
49010,28007,51488
48993,27989,51454
48973,27971,51421
48951,27953,51387
48929,27935,51354
48909,27920,51321
48890,27906,51291
48871,27890,51262
48853,27875,51236
48835,27862,51213
48817,27850,51191
48799,27838,51171
48785,27827,51152
48772,27817,51134
48763,27808,51117
48755,27802,51103
48751,27800,51092
48751,27802,51084
48754,27807,51077
48760,27815,51068
48768,27825,51057
48776,27834,51047
48783,27835,51033
48785,27830,51017
48781,27823,51001
48773,27814,50985
48766,27803,50968
48760,27791,50952
48753,27782,50938
48745,27774,50924
48734,27766,50910
48723,27753,50895
48712,27741,50881
48701,27733,50870
48693,27731,50865
48693,27738,50875
48705,27758,50916
48734,27799,50994
48786,27865,51117
48867,27960,51287
48980,28082,51502
49123,28229,51762
49291,28398,52062
49478,28585,52390
49675,28781,52731
49875,28975,53073
50074,29167,53411
50268,29354,53744
50453,29532,54066
50625,29697,54370
50780,29848,54650
50919,29984,54900
51037,30102,55117
51133,30199,55298
51208,30274,55440
51259,30327,55543
51285,30354,55607
51286,30358,55633
51267,30343,55626
51232,30312,55593
51184,30266,55537
51123,30204,55462
51052,30132,55371
50973,30056,55267
50893,29982,55153
50812,29908,55033
50733,29835,54908
50660,29761,54779
50592,29690,54651
50527,29620,54527
50465,29553,54408
50406,29489,54291
50350,29430,54179
50297,29371,54068
50246,29310,53956
50193,29246,53845
50140,29180,53731
50086,29111,53613
50029,29044,53495
49971,28979,53380
49915,28916,53273
49865,28860,53172
49818,28811,53078
49776,28771,52993
49739,28738,52919
49706,28709,52856
49678,28683,52804
49657,28664,52768
49643,28652,52747
49636,28649,52740
49637,28656,52747
49648,28672,52771
49666,28695,52811
49689,28722,52861
49717,28753,52919
49748,28786,52981
49780,28817,53046
49811,28850,53114
49843,28881,53185
49874,28912,53258
49904,28943,53333
49935,28973,53405
49969,29005,53475
50002,29040,53542
50033,29074,53603
50061,29107,53655
50085,29137,53694
50105,29163,53723
50121,29180,53744
50136,29190,53758
50148,29195,53762
50158,29195,53756
50164,29190,53741
50165,29180,53714
50158,29163,53676
50145,29140,53629
50128,29113,53574
50106,29081,53513
50078,29045,53447
50046,29007,53380
50010,28968,53315
49972,28930,53249
49931,28892,53181
49890,28857,53111
49849,28820,53041
49808,28778,52966
49766,28731,52885
49721,28681,52801
49675,28631,52715
49632,28581,52630
49589,28533,52547
49546,28488,52467
49504,28448,52388
49463,28413,52311
49426,28381,52240
49389,28349,52176
49356,28317,52116
49325,28288,52060
49299,28261,52008
49276,28235,51961
49254,28210,51917
49231,28188,51875
49206,28167,51833
49182,28145,51789
49158,28123,51748
49133,28102,51708
49109,28082,51669
49085,28064,51634
49063,28047,51605
49043,28030,51577
49022,28012,51547
49000,27993,51516
48979,27976,51485
48962,27962,51455
48946,27950,51426
48932,27941,51399
48922,27936,51377
48915,27934,51359
48907,27933,51343
48898,27931,51328
48890,27926,51312
48884,27917,51297
48877,27908,51283
48866,27896,51268
48852,27882,51251
48838,27866,51233
48826,27851,51214
48817,27839,51193
48808,27827,51169
48801,27816,51146
48797,27807,51131
48799,27804,51130
48814,27815,51153
48843,27845,51207
48890,27894,51298
48959,27966,51427
49053,28061,51601
49172,28184,51824
49314,28334,52093
49478,28509,52400
49655,28699,52734
49840,28896,53082
50029,29096,53436
50218,29296,53786
50403,29489,54124
50577,29670,54442
50733,29831,54733
50870,29971,54992
50986,30090,55215
51079,30189,55401
51151,30267,55550
51207,30325,55658
51245,30363,55728
51263,30378,55766
51264,30376,55777
51253,30363,55765
51230,30341,55734
51200,30313,55689
51162,30279,55634
51120,30240,55570
51073,30198,55497
51024,30154,55415
50972,30105,55321
50919,30050,55218
50863,29987,55111
50801,29919,54998
50731,29846,54879
50656,29771,54756
50578,29696,54631
50498,29621,54506
50417,29548,54381
50337,29477,54256
50258,29404,54134
50177,29330,54013
50097,29257,53893
50023,29184,53775
49954,29116,53663
49890,29052,53554
49829,28994,53453
49774,28946,53364
49730,28909,53291
49697,28883,53234
49675,28868,53193
49664,28863,53165
49663,28863,53150
49669,28868,53145
49683,28876,53152
49705,28890,53170
49730,28909,53198
49758,28930,53234
49789,28956,53277
49823,28988,53327
49859,29023,53386
49897,29062,53455
49938,29103,53532
49984,29148,53617
50031,29194,53705
50081,29242,53795
50132,29294,53882
50183,29345,53965
50228,29391,54040
50268,29431,54105
50302,29464,54160
50329,29489,54201
50345,29504,54227
50353,29513,54238
50352,29514,54233
50343,29505,54215
50325,29488,54187
50300,29466,54151
50274,29440,54108
50249,29411,54059
50220,29378,54005
50190,29344,53947
50159,29311,53886
50127,29277,53821
50094,29241,53752
50058,29200,53681
50019,29155,53606
49975,29108,53528
49923,29059,53445
49868,29008,53357
49811,28957,53269
49757,28909,53185
49705,28863,53104
49658,28818,53026
49618,28774,52950
49580,28730,52876
49543,28688,52801
49509,28650,52726
49478,28618,52656
49449,28590,52591
49422,28564,52528
49396,28540,52468
49372,28516,52411
49349,28492,52358
49330,28468,52312
49316,28450,52273
49307,28434,52241
49298,28419,52210
49290,28403,52178
49283,28387,52145
49275,28372,52113
49266,28357,52083
49256,28346,52056
49244,28336,52031
49230,28327,52005
49212,28314,51977
49194,28297,51949
49176,28280,51921
49160,28263,51893
49142,28248,51867
49127,28237,51846
49114,28228,51829
49101,28220,51813
49087,28212,51797
49075,28202,51781
49063,28191,51763
49051,28179,51744
49039,28168,51724
49024,28157,51705
49005,28148,51684
48987,28139,51662
48968,28126,51636
48948,28108,51604
48922,28086,51568
48893,28062,51533
48862,28041,51499
48834,28026,51473
48815,28020,51462
48808,28026,51473
48819,28050,51510
48852,28095,51584
48911,28164,51704
48995,28259,51875
49103,28383,52100
49237,28536,52374
49393,28709,52689
49563,28898,53032
49741,29096,53391
49926,29299,53756
50113,29503,54122
50301,29705,54480
50481,29899,54820
50647,30079,55134
50795,30239,55415
50922,30376,55660
51026,30487,55866
51109,30573,56031
51170,30637,56157
51207,30679,56246
51221,30699,56298
51215,30703,56320
51193,30693,56317
51158,30668,56288
51109,30628,56235
51050,30577,56165
50986,30520,56081
50919,30461,55989
50848,30402,55887
50771,30343,55778
50692,30282,55667
50614,30219,55555
50542,30156,55446
50473,30094,55339
50408,30037,55238
50348,29984,55143
50291,29933,55054
50240,29886,54971
50195,29845,54895
50153,29807,54819
50112,29772,54742
50071,29735,54665
50028,29696,54587
49983,29654,54510
49939,29611,54433
49896,29571,54359
49854,29536,54287
49817,29504,54220
49787,29478,54161
49762,29456,54111
49743,29440,54070
49728,29425,54036
49717,29415,54010
49709,29410,53996
49704,29411,53994
49704,29420,54007
49713,29436,54035
49731,29456,54075
49759,29480,54123
49791,29510,54178
49823,29544,54238
49854,29578,54299
49883,29612,54359
49910,29646,54418
49934,29676,54474
49958,29706,54528
49982,29734,54579
50007,29759,54625
50031,29781,54666
50052,29801,54703
50068,29819,54734
50081,29837,54755
50092,29853,54767
50101,29864,54770
50107,29870,54763
50112,29870,54747
50117,29864,54722
50120,29853,54689
50120,29839,54652
50120,29822,54613
50120,29805,54573
50118,29787,54531
50114,29765,54485
50109,29740,54435
50104,29716,54383
50099,29692,54326
50091,29666,54267
50080,29638,54206
50064,29610,54144
50045,29582,54084
50021,29552,54026
49995,29521,53971
49970,29493,53916
49944,29466,53863
49919,29442,53813
49895,29419,53763
49868,29395,53710
49837,29367,53655
49800,29334,53596
49759,29296,53532
49714,29256,53466
49668,29214,53402
49624,29171,53337
49583,29129,53270
49541,29088,53202
49499,29049,53138
49461,29013,53076
49426,28980,53018
49395,28949,52965
49367,28921,52917
49344,28895,52874
49325,28873,52833
49312,28856,52799
49303,28847,52773
49301,28843,52752
49305,28844,52734
49310,28845,52718
49312,28844,52701
49312,28840,52681
49309,28831,52659
49300,28819,52637
49287,28807,52616
49272,28798,52599
49257,28792,52584
49242,28786,52566
49227,28778,52543
49212,28770,52518
49198,28760,52492
49182,28746,52464
49162,28729,52434
49138,28708,52400
49112,28684,52361
49085,28658,52319
49055,28631,52274
49025,28603,52230
48998,28576,52190
48977,28552,52157
48961,28534,52134
48951,28524,52125
48950,28527,52135
48964,28548,52172
48998,28590,52246
49057,28658,52362
49142,28752,52525
49253,28877,52739
49390,29030,53001
49547,29205,53303
49723,29397,53639
49916,29603,53999
50123,29816,54376
50337,30032,54759
50549,30244,55137
50752,30444,55497
50946,30628,55827
51121,30793,56125
51273,30935,56386
51397,31053,56608
51496,31148,56789
51569,31221,56933
51618,31277,57043
51644,31316,57122
51651,31338,57170
51640,31343,57186
51614,31333,57174
51580,31309,57139
51540,31274,57087
51497,31231,57019
51448,31185,56940
51396,31134,56853
51347,31080,56761
51302,31023,56667
51257,30966,56574
51211,30910,56484
51167,30857,56400
51126,30810,56323
51090,30769,56254
51059,30734,56194
51029,30704,56142
51000,30677,56094
50972,30653,56047
50947,30631,56002
50922,30609,55956
50896,30586,55908
50871,30560,55857
50845,30530,55802
50815,30498,55741
50778,30466,55674
50739,30431,55603
50697,30394,55532
50657,30358,55467
50621,30327,55412
50588,30300,55371
50561,30278,55341
50541,30264,55319
50528,30257,55307
50521,30257,55308
50525,30265,55322
50540,30279,55349
50563,30302,55384
50593,30331,55428
50627,30364,55481
50664,30398,55537
50699,30431,55591
50730,30460,55641
50756,30485,55686
50775,30505,55728
50790,30521,55764
50803,30532,55792
50816,30540,55812
50826,30547,55824
50835,30551,55828
50842,30552,55824
50846,30549,55813
50847,30543,55797
50841,30534,55778
50832,30523,55753
50820,30507,55723
50806,30491,55685
50786,30473,55638
50758,30452,55587
50726,30427,55539
50691,30399,55491
50655,30367,55437
50616,30328,55376
50578,30288,55312
50541,30249,55248
50502,30209,55182
50460,30164,55112
50414,30113,55036
50363,30057,54953
50309,29998,54862
50251,29940,54764
50193,29884,54664
50132,29829,54562
50070,29777,54460
50008,29729,54359
49950,29683,54265
49896,29638,54177
49844,29593,54095
49794,29552,54017
49748,29514,53945
49702,29479,53879
49655,29445,53814
49611,29412,53750
49567,29376,53688
49525,29339,53629
49485,29305,53571
49447,29272,53514
49411,29240,53460
49379,29209,53411
49349,29179,53363
49321,29150,53317
49293,29125,53274
49264,29104,53235
49239,29086,53196
49220,29072,53158
49203,29059,53121
49184,29045,53085
49163,29031,53052
49143,29019,53024
49127,29010,53001
49113,29000,52981
49104,28992,52966
49100,28983,52952
49101,28976,52940
49105,28971,52929
49108,28966,52916
49109,28961,52903
49109,28954,52888
49104,28945,52870
49095,28936,52849
49083,28925,52825
49069,28913,52799
49055,28901,52771
49041,28888,52743
49028,28875,52717
49015,28862,52692
49001,28848,52665
48988,28833,52637
48975,28819,52605
48958,28804,52571
48940,28789,52539
48922,28777,52515
48909,28772,52506
48907,28778,52523
48922,28802,52576
48959,28849,52671
49025,28926,52815
49122,29032,53012
49247,29168,53262
49400,29331,53557
49574,29514,53886
49761,29711,54239
49955,29916,54608
50153,30127,54984
50349,30336,55358
50536,30534,55716
50711,30716,56048
50871,30881,56345
51009,31023,56601
51120,31142,56814
51207,31236,56984
51271,31306,57112
51313,31354,57200
51335,31379,57251
51338,31386,57270
51327,31375,57261
51305,31351,57229
51274,31317,57181
51235,31277,57118
51191,31232,57044
51140,31182,56962
51082,31129,56872
51019,31074,56781
50953,31020,56690
50888,30967,56603
50827,30916,56518
50769,30868,56436
50714,30822,56358
50661,30778,56282
50608,30733,56207
50558,30689,56130
50512,30646,56052
50470,30603,55977
50431,30560,55902
50394,30521,55829
50357,30485,55758
50320,30449,55689
50282,30413,55618
50243,30374,55545
50203,30336,55474
50164,30300,55402
50125,30265,55333
50084,30232,55270
50047,30203,55216
50013,30178,55174
49986,30158,55143
49969,30144,55125
49961,30135,55121
49960,30133,55128
49966,30138,55144
49980,30151,55171
50001,30170,55207
50028,30194,55252
50063,30228,55305
50105,30267,55364
50148,30309,55426
50193,30352,55492
50242,30397,55559
50292,30444,55623
50340,30488,55684
50385,30531,55740
50424,30570,55791
50454,30602,55834
50475,30626,55870
50485,30642,55897
50489,30652,55915
50487,30654,55922
50481,30650,55916
50469,30642,55896
50453,30629,55863
50433,30607,55818
50406,30576,55761
50372,30538,55695
50333,30495,55623
50289,30449,55544
50244,30399,55459
50198,30348,55373
50150,30298,55285
50099,30248,55197
50043,30197,55110
49986,30148,55022
49931,30102,54932
49876,30056,54840
49817,30009,54746
49757,29960,54651
49696,29909,54558
49639,29856,54469
49586,29802,54382
49534,29750,54295
49484,29701,54212
49438,29655,54131
49394,29609,54050
49349,29563,53969
49303,29515,53890
49256,29467,53814
49210,29422,53746
49170,29383,53686
49136,29353,53635
49108,29331,53593
49086,29316,53557
49070,29305,53526
49060,29295,53499
49049,29284,53476
49040,29274,53454
49029,29265,53431
49018,29257,53406
49005,29247,53379
48989,29234,53353
48975,29222,53327
48964,29211,53300
48958,29201,53273
48954,29189,53246
48948,29176,53220
48941,29165,53197
48932,29156,53176
48925,29150,53158
48919,29146,53142
48910,29143,53127
48901,29140,53113
48891,29135,53096
48881,29128,53077
48871,29118,53055
48862,29107,53032
48849,29092,53007
48832,29074,52981
48813,29051,52954
48791,29027,52926
48771,29007,52895
48752,28992,52863
48735,28977,52832
48719,28962,52802
48704,28948,52771
48691,28935,52742
48679,28921,52715
48670,28907,52692
48665,28898,52679
48667,28900,52682
48680,28916,52710
48707,28947,52768
48754,29001,52863
48824,29079,53004
48919,29182,53195
49043,29314,53435
49192,29471,53717
49359,29645,54029
49537,29830,54360
49724,30020,54703
49914,30211,55050
50101,30396,55391
50277,30573,55716
50443,30736,56017
50595,30883,56291
50732,31012,56532
50851,31125,56737
50948,31217,56904
51022,31288,57035
51077,31339,57132
51115,31370,57195
51134,31381,57225
51136,31373,57223
51122,31349,57196
51093,31314,57149
51054,31273,57086
51012,31228,57011
50968,31180,56929
50921,31129,56840
50869,31074,56746
50811,31016,56647
50748,30955,56545
50682,30891,56443
50616,30827,56340
50551,30760,56235
50487,30694,56133
50425,30632,56034
50365,30573,55935
50308,30515,55834
50250,30457,55731
50190,30398,55622
50127,30338,55508
50063,30276,55392
49997,30211,55280
49927,30146,55173
49862,30087,55074
49807,30036,54986
49762,29993,54910
49725,29957,54848
49694,29929,54800
49672,29910,54768
49657,29901,54750
49652,29900,54744
49654,29906,54747
49664,29920,54762
49679,29938,54786
49700,29959,54817
49729,29987,54859
49764,30021,54915
49802,30057,54981
49842,30095,55051
49884,30132,55123
49925,30167,55197
49962,30200,55271
49999,30233,55340
50034,30265,55401
50066,30292,55452
50090,30314,55495
50107,30332,55529
50117,30343,55552
50121,30347,55565
50117,30341,55565
50108,30332,55554
50095,30319,55532
50078,30299,55498
50056,30275,55451
50030,30245,55391
50000,30211,55321
49966,30172,55247
49928,30131,55168
49886,30087,55085
49841,30040,55000
49793,29990,54914
49744,29940,54828
49699,29890,54744
49658,29843,54662
49623,29801,54587
49594,29768,54521
49570,29740,54458
49549,29713,54395
49524,29685,54331
49497,29656,54266
49470,29626,54200
49442,29599,54133
49413,29571,54068
49380,29543,54003
49345,29514,53937
49310,29484,53871
49277,29450,53809
49244,29417,53753
49207,29385,53699
49170,29353,53644
49136,29321,53590
49107,29292,53537
49081,29267,53483
49055,29242,53431
49028,29216,53382
49001,29189,53333
48974,29164,53286
48949,29142,53243
48923,29121,53204
48895,29100,53168
48868,29078,53135
48846,29060,53108
48831,29047,53086
48823,29041,53068
48818,29036,53049
48816,29031,53031
48812,29027,53013
48809,29024,52993
48810,29025,52974
48811,29027,52957
48809,29028,52943
48805,29028,52931
48800,29026,52918
48793,29018,52905
48780,29005,52889
48764,28989,52867
48746,28972,52842
48729,28953,52816
48712,28934,52786
48693,28914,52754
48673,28893,52721
48654,28872,52689
48640,28854,52657
48630,28841,52628
48622,28833,52599
48613,28824,52572
48607,28816,52547
48602,28809,52523
48598,28801,52498
48594,28791,52475
48589,28781,52459
48584,28776,52453
48585,28780,52466
48598,28796,52502
48626,28830,52567
48678,28889,52671
48758,28974,52823
48869,29089,53029
49011,29235,53287
49182,29408,53587
49373,29599,53921
49576,29799,54280
49785,30009,54657
49998,30222,55041
50208,30431,55422
50407,30631,55788
50592,30820,56132
50762,30992,56447
50915,31146,56725
51052,31280,56963
51172,31393,57162
51271,31483,57322
51347,31551,57443
51401,31596,57524
51434,31620,57567
51447,31626,57578
51441,31614,57565
51418,31587,57531
51383,31550,57481
51341,31506,57415
51293,31456,57338
51241,31401,57253
51187,31345,57162
51133,31287,57068
51078,31228,56970
51022,31170,56870
50966,31114,56772
50915,31060,56681
50868,31011,56600
50826,30969,56528
50787,30934,56464
50751,30906,56408
50718,30882,56357
50687,30857,56308
50659,30829,56255
50632,30795,56196
50603,30760,56133
50573,30724,56066
50544,30690,55998
50515,30657,55929
50484,30624,55861
50451,30592,55797
50419,30560,55742
50392,30533,55700
50373,30514,55673
50364,30505,55662
50363,30507,55664
50371,30518,55676
50385,30536,55698
50406,30559,55729
50433,30586,55769
50466,30620,55819
50505,30659,55876
50545,30699,55933
50583,30736,55989
50618,30771,56044
50650,30803,56096
50680,30832,56144
50705,30856,56189
50727,30872,56228
50745,30882,56258
50757,30887,56275
50763,30887,56283
50763,30883,56283
50758,30876,56272
50749,30867,56251
50735,30855,56223
50714,30839,56191
50689,30817,56155
50660,30791,56115
50632,30762,56073
50604,30732,56029
50574,30703,55977
50542,30673,55918
50508,30641,55855
50472,30607,55786
50435,30572,55712
50395,30535,55634
50350,30492,55555
50299,30445,55473
50246,30396,55387
50193,30344,55298
50141,30290,55209
50091,30233,55122
50041,30178,55035
49992,30124,54949
49942,30070,54863
49892,30016,54776
49843,29965,54691
49796,29918,54607
49751,29873,54526
49707,29833,54446
49665,29795,54371
49625,29757,54301
49587,29722,54237
49550,29691,54176
49518,29665,54119
49492,29644,54067
49468,29626,54019
49444,29610,53972
49420,29593,53924
49391,29575,53878
49358,29553,53833
49325,29529,53788
49296,29508,53746
49269,29490,53706
49243,29471,53668
49219,29453,53632
49197,29435,53600
49175,29416,53568
49151,29392,53537
49127,29367,53505
49106,29343,53473
49087,29318,53443
49069,29293,53417
49053,29271,53393
49041,29256,53369
49032,29247,53347
49024,29242,53325
49018,29238,53303
49014,29235,53282
49008,29231,53262
49002,29228,53242
48996,29223,53221
48987,29213,53197
48974,29198,53169
48957,29181,53135
48940,29163,53096
48923,29145,53057
48905,29127,53018
48885,29107,52979
48865,29088,52941
48843,29069,52901
48815,29048,52861
48785,29027,52820
48758,29009,52781
48733,28992,52745
48710,28974,52708
48689,28954,52671
48671,28935,52633
48653,28915,52598
48635,28897,52571
48621,28884,52557
48618,28882,52561
48631,28897,52594
48668,28937,52670
48734,29008,52798
48831,29112,52983
48961,29250,53225
49123,29416,53522
49310,29608,53861
49518,29818,54234
49738,30038,54630
49962,30260,55039
50184,30478,55447
50399,30687,55844
50601,30885,56218
50788,31067,56560
50955,31229,56859
51099,31368,57114
51215,31479,57324
51306,31563,57492
51374,31622,57618
51418,31658,57703
51440,31676,57748
51444,31677,57758
51435,31663,57742
51412,31637,57705
51378,31603,57649
51338,31564,57579
51295,31521,57498
51247,31474,57410
51192,31422,57320
51136,31368,57230
51081,31316,57141
51027,31270,57056
50975,31226,56977
50925,31182,56906
50880,31139,56842
50840,31099,56782
50801,31060,56727
50763,31023,56675
50727,30988,56624
50692,30955,56577
50655,30923,56533
50617,30888,56485
50580,30849,56431
50543,30808,56372
50504,30765,56309
50465,30724,56241
50429,30686,56172
50393,30653,56104
50359,30622,56038
50328,30594,55980
50301,30570,55930
50278,30549,55892
50260,30533,55865
50248,30522,55850
50243,30516,55847
50247,30515,55854
50258,30521,55872
50276,30535,55898
50302,30554,55932
50329,30578,55969
50356,30605,56008
50381,30634,56046
50407,30663,56083
50429,30686,56118
50445,30702,56146
50455,30713,56168
50460,30720,56184
50459,30723,56196
50452,30722,56201
50442,30718,56199
50429,30709,56193
50415,30694,56180
50400,30677,56161
50385,30657,56135
50369,30637,56105
50353,30616,56070
50335,30595,56031
50313,30574,55990
50287,30552,55943
50260,30525,55891
50234,30495,55835
50209,30465,55777
50185,30434,55720
50160,30402,55662
50132,30367,55599
50098,30329,55532
50060,30290,55462
50018,30250,55388
49974,30209,55308
49932,30168,55221
49889,30123,55131
49843,30073,55044
49796,30021,54958
49748,29971,54870
49699,29922,54782
49647,29872,54689
49592,29823,54594
49539,29774,54500
49488,29726,54409
49441,29682,54325
49400,29645,54248
49364,29611,54178
49331,29580,54115
49299,29550,54057
49269,29523,54005
49241,29498,53956
49215,29477,53913
49188,29455,53873
49159,29434,53835
49128,29411,53796
49096,29386,53756
49064,29360,53716
49038,29334,53677
49014,29310,53640
48991,29286,53605
48966,29263,53571
48939,29239,53534
48908,29211,53493
48869,29183,53448
48823,29154,53403
48775,29124,53357
48727,29092,53310
48677,29056,53260
48626,29018,53206
48577,28978,53151
48529,28936,53091
48480,28892,53026
48430,28844,52959
48381,28796,52893
48335,28750,52829
48290,28709,52767
48250,28675,52709
48214,28646,52656
48183,28615,52606
48156,28584,52560
48132,28559,52519
48112,28540,52487
48094,28525,52459
48076,28512,52434
48059,28505,52411
48041,28499,52388
48022,28490,52363
48003,28475,52336
47986,28458,52306
47972,28439,52274
47957,28417,52235
47939,28392,52192
47918,28366,52143
47893,28340,52092
47868,28313,52041
47842,28286,51989
47814,28261,51934
47785,28237,51879
47756,28213,51827
47733,28194,51787
47722,28187,51766
47727,28194,51775
47753,28221,51824
47806,28273,51923
47891,28356,52080
48007,28471,52296
48155,28620,52572
48333,28800,52900
48533,29003,53268
48746,29221,53663
48969,29448,54075
49195,29678,54495
49421,29906,54914
49641,30126,55321
49847,30329,55702
50034,30515,56048
50203,30681,56354
50350,30826,56619
50475,30947,56839
50579,31042,57014
50660,31113,57144
50717,31158,57230
50752,31183,57278
50768,31191,57292
50768,31181,57281
50754,31157,57251
50729,31124,57202
50694,31083,57135
50652,31038,57056
50602,30988,56968
50547,30932,56875
50489,30874,56777
50429,30817,56677
50368,30758,56580
50312,30701,56488
50262,30649,56403
50216,30601,56324
50174,30555,56253
50134,30514,56189
50094,30475,56129
50057,30438,56068
50024,30403,56008
49993,30370,55946
49958,30338,55880
49919,30304,55814
49878,30271,55746
49837,30238,55681
49798,30206,55620
49758,30175,55560
49720,30146,55503
49689,30121,55448
49666,30098,55398
49648,30076,55354
49635,30055,55315
49623,30034,55283
49613,30015,55258
49606,30000,55243
49602,29991,55240
49604,29990,55247
49611,29996,55264
49623,30009,55291
49639,30028,55327
49660,30050,55370
49686,30075,55417
49715,30102,55463
49742,30129,55507
49766,30155,55549
49787,30179,55588
49804,30199,55621
49820,30214,55648
49832,30222,55667
49842,30226,55677
49848,30227,55677
49848,30221,55668
49842,30211,55651
49832,30200,55626
49818,30185,55594
49800,30166,55553
49776,30143,55503
49745,30115,55447
49706,30079,55387
49661,30037,55321
49614,29993,55249
49566,29949,55172
49516,29904,55091
49465,29857,55005
49415,29808,54917
49366,29758,54828
49317,29707,54739
49267,29659,54647
49216,29608,54552
49162,29555,54455
49106,29500,54355
49050,29445,54258
48995,29390,54165
48940,29339,54077
48889,29289,53992
48842,29241,53909
48797,29196,53826
48754,29151,53746
48713,29109,53671
48673,29072,53596
48635,29037,53522
48596,29001,53449
48558,28963,53376
48520,28923,53305
48480,28883,53236
48438,28845,53171
48395,28808,53113
48354,28774,53061
48318,28746,53012
48288,28722,52967
48260,28701,52925
48235,28681,52886
48214,28660,52850
48195,28639,52817
48178,28616,52787
48162,28593,52757
48145,28572,52728
48125,28552,52702
48103,28535,52674
48078,28517,52639
48051,28496,52598
48021,28469,52553
47994,28442,52506
47967,28418,52462
47942,28398,52427
47919,28380,52399
47899,28366,52376
47883,28357,52357
47873,28352,52343
47868,28353,52333
47868,28357,52327
47873,28365,52324
47880,28374,52320
47887,28383,52313
47893,28391,52304
47898,28397,52292
47901,28397,52275
47903,28392,52255
47907,28384,52232
47911,28377,52210
47915,28370,52190
47920,28364,52171
47927,28358,52154
47939,28353,52140
47954,28347,52128
47970,28343,52116
47987,28343,52105
48002,28347,52095
48017,28355,52086
48029,28364,52074
48039,28372,52059
48047,28379,52043
48053,28384,52025
48059,28390,52012
48072,28402,52012
48095,28423,52031
48131,28457,52075
48185,28510,52153
48262,28587,52275
48367,28694,52449
48499,28832,52679
48658,28998,52963
48836,29186,53289
49028,29384,53642
49228,29586,54011
49436,29788,54390
49646,29987,54771
49851,30183,55145
50048,30369,55504
50230,30542,55836
50395,30699,56133
50542,30840,56393
50672,30963,56616
50783,31067,56801
50873,31148,56949
50937,31205,57055
50975,31239,57120
50989,31251,57147
50979,31241,57142
50947,31209,57107
50898,31162,57049
50835,31105,56972
50762,31041,56880
50683,30973,56779
50604,30903,56673
50530,30835,56560
50462,30770,56445
50398,30709,56333
50335,30649,56222
50272,30588,56111
50209,30525,56001
50145,30460,55892
50083,30393,55784
50022,30328,55677
49962,30268,55573
49899,30211,55473
49833,30155,55375
49766,30099,55280
49701,30046,55185
49639,29995,55090
49580,29947,54995
49523,29898,54900
49465,29850,54808
49409,29804,54720
49356,29761,54638
49309,29724,54564
49270,29694,54502
49239,29674,54459
49217,29662,54432
49206,29661,54421
49206,29668,54423
49219,29684,54441
49242,29706,54471
49273,29732,54512
49311,29762,54564
49352,29796,54627
49394,29833,54698
49433,29872,54773
49470,29911,54847
49505,29950,54919
49541,29988,54988
49577,30025,55052
49610,30059,55110
49640,30087,55158
49666,30110,55196
49688,30129,55222
49705,30139,55237
49715,30142,55240
49718,30140,55229
49715,30134,55204
49707,30123,55171
49695,30108,55133
49677,30091,55090
49652,30070,55044
49620,30045,54994
49584,30013,54935
49542,29974,54863
49497,29928,54782
49448,29879,54696
49397,29829,54608
49346,29777,54516
49294,29724,54422
49240,29672,54330
49186,29621,54238
49134,29571,54145
49084,29522,54053
49033,29473,53962
48983,29425,53869
48936,29379,53774
48892,29333,53682
48849,29288,53594
48810,29245,53509
48773,29208,53427
48736,29175,53352
48698,29144,53283
48662,29114,53218
48630,29086,53159
48599,29058,53102
48570,29030,53046
48540,29004,52992
48512,28979,52940
48487,28953,52887
48463,28928,52834
48441,28907,52784
48422,28889,52738
48403,28872,52694
48386,28855,52654
48374,28840,52620
48366,28826,52596
48361,28816,52580
48359,28808,52569
48361,28805,52561
48364,28805,52554
48366,28807,52546
48365,28807,52538
48364,28806,52529
48362,28805,52519
48357,28802,52507
48352,28799,52495
48349,28796,52482
48344,28793,52468
48340,28790,52453
48338,28787,52435
48335,28782,52415
48331,28777,52395
48324,28772,52376
48314,28764,52355
48301,28753,52330
48285,28737,52302
48267,28720,52275
48248,28703,52250
48232,28687,52229
48219,28675,52210
48210,28667,52193
48208,28663,52177
48211,28662,52161
48215,28661,52147
48217,28657,52130
48213,28649,52106
48204,28638,52075
48193,28625,52040
48178,28610,52007
48162,28592,51971
48141,28571,51931
48115,28549,51889
48087,28530,51847
48057,28511,51808
48026,28491,51772
48000,28473,51738
47981,28464,51712
47975,28469,51708
47987,28491,51737
48020,28534,51808
48077,28599,51928
48162,28690,52103
48277,28810,52337
48422,28961,52632
48593,29140,52972
48786,29336,53340
48993,29541,53722
49208,29752,54111
49422,29965,54497
49627,30171,54867
49817,30364,55213
49987,30536,55526
50136,30686,55801
50267,30813,56038
50379,30920,56238
50473,31006,56402
50548,31072,56527
50607,31119,56616
50649,31148,56673
50673,31157,56699
50679,31149,56696
50669,31126,56665
50643,31093,56612
50605,31048,56539
50558,30993,56452
50503,30932,56356
50441,30866,56255
50377,30799,56149
50313,30731,56043
50251,30667,55939
50189,30606,55840
50127,30548,55740
50069,30490,55637
50015,30434,55535
49961,30380,55438
49906,30325,55345
49849,30270,55252
49788,30216,55159
49723,30165,55067
49659,30119,54978
49599,30076,54891
49542,30031,54806
49488,29984,54720
49437,29936,54633
49388,29890,54547
49341,29844,54462
49297,29799,54383
49255,29757,54312
49220,29721,54251
49191,29691,54200
49169,29668,54162
49156,29655,54139
49156,29653,54133
49168,29661,54140
49188,29677,54159
49212,29705,54190
49242,29739,54234
49277,29778,54291
49318,29820,54359
49362,29862,54434
49406,29906,54510
49449,29951,54587
49492,29993,54662
49535,30034,54733
49578,30074,54796
49617,30111,54853
49651,30141,54901
49679,30163,54937
49702,30178,54960
49719,30186,54974
49727,30187,54981
49729,30182,54980
49722,30171,54968
49708,30154,54943
49688,30130,54901
49662,30099,54847
49629,30065,54784
49590,30026,54713
49547,29986,54634
49500,29942,54549
49451,29895,54462
49400,29845,54371
49347,29795,54276
49295,29747,54178
49244,29699,54079
49193,29654,53982
49143,29608,53886
49094,29561,53789
49043,29512,53693
48990,29459,53597
48936,29406,53501
48883,29355,53408
48833,29308,53319
48788,29262,53237
48747,29220,53163
48711,29186,53099
48681,29159,53042
48655,29135,52988
48634,29114,52937
48614,29094,52887
48594,29071,52837
48571,29046,52785
48549,29019,52734
48529,28993,52685
48507,28967,52640
48483,28942,52597
48456,28919,52555
48429,28895,52512
48400,28871,52469
48372,28847,52427
48349,28825,52389
48332,28808,52354
48316,28793,52321
48300,28781,52288
48287,28773,52256
48276,28768,52224
48265,28764,52194
48249,28758,52167
48230,28747,52141
48209,28731,52117
48187,28710,52096
48168,28689,52074
48150,28669,52052
48133,28649,52029
48118,28630,52004
48103,28610,51974
48086,28590,51941
48066,28569,51907
48044,28546,51872
48021,28526,51840
48001,28508,51812
47983,28492,51785
47966,28479,51757
47950,28468,51730
47937,28459,51703
47926,28449,51677
47918,28437,51649
47909,28424,51620
47900,28410,51593
47888,28396,51569
47875,28381,51544
47862,28369,51518
47853,28360,51494
47849,28352,51473
47846,28348,51454
47841,28345,51430
47832,28339,51401
47815,28325,51366
47794,28307,51325
47772,28286,51280
47749,28263,51232
47722,28235,51182
47691,28203,51129
47656,28170,51072
47622,28138,51015
47589,28110,50962
47558,28086,50913
47528,28064,50871
47504,28045,50839
47491,28036,50826
47496,28048,50844
47529,28089,50909
47597,28166,51036
47702,28281,51233
47845,28436,51502
48025,28628,51839
48235,28848,52231
48462,29086,52657
48698,29330,53098
48937,29572,53542
49174,29808,53980
49401,30031,54404
49615,30239,54806
49814,30432,55179
49995,30607,55516
50154,30761,55811
50293,30891,56062
50410,30995,56265
50501,31072,56420
50566,31124,56529
50607,31154,56599
50628,31163,56633
50630,31157,56635
50619,31140,56607
50597,31113,56557
50565,31074,56490
50523,31028,56408
50475,30977,56315
50421,30922,56216
50362,30862,56111
50297,30796,56000
50226,30726,55889
50151,30658,55778
50074,30593,55670
49997,30531,55566
49924,30473,55468
49857,30417,55372
49792,30363,55280
49727,30307,55188
49661,30247,55090
49595,30184,54988
49529,30119,54885
49462,30050,54779
49393,29977,54671
49320,29902,54560
49246,29828,54446
49175,29758,54332
49107,29693,54220
49044,29635,54113
48984,29583,54018
48931,29537,53938
48888,29500,53873
48855,29471,53823
48833,29451,53787
48819,29440,53765
48811,29434,53755
48810,29434,53758
48815,29440,53775
48825,29453,53803
48841,29476,53838
48864,29505,53877
48891,29536,53921
48917,29565,53961
48939,29593,53997
48958,29616,54029
48973,29631,54058
48984,29640,54082
48992,29647,54102
48995,29652,54118
48995,29651,54132
48993,29645,54142
48991,29638,54147
48988,29632,54147
48985,29628,54146
48981,29626,54140
48976,29625,54130
48968,29622,54113
48956,29614,54088
48940,29599,54054
48917,29576,54007
48888,29544,53949
48855,29507,53883
48820,29468,53810
48783,29428,53731
48746,29389,53650
48710,29350,53569
48673,29310,53489
48634,29268,53408
48594,29226,53324
48551,29185,53237
48507,29143,53150
48463,29100,53063
48417,29058,52979
48372,29019,52902
48329,28982,52830
48288,28946,52760
48248,28909,52694
48209,28871,52631
48172,28836,52566
48133,28802,52497
48091,28766,52424
48048,28728,52349
48005,28687,52273
47959,28643,52196
47909,28596,52118
47858,28550,52043
47805,28507,51973
47751,28468,51907
47700,28433,51845
47651,28401,51788
47605,28369,51736
47563,28337,51685
47525,28304,51636
47488,28271,51588
47452,28238,51541
47418,28207,51495
47385,28178,51450
47354,28151,51408
47324,28126,51368
47295,28102,51330
47268,28080,51292
47243,28057,51254
47216,28036,51217
47188,28017,51180
47164,27997,51146
47145,27978,51116
47132,27963,51090
47121,27951,51069
47112,27941,51050
47107,27935,51032
47106,27931,51015
47107,27929,51001
47112,27931,50989
47118,27934,50980
47122,27937,50973
47126,27940,50968
47131,27943,50962
47134,27944,50952
47134,27939,50935
47132,27929,50912
47126,27914,50884
47114,27896,50848
47098,27874,50808
47075,27848,50765
47045,27816,50721
47010,27781,50674
46974,27749,50628
46942,27719,50584
46911,27690,50539
46881,27665,50491
46852,27643,50441
46824,27621,50392
46800,27600,50343
46779,27579,50292
46757,27554,50242
46730,27526,50192
46700,27497,50142
46670,27469,50092
46641,27443,50043
46614,27416,49993
46587,27392,49943
46562,27371,49895
46540,27354,49855
46523,27341,49828
46518,27340,49825
46531,27360,49857
46571,27410,49942
46642,27494,50095
46749,27619,50320
46892,27781,50616
47067,27977,50974
47271,28200,51382
47497,28440,51824
47734,28688,52275
47970,28931,52720
48198,29163,53146
48413,29381,53550
48615,29582,53926
48802,29763,54268
48972,29924,54573
49119,30063,54839
49244,30178,55062
49343,30267,55240
49416,30331,55373
49463,30370,55463
49488,30388,55512
49492,30384,55524
49478,30363,55504
49451,30327,55460
49412,30281,55397
49361,30228,55318
49300,30168,55225
49234,30103,55121
49164,30036,55010
49089,29967,54893
49010,29894,54770
48928,29818,54640
48844,29737,54506
48758,29653,54369
48671,29568,54231
48590,29485,54092
48513,29406,53956
48439,29329,53822
48369,29256,53694
48303,29190,53576
48240,29129,53467
48177,29074,53364
48115,29021,53264
48058,28970,53166
48007,28922,53068
47962,28876,52974
47919,28832,52885
47875,28787,52798
47830,28745,52715
47788,28705,52640
47750,28672,52577
47719,28646,52528
47693,28624,52491
47670,28606,52465
47652,28596,52450
47641,28593,52444
47635,28596,52448
47634,28604,52463
47638,28619,52486
47647,28635,52516
47661,28652,52553
47677,28671,52594
47697,28695,52635
47719,28718,52677
47741,28738,52720
47763,28758,52761
47785,28778,52801
47803,28799,52840
47818,28816,52877
47830,28831,52909
47841,28844,52933
47851,28854,52948
47856,28859,52956
47856,28857,52953
47850,28852,52938
47838,28843,52914
47821,28828,52882
47800,28809,52841
47777,28787,52790
47752,28762,52734
47725,28732,52672
47700,28700,52604
47675,28666,52532
47646,28628,52456
47613,28584,52376
47576,28539,52293
47531,28494,52208
47481,28447,52123
47430,28399,52038
47377,28352,51954
47321,28307,51872
47264,28263,51791
47210,28222,51715
47163,28184,51642
47123,28149,51572
47089,28113,51501
47056,28077,51429
47024,28041,51358
46992,28006,51290
46959,27972,51227
46926,27937,51166
46894,27900,51104
46861,27866,51042
46830,27835,50982
46801,27806,50924
46775,27779,50869
46751,27755,50815
46730,27735,50768
46711,27719,50725
46695,27704,50684
46680,27689,50645
46666,27672,50609
46653,27656,50575
46642,27641,50546
46632,27626,50524
46621,27611,50509
46609,27596,50497
46596,27582,50487
46583,27571,50478
46572,27563,50469
46562,27560,50459
46554,27561,50449
46547,27563,50439
46539,27565,50426
46528,27563,50409
46513,27556,50390
46497,27545,50372
46480,27530,50354
46464,27513,50335
46448,27496,50316
46434,27480,50298
46423,27467,50280
46415,27458,50263
46405,27450,50247
46398,27443,50229
46391,27434,50208
46383,27423,50187
46375,27411,50165
46366,27396,50139
46358,27378,50109
46348,27360,50076
46336,27343,50040
46322,27327,50004
46308,27314,49970
46297,27305,49940
46290,27297,49913
46289,27290,49890
46293,27283,49870
46301,27278,49852
46311,27277,49836
46321,27278,49820
46330,27281,49803
46339,27286,49784
46345,27289,49763
46346,27287,49741
46340,27283,49719
46331,27279,49702
46325,27279,49695
46327,27286,49704
46346,27305,49737
46384,27343,49805
46445,27407,49920
46538,27500,50091
46663,27627,50320
46819,27785,50600
47000,27967,50922
47203,28166,51278
47423,28381,51663
47650,28604,52063
47878,28825,52465
48099,29036,52852
48311,29238,53220
48513,29428,53567
48701,29602,53887
48873,29757,54175
49027,29893,54427
49160,30006,54643
49271,30096,54819
49358,30165,54955
49423,30213,55051
49468,30243,55110
49492,30257,55138
49499,30257,55138
49493,30245,55112
49473,30219,55062
49437,30178,54989
49388,30126,54898
49331,30062,54794
49263,29990,54676
49187,29911,54547
49106,29825,54410
49023,29733,54265
48937,29638,54114
48847,29545,53961
48755,29454,53810
48664,29367,53662
48576,29284,53516
48491,29207,53373
48408,29135,53233
48328,29066,53099
48250,28998,52968
48173,28932,52838
48099,28869,52710
48029,28809,52588
47963,28751,52471
47902,28692,52358
47846,28635,52253
47794,28580,52158
47747,28530,52072
47705,28485,51999
47670,28451,51940
47641,28427,51897
47619,28414,51873
47608,28413,51868
47611,28424,51880
47629,28446,51910
47658,28477,51955
47696,28515,52013
47742,28558,52082
47790,28604,52154
47838,28650,52228
47884,28695,52303
47928,28739,52379
47971,28782,52452
48013,28822,52522
48056,28862,52588
48099,28902,52651
48141,28939,52708
48180,28971,52756
48215,28998,52796
48246,29019,52826
48268,29030,52846
48280,29031,52853
48281,29026,52849
48273,29016,52836
48258,28999,52811
48233,28976,52772
48200,28949,52720
48158,28916,52657
48110,28877,52582
48057,28832,52502
48003,28786,52418
47948,28738,52333
47894,28691,52247
47841,28645,52158
47790,28599,52065
47740,28552,51970
47691,28501,51872
47642,28444,51771
47592,28384,51667
47543,28325,51566
47492,28271,51471
47438,28222,51381
47387,28176,51293
47339,28133,51212
47294,28090,51134
47254,28049,51059
47217,28012,50988
47180,27978,50923
47144,27948,50863
47110,27920,50809
47076,27895,50759
47044,27870,50710
47011,27845,50664
46979,27818,50616
46947,27789,50565
46917,27758,50510
46889,27726,50455
46864,27697,50402
46840,27672,50350
46818,27649,50302
46795,27624,50260
46771,27602,50223
46749,27586,50193
46727,27577,50170
46708,27572,50150
46691,27565,50131
46678,27555,50117
46668,27545,50102
46660,27535,50085
46653,27525,50066
46646,27518,50047
46637,27512,50028
46622,27503,50006
46605,27487,49984
46586,27466,49960
46568,27443,49936
46550,27421,49912
46533,27402,49890
46519,27386,49870
46505,27372,49852
46492,27360,49836
46484,27351,49821
46478,27345,49806
46473,27341,49792
46469,27337,49775
46470,27333,49752
46473,27328,49723
46474,27319,49691
46471,27307,49656
46465,27295,49623
46458,27282,49593
46451,27270,49562
46442,27256,49530
46432,27240,49496
46420,27221,49462
46402,27198,49426
46380,27170,49389
46355,27140,49352
46327,27108,49310
46293,27076,49264
46254,27043,49214
46217,27012,49165
46187,26990,49125
46168,26981,49101
46167,26987,49101
46189,27015,49138
46239,27071,49224
46325,27161,49371
46444,27285,49584
46593,27444,49861
46767,27629,50192
46961,27836,50565
47173,28059,50969
47395,28290,51393
47619,28522,51823
47838,28744,52241
48045,28952,52631
48236,29140,52989
48408,29310,53313
48560,29457,53600
48693,29579,53847
48806,29677,54054
48897,29752,54224
48965,29806,54354
49010,29840,54443
49037,29857,54496
49042,29858,54518
49028,29843,54508
49002,29816,54468
48962,29776,54405
48910,29724,54321
48849,29662,54217
48778,29590,54095
48699,29510,53960
48613,29426,53813
48524,29340,53657
48430,29256,53494
48334,29171,53328
48241,29085,53162
48151,28998,53001
48066,28912,52848
47987,28830,52705
47913,28753,52570
47842,28683,52442
47774,28619,52320
47709,28557,52202
47650,28495,52087
47595,28435,51977
47543,28379,51871
47491,28325,51769
47437,28272,51670
47384,28220,51577
47334,28172,51490
47288,28125,51412
47247,28081,51344
47214,28047,51286
47189,28025,51245
47174,28014,51223
47168,28014,51219
47174,28027,51231
47189,28052,51257
47212,28082,51291
47241,28116,51334
47273,28152,51387
47304,28187,51446
47333,28221,51510
47362,28257,51576
47390,28294,51643
47421,28331,51710
47453,28363,51775
47484,28392,51836
47516,28417,51890
47545,28439,51937
47570,28460,51975
47591,28479,52005
47607,28495,52026
47616,28508,52038
47622,28517,52042
47625,28519,52037
47625,28515,52025
47620,28506,52004
47608,28492,51975
47588,28471,51934
47564,28440,51880
47534,28401,51815
47502,28360,51744
47470,28316,51670
47436,28271,51595
47400,28226,51521
47365,28184,51449
47329,28149,51380
47294,28120,51312
47260,28095,51248
47223,28072,51184
47185,28049,51117
47149,28024,51051
47115,27994,50987
47084,27960,50925
47057,27926,50867
47035,27896,50814
47018,27869,50767
47004,27845,50720
46990,27821,50670
46974,27797,50618
46953,27770,50562
46927,27740,50503
46900,27710,50441
46873,27680,50379
46848,27652,50319
46824,27629,50265
46802,27610,50216
46780,27592,50171
46760,27576,50130
46743,27561,50090
46725,27547,50049
46704,27530,50008
46682,27510,49966
46663,27490,49927
46648,27472,49893
46637,27455,49864
46629,27439,49841
46623,27428,49824
46619,27423,49813
46617,27421,49806
46617,27423,49806
46620,27429,49807
46625,27435,49807
46632,27439,49807
46637,27442,49805
46640,27443,49799
46639,27441,49790
46633,27439,49777
46624,27437,49760
46615,27435,49742
46608,27430,49725
46598,27422,49707
46587,27412,49688
46577,27403,49667
46569,27395,49644
46561,27387,49618
46551,27376,49589
46539,27362,49560
46525,27347,49531
46513,27332,49501
46502,27317,49473
46489,27301,49449
46477,27289,49429
46464,27283,49414
46455,27282,49403
46452,27281,49390
46452,27276,49374
46448,27265,49354
46437,27249,49328
46422,27230,49294
46403,27210,49254
46382,27189,49209
46358,27167,49163
46333,27144,49119
46308,27120,49078
46283,27095,49038
46259,27074,49001
46236,27057,48971
46218,27046,48954
46213,27048,48959
46227,27069,49000
46269,27117,49091
46345,27197,49244
46456,27314,49463
46605,27467,49747
46787,27654,50087
46997,27869,50475
47230,28108,50901
47477,28359,51350
47729,28610,51803
47976,28851,52244
48210,29076,52660
48424,29282,53044
48614,29466,53392
48777,29623,53700
48916,29756,53967
49033,29864,54189
49127,29948,54369
49198,30011,54511
49248,30055,54614
49279,30082,54677
49293,30092,54702
49292,30085,54695
49278,30065,54659
49252,30031,54598
49213,29985,54517
49162,29926,54417
49099,29858,54300
49027,29784,54171
48947,29706,54036
48858,29622,53894
48762,29536,53745
48664,29450,53590
48568,29363,53436
48474,29275,53285
48386,29190,53140
48303,29111,53004
48224,29036,52879
48152,28966,52759
48086,28901,52645
48026,28842,52538
47971,28787,52439
47921,28735,52343
47875,28685,52250
47832,28641,52163
47792,28602,52084
47754,28568,52010
47719,28536,51940
47689,28506,51874
47661,28479,51812
47632,28456,51759
47606,28438,51720
47585,28425,51696
47572,28417,51687
47567,28414,51688
47571,28420,51698
47583,28433,51716
47596,28449,51742
47613,28468,51775
47634,28491,51814
47658,28515,51856
47685,28540,51898
47714,28567,51944
47745,28598,51991
47777,28629,52038
47808,28657,52083
47837,28683,52125
47862,28708,52163
47879,28729,52195
47891,28744,52216
47899,28750,52226
47901,28749,52226
47898,28743,52221
47889,28732,52210
47875,28715,52189
47856,28695,52160
47831,28673,52125
47802,28647,52086
47773,28620,52043
47746,28592,51996
47722,28565,51948
47698,28536,51896
47671,28504,51839
47641,28472,51775
47610,28440,51707
47578,28405,51637
47547,28369,51565
47513,28330,51486
47473,28289,51402
47428,28246,51316
47381,28205,51232
47332,28167,51148
47279,28126,51064
47222,28083,50980
47168,28038,50897
47119,27993,50816
47074,27950,50740
47033,27908,50669
46993,27870,50599
46954,27832,50529
46914,27794,50457
46874,27753,50386
46834,27712,50316
46795,27673,50250
46757,27636,50188
46721,27602,50130
46690,27571,50075
46663,27543,50021
46638,27515,49967
46611,27489,49913
46578,27464,49861
46540,27436,49810
46497,27405,49760
46454,27374,49708
46414,27346,49660
46378,27320,49617
46345,27299,49578
46318,27283,49543
46299,27268,49511
46285,27254,49482
46274,27240,49453
46262,27226,49425
46250,27211,49400
46239,27197,49380
46227,27184,49365
46214,27173,49352
46203,27164,49343
46191,27154,49336
46177,27144,49326
46165,27135,49315
46154,27127,49301
46141,27118,49283
46123,27107,49257
46102,27096,49225
46078,27082,49185
46048,27059,49139
46016,27031,49092
45986,27002,49044
45957,26973,48996
45929,26943,48949
45900,26913,48901
45870,26885,48851
45840,26857,48803
45811,26829,48762
45783,26803,48723
45755,26778,48686
45727,26755,48650
45700,26734,48616
45673,26717,48584
45650,26703,48552
45630,26689,48520
45613,26671,48486
45595,26652,48449
45578,26632,48409
45563,26613,48370
45549,26596,48336
45539,26582,48311
45534,26573,48299
45538,26574,48310
45557,26594,48358
45600,26643,48457
45675,26726,48616
45783,26845,48840
45923,26997,49126
46092,27180,49464
46286,27383,49841
46495,27599,50245
46713,27822,50664
46936,28050,51088
47155,28275,51505
47362,28485,51902
47554,28676,52266
47726,28845,52590
47878,28990,52871
48008,29110,53110
48115,29207,53305
48198,29282,53457
48256,29335,53567
48289,29364,53638
48300,29372,53671
48290,29358,53669
48260,29327,53635
48213,29280,53572
48154,29222,53486
48087,29156,53380
48012,29081,53260
47929,28997,53127
47840,28905,52980
47751,28809,52823
47662,28713,52661
47573,28619,52498
47484,28527,52338
47399,28441,52181
47319,28362,52031
47245,28292,51891
47179,28229,51764
47120,28172,51646
47066,28117,51535
47016,28061,51431
46965,28007,51332
46914,27955,51236
46862,27903,51142
46809,27850,51050
46762,27801,50964
46721,27758,50887
46686,27720,50820
46662,27690,50764
46650,27670,50721
46651,27661,50690
46663,27659,50673
46682,27663,50669
46705,27675,50674
46728,27693,50687
46751,27716,50709
46779,27743,50742
46809,27777,50786
46841,27814,50839
46877,27853,50900
46918,27894,50967
46963,27935,51038
47009,27978,51112
47055,28023,51185
47099,28065,51256
47138,28103,51321
47169,28136,51380
47193,28165,51431
47209,28188,51476
47219,28206,51512
47224,28219,51539
47227,28226,51556
47228,28228,51559
47223,28223,51551
47213,28212,51535
47199,28195,51509
47181,28172,51471
47158,28141,51421
47129,28104,51362
47095,28064,51297
47060,28023,51226
47023,27982,51151
46982,27943,51075
46937,27906,50999
46891,27874,50927
46844,27839,50857
46798,27800,50784
46754,27760,50707
46711,27720,50629
46667,27680,50550
46622,27637,50470
46577,27594,50388
46532,27554,50306
46487,27514,50226
46441,27474,50149
46396,27434,50075
46352,27396,50004
46308,27359,49933
46264,27320,49862
46221,27282,49793
46181,27247,49726
46142,27212,49663
46104,27177,49601
46065,27142,49538
46029,27109,49474
45995,27076,49411
45961,27045,49352
45929,27017,49300
45899,26988,49253
45869,26957,49207
45840,26926,49163
45814,26898,49123
45792,26873,49085
45772,26849,49050
45752,26826,49016
45735,26807,48984
45717,26790,48953
45695,26773,48923
45671,26757,48892
45649,26742,48862
45632,26731,48834
45617,26721,48810
45603,26712,48788
45591,26706,48769
45582,26702,48756
45576,26699,48749
45571,26694,48744
45567,26687,48738
45563,26680,48730
45558,26675,48719
45550,26669,48708
45539,26660,48697
45526,26650,48684
45514,26639,48669
45502,26627,48651
45491,26612,48628
45477,26596,48604
45461,26576,48577
45444,26552,48547
45425,26526,48513
45403,26498,48475
45377,26469,48437
45351,26443,48400
45327,26424,48366
45307,26410,48334
45292,26400,48303
45281,26391,48275
45274,26383,48250
45266,26376,48228
45258,26369,48208
45250,26363,48190
45242,26357,48175
45240,26355,48171
45247,26359,48184
45270,26380,48222
45317,26428,48301
45392,26506,48429
45495,26612,48612
45625,26747,48848
45782,26910,49134
45956,27091,49460
46142,27286,49815
46337,27490,50188
46541,27698,50570
46747,27904,50953
46949,28104,51329
47141,28294,51687
47316,28466,52014
47470,28614,52300
47598,28734,52537
47697,28823,52722
47766,28881,52857
47808,28913,52949
47829,28924,53002
47830,28916,53020
47813,28889,53004
47780,28842,52955
47728,28777,52876
47661,28700,52769
47581,28614,52641
47492,28519,52497
47394,28417,52345
47293,28317,52189
47193,28221,52034
47094,28130,51879
47000,28041,51726
46910,27954,51575
46824,27869,51426
46742,27785,51278
46665,27701,51132
46590,27618,50987
46514,27539,50845
46440,27463,50706
46370,27393,50573
46303,27327,50448
46238,27267,50332
46177,27211,50222
46119,27158,50118
46061,27108,50017
46006,27062,49925
45956,27018,49841
45912,26978,49765
45875,26941,49699
45844,26906,49645
45818,26874,49606
45803,26851,49584
45800,26839,49578
45807,26842,49588
45823,26858,49614
45848,26883,49653
45882,26914,49704
45922,26948,49762
45964,26982,49826
46005,27017,49895
46045,27052,49969
46087,27086,50050
46132,27122,50137
46178,27162,50224
46227,27205,50307
46279,27251,50386
46330,27297,50460
46379,27340,50526
46423,27378,50582
46459,27407,50629
46485,27425,50663
46498,27432,50682
46500,27433,50689
46494,27428,50686
46484,27416,50673
46472,27398,50652
46457,27377,50621
46439,27353,50582
46415,27324,50534
46385,27290,50474
46348,27253,50404
46305,27210,50325
46257,27162,50236
46204,27112,50141
46149,27058,50042
46093,27004,49942
46037,26951,49844
45986,26900,49751
45938,26851,49664
45895,26806,49583
45856,26764,49507
45821,26725,49434
45785,26689,49363
45747,26653,49294
45707,26617,49226
45669,26582,49161
45631,26550,49101
45595,26518,49043
45561,26488,48988
45530,26457,48934
45499,26424,48881
45468,26391,48825
45437,26357,48766
45406,26325,48706
45373,26293,48645
45335,26262,48585
45295,26229,48529
45256,26197,48477
45224,26167,48427
45201,26141,48381
45185,26121,48341
45176,26106,48307
45172,26095,48279
45168,26085,48253
45163,26075,48229
45157,26064,48205
45153,26054,48183
45152,26046,48166
45154,26041,48155
45156,26039,48151
45158,26038,48152
45159,26038,48154
45161,26038,48156
45166,26041,48160
45171,26044,48162
45175,26046,48159
45178,26046,48156
45180,26045,48152
45177,26043,48145
45168,26040,48136
45155,26035,48125
45141,26029,48111
45131,26020,48095
45124,26009,48076
45118,25996,48055
45113,25986,48033
45107,25977,48011
45102,25968,47989
45095,25960,47965
45084,25952,47939
45071,25947,47912
45059,25941,47886
45045,25930,47860
45028,25912,47831
45010,25891,47803
44993,25869,47777
44978,25849,47757
44968,25836,47750
44969,25837,47763
44989,25858,47803
45031,25899,47878
45099,25966,47999
45196,26065,48175
45323,26199,48409
45479,26365,48698
45657,26558,49032
45850,26766,49398
46052,26981,49782
46260,27199,50176
46469,27417,50570
46674,27627,50952
46868,27824,51312
47044,28004,51641
47196,28160,51930
47327,28292,52176
47437,28400,52380
47526,28486,52542
47595,28548,52667
47643,28586,52757
47667,28599,52810
47670,28592,52828
47655,28567,52813
47627,28530,52770
47591,28483,52704
47547,28428,52615
47498,28367,52509
47444,28302,52389
47385,28234,52261
47318,28158,52124
47243,28076,51980
47163,27990,51832
47082,27904,51686
47004,27824,51545
46931,27749,51410
46864,27681,51282
46802,27618,51159
46743,27557,51041
46688,27497,50923
46636,27439,50807
46585,27381,50698
46534,27324,50595
46484,27270,50495
46434,27218,50399
46385,27169,50308
46338,27125,50223
46296,27089,50147
46263,27060,50083
46239,27035,50029
46223,27016,49987
46215,27005,49959
46214,27002,49946
46217,27005,49947
46227,27013,49962
46244,27030,49990
46266,27054,50032
46293,27081,50086
46323,27111,50147
46358,27146,50212
46399,27186,50284
46444,27230,50360
46492,27277,50434
46540,27323,50506
46585,27367,50575
46626,27405,50638
46661,27438,50698
46692,27466,50751
46721,27488,50796
46743,27503,50835
46759,27511,50865
46767,27513,50884
46770,27512,50893
46770,27507,50893
46765,27499,50884
46754,27487,50861
46735,27468,50826
46711,27441,50780
46682,27408,50723
46652,27369,50660
46620,27328,50592
46585,27285,50521
46545,27243,50447
46502,27200,50369
46455,27155,50288
46406,27108,50204
46359,27063,50118
46316,27019,50035
46277,26980,49959
46243,26945,49888
46214,26911,49821
46187,26877,49757
46160,26844,49694
46131,26813,49632
46101,26784,49570
46070,26757,49509
46040,26729,49449
46010,26701,49391
45981,26670,49334
45953,26638,49281
45925,26607,49231
45897,26576,49180
45870,26544,49129
45843,26514,49079
45816,26489,49031
45790,26468,48985
45764,26447,48940
45740,26428,48898
45718,26410,48859
45697,26392,48825
45676,26372,48794
45655,26354,48764
45635,26338,48734
45615,26324,48702
45596,26312,48671
45580,26304,48646
45566,26298,48628
45554,26295,48614
45546,26295,48603
45538,26292,48594
45528,26285,48585
45517,26275,48573
45508,26267,48558
45499,26256,48538
45490,26240,48516
45481,26221,48495
45472,26201,48476
45463,26182,48458
45454,26166,48442
45448,26155,48425
45442,26147,48410
45437,26145,48395
45433,26146,48383
45429,26147,48372
45425,26147,48360
45420,26145,48347
45413,26139,48332
45404,26130,48311
45393,26115,48285
45377,26098,48255
45359,26078,48220
45341,26058,48184
45324,26036,48150
45308,26015,48123
45293,25998,48100
45280,25984,48078
45270,25974,48054
45265,25967,48028
45262,25962,48004
45261,25959,47985
45263,25960,47976
45273,25969,47983
45300,25994,48021
45350,26042,48101
45428,26118,48237
45536,26226,48431
45674,26365,48682
45839,26532,48986
46028,26723,49333
46239,26934,49716
46468,27159,50127
46708,27395,50553
46946,27633,50977
47173,27862,51385
47381,28073,51764
47570,28263,52110
47738,28432,52421
47885,28576,52693
48010,28695,52925
48113,28789,53113
48194,28861,53261
48251,28914,53371
48287,28948,53443
48306,28963,53477
48308,28959,53477
48293,28938,53446
48260,28902,53388
48214,28855,53309
48158,28800,53213
48091,28738,53102
48015,28668,52981
47934,28590,52853
47851,28508,52724
47768,28425,52591
47686,28344,52458
47602,28263,52325
47518,28185,52192
47437,28108,52061
47361,28034,51935
47289,27965,51816
47219,27902,51703
47151,27844,51597
47084,27787,51496
47019,27728,51399
46956,27671,51303
46896,27617,51210
46843,27568,51121
46797,27524,51036
46755,27483,50958
46720,27447,50889
46692,27414,50827
46671,27385,50769
46655,27361,50717
46643,27342,50672
46633,27328,50637
46624,27319,50618
46618,27317,50616
46620,27324,50627
46633,27341,50651
46654,27364,50688
46679,27391,50734
46708,27422,50788
46741,27457,50847
46773,27491,50909
46805,27525,50970
46836,27555,51029
46865,27580,51082
46893,27601,51130
46920,27620,51171
46945,27635,51205
46962,27645,51230
46973,27650,51247
46981,27651,51254
46986,27649,51249
46985,27642,51234
46976,27629,51211
46962,27611,51181
46946,27591,51148
46929,27573,51110
46909,27555,51066
46887,27535,51017
46866,27512,50966
46842,27489,50912
46816,27466,50853
46789,27440,50790
46763,27413,50725
46738,27383,50657
46711,27348,50587
46679,27311,50520
46645,27272,50455
46609,27231,50388
46572,27189,50317
46534,27150,50245
46497,27113,50175
46459,27078,50105
46420,27044,50033
46381,27008,49961
46339,26973,49888
46293,26936,49816
46247,26898,49743
46201,26860,49668
46160,26821,49593
46120,26782,49519
46078,26744,49448
46035,26709,49383
45992,26676,49322
45952,26643,49265
45914,26612,49213
45880,26584,49166
45852,26557,49127
45829,26532,49093
45813,26511,49062
45802,26494,49032
45792,26478,49001
45783,26461,48970
45774,26446,48942
45764,26432,48918
45754,26420,48898
45744,26410,48880
45735,26404,48867
45731,26402,48858
45728,26401,48851
45725,26398,48843
45720,26391,48831
45713,26381,48816
45705,26370,48796
45693,26358,48773
45681,26346,48750
45673,26340,48729
45665,26334,48711
45654,26327,48696
45645,26321,48683
45638,26320,48669
45631,26319,48650
45622,26314,48628
45610,26304,48605
45595,26287,48578
45575,26268,48544
45551,26251,48508
45526,26235,48475
45504,26218,48446
45484,26198,48421
45465,26177,48395
45445,26155,48365
45423,26131,48326
45397,26102,48280
45369,26073,48230
45343,26046,48178
45317,26020,48125
45290,25995,48076
45264,25970,48032
45241,25947,47994
45224,25928,47965
45216,25916,47951
45219,25917,47958
45235,25936,47993
45269,25973,48065
45324,26034,48180
45406,26123,48345
45516,26245,48560
45655,26397,48826
45818,26572,49139
46002,26768,49489
46205,26977,49871
46420,27194,50273
46643,27416,50683
46867,27635,51088
47081,27843,51471
47278,28033,51822
47451,28202,52133
47599,28346,52401
47724,28464,52628
47828,28560,52814
47910,28638,52960
47972,28698,53070
48015,28739,53144
48039,28760,53184
48041,28761,53189
48022,28741,53161
47982,28702,53103
47927,28646,53019
47862,28577,52915
47791,28502,52794
47717,28422,52661
47638,28338,52520
47558,28253,52375
47480,28169,52230
47403,28087,52090
47325,28007,51953
47245,27930,51820
47166,27858,51694
47091,27789,51575
47022,27727,51465
46960,27672,51363
46907,27623,51269
46859,27577,51183
46813,27534,51103
46770,27492,51026
46725,27450,50948
46680,27405,50871
46637,27362,50797
46598,27324,50727
46561,27291,50661
46526,27261,50599
46495,27233,50539
46467,27209,50485
46442,27192,50440
46420,27179,50403
46400,27171,50376
46390,27167,50363
46389,27171,50365
46397,27183,50383
46414,27203,50414
46437,27227,50454
46463,27252,50499
46492,27279,50547
46520,27304,50595
46544,27328,50640
46567,27351,50684
46590,27374,50728
46613,27396,50771
46636,27416,50812
46658,27436,50849
46680,27454,50881
46703,27470,50905
46722,27481,50921
46735,27490,50930
46739,27493,50932
46736,27490,50926
46729,27481,50910
46720,27467,50885
46706,27448,50850
46687,27426,50809
46667,27401,50765
46645,27373,50716
46618,27342,50662
46587,27309,50602
46552,27275,50536
46514,27241,50467
46476,27207,50395
46438,27174,50321
46402,27142,50245
46368,27113,50170
46336,27085,50097
46305,27055,50028
46274,27023,49960
46241,26990,49892
46204,26952,49824
46163,26909,49753
46119,26863,49681
46073,26817,49609
46026,26777,49538
45980,26743,49473
45937,26711,49415
45897,26679,49360
45859,26648,49309
45822,26617,49258
45788,26585,49208
45760,26552,49157
45735,26520,49106
45710,26490,49054
45686,26462,49005
45662,26437,48959
45642,26415,48918
45627,26396,48884
45614,26382,48853
45605,26370,48828
45601,26361,48807
45598,26357,48792
45594,26356,48781
45589,26358,48772
45583,26357,48765
45580,26356,48758
45577,26353,48752
45577,26351,48748
45576,26349,48743
45576,26344,48736
45576,26337,48728
45575,26329,48717
45574,26322,48702
45573,26314,48685
45571,26305,48668
45565,26297,48652
45558,26291,48638
45554,26289,48628
45551,26289,48622
45548,26289,48616
45543,26289,48607
45533,26288,48594
45520,26283,48578
45506,26272,48560
45495,26258,48540
45486,26244,48518
45477,26229,48494
45468,26213,48467
45460,26196,48438
45456,26181,48406
45451,26166,48372
45444,26148,48336
45434,26127,48299
45418,26104,48259
45400,26081,48221
45380,26061,48186
45362,26044,48157
45348,26031,48136
45339,26025,48126
45341,26032,48132
45359,26054,48164
45392,26097,48231
45446,26162,48340
45527,26254,48500
45639,26372,48710
45778,26516,48965
45940,26680,49258
46118,26862,49582
46311,27060,49930
46515,27269,50296
46724,27479,50672
46931,27685,51048
47128,27881,51410
47307,28061,51749
47465,28220,52053
47603,28358,52315
47723,28472,52535
47824,28563,52717
47907,28635,52858
47969,28690,52957
48007,28724,53016
48020,28736,53038
48010,28725,53028
47982,28699,52990
47941,28661,52929
47885,28612,52847
47819,28549,52744
47744,28476,52622
47665,28396,52486
47579,28310,52342
47488,28221,52195
47398,28128,52046
47309,28036,51899
47224,27949,51755
47145,27868,51614
47074,27792,51478
47009,27724,51347
46946,27660,51218
46884,27596,51094
46823,27533,50974
46764,27473,50860
46706,27414,50754
46653,27359,50655
46604,27308,50564
46558,27260,50481
46515,27216,50403
46474,27176,50330
46439,27140,50264
46410,27110,50208
46384,27084,50162
46367,27068,50127
46359,27062,50105
46361,27066,50100
46372,27078,50109
46392,27096,50131
46420,27120,50164
46453,27148,50207
46489,27179,50258
46527,27211,50316
46567,27245,50382
46604,27280,50453
46639,27317,50526
46671,27353,50595
46700,27387,50661
46728,27418,50726
46754,27448,50788
46781,27478,50847
46806,27507,50899
46827,27532,50942
46843,27550,50971
46853,27559,50985
46854,27560,50982
46843,27552,50963
46825,27536,50930
46805,27511,50883
46781,27481,50825
46755,27446,50763
46725,27411,50699
46696,27377,50635
46669,27343,50576
46644,27310,50517
46619,27276,50459
46591,27243,50401
46561,27210,50343
46529,27176,50283
46500,27141,50223
46474,27112,50164
46451,27086,50109
46427,27059,50052
46403,27029,49993
46378,26998,49931
46347,26965,49867
46313,26931,49798
46278,26893,49728
46243,26854,49656
46204,26815,49586
46163,26776,49517
46124,26739,49452
46089,26708,49395
46058,26681,49344
46030,26655,49296
46005,26632,49249
45982,26611,49202
45961,26592,49156
45941,26574,49109
45920,26554,49062
45899,26531,49013
45878,26505,48965
45858,26480,48921
45841,26457,48881
45825,26437,48844
45810,26420,48813
45796,26409,48788
45785,26404,48771
45776,26402,48759
45769,26399,48752
45763,26396,48746
45758,26393,48741
45753,26387,48736
45745,26377,48728
45736,26366,48715
45727,26355,48697
45718,26345,48675
45708,26335,48654
45700,26326,48633
45692,26316,48610
45683,26304,48585
45673,26290,48561
45665,26279,48540
45659,26274,48525
45653,26275,48513
45646,26277,48504
45640,26277,48496
45636,26276,48491
45632,26275,48483
45627,26272,48471
45622,26267,48455
45618,26259,48436
45615,26247,48412
45614,26233,48383
45611,26220,48353
45605,26206,48323
45595,26190,48294
45584,26173,48265
45574,26156,48236
45564,26140,48209
45553,26126,48186
45542,26111,48166
45536,26101,48155
45538,26105,48163
45555,26127,48199
45593,26171,48275
45660,26243,48401
45755,26346,48580
45880,26479,48813
46035,26642,49097
46220,26831,49426
46428,27040,49794
46652,27263,50189
46889,27495,50601
47130,27731,51014
47363,27958,51414
47578,28164,51789
47772,28346,52127
47942,28503,52423
48086,28636,52679
48205,28746,52894
48297,28834,53068
48365,28900,53201
48412,28946,53297
48441,28974,53360
48455,28985,53393
48455,28980,53399
48441,28960,53378
48415,28926,53330
48376,28882,53255
48322,28826,53157
48257,28759,53041
48185,28686,52913
48109,28610,52779
48032,28531,52641
47954,28450,52502
47874,28368,52365
47796,28286,52230
47722,28206,52097
47652,28130,51969
47584,28059,51846
47518,27991,51728
47452,27926,51615
47387,27863,51510
47325,27804,51410
47267,27749,51313
47214,27698,51220
47164,27652,51130
47116,27611,51042
47072,27573,50960
47032,27535,50886
46997,27500,50821
46968,27470,50764
46945,27448,50718
46928,27431,50683
46917,27420,50662
46912,27415,50653
46917,27418,50656
46927,27426,50671
46943,27438,50692
46961,27452,50719
46982,27469,50750
47003,27491,50786
47024,27514,50826
47045,27538,50867
47066,27565,50911
47088,27591,50960
47112,27616,51011
47136,27641,51062
47161,27668,51110
47184,27696,51152
47204,27720,51186
47223,27738,51211
47239,27752,51223
47248,27761,51223
47251,27762,51215
47248,27756,51204
47239,27745,51188
47228,27729,51166
47213,27707,51137
47195,27683,51103
47174,27658,51063
47150,27631,51017
47124,27602,50964
47097,27569,50904
47064,27534,50837
47028,27497,50767
46989,27459,50691
46947,27417,50607
46904,27373,50520
46861,27326,50434
46816,27279,50348
46766,27230,50259
46712,27181,50173
46657,27137,50090
46609,27101,50013
46567,27071,49941
46532,27043,49870
46500,27015,49803
46471,26988,49739
46443,26960,49678
46413,26928,49620
46381,26896,49562
46350,26864,49506
46322,26833,49454
46295,26805,49406
46273,26783,49359
46254,26766,49314
46236,26748,49269
46217,26727,49224
46195,26703,49179
46175,26677,49132
46155,26650,49087
46134,26622,49045
46111,26592,49010
46088,26562,48979
46065,26536,48953
46046,26518,48932
46031,26505,48914
46018,26498,48899
46008,26496,48884
45998,26496,48870
45988,26496,48857
45981,26497,48840
45972,26496,48822
45962,26491,48802
45950,26481,48779
45939,26470,48755
45928,26458,48729
45914,26445,48703
45898,26429,48678
45879,26412,48655
45856,26393,48630
45831,26370,48604
45805,26346,48576
45780,26325,48548
45757,26307,48522
45739,26292,48500
45729,26280,48480
45725,26272,48462
45724,26266,48446
45726,26264,48431
45729,26263,48417
45730,26260,48404
45731,26258,48392
45730,26255,48380
45729,26253,48364
45724,26248,48345
45714,26242,48318
45697,26232,48284
45675,26216,48244
45650,26194,48199
45620,26166,48151
45587,26137,48103
45555,26112,48060
45529,26094,48029
45515,26083,48020
45519,26090,48044
45550,26126,48112
45612,26194,48233
45706,26295,48414
45833,26430,48657
45992,26599,48957
46180,26797,49306
46392,27017,49694
46625,27250,50111
46870,27492,50545
47122,27735,50982
47368,27969,51406
47597,28190,51801
47804,28390,52155
47986,28563,52464
48141,28706,52727
48268,28820,52947
48372,28906,53123
48454,28969,53259
48513,29012,53355
48552,29037,53416
48571,29048,53446
48571,29044,53447
48551,29024,53423
48517,28990,53374
48472,28946,53305
48417,28894,53218
48355,28834,53115
48287,28766,52999
48214,28695,52872
48138,28620,52741
48060,28544,52610
47982,28467,52479
47902,28391,52350
47824,28318,52224
47751,28246,52102
47683,28180,51987
47619,28119,51881
47559,28062,51781
47504,28009,51686
47456,27961,51599
47414,27919,51517
47373,27881,51439
47335,27843,51363
47299,27804,51289
47264,27767,51217
47228,27731,51149
47191,27696,51084
47156,27664,51025
47123,27634,50973
47089,27608,50929
47062,27587,50893
47045,27575,50869
47037,27570,50856
47036,27570,50852
47043,27573,50856
47055,27584,50869
47071,27601,50891
47090,27623,50920
47112,27648,50954
47133,27677,50990
47152,27706,51026
47167,27730,51060
47179,27744,51089
47187,27751,51113
47193,27754,51135
47198,27755,51156
47203,27756,51175
47209,27758,51191
47213,27760,51199
47216,27761,51199
47216,27761,51189
47212,27756,51170
47205,27744,51144
47192,27728,51112
47172,27710,51074
47149,27688,51034
47128,27666,50996
47110,27644,50960
47091,27620,50922
47069,27593,50878
47043,27566,50831
47015,27541,50784
46987,27515,50737
46957,27486,50683
46927,27455,50622
46895,27421,50553
46859,27386,50479
46819,27349,50400
46773,27309,50316
46724,27265,50229
46672,27217,50140
46616,27166,50051
46559,27114,49964
46503,27063,49877
46451,27018,49793
46404,26978,49712
46361,26942,49635
46321,26906,49561
46284,26869,49489
46249,26833,49419
46216,26799,49351
46186,26769,49286
46155,26741,49225
46122,26712,49168
46088,26683,49117
46054,26655,49074
46023,26628,49040
45996,26604,49011
45973,26583,48986
45953,26567,48962
45935,26554,48938
45920,26543,48915
45906,26533,48892
45893,26521,48869
45879,26509,48844
45863,26495,48816
45847,26480,48787
45829,26462,48756
45811,26441,48725
45793,26419,48695
45777,26397,48669
45764,26378,48646
45751,26360,48626
45739,26347,48608
45728,26340,48592
45722,26337,48578
45718,26336,48567
45714,26336,48557
45709,26335,48546
45704,26331,48531
45699,26326,48516
45694,26322,48502
45688,26316,48486
45681,26307,48467
45672,26296,48447
45662,26282,48426
45650,26267,48401
45638,26252,48375
45623,26236,48345
45607,26217,48311
45593,26199,48272
45578,26180,48232
45560,26160,48189
45539,26139,48143
45517,26117,48092
45495,26092,48037
45471,26065,47982
45445,26036,47929
45417,26006,47880
45389,25977,47838
45364,25951,47806
45345,25933,47792
45339,25932,47805
45352,25954,47856
45389,26001,47952
45458,26079,48096
45561,26192,48293
45700,26340,48544
45870,26518,48845
46064,26717,49186
46274,26929,49555
46493,27146,49937
46713,27365,50327
46932,27586,50717
47142,27802,51100
47338,28005,51467
47517,28188,51806
47678,28348,52110
47818,28485,52373
47932,28596,52590
48017,28680,52761
48077,28741,52886
48116,28782,52966
48134,28799,53007
48133,28794,53013
48115,28770,52984
48083,28732,52924
48035,28679,52841
47973,28612,52738
47899,28533,52618
47814,28447,52482
47723,28359,52337
47631,28273,52189
47543,28190,52042
47463,28112,51897
47389,28039,51756
47318,27970,51622
47249,27905,51495
47183,27841,51376
47121,27779,51264
47063,27721,51162
47008,27666,51066
46953,27615,50973
46899,27566,50883
46845,27519,50798
46794,27472,50714
46744,27427,50630
46694,27383,50548
46647,27341,50468
46602,27301,50390
46560,27263,50315
46521,27227,50246
46486,27193,50186
46457,27164,50134
46433,27141,50094
46414,27123,50068
46401,27110,50056
46393,27104,50056
46392,27105,50065
46395,27111,50080
46400,27122,50100
46410,27138,50127
46426,27157,50162
46445,27179,50203
46466,27203,50250
46487,27228,50302
46508,27254,50356
46527,27279,50411
46544,27301,50462
46561,27324,50509
46578,27346,50550
46597,27365,50586
46616,27384,50615
46633,27401,50635
46646,27414,50644
46655,27421,50645
46658,27422,50635
46654,27418,50615
46643,27409,50588
46622,27394,50553
46595,27374,50510
46565,27348,50459
46532,27316,50400
46495,27280,50332
46460,27244,50260
46425,27208,50184
46386,27173,50105
46341,27137,50025
46292,27098,49945
46244,27058,49865
46198,27021,49787
46154,26983,49710
46111,26941,49633
46071,26897,49562
46035,26857,49496
46003,26819,49434
45974,26780,49375
45944,26742,49318
45913,26706,49263
45883,26670,49210
45853,26635,49156
45821,26602,49103
45787,26571,49051
45753,26541,48997
45721,26511,48939
45686,26480,48877
45648,26445,48813
45606,26409,48749
45562,26373,48690
45514,26339,48637
45464,26307,48589
45417,26280,48547
45375,26256,48510
45336,26235,48477
45302,26216,48445
45272,26198,48413
45246,26184,48384
45225,26173,48360
45205,26165,48339
45187,26160,48319
45169,26151,48298
45150,26137,48275
45132,26123,48252
45117,26109,48228
45106,26097,48205
45093,26083,48183
45080,26070,48164
45068,26058,48148
45056,26049,48132
45042,26041,48117
45028,26035,48101
45018,26029,48087
45009,26023,48073
45001,26017,48061
44993,26012,48050
44987,26008,48037
44981,26005,48020
44974,26001,47998
44969,25993,47972
44963,25982,47943
44955,25967,47911
44942,25948,47875
44924,25926,47835
44903,25905,47797
44880,25884,47764
44858,25866,47736
44837,25852,47710
44817,25841,47686
44796,25832,47664
44780,25823,47649
44774,25821,47645
44781,25832,47661
44803,25862,47705
44847,25917,47787
44915,25997,47909
45008,26101,48080
45126,26228,48302
45269,26381,48575
45440,26558,48892
45630,26753,49241
45828,26957,49609
46029,27162,49981
46230,27364,50342
46425,27561,50685
46610,27747,51004
46783,27919,51295
46942,28073,51558
47086,28210,51792
47210,28329,51993
47313,28425,52160
47393,28497,52290
47448,28545,52384
47478,28567,52438
47489,28566,52460
47485,28548,52452
47463,28514,52417
47427,28470,52358
47376,28418,52278
47312,28358,52179
47237,28288,52062
47154,28208,51930
47065,28121,51789
46972,28030,51643
46874,27936,51494
46774,27840,51344
46674,27746,51193
46578,27658,51043
46483,27572,50897
46391,27486,50756
46306,27404,50619
46226,27328,50487
46148,27258,50357
46074,27190,50228
46001,27123,50098
45929,27055,49969
45860,26987,49842
45792,26923,49721
45730,26864,49606
45672,26813,49501
45617,26768,49411
45571,26730,49339
45538,26703,49283
45518,26685,49241
45507,26676,49219
45504,26678,49217
45511,26690,49235
45525,26710,49268
45545,26735,49315
45574,26768,49377
45610,26809,49450
45650,26854,49534
45694,26903,49627
45741,26956,49724
45790,27010,49819
45840,27063,49909
45890,27113,49992
45937,27160,50068
45982,27201,50132
