green_channel,red_channel,ir_channel
56994,33686,10484
56963,33651,10426
56928,33627,10372
56880,33613,10322
56852,33612,10281
56870,33617,10252
56915,33622,10229
56966,33621,10209
57037,33609,10195
57132,33586,10185
57221,33552,10170
57284,33508,10148
57343,33456,10123
57401,33400,10090
57422,33341,10041
57399,33283,9979
57365,33228,9912
57333,33179,9846
57285,33139,9780
57225,33114,9717
57182,33105,9655
57166,33108,9593
57159,33117,9529
57166,33135,9470
57208,33159,9417
57279,33178,9367
57356,33184,9319
57439,33175,9276
57542,33151,9239
57654,33119,9205
57742,33087,9172
57801,33063,9137
57846,33045,9101
57873,33033,9061
57862,33032,9019
57827,33044,8974
57800,33067,8927
57774,33095,8879
57733,33116,8833
57696,33127,8786
57688,33124,8734
57695,33107,8681
57703,33079,8631
57734,33050,8584
57803,33022,8537
57868,32994,8489
57898,32972,8440
57906,32959,8393
57900,32955,8348
57852,32960,8303
57756,32971,8257
57644,32993,8209
57533,33019,8155
57402,33047,8097
57253,33078,8044
57129,33115,8006
57049,33161,7982
56982,33210,7976
56923,33261,7991
56894,33315,8035
56894,33373,8103
56895,33435,8189
56899,33504,8292
56922,33582,8410
56941,33667,8541
56915,33755,8683
56851,33842,8833
56773,33929,8990
56673,34011,9151
56534,34087,9313
56389,34153,9477
56276,34209,9639
56197,34254,9797
56142,34291,9948
56131,34318,10085
56187,34342,10202
56294,34363,10298
56413,34377,10372
56533,34384,10428
56648,34386,10470
56732,34384,10494
56758,34384,10503
56726,34392,10505
56643,34409,10504
56503,34432,10501
56301,34454,10498
56065,34472,10497
55822,34485,10499
55576,34492,10502
55336,34498,10512
55131,34510,10533
54985,34527,10564
54883,34545,10597
54813,34568,10633
54782,34597,10673
54783,34631,10714
54786,34662,10746
54781,34682,10771
54780,34690,10790
54778,34689,10793
54762,34679,10778
54731,34662,10755
54702,34638,10730
54668,34609,10701
54611,34575,10668
54535,34539,10632
54460,34506,10592
54385,34478,10548
54293,34459,10499
54186,34448,10449
54091,34442,10404
54019,34436,10360
53961,34431,10319
53925,34425,10281
53928,34416,10241
53969,34403,10201
54034,34383,10165
54128,34362,10131
54251,34341,10099
54386,34319,10069
54515,34297,10046
54650,34283,10026
54805,34284,10001
54971,34296,9968
55147,34311,9933
55344,34320,9894
55561,34321,9849
55770,34313,9799
55955,34299,9749
56125,34281,9702
56278,34261,9655
56393,34239,9608
56464,34212,9567
56509,34181,9530
56536,34148,9498
56534,34111,9468
56499,34074,9439
56455,34040,9407
56412,34009,9360
56359,33978,9294
56303,33946,9214
56272,33917,9127
56270,33895,9033
56280,33875,8935
56307,33858,8835
56374,33844,8735
56473,33834,8636
56575,33828,8536
56675,33828,8439
56787,33827,8346
56898,33821,8257
56984,33809,8176
57049,33793,8100
57106,33776,8026
57143,33752,7954
57143,33719,7891
57124,33679,7836
57106,33634,7788
57079,33580,7748
57039,33523,7718
57010,33467,7699
57006,33415,7684
57010,33367,7667
57008,33323,7644
57021,33284,7615
57056,33256,7580
57091,33237,7533
57113,33221,7475
57128,33210,7408
57140,33200,7331
57131,33188,7249
57103,33175,7170
57074,33165,7096
57042,33155,7023
56981,33141,6951
56898,33125,6886
56827,33107,6825
56777,33083,6763
56735,33052,6695
56708,33014,6622
56721,32974,6541
56762,32936,6456
56796,32900,6373
56817,32864,6295
56830,32836,6223
56813,32812,6159
56741,32790,6108
56630,32771,6075
56512,32754,6061
56387,32735,6071
56252,32712,6107
56141,32680,6167
56078,32649,6247
56038,32625,6345
55998,32610,6456
55971,32607,6580
55966,32620,6713
55947,32649,6856
55898,32700,7013
55843,32770,7178
55795,32852,7344
55728,32942,7512
55639,33035,7685
55563,33130,7861
55512,33226,8034
55461,33325,8204
55414,33425,8374
55407,33525,8543
55450,33627,8702
55517,33727,8848
55603,33824,8983
55726,33917,9102
55878,34004,9203
56024,34077,9284
56155,34133,9346
56287,34175,9388
56406,34209,9407
56474,34238,9415
56486,34266,9426
56461,34296,9440
56398,34331,9455
56283,34369,9479
56138,34411,9512
56000,34451,9551
55871,34483,9593
55742,34510,9638
55635,34536,9679
55578,34563,9714
55568,34592,9742
55582,34619,9761
55621,34644,9768
55684,34674,9763
55743,34707,9747
55766,34739,9726
55756,34773,9701
55714,34809,9672
55619,34841,9641
55466,34868,9611
55285,34888,9584
55101,34899,9557
54916,34898,9535
54735,34882,9516
54589,34849,9492
54489,34799,9456
54417,34735,9407
54361,34670,9352
54331,34616,9288
54328,34577,9215
54328,34551,9139
54321,34536,9070
54327,34535,9010
54359,34541,8961
54400,34550,8925
54453,34558,8902
54542,34563,8888
54669,34562,8879
54808,34552,8871
54952,34536,8860
55111,34518,8841
55274,34496,8808
55407,34466,8769
55508,34427,8726
55595,34386,8671
55666,34350,8604
55716,34321,8531
55771,34303,8461
55868,34294,8393
56001,34291,8329
56154,34293,8273
56345,34297,8224
56579,34299,8178
56809,34295,8137
56996,34285,8107
57153,34271,8082
57284,34251,8053
57355,34224,8023
57353,34186,8002
57312,34136,7985
57257,34084,7968
57177,34036,7955
57078,33994,7949
57002,33962,7940
56971,33935,7922
56963,33911,7896
56968,33893,7868
57010,33885,7835
57087,33886,7793
57175,33894,7750
57267,33902,7712
57376,33908,7678
57494,33911,7645
57594,33907,7618
57671,33897,7602
57740,33881,7589
57804,33860,7575
57844,33831,7563
57861,33797,7554
57886,33766,7542
57922,33746,7521
57950,33740,7492
57979,33744,7457
58035,33761,7412
58100,33789,7361
58143,33826,7308
58174,33873,7254
58211,33926,7201
58231,33972,7155
58214,34011,7120
58196,34040,7097
58211,34062,7079
58246,34076,7065
58288,34078,7052
58368,34071,7033
58499,34059,7003
58642,34047,6963
58771,34037,6916
58902,34029,6859
59037,34017,6790
59126,33999,6718
59149,33977,6651
59133,33949,6586
59085,33914,6522
58970,33872,6465
58788,33824,6419
58582,33775,6386
58377,33732,6364
58175,33698,6359
58001,33681,6371
57893,33684,6396
57848,33705,6433
57835,33739,6488
57848,33782,6562
57893,33835,6648
57942,33896,6745
57944,33963,6857
57879,34025,6988
57760,34081,7131
57596,34135,7277
57386,34186,7422
57155,34236,7561
56947,34286,7689
56778,34335,7798
56644,34381,7889
56563,34422,7961
56547,34456,8012
56561,34482,8043
56565,34498,8062
56563,34506,8075
56554,34511,8086
56502,34510,8105
56388,34503,8139
56241,34492,8185
56084,34483,8237
55906,34470,8297
55719,34455,8367
55580,34442,8446
55513,34431,8525
55496,34421,8601
55525,34415,8671
55629,34415,8731
55795,34428,8773
55961,34450,8799
56101,34479,8817
56234,34512,8831
56347,34547,8842
56397,34586,8856
56399,34630,8874
56404,34678,8894
56422,34724,8911
56432,34763,8924
56451,34794,8932
56520,34821,8933
56634,34842,8921
56757,34851,8895
56890,34847,8859
57053,34836,8815
57216,34822,8760
57326,34806,8703
57370,34790,8646
57362,34776,8587
57279,34764,8531
57096,34757,8483
56834,34756,8444
56534,34760,8410
56221,34762,8379
55919,34760,8356
55670,34750,8339
55506,34734,8323
55425,34712,8308
55423,34684,8297
55505,34656,8285
55670,34630,8265
55888,34606,8239
56130,34586,8211
56396,34570,8181
56676,34559,8141
56926,34555,8098
57122,34555,8062
57292,34559,8033
57452,34570,8010
57584,34582,7993
57694,34592,7983
57819,34596,7974
57972,34593,7958
58134,34583,7936
58313,34564,7908
58539,34537,7869
58791,34501,7819
59003,34455,7762
59162,34402,7699
59293,34349,7630
59372,34309,7553
59359,34281,7477
59284,34263,7406
59206,34251,7340
59138,34240,7279
59082,34230,7229
59092,34221,7186
59218,34214,7146
59425,34208,7105
59662,34197,7067
59944,34178,7026
60281,34152,6971
60614,34120,6906
60884,34086,6839
61095,34056,6768
61245,34032,6686
61281,34009,6598
61184,33986,6519
61012,33967,6449
60817,33954,6387
60591,33948,6337
60348,33945,6307
60155,33939,6295
60042,33930,6293
59967,33918,6299
59911,33906,6312
59907,33893,6321
59946,33880,6319
59961,33863,6306
59936,33844,6285
59910,33825,6250
59877,33804,6195
59798,33778,6130
59679,33746,6064
59565,33712,5997
59454,33682,5928
59314,33659,5860
59152,33645,5798
59000,33640,5741
58845,33637,5689
58649,33632,5647
58419,33629,5616
58190,33627,5587
57962,33625,5557
57720,33618,5531
57492,33605,5508
57312,33592,5480
57163,33585,5446
57023,33583,5409
56919,33591,5371
56870,33612,5334
56835,33650,5311
56786,33707,5311
56745,33786,5337
56713,33883,5388
56652,33996,5464
56541,34118,5566
56398,34239,5687
56234,34350,5821
56029,34446,5968
55789,34527,6127
55560,34594,6284
55374,34646,6430
55225,34684,6564
55123,34707,6686
55093,34719,6795
55126,34726,6886
55189,34732,6963
55262,34734,7033
55345,34738,7096
55413,34744,7149
55427,34749,7196
55383,34755,7242
55310,34764,7283
55223,34773,7316
55117,34778,7344
55019,34777,7367
54965,34774,7385
54954,34776,7396
54958,34782,7402
54999,34791,7401
55098,34802,7394
55208,34812,7384
55273,34818,7372
55307,34819,7361
55323,34817,7353
55291,34812,7348
55193,34803,7343
55068,34794,7338
54953,34789,7334
54853,34791,7334
54767,34799,7337
54728,34811,7341
54753,34830,7344
54817,34853,7343
54889,34875,7338
54969,34889,7332
55046,34892,7323
55082,34882,7306
55053,34863,7283
54978,34840,7258
54878,34815,7233
54752,34797,7202
54611,34790,7166
54494,34796,7132
54415,34816,7098
54361,34842,7058
54345,34873,7013
54396,34908,6970
54502,34938,6932
54610,34956,6896
54716,34957,6863
54850,34940,6840
54988,34912,6828
55067,34878,6824
55087,34840,6828
55076,34799,6839
55018,34759,6852
54896,34724,6864
54755,34698,6879
54643,34682,6891
54557,34672,6893
54494,34663,6883
54495,34655,6865
54591,34647,6838
54750,34642,6799
54938,34635,6753
55162,34624,6706
55416,34611,6656
55656,34594,6607
55847,34574,6561
55993,34553,6523
56100,34532,6489
56153,34511,6454
56151,34489,6420
56122,34463,6386
56087,34434,6348
56042,34408,6306
55985,34386,6267
55936,34365,6231
55903,34339,6194
55867,34306,6157
55830,34268,6128
55816,34231,6105
55817,34191,6089
55795,34148,6079
55752,34101,6074
55716,34054,6069
55681,34009,6063
55609,33968,6053
55501,33927,6040
55390,33887,6024
55281,33854,6003
55161,33827,5975
55053,33804,5945
54991,33782,5918
54960,33761,5899
54935,33741,5888
54928,33724,5888
54958,33706,5894
55006,33683,5896
55037,33655,5892
55059,33625,5886
55084,33595,5878
55092,33561,5862
55068,33516,5837
55026,33462,5803
54977,33407,5758
54905,33355,5702
54803,33308,5640
54699,33270,5576
54612,33247,5514
54527,33237,5451
54433,33237,5390
54341,33255,5336
54256,33297,5291
54164,33361,5253
54059,33441,5222
53963,33532,5203
53888,33631,5193
53816,33735,5188
53747,33841,5188
53713,33945,5190
53719,34044,5192
53737,34134,5192
53769,34217,5192
53842,34293,5192
53940,34365,5191
54014,34432,5196
54055,34490,5214
54076,34538,5249
54049,34580,5304
53940,34619,5381
53768,34654,5484
53574,34685,5616
53362,34708,5775
53132,34719,5959
52922,34716,6165
52769,34704,6386
52678,34692,6612
52636,34684,6841
52642,34679,7069
52694,34675,7284
52773,34674,7474
52853,34679,7640
52935,34690,7785
53020,34708,7910
53079,34726,8016
53098,34744,8111
53095,34763,8199
53084,34782,8280
53048,34802,8357
52993,34821,8432
52951,34839,8500
52930,34856,8556
52900,34870,8603
52856,34877,8645
52820,34876,8681
52786,34868,8707
52720,34849,8723
52621,34818,8735
52520,34779,8745
52415,34735,8753
52285,34691,8761
52146,34647,8774
52038,34606,8787
51967,34574,8794
51919,34550,8801
51905,34533,8811
51939,34525,8823
52004,34522,8831
52074,34523,8834
52148,34525,8833
52228,34524,8826
52300,34522,8809
52349,34519,8783
52381,34516,8748
52405,34509,8697
52411,34498,8635
52383,34481,8569
52325,34458,8503
52248,34437,8434
52153,34418,8364
52045,34399,8302
51958,34382,8245
51916,34365,8186
51912,34345,8131
51941,34318,8082
52013,34282,8035
52114,34241,7985
52212,34196,7934
52292,34142,7887
52368,34078,7843
52440,34012,7795
52489,33946,7743
52520,33882,7696
52564,33821,7657
52631,33762,7621
52705,33706,7589
52796,33659,7563
52934,33618,7542
53109,33583,7528
53281,33554,7519
53444,33528,7514
53614,33512,7511
53772,33504,7507
53879,33500,7501
53938,33502,7494
53976,33512,7486
53991,33526,7473
53979,33538,7454
53969,33544,7434
53996,33543,7415
54045,33540,7396
54095,33533,7379
54166,33517,7365
54270,33494,7355
54376,33463,7343
54456,33425,7325
54525,33388,7307
54604,33359,7292
54683,33340,7269
54761,33329,7236
54854,33324,7200
54971,33327,7165
55098,33333,7124
55219,33337,7076
55340,33335,7031
55464,33327,6992
55568,33309,6951
55642,33277,6904
55707,33238,6859
55773,33203,6813
55822,33170,6761
55858,33137,6703
55922,33102,6645
56026,33071,6589
56134,33046,6534
56233,33029,6484
56340,33023,6437
56445,33032,6389
56515,33055,6347
56550,33094,6313
56571,33148,6282
56567,33215,6247
56519,33291,6206
56447,33369,6160
56379,33449,6109
56317,33530,6049
56251,33613,5985
56194,33695,5917
56171,33779,5844
56176,33863,5767
56187,33943,5698
56209,34023,5638
56250,34103,5581
56279,34181,5529
56267,34252,5489
56229,34314,5467
56186,34362,5458
56121,34400,5462
56025,34429,5482
55936,34445,5513
55879,34449,5545
55842,34449,5584
55823,34444,5637
55839,34441,5700
55894,34447,5770
55962,34463,5847
56030,34483,5937
56103,34504,6045
56180,34530,6165
56231,34563,6292
56241,34600,6426
56226,34639,6568
56188,34679,6712
56121,34721,6852
56036,34762,6988
55968,34801,7120
55922,34834,7241
55880,34859,7345
55855,34878,7436
55877,34889,7520
55930,34892,7596
55978,34889,7661
56031,34879,7720
56103,34860,7776
56161,34834,7826
56160,34801,7866
56105,34761,7904
56020,34718,7945
55895,34673,7986
55715,34629,8027
55498,34583,8074
55279,34537,8130
55075,34495,8189
54890,34463,8249
54749,34437,8317
54669,34419,8386
54634,34408,8443
54630,34406,8489
54664,34408,8527
54725,34410,8552
54769,34408,8562
54772,34400,8560
54753,34387,8551
54712,34373,8532
54615,34354,8507
54455,34323,8481
54266,34282,8453
54064,34236,8416
53842,34191,8375
53617,34147,8336
53428,34102,8300
53292,34065,8264
53204,34040,8223
53171,34024,8180
53210,34015,8138
53309,34012,8094
53429,34005,8048
53554,33989,8008
53688,33966,7977
53793,33941,7955
53829,33913,7941
53804,33879,7936
53748,33843,7947
53649,33815,7968
53498,33801,7990
53331,33803,8015
53191,33821,8044
53080,33849,8067
52987,33878,8076
52930,33910,8073
52922,33944,8061
52939,33973,8037
52957,33991,8001
52984,33991,7960
53026,33971,7916
53064,33938,7864
53078,33894,7810
53083,33844,7768
53089,33800,7739
53079,33766,7712
53045,33739,7685
53014,33720,7667
53003,33712,7657
52996,33710,7645
52984,33711,7628
53000,33711,7612
53055,33708,7597
53127,33701,7576
53217,33689,7551
53355,33672,7522
53533,33653,7492
53711,33636,7454
53878,33621,7411
54055,33609,7363
54235,33600,7311
54394,33589,7258
54538,33575,7203
54685,33563,7153
54824,33554,7110
54930,33544,7076
54999,33523,7051
55045,33492,7029
55064,33461,7006
55047,33438,6985
55010,33419,6968
54986,33402,6952
54971,33388,6931
54962,33379,6909
54995,33377,6889
55096,33382,6868
55237,33393,6849
55383,33409,6834
55542,33434,6823
55714,33472,6812
55855,33523,6799
55937,33589,6789
55975,33668,6784
55982,33755,6785
55940,33845,6779
55853,33935,6765
55752,34029,6750
55665,34128,6737
55587,34232,6713
55520,34332,6677
55486,34423,6640
55489,34508,6600
55502,34589,6552
55513,34661,6499
55532,34722,6447
55545,34772,6400
55519,34809,6359
55452,34827,6331
55376,34827,6317
55292,34815,6316
55173,34792,6333
55038,34757,6374
54928,34712,6437
54837,34660,6517
54746,34609,6614
54678,34562,6729
54658,34522,6857
54667,34501,6991
54674,34502,7123
54687,34530,7254
54722,34580,7384
54755,34641,7509
54765,34707,7628
54761,34770,7746
54756,34826,7870
54739,34879,7994
54704,34930,8115
54656,34973,8241
54596,35005,8372
54511,35032,8492
54399,35049,8593
54275,35058,8681
54148,35060,8759
54008,35051,8821
53859,35029,8868
53731,35001,8900
53636,34971,8915
53555,34950,8919
53487,34940,8918
53449,34939,8916
53434,34946,8912
53410,34960,8909
53372,34979,8919
53346,34998,8939
53319,35014,8967
53257,35023,9007
53177,35022,9059
53113,35015,9117
53056,35004,9177
52984,34988,9233
52917,34967,9281
52886,34943,9320
52885,34914,9346
52892,34884,9357
52908,34856,9353
52942,34829,9331
52977,34807,9288
52988,34792,9230
52973,34784,9165
52947,34785,9099
52904,34795,9035
52834,34811,8973
52758,34828,8921
52701,34841,8881
52656,34852,8853
52618,34863,8832
52618,34865,8822
52665,34855,8822
52726,34833,8817
52778,34801,8803
52838,34765,8783
52903,34730,8757
52935,34696,8725
52928,34660,8692
52917,34619,8665
52922,34580,8646
52929,34547,8638
52944,34519,8651
53001,34490,8682
53103,34454,8725
53228,34413,8777
53380,34371,8838
53581,34329,8901
53809,34290,8961
54016,34258,9014
54194,34228,9059
54354,34206,9090
54473,34195,9102
54516,34196,9094
54489,34207,9071
54427,34224,9038
54346,34245,8999
54249,34267,8953
54166,34288,8903
54147,34304,8848
54202,34312,8787
54323,34311,8721
54520,34300,8657
54797,34285,8603
55110,34267,8556
55406,34248,8508
55668,34224,8462
55880,34197,8423
55995,34178,8387
55991,34167,8346
55901,34162,8307
55757,34163,8273
55563,34167,8233
55341,34167,8187
55150,34164,8144
55029,34157,8106
54965,34148,8064
54953,34135,8016
55016,34114,7970
55148,34085,7928
55294,34052,7883
55433,34024,7837
55584,34006,7795
55734,33998,7755
55835,34004,7713
55883,34030,7671
55910,34079,7625
55911,34150,7571
55858,34240,7511
55771,34349,7449
55688,34469,7382
55592,34599,7311
55454,34739,7243
55286,34882,7183
55109,35023,7129
54917,35160,7080
54700,35289,7039
54478,35409,7008
54279,35524,6981
54103,35638,6954
53937,35751,6928
53798,35858,6901
53704,35956,6872
53638,36047,6837
53576,36132,6793
53525,36211,6745
53488,36284,6698
53436,36350,6656
53339,36404,6624
53204,36447,6607
53049,36479,6609
52876,36498,6631
52686,36507,6674
52503,36509,6740
52348,36509,6828
52214,36514,6925
52097,36527,7029
52014,36543,7148
51966,36558,7283
51935,36574,7427
51917,36588,7577
51925,36601,7732
51953,36615,7890
51977,36631,8042
51993,36645,8190
52016,36658,8332
52037,36672,8465
52031,36685,8587
52001,36693,8696
51968,36692,8789
51928,36683,8865
51858,36667,8929
51769,36646,8984
51691,36619,9034
51625,36589,9079
51565,36556,9126
51523,36523,9179
51514,36494,9236
51525,36470,9296
51535,36453,9362
51551,36439,9432
51576,36423,9496
51578,36406,9556
51530,36387,9614
51454,36367,9668
51373,36348,9713
51273,36328,9749
51154,36303,9777
51050,36273,9798
50983,36240,9811
50936,36215,9823
50907,36202,9837
50930,36201,9850
51010,36208,9861
51114,36224,9869
51228,36245,9871
51361,36271,9859
51491,36301,9828
51570,36329,9783
51596,36348,9730
51591,36351,9671
51542,36341,9606
51419,36323,9535
51241,36297,9463
51058,36265,9401
50883,36232,9351
50711,36202,9309
50569,36178,9275
50489,36161,9249
50464,36152,9229
50469,36149,9211
50502,36140,9199
50569,36120,9192
50643,36088,9185
50692,36045,9173
50718,35992,9156
50734,35931,9134
50723,35863,9108
50673,35790,9079
50596,35716,9051
50506,35648,9024
50394,35591,8994
50254,35547,8966
50106,35515,8942
49969,35496,8919
49838,35488,8893
49709,35486,8864
49602,35485,8837
49522,35486,8810
49462,35486,8780
49430,35475,8748
49448,35453,8711
49517,35427,8663
49620,35400,8603
49752,35369,8535
49931,35331,8457
50148,35286,8370
50361,35239,8278
50548,35194,8193
50717,35156,8115
50862,35130,8041
50955,35111,7974
50995,35093,7917
51014,35075,7864
51019,35060,7814
50996,35047,7768
50961,35033,7723
50952,35016,7673
50972,34997,7614
50998,34977,7548
51044,34958,7478
51134,34944,7402
51245,34940,7322
51342,34942,7244
51436,34949,7170
51536,34959,7097
51611,34973,7029
51632,34991,6971
51615,35013,6921
51584,35034,6875
51518,35053,6832
51413,35075,6789
51310,35100,6749
51241,35132,6712
51197,35177,6676
51177,35235,6641
51211,35308,6608
51315,35394,6574
51461,35493,6537
51632,35598,6501
51841,35702,6471
52075,35800,6450
52287,35893,6429
52456,35983,6411
52582,36067,6402
52656,36140,6399
52659,36196,6391
52599,36232,6372
52507,36254,6346
52394,36271,6310
52257,36283,6260
52111,36294,6198
51986,36302,6134
51888,36304,6074
51803,36309,6020
51737,36318,5976
51711,36333,5950
51726,36348,5946
51760,36362,5968
51812,36375,6021
51894,36390,6100
51994,36410,6205
52091,36429,6331
52186,36446,6474
52288,36461,6627
52383,36477,6785
52457,36495,6953
52523,36515,7128
52591,36531,7301
52640,36545,7468
52651,36552,7625
52643,36549,7774
52631,36539,7913
52593,36526,8039
52522,36509,8151
52453,36488,8254
52401,36462,8348
52340,36429,8429
52265,36390,8501
52205,36344,8568
52168,36293,8627
52126,36242,8672
52077,36193,8700
52049,36148,8721
52036,36109,8741
52004,36075,8758
51954,36040,8774
51916,36000,8792
51885,35956,8813
51825,35915,8836
51733,35878,8858
51631,35844,8880
51508,35817,8899
51349,35797,8912
51174,35776,8921
51016,35756,8930
50884,35743,8941
50775,35742,8950
50712,35751,8954
50718,35766,8958
50784,35780,8960
50885,35784,8961
51015,35775,8962
51173,35756,8958
51335,35730,8942
51474,35696,8919
51588,35653,8894
51677,35603,8861
51715,35550,8815
51691,35498,8758
51622,35447,8693
51518,35399,8616
51367,35354,8533
51165,35309,8450
50945,35266,8365
50728,35225,8277
50505,35187,8195
50291,35156,8129
50133,35130,8080
50055,35107,8045
50037,35087,8027
50072,35069,8030
50174,35052,8049
50320,35035,8070
50456,35011,8090
50563,34981,8114
50653,34951,8136
50705,34920,8150
50687,34893,8155
50610,34870,8154
50503,34846,8146
50366,34820,8127
50193,34798,8103
50021,34782,8073
49900,34774,8038
49844,34774,7999
49846,34777,7964
49917,34782,7934
50065,34788,7902
50272,34796,7866
50499,34811,7834
50726,34833,7806
50942,34856,7769
51116,34875,7720
51230,34891,7666
51303,34901,7612
51351,34905,7551
51365,34906,7487
51350,34905,7427
51349,34898,7369
51397,34885,7311
51483,34866,7253
51594,34845,7196
51751,34822,7137
51949,34793,7072
52142,34758,7010
52303,34720,6959
52437,34681,6918
52539,34646,6877
52589,34621,6838
52594,34606,6805
52589,34604,6773
52597,34618,6733
52620,34644,6687
52677,34677,6642
52796,34713,6598
52969,34757,6552
53159,34812,6511
53351,34873,6477
53557,34933,6445
53755,34996,6414
53900,35065,6387
53991,35139,6362
54057,35223,6328
54088,35320,6283
54066,35428,6234
54023,35539,6186
54004,35647,6137
54017,35751,6086
54060,35859,6037
54154,35967,5996
54301,36065,5960
54464,36148,5926
54612,36218,5900
54760,36274,5877
54904,36322,5850
54996,36366,5826
55003,36406,5808
54937,36441,5791
54810,36474,5770
54616,36509,5755
54363,36548,5759
54080,36586,5779
53800,36620,5811
53541,36648,5864
53331,36666,5943
53210,36673,6045
53185,36668,6166
53225,36657,6306
53312,36643,6467
53452,36631,6640
53618,36627,6811
53757,36632,6974
53858,36649,7130
53949,36676,7277
54020,36712,7412
54046,36755,7532
54052,36796,7637
54082,36828,7731
54126,36845,7812
54159,36847,7883
54199,36829,7948
54268,36790,8010
54348,36735,8069
54413,36663,8126
54469,36582,8180
54534,36501,8230
54593,36424,8280
54627,36357,8328
54641,36303,8373
54638,36263,8415
54593,36239,8451
54495,36232,8484
54375,36234,8520
54263,36237,8556
54151,36239,8586
54039,36232,8610
53963,36216,8632
53945,36190,8650
53951,36156,8659
53956,36114,8661
53982,36068,8662
54028,36020,8659
54050,35970,8645
54022,35922,8622
53967,35879,8597
53888,35846,8563
53770,35822,8524
53627,35805,8483
53499,35795,8444
53399,35787,8405
53312,35776,8364
53245,35760,8324
53229,35740,8279
53260,35712,8226
53303,35674,8170
53358,35633,8117
53438,35586,8067
53511,35534,8017
53532,35484,7972
53515,35439,7937
53486,35401,7912
53427,35373,7892
53311,35356,7879
53154,35344,7875
52988,35341,7876
52815,35351,7879
52631,35371,7884
52458,35393,7890
52318,35412,7887
52208,35427,7872
52121,35438,7849
52074,35443,7819
52072,35438,7776
52091,35421,7722
52120,35396,7667
52169,35363,7609
52230,35322,7546
52266,35276,7480
52256,35225,7416
52215,35171,7355
52143,35122,7295
52015,35086,7237
51841,35067,7189
51671,35062,7144
51517,35069,7097
51350,35082,7051
51175,35097,7007
51027,35108,6962
50914,35117,6912
50816,35128,6859
50745,35134,6807
50734,35133,6763
50778,35124,6726
50852,35109,6694
50958,35089,6668
51110,35061,6649
51290,35024,6633
51465,34985,6616
51625,34944,6596
51782,34902,6573
51919,34859,6545
52015,34816,6509
52081,34770,6469
52138,34725,6424
52181,34690,6373
52204,34666,6315
52239,34650,6256
52308,34638,6196
52385,34632,6132
52457,34637,6072
52554,34655,6016
52688,34683,5960
52829,34719,5903
52960,34766,5851
53096,34827,5803
53232,34905,5752
53332,34999,5699
53379,35108,5648
53386,35228,5596
53351,35353,5541
53264,35477,5490
53139,35601,5450
53006,35719,5415
52881,35829,5377
52762,35926,5343
52663,36011,5317
52615,36085,5293
52619,36151,5265
52646,36211,5233
52702,36266,5204
52806,36315,5187
52937,36359,5184
53058,36399,5201
53173,36434,5246
53300,36465,5315
53413,36492,5409
53480,36513,5525
53510,36527,5660
53526,36536,5807
53516,36541,5957
53470,36542,6102
53414,36533,6242
53375,36516,6373
53346,36497,6489
53315,36487,6587
53298,36489,6671
53309,36504,6741
53338,36528,6795
53368,36556,6839
53406,36588,6883
53459,36627,6925
53514,36673,6963
53555,36720,7002
53592,36759,7044
53627,36783,7089
53627,36791,7136
53583,36788,7183
53515,36770,7223
53433,36735,7251
53328,36687,7268
53216,36629,7280
53145,36564,7285
53118,36497,7279
53102,36436,7269
53096,36381,7263
53132,36328,7265
53198,36280,7275
53249,36244,7298
53278,36218,7335
53303,36196,7376
53303,36176,7413
53247,36155,7450
53157,36130,7486
53068,36102,7509
52977,36076,7512
52871,36055,7499
52775,36041,7474
52720,36034,7437
52700,36032,7391
52695,36035,7342
52704,36039,7289
52731,36042,7234
52760,36045,7179
52778,36047,7125
52800,36044,7073
52837,36037,7026
52875,36026,6982
52906,36014,6939
52945,35998,6900
52996,35973,6861
53029,35939,6814
53026,35899,6764
53012,35852,6717
52994,35804,6674
52939,35763,6631
52841,35731,6590
52737,35703,6560
52642,35678,6541
52542,35657,6529
52451,35639,6521
52415,35621,6520
52448,35598,6523
52522,35569,6524
52636,35537,6519
52817,35499,6511
53034,35456,6494
53223,35409,6467
53368,35357,6434
53483,35304,6396
53543,35258,6351
53509,35222,6301
53387,35201,6252
53214,35194,6206
53004,35190,6164
52761,35190,6124
52517,35192,6088
52312,35195,6059
52160,35200,6036
52057,35203,6013
52015,35201,5992
52038,35191,5971
52096,35176,5942
52158,35159,5902
52212,35139,5860
52246,35117,5816
52225,35093,5771
52130,35074,5730
51975,35062,5704
51776,35059,5693
51532,35062,5696
51264,35072,5712
51021,35086,5747
50830,35100,5797
50682,35108,5848
50586,35107,5894
50577,35099,5935
50648,35088,5968
50759,35076,5985
50899,35066,5985
51085,35058,5969
51299,35052,5938
51503,35042,5892
51688,35031,5836
51864,35017,5778
52013,35002,5723
52108,34987,5673
52155,34970,5628
52180,34948,5592
52188,34931,5562
52172,34922,5536
52148,34917,5514
52138,34917,5495
52147,34922,5477
52162,34938,5459
52187,34968,5442
52233,35009,5425
52292,35059,5406
52351,35125,5382
52417,35206,5355
52497,35295,5328
52576,35391,5300
52639,35490,5273
52695,35590,5253
52745,35693,5248
52759,35798,5258
52726,35902,5286
52673,36003,5335
52623,36099,5404
52569,36186,5489
52519,36264,5591
52513,36330,5714
52565,36382,5852
52648,36418,5997
52757,36439,6146
52912,36443,6304
53094,36435,6463
53247,36419,6616
53357,36399,6760
53439,36378,6897
53477,36357,7023
53437,36340,7136
53325,36335,7233
53175,36337,7316
52999,36344,7387
52802,36356,7449
52604,36370,7500
52436,36382,7543
52307,36398,7580
52211,36423,7613
52158,36453,7641
52168,36483,7663
52224,36510,7680
52297,36534,7694
52384,36553,7713
52490,36562,7733
52583,36560,7750
52637,36548,7764
52670,36528,7781
52698,36506,7800
52700,36483,7814
52665,36457,7824
52625,36429,7833
52607,36397,7836
52597,36360,7833
52590,36322,7827
52604,36283,7823
52645,36238,7818
52680,36190,7804
52692,36139,7783
52697,36085,7758
52697,36031,7727
52671,35979,7682
52614,35930,7621
52549,35885,7544
52489,35846,7457
52424,35814,7370
52355,35791,7291
52309,35779,7222
52293,35773,7160
52282,35768,7105
52268,35760,7057
52264,35750,7009
52261,35744,6958
52223,35744,6907
52150,35745,6860
52073,35740,6816
51997,35726,6772
51913,35704,6733
51836,35676,6700
51799,35646,6671
51797,35620,6644
51811,35604,6623
51855,35596,6609
51938,35597,6598
52018,35607,6588
52059,35623,6580
52078,35637,6577
52094,35648,6569
52071,35655,6554
51989,35653,6537
51879,35638,6524
51763,35609,6509
51632,35564,6491
51492,35510,6475
51383,35458,6463
51333,35408,6451
51328,35364,6442
51358,35323,6441
51428,35285,6441
51521,35253,6436
51592,35229,6431
51621,35212,6431
51618,35196,6430
51575,35175,6424
51458,35150,6417
51274,35124,6415
51069,35092,6413
50865,35056,6408
50657,35024,6403
50479,34999,6400
50373,34984,6395
50329,34978,6382
50312,34980,6362
50329,34990,6336
50396,35004,6304
50475,35017,6266
50525,35028,6227
50561,35038,6189
50606,35048,6150
50637,35057,6117
50637,35065,6090
50631,35066,6068
50650,35054,6050
50684,35032,6039
50722,35000,6038
50797,34965,6041
50932,34930,6045
51098,34899,6047
51273,34872,6047
51472,34848,6042
51698,34833,6025
51916,34831,5994
52106,34840,5951
52281,34853,5898
52451,34860,5836
52599,34856,5764
52714,34841,5688
52814,34818,5616
52906,34786,5550
52972,34746,5488
53007,34695,5433
53031,34631,5388
53041,34559,5353
53015,34491,5319
52968,34439,5284
52936,34408,5254
52930,34401,5230
52935,34422,5209
52967,34471,5195
53062,34542,5194
53219,34627,5210
53402,34720,5245
53614,34815,5303
53867,34912,5385
54115,35006,5488
54300,35096,5609
54422,35187,5744
54495,35281,5890
54494,35372,6041
54401,35459,6191
54255,35543,6341
54102,35626,6488
53940,35707,6625
53774,35784,6750
53653,35855,6863
53613,35923,6964
53625,35983,7048
53660,36033,7118
53732,36073,7179
53840,36100,7231
53936,36114,7275
53986,36117,7314
53997,36112,7353
53973,36104,7390
53894,36103,7424
53762,36110,7462
53611,36122,7507
53465,36134,7559
53317,36148,7619
53181,36169,7685
53091,36195,7748
53054,36223,7802
53051,36250,7848
53083,36278,7885
53168,36301,7911
53291,36318,7926
53408,36329,7936
53507,36332,7946
53602,36325,7955
53672,36312,7967
53676,36295,7989
53618,36278,8022
53528,36257,8062
53400,36227,8104
53219,36188,8147
53023,36144,8189
52858,36102,8221
52715,36063,8235
52581,36033,8232
52492,36006,8214
52466,35980,8180
52463,35954,8129
52450,35932,8068
52442,35913,8000
52450,35893,7927
52436,35873,7857
52375,35847,7800
52294,35810,7755
52217,35770,7720
52123,35731,7698
52004,35699,7693
51886,35674,7697
51778,35654,7699
51660,35637,7704
51520,35627,7712
51384,35623,7713
51260,35625,7701
51128,35633,7682
50991,35641,7660
50879,35641,7628
50794,35628,7583
50709,35607,7538
50633,35581,7498
50598,35551,7461
50602,35514,7425
50616,35471,7395
50655,35425,7372
50742,35380,7353
50851,35342,7333
50941,35313,7316
51006,35291,7305
51051,35278,7293
51061,35272,7280
51019,35275,7272
50937,35285,7265
50848,35295,7250
50758,35300,7221
50666,35302,7182
50603,35302,7137
50590,35297,7085
50616,35290,7024
50674,35281,6959
50797,35273,6896
50994,35268,6835
51222,35268,6777
51444,35275,6732
51672,35290,6709
51892,35310,6703
52050,35337,6705
52119,35369,6713
52126,35399,6727
52087,35427,6742
51985,35451,6752
51842,35469,6755
51716,35480,6752
51626,35479,6743
51551,35472,6722
51512,35460,6688
51552,35447,6650
51662,35438,6611
51799,35436,6569
51964,35440,6527
52177,35444,6493
52416,35442,6468
52641,35431,6449
52844,35416,6437
53044,35392,6440
53234,35357,6453
53384,35312,6470
53495,35253,6489
53590,35182,6505
53672,35106,6512
53735,35029,6505
53803,34961,6481
53904,34903,6442
54026,34852,6386
54155,34809,6316
54315,34777,6243
54514,34753,6178
54701,34732,6120
54832,34719,6073
54922,34711,6049
54977,34704,6050
54967,34692,6064
54883,34677,6089
54771,34658,6131
54666,34630,6188
54558,34593,6253
54456,34557,6323
54410,34530,6403
54438,34515,6490
54504,34516,6576
54590,34538,6661
54715,34584,6746
54857,34659,6828
54962,34758,6906
55004,34878,6977
54996,35007,7045
54930,35133,7106
54787,35249,7160
54585,35355,7213
54373,35450,7274
54179,35534,7343
54003,35612,7424
53869,35684,7519
53811,35754,7627
53814,35828,7746
53834,35904,7870
53864,35980,7996
53907,36054,8117
53909,36122,8224
53828,36184,8312
53681,36242,8382
53493,36292,8432
53261,36337,8460
52992,36378,8468
52721,36414,8463
52484,36441,8450
52293,36461,8437
52149,36476,8429
52070,36494,8431
52063,36513,8446
52096,36532,8471
52143,36557,8508
52216,36590,8558
52306,36631,8615
52365,36679,8664
52370,36730,8702
52350,36782,8730
52325,36836,8748
52267,36888,8749
52177,36942,8729
52095,36998,8689
52037,37053,8631
51992,37107,8560
51965,37156,8485
51978,37197,8412
52017,37228,8341
52044,37251,8274
52044,37269,8212
52026,37280,8157
51975,37283,8112
51862,37279,8078
51699,37268,8052
51530,37250,8029
51359,37232,8003
51181,37217,7975
51041,37207,7948
50978,37202,7919
50975,37208,7883
51002,37225,7845
51065,37253,7808
51169,37285,7769
51282,37316,7730
51363,37343,7699
51404,37359,7676
51416,37365,7657
51391,37366,7645
51322,37367,7646
51235,37365,7658
51157,37362,7673
51083,37362,7695
51013,37369,7728
50980,37379,7764
50996,37387,7790
51029,37390,7804
51076,37390,7806
51175,37385,7793
51331,37376,7762
51500,37366,7718
51670,37353,7666
51866,37337,7609
52071,37313,7547
52227,37283,7486
52313,37248,7428
52346,37210,7371
52318,37172,7319
52202,37137,7280
52015,37102,7252
51808,37067,7233
51600,37036,7223
51389,37011,7222
51207,36993,7226
51105,36982,7226
51074,36974,7219
51079,36964,7210
51131,36947,7200
51241,36927,7183
51360,36907,7153
51433,36892,7120
51465,36879,7087
51476,36866,7054
51456,36850,7025
51395,36837,7008
51324,36827,6999
51282,36821,6989
51265,36815,6987
51279,36809,6996
51365,36798,7011
51546,36780,7022
51779,36755,7032
52029,36728,7043
52308,36698,7047
52605,36661,7038
52864,36622,7021
53054,36587,7002
53184,36558,6977
53258,36531,6944
53271,36510,6911
53249,36495,6884
53244,36487,6857
53275,36484,6824
53321,36482,6792
53394,36476,6763
53522,36464,6735
53688,36443,6706
53844,36414,6683
53987,36381,6670
54140,36343,6666
54294,36301,6671
54425,36259,6685
54544,36216,6701
54685,36173,6713
54846,36130,6718
55000,36088,6720
55154,36051,6724
55328,36016,6730
55494,35982,6748
55610,35952,6788
55685,35932,6853
55733,35925,6942
55721,35935,7059
55626,35965,7207
55490,36009,7381
55346,36066,7573
55179,36136,7778
54992,36220,7992
54829,36313,8207
54725,36409,8409
54673,36503,8590
54672,36592,8750
54746,36674,8882
54892,36752,8985
55064,36826,9069
55225,36895,9140
55360,36959,9197
55439,37020,9237
55412,37077,9265
55275,37128,9288
55068,37174,9307
54812,37212,9323
54504,37241,9337
54189,37265,9352
53932,37287,9372
53741,37307,9396
53595,37331,9427
53508,37356,9470
53500,37373,9519
53543,37381,9564
53597,37384,9603
53648,37389,9634
53700,37403,9653
53735,37426,9658
53718,37458,9650
53657,37495,9636
53583,37533,9614
53497,37573,9585
53391,37618,9552
53303,37659,9516
53264,37692,9477
53250,37716,9437
53240,37734,9399
53259,37746,9362
53321,37750,9322
53391,37740,9283
53440,37723,9245
53479,37706,9201
53513,37695,9142
53512,37688,9069
53460,37687,8987
53381,37690,8898
53292,37694,8803
53188,37695,8708
53083,37689,8621
53018,37675,8546
53004,37650,8487
53010,37612,8452
53035,37564,8441
53108,37510,8447
53208,37451,8463
53274,37395,8484
53299,37346,8504
53307,37305,8516
53278,37278,8513
53186,37268,8491
53049,37277,8452
52917,37294,8398
52807,37308,8333
52711,37313,8266
52649,37311,8207
52656,37301,8157
52717,37279,8117
52786,37246,8097
52865,37207,8091
52961,37164,8086
53031,37118,8074
53033,37078,8060
52989,37047,8048
52928,37021,8035
52834,36996,8012
52698,36972,7975
52547,36952,7932
52412,36927,7883
52287,36891,7826
52165,36850,7769
52067,36805,7720
52004,36756,7679
51953,36702,7642
51896,36647,7609
51846,36591,7588
51803,36536,7583
51744,36485,7587
51673,36443,7594
51619,36416,7602
51580,36401,7610
51526,36392,7606
51463,36389,7588
51429,36391,7560
51417,36394,7528
51389,36388,7487
51355,36367,7438
51349,36332,7387
51366,36285,7334
51380,36231,7281
51404,36178,7229
51459,36128,7178
51545,36084,7125
51646,36050,7071
51764,36028,7019
51924,36016,6965
52120,36013,6902
52320,36021,6833
52531,36035,6763
52770,36046,6692
52999,36050,6621
53181,36046,6557
53327,36038,6502
53445,36024,6451
53507,36003,6405
53493,35976,6370
53427,35950,6341
53337,35931,6309
53225,35918,6276
53100,35913,6246
52999,35910,6224
52953,35905,6207
52955,35899,6201
53008,35894,6214
53136,35886,6246
53335,35871,6294
53568,35841,6361
53814,35806,6448
54084,35776,6555
54357,35749,6679
54577,35725,6818
54728,35704,6975
54836,35686,7149
54901,35678,7330
54895,35684,7514
54819,35703,7699
54705,35732,7880
54567,35767,8048
54409,35809,8204
54261,35856,8351
54169,35907,8484
54137,35962,8599
54133,36028,8701
54158,36104,8794
54228,36185,8876
54307,36274,8948
54348,36372,9016
54363,36481,9078
54372,36600,9132
54346,36723,9181
54260,36844,9233
54132,36958,9279
53981,37055,9312
53805,37134,9333
53601,37194,9346
53392,37235,9353
53195,37257,9349
53002,37260,9339
52815,37249,9336
52671,37231,9348
52588,37213,9372
52536,37200,9412
52503,37194,9474
52520,37193,9554
52591,37198,9639
52673,37209,9727
52748,37224,9815
52840,37244,9897
52945,37266,9963
53036,37287,10009
53108,37304,10031
53178,37312,10030
53246,37313,10009
53287,37311,9975
53295,37310,9937
53289,37309,9902
53261,37309,9870
53182,37315,9844
53064,37328,9831
52945,37348,9829
52821,37367,9834
52668,37381,9840
52517,37389,9844
52404,37390,9848
52315,37384,9846
52223,37373,9832
52154,37352,9807
52133,37321,9777
52133,37280,9747
52124,37233,9723
52117,37184,9712
52123,37135,9711
52115,37085,9713
52068,37039,9714
51987,37000,9720
51881,36972,9728
51742,36954,9722
51569,36948,9693
51392,36951,9651
51237,36958,9600
51102,36963,9538
50996,36966,9469
50948,36970,9405
50954,36974,9352
50983,36975,9306
51025,36971,9269
51099,36961,9251
51185,36947,9252
51240,36933,9257
51260,36917,9263
51281,36898,9272
51295,36877,9277
51272,36852,9262
51222,36825,9228
51183,36797,9185
51153,36766,9131
51118,36730,9059
51095,36688,8976
51118,36640,8889
51184,36590,8798
51263,36542,8701
51366,36495,8611
51524,36447,8536
51718,36400,8469
51915,36352,8409
52136,36308,8367
52404,36272,8345
52681,36242,8332
52930,36214,8322
53170,36188,8326
53419,36162,8339
53650,36134,8340
53846,36107,8316
54032,36081,8274
54236,36055,8219
54452,36027,8147
54683,36001,8064
54967,35980,7976
55310,35966,7889
55662,35958,7812
55994,35954,7757
56318,35946,7729
56601,35930,7723
56764,35910,7734
56791,35890,7764
56744,35870,7804
56645,35846,7844
56475,35816,7874
56272,35785,7890
56108,35757,7884
55997,35730,7848
55909,35707,7789
55858,35694,7723
55875,35691,7662
55928,35693,7614
55958,35701,7593
55955,35712,7608
55943,35720,7659
55904,35723,7741
55801,35719,7847
55651,35705,7979
55490,35681,8133
55307,35643,8301
55088,35593,8477
54869,35536,8660
54687,35478,8845
54528,35424,9030
54371,35381,9218
54239,35345,9412
54148,35315,9608
54071,35290,9796
53983,35268,9980
53891,35252,10167
53798,35237,10358
53678,35217,10546
53519,35190,10728
53341,35156,10905
53161,35117,11068
52968,35079,11203
52763,35050,11308
52569,35033,11387
52394,35030,11444
52220,35047,11475
52049,35087,11486
51905,35150,11493
51783,35234,11502
51653,35332,11511
51519,35442,11529
51409,35564,11562
51320,35689,11610
51235,35815,11671
51165,35942,11745
51134,36064,11827
51131,36174,11910
51131,36274,11989
51129,36367,12064
51132,36455,12127
51126,36534,12171
51086,36603,12191
51014,36666,12189
50936,36721,12165
50852,36765,12122
50756,36799,12064
50674,36823,11995
50630,36833,11916
50604,36833,11823
50582,36831,11724
50591,36829,11631
50644,36826,11550
50711,36823,11474
50764,36825,11398
50812,36838,11328
50853,36861,11266
50858,36893,11205
50807,36931,11140
50715,36973,11083
50596,37018,11034
50450,37063,10986
50289,37104,10942
50139,37136,10911
50009,37159,10892
49891,37178,10872
49794,37193,10847
49733,37210,10819
49701,37227,10785
49665,37245,10738
49622,37262,10686
49595,37282,10640
49572,37297,10598
49524,37302,10553
49458,37294,10510
49390,37270,10482
49310,37225,10469
49203,37163,10468
49079,37091,10485
48956,37007,10523
48834,36914,10571
48701,36820,10620
48564,36727,10672
48443,36644,10733
48343,36571,10788
48254,36508,10824
48178,36461,10844
48120,36430,10850
48061,36409,10831
47989,36398,10788
47927,36397,10734
47893,36403,10677
47870,36417,10611
47844,36436,10539
47837,36454,10478
47862,36468,10433
47901,36478,10392
47950,36487,10360
48029,36496,10343
48144,36505,10335
48276,36515,10327
48413,36528,10323
48558,36548,10325
48709,36570,10324
48851,36590,10308
48977,36607,10280
49094,36616,10251
49202,36613,10213
49282,36599,10156
49342,36576,10084
49417,36542,10012
49509,36498,9944
49594,36450,9877
49675,36409,9814
49773,36381,9765
49871,36369,9726
49941,36368,9698
49991,36372,9685
50040,36379,9690
50074,36388,9707
50077,36397,9731
50067,36403,9763
50070,36402,9798
50085,36394,9814
50102,36383,9803
50129,36365,9771
50179,36336,9716
50239,36299,9629
50299,36259,9514
50370,36218,9384
50457,36176,9251
50543,36129,9118
50609,36083,8999
50667,36047,8906
50711,36022,8846
50708,36004,8819
50646,35994,8828
50554,35987,8876
50446,35978,8958
50307,35970,9066
50153,35965,9199
50024,35960,9346
49940,35953,9502
49890,35940,9664
49873,35921,9833
49897,35901,10005
49957,35883,10176
50030,35867,10345
50110,35852,10516
50204,35838,10687
50300,35821,10856
50364,35805,11026
50394,35789,11196
50411,35772,11363
50396,35751,11518
50323,35725,11661
50206,35696,11793
50075,35663,11912
49927,35626,12018
49756,35588,12117
49584,35552,12213
49441,35522,12305
49330,35500,12394
49236,35489,12483
49166,35483,12569
49130,35477,12646
49111,35465,12717
49090,35447,12792
49084,35421,12870
49109,35392,12942
49144,35362,13009
49173,35336,13080
49221,35325,13159
49296,35334,13244
49370,35367,13332
49430,35425,13428
49494,35503,13532
49567,35597,13639
49627,35706,13744
49669,35826,13845
49706,35953,13937
49739,36077,14010
49758,36197,14053
49771,36314,14062
49805,36429,14038
49861,36540,13980
49922,36638,13891
50000,36722,13785
50127,36796,13677
50290,36862,13574
50441,36921,13477
50580,36974,13392
50728,37020,13323
50847,37059,13268
50888,37096,13226
50869,37137,13210
50835,37180,13224
50777,37222,13253
50683,37265,13287
50589,37314,13331
50530,37369,13378
50490,37424,13405
50443,37482,13402
50402,37539,13379
50384,37591,13342
50368,37639,13283
50339,37682,13207
50321,37720,13132
50333,37752,13069
50347,37778,13011
50346,37797,12962
50355,37814,12941
50377,37836,12950
50369,37862,12974
50314,37894,13010
50240,37927,13060
50157,37955,13121
50040,37978,13180
49900,37997,13237
49791,38007,13290
49734,38005,13325
49706,37986,13329
49713,37950,13301
49799,37902,13247
49960,37845,13168
50149,37783,13064
50354,37721,12947
50588,37662,12830
50827,37609,12715
51025,37566,12607
51175,37535,12518
51297,37515,12452
51388,37504,12409
51432,37498,12391
51441,37498,12400
51446,37502,12430
51440,37506,12464
51414,37506,12492
51398,37503,12511
51426,37492,12514
51477,37473,12490
51527,37452,12435
51602,37438,12352
51723,37427,12250
51861,37418,12138
51992,37410,12027
52126,37404,11934
52269,37401,11863
52393,37394,11810
52473,37378,11773
52520,37354,11748
52543,37321,11728
52523,37281,11705
52446,37237,11675
52343,37192,11637
52228,37142,11585
52089,37089,11521
51940,37039,11453
51828,36994,11383
51765,36955,11314
51720,36921,11244
51690,36886,11179
51712,36850,11120
51780,36812,11065
51846,36773,11014
51898,36732,10969
51956,36691,10926
52010,36655,10881
52034,36624,10834
52034,36597,10789
52031,36579,10741
52013,36566,10693
51949,36551,10646
51848,36531,10603
51737,36504,10566
51620,36472,10544
51485,36437,10547
51346,36401,10579
51230,36365,10639
51140,36330,10723
51065,36297,10832
51019,36271,10964
51015,36253,11113
51038,36242,11269
51075,36242,11427
51136,36248,11587
51225,36249,11745
51308,36244,11894
51367,36232,12035
51421,36211,12174
51470,36179,12310
51474,36140,12445
51423,36098,12582
51345,36063,12722
51240,36036,12864
51086,36018,13002
50892,36006,13137
50697,35998,13271
50518,35987,13397
50347,35971,13511
50197,35951,13611
50093,35926,13697
50032,35896,13768
49990,35858,13828
49970,35815,13880
49986,35769,13925
50022,35720,13966
50037,35670,14002
50029,35626,14035
50021,35588,14065
50003,35556,14090
49948,35534,14110
49878,35527,14125
49831,35538,14134
49796,35566,14140
49755,35607,14147
49733,35663,14156
49746,35733,14164
49766,35819,14176
49769,35921,14198
49774,36033,14232
49790,36148,14270
49786,36262,14307
49739,36374,14336
49662,36485,14353
49567,36592,14352
49440,36686,14335
49267,36770,14303
49066,36847,14256
48859,36911,14191
48642,36964,14112
48418,37012,14024
48224,37059,13934
48075,37100,13849
47949,37133,13776
47848,37159,13725
47796,37181,13694
47785,37197,13677
47778,37207,13675
47773,37215,13689
47794,37219,13710
47834,37213,13729
47865,37198,13745
47899,37175,13758
47965,37153,13766
48053,37134,13770
48141,37121,13777
48236,37117,13789
48356,37123,13808
48488,37140,13840
48613,37170,13890
48747,37211,13953
48911,37255,14021
49088,37295,14089
49246,37326,14152
49379,37348,14210
49498,37358,14256
49594,37349,14273
49660,37324,14261
49713,37288,14229
49777,37245,14181
49847,37200,14114
49918,37160,14034
50004,37128,13950
50102,37104,13867
50189,37082,13781
50247,37060,13691
50286,37038,13604
50309,37017,13521
50298,37000,13431
50254,36988,13337
50214,36978,13241
50200,36964,13134
50205,36943,13005
50240,36911,12861
50336,36873,12713
50485,36834,12563
50649,36795,12412
50817,36762,12272
51002,36735,12157
51184,36716,12064
51320,36704,11986
51415,36701,11927
51496,36705,11892
51550,36710,11867
51548,36710,11841
51498,36701,11817
51429,36686,11789
51343,36661,11741
51228,36625,11671
51102,36580,11597
50997,36526,11523
50918,36467,11445
50851,36408,11370
50802,36356,11315
50777,36311,11287
50751,36275,11275
50703,36248,11275
50656,36228,11287
50634,36209,11303
50614,36193,11315
50577,36182,11315
50547,36170,11298
50533,36151,11255
50494,36124,11182
50406,36092,11086
50290,36064,10973
50147,36044,10847
49948,36029,10714
49697,36018,10587
49443,36017,10476
49215,36025,10387
49012,36040,10323
48850,36059,10288
48758,36078,10282
48728,36094,10302
48726,36098,10347
48733,36093,10411
48750,36085,10486
48757,36076,10570
48725,36067,10663
48652,36058,10765
48567,36052,10876
48482,36048,10997
48385,36047,11129
48289,36047,11273
48222,36050,11430
48174,36053,11602
48116,36051,11790
48062,36039,11991
48030,36021,12198
47996,35992,12401
47932,35953,12597
47856,35908,12780
47795,35859,12941
47739,35806,13071
47682,35754,13169
47641,35710,13242
47631,35678,13294
47642,35654,13330
47657,35639,13358
47677,35629,13389
47698,35617,13424
47697,35603,13462
47659,35587,13506
47594,35570,13558
47507,35552,13612
47398,35533,13658
47280,35514,13700
47181,35503,13743
47113,35505,13783
47060,35524,13814
47030,35562,13840
47052,35619,13870
47123,35690,13903
47209,35774,13936
47304,35871,13975
47423,35977,14023
47557,36088,14069
47679,36196,14100
47779,36296,14116
47870,36386,14113
47941,36465,14077
47963,36538,14002
47941,36614,13897
47907,36693,13771
47854,36772,13623
47761,36849,13464
47651,36926,13303
47564,37002,13143
47494,37073,12979
47429,37138,12814
47387,37195,12668
47397,37239,12553
47462,37265,12462
47577,37275,12396
47749,37275,12354
47976,37270,12329
48228,37259,12311
48484,37245,12295
48747,37238,12271
49007,37238,12235
49222,37247,12187
49375,37263,12132
49485,37289,12066
49566,37325,11989
49599,37366,11906
49586,37409,11824
49570,37459,11749
49572,37512,11685
49584,37563,11639
49610,37610,11617
49670,37651,11626
49763,37676,11660
49861,37685,11714
49954,37688,11788
50060,37684,11883
50173,37671,11980
50264,37648,12070
50325,37617,12157
50372,37583,12239
50404,37547,12301
50398,37512,12341
50362,37482,12373
50330,37452,12404
50300,37420,12425
50260,37383,12440
50244,37346,12461
50294,37314,12489
50398,37288,12521
50530,37266,12561
50709,37251,12611
50948,37244,12660
51205,37240,12698
51434,37243,12724
51630,37256,12739
51788,37274,12737
51878,37291,12718
51880,37300,12690
51815,37303,12657
51708,37301,12616
51571,37296,12565
51420,37286,12511
51292,37271,12466
51202,37247,12430
51138,37214,12405
51094,37177,12393
51077,37134,12400
51073,37085,12423
51046,37031,12456
50994,36976,12499
50950,36927,12546
50913,36884,12576
50849,36850,12574
50768,36827,12542
50708,36813,12487
50666,36803,12398
50617,36798,12268
50573,36797,12105
50559,36800,11922
50570,36803,11723
50586,36798,11517
50612,36778,11325
50669,36745,11161
50753,36703,11025
50831,36655,10928
50897,36608,10889
50959,36561,10913
50994,36515,10989
50975,36479,11107
50915,36460,11268
50837,36455,11463
50726,36460,11673
50573,36468,11889
50426,36477,12108
50321,36483,12323
50244,36482,12525
50184,36470,12714
50162,36448,12900
50187,36414,13084
50230,36371,13265
50273,36324,13453
50330,36279,13656
50404,36236,13868
50473,36198,14079
50534,36164,14286
50604,36138,14485
50685,36119,14660
50759,36102,14802
50828,36083,14908
50911,36063,14973
51000,36041,14994
51054,36018,14978
51072,35996,14938
51080,35974,14885
51064,35950,14827
50986,35925,14783
50856,35903,14764
50712,35888,14772
50548,35876,14807
50348,35864,14868
50136,35849,14948
49951,35834,15037
49798,35819,15126
49664,35806,15210
49556,35798,15282
49491,35791,15329
49451,35784,15349
49408,35776,15350
49368,35771,15335
49347,35774,15299
49315,35787,15246
49248,35810,15189
49175,35848,15137
49124,35900,15087
49079,35963,15033
49036,36038,14974
49032,36129,14917
49087,36235,14865
49178,36350,14811
49286,36468,14758
49417,36590,14717
49565,36717,14684
49698,36843,14642
49800,36960,14589
49885,37064,14534
49950,37154,14477
49973,37231,14409
49965,37303,14338
49978,37367,14268
50025,37421,14192
50094,37469,14110
50201,37515,14032
50381,37556,13963
50630,37593,13898
50911,37620,13835
51207,37634,13772
51514,37637,13708
51802,37635,13641
52022,37634,13575
52167,37641,13510
52257,37656,13443
52277,37677,13379
52204,37705,13324
52069,37740,13275
51920,37781,13220
51764,37823,13155
51602,37857,13079
51471,37883,12993
51398,37905,12892
51372,37920,12774
51377,37930,12648
51414,37936,12529
51482,37938,12422
51552,37934,12322
51597,37926,12231
51619,37921,12156
51611,37919,12093
51545,37916,12031
51419,37907,11968
51271,37895,11909
51133,37882,11856
51000,37861,11809
50878,37829,11770
50808,37790,11733
50801,37741,11690
50834,37682,11641
50892,37618,11588
50979,37552,11534
51075,37486,11484
51142,37423,11447
51164,37369,11418
51152,37326,11397
51105,37296,11382
51003,37273,11374
50864,37259,11364
50729,37257,11348
50596,37263,11323
50444,37271,11295
50296,37281,11269
50184,37292,11242
50097,37301,11213
50012,37312,11188
49935,37331,11175
49877,37361,11168
49822,37395,11157
49752,37421,11138
49674,37434,11115
49605,37441,11088
49543,37445,11045
49476,37446,10985
49422,37446,10916
49394,37439,10837
49378,37421,10743
49365,37396,10641
49370,37371,10537
49395,37349,10430
49412,37327,10320
49406,37302,10216
49405,37274,10129
49421,37240,10061
49429,37204,10018
49421,37174,10010
49420,37146,10042
49438,37117,10115
49466,37084,10230
49504,37044,10384
49572,36998,10564
49664,36947,10759
49751,36892,10969
49817,36841,11189
49872,36796,11407
49913,36755,11614
49913,36721,11811
49881,36696,12001
49850,36681,12178
49822,36672,12337
49780,36662,12477
49749,36647,12597
49761,36627,12688
49799,36600,12754
49843,36565,12802
49901,36525,12837
49989,36484,12855
50097,36444,12859
50200,36399,12859
50293,36348,12861
50372,36300,12866
50421,36262,12871
50425,36232,12882
50395,36206,12902
50344,36181,12927
50266,36154,12945
50162,36123,12955
50055,36092,12960
49960,36056,12956
49861,36011,12934
49748,35960,12899
49641,35910,12862
49557,35864,12822
49488,35823,12780
49436,35788,12750
49422,35760,12734
49442,35738,12733
49464,35716,12743
49479,35694,12760
49505,35673,12773
49526,35655,12780
49503,35639,12778
49435,35623,12760
49352,35607,12718
49253,35591,12651
49127,35575,12561
49004,35560,12452
48927,35549,12325
48894,35541,12185
48888,35538,12043
48921,35543,11906
49017,35562,11776
49164,35598,11650
49339,35651,11533
49547,35723,11435
49798,35810,11353
50069,35910,11281
50335,36022,11222
50590,36140,11179
50832,36264,11149
51042,36391,11122
51200,36515,11097
51315,36633,11084
51396,36743,11080
51441,36839,11074
51452,36922,11063
51464,36996,11045
51506,37065,11012
51566,37127,10957
51646,37182,10885
51774,37227,10802
51957,37265,10717
52161,37295,10633
52381,37315,10553
52643,37327,10478
52926,37331,10412
53162,37326,10361
53332,37317,10324
53469,37308,10296
53569,37302,10271
53603,37304,10247
53593,37312,10224
53587,37327,10202
53581,37349,10172
53551,37371,10133
53512,37392,10090
53491,37414,10040
53470,37437,9980
53423,37456,9916
53361,37474,9852
53312,37487,9788
53271,37498,9729
53218,37505,9684
53160,37511,9647
53119,37518,9610
53079,37525,9578
53008,37527,9556
52907,37522,9538
52780,37507,9519
52619,37482,9496
52424,37452,9471
52231,37421,9444
52065,37384,9411
51916,37335,9362
51784,37280,9300
51705,37225,9231
51692,37174,9158
51712,37127,9085
51750,37083,9013
51829,37048,8938
51946,37023,8859
52059,37007,8784
52148,36998,8719
52227,36993,8660
52283,36990,8608
52273,36989,8567
52177,36993,8539
52016,37002,8517
51802,37020,8503
51529,37043,8499
51223,37067,8497
50930,37091,8491
50673,37111,8477
50450,37124,8463
50271,37133,8447
50147,37135,8426
50072,37126,8407
50018,37109,8401
49975,37091,8418
49954,37074,8462
49936,37059,8533
49896,37038,8634
49845,37017,8767
49808,37003,8922
49766,36995,9088
49699,36989,9260
49622,36987,9437
49555,36984,9612
49481,36976,9777
49388,36958,9931
49296,36933,10080
49225,36901,10216
49170,36862,10329
49124,36818,10418
49111,36772,10490
49153,36732,10550
49232,36699,10598
49339,36674,10643
49497,36655,10692
49710,36644,10742
49937,36637,10790
50155,36633,10840
50383,36632,10887
50618,36635,10928
50820,36637,10965
50976,36636,11002
51101,36632,11040
51177,36625,11080
51168,36612,11122
51077,36593,11165
50938,36568,11202
50763,36534,11237
50546,36495,11275
50324,36454,11315
50151,36416,11350
50034,36381,11384
49960,36349,11419
49952,36324,11454
50035,36311,11481
50176,36310,11500
50325,36318,11512
50460,36330,11517
50577,36340,11511
50646,36346,11488
50633,36355,11445
50549,36369,11389
50426,36381,11321
50257,36391,11240
50049,36395,11153
49861,36396,11068
49742,36394,10984
49698,36392,10897
49736,36390,10813
49881,36391,10740
50141,36396,10679
50477,36403,10632
50855,36405,10607
51266,36396,10604
51683,36380,10617
52045,36356,10640
52312,36327,10670
52491,36296,10695
52577,36262,10704
52545,36223,10697
52412,36181,10669
52235,36138,10615
52045,36095,10543
51846,36055,10467
51670,36020,10395
51566,35991,10328
51546,35973,10274
51594,35965,10242
51709,35972,10231
51902,35997,10234
52150,36044,10246
52402,36111,10264
52659,36196,10283
52938,36300,10294
53202,36422,10297
53405,36555,10292
53548,36694,10275
53644,36839,10237
53678,36983,10176
53643,37123,10100
53566,37258,10017
53479,37385,9933
53383,37498,9851
53276,37596,9777
53186,37677,9716
53123,37745,9666
53058,37800,9625
52974,37843,9597
52894,37878,9585
52828,37909,9586
52757,37936,9598
52674,37963,9621
52605,37989,9650
52554,38012,9677
52498,38030,9697
52425,38046,9714
52335,38061,9721
52222,38077,9711
52064,38095,9688
51869,38110,9655
51668,38120,9608
51471,38123,9545
51268,38117,9472
51073,38104,9390
50921,38091,9301
50807,38082,9215
50707,38080,9145
50636,38084,9088
50611,38093,9039
50606,38107,9001
50583,38126,8978
50540,38144,8965
50483,38158,8955
50399,38162,8949
50264,38155,8946
50089,38138,8937
49898,38109,8911
49700,38070,8870
49491,38021,8818
49295,37965,8755
49136,37908,8682
49011,37853,8602
48913,37799,8525
48852,37751,8461
48831,37708,8409
48816,37667,8370
48786,37625,8350
48752,37587,8353
48713,37555,8373
48635,37529,8411
48507,37507,8474
48354,37491,8563
48187,37484,8670
47989,37490,8793
47766,37505,8932
47553,37532,9079
47366,37572,9228
47195,37622,9380
47045,37675,9533
46934,37730,9683
46862,37781,9830
46808,37830,9981
46764,37877,10132
46736,37922,10277
46721,37962,10421
46695,37995,10571
46652,38016,10725
46611,38024,10876
46577,38016,11017
46539,37990,11151
46494,37952,11280
46451,37905,11401
46403,37851,11502
46332,37793,11586
46249,37737,11660
46171,37687,11726
46087,37645,11778
45989,37609,11819
45897,37578,11858
45829,37561,11895
45768,37555,11925
45701,37552,11951
45655,37550,11980
45644,37544,12008
45645,37527,12039
45641,37498,12079
45642,37457,12127
45647,37409,12183
45641,37358,12246
45620,37306,12315
45609,37256,12385
45622,37214,12455
45651,37183,12530
45691,37167,12606
45760,37170,12677
45858,37181,12734
45972,37195,12771
46101,37210,12792
46261,37226,12797
46447,37237,12776
46638,37241,12733
46837,37233,12679
47066,37212,12625
47310,37181,12568
47528,37145,12510
47720,37107,12458
47900,37073,12416
48042,37040,12376
48119,37009,12341
48145,36980,12315
48151,36951,12298
48137,36923,12289
48098,36891,12288
48054,36854,12295
48029,36815,12307
48023,36772,12324
48027,36721,12344
48049,36657,12359
48100,36581,12363
48167,36494,12358
48238,36402,12347
48322,36308,12325
48424,36212,12292
48523,36114,12249
48607,36017,12205
48700,35925,12165
48809,35845,12126
48906,35778,12088
48980,35719,12056
49054,35662,12035
49135,35604,12018
49203,35549,11997
49256,35497,11982
49315,35448,11972
49390,35401,11952
49457,35353,11915
49505,35302,11865
49542,35252,11807
49562,35213,11729
49542,35193,11628
49477,35197,11520
49378,35230,11410
49252,35295,11297
49095,35388,11190
48917,35506,11098
48741,35644,11027
48577,35800,10981
48412,35964,10966
48251,36130,10977
48106,36291,11007
47975,36443,11049
47845,36578,11095
47724,36695,11135
47625,36797,11162
47535,36884,11169
47439,36961,11152
47349,37033,11110
47277,37104,11042
47206,37175,10955
47121,37247,10855
47046,37319,10742
46996,37394,10618
46953,37468,10493
46905,37535,10377
46861,37590,10272
46819,37629,10177
46757,37650,10091
46667,37655,10012
46567,37652,9942
46465,37646,9876
46351,37641,9815
46228,37637,9754
46120,37641,9691
46034,37656,9621
45951,37680,9550
45871,37712,9490
45804,37750,9446
45745,37790,9410
45685,37828,9380
45623,37857,9357
45575,37879,9338
45540,37896,9314
45501,37903,9280
45456,37897,9239
45417,37880,9187
45382,37857,9119
45334,37833,9041
45284,37810,8961
45250,37788,8888
45215,37766,8839
45158,37746,8821
45102,37724,8831
45068,37702,8869
45034,37679,8937
44974,37653,9031
44902,37625,9142
44832,37599,9262
44746,37573,9389
44629,37546,9519
44502,37521,9646
44387,37494,9774
44269,37459,9909
44142,37421,10055
44024,37384,10212
43929,37352,10382
43854,37323,10561
43795,37293,10747
43764,37259,10941
43768,37228,11137
43792,37205,11331
43822,37192,11528
43865,37188,11730
43914,37192,11921
43939,37198,12098
43928,37205,12273
43898,37212,12454
43844,37213,12626
43744,37204,12778
43606,37182,12915
43469,37148,13034
43339,37106,13123
43204,37056,13180
43089,37001,13223
43033,36952,13259
43037,36908,13284
43082,36870,13308
43174,36840,13345
43324,36821,13400
43503,36810,13466
43672,36801,13538
43831,36793,13624
43983,36785,13720
44101,36775,13814
44164,36757,13901
44186,36728,13987
44182,36694,14058
44148,36655,14101
44087,36607,14115
44034,36556,14110
44015,36507,14079
44027,36462,14019
44062,36423,13950
44133,36395,13884
44243,36374,13818
44367,36355,13753
44492,36334,13700
44623,36307,13656
44759,36273,13611
44885,36235,13568
44996,36194,13528
45108,36153,13489
45226,36116,13444
45336,36086,13396
45438,36067,13355
45551,36057,13321
45675,36051,13291
45781,36043,13270
45865,36032,13257
45946,36016,13248
46018,35995,13241
46061,35966,13233
46089,35927,13220
46130,35884,13194
46173,35850,13154
46200,35830,13111
46226,35825,13069
46272,35836,13027
46320,35859,12981
46349,35889,12939
46368,35924,12902
46393,35962,12869
46421,35994,12838
46443,36011,12811
46472,36012,12787
46524,36000,12762
46597,35978,12732
46679,35945,12697
46776,35906,12653
46895,35867,12593
47020,35829,12523
47139,35798,12450
47253,35773,12375
47361,35753,12297
47445,35739,12223
47498,35731,12159
47535,35732,12105
47566,35747,12063
47588,35772,12033
47606,35808,12009
47650,35863,11987
47729,35933,11962
47827,36020,11937
47944,36123,11911
48099,36240,11879
48282,36369,11841
48459,36504,11801
48625,36635,11760
48800,36755,11718
48965,36864,11678
49079,36959,11644
49153,37038,11617
49224,37100,11594
49286,37146,11573
49315,37179,11552
49333,37205,11537
49376,37232,11528
49428,37261,11522
49468,37286,11521
49513,37309,11529
49577,37334,11544
49631,37359,11560
49647,37379,11575
49635,37400,11586
49607,37420,11589
49543,37437,11581
49435,37449,11559
49314,37461,11523
49203,37481,11467
49090,37510,11392
48978,37546,11302
48902,37588,11204
48875,37638,11100
48865,37691,10996
48859,37742,10899
48884,37791,10813
48934,37832,10737
48950,37859,10669
48914,37875,10610
48863,37880,10558
48804,37870,10511
48712,37845,10475
48605,37810,10453
48532,37772,10443
48499,37741,10448
48481,37721,10473
48495,37711,10519
48577,37710,10584
48703,37716,10669
48829,37723,10775
48961,37727,10900
49115,37724,11034
49254,37711,11178
49328,37683,11337
49336,37644,11509
49299,37596,11690
49197,37542,11879
49011,37483,12079
48764,37426,12289
48492,37383,12501
48207,37361,12704
47917,37364,12898
47655,37385,13083
47448,37419,13255
47293,37455,13408
47182,37486,13541
47126,37508,13651
47136,37517,13733
47189,37508,13783
47261,37482,13807
47365,37443,13816
47503,37395,13811
47648,37342,13793
47784,37287,13774
47925,37234,13764
48066,37190,13752
48184,37156,13735
48278,37131,13727
48383,37117,13732
48505,37106,13741
48619,37089,13752
48735,37063,13775
48885,37027,13809
49066,36979,13839
49244,36921,13857
49417,36851,13869
49607,36777,13871
49802,36708,13849
49969,36650,13806
50116,36602,13751
50268,36566,13685
50409,36541,13606
50507,36521,13523
50563,36507,13446
50594,36499,13379
50592,36489,13318
50537,36470,13264
50431,36439,13225
50301,36398,13202
50163,36354,13186
50025,36313,13175
49919,36276,13166
49875,36246,13150
49885,36228,13119
49940,36224,13077
50060,36231,13024
50241,36246,12956
50431,36263,12880
50602,36278,12805
50768,36288,12736
50915,36291,12672
50998,36287,12615
50997,36272,12572
50935,36250,12546
50822,36225,12530
50646,36199,12521
50419,36175,12525
50175,36159,12536
49933,36151,12547
49704,36149,12554
49513,36154,12556
49393,36167,12546
49346,36185,12522
49352,36199,12489
49412,36199,12452
49543,36186,12409
49711,36164,12359
49862,36140,12307
49997,36110,12255
50125,36078,12199
50216,36047,12137
50234,36018,12071
50185,35990,12003
50091,35964,11925
49952,35940,11837
49761,35921,11747
49540,35912,11660
49323,35912,11576
49125,35917,11501
48957,35927,11439
48852,35948,11385
48832,35988,11335
48868,36051,11292
48931,36136,11252
49025,36242,11208
49153,36367,11150
49284,36507,11077
49398,36655,10990
49500,36803,10887
49589,36954,10770
49633,37103,10647
49617,37242,10523
49560,37369,10401
49468,37480,10288
49323,37570,10192
49126,37637,10114
48911,37687,10053
48700,37721,10012
48484,37739,9991
48280,37747,9981
48136,37748,9973
48062,37747,9962
48037,37746,9950
48059,37744,9927
48137,37747,9889
48255,37754,9843
48367,37763,9794
48443,37773,9739
48485,37788,9680
48471,37810,9622
48371,37832,9574
48187,37853,9534
47957,37875,9499
47702,37902,9477
47439,37930,9473
47218,37954,9481
47084,37977,9505
47043,38000,9543
47089,38023,9591
47233,38044,9641
47473,38061,9698
47763,38071,9768
48051,38068,9851
48318,38053,9950
48548,38032,10070
48704,38007,10221
48756,37979,10406
48726,37955,10624
48635,37934,10869
48478,37912,11138
48280,37889,11432
48101,37868,11744
47977,37845,12054
47890,37818,12350
47840,37783,12631
47865,37744,12885
47964,37706,13089
48091,37673,13233
48227,37647,13331
48390,37627,13387
48562,37611,13408
48703,37601,13407
48815,37599,13399
48925,37603,13391
49026,37607,13389
49092,37607,13398
49127,37600,13421
49151,37585,13455
49164,37559,13502
49148,37527,13568
49118,37496,13646
49101,37470,13724
49088,37450,13806
49069,37432,13896
49073,37415,13988
49128,37402,14073
49210,37392,14146
49295,37385,14212
49400,37376,14276
49535,37365,14330
49669,37347,14367
49770,37323,14389
49842,37296,14400
49882,37266,14393
49868,37233,14366
49795,37195,14332
49690,37153,14295
49583,37114,14246
49471,37080,14188
49356,37052,14137
49271,37032,14094
49229,37015,14047
49207,36997,13998
49198,36973,13955
49235,36941,13916
49324,36905,13875
49432,36867,13827
49545,36824,13766
49678,36780,13686
49822,36739,13587
49940,36703,13474
50022,36669,13352
50076,36640,13226
50091,36619,13099
50039,36604,12982
49923,36593,12878
49774,36585,12783
49606,36576,12697
49419,36561,12634
49239,36541,12596
49099,36518,12572
48988,36496,12553
48887,36474,12543
48813,36454,12545
48782,36437,12549
48774,36429,12543
48767,36430,12521
48760,36442,12482
48755,36461,12412
48744,36480,12307
48712,36488,12182
48669,36487,12050
48636,36477,11902
48606,36460,11738
48581,36435,11578
48599,36406,11435
48677,36379,11310
48792,36358,11204
48935,36340,11120
49132,36327,11057
49373,36320,11011
49601,36315,10979
49782,36307,10953
49923,36294,10923
50017,36276,10882
50034,36252,10834
49974,36215,10776
49858,36166,10705
49702,36112,10625
49507,36060,10541
49294,36013,10457
49105,35977,10375
48956,35956,10297
48836,35955,10226
48750,35977,10167
48715,36028,10121
48714,36110,10086
48720,36217,10068
48734,36344,10067
48777,36491,10073
48832,36652,10078
48877,36816,10078
48930,36977,10076
49013,37131,10063
49104,37275,10029
49175,37402,9971
49247,37516,9895
49334,37624,9800
49405,37725,9694
49423,37811,9593
49392,37882,9504
49326,37939,9424
49215,37983,9359
49054,38011,9316
48877,38025,9294
48721,38033,9290
48584,38036,9301
48474,38032,9317
48428,38023,9325
48457,38016,9325
48513,38014,9321
48574,38013,9306
48661,38012,9275
48755,38010,9236
48790,38005,9203
48747,37998,9176
48656,37992,9154
48525,37980,9147
48349,37962,9166
48151,37940,9220
47980,37924,9308
47855,37922,9430
47759,37935,9584
47696,37959,9762
47682,37987,9953
47696,38020,10147
47692,38054,10349
47670,38090,10558
47645,38127,10764
47595,38157,10957
47498,38174,11132
47380,38177,11284
47272,38172,11408
47175,38161,11507
47085,38140,11587
47017,38110,11647
46989,38079,11689
46981,38050,11719
46979,38026,11743
47002,38008,11761
47059,37999,11782
47113,37991,11812
47139,37980,11851
47160,37965,11889
47185,37950,11920
47200,37934,11946
47203,37912,11972
47221,37888,11998
47278,37865,12014
47376,37847,12019
47526,37835,12022
47749,37829,12020
48034,37829,12007
48345,37837,11985
48659,37850,11968
48977,37863,11958
49273,37872,11950
49495,37876,11946
49637,37876,11950
49723,37873,11960
49742,37865,11968
49674,37850,11976
49546,37831,11984
49405,37810,11985
49273,37788,11975
49161,37763,11948
49094,37731,11897
49094,37694,11821
49153,37658,11725
49235,37623,11615
49319,37591,11502
49396,37563,11387
49440,37542,11273
49425,37528,11171
49363,37523,11093
49273,37525,11032
49150,37527,10983
48995,37520,10952
48853,37506,10940
48752,37487,10935
48671,37462,10931
48595,37432,10928
48550,37397,10917
48538,37360,10888
48529,37325,10841
48495,37287,10781
48446,37244,10708
48384,37198,10630
48293,37152,10554
48176,37110,10484
48061,37078,10417
47966,37055,10358
47884,37037,10311
47817,37027,10277
47780,37029,10255
47768,37041,10247
47747,37054,10254
47709,37060,10268
47668,37061,10280
47611,37061,10282
47508,37057,10275
47374,37040,10260
47235,37009,10235
47079,36967,10196
46892,36920,10151
46693,36873,10112
46509,36831,10078
46342,36795,10047
46187,36761,10023
46055,36730,10003
45961,36706,9981
45901,36690,9957
45862,36675,9925
45843,36655,9875
45845,36628,9809
45845,36599,9733
45820,36571,9648
45787,36538,9554
45755,36501,9459
45700,36460,9373
45601,36418,9304
45487,36381,9252
45368,36355,9208
45222,36336,9170
45042,36326,9144
44856,36330,9127
44680,36349,9111
44506,36380,9096
44342,36421,9081
44213,36473,9060
44130,36536,9031
44089,36612,8997
44090,36696,8956
44145,36793,8906
44248,36910,8852
44360,37046,8796
44464,37196,8735
44564,37355,8661
44636,37519,8578
44641,37681,8492
44574,37834,8403
44452,37981,8303
44277,38115,8190
44049,38231,8066
43791,38324,7939
43543,38401,7808
43327,38468,7680
43151,38524,7566
43032,38564,7469
42987,38591,7392
42999,38611,7339
43037,38628,7316
43099,38642,7318
43187,38657,7345
43262,38671,7398
43291,38681,7472
43284,38691,7559
43260,38705,7657
43211,38719,7771
43141,38729,7897
43079,38735,8031
43050,38746,8169
43054,38765,8312
43089,38791,8463
43166,38823,8620
43285,38860,8777
43427,38899,8933
43582,38934,9093
43754,38967,9259
43931,38998,9429
44080,39024,9603
44190,39041,9776
44274,39045,9942
44330,39034,10093
44335,39014,10222
44308,38983,10321
44289,38942,10381
44280,38893,10409
44274,38835,10414
44286,38773,10398
44339,38709,10367
44429,38645,10335
44537,38582,10314
44656,38520,10312
44787,38461,10333
44925,38414,10376
45048,38378,10442
45152,38347,10530
45244,38319,10627
45309,38299,10722
45334,38285,10817
45340,38277,10908
45347,38279,10982
45339,38287,11032
45311,38291,11070
45300,38293,11100
45327,38293,11111
45389,38292,11104
45479,38289,11090
45598,38283,11074
45740,38276,11061
45880,38266,11054
45997,38252,11051
46090,38231,11041
46156,38208,11025
46179,38182,11007
46159,38153,10980
46111,38123,10937
46041,38091,10873
45940,38056,10792
45814,38015,10699
45686,37971,10599
45556,37925,10498
45401,37881,10412
45223,37835,10349
45048,37789,10306
44879,37745,10281
44704,37703,10280
44538,37660,10301
44406,37622,10333
44310,37592,10367
44241,37569,10398
44207,37547,10425
44221,37527,10438
44276,37506,10430
44349,37481,10409
44430,37450,10379
44521,37417,10333
44606,37383,10274
44661,37345,10218
44683,37305,10170
44685,37263,10121
44650,37222,10069
44571,37183,10027
44478,37150,10001
44400,37126,9988
44326,37106,9985
44258,37089,9991
44227,37077,10001
44242,37068,10008
44279,37064,10006
44328,37062,9991
44399,37057,9961
44485,37051,9918
44553,37045,9867
44582,37035,9807
44582,37020,9740
44550,37008,9673
44470,36999,9609
44348,36993,9544
44213,36992,9478
44080,36994,9415
43954,36999,9357
43848,37002,9302
43790,37001,9247
43789,36998,9197
43825,36993,9153
43896,36982,9111
44012,36960,9064
44165,36925,9017
44325,36876,8983
44488,36819,8962
44661,36758,8949
44817,36699,8942
44926,36637,8936
44999,36574,8925
45052,36514,8905
45071,36467,8876
45049,36433,8835
45019,36407,8778
45006,36386,8711
44992,36372,8649
44960,36367,8598
44928,36372,8556
44913,36385,8526
44897,36404,8507
44864,36430,8495
44819,36461,8487
44767,36501,8484
44690,36558,8489
44576,36636,8493
44441,36734,8489
44304,36853,8476
44165,36990,8462
44034,37139,8445
43927,37300,8426
43854,37469,8407
43814,37637,8395
43804,37792,8397
43824,37929,8410
43862,38042,8434
43900,38133,8470
43935,38198,8517
43978,38239,8573
44025,38263,8637
44059,38277,8710
44081,38289,8789
44110,38306,8873
44143,38328,8964
44166,38355,9066
44186,38387,9183
44220,38423,9316
44253,38461,9460
44265,38496,9611
44272,38525,9766
44295,38546,9916
44323,38565,10051
44345,38582,10169
44388,38596,10271
44481,38610,10354
44615,38623,10416
44781,38636,10463
44993,38651,10494
45253,38665,10510
45535,38681,10520
45809,38697,10529
46073,38712,10539
46323,38723,10548
46541,38728,10561
46720,38718,10584
46875,38696,10617
47018,38666,10652
47141,38626,10689
47242,38573,10727
47339,38517,10756
47436,38464,10765
47515,38420,10757
47571,38384,10737
47623,38356,10705
47669,38338,10663
47695,38328,10619
47699,38325,10581
47699,38330,10553
47695,38338,10533
47668,38344,10528
47617,38344,10540
47559,38338,10566
47494,38329,10595
47408,38319,10626
47318,38307,10657
47248,38294,10680
47194,38280,10684
47147,38265,10672
47130,38252,10639
47169,38246,10578
47250,38248,10486
47351,38258,10372
47485,38272,10244
47659,38286,10098
47841,38301,9942
47998,38316,9797
48134,38329,9671
48252,38341,9561
48321,38345,9468
48319,38337,9399
48264,38313,9361
48178,38275,9346
48065,38226,9352
47941,38172,9381
47839,38120,9424
47782,38076,9468
47760,38044,9512
47766,38020,9562
47804,37999,9613
47860,37985,9659
47901,37975,9698
47913,37967,9735
47904,37964,9765
47869,37965,9781
47793,37961,9779
47686,37944,9762
47573,37916,9722
47448,37882,9654
47283,37847,9565
47081,37811,9467
46876,37771,9364
46672,37731,9256
46464,37695,9149
46280,37662,9052
46154,37637,8962
46074,37615,8881
46009,37594,8815
45965,37576,8764
45953,37562,8721
45938,37549,8683
45889,37534,8650
45817,37511,8619
45739,37478,8579
45641,37438,8527
45518,37390,8462
45391,37330,8384
45284,37260,8299
45186,37182,8214
45085,37099,8133
44998,37017,8059
44936,36942,7998
44885,36875,7953
44829,36815,7923
44778,36766,7907
44731,36730,7904
44667,36705,7909
44570,36686,7914
44455,36673,7914
44336,36666,7911
44203,36659,7903
44058,36645,7888
43925,36626,7863
43811,36605,7831
43700,36587,7796
43593,36576,7758
43509,36573,7717
43434,36582,7680
43335,36605,7653
43211,36645,7636
43086,36705,7630
42951,36780,7637
42790,36863,7653
42622,36947,7676
42479,37034,7699
42358,37126,7718
42242,37222,7732
42146,37323,7742
42087,37429,7744
42057,37548,7736
42044,37679,7721
42054,37820,7695
42093,37969,7656
42154,38119,7609
42221,38260,7565
42297,38389,7528
42383,38506,7495
42467,38605,7474
42537,38681,7481
42607,38729,7518
42684,38754,7577
42757,38762,7660
42823,38758,7779
42897,38746,7929
42983,38731,8096
43068,38717,8274
43151,38706,8461
43249,38699,8644
43362,38699,8812
43466,38700,8961
43565,38696,9091
43679,38681,9197
43807,38660,9284
43920,38635,9359
44013,38604,9422
44102,38569,9475
44177,38538,9526
44213,38512,9582
44217,38494,9641
44218,38490,9704
44209,38498,9776
44172,38510,9858
44126,38521,9950
44099,38528,10047
44082,38531,10149
44055,38522,10251
44030,38496,10347
44025,38456,10435
44027,38408,10517
44023,38353,10587
44021,38295,10638
44034,38243,10666
44057,38201,10677
44078,38169,10674
44101,38145,10660
44129,38123,10646
44147,38107,10643
44137,38096,10660
44103,38087,10697
44052,38084,10755
43979,38086,10833
43887,38090,10924
43796,38097,11019
43721,38110,11110
43657,38131,11192
43606,38154,11260
43583,38174,11310
43586,38194,11343
43595,38213,11362
43601,38227,11366
43617,38232,11347
43635,38228,11310
43628,38212,11264
43594,38185,11213
43556,38152,11158
43508,38119,11107
43429,38085,11064
43332,38053,11029
43243,38026,10999
43158,38008,10972
43069,37995,10945
42996,37986,10920
42969,37980,10900
42981,37978,10885
43018,37974,10877
43089,37965,10872
43202,37951,10860
43329,37928,10834
43438,37896,10798
43522,37852,10751
43585,37796,10684
43603,37737,10598
43556,37683,10507
43451,37633,10417
43302,37590,10328
43110,37556,10245
42881,37527,10181
42650,37502,10140
42449,37482,10112
42284,37469,10094
42158,37461,10087
42092,37456,10083
42093,37452,10067
42137,37448,10032
42203,37442,9981
42297,37436,9913
42415,37429,9827
42525,37414,9719
42613,37396,9593
42695,37380,9458
42767,37366,9321
42794,37357,9186
42778,37351,9057
42741,37351,8936
42678,37357,8828
42571,37373,8741
42434,37397,8680
42300,37429,8644
42168,37467,8628
42029,37507,8628
41897,37543,8636
41793,37573,8646
41712,37598,8657
41638,37610,8666
41573,37606,8668
41532,37587,8652
41519,37560,8626
41521,37528,8603
41538,37491,8586
41577,37452,8575
41624,37416,8572
41663,37383,8585
41705,37361,8609
41753,37354,8630
41781,37364,8639
41774,37385,8643
41753,37420,8637
41736,37465,8608
41708,37519,8558
41665,37584,8499
41635,37657,8437
41628,37742,8373
41628,37838,8313
41635,37943,8263
41669,38056,8222
41737,38178,8182
41816,38303,8146
41906,38423,8122
42021,38535,8098
42155,38640,8066
42296,38738,8030
42447,38829,7994
42627,38913,7952
42830,38992,7900
43036,39065,7843
43235,39129,7787
43429,39186,7726
43603,39239,7665
43731,39291,7612
43807,39338,7573
43841,39374,7548
43831,39400,7543
43772,39418,7567
43694,39431,7619
43637,39440,7690
43606,39445,7776
43598,39442,7876
43632,39436,7986
43725,39432,8100
43848,39426,8213
43970,39419,8315
44091,39411,8400
44218,39405,8468
44326,39410,8524
44388,39426,8562
44417,39447,8577
44428,39471,8581
44420,39496,8578
44394,39520,8568
44369,39542,8555
44363,39562,8549
44367,39579,8550
44376,39590,8557
44401,39589,8564
44441,39577,8574
44473,39555,8587
44484,39525,8594
44480,39485,8588
44464,39434,8574
44427,39380,8557
44377,39330,8536
44339,39290,8514
44321,39258,8502
44303,39232,8500
44286,39212,8504
44292,39201,8520
44316,39197,8553
44333,39196,8587
44347,39194,8606
44380,39187,8608
44415,39176,8591
44428,39166,8547
44435,39159,8471
44461,39154,8366
44493,39154,8237
44505,39159,8090
44500,39167,7935
44491,39180,7786
44464,39200,7654
44405,39223,7539
44330,39245,7434
44261,39268,7342
44193,39293,7268
44120,39317,7214
44060,39337,7170
44024,39348,7131
43996,39353,7093
43961,39350,7058
43930,39335,7027
43908,39306,6998
43875,39265,6979
43817,39213,6976
43752,39160,6987
43694,39113,7009
43633,39070,7045
43568,39027,7095
43518,38989,7148
43477,38961,7198
43413,38941,7239
43321,38921,7270
43225,38901,7285
43125,38883,7283
43003,38866,7276
42868,38850,7268
42752,38838,7256
42650,38829,7249
42545,38816,7254
42450,38800,7264
42387,38783,7264
42345,38766,7253
42310,38743,7236
42292,38710,7212
42307,38666,7176
42345,38617,7130
42381,38569,7075
42407,38521,7013
42423,38476,6947
42411,38440,6880
42356,38411,6810
42261,38389,6733
42140,38376,6649
41999,38369,6567
41850,38365,6490
41721,38359,6420
41630,38353,6360
41568,38351,6317
41531,38351,6292
41532,38346,6278
41572,38333,6269
41625,38314,6268
41675,38288,6273
41741,38257,6281
41821,38226,6289
41887,38195,6295
41930,38164,6291
41968,38136,6266
42001,38113,6218
42006,38097,6148
41992,38084,6053
41991,38071,5931
42016,38058,5794
42059,38047,5656
42132,38036,5521
42255,38022,5396
42426,38006,5294
42619,37989,5221
42821,37975,5172
43029,37972,5139
43225,37989,5114
43383,38028,5091
43503,38090,5064
43601,38169,5022
43682,38263,4960
43740,38375,4882
43784,38498,4788
43829,38627,4682
43874,38761,4575
43913,38896,4478
43956,39027,4396
44011,39154,4331
44067,39269,4291
44113,39372,4285
44163,39461,4308
44224,39537,4353
44283,39601,4421
44328,39653,4515
44369,39692,4624
44412,39723,4736
44442,39754,4849
44457,39786,4970
44479,39817,5098
44510,39851,5225
44529,39887,5351
44533,39920,5478
44544,39953,5596
44557,39988,5699
44548,40021,5787
44522,40048,5856
44504,40074,5896
44495,40100,5905
44478,40127,5894
44462,40154,5871
44481,40181,5835
44531,40207,5788
44583,40235,5746
44639,40261,5715
44718,40288,5699
44800,40317,5706
44849,40345,5746
44864,40371,5813
44859,40393,5891
44813,40410,5973
44700,40420,6059
44541,40422,6144
44364,40411,6217
44167,40392,6279
43946,40369,6335
43741,40338,6385
43586,40297,6427
43474,40251,6464
43397,40203,6504
43367,40154,6547
43395,40109,6587
43459,40071,6631
43537,40035,6687
43628,40008,6740
43725,39993,6779
43804,39989,6809
43852,39991,6833
43887,39997,6844
43915,40007,6839
43920,40022,6827
43901,40037,6810
43879,40044,6787
43857,40042,6759
43829,40032,6740
43794,40011,6729
43770,39981,6716
43763,39944,6702
43765,39897,6698
43773,39846,6707
43799,39800,6726
43840,39767,6752
43872,39747,6787
43886,39738,6824
43896,39734,6858
43895,39732,6889
43866,39735,6904
43819,39737,6896
43778,39732,6869
43744,39719,6831
43702,39693,6783
43656,39656,6725
43618,39610,6663
43587,39558,6605
43551,39501,6557
43519,39444,6524
43504,39392,6511
43492,39350,6523
43468,39321,6551
43452,39298,6585
43452,39277,6620
43443,39262,6651
43399,39250,6669
43338,39235,6664
43275,39213,6637
43192,39180,6592
43086,39138,6530
42984,39091,6454
42899,39044,6372
42824,39002,6288
42761,38965,6212
42731,38933,6148
42734,38907,6101
42744,38893,6076
42756,38889,6072
42787,38892,6083
42837,38897,6103
42879,38901,6124
42907,38901,6142
42940,38893,6147
42967,38877,6136
42962,38856,6108
42934,38827,6058
42908,38794,5985
42874,38762,5900
42813,38735,5813
42744,38710,5728
42698,38687,5653
42674,38670,5594
42660,38660,5558
42675,38656,5546
42733,38654,5547
42815,38654,5558
42896,38648,5579
42983,38635,5603
43087,38621,5618
43191,38607,5622
43284,38593,5622
43380,38578,5614
43490,38560,5593
43602,38539,5560
43710,38514,5525
43835,38481,5492
43984,38440,5459
44130,38395,5429
44251,38349,5404
44364,38306,5379
44471,38274,5354
44552,38256,5332
44605,38254,5309
44656,38273,5275
44711,38321,5232
44749,38397,5196
44774,38494,5174
44816,38604,5160
44870,38723,5156
44903,38850,5177
44915,38980,5228
44928,39105,5304
44936,39222,5402
44920,39329,5516
44894,39424,5639
44884,39508,5761
44884,39584,5881
44877,39658,5993
44879,39730,6095
44908,39796,6189
44951,39864,6280
44988,39936,6371
45026,40008,6462
45073,40076,6562
45116,40139,6676
45136,40189,6805
45142,40225,6945
45146,40251,7095
45137,40269,7253
45106,40281,7412
45068,40284,7558
45038,40282,7686
45010,40282,7795
44979,40290,7879
44957,40307,7936
44953,40333,7965
44955,40369,7969
44957,40410,7945
44970,40455,7898
44994,40502,7844
45012,40551,7794
45021,40596,7745
45034,40633,7705
45048,40660,7686
45042,40680,7689
45008,40691,7712
44968,40688,7753
44928,40671,7819
44874,40647,7903
44814,40617,7995
44773,40583,8090
44754,40551,8190
44734,40520,8285
44714,40491,8364
44712,40462,8424
44711,40437,8471
44682,40418,8508
44633,40402,8528
44589,40386,8536
44538,40365,8540
44462,40336,8541
44380,40303,8534
44311,40272,8522
44239,40240,8514
44154,40203,8507
44065,40162,8497
43979,40119,8478
43886,40080,8451
43775,40048,8422
43654,40023,8385
43537,40009,8331
43424,40006,8270
43316,40013,8213
43228,40027,8155
43166,40043,8091
43122,40054,8029
43095,40055,7971
43097,40041,7914
43127,40011,7863
43157,39970,7824
43176,39922,7793
43198,39867,7760
43219,39810,7724
43210,39753,7695
43167,39701,7667
43111,39660,7630
43046,39632,7582
42958,39613,7529
42850,39594,7467
42745,39572,7404
42652,39545,7346
42563,39516,7290
42474,39486,7235
42401,39454,7186
42343,39424,7154
42279,39402,7137
42212,39383,7128
42158,39361,7123
42105,39337,7118
42038,39311,7106
41969,39284,7074
41921,39259,7019
41882,39238,6941
41839,39225,6839
41814,39216,6712
41824,39205,6565
41842,39195,6415
41844,39192,6273
41845,39190,6145
41858,39184,6038
41868,39176,5957
41860,39166,5903
41850,39156,5870
41844,39149,5853
41824,39143,5844
41783,39135,5835
41738,39124,5818
41699,39116,5787
41652,39117,5740
41595,39122,5679
41542,39127,5603
41503,39134,5517
41477,39144,5429
41476,39157,5348
41524,39170,5276
41626,39181,5217
41757,39183,5175
41899,39174,5152
42054,39150,5149
42207,39114,5162
42323,39077,5189
42395,39044,5221
42435,39019,5246
42440,39003,5260
42394,38996,5268
42323,38994,5267
42265,38993,5250
42222,38990,5216
42181,38982,5173
42167,38969,5119
42198,38949,5056
42257,38925,4990
42320,38898,4929
42401,38866,4872
42510,38832,4816
42625,38796,4767
42726,38757,4734
42829,38720,4716
42944,38691,4711
43052,38674,4724
43135,38672,4759
43203,38684,4813
43263,38709,4879
43303,38751,4954
43317,38809,5035
43320,38875,5112
43326,38947,5180
43334,39024,5249
43351,39103,5325
43392,39186,5411
43455,39277,5513
43528,39372,5640
43605,39468,5789
43694,39564,5949
43788,39659,6115
43862,39759,6287
43905,39862,6454
43930,39963,6608
43934,40062,6748
43900,40157,6873
43840,40245,6979
43780,40324,7068
43718,40395,7148
43643,40454,7225
43571,40500,7307
43528,40531,7400
43504,40549,7511
43480,40557,7637
43464,40558,7772
43464,40551,7907
43467,40541,8041
43462,40534,8173
43450,40531,8296
43433,40540,8404
43397,40558,8496
43337,40584,8575
43267,40618,8645
43203,40659,8707
43140,40706,8763
43073,40759,8816
43024,40811,8866
43009,40858,8913
43005,40899,8958
42993,40933,9008
42986,40953,9063
42984,40956,9115
42957,40945,9158
42895,40921,9189
42830,40891,9205
42771,40860,9205
42695,40831,9185
42597,40803,9146
42494,40779,9091
42391,40762,9030
42277,40754,8969
42160,40753,8913
42065,40753,8867
42002,40750,8835
41959,40746,8813
41934,40738,8792
41941,40723,8770
41971,40700,8746
41996,40665,8720
42014,40618,8692
42034,40567,8661
42036,40522,8632
41991,40488,8612
41915,40464,8601
41838,40452,8601
41752,40454,8619
41647,40468,8654
41544,40490,8698
41462,40511,8750
41393,40525,8809
41324,40531,8861
41260,40527,8894
41210,40513,8903
41167,40490,8894
41125,40458,8878
41096,40420,8857
41084,40384,8836
41069,40357,8819
41044,40340,8809
41025,40327,8802
41021,40319,8802
41013,40319,8811
40992,40327,8825
40979,40340,8833
40986,40355,8830
40992,40368,8815
40992,40378,8783
41002,40381,8723
41023,40378,8636
41038,40365,8532
41044,40340,8420
41053,40303,8298
41063,40257,8178
41056,40212,8078
41031,40171,8006
41007,40131,7956
40990,40094,7929
40969,40061,7932
40947,40034,7954
40941,40012,7976
40958,39995,7994
40985,39982,8010
41028,39971,8007
41103,39965,7971
41198,39962,7907
41295,39962,7824
41400,39959,7722
41526,39950,7601
41656,39936,7473
41768,39920,7355
41881,39905,7248
42012,39893,7156
42140,39883,7094
42249,39876,7065
42358,39870,7056
42485,39865,7059
42619,39864,7078
42748,39866,7103
42877,39867,7114
43008,39866,7103
43121,39865,7079
43205,39864,7042
43269,39861,6985
43312,39858,6914
43322,39855,6847
43304,39848,6792
43274,39835,6750
43238,39819,6723
43192,39794,6720
43147,39758,6740
43124,39714,6773
43127,39669,6811
43138,39626,6858
43154,39585,6905
43187,39542,6936
43241,39497,6951
43297,39452,6963
43352,39414,6975
43417,39382,6980
43487,39358,6982
43545,39338,6992
43585,39316,7010
43614,39297,7039
43627,39284,7094
43612,39274,7192
43580,39262,7331
43543,39250,7509
43497,39241,7729
43437,39237,7982
43385,39232,8247
43359,39223,8504
43342,39216,8743
43324,39217,8945
43317,39227,9088
43324,39252,9162
43317,39296,9179
43280,39356,9147
43232,39432,9075
43183,39525,8983
43115,39634,8907
43026,39758,8864
42945,39891,8854
42882,40029,8885
42819,40167,8966
42756,40297,9089
42726,40410,9234
42741,40505,9386
42785,40585,9540
42850,40650,9679
42946,40705,9788
43061,40759,9863
43165,40810,9907
43249,40853,9919
43317,40891,9896
43358,40930,9853
43355,40968,9808
43314,41005,9763
43262,41036,9713
43214,41060,9666
43168,41078,9639
43129,41090,9626
43113,41093,9612
43117,41088,9605
43126,41078,9616
43144,41069,9640
43176,41065,9663
43206,41068,9683
43211,41078,9699
43199,41098,9694
43183,41124,9651
43149,41156,9569
43083,41190,9450
43002,41220,9287
42919,41244,9084
42815,41263,8875
42683,41275,8683
42545,41273,8512
42417,41258,8371
42285,41234,8292
42150,41199,8288
42036,41160,8342
41957,41125,8437
41901,41095,8573
41867,41070,8739
41875,41046,8904
41929,41023,9040
42003,41005,9144
42086,40990,9203
42181,40973,9199
42268,40954,9134
42321,40935,9034
42338,40909,8914
42333,40875,8779
42308,40840,8647
42259,40806,8544
42202,40772,8471
42171,40735,8418
42174,40697,8393
42197,40666,8404
42237,40642,8436
42296,40625,8475
42357,40612,8518
42396,40603,8558
42410,40599,8575
42405,40601,8551
42370,40604,8487
42293,40601,8388
42193,40590,8256
42096,40572,8099
41994,40555,7936
41879,40539,7789
41780,40522,7670
41718,40499,7589
41673,40471,7549
41636,40439,7549
41635,40405,7580
41678,40367,7632
41741,40328,7700
41813,40288,7763
41913,40249,7797
42041,40214,7794
42170,40182,7759
42300,40150,7688
42453,40117,7583
42622,40086,7459
42777,40059,7344
42910,40035,7251
43035,40006,7178
43155,39970,7135
43263,39930,7136
43369,39889,7179
43493,39848,7245
43635,39802,7324
43782,39748,7415
43939,39686,7503
44123,39617,7565
44322,39548,7589
44509,39485,7577
44682,39436,7521
44850,39400,7416
45001,39379,7279
45115,39374,7130
45195,39384,6975
45256,39402,6820
45287,39423,6686
45276,39441,6586
45251,39450,6520
45247,39453,6484
45251,39452,6491
45246,39442,6543
45256,39422,6625
45299,39398,6724
45352,39370,6849
45405,39343,6999
45480,39317,7161
45580,39298,7329
45669,39284,7511
45729,39276,7712
45778,39271,7923
45816,39269,8137
45819,39268,8359
45775,39265,8585
45702,39255,8804
45609,39239,9013
45487,39216,9212
45343,39184,9392
45209,39143,9545
45098,39101,9673
45003,39068,9784
44939,39044,9875
44930,39023,9947
44969,39008,10010
45023,38999,10083
45087,38992,10164
45176,38981,10244
45262,38969,10324
45308,38956,10408
45319,38939,10494
45316,38920,10575
45286,38901,10650
45213,38883,10715
45130,38871,10762
45071,38872,10789
45031,38889,10803
44999,38930,10812
44995,38998,10816
45038,39090,10824
45102,39206,10841
45155,39339,10862
45204,39482,10884
45252,39627,10909
45274,39777,10928
45254,39926,10923
45214,40068,10888
45163,40198,10828
45077,40313,10743
44950,40408,10635
44812,40486,10514
44682,40547,10395
44544,40600,10283
44400,40648,10176
44279,40695,10075
44192,40740,9990
44115,40781,9920
44052,40814,9864
44024,40841,9818
44024,40864,9776
44020,40881,9721
44010,40890,9639
44011,40893,9527
44008,40892,9392
43972,40894,9245
43907,40906,9098
43840,40924,8967
43768,40946,8863
43677,40971,8794
43579,40998,8763
43494,41024,8775
43424,41050,8823
43352,41073,8891
43282,41090,8963
43223,41099,9026
43166,41104,9070
43095,41102,9085
43023,41091,9072
42961,41070,9036
42901,41042,8978
42830,41009,8897
42769,40977,8799
42733,40943,8694
42708,40911,8589
42682,40883,8486
42671,40859,8396
42683,40836,8328
42691,40815,8280
42680,40795,8246
42663,40773,8231
42637,40746,8238
42572,40714,8258
42456,40679,8273
42317,40640,8273
42168,40597,8255
41994,40558,8217
41801,40527,8156
41625,40506,8080
41475,40495,8003
41338,40493,7929
41218,40497,7860
41136,40508,7808
41087,40528,7782
41052,40550,7772
41034,40563,7768
41045,40563,7765
41071,40547,7761
41089,40520,7746
41105,40484,7714
41135,40442,7665
41166,40399,7601
41188,40359,7526
41220,40323,7449
41285,40291,7380
41375,40266,7328
41474,40244,7306
41589,40222,7308
41727,40195,7325
41870,40163,7359
41997,40124,7402
42112,40078,7433
42220,40020,7442
42312,39957,7434
42380,39894,7408
42436,39835,7359
42491,39784,7290
42535,39743,7217
42560,39711,7144
42580,39688,7064
42602,39674,6980
42615,39665,6910
42620,39659,6859
42640,39649,6824
42678,39632,6809
42712,39608,6819
42747,39577,6853
42799,39536,6901
42864,39492,6963
42911,39448,7043
42940,39402,7130
42973,39361,7215
43007,39333,7303
43027,39319,7403
43048,39313,7510
43095,39310,7612
43162,39311,7707
43234,39318,7805
43328,39327,7902
43467,39335,7994
43635,39341,8085
43807,39344,8183
43987,39342,8280
44180,39337,8375
44363,39332,8477
44505,39325,8589
44595,39315,8708
44635,39303,8833
44614,39291,8967
44525,39284,9106
44390,39277,9240
44235,39267,9366
44073,39255,9477
43915,39244,9562
43789,39234,9619
43719,39228,9656
43694,39222,9673
43703,39213,9669
43758,39197,9656
43858,39179,9647
43969,39162,9648
44070,39141,9657
44173,39114,9680
44274,39082,9722
44336,39051,9780
44353,39021,9846
44351,38993,9908
44337,38968,9963
44292,38947,10011
44219,38934,10043
44142,38930,10053
44072,38937,10043
44000,38953,10026
43939,38973,10003
43909,38997,9970
43909,39028,9938
43920,39067,9917
43932,39114,9901
43948,39171,9884
43955,39238,9867
43927,39322,9846
43856,39420,9814
43753,39533,9775
43617,39658,9736
43446,39785,9695
43265,39906,9657
43103,40015,9632
42972,40111,9624
42878,40192,9626
42850,40255,9635
42906,40302,9654
43021,40340,9681
43167,40377,9712
43343,40415,9745
43535,40453,9781
43701,40490,9814
43814,40522,9833
43886,40548,9831
43923,40572,9808
43916,40596,9764
43876,40616,9698
43835,40631,9614
43811,40644,9528
43795,40652,9454
43786,40658,9396
43798,40657,9358
43825,40652,9346
43846,40650,9368
43857,40651,9417
43868,40656,9482
43873,40669,9550
43853,40689,9616
43818,40714,9671
43792,40745,9705
43769,40781,9713
43726,40816,9697
43664,40846,9658
43606,40868,9599
43539,40877,9540
43445,40878,9495
43351,40871,9466
43287,40858,9450
43242,40840,9462
43197,40819,9505
43169,40794,9562
43180,40765,9624
43223,40734,9699
43283,40703,9776
43362,40667,9830
43464,40630,9847
43578,40596,9830
43688,40566,9782
43798,40541,9708
43915,40517,9624
44019,40494,9548
44098,40473,9493
44177,40455,9464
44262,40445,9461
44332,40442,9483
44385,40436,9519
44453,40428,9554
44542,40420,9582
44628,40411,9601
44709,40401,9604
44807,40386,9578
44923,40364,9520
45033,40338,9440
45136,40308,9347
45251,40277,9245
45380,40250,9143
45502,40228,9051
45616,40210,8968
45733,40196,8900
45843,40185,8853
45930,40172,8824
46000,40156,8795
46073,40131,8757
46148,40097,8722
46210,40064,8691
46266,40031,8647
46332,39993,8584
46404,39951,8523
46472,39909,8474
46538,39870,8436
46610,39835,8413
46674,39806,8421
46711,39780,8466
46736,39756,8544
46765,39736,8657
46779,39720,8807
46768,39703,8990
46762,39681,9190
46782,39649,9403
46810,39610,9632
46837,39571,9870
46884,39536,10102
46953,39506,10326
47013,39483,10537
47055,39468,10725
47100,39462,10888
47149,39461,11028
47179,39463,11146
47193,39467,11239
47218,39468,11311
47256,39465,11368
47285,39462,11415
47306,39457,11450
47344,39447,11478
47389,39432,11504
47410,39414,11534
47413,39392,11570
47421,39371,11619
47428,39355,11690
47419,39346,11781
47410,39344,11886
47426,39340,12004
47470,39333,12134
47530,39326,12271
47612,39320,12410
47731,39311,12550
47872,39304,12683
48006,39295,12798
48120,39279,12893
48215,39257,12972
48277,39233,13032
48292,39206,13070
48268,39176,13092
48218,39140,13109
48140,39101,13125
48030,39063,13142
47905,39027,13161
47781,38994,13186
47652,38968,13219
47511,38946,13251
47375,38923,13273
47249,38897,13279
47124,38868,13265
47005,38831,13223
46918,38785,13146
46868,38729,13041
46833,38665,12921
46807,38603,12794
46807,38547,12671
46828,38498,12565
46832,38457,12494
46809,38428,12453
46781,38415,12438
46743,38426,12448
46670,38459,12482
46572,38509,12523
46474,38576,12560
46372,38661,12592
46255,38764,12609
46146,38877,12605
46072,38992,12585
46033,39106,12558
46018,39220,12526
46029,39337,12492
46079,39452,12461
46156,39563,12440
46236,39670,12422
46314,39768,12407
46395,39852,12396
46460,39926,12385
46487,39990,12359
46492,40048,12311
46486,40097,12242
46448,40137,12159
46368,40172,12064
46276,40203,11965
46190,40227,11870
46101,40243,11791
46009,40252,11731
45936,40257,11687
45896,40263,11662
45868,40274,11663
45841,40287,11680
45838,40300,11699
45866,40318,11718
45895,40346,11743
45911,40385,11767
45934,40430,11770
45972,40478,11750
46009,40527,11718
46038,40574,11668
46070,40615,11596
46095,40649,11513
46092,40680,11435
46060,40707,11363
46023,40726,11304
45996,40736,11273
45975,40738,11274
45972,40730,11295
46015,40713,11331
46113,40689,11379
46247,40657,11427
46408,40616,11462
46601,40572,11479
46809,40529,11474
46999,40487,11445
47166,40449,11396
47319,40412,11338
47443,40374,11277
47528,40339,11213
47601,40312,11154
47687,40293,11113
47771,40282,11100
47840,40274,11114
47921,40270,11141
48029,40266,11172
48135,40260,11207
48222,40252,11234
48304,40239,11232
48388,40222,11195
48449,40203,11126
48481,40188,11026
48504,40176,10895
48525,40162,10744
48526,40149,10591
48504,40138,10441
48490,40132,10297
48494,40132,10182
48494,40134,10117
48486,40132,10103
48490,40123,10134
48510,40108,10214
48529,40085,10346
48540,40049,10511
48555,39996,10693
48566,39927,10884
48553,39853,11077
48517,39779,11260
48478,39708,11426
48443,39644,11578
48399,39594,11712
48350,39558,11831
48312,39538,11949
48279,39536,12078
48235,39545,12222
48177,39556,12382
48117,39560,12561
48056,39555,12752
47987,39541,12943
47921,39521,13130
47875,39490,13308
47843,39448,13471
47815,39399,13610
47795,39345,13726
47790,39289,13822
47791,39234,13905
47784,39180,13983
47772,39131,14062
47764,39093,14146
47749,39065,14245
47722,39046,14353
47699,39032,14458
47693,39022,14561
47688,39015,14658
47677,39011,14744
47671,39005,14819
47667,38992,14887
47644,38974,14956
47598,38956,15029
47537,38938,15108
47463,38922,15200
47364,38914,15311
47246,38913,15430
47125,38920,15540
47008,38933,15632
46891,38949,15699
46781,38963,15733
46701,38972,15731
46652,38978,15702
46609,38981,15657
46564,38982,15598
46530,38976,15533
46500,38958,15486
46452,38937,15460
46385,38915,15439
46308,38888,15415
46219,38860,15402
46114,38830,15400
46012,38796,15383
45941,38762,15341
45900,38732,15283
45886,38703,15213
45913,38671,15130
45983,38638,15041
46070,38607,14961
46155,38579,14888
46242,38551,14819
46323,38521,14769
46370,38489,14752
46373,38456,14761
46353,38425,14782
46314,38393,14821
46233,38366,14882
46107,38345,14948
45964,38332,14997
45813,38332,15032
45636,38345,15057
45448,38368,15063
45288,38400,15043
45166,38442,15006
45069,38493,14954
45009,38554,14881
45014,38621,14789
45075,38696,14698
45157,38786,14619
45253,38891,14541
45364,39003,14463
45468,39118,14394
45528,39235,14331
45542,39346,14253
45518,39452,14155
45443,39557,14047
45301,39656,13930
45106,39743,13790
44884,39818,13625
44648,39882,13452
44403,39937,13270
44175,39977,13070
43992,40002,12855
43860,40017,12637
43778,40031,12422
43757,40048,12215
43806,40066,12020
43910,40083,11842
44053,40096,11686
44232,40109,11559
44439,40126,11466
44650,40147,11409
44845,40166,11385
45026,40180,11389
45186,40193,11414
45314,40207,11449
45409,40223,11489
45487,40239,11532
45558,40257,11573
45610,40278,11605
45646,40307,11626
45686,40340,11640
45742,40371,11650
45798,40398,11659
45849,40417,11663
45914,40425,11665
45999,40426,11677
46086,40424,11704
46174,40421,11738
46273,40412,11776
46367,40398,11823
46436,40383,11876
46494,40370,11924
46572,40354,11964
46663,40334,12000
46743,40313,12028
46826,40295,12037
46924,40278,12029
47009,40262,12013
47053,40245,11993
47070,40223,11959
47076,40198,11918
47057,40173,11888
47004,40150,11867
46947,40126,11844
46910,40098,11823
46883,40067,11822
46856,40037,11839
46843,40010,11861
46860,39986,11893
46887,39967,11943
46910,39954,12004
46949,39949,12064
47008,39957,12127
47061,39980,12205
47090,40014,12298
47115,40050,12399
47143,40080,12515
47152,40103,12658
47131,40116,12819
47096,40113,12989
47052,40095,13178
46992,40065,13388
46936,40030,13599
46913,39992,13802
46928,39954,14010
46969,39919,14224
47040,39887,14422
47151,39859,14593
47289,39838,14747
47418,39827,14879
47520,39825,14972
47595,39824,15030
47635,39820,15072
47621,39814,15107
47559,39799,15133
47480,39770,15160
47407,39726,15205
47344,39670,15274
47307,39602,15359
47322,39522,15455
47377,39434,15564
47448,39349,15683
47539,39271,15807
47652,39202,15932
47755,39142,16052
47822,39094,16160
47865,39060,16254
47888,39040,16338
47865,39035,16411
47790,39034,16470
47689,39028,16520
47574,39013,16566
47430,38992,16605
47263,38968,16631
47107,38941,16644
46979,38906,16650
46862,38863,16651
46755,38820,16639
46683,38779,16611
46648,38744,16578
46629,38717,16551
46631,38695,16519
46672,38676,16482
46743,38663,16456
46812,38655,16442
46871,38649,16414
46934,38640,16359
46986,38627,16293
46995,38611,16222
46960,38588,16127
46897,38560,16005
46802,38528,15875
46669,38490,15747
46514,38446,15613
46367,38397,15478
46233,38348,15354
46103,38308,15250
45993,38276,15162
45919,38252,15094
45870,38235,15043
45836,38222,15005
45832,38209,14977
45872,38200,14962
45934,38196,14956
45997,38192,14946
46068,38185,14918
46153,38171,14872
46229,38148,14813
46282,38119,14742
46323,38082,14662
46358,38038,14582
46380,37993,14514
46392,37954,14455
46408,37922,14404
46434,37902,14373
46455,37902,14362
46470,37928,14352
46498,37977,14341
46545,38046,14336
46598,38132,14332
46657,38229,14312
46735,38337,14277
46832,38458,14239
46933,38587,14201
47037,38719,14153
47152,38848,14099
47270,38969,14040
47368,39087,13972
47445,39204,13905
47518,39316,13848
47587,39424,13805
47639,39527,13776
47679,39622,13766
47728,39706,13780
47790,39783,13813
47858,39858,13856
47938,39927,13900
48039,39986,13940
48152,40034,13963
48262,40073,13957
48374,40104,13921
48490,40132,13866
48592,40164,13799
48661,40194,13719
48703,40222,13638
48722,40248,13566
48712,40275,13505
48668,40301,13454
48611,40325,13416
48552,40349,13390
48487,40375,13371
48420,40397,13345
48379,40410,13304
48379,40423,13245
48407,40440,13160
48466,40460,13039
48580,40479,12884
48747,40499,12702
48935,40525,12500
49124,40557,12292
49318,40588,12094
49498,40611,11924
49623,40629,11793
49682,40640,11714
49695,40643,11693
49656,40639,11732
49555,40625,11822
49425,40602,11951
49310,40572,12110
49214,40538,12282
49130,40503,12443
49076,40472,12582
49069,40443,12698
49090,40416,12796
49111,40393,12882
49136,40374,12974
49176,40359,13091
49213,40349,13243
49227,40338,13438
49222,40324,13682
49210,40308,13974
49178,40292,14303
49108,40275,14653
49009,40257,15006
48904,40237,15345
48798,40217,15656
48692,40194,15919
48605,40173,16126
48546,40160,16280
48497,40155,16382
48446,40154,16436
48403,40154,16451
48366,40152,16448
48314,40146,16447
48243,40131,16452
48168,40102,16470
48090,40053,16507
47993,39988,16561
47877,39913,16615
47757,39835,16662
47632,39760,16703
47490,39696,16731
47341,39645,16734
47209,39611,16706
47100,39595,16663
47013,39593,16606
46967,39599,16532
46981,39608,16454
47039,39616,16388
47115,39622,16335
47200,39620,16290
47291,39602,16261
47364,39570,16260
47394,39533,16274
47393,39490,16279
47385,39445,16267
47363,39406,16247
47322,39373,16205
47286,39346,16123
47277,39327,16007
47283,39321,15869
47289,39329,15704
47308,39343,15512
47351,39351,15319
47403,39352,15150
47459,39347,15008
47532,39335,14894
47620,39318,14821
47697,39297,14795
47751,39272,14800
47801,39242,14824
47849,39212,14869
47875,39186,14928
47881,39165,14978
47891,39147,15008
47903,39133,15026
47896,39127,15029
47866,39132,15004
47838,39144,14954
47815,39158,14900
47775,39168,14852
47725,39173,14811
47693,39172,14780
47674,39162,14764
47643,39141,14759
47607,39108,14752
47588,39064,14737
47571,39014,14709
47537,38966,14659
47505,38923,14581
47499,38886,14478
47506,38854,14358
47507,38833,14228
47519,38819,14092
47561,38808,13964
47610,38802,13856
47640,38802,13768
47661,38801,13692
47682,38795,13631
47674,38785,13583
47621,38772,13539
47549,38755,13495
47490,38732,13449
47450,38703,13389
47433,38671,13309
47472,38637,13207
47581,38604,13084
47739,38578,12943
47935,38559,12794
48188,38542,12645
48491,38528,12501
48799,38524,12364
49095,38530,12243
49392,38546,12146
49680,38569,12069
49927,38605,12006
50129,38658,11954
50309,38723,11916
50462,38791,11885
50564,38863,11857
50622,38940,11830
50671,39023,11807
50707,39111,11794
50707,39203,11785
50693,39292,11766
50704,39379,11738
50732,39462,11711
50751,39543,11682
50780,39624,11635
50850,39702,11571
50946,39772,11500
51045,39835,11422
51165,39890,11335
51326,39938,11243
51503,39976,11156
51664,40002,11074
51818,40010,10996
51973,40010,10922
52097,40009,10858
52158,40013,10801
52173,40022,10747
52163,40036,10698
52121,40051,10651
52045,40068,10601
51963,40087,10550
51894,40113,10510
51823,40147,10483
51739,40180,10474
51668,40206,10494
51620,40228,10549
51571,40246,10641
51514,40261,10770
51475,40272,10940
51458,40274,11142
51439,40273,11362
51415,40269,11589
51399,40263,11824
51387,40253,12051
51363,40242,12256
51334,40232,12433
51317,40225,12580
51306,40228,12693
51280,40239,12772
51242,40250,12829
51208,40254,12880
51177,40248,12938
51134,40236,13005
51082,40221,13088
51038,40198,13191
51012,40168,13314
50994,40137,13448
50983,40104,13581
50988,40070,13702
51004,40041,13805
51016,40020,13883
51019,40007,13937
51011,40002,13970
50979,40004,13987
50912,40008,13998
50810,40012,14017
50681,40016,14056
50524,40020,14122
50340,40024,14216
50144,40024,14334
49958,40016,14474
49781,40000,14626
49607,39983,14770
49453,39966,14890
49329,39950,14974
49220,39937,15011
49118,39925,14994
49034,39915,14929
48969,39907,14826
48909,39903,14696
48851,39903,14551
48804,39901,14410
48764,39891,14287
48709,39873,14185
48635,39849,14106
48562,39822,14050
48494,39788,14018
48418,39748,14000
48337,39710,13987
48275,39675,13978
48232,39645,13973
48196,39623,13964
48164,39604,13954
48145,39584,13950
48134,39558,13950
48113,39528,13941
48079,39498,13918
48036,39469,13881
47976,39442,13827
47884,39419,13749
47768,39401,13649
47643,39383,13536
47510,39365,13418
47371,39347,13302
47238,39324,13192
47127,39297,13096
47033,39265,13020
46948,39231,12969
46874,39196,12940
46809,39157,12926
46736,39116,12920
46641,39080,12915
46536,39052,12902
46429,39032,12874
46311,39020,12832
46181,39012,12767
46060,39003,12677
45963,38994,12567
45885,38987,12446
45830,38980,12310
45814,38966,12167
45832,38944,12037
45856,38920,11928
45874,38898,11838
45888,38876,11773
45894,38852,11744
45879,38828,11747
45852,38810,11759
45841,38804,11773
45851,38809,11791
45874,38825,11802
45926,38849,11797
46023,38874,11773
46140,38900,11734
46245,38927,11680
46335,38951,11602
46419,38967,11508
46477,38970,11417
46489,38962,11334
46470,38942,11253
46444,38909,11177
46405,38872,11114
46347,38838,11061
46300,38813,11018
46288,38804,10990
46294,38814,10976
46306,38847,10962
46345,38905,10943
46420,38983,10926
46503,39077,10907
46577,39190,10874
46656,39317,10820
46744,39451,10755
46805,39589,10685
46827,39726,10609
46834,39858,10531
46837,39982,10459
46821,40097,10397
46793,40200,10345
46786,40285,10307
46805,40348,10285
46832,40390,10270
46872,40410,10249
46945,40409,10218
47039,40391,10177
47118,40366,10119
47175,40334,10045
47215,40299,9961
47220,40271,9875
47169,40251,9790
47074,40236,9711
46961,40229,9648
46834,40235,9607
46691,40253,9591
46554,40280,9604
46442,40313,9650
46352,40346,9724
46271,40379,9820
46199,40408,9940
46145,40436,10086
46100,40465,10249
46050,40494,10419
45993,40519,10601
45932,40545,10792
45858,40571,10976
45760,40596,11153
45643,40621,11329
45524,40638,11501
45398,40644,11662
45259,40644,11818
45120,40638,11974
44995,40620,12125
44882,40590,12264
44776,40552,12391
44687,40505,12511
44613,40453,12624
44544,40402,12717
44479,40355,12793
44422,40310,12863
44371,40268,12928
44310,40232,12987
44240,40209,13043
44180,40200,13103
44134,40200,13166
44084,40209,13222
44027,40223,13272
43981,40237,13322
43941,40248,13369
43884,40255,13406
43812,40260,13439
43743,40262,13476
43674,40256,13514
43597,40245,13552
43525,40233,13598
43482,40222,13658
43455,40212,13729
43426,40204,13803
43406,40196,13879
43404,40188,13954
43400,40180,14024
43382,40172,14082
43366,40160,14130
43366,40145,14165
43366,40127,14184
43352,40114,14181
43337,40104,14157
43328,40092,14107
43303,40077,14034
43248,40058,13944
43180,40039,13845
43113,40024,13736
43033,40014,13617
42934,40008,13496
42834,40008,13379
42742,40009,13267
42651,40005,13160
42565,39998,13061
42506,39984,12979
42483,39963,12919
42487,39938,12881
42511,39908,12858
42563,39874,12851
42634,39837,12863
42697,39799,12887
42735,39761,12914
42757,39726,12938
42757,39694,12956
42718,39667,12961
42646,39648,12947
42564,39636,12915
42478,39628,12867
42380,39625,12802
42286,39624,12720
42217,39623,12634
42176,39618,12559
42150,39606,12495
42138,39587,12440
42145,39558,12401
42162,39523,12385
42176,39486,12383
42190,39451,12386
42217,39414,12397
42257,39380,12410
42303,39354,12410
42369,39332,12395
42464,39311,12377
42576,39295,12361
42696,39281,12334
42825,39266,12297
42958,39248,12267
43074,39225,12246
43162,39200,12220
43238,39171,12188
43310,39137,12160
43372,39101,12140
43423,39062,12114
43478,39015,12076
43546,38967,12034
43612,38927,11995
43669,38897,11951
43725,38872,11902
43778,38851,11860
43814,38842,11819
43833,38853,11771
43852,38884,11724
43876,38931,11689
43888,38994,11663
43886,39069,11641
43886,39150,11626
43892,39239,11621
43895,39334,11623
43895,39436,11629
43904,39541,11636
43924,39644,11640
43942,39743,11636
43955,39836,11627
43971,39924,11612
43992,40010,11584
44014,40092,11540
44040,40169,11485
44080,40243,11425
44134,40313,11360
44195,40384,11295
44264,40456,11236
44341,40525,11187
44408,40588,11145
44443,40645,11111
44445,40696,11089
44416,40741,11074
44344,40779,11050
44231,40805,11014
44095,40817,10972
43950,40815,10930
43798,40801,10890
43647,40784,10851
43511,40769,10821
43391,40756,10810
43280,40747,10814
43175,40745,10833
43090,40747,10872
43025,40758,10933
42966,40781,11009
42911,40810,11096
42872,40840,11200
42845,40866,11325
42814,40887,11463
42774,40905,11609
42741,40913,11766
42717,40907,11937
42687,40890,12113
42658,40863,12287
42654,40828,12461
42669,40788,12640
42686,40744,12818
42709,40695,12987
42749,40644,13146
42791,40593,13295
42821,40542,13423
42848,40493,13527
42884,40442,13622
42910,40388,13720
42914,40332,13813
42911,40279,13897
42913,40227,13982
42901,40175,14073
42859,40124,14151
42809,40074,14207
42764,40030,14251
42704,39996,14285
42626,39976,14301
42552,39967,14300
42491,39965,14296
42428,39967,14297
42360,39974,14307
42311,39985,14329
42290,39995,14367
42275,40001,14416
42253,39999,14471
42236,39985,14528
42223,39961,14583
42189,39930,14632
42131,39892,14668
42063,39849,14693
41986,39807,14702
41883,39769,14684
41764,39740,14648
41650,39721,14602
41538,39707,14552
41414,39694,14503
41295,39682,14459
41203,39670,14423
41138,39659,14398
41086,39646,14385
41051,39625,14384
41042,39593,14399
41048,39551,14429
41051,39505,14463
41051,39461,14493
41055,39419,14525
41047,39379,14562
41011,39352,14586
40953,39339,14591
40883,39333,14593
40794,39332,14596
40677,39334,14587
40548,39334,14569
40420,39332,14552
40286,39329,14540
40144,39329,14532
40006,39327,14528
39881,39318,14532
39763,39301,14547
39653,39281,14570
39565,39258,14599
39506,39231,14629
39461,39203,14646
39418,39175,14645
39388,39147,14628
39366,39122,14595
39335,39107,14542
39289,39099,14469
39238,39092,14386
39188,39087,14302
39135,39086,14216
39088,39089,14136
39062,39090,14067
39069,39084,14010
39108,39072,13957
39180,39058,13910
39291,39040,13874
39439,39016,13847
39599,38984,13821
39758,38944,13795
39913,38898,13762
40055,38851,13715
40172,38808,13654
40265,38768,13583
40344,38730,13499
40409,38696,13400
40454,38668,13297
40483,38651,13203
40504,38642,13128
40516,38639,13071
40518,38646,13036
40527,38666,13029
40554,38697,13049
40590,38736,13087
40629,38781,13131
40683,38829,13174
40758,38884,13210
40842,38951,13223
40922,39032,13198
41001,39125,13133
41076,39223,13040
41132,39322,12922
41165,39425,12778
41190,39532,12619
41215,39640,12463
41235,39746,12315
41252,39847,12175
41287,39937,12052
41347,40017,11955
41415,40090,11879
41490,40158,11813
41583,40220,11761
41691,40277,11728
41788,40332,11703
41871,40389,11679
41952,40449,11659
42024,40505,11648
42072,40555,11639
42100,40594,11622
42122,40619,11599
42135,40635,11573
42128,40641,11533
42124,40634,11473
42153,40616,11405
42212,40596,11339
42293,40578,11266
42408,40564,11188
42563,40549,11123
42727,40531,11083
42877,40516,11063
43019,40510,11065
43152,40511,11101
43254,40522,11172
43311,40538,11269
43343,40554,11387
43361,40569,11532
43339,40587,11701
43270,40610,11880
43182,40638,12065
43087,40663,12263
42969,40682,12474
42833,40702,12688
42716,40720,12906
42634,40730,13129
42580,40732,13346
42557,40724,13542
42575,40705,13715
42633,40678,13869
42711,40653,14000
42803,40627,14100
42914,40599,14174
43035,40568,14229
43142,40540,14264
43232,40517,14280
43312,40501,14288
43362,40494,14295
43363,40497,14298
43326,40504,14296
43274,40512,14307
43202,40523,14337
43104,40536,14377
43009,40546,14425
42946,40552,14491
42906,40550,14576
42882,40542,14660
42897,40531,14736
42972,40517,14813
43087,40500,14889
43221,40480,14950
43379,40456,14990
43562,40432,15021
43736,40414,15045
43874,40400,15054
43972,40387,15049
44025,40370,15040
44016,40348,15029
43949,40322,15008
43854,40288,14985
43752,40241,14969
43642,40181,14959
43540,40118,14942
43484,40063,14922
43488,40019,14912
43532,39990,14905
43610,39974,14889
43738,39967,14862
43905,39966,14836
44075,39972,14811
44231,39987,14776
44374,40003,14733
44484,40011,14684
44525,40010,14626
44500,40000,14564
44434,39977,14514
44328,39944,14486
44172,39903,14470
44000,39857,14462
43848,39810,14470
43710,39768,14491
43574,39734,14506
43460,39711,14505
43390,39695,14493
43352,39682,14469
43325,39670,14422
43316,39660,14353
43329,39649,14275
43335,39639,14202
43302,39628,14135
43240,39615,14076
43159,39601,14032
43036,39591,14003
42858,39582,13977
42648,39570,13950
42432,39554,13918
42213,39535,13880
42001,39518,13830
41824,39498,13774
41701,39470,13715
41630,39434,13651
41611,39389,13584
41656,39333,13518
41758,39275,13460
41889,39218,13412
42037,39166,13381
42203,39118,13368
42375,39073,13370
42533,39035,13385
42670,39006,13415
42794,38985,13459
42914,38971,13514
43027,38967,13570
43137,38970,13621
43260,38981,13664
43393,39002,13689
43526,39033,13685
43663,39072,13653
43817,39118,13590
43985,39168,13503
44153,39225,13400
44325,39295,13294
44512,39378,13190
44704,39473,13093
44888,39580,13011
45067,39698,12952
45247,39829,12921
45414,39969,12912
45551,40114,12918
45665,40260,12934
45770,40399,12959
45852,40521,12976
45903,40630,12970
45942,40727,12935
45987,40812,12874
46036,40885,12788
46096,40940,12680
46200,40974,12563
46361,40995,12452
46562,41011,12349
46802,41026,12254
47104,41040,12176
47456,41046,12121
47812,41045,12079
48161,41046,12036
48517,41049,11994
48846,41055,11965
49090,41069,11951
49245,41090,11948
49339,41114,11962
49356,41143,12002
49267,41177,12062
49106,41220,12141
48930,41267,12251
48757,41314,12396
48595,41362,12559
48491,41409,12727
48497,41453,12908
48599,41492,13095
48757,41523,13268
48980,41544,13420
49279,41552,13561
49599,41552,13698
49877,41546,13826
50110,41533,13958
50300,41513,14107
50402,41482,14277
50391,41438,14460
50302,41383,14649
50169,41322,14840
49996,41259,15020
49802,41197,15175
49639,41138,15299
49538,41081,15388
49477,41029,15439
49443,40985,15460
49452,40950,15460
49492,40923,15442
49513,40903,15412
49489,40894,15386
49423,40896,15381
49313,40903,15394
49150,40909,15417
48952,40919,15448
48757,40929,15495
48586,40937,15559
48437,40944,15632
48320,40949,15705
48255,40951,15777
48238,40950,15846
48242,40946,15899
48261,40941,15931
48305,40933,15953
48358,40921,15972
48388,40905,15979
48385,40888,15973
48362,40868,15971
48313,40844,15981
48221,40820,15994
48099,40797,16007
47972,40772,16026
47848,40748,16046
47721,40727,16059
47599,40708,16061
47490,40689,16051
47382,40669,16031
47256,40651,16008
47118,40631,15996
46979,40605,16004
46832,40572,16032
46672,40534,16079
46520,40497,16147
46391,40457,16229
46277,40414,16312
46173,40373,16391
46104,40338,16463
46079,40310,16519
46081,40290,16547
46106,40276,16544
46161,40266,16515
46233,40260,16459
46286,40262,16370
46307,40270,16253
46309,40277,16125
46287,40284,16006
46215,40296,15900
46097,40312,15815
45971,40325,15762
45855,40330,15747
45744,40331,15752
45663,40330,15758
45657,40324,15762
45727,40312,15753
45854,40299,15706
46049,40282,15613
46325,40262,15491
46633,40244,15350
46907,40232,15189
47149,40220,15018
47367,40205,14864
47511,40187,14740
47532,40171,14645
47450,40157,14582
47302,40143,14552
47088,40124,14538
46813,40107,14520
46542,40092,14490
46337,40076,14443
46200,40055,14374
46123,40028,14275
46127,39998,14148
46222,39964,14005
46373,39930,13863
46547,39895,13733
46744,39860,13630
46950,39827,13566
47125,39799,13537
47254,39783,13540
47356,39781,13573
47432,39790,13624
47460,39812,13678
47439,39852,13728
47396,39903,13769
47344,39966,13792
47272,40040,13794
47193,40122,13782
47143,40210,13770
47123,40302,13759
47108,40400,13757
47102,40502,13771
47134,40603,13802
47197,40695,13849
47262,40780,13907
47333,40863,13971
47422,40941,14039
47504,41015,14098
47547,41084,14128
47560,41152,14117
47563,41219,14069
47535,41283,13983
47458,41347,13850
47365,41408,13682
47288,41464,13509
47217,41518,13349
47143,41571,13212
47093,41621,13118
47092,41662,13092
47124,41692,13130
47171,41717,13214
47245,41739,13344
47349,41754,13522
47451,41764,13742
47525,41778,13980
47582,41797,14228
47617,41822,14485
47594,41855,14737
47497,41897,14967
47358,41946,15180
47193,42002,15384
46994,42063,15575
46777,42125,15759
46580,42183,15951
46420,42226,16156
46288,42253,16364
46183,42271,16569
46124,42283,16780
46097,42289,16986
46076,42287,17158
46069,42276,17284
46095,42256,17373
46146,42232,17427
46198,42211,17443
46258,42191,17436
46337,42170,17430
46410,42148,17439
46447,42126,17479
46452,42104,17567
46438,42084,17709
46393,42065,17891
46302,42050,18103
46180,42040,18334
46062,42035,18567
45951,42028,18772
45846,42020,18932
45767,42011,19035
45733,41999,19071
45730,41982,19038
45746,41964,18953
45784,41942,18841
45844,41917,18714
45894,41892,18584
45907,41867,18472
45889,41845,18395
45847,41828,18347
45767,41816,18316
45646,41814,18299
45515,41816,18291
45396,41816,18279
45282,41813,18248
45177,41812,18193
45114,41807,18118
45104,41795,18030
45118,41773,17926
45146,41740,17811
45201,41694,17696
45270,41639,17587
45321,41580,17475
45348,41525,17360
45359,41478,17254
45343,41436,17153
45278,41400,17034
45179,41371,16897
45073,41350,16762
44961,41333,16634
44837,41321,16509
44730,41309,16393
44672,41292,16292
44658,41275,16205
44677,41259,16134
44745,41244,16082
44876,41224,16040
45038,41199,15997
45197,41174,15951
45348,41149,15903
45489,41120,15845
45591,41086,15767
45630,41052,15662
45620,41022,15535
45584,40992,15392
45515,40965,15234
45416,40942,15073
45312,40918,14930
45220,40896,14819
45140,40878,14737
45066,40862,14683
45001,40847,14658
44945,40828,14661
44883,40808,14676
44809,40791,14687
44734,40778,14691
44658,40766,14685
44572,40758,14652
44484,40753,14585
44417,40745,14508
44379,40732,14438
44364,40717,14372
44378,40699,14313
44444,40675,14274
44557,40646,14256
44687,40617,14250
44823,40592,14257
44973,40571,14277
45117,40554,14296
45223,40542,14301
45289,40530,14286
45328,40517,14248
45341,40504,14183
45320,40493,14098
45285,40486,14013
45263,40479,13941
45256,40471,13887
45260,40466,13851
45285,40461,13838
45340,40450,13850
45400,40431,13881
45438,40405,13915
45461,40375,13942
45473,40338,13961
45455,40296,13959
45396,40258,13921
45314,40225,13852
45225,40201,13768
45128,40189,13673
45028,40195,13569
44958,40217,13472
44940,40253,13402
44963,40300,13360
45027,40361,13339
45145,40438,13345
45307,40526,13380
45471,40624,13429
45620,40731,13486
45766,40843,13553
45897,40957,13623
45984,41071,13680
46029,41178,13719
46061,41271,13740
46089,41352,13749
46107,41425,13756
46134,41493,13774
46198,41558,13813
46296,41616,13881
46408,41669,13992
46541,41723,14155
46709,41777,14363
46887,41834,14599
47041,41895,14857
47177,41956,15133
47311,42011,15409
47421,42063,15668
47479,42114,15896
47504,42163,16092
47524,42210,16256
47517,42253,16389
47457,42296,16487
47374,42342,16559
47299,42388,16618
47224,42430,16663
47143,42473,16690
47089,42513,16712
47083,42550,16738
47107,42584,16762
47156,42618,16779
47248,42653,16796
47384,42684,16816
47526,42703,16831
47651,42711,16842
47775,42710,16848
47892,42697,16843
47965,42675,16823
47987,42641,16796
47984,42599,16769
47956,42553,16740
47884,42512,16713
47780,42476,16695
47678,42441,16690
47589,42410,16694
47494,42386,16709
47407,42368,16733
47348,42354,16758
47301,42339,16778
47237,42323,16789
47164,42310,16787
47101,42295,16777
47045,42277,16753
46986,42260,16708
46942,42246,16650
46935,42232,16587
46952,42222,16519
46972,42215,16441
47000,42205,16357
47042,42193,16276
47075,42179,16197
47073,42170,16112
47041,42167,16025
46991,42162,15945
46915,42150,15870
46810,42130,15791
46693,42103,15714
46579,42067,15652
46466,42025,15603
46362,41981,15564
46297,41934,15543
46287,41887,15545
46321,41845,15560
46393,41813,15585
46516,41789,15621
46677,41770,15656
46834,41755,15676
46958,41744,15677
47050,41733,15654
47093,41719,15598
47064,41702,15505
46973,41679,15383
46851,41647,15245
46707,41607,15103
46543,41562,14971
46379,41517,14859
46245,41472,14777
46150,41426,14725
46082,41381,14696
46043,41345,14685
46045,41318,14695
46078,41294,14714
46110,41273,14727
46131,41253,14731
46139,41231,14734
46113,41207,14729
46028,41180,14707
45886,41151,14668
45704,41118,14627
45483,41087,14585
45223,41062,14541
44948,41047,14500
44687,41041,14461
44448,41042,14418
44233,41052,14372
44061,41067,14325
43957,41082,14270
43920,41097,14202
43945,41110,14124
44043,41113,14036
44214,41106,13938
44437,41091,13839
44692,41070,13747
44970,41045,13666
45257,41011,13606
45526,40971,13569
45753,40933,13556
45936,40899,13559
46071,40861,13577
46149,40823,13604
46183,40793,13631
46194,40770,13657
46197,40750,13676
46197,40736,13678
46204,40722,13665
46228,40703,13647
46270,40672,13622
46322,40630,13575
46381,40584,13509
46458,40542,13441
46547,40507,13375
46638,40482,13310
46729,40468,13258
46832,40466,13236
46944,40483,13237
47051,40523,13248
47154,40578,13271
47259,40640,13306
47357,40707,13346
47434,40776,13378
47497,40846,13401
47560,40914,13428
47617,40978,13465
47666,41041,13510
47718,41104,13572
47779,41168,13665
47835,41233,13787
47868,41301,13934
47886,41371,14110
47896,41440,14311
47885,41508,14519
47844,41577,14729
47792,41647,14943
47745,41709,15155
47703,41761,15347
47668,41805,15514
47653,41840,15663
47657,41866,15797
47657,41885,15923
47640,41895,16050
47609,41895,16176
47562,41896,16300
47484,41907,16425
47380,41931,16553
47271,41967,16679
47163,42011,16794
47050,42060,16898
46935,42113,16998
46834,42164,17098
46752,42211,17200
46689,42253,17301
46646,42287,17404
46634,42307,17518
46650,42316,17635
46679,42321,17739
46714,42326,17832
46755,42330,17926
46786,42331,18013
46786,42333,18082
46755,42335,18138
46707,42330,18189
46645,42321,18243
46573,42311,18309
46506,42300,18394
46462,42281,18492
46440,42251,18591
46435,42216,18689
46447,42184,18777
46476,42158,18844
46506,42138,18885
46525,42125,18902
46541,42118,18895
46553,42119,18864
46549,42126,18809
46528,42133,18734
46497,42136,18657
46452,42135,18587
46381,42132,18517
46287,42123,18450
46190,42107,18400
46099,42080,18372
46005,42043,18351
45909,42005,18332
45828,41967,18313
45772,41934,18290
45727,41912,18253
45689,41899,18203
45670,41893,18146
45664,41893,18086
45653,41898,18028
45633,41905,17979
45616,41909,17946
45594,41903,17930
45540,41887,17929
45455,41864,17947
45358,41826,17982
45254,41776,18022
45143,41724,18057
45039,41677,18085
44963,41634,18108
44913,41599,18114
44879,41573,18093
44867,41550,18047
44879,41526,17986
44896,41503,17921
44896,41479,17854
44879,41450,17795
44854,41417,17747
44810,41382,17707
44741,41350,17679
44668,41317,17667
44607,41283,17666
