green_channel,red_channel,ir_channel
11742,38432,43870
11748,38428,43878
11748,38425,43881
11750,38432,43884
11759,38451,43892
11774,38475,43904
11789,38494,43913
11806,38506,43918
11822,38514,43919
11830,38518,43916
11827,38516,43910
11821,38514,43901
11816,38513,43891
11802,38509,43876
11778,38498,43853
11756,38482,43823
11743,38465,43798
11727,38445,43778
11702,38420,43753
11684,38401,43731
11680,38395,43718
11681,38398,43712
11683,38401,43708
11690,38407,43707
11701,38418,43710
11710,38428,43712
11714,38433,43709
11722,38435,43709
11736,38440,43719
11744,38446,43738
11743,38451,43760
11741,38455,43783
11741,38461,43804
11743,38463,43815
11743,38456,43813
11743,38446,43805
11734,38436,43794
11709,38421,43777
11676,38400,43754
11649,38381,43735
11631,38371,43722
11619,38364,43707
11615,38356,43687
11619,38351,43673
11623,38351,43663
11623,38349,43652
11625,38348,43638
11633,38353,43622
11636,38362,43603
11631,38368,43580
11625,38370,43555
11618,38369,43532
11602,38362,43510
11578,38352,43488
11552,38342,43467
11527,38329,43446
11494,38312,43424
11454,38288,43394
11417,38259,43359
11385,38231,43326
11348,38199,43292
11309,38166,43249
11279,38138,43200
11255,38117,43156
11234,38094,43112
11214,38068,43063
11201,38043,43015
11194,38026,42976
11185,38019,42948
11170,38014,42921
11157,38008,42894
11144,38002,42876
11128,37992,42859
11106,37976,42834
11086,37960,42809
11065,37949,42788
11033,37934,42763
10997,37915,42732
10972,37900,42703
10953,37893,42680
10925,37882,42656
10890,37866,42625
10854,37850,42593
10818,37832,42563
10780,37812,42531
10746,37790,42491
10719,37769,42447
10695,37746,42406
10673,37724,42371
10660,37704,42342
10658,37694,42324
10659,37690,42311
10657,37685,42294
10655,37678,42272
10654,37677,42254
10649,37676,42242
10638,37670,42226
10632,37663,42207
10631,37661,42190
10619,37656,42177
10597,37644,42160
10579,37628,42139
10569,37615,42119
10556,37606,42094
10533,37595,42063
10504,37584,42028
10472,37572,41995
10432,37554,41960
10390,37528,41922
10356,37504,41886
10324,37485,41856
10288,37464,41825
10250,37437,41793
10217,37409,41761
10189,37383,41732
10161,37360,41701
10132,37337,41669
10110,37319,41643
10098,37308,41622
10089,37298,41600
10079,37289,41573
10079,37283,41543
10083,37280,41517
10080,37272,41488
10073,37259,41454
10069,37252,41423
10062,37249,41394
10046,37244,41360
10026,37239,41323
10009,37238,41292
9993,37239,41265
9974,37233,41239
9957,37225,41217
9948,37222,41202
9941,37219,41192
9930,37212,41178
9921,37205,41160
9913,37201,41141
9895,37195,41122
9868,37183,41098
9850,37169,41075
9848,37160,41064
9850,37158,41066
9854,37161,41080
9870,37173,41109
9903,37197,41157
9949,37230,41223
10004,37268,41305
10075,37318,41411
10162,37380,41539
10250,37446,41683
10341,37514,41838
10445,37586,42005
10559,37665,42182
10669,37750,42361
10781,37836,42534
10903,37928,42704
11025,38020,42872
11135,38100,43028
11235,38170,43172
11329,38237,43310
11418,38303,43444
11496,38362,43568
11569,38413,43676
11642,38461,43773
11707,38502,43861
11758,38536,43933
11802,38562,43987
11844,38587,44034
11882,38606,44075
11909,38615,44104
11933,38617,44122
11958,38623,44142
11976,38627,44164
11979,38627,44178
11975,38624,44182
11973,38627,44183
11971,38637,44182
11968,38648,44179
11974,38662,44180
11991,38682,44189
12008,38702,44196
12019,38716,44197
12033,38731,44203
12054,38752,44223
12073,38770,44249
12089,38780,44273
12111,38789,44300
12136,38804,44334
12154,38818,44366
12164,38825,44391
12176,38833,44414
12189,38846,44433
12195,38858,44445
12195,38864,44449
12198,38870,44452
12202,38874,44455
12201,38871,44453
12197,38863,44445
12195,38856,44436
12195,38855,44433
12190,38855,44432
12183,38848,44428
12183,38840,44422
12185,38834,44419
12182,38825,44414
12178,38813,44403
12175,38800,44388
12171,38787,44371
12161,38779,44352
12154,38777,44340
12151,38778,44333
12143,38777,44326
12125,38776,44312
12106,38771,44294
12091,38766,44283
12073,38763,44281
12053,38757,44277
12042,38753,44273
12043,38753,44278
12042,38754,44288
12037,38750,44294
12039,38747,44296
12048,38747,44299
12054,38743,44302
12055,38736,44296
12060,38732,44288
12068,38733,44287
12071,38732,44291
12065,38726,44288
12061,38721,44285
12058,38718,44286
12048,38714,44287
12039,38711,44282
12039,38714,44274
12044,38718,44267
12042,38714,44257
12031,38700,44236
12019,38685,44210
12007,38673,44186
11988,38657,44160
11966,38633,44129
11952,38607,44096
11944,38583,44067
11936,38561,44040
11928,38541,44011
11922,38530,43985
11913,38527,43962
11897,38526,43935
11879,38524,43906
11864,38518,43873
11847,38513,43840
11821,38503,43804
11797,38490,43768
11778,38482,43737
11755,38474,43710
11728,38462,43683
11709,38451,43657
11701,38444,43633
11695,38437,43608
11681,38426,43579
11664,38413,43551
11644,38403,43529
11616,38395,43508
11585,38382,43482
11562,38368,43459
11544,38358,43442
11521,38350,43427
11493,38340,43409
11472,38328,43389
11459,38316,43369
11445,38303,43346
11430,38291,43317
11421,38284,43288
11417,38284,43263
11406,38283,43237
11389,38274,43207
11374,38261,43178
11356,38246,43152
11327,38226,43117
11292,38202,43075
11260,38180,43033
11231,38160,43000
11199,38139,42970
11164,38115,42939
11139,38096,42915
11122,38082,42900
11104,38066,42882
11088,38046,42857
11076,38031,42829
11064,38022,42801
11044,38011,42770
11021,37995,42734
11003,37977,42700
10981,37958,42669
10951,37939,42641
10920,37923,42616
10894,37911,42598
10870,37902,42584
10843,37888,42569
10825,37875,42551
10819,37871,42535
10815,37875,42515
10803,37873,42484
10790,37867,42447
10780,37859,42412
10764,37846,42375
10736,37826,42334
10707,37804,42291
10685,37784,42255
10667,37766,42228
10653,37748,42208
10644,37730,42199
10632,37717,42199
10606,37708,42195
10574,37699,42179
10552,37689,42153
10537,37678,42129
10522,37664,42106
10507,37651,42075
10502,37641,42041
10498,37632,42010
10480,37615,41979
10454,37596,41948
10435,37580,41923
10420,37572,41902
10398,37565,41876
10374,37555,41847
10357,37544,41823
10342,37537,41803
10323,37528,41782
10306,37516,41761
10300,37508,41743
10296,37500,41725
10284,37488,41707
10273,37478,41691
10272,37477,41684
10281,37483,41693
10298,37498,41713
10329,37524,41752
10377,37560,41815
10433,37603,41899
10497,37652,42005
10579,37711,42132
10680,37782,42279
10788,37856,42437
10899,37933,42601
11019,38020,42771
11147,38118,42946
11274,38219,43122
11397,38317,43292
11519,38411,43459
11638,38504,43623
11746,38591,43780
11842,38667,43920
11932,38730,44042
12016,38786,44156
12089,38834,44258
12150,38874,44347
12204,38912,44429
12250,38946,44502
12285,38970,44558
12312,38984,44597
12337,38996,44630
12359,39010,44663
12372,39020,44691
12382,39023,44710
12396,39029,44728
12411,39041,44747
12421,39053,44762
12430,39061,44770
12444,39069,44779
12451,39074,44788
12447,39073,44793
12437,39070,44794
12435,39070,44798
12436,39072,44803
12433,39072,44805
12427,39071,44807
12424,39068,44815
12419,39061,44826
12411,39052,44835
12409,39049,44843
12414,39053,44853
12413,39057,44863
12403,39056,44868
12395,39055,44869
12396,39059,44873
12392,39062,44880
12385,39062,44885
12388,39062,44886
12397,39068,44890
12401,39074,44896
12396,39073,44891
12388,39065,44875
12381,39054,44860
12370,39036,44843
12353,39014,44820
12338,38996,44794
12325,38982,44773
12306,38968,44757
12288,38955,44741
12281,38946,44726
12278,38939,44711
12269,38929,44689
12259,38918,44661
12258,38914,44637
12261,38914,44622
12259,38913,44612
12255,38911,44601
12261,38914,44598
12273,38924,44606
12281,38938,44618
12288,38951,44627
12301,38963,44635
12315,38979,44643
12324,38991,44647
12332,39000,44649
12341,39012,44653
12347,39022,44659
12345,39027,44666
12338,39031,44677
12328,39034,44690
12311,39034,44701
12288,39025,44704
12273,39014,44703
12268,39008,44703
12261,39003,44704
12248,38991,44700
12238,38973,44693
12233,38957,44684
12222,38941,44666
12201,38922,44638
12178,38902,44606
12159,38885,44576
12137,38865,44545
12107,38842,44509
12077,38821,44472
12049,38807,44438
12014,38790,44402
11976,38767,44361
11945,38744,44320
11918,38724,44283
11888,38701,44241
11859,38676,44192
11838,38656,44147
11821,38637,44110
11798,38618,44070
11773,38599,44026
11756,38584,43987
11739,38574,43954
11717,38565,43922
11695,38555,43889
11683,38555,43865
11674,38564,43850
11660,38572,43836
11645,38572,43818
11632,38567,43803
11614,38557,43787
11587,38540,43761
11561,38522,43728
11538,38504,43698
11513,38482,43670
11488,38454,43637
11469,38428,43602
11456,38409,43571
11436,38392,43542
11409,38373,43509
11386,38354,43474
11370,38342,43442
11348,38331,43411
11317,38317,43378
11287,38300,43344
11256,38279,43307
11221,38254,43265
11182,38224,43221
11151,38199,43182
11128,38181,43151
11101,38167,43121
11074,38150,43090
11055,38134,43066
11040,38121,43051
11020,38104,43037
10999,38081,43019
10987,38062,43001
10981,38050,42984
10977,38041,42963
10976,38034,42939
10979,38032,42919
10980,38036,42907
10971,38041,42894
10957,38045,42875
10947,38050,42856
10936,38056,42836
10918,38056,42810
10898,38046,42782
10876,38032,42758
10844,38011,42737
10799,37981,42706
10752,37945,42667
10709,37911,42628
10665,37878,42593
10624,37843,42556
10593,37809,42514
10576,37784,42473
10559,37761,42429
10539,37737,42383
10528,37720,42344
10526,37717,42320
10517,37720,42304
10501,37720,42284
10489,37723,42261
10482,37729,42244
10474,37732,42237
10462,37727,42230
10447,37714,42224
10428,37698,42220
10398,37677,42213
10360,37651,42198
10324,37630,42174
10294,37616,42151
10268,37602,42127
10243,37585,42094
10224,37570,42057
10211,37555,42018
10198,37538,41976
10186,37519,41931
10180,37509,41892
10178,37510,41869
10174,37515,41858
10179,37525,41861
10204,37551,41887
10251,37596,41950
10314,37653,42046
10390,37717,42164
10480,37788,42297
10579,37863,42446
10679,37935,42602
10787,38010,42760
10901,38090,42922
11011,38175,43091
11115,38257,43256
11220,38335,43415
11327,38413,43570
11424,38487,43720
11507,38550,43857
11585,38605,43985
11663,38657,44107
11733,38699,44213
11793,38734,44303
11854,38773,44386
11917,38820,44469
11967,38866,44548
12001,38900,44609
12032,38927,44653
12064,38951,44688
12090,38971,44716
12111,38984,44730
12132,38996,44736
12151,39008,44743
12162,39017,44752
12166,39021,44753
12169,39023,44751
12170,39025,44751
12164,39021,44747
12154,39007,44735
12143,38989,44727
12132,38974,44725
12117,38961,44721
12100,38949,44714
12088,38944,44713
12081,38946,44718
12069,38948,44718
12053,38942,44711
12039,38936,44703
12027,38931,44693
12012,38923,44677
11998,38909,44656
11989,38896,44637
11979,38890,44622
11969,38885,44608
11966,38882,44592
11970,38888,44582
11974,38897,44575
11971,38900,44563
11968,38901,44548
11969,38905,44542
11966,38910,44545
11954,38910,44541
11944,38906,44531
11941,38906,44527
11931,38903,44524
11912,38891,44514
11896,38880,44509
11887,38874,44508
11878,38867,44503
11867,38857,44491
11861,38850,44479
11862,38848,44473
11863,38848,44470
11861,38846,44467
11861,38841,44463
11864,38837,44463
11863,38835,44464
11857,38831,44464
11858,38828,44466
11863,38829,44471
11865,38828,44473
11866,38824,44469
11872,38826,44468
11884,38841,44477
11900,38862,44487
11915,38884,44494
11931,38906,44506
11944,38924,44519
11947,38936,44528
11946,38939,44530
11949,38940,44530
11950,38939,44527
11941,38929,44517
11920,38906,44499
11891,38879,44474
11856,38851,44444
11816,38820,44409
11780,38788,44371
11750,38762,44339
11721,38738,44313
11687,38713,44285
11654,38687,44251
11633,38669,44217
11613,38657,44184
11588,38642,44148
11564,38624,44114
11547,38608,44087
11528,38592,44061
11504,38579,44031
11484,38574,44001
11469,38574,43977
11450,38576,43955
11431,38575,43930
11418,38573,43907
11408,38570,43885
11391,38561,43857
11367,38547,43819
11346,38534,43776
11326,38523,43737
11298,38507,43701
11269,38485,43661
11246,38462,43623
11224,38443,43592
11195,38424,43562
11165,38402,43534
11142,38385,43510
11123,38370,43488
11100,38354,43466
11073,38338,43441
11048,38327,43417
11023,38315,43394
10992,38292,43367
10958,38265,43336
10927,38241,43305
10897,38220,43272
10863,38197,43234
10832,38172,43195
10811,38148,43158
10790,38131,43123
10765,38113,43081
10748,38091,43032
10738,38071,42993
10720,38051,42961
10691,38026,42930
10663,38005,42899
10643,37992,42879
10626,37984,42866
10605,37975,42849
10589,37969,42828
10577,37968,42812
10562,37966,42800
10542,37955,42784
10521,37935,42762
10505,37919,42742
10488,37908,42723
10469,37898,42698
10456,37889,42671
10446,37880,42647
10430,37867,42619
10414,37850,42584
10409,37836,42551
10410,37831,42528
10409,37832,42514
10403,37833,42504
10395,37836,42497
10385,37844,42493
10370,37850,42489
10352,37852,42480
10338,37849,42467
10327,37840,42452
10311,37825,42436
10293,37808,42419
10279,37793,42402
10275,37783,42393
10278,37777,42396
10293,37781,42417
10329,37801,42461
10387,37839,42529
10460,37889,42618
10551,37951,42730
10660,38029,42869
10775,38114,43027
10886,38200,43191
10999,38292,43364
11118,38394,43547
11235,38500,43732
11338,38593,43906
11430,38675,44066
11523,38754,44217
11613,38828,44359
11693,38889,44489
11766,38939,44604
11834,38987,44704
11892,39029,44784
11943,39062,44848
11994,39091,44906
12046,39120,44961
12088,39144,45008
12120,39159,45045
12148,39171,45077
12170,39182,45107
12180,39184,45129
12176,39176,45141
12172,39169,45150
12171,39169,45163
12166,39171,45178
12160,39170,45188
12164,39169,45195
12169,39168,45199
12161,39162,45198
12146,39147,45187
12137,39136,45173
12136,39132,45161
12138,39129,45152
12145,39124,45147
12165,39125,45146
12184,39131,45147
12195,39138,45145
12207,39148,45140
12224,39161,45144
12238,39176,45158
12244,39193,45176
12251,39211,45196
12259,39231,45220
12261,39248,45241
12254,39256,45255
12243,39257,45264
12232,39259,45273
12216,39259,45272
12192,39246,45256
12171,39224,45231
12161,39205,45206
12149,39189,45174
12131,39162,45131
12115,39130,45082
12100,39097,45038
12078,39065,44996
12051,39038,44958
12031,39022,44928
12020,39019,44909
12010,39021,44896
12002,39025,44884
12003,39030,44873
12011,39039,44868
12014,39049,44864
12017,39057,44864
12032,39069,44873
12050,39087,44892
12061,39103,44916
12070,39114,44936
12085,39125,44953
12103,39134,44972
12116,39137,44989
12127,39140,45006
12142,39151,45030
12158,39166,45057
12168,39172,45077
12172,39172,45086
12176,39176,45092
12175,39185,45099
12163,39187,45100
12151,39185,45095
12145,39181,45088
12136,39174,45079
12118,39159,45062
12097,39141,45037
12078,39124,45012
12058,39105,44985
12032,39083,44950
12004,39063,44910
11981,39047,44874
11952,39028,44841
11917,39006,44805
11889,38989,44773
11874,38981,44751
11862,38974,44730
11849,38966,44702
11843,38962,44675
11837,38964,44649
11821,38964,44619
11797,38956,44585
11776,38945,44556
11753,38935,44532
11718,38920,44504
11677,38901,44464
11642,38879,44423
11610,38854,44385
11575,38825,44347
11539,38797,44307
11514,38774,44271
11494,38753,44239
11469,38726,44202
11439,38693,44156
11417,38660,44109
11400,38630,44065
11379,38601,44024
11359,38576,43984
11348,38560,43950
11340,38550,43921
11327,38541,43890
11313,38533,43858
11307,38533,43836
11300,38541,43820
11287,38546,43806
11279,38547,43796
11279,38551,43787
11276,38558,43778
11262,38558,43763
11242,38554,43745
11219,38548,43728
11193,38535,43707
11165,38516,43677
11143,38498,43647
11126,38485,43620
11097,38468,43590
11060,38441,43554
11025,38405,43518
10998,38371,43482
10972,38343,43444
10946,38319,43405
10927,38299,43370
10913,38283,43342
10898,38263,43316
10882,38243,43284
10873,38232,43251
10865,38231,43223
10851,38231,43204
10834,38226,43185
10828,38219,43169
10827,38217,43157
10820,38214,43143
10811,38210,43127
10807,38206,43113
10798,38199,43099
10775,38189,43081
10745,38182,43058
10720,38182,43031
10695,38179,43006
10663,38169,42977
10632,38150,42942
10603,38124,42904
10577,38097,42867
10554,38071,42834
10543,38050,42811
10552,38041,42809
10572,38044,42832
10596,38057,42870
10636,38082,42925
10699,38122,43006
10779,38175,43113
10867,38240,43234
10963,38317,43367
11063,38402,43515
11163,38489,43676
11262,38574,43843
11373,38661,44020
11495,38756,44211
11613,38853,44409
11727,38945,44602
11845,39034,44784
11960,39120,44956
12061,39194,45113
12154,39259,45252
12248,39321,45375
12335,39381,45488
12402,39437,45590
12451,39486,45673
12494,39528,45742
12536,39564,45805
12568,39588,45857
12591,39603,45896
12615,39615,45931
12636,39627,45965
12643,39632,45992
12641,39627,46005
12642,39617,46009
12649,39608,46012
12652,39603,46015
12659,39601,46016
12676,39605,46018
12694,39610,46022
12709,39612,46027
12726,39617,46034
12754,39628,46051
12783,39650,46080
12803,39673,46113
12819,39693,46146
12839,39711,46178
12859,39732,46209
12869,39749,46236
12877,39763,46259
12890,39776,46283
12899,39787,46306
12900,39790,46318
12905,39787,46316
12912,39783,46313
12910,39773,46309
12898,39757,46305
12892,39746,46304
12894,39745,46310
12897,39746,46318
12896,39745,46320
12899,39749,46317
12903,39757,46312
12900,39761,46303
12893,39757,46288
12885,39746,46274
12870,39734,46261
12844,39722,46244
12814,39706,46220
12790,39689,46193
12776,39676,46167
12765,39666,46137
12756,39658,46102
12755,39658,46073
12760,39669,46060
12763,39682,46054
12765,39694,46052
12773,39708,46059
12784,39722,46075
12787,39728,46089
12784,39726,46096
12782,39722,46097
12780,39717,46094
12770,39704,46086
12756,39682,46074
12745,39662,46065
12733,39648,46059
12717,39637,46050
12702,39629,46036
12697,39622,46027
12697,39614,46022
12699,39605,46013
12710,39602,46002
12726,39609,45998
12735,39621,45996
12730,39629,45991
12726,39638,45991
12723,39650,45998
12712,39657,46002
12689,39652,45993
12661,39638,45973
12632,39618,45944
12594,39589,45905
12556,39557,45858
12531,39530,45809
12518,39509,45767
12502,39491,45731
12486,39471,45698
12476,39457,45674
12470,39448,45657
12455,39436,45637
12434,39421,45612
12416,39412,45588
12399,39405,45565
12372,39389,45535
12339,39366,45497
12305,39345,45455
12267,39329,45413
12223,39314,45369
12181,39295,45322
12142,39272,45275
12106,39245,45229
12067,39216,45177
12025,39185,45117
11987,39160,45056
11950,39137,45000
11913,39113,44951
11885,39091,44910
11871,39078,44879
11860,39069,44852
11845,39055,44821
11827,39035,44788
11812,39018,44761
11792,39008,44740
11767,38998,44721
11747,38992,44707
11731,38986,44694
11705,38972,44675
11671,38950,44648
11639,38927,44615
11609,38905,44578
11574,38879,44538
11530,38845,44487
11488,38809,44429
11451,38778,44375
11418,38749,44325
11385,38717,44277
11354,38687,44230
11324,38663,44186
11294,38646,44143
11266,38634,44101
11247,38623,44066
11232,38614,44043
11214,38605,44028
11193,38595,44011
11182,38589,43993
11176,38586,43975
11163,38581,43955
11145,38573,43931
11129,38566,43907
11112,38559,43886
11088,38545,43864
11055,38526,43836
11022,38511,43809
10987,38497,43781
10948,38474,43744
10906,38447,43699
10864,38424,43654
10819,38402,43608
10774,38373,43561
10735,38342,43519
10709,38313,43485
10685,38284,43455
10655,38253,43418
10628,38223,43376
10606,38202,43337
10584,38186,43300
10565,38168,43259
10558,38152,43221
10558,38143,43194
10551,38139,43175
10536,38132,43155
10525,38127,43138
10520,38126,43127
10510,38125,43117
10489,38121,43100
10470,38118,43080
10454,38115,43064
10431,38107,43044
10402,38091,43016
10376,38074,42983
10353,38060,42951
10330,38049,42915
10310,38036,42874
10298,38023,42834
10282,38014,42799
10258,38000,42768
10229,37978,42738
10206,37955,42715
10194,37942,42710
10196,37941,42721
10215,37950,42749
10259,37977,42804
10324,38024,42888
10406,38083,42994
10507,38157,43122
10627,38250,43278
10757,38355,43455
10890,38461,43643
11032,38567,43837
11185,38678,44040
11337,38789,44249
11476,38892,44451
11609,38987,44645
11739,39080,44831
11859,39172,45008
11960,39256,45174
12053,39331,45334
12144,39399,45490
12218,39454,45633
12276,39489,45753
12331,39516,45851
12383,39543,45933
12421,39567,46001
12446,39587,46057
12470,39605,46103
12498,39623,46146
12518,39636,46182
12527,39642,46204
12533,39647,46213
12541,39654,46221
12548,39655,46227
12557,39651,46228
12578,39654,46227
12605,39662,46236
12626,39666,46250
12642,39673,46264
12659,39691,46281
12674,39719,46308
12685,39746,46334
12694,39768,46351
12708,39788,46363
12726,39809,46380
12739,39827,46401
12753,39841,46420
12769,39853,46441
12779,39860,46463
12776,39860,46480
12769,39855,46492
12763,39847,46501
12751,39838,46508
12731,39823,46509
12716,39808,46505
12708,39796,46499
12696,39788,46493
12679,39777,46480
12664,39767,46462
12661,39764,46448
12664,39762,46435
12665,39754,46412
12668,39741,46383
12674,39731,46358
12676,39725,46340
12672,39723,46321
12672,39728,46305
12676,39742,46296
12676,39760,46295
12669,39771,46295
12658,39773,46298
12646,39770,46301
12632,39761,46298
12614,39744,46289
12600,39728,46282
12590,39715,46274
12574,39704,46261
12557,39697,46244
12551,39693,46231
12551,39694,46225
12550,39694,46223
12552,39696,46219
12566,39706,46220
12587,39724,46233
12604,39741,46251
12620,39757,46268
12640,39775,46284
12655,39790,46294
12655,39794,46295
12648,39787,46285
12639,39774,46271
12629,39761,46260
12612,39743,46243
12590,39721,46221
12573,39703,46198
12556,39687,46173
12536,39670,46143
12518,39652,46110
12507,39641,46083
12493,39636,46060
12472,39629,46035
12452,39623,46010
12432,39622,45992
12401,39622,45977
12366,39620,45961
12343,39619,45943
12328,39616,45926
12305,39605,45904
12270,39578,45869
12231,39540,45823
12198,39500,45772
12163,39459,45712
12127,39419,45647
12093,39385,45587
12062,39355,45535
12031,39324,45485
12002,39292,45433
11977,39268,45383
11953,39253,45341
11922,39239,45304
11890,39220,45263
11868,39206,45222
11854,39199,45189
11836,39193,45165
11816,39185,45144
11800,39180,45124
11782,39174,45105
11756,39161,45081
11727,39145,45051
11699,39127,45020
11669,39107,44990
11631,39083,44957
11593,39058,44922
11561,39037,44887
11528,39015,44852
11494,38990,44812
11469,38968,44770
11458,38956,44733
11449,38947,44700
11432,38939,44665
11414,38931,44631
11397,38924,44600
11373,38916,44571
11339,38901,44540
11306,38886,44508
11278,38875,44482
11243,38857,44456
11200,38827,44421
11155,38797,44373
11117,38772,44321
11083,38744,44270
11053,38714,44217
11036,38691,44167
11026,38675,44126
11009,38657,44091
10987,38633,44057
10971,38611,44026
10959,38595,44004
10940,38578,43986
10913,38559,43964
10885,38543,43946
10857,38534,43936
10824,38525,43923
10790,38513,43900
10762,38499,43873
10729,38480,43838
10684,38450,43789
10635,38412,43728
10597,38377,43666
10566,38350,43609
10533,38327,43558
10501,38308,43512
10477,38296,43476
10462,38284,43450
10450,38270,43427
10440,38259,43402
10434,38251,43381
10424,38241,43363
10404,38228,43342
10380,38214,43316
10354,38203,43290
10322,38192,43263
10281,38170,43229
10237,38137,43190
10196,38103,43149
10154,38067,43102
10110,38030,43051
10073,37998,43001
10048,37976,42960
10029,37962,42928
10008,37948,42898
9993,37937,42871
9992,37935,42853
9995,37938,42839
9995,37937,42823
9996,37935,42808
9995,37935,42793
9978,37929,42771
9950,37912,42745
9923,37892,42722
9897,37876,42700
9869,37863,42681
9847,37854,42669
9838,37851,42668
9844,37856,42684
9861,37869,42722
9894,37891,42781
9949,37925,42860
10019,37974,42962
10096,38032,43083
10187,38101,43219
10300,38186,43376
10429,38284,43548
10568,38389,43728
10714,38499,43917
10865,38618,44119
11009,38737,44328
11141,38845,44531
11265,38944,44728
11385,39037,44922
11495,39121,45106
11590,39193,45270
11678,39254,45418
11765,39310,45552
11842,39364,45670
11901,39409,45767
11947,39445,45846
11986,39479,45918
12009,39505,45979
12018,39520,46019
12026,39526,46042
12035,39528,46054
12037,39524,46053
12036,39511,46042
12037,39501,46030
12040,39496,46024
12040,39490,46019
12034,39478,46011
12035,39470,46002
12041,39472,45998
12047,39478,45995
12050,39483,45990
12057,39490,45986
12068,39500,45990
12075,39508,45998
12080,39514,46006
12088,39522,46019
12099,39537,46037
12107,39556,46054
12116,39573,46068
12130,39589,46084
12142,39604,46103
12144,39613,46122
12140,39615,46133
12137,39612,46136
12130,39604,46130
12115,39591,46114
12103,39575,46096
12095,39555,46078
12084,39533,46059
12070,39512,46039
12059,39494,46018
12058,39485,46000
12055,39481,45986
12041,39475,45970
12023,39469,45950
12008,39468,45932
11989,39466,45912
11962,39458,45887
11942,39452,45864
11931,39450,45847
11917,39442,45833
11899,39428,45816
11891,39415,45804
11896,39410,45799
11902,39409,45796
11905,39406,45791
11912,39404,45789
11923,39411,45798
11924,39421,45812
11919,39428,45823
11919,39437,45833
11920,39449,45845
11912,39454,45854
11903,39449,45856
11902,39447,45859
11902,39450,45861
11894,39447,45855
11883,39435,45839
11876,39424,45823
11872,39415,45813
11863,39404,45803
11852,39392,45785
11845,39384,45765
11841,39380,45751
11831,39375,45740
11819,39370,45730
11814,39371,45725
11811,39375,45722
11806,39377,45715
11800,39372,45703
11796,39366,45686
11788,39361,45669
11772,39349,45653
11754,39330,45635
11735,39311,45616
11705,39291,45589
11666,39269,45552
11631,39246,45513
11603,39225,45476
11567,39202,45437
11521,39173,45388
11470,39140,45332
11419,39107,45274
11365,39074,45209
11314,39036,45138
11272,38999,45070
11238,38970,45011
11208,38945,44958
11181,38921,44910
11160,38903,44870
11143,38890,44836
11122,38876,44804
11099,38860,44768
11085,38848,44728
11081,38842,44693
11078,38837,44665
11071,38830,44639
11058,38823,44616
11042,38819,44598
11020,38811,44577
10995,38799,44550
10977,38793,44522
10960,38792,44499
10935,38784,44477
10903,38767,44449
10868,38742,44410
10828,38711,44368
10780,38672,44324
10733,38629,44281
10692,38589,44242
10647,38551,44204
10600,38513,44161
10560,38480,44116
10535,38458,44078
10517,38443,44047
10498,38429,44013
10484,38417,43972
10475,38407,43933
10459,38393,43898
10435,38376,43867
10418,38366,43842
10409,38366,43826
10393,38367,43811
10367,38361,43787
10337,38351,43758
10303,38338,43727
10259,38318,43686
10212,38289,43633
10172,38260,43576
10143,38236,43526
10114,38212,43485
10083,38188,43450
10059,38167,43422
10038,38151,43399
10011,38138,43374
9982,38122,43343
9962,38115,43314
9946,38116,43296
9921,38116,43281
9889,38108,43262
9858,38096,43241
9829,38079,43219
9796,38052,43189
9763,38020,43149
9732,37990,43108
9704,37963,43074
9675,37938,43042
9650,37918,43007
9637,37906,42974
9629,37899,42943
9618,37892,42910
9612,37882,42877
9615,37879,42851
9617,37881,42832
9605,37879,42814
9591,37873,42796
9579,37867,42780
9564,37863,42767
9540,37859,42759
9521,37858,42759
9522,37868,42776
9538,37885,42807
9567,37901,42851
9617,37921,42913
9692,37958,43002
9779,38011,43117
9872,38073,43252
9974,38149,43404
10091,38245,43579
10216,38354,43770
10345,38463,43965
10479,38572,44165
10612,38681,44371
10732,38782,44574
10842,38872,44763
10949,38958,44937
11049,39038,45095
11133,39109,45233
11203,39170,45350
11271,39226,45454
11334,39275,45549
11382,39310,45628
11423,39332,45683
11461,39348,45723
11490,39359,45756
11505,39359,45778
11516,39349,45788
11524,39338,45791
11525,39329,45795
11519,39319,45796
11513,39314,45790
11512,39317,45786
11508,39321,45788
11501,39318,45786
11496,39312,45778
11499,39310,45772
11505,39314,45771
11508,39317,45770
11516,39318,45768
11525,39324,45770
11526,39332,45773
11520,39339,45772
11522,39344,45771
11526,39349,45773
11518,39348,45773
11500,39339,45766
11483,39324,45754
11474,39314,45744
11463,39303,45731
11444,39288,45711
11424,39274,45688
11408,39261,45666
11391,39245,45639
11373,39226,45605
11359,39211,45572
11348,39198,45547
11331,39181,45525
11308,39160,45498
11287,39142,45466
11268,39129,45436
11244,39116,45402
11217,39103,45364
11198,39098,45330
11190,39102,45304
11186,39108,45286
11184,39112,45271
11190,39118,45262
11197,39126,45264
11201,39136,45273
11203,39145,45292
11209,39155,45320
11211,39162,45348
11199,39162,45368
11185,39156,45378
11180,39155,45385
11178,39159,45393
11172,39162,45395
11168,39164,45393
11173,39166,45392
11181,39161,45392
11186,39149,45388
11193,39136,45380
11204,39128,45372
11210,39119,45364
11202,39106,45349
11186,39090,45328
11171,39078,45310
11150,39065,45296
11125,39047,45277
11108,39035,45259
11101,39033,45249
11091,39030,45235
11077,39020,45210
11070,39009,45183
11063,38999,45160
11047,38988,45137
11029,38980,45114
11020,38982,45093
11012,38986,45072
10996,38985,45050
10974,38979,45022
10953,38974,44994
10932,38969,44976
10906,38961,44963
10878,38944,44942
10852,38924,44916
10829,38908,44888
10803,38890,44854
10774,38866,44811
10745,38836,44764
10706,38803,44716
10655,38764,44663
10605,38717,44601
10563,38671,44541
10520,38630,44484
10472,38593,44430
10427,38563,44379
10394,38541,44330
10362,38524,44277
10322,38503,44223
10286,38479,44170
10262,38461,44123
10243,38444,44081
10220,38425,44045
10197,38410,44015
10179,38401,43991
10161,38391,43966
10139,38376,43931
10119,38360,43890
10107,38351,43855
10095,38349,43828
10079,38344,43803
10067,38336,43780
10059,38332,43761
10042,38329,43742
10019,38320,43717
10000,38307,43691
9983,38295,43664
9961,38280,43632
9936,38256,43593
9911,38226,43556
9884,38199,43522
9850,38178,43484
9813,38159,43444
9780,38141,43407
9749,38120,43373
9712,38094,43335
9677,38067,43294
9654,38044,43257
9634,38026,43226
9608,38003,43192
9581,37978,43155
9565,37963,43124
9560,37959,43103
9555,37959,43088
9552,37959,43074
9553,37962,43063
9551,37966,43050
9539,37964,43034
9524,37960,43015
9507,37955,42996
9482,37948,42975
9447,37934,42950
9410,37917,42923
9380,37899,42896
9353,37879,42865
9327,37856,42831
9314,37838,42799
9322,37832,42785
9345,37839,42798
9379,37858,42839
9433,37894,42905
9509,37953,42999
9596,38029,43118
9686,38111,43255
9781,38197,43409
9884,38290,43585
9993,38386,43775
10110,38483,43968
10237,38579,44166
10369,38671,44366
10495,38752,44557
10613,38826,44733
10729,38900,44901
10841,38978,45067
10944,39054,45225
11042,39124,45373
11141,39195,45512
11241,39271,45646
11331,39342,45764
11406,39397,45863
11471,39442,45945
11523,39478,46010
11559,39498,46059
11584,39508,46095
11602,39517,46128
11610,39525,46154
11609,39528,46168
11605,39526,46170
11603,39525,46171
11599,39524,46173
11584,39518,46172
11562,39510,46170
11547,39506,46169
11537,39502,46166
11525,39497,46156
11520,39494,46143
11518,39494,46136
11509,39490,46133
11496,39480,46127
11489,39469,46121
11494,39465,46120
11499,39467,46123
11499,39468,46125
11500,39472,46125
11509,39476,46123
11520,39478,46119
11528,39478,46115
11535,39482,46115
11544,39489,46118
11551,39493,46120
11552,39495,46118
11553,39496,46111
11554,39498,46105
11548,39495,46099
11537,39489,46089
11526,39487,46082
11514,39484,46074
11493,39471,46055
11467,39447,46024
11439,39418,45986
11411,39387,45945
11380,39354,45899
11352,39324,45854
11336,39303,45823
11330,39290,45805
11327,39284,45789
11327,39280,45771
11335,39279,45758
11342,39281,45754
11346,39283,45754
11353,39292,45755
11364,39309,45764
11375,39327,45778
11380,39342,45789
11386,39358,45799
11396,39377,45811
11405,39394,45823
11401,39400,45828
11385,39400,45828
11365,39402,45832
11345,39406,45841
11328,39408,45845
11323,39408,45844
11324,39406,45840
11319,39395,45830
11312,39380,45813
11308,39366,45792
11309,39354,45772
11308,39344,45752
11303,39333,45730
11297,39324,45710
11294,39323,45698
11285,39322,45686
11273,39317,45667
11263,39311,45648
11250,39304,45633
11230,39291,45617
11203,39270,45593
11176,39246,45566
11146,39228,45539
11107,39209,45507
11062,39185,45464
11013,39155,45412
10963,39118,45352
10913,39077,45287
10866,39034,45219
10823,38991,45156
10784,38953,45101
10745,38915,45049
10711,38877,45000
10684,38845,44956
10656,38818,44914
10628,38797,44874
10606,38783,44837
10591,38776,44802
10574,38771,44766
10553,38769,44726
10533,38769,44686
10512,38772,44654
10479,38771,44631
10435,38758,44606
10394,38736,44574
10358,38711,44540
10319,38687,44503
10278,38660,44460
10245,38633,44410
10224,38608,44359
10207,38578,44308
10187,38542,44257
10167,38508,44209
10151,38482,44167
10135,38463,44129
10116,38447,44091
10097,38435,44055
10077,38429,44023
10053,38427,43995
10031,38425,43968
10019,38425,43947
10008,38424,43929
9987,38414,43908
9961,38396,43883
9938,38380,43859
9909,38361,43837
9866,38332,43806
9820,38297,43763
9778,38261,43715
9738,38224,43663
9697,38188,43607
9659,38151,43553
9629,38119,43504
9601,38093,43458
9571,38071,43412
9548,38048,43367
9531,38034,43329
9513,38026,43296
9491,38019,43264
9474,38011,43233
9463,38009,43207
9451,38010,43184
9439,38011,43163
9435,38012,43148
9433,38012,43141
9422,38007,43136
9397,37994,43123
9370,37976,43098
9348,37953,43065
9324,37925,43031
9291,37891,42993
9254,37856,42957
9218,37826,42926
9180,37800,42898
9142,37775,42868
9112,37751,42835
9091,37731,42804
9075,37716,42775
9062,37702,42749
9061,37694,42726
9070,37696,42712
9083,37705,42711
9103,37723,42728
9139,37753,42770
9191,37801,42846
9259,37863,42952
9343,37937,43084
9442,38024,43244
9553,38117,43422
9669,38210,43605
9791,38305,43794
9925,38411,43994
10062,38525,44202
10193,38638,44406
10319,38747,44600
10439,38854,44787
10554,38957,44968
10661,39046,45138
10765,39122,45299
10865,39191,45450
10957,39247,45583
11038,39289,45695
11113,39325,45795
11184,39362,45888
11245,39397,45970
11295,39426,46036
11340,39452,46089
11382,39477,46133
11414,39499,46170
11441,39518,46200
11471,39537,46230
11500,39556,46261
11526,39575,46292
11547,39594,46319
11560,39611,46340
11565,39621,46358
11562,39624,46376
11555,39621,46392
11551,39618,46406
11549,39616,46416
11542,39612,46419
11536,39606,46414
11534,39602,46408
11533,39596,46400
11526,39582,46385
11514,39561,46365
11501,39543,46349
11493,39532,46340
11489,39524,46334
11495,39522,46332
11515,39530,46334
11542,39545,46340
11562,39562,46352
11575,39580,46364
11587,39603,46380
11593,39628,46402
11592,39650,46426
11594,39662,46450
11596,39667,46466
11590,39668,46469
11573,39658,46460
11551,39640,46442
11528,39617,46417
11503,39589,46381
11477,39555,46336
11457,39523,46290
11443,39497,46252
11426,39473,46216
11403,39448,46179
11378,39424,46145
11361,39406,46123
11352,39393,46106
11348,39383,46092
11353,39383,46086
11364,39392,46088
11364,39405,46089
11355,39414,46089
11345,39420,46093
11334,39428,46103
11320,39435,46113
11306,39438,46115
11298,39445,46114
11292,39457,46118
11283,39464,46125
11272,39462,46130
11262,39454,46134
11252,39444,46134
11240,39430,46126
11224,39412,46109
11206,39395,46090
11188,39381,46076
11168,39364,46061
11155,39347,46044
11150,39336,46023
11148,39325,46000
11144,39310,45975
11142,39295,45948
11143,39285,45925
11143,39276,45906
11137,39263,45881
11130,39251,45847
11120,39241,45815
11104,39231,45788
11086,39220,45762
11073,39211,45739
11062,39207,45721
11044,39206,45702
11015,39197,45675
10982,39181,45645
10951,39166,45615
10920,39152,45583
10888,39136,45550
10856,39116,45515
10820,39095,45476
10777,39066,45431
10725,39027,45376
10669,38983,45314
10616,38941,45251
10567,38902,45190
10524,38863,45132
10492,38828,45080
10466,38800,45029
10436,38774,44977
10408,38744,44926
10388,38715,44879
10370,38698,44838
10345,38688,44797
10321,38677,44755
10307,38670,44720
10297,38669,44695
10282,38665,44670
10266,38659,44642
10253,38657,44619
10236,38657,44604
10211,38654,44590
10183,38644,44565
10157,38630,44528
10131,38609,44484
10101,38582,44436
10071,38556,44388
10038,38530,44340
9998,38498,44292
9951,38462,44244
9907,38429,44199
9875,38403,44159
9843,38382,44123
9807,38360,44087
9777,38336,44053
9758,38317,44023
9746,38308,43999
9732,38302,43975
9719,38295,43955
9713,38292,43941
9711,38292,43927
9708,38287,43904
9702,38277,43874
9689,38262,43844
9663,38239,43811
9629,38211,43774
9595,38183,43734
9562,38161,43695
9526,38140,43658
9489,38116,43619
9457,38097,43585
9431,38083,43556
9409,38066,43528
9390,38044,43496
9379,38024,43466
9372,38014,43443
9360,38012,43421
9344,38012,43397
9324,38012,43371
9300,38009,43345
9271,37995,43314
9237,37969,43274
9204,37941,43227
9171,37912,43179
9134,37883,43131
9106,37860,43085
9095,37849,43052
9094,37844,43031
9095,37842,43014
9098,37841,42995
9101,37840,42978
9096,37839,42963
9084,37835,42948
9069,37831,42930
9050,37824,42911
9020,37811,42891
8981,37789,42860
8942,37762,42818
8912,37738,42781
8887,37716,42756
8872,37701,42746
8880,37702,42760
8910,37724,42807
8960,37763,42882
9030,37815,42979
9124,37884,43100
9232,37971,43246
9346,38069,43412
9469,38173,43592
9605,38283,43788
9748,38401,43991
9890,38521,44191
10027,38634,44388
10165,38740,44587
10301,38842,44784
10431,38936,44969
10553,39021,45139
10667,39099,45295
10770,39171,45440
10863,39234,45569
10944,39286,45680
11021,39331,45776
11093,39372,45864
11153,39409,45946
11205,39442,46019
11256,39474,46084
11299,39502,46138
11329,39526,46178
11350,39549,46206
11364,39570,46232
11370,39589,46260
11369,39598,46279
11369,39594,46290
11369,39587,46300
11360,39579,46307
11346,39565,46305
11340,39548,46302
11340,39537,46299
11336,39526,46289
11329,39508,46271
11328,39485,46251
11332,39469,46235
11335,39465,46223
11338,39468,46214
11349,39479,46211
11367,39495,46217
11384,39511,46228
11402,39526,46242
11423,39544,46262
11445,39564,46287
11460,39580,46316
11470,39596,46343
11482,39613,46363
11495,39627,46375
11496,39631,46381
11483,39627,46381
11469,39618,46381
11453,39610,46380
11431,39601,46372
11410,39590,46352
11398,39578,46324
11388,39566,46296
11372,39551,46265
11356,39531,46236
11347,39509,46210
11341,39490,46190
11331,39472,46172
11321,39458,46154
11316,39452,46140
11311,39455,46128
11303,39460,46120
11299,39463,46117
11303,39472,46117
11311,39483,46116
11313,39489,46114
11311,39491,46112
11312,39493,46115
11314,39497,46123
11313,39497,46128
11318,39499,46136
11331,39507,46150
11342,39514,46164
11335,39510,46169
11316,39500,46164
11297,39490,46156
11278,39481,46143
11261,39468,46124
11252,39455,46107
11246,39443,46093
11239,39429,46079
11232,39413,46062
11233,39404,46045
11240,39404,46033
11247,39410,46022
11250,39414,46011
11252,39419,46007
11252,39428,46009
11240,39437,46013
11227,39443,46011
11219,39446,46005
11209,39441,45995
11189,39425,45977
11164,39395,45945
11137,39355,45903
11107,39317,45854
11070,39282,45801
11034,39253,45749
11007,39229,45701
10985,39208,45658
10966,39186,45613
10949,39164,45566
10935,39153,45526
10920,39149,45495
10898,39144,45467
10874,39139,45435
10850,39135,45400
10826,39131,45364
10802,39126,45333
10781,39117,45308
10762,39107,45287
10742,39097,45267
10716,39081,45241
10690,39058,45202
10664,39033,45157
10628,38998,45110
10579,38954,45057
10528,38911,45000
10484,38878,44950
10442,38851,44904
10401,38828,44858
10372,38812,44814
10355,38805,44777
10341,38797,44738
10328,38786,44701
10319,38775,44670
10309,38768,44644
10292,38764,44616
10269,38755,44583
10244,38738,44547
10220,38718,44517
10198,38700,44491
10177,38677,44457
10153,38651,44415
10121,38623,44374
10082,38589,44335
10043,38552,44297
10011,38521,44264
9984,38497,44233
9958,38480,44203
9934,38468,44174
9914,38464,44153
9901,38469,44136
9894,38474,44119
9892,38476,44101
9896,38480,44084
9894,38482,44064
9880,38482,44041
9860,38482,44021
9839,38481,44003
9816,38473,43980
9786,38449,43947
9756,38414,43909
9731,38382,43872
9704,38354,43835
9675,38323,43792
9650,38294,43745
9630,38275,43700
9610,38261,43660
9589,38248,43624
9571,38237,43596
9555,38231,43577
9537,38228,43563
9517,38221,43549
9499,38213,43534
9481,38208,43516
9457,38204,43494
9432,38197,43466
9406,38187,43436
9378,38172,43406
9344,38148,43374
9306,38120,43337
9272,38091,43298
9244,38063,43262
9218,38035,43225
9196,38009,43182
9182,37987,43142
9173,37976,43109
9164,37972,43076
9154,37968,43044
9147,37967,43025
9140,37969,43015
9128,37970,43011
9117,37972,43011
9114,37981,43018
9116,37998,43030
9121,38014,43053
9140,38034,43096
9179,38064,43160
9236,38104,43246
9305,38151,43352
9389,38207,43476
9491,38275,43621
9608,38348,43777
9733,38427,43940
9866,38513,44107
10005,38606,44281
10143,38704,44464
10277,38803,44650
10412,38903,44835
10547,39005,45020
10674,39103,45200
10782,39193,45365
10876,39272,45515
10959,39339,45648
11023,39393,45760
11065,39432,45848
11096,39460,45918
11121,39484,45972
11138,39502,46009
11151,39512,46032
11157,39513,46047
11156,39508,46058
11149,39496,46059
11144,39479,46054
11149,39466,46049
11160,39461,46047
11170,39459,46043
11177,39459,46034
11189,39465,46027
11201,39474,46025
11207,39478,46024
11211,39479,46024
11218,39484,46025
11220,39490,46023
11211,39491,46012
11197,39488,45995
11183,39484,45981
11168,39473,45975
11147,39454,45969
11124,39438,45962
11105,39431,45960
11087,39430,45959
11068,39426,45954
11052,39418,45945
11047,39411,45939
11047,39402,45935
11053,39394,45932
11068,39394,45932
11087,39399,45933
11098,39400,45930
11100,39398,45921
11099,39396,45911
11096,39397,45902
11089,39399,45893
11075,39399,45883
11062,39399,45870
11050,39394,45854
11031,39377,45831
11007,39351,45804
10987,39324,45783
10969,39309,45772
10948,39306,45764
10929,39302,45750
10917,39297,45738
10910,39293,45732
10903,39287,45722
10895,39279,45706
10891,39272,45689
10892,39269,45674
10891,39265,45662
10892,39260,45655
10903,39262,45654
10917,39270,45659
10928,39279,45672
10941,39291,45687
10960,39308,45708
10972,39329,45733
10974,39342,45752
10971,39348,45762
10969,39350,45773
10964,39348,45787
10958,39341,45799
10955,39334,45806
10958,39335,45810
10960,39340,45807
10954,39337,45791
10946,39330,45765
10939,39323,45735
10922,39315,45703
10890,39294,45667
10852,39265,45629
10814,39237,45595
10779,39213,45562
10747,39191,45525
10721,39170,45486
10703,39153,45450
10685,39137,45418
10671,39123,45385
10667,39117,45356
10666,39117,45335
10658,39115,45316
10646,39107,45292
10634,39098,45267
10619,39090,45249
10597,39078,45233
10573,39057,45210
10553,39033,45182
10529,39010,45153
10497,38983,45119
10461,38953,45080
10425,38927,45038
10389,38906,44996
10348,38882,44951
10301,38853,44902
10251,38824,44855
10202,38798,44809
10158,38771,44756
10128,38747,44700
10118,38731,44651
10113,38717,44607
10103,38703,44564
10092,38691,44523
10085,38685,44490
10079,38679,44463
10069,38667,44438
10056,38652,44414
10038,38638,44398
10010,38623,44390
9980,38606,44379
9956,38592,44361
9936,38579,44343
9908,38561,44324
9877,38539,44299
9849,38515,44270
9823,38491,44241
9795,38468,44210
9764,38447,44172
9738,38430,44133
9719,38420,44102
9704,38413,44072
9692,38407,44041
9686,38403,44011
9681,38402,43984
9671,38399,43955
9660,38392,43923
9657,38389,43896
9658,38389,43881
9652,38386,43865
9638,38379,43843
9627,38371,43820
9616,38364,43805
9599,38351,43795
9574,38331,43781
9548,38306,43761
9522,38280,43735
9492,38253,43706
9456,38226,43673
9419,38203,43639
9380,38183,43607
9336,38161,43577
9295,38140,43548
9261,38123,43521
9227,38107,43496
9191,38088,43471
9161,38071,43447
9139,38059,43426
9121,38049,43401
9104,38032,43365
9091,38010,43321
9082,37994,43282
9071,37986,43250
9055,37980,43220
9043,37974,43193
9042,37972,43178
9052,37979,43177
9072,37994,43189
9108,38019,43219
9160,38053,43273
9218,38092,43351
9283,38140,43445
9360,38201,43556
9448,38275,43688
9541,38358,43836
9641,38442,43993
9753,38528,44162
9872,38618,44340
9985,38705,44517
10088,38786,44686
10191,38860,44848
10293,38928,45000
10387,38990,45142
10471,39049,45273
10549,39111,45397
10618,39169,45515
10673,39213,45616
10717,39246,45696
10753,39270,45756
10783,39288,45802
10805,39302,45832
10820,39311,45846
10829,39319,45850
10826,39324,45849
10808,39320,45840
10786,39311,45829
10766,39305,45821
10745,39298,45813
10722,39280,45799
10708,39255,45778
10702,39231,45759
10696,39212,45746
10690,39197,45733
10692,39188,45718
10705,39185,45710
10719,39189,45715
10724,39195,45723
10725,39206,45729
10731,39224,45734
10739,39240,45734
10748,39252,45733
10763,39266,45740
10777,39281,45752
10780,39291,45760
10778,39294,45763
10780,39295,45764
10787,39300,45768
10793,39306,45770
10796,39309,45760
10799,39307,45746
10796,39303,45734
10782,39292,45719
10763,39277,45697
10745,39260,45671
10727,39243,45646
10710,39224,45626
10693,39200,45602
10672,39177,45573
10649,39155,45541
10625,39131,45508
10607,39112,45476
10597,39098,45448
10593,39088,45426
10594,39079,45409
10601,39072,45395
10613,39070,45386
10624,39071,45387
10631,39071,45395
10640,39076,45407
10656,39089,45430
10672,39105,45458
10680,39116,45479
10685,39125,45494
10695,39140,45508
10708,39159,45523
10720,39175,45536
10736,39191,45552
10755,39209,45574
10770,39217,45599
10777,39212,45621
10777,39205,45640
10770,39204,45652
10756,39206,45652
10734,39205,45636
10712,39200,45609
10692,39195,45580
10667,39186,45550
10641,39173,45515
10620,39163,45478
10599,39156,45442
10567,39140,45403
10531,39117,45360
10505,39094,45319
10491,39075,45287
10481,39059,45261
10472,39045,45235
10468,39036,45212
10465,39030,45187
10460,39021,45163
10452,39014,45141
10445,39011,45127
10439,39010,45118
10424,39004,45110
10398,38990,45094
10372,38971,45074
10341,38951,45051
10306,38929,45023
10276,38908,44988
10249,38889,44951
10218,38869,44914
10186,38844,44873
10159,38821,44833
10136,38801,44798
10107,38778,44763
10071,38749,44722
10038,38722,44673
10015,38700,44623
9993,38675,44573
9965,38651,44526
9937,38634,44485
9918,38626,44451
9904,38620,44423
9888,38611,44397
9871,38601,44373
9853,38591,44356
9832,38574,44341
9810,38553,44321
9789,38537,44300
9768,38526,44282
9740,38512,44263
9714,38495,44241
9700,38481,44215
9686,38471,44190
9666,38459,44162
9645,38443,44130
9628,38428,44098
9609,38413,44066
9583,38392,44031
9557,38369,43993
9541,38351,43957
9526,38339,43923
9506,38332,43893
9489,38327,43872
9479,38324,43862
9472,38325,43861
9465,38329,43861
9459,38331,43858
9456,38331,43852
9453,38330,43848
9446,38326,43842
9437,38319,43835
9428,38311,43821
9413,38301,43795
9390,38286,43763
9369,38269,43733
9354,38254,43707
9340,38240,43684
9323,38228,43664
9316,38225,43653
9325,38239,43659
9348,38262,43682
9382,38287,43720
9435,38322,43782
9507,38373,43874
9591,38436,43992
9683,38506,44126
9787,38586,44274
9902,38679,44440
10023,38779,44621
10145,38879,44804
10274,38979,44984
10402,39076,45160
10514,39164,45325
10617,39241,45484
10720,39314,45636
10816,39383,45782
10894,39443,45915
10955,39492,46025
11009,39531,46113
11056,39563,46186
11092,39584,46246
11120,39597,46293
11149,39608,46330
11174,39617,46357
11194,39625,46376
11218,39637,46391
11251,39655,46406
11285,39674,46422
11311,39690,46434
11331,39704,46439
11353,39717,46445
11376,39730,46458
11395,39740,46475
11413,39750,46492
11427,39760,46512
11433,39768,46531
11429,39769,46543
11424,39771,46552
11421,39778,46564
11414,39782,46577
11405,39782,46584
11403,39788,46589
11405,39795,46597
11403,39795,46609
11394,39788,46621
11384,39778,46633
11381,39768,46640
11384,39754,46637
11385,39737,46629
11384,39721,46624
11382,39705,46619
11375,39689,46614
11363,39678,46602
11350,39675,46589
11339,39677,46577
11329,39671,46559
11321,39657,46531
11316,39646,46501
11311,39640,46475
11298,39634,46446
11285,39627,46416
11285,39624,46393
11288,39623,46378
11287,39622,46365
11284,39624,46353
11288,39632,46348
11293,39645,46348
11295,39659,46351
11297,39673,46359
11300,39686,46372
11299,39695,46389
11297,39697,46403
11300,39697,46416
11307,39700,46428
11314,39703,46441
11316,39703,46449
11321,39703,46455
11335,39706,46463
11351,39707,46470
11356,39700,46471
11356,39690,46467
11358,39684,46462
11358,39680,46456
11354,39672,46445
11351,39665,46430
11349,39662,46420
11344,39658,46411
11334,39652,46401
11324,39648,46391
11313,39646,46383
11298,39638,46375
11280,39626,46362
11266,39620,46347
11256,39616,46329
11241,39607,46301
11222,39593,46268
11203,39579,46235
11185,39572,46207
11165,39568,46182
11147,39561,46154
11137,39550,46129
11131,39541,46108
11119,39527,46082
11103,39509,46051
11092,39496,46025
11083,39492,46009
11070,39488,45994
11057,39483,45977
11046,39480,45960
11025,39476,45940
10990,39466,45909
10956,39453,45873
10927,39435,45838
10897,39409,45804
10857,39376,45771
10812,39345,45744
10774,39317,45720
10739,39292,45688
10700,39265,45644
10664,39239,45596
10632,39214,45548
10595,39181,45501
10553,39142,45454
10517,39106,45407
10491,39077,45360
10470,39052,45314
10452,39029,45269
10442,39009,45226
10436,38993,45187
10428,38980,45152
10419,38973,45122
10415,38973,45096
10412,38979,45074
10402,38986,45054
10387,38994,45032
10371,39004,45013
10355,39013,44999
10334,39013,44983
10310,39007,44962
10295,39001,44944
10283,38990,44928
10263,38969,44909
10240,38943,44881
10222,38920,44843
10206,38901,44805
10181,38880,44765
10149,38855,44720
10118,38829,44672
10087,38806,44628
10055,38782,44584
10027,38756,44541
10007,38733,44505
9990,38714,44476
9975,38696,44452
9964,38677,44430
9957,38664,44413
9944,38660,44400
9925,38655,44387
9910,38653,44377
9903,38657,44372
9893,38662,44364
9878,38659,44345
9866,38654,44318
9860,38649,44288
9852,38640,44258
9833,38624,44226
9805,38607,44195
9778,38591,44166
9752,38572,44139
9725,38551,44110
9702,38535,44083
9686,38529,44068
9674,38531,44067
9668,38535,44073
9672,38542,44092
9691,38557,44130
9721,38578,44191
9765,38608,44271
9829,38655,44372
9910,38717,44494
10003,38787,44635
10106,38861,44782
10220,38938,44934
10339,39021,45096
10453,39109,45263
10567,39201,45432
10689,39299,45601
10814,39396,45773
10937,39486,45945
11056,39569,46106
11172,39650,46256
11279,39729,46393
11370,39797,46517
11454,39858,46629
11532,39917,46734
11595,39969,46832
11644,40005,46916
11682,40028,46987
11713,40049,47049
11735,40069,47099
11753,40082,47137
11773,40093,47166
11792,40104,47193
11804,40112,47215
11812,40121,47234
11825,40135,47252
11842,40152,47270
11853,40162,47282
11856,40160,47287
11857,40151,47290
11855,40142,47298
11849,40129,47311
11841,40117,47321
11838,40108,47332
11844,40106,47345
11852,40110,47355
11862,40116,47363
11880,40128,47376
11901,40144,47394
11915,40153,47409
11922,40155,47414
11929,40156,47416
11936,40160,47420
11939,40164,47425
11942,40169,47424
11951,40178,47426
11964,40191,47431
11973,40200,47434
11983,40201,47436
11995,40200,47443
12001,40201,47453
11996,40200,47457
11989,40196,47453
11987,40193,47448
11986,40189,47440
11977,40184,47426
11967,40183,47407
11959,40185,47387
11945,40183,47368
11927,40179,47348
11912,40173,47330
11903,40168,47320
11896,40165,47319
11886,40161,47324
11881,40157,47332
11886,40162,47338
11892,40171,47340
11892,40179,47341
11892,40184,47345
11895,40186,47352
11896,40180,47356
11896,40168,47355
11899,40155,47354
11899,40142,47357
11889,40128,47359
11874,40112,47357
11862,40097,47352
11855,40085,47348
11851,40076,47341
11851,40070,47331
11853,40070,47319
11851,40075,47308
11833,40079,47295
11809,40079,47280
11788,40077,47267
11772,40071,47254
11757,40059,47235
11745,40044,47210
11737,40031,47180
11727,40020,47151
11716,40012,47125
11713,40010,47101
11718,40015,47082
11723,40022,47068
11721,40021,47049
11712,40013,47022
11699,40004,46996
11679,39995,46973
11652,39977,46945
11625,39953,46912
11597,39931,46882
11569,39914,46853
11536,39895,46821
11501,39874,46786
11469,39852,46754
11434,39823,46725
11393,39789,46693
11354,39760,46657
11318,39736,46623
11276,39712,46588
11232,39685,46550
11194,39662,46509
11163,39646,46467
11133,39629,46421
11104,39605,46373
11082,39579,46327
11062,39557,46285
11038,39535,46236
11013,39512,46185
10995,39493,46136
10981,39479,46093
10961,39464,46050
10937,39446,46006
10917,39432,45967
10898,39420,45936
10876,39403,45905
10850,39382,45875
10827,39363,45849
10806,39347,45829
10782,39334,45810
10757,39323,45788
10740,39318,45766
10725,39316,45748
10704,39309,45727
10683,39293,45702
10665,39269,45672
10641,39243,45639
10609,39219,45604
10575,39199,45569
10547,39184,45535
10524,39168,45502
10497,39152,45467
10469,39137,45431
10444,39123,45396
10417,39103,45360
10388,39081,45322
10366,39062,45283
10350,39050,45246
10333,39038,45210
10317,39023,45172
10309,39005,45136
10305,38989,45106
10296,38978,45082
10279,38970,45061
10262,38965,45044
10248,38963,45033
10230,38959,45019
10206,38953,44997
10185,38950,44969
10165,38943,44943
10136,38925,44920
10109,38903,44896
10090,38882,44868
10072,38863,44839
10043,38842,44811
10006,38819,44776
9972,38797,44736
9940,38776,44698
9906,38756,44662
9874,38735,44620
9844,38716,44575
9817,38699,44529
9789,38679,44483
9763,38656,44438
9740,38635,44400
9717,38617,44371
9695,38602,44347
9679,38591,44327
9669,38586,44310
9656,38583,44290
9638,38578,44267
9625,38576,44245
9613,38579,44224
9594,38582,44204
9570,38579,44184
9553,38575,44167
9543,38574,44157
9534,38572,44154
9526,38569,44153
9529,38570,44164
9547,38581,44196
9578,38603,44249
9622,38633,44319
9681,38673,44405
9757,38726,44513
9847,38793,44643
9952,38870,44792
10074,38956,44954
10208,39048,45127
10340,39137,45308
10466,39223,45487
10593,39314,45663
10722,39410,45843
10850,39506,46021
10969,39594,46189
11081,39677,46347
11188,39756,46499
11278,39825,46637
11352,39886,46757
11420,39945,46865
11481,39995,46965
11527,40032,47054
11557,40056,47123
11582,40076,47172
11600,40090,47207
11605,40097,47229
11603,40097,47239
11602,40092,47244
11595,40081,47248
11582,40063,47244
11572,40042,47237
11573,40028,47232
11577,40021,47229
11583,40016,47227
11599,40014,47225
11625,40019,47224
11648,40029,47225
11661,40037,47231
11667,40049,47245
11672,40066,47267
11673,40081,47291
11668,40090,47308
11665,40095,47323
11668,40102,47341
11673,40108,47359
11676,40109,47373
11681,40106,47381
11686,40101,47386
11682,40090,47387
11674,40077,47382
11670,40068,47375
11668,40065,47371
11666,40068,47366
11663,40069,47359
11667,40069,47345
11676,40067,47324
11682,40060,47304
11686,40052,47289
11692,40052,47280
11694,40053,47277
11688,40050,47274
11680,40046,47269
11680,40046,47267
11682,40050,47270
11677,40052,47269
11667,40053,47261
11660,40056,47251
11653,40060,47244
11641,40059,47240
11628,40055,47241
11617,40050,47243
11607,40044,47240
11593,40036,47234
11583,40032,47227
11581,40033,47225
11583,40034,47222
11583,40035,47216
11586,40037,47213
11593,40041,47215
11598,40045,47216
11603,40046,47214
11616,40050,47214
11632,40062,47221
11644,40079,47233
11651,40094,47238
11663,40105,47239
11676,40114,47238
11683,40118,47236
11673,40109,47225
11650,40088,47208
11619,40065,47190
11582,40039,47169
11544,40011,47146
11513,39984,47120
11484,39960,47092
11453,39937,47060
11422,39910,47018
11394,39882,46970
11373,39860,46926
11353,39844,46886
11333,39832,46849
11315,39824,46818
11296,39821,46797
11276,39818,46777
11261,39812,46755
11257,39805,46734
11259,39800,46718
11256,39796,46703
11251,39790,46685
11251,39786,46669
11245,39782,46655
11227,39774,46635
11207,39764,46604
11188,39751,46570
11159,39736,46539
11124,39722,46508
11094,39712,46475
11065,39701,46441
11029,39680,46403
10987,39652,46360
10947,39623,46321
10912,39596,46286
10877,39564,46247
10840,39530,46198
10805,39499,46140
10778,39473,46090
10757,39454,46050
10739,39439,46012
10727,39430,45979
10719,39423,45952
10708,39410,45929
10694,39398,45908
10683,39393,45890
10671,39395,45876
10649,39395,45864
10619,39388,45848
10588,39378,45829
10558,39363,45807
10527,39340,45777
10494,39311,45736
10462,39283,45684
10432,39259,45629
10400,39236,45577
10369,39210,45527
10346,39186,45482
10332,39168,45447
10318,39155,45419
10309,39143,45394
10307,39137,45374
10307,39138,45356
10307,39145,45335
10311,39151,45315
10322,39156,45300
10325,39157,45287
10315,39151,45268
10305,39143,45246
10293,39135,45225
10274,39125,45204
10243,39109,45176
10207,39087,45141
10170,39067,45106
10126,39042,45070
10075,39011,45030
10030,38979,44990
9995,38952,44951
9961,38926,44909
9923,38894,44863
9890,38861,44819
9866,38838,44780
9847,38824,44748
9831,38815,44718
9818,38809,44694
9807,38803,44672
9790,38792,44649
9767,38776,44619
9748,38764,44583
9736,38761,44550
9727,38759,44521
9716,38749,44495
9707,38735,44475
9700,38721,44456
9684,38705,44433
9664,38688,44405
9645,38676,44377
9624,38666,44353
9596,38653,44332
9566,38634,44306
9538,38613,44275
9510,38594,44247
9475,38571,44218
9435,38544,44184
9402,38517,44146
9377,38497,44110
9352,38482,44072
9329,38470,44033
9317,38464,44008
9318,38468,44004
9328,38477,44017
9351,38490,44049
9394,38516,44106
9447,38552,44186
9509,38594,44282
9590,38647,44397
9690,38717,44536
9796,38800,44696
9903,38890,44863
10016,38986,45032
10136,39086,45208
10258,39185,45390
10378,39280,45571
10500,39376,45753
10623,39470,45940
10736,39556,46120
10837,39628,46279
10935,39690,46415
11026,39747,46536
11099,39797,46638
11155,39842,46722
11201,39883,46797
11235,39919,46862
11251,39943,46913
11254,39958,46949
11256,39971,46977
11264,39982,47002
11267,39980,47020
11263,39966,47027
11258,39948,47024
11251,39932,47017
11237,39917,46999
11224,39903,46973
11221,39896,46950
11222,39893,46934
11221,39888,46917
11221,39881,46900
11229,39880,46890
11241,39885,46887
11250,39888,46888
11259,39890,46893
11270,39897,46905
11279,39907,46922
11284,39918,46938
11290,39935,46955
11300,39957,46979
11312,39980,47007
11322,39995,47031
11335,40006,47052
11351,40016,47071
11352,40018,47086
11340,40009,47093
11332,39998,47091
11329,39989,47085
11324,39979,47075
11311,39964,47060
11295,39947,47040
11279,39929,47020
11254,39907,46996
11223,39877,46962
11201,39848,46929
11188,39826,46902
11172,39816,46879
11155,39807,46857
11143,39797,46839
11134,39789,46827
11120,39779,46817
11108,39770,46802
11113,39771,46792
11124,39782,46787
11131,39795,46782
11133,39809,46776
11141,39829,46777
11150,39852,46787
11155,39869,46802
11158,39879,46819
11165,39887,46842
11171,39899,46870
11171,39915,46891
11173,39932,46903
11183,39944,46916
11195,39951,46932
11191,39945,46937
11175,39927,46928
11157,39907,46916
11135,39888,46905
11110,39869,46888
11094,39855,46866
11090,39848,46844
11079,39840,46821
11058,39827,46794
11032,39807,46764
11005,39786,46732
10974,39762,46698
10944,39737,46663
10919,39717,46636
10897,39703,46615
10875,39688,46593
10858,39667,46566
10852,39645,46536
10852,39628,46502
10848,39618,46465
10840,39609,46425
10832,39603,46393
10822,39601,46367
10803,39596,46336
10778,39584,46301
10754,39570,46275
10730,39561,46259
10702,39553,46245
10675,39543,46226
10654,39532,46205
10634,39520,46178
10606,39503,46139
10571,39477,46094
10536,39446,46048
10504,39413,46003
10467,39376,45952
10431,39341,45896
10402,39312,45845
10375,39290,45801
10345,39272,45762
10318,39259,45729
10297,39253,45707
10275,39246,45684
10245,39232,45653
10216,39219,45620
10194,39212,45595
10173,39204,45571
10148,39190,45544
10123,39177,45516
10100,39168,45490
10074,39155,45463
10041,39132,45433
10008,39107,45404
9982,39086,45380
9956,39068,45359
9924,39050,45333
9895,39030,45305
9878,39009,45275
9867,38986,45239
9849,38956,45200
9827,38926,45173
9804,38898,45157
9776,38870,45140
9749,38844,45114
9729,38824,45084
9711,38815,45057
9686,38807,45028
9657,38795,44988
9632,38782,44944
9611,38769,44902
9582,38748,44856
9550,38722,44803
9525,38702,44753
9503,38693,44714
9473,38685,44684
9440,38673,44658
9418,38661,44637
9401,38655,44619
9383,38650,44594
9369,38642,44563
9365,38635,44535
9361,38627,44515
9349,38617,44493
9330,38607,44465
9311,38603,44441
9289,38603,44428
9259,38601,44414
9231,38593,44395
9211,38585,44374
9196,38575,44348
9179,38560,44316
9166,38546,44286
9155,38535,44265
9136,38523,44247
9108,38508,44224
9080,38494,44196
9058,38483,44168
9036,38470,44140
9007,38451,44108
8977,38429,44074
8950,38412,44042
8922,38395,44008
8889,38373,43968
8853,38345,43924
8819,38319,43884
8787,38299,43857
8763,38284,43840
8755,38278,43836
8761,38286,43852
8777,38303,43887
8807,38325,43937
8855,38355,44007
8918,38396,44097
8992,38448,44204
9077,38508,44326
9178,38580,44462
9289,38662,44611
9400,38746,44767
9515,38829,44926
9637,38915,45092
9757,39001,45258
9867,39081,45416
9973,39160,45566
10079,39236,45709
10172,39299,45846
10247,39349,45970
10316,39396,46080
10379,39441,46176
10425,39476,46254
10447,39498,46308
10457,39510,46341
10468,39517,46365
10478,39516,46379
10483,39507,46379
10489,39499,46369
10497,39495,46360
10499,39490,46355
10496,39484,46351
10494,39483,46349
10495,39491,46351
10487,39502,46357
10473,39508,46358
10464,39514,46359
10461,39522,46361
10455,39522,46360
10449,39516,46352
10449,39510,46348
10448,39506,46346
10441,39502,46346
10430,39500,46346
10422,39501,46348
10414,39502,46347
10402,39496,46341
10391,39485,46328
10387,39476,46310
10386,39470,46291
10384,39461,46274
10380,39448,46256
10377,39433,46233
10370,39419,46208
10358,39404,46180
10344,39386,46148
10333,39371,46119
10321,39358,46091
10301,39342,46059
10278,39326,46028
10262,39317,46003
10253,39308,45986
10241,39295,45970
10229,39287,45956
10223,39286,45946
10212,39284,45941
10195,39276,45935
10184,39269,45929
10183,39270,45929
10183,39273,45933
10182,39276,45934
10191,39284,45932
10211,39300,45936
10230,39319,45947
10242,39333,45961
10253,39344,45978
10262,39355,46000
10259,39362,46020
10251,39359,46030
10253,39357,46036
10262,39360,46046
10269,39364,46057
10275,39367,46062
10286,39372,46065
10300,39384,46074
10309,39396,46085
10313,39407,46090
10322,39419,46094
10330,39429,46097
10326,39429,46091
10312,39422,46078
10299,39411,46062
10285,39397,46047
10260,39379,46029
10226,39351,46007
10192,39317,45982
10155,39282,45950
10111,39249,45906
10071,39222,45856
10039,39206,45809
10008,39195,45769
9979,39182,45728
9960,39165,45680
9948,39149,45638
9934,39136,45605
9915,39120,45572
9900,39101,45534
9895,39085,45496
9891,39074,45462
9878,39067,45430
9864,39070,45404
9856,39079,45388
9845,39085,45378
9820,39084,45366
9790,39074,45348
9759,39061,45325
9724,39042,45295
9682,39017,45260
9640,38988,45225
9599,38958,45189
9555,38925,45148
9513,38889,45106
9478,38855,45070
9454,38828,45038
9434,38807,45006
9416,38785,44971
9404,38763,44936
9402,38748,44905
9400,38741,44878
9395,38737,44854
9393,38737,44838
9386,38743,44828
9370,38748,44813
9350,38749,44790
9331,38751,44767
9308,38748,44745
9275,38732,44715
9239,38705,44677
9207,38672,44635
9170,38636,44593
9125,38594,44549
9084,38551,44504
9058,38524,44467
9040,38510,44435
9021,38496,44405
9007,38484,44370
8998,38481,44338
8983,38482,44312
8967,38477,44286
8961,38466,44259
8961,38456,44238
8952,38445,44223
8935,38426,44209
8921,38408,44196
8913,38396,44189
8902,38388,44183
8887,38379,44175
8870,38376,44169
8852,38379,44165
8828,38381,44157
8803,38376,44142
8784,38372,44119
8769,38366,44094
8751,38353,44068
8733,38335,44039
8720,38320,44013
8708,38309,43989
8689,38297,43964
8670,38282,43934
8662,38270,43904
8660,38263,43879
8656,38261,43863
8650,38260,43859
8654,38265,43872
8670,38279,43906
8696,38297,43959
8739,38324,44030
8803,38367,44125
8883,38426,44247
8973,38495,44389
9072,38570,44543
9186,38658,44708
9305,38756,44879
9420,38848,45047
9539,38932,45211
9665,39018,45378
9786,39104,45544
9899,39181,45695
10011,39252,45831
10121,39324,45963
10221,39394,46089
10306,39454,46199
10384,39508,46296
10456,39562,46388
10508,39609,46470
10543,39645,46533
10571,39670,46579
10593,39689,46621
10605,39699,46659
10606,39703,46688
10606,39704,46705
10603,39702,46716
10589,39693,46716
10568,39678,46708
10555,39667,46704
10549,39664,46706
10540,39662,46705
10532,39659,46698
10533,39662,46696
10538,39666,46698
10536,39666,46697
10531,39663,46691
10529,39665,46686
10530,39670,46687
10529,39670,46687
10532,39664,46681
10547,39663,46681
10567,39670,46691
10586,39679,46703
10608,39690,46715
10637,39708,46734
10665,39728,46754
10684,39744,46764
10692,39753,46762
10696,39761,46758
10694,39765,46758
10686,39761,46757
10678,39751,46753
10673,39741,46748
10662,39731,46737
10642,39717,46715
10626,39704,46690
10619,39696,46672
10605,39689,46658
10576,39675,46643
10546,39658,46626
10523,39642,46608
10504,39630,46591
10483,39618,46572
10470,39608,46554
10469,39604,46543
10472,39601,46541
10480,39599,46540
10496,39600,46540
10512,39602,46541
10522,39602,46542
10530,39599,46542
10540,39597,46543
10546,39596,46542
10543,39591,46536
10539,39587,46527
10542,39591,46527
10550,39605,46539
10556,39624,46556
10563,39641,46569
10579,39661,46580
10596,39680,46593
10601,39690,46604
10599,39692,46611
10597,39690,46620
10588,39684,46628
10564,39671,46624
10534,39655,46606
10506,39637,46582
10478,39615,46554
10450,39588,46520
10425,39558,46479
10408,39533,46438
10388,39512,46399
10363,39492,46359
10340,39475,46319
10324,39466,46287
10305,39459,46260
10286,39451,46232
10278,39447,46208
10276,39448,46192
10263,39446,46182
10238,39437,46167
10212,39428,46150
10188,39418,46129
10158,39402,46102
10126,39380,46065
10103,39357,46024
10084,39338,45986
10058,39319,45948
10027,39300,45906
9998,39285,45861
9971,39273,45815
9947,39257,45768
9923,39234,45719
9900,39210,45674
9879,39191,45640
9859,39179,45612
9843,39170,45584
9834,39163,45557
9824,39152,45533
9807,39135,45507
9787,39115,45477
9771,39099,45447
9757,39088,45419
9733,39072,45389
9702,39050,45358
9671,39027,45328
9635,39001,45298
9592,38969,45268
9554,38937,45240
9527,38910,45214
9501,38885,45184
9467,38858,45145
9433,38832,45104
9406,38812,45068
9382,38797,45034
9356,38786,44999
9337,38778,44965
9328,38777,44937
9320,38775,44910
9304,38766,44876
9292,38752,44839
9291,38745,44809
9291,38742,44783
9283,38737,44760
9276,38732,44740
9272,38727,44726
9258,38718,44715
9236,38705,44698
9213,38693,44677
9188,38684,44657
9157,38677,44634
9120,38668,44606
9086,38663,44579
9059,38658,44557
9028,38643,44530
8997,38618,44498
8975,38591,44469
8957,38567,44445
8930,38544,44416
8894,38514,44377
8859,38482,44333
8829,38450,44291
8799,38420,44251
8773,38393,44206
8757,38373,44166
8742,38357,44137
8722,38339,44116
8705,38326,44098
8696,38324,44084
8691,38331,44068
8684,38334,44049
8677,38333,44028
8670,38332,44011
8656,38332,43996
8633,38326,43978
8614,38320,43959
8605,38316,43946
8602,38309,43941
8603,38301,43943
8620,38300,43958
8653,38313,43994
8695,38339,44054
8747,38380,44134
8822,38439,44237
8920,38513,44368
9027,38596,44524
9139,38690,44694
9264,38795,44878
9394,38904,45074
9518,39011,45271
9636,39113,45461
9752,39214,45646
9867,39316,45824
9978,39412,45989
10078,39492,46142
10171,39559,46287
10254,39616,46424
10324,39660,46544
10384,39691,46645
10435,39714,46734
10476,39733,46808
10502,39744,46860
10521,39749,46895
10543,39756,46923
10568,39766,46950
10593,39778,46973
10622,39788,46994
10658,39800,47017
10687,39814,47040
10697,39826,47057
10698,39837,47071
10699,39851,47085
10693,39864,47099
10677,39868,47106
10659,39865,47109
10647,39860,47114
10638,39852,47116
10629,39842,47109
10629,39832,47099
10642,39827,47091
10652,39823,47085
10655,39818,47075
10663,39820,47071
10674,39827,47079
10680,39835,47094
10688,39844,47114
10707,39856,47136
10732,39875,47163
10750,39899,47190
10761,39919,47212
10773,39935,47230
10781,39947,47247
10781,39947,47262
10777,39937,47269
10774,39924,47272
10764,39911,47270
10739,39894,47257
10711,39876,47231
10690,39859,47200
10676,39846,47167
10661,39829,47131
10645,39807,47093
10638,39790,47064
10640,39781,47046
10642,39777,47036
10646,39779,47032
10654,39789,47038
10657,39800,47048
10650,39804,47052
10639,39804,47048
10632,39803,47045
10623,39802,47044
10602,39796,47040
10577,39785,47032
10558,39776,47024
10541,39768,47015
10523,39759,47002
10512,39753,46991
10513,39758,46990
10516,39768,46997
10516,39769,47003
10517,39762,47004
10519,39756,47004
10514,39752,47003
10503,39746,46996
10498,39740,46989
10500,39735,46983
10500,39729,46969
10498,39722,46947
10499,39720,46927
10499,39725,46915
10491,39734,46906
10478,39735,46893
10468,39727,46880
10457,39713,46867
10435,39692,46850
10406,39666,46823
10380,39643,46793
10353,39624,46765
10318,39604,46735
10278,39578,46697
10237,39550,46651
10199,39526,46604
10164,39501,46555
10131,39472,46505
10106,39446,46458
10086,39426,46413
10067,39410,46371
10049,39395,46329
10038,39384,46293
10026,39375,46260
10008,39369,46226
9988,39366,46194
9969,39363,46167
9948,39357,46147
9919,39342,46123
9885,39318,46095
9851,39291,46065
9808,39263,46030
9755,39230,45986
9703,39197,45939
9659,39171,45896
9619,39146,45854
9577,39117,45805
9545,39086,45750
9529,39064,45701
9519,39052,45658
9507,39045,45615
9499,39041,45578
9490,39040,45550
9470,39038,45525
9441,39028,45499
9418,39013,45473
9395,38998,45448
9365,38983,45417
9333,38963,45377
9307,38937,45335
9278,38907,45301
9242,38874,45270
9205,38837,45231
9178,38803,45185
9161,38780,45145
9140,38767,45111
9116,38760,45083
9102,38757,45068
9090,38759,45066
9068,38756,45061
9045,38748,45044
9032,38744,45022
9014,38737,44998
8981,38717,44960
8943,38689,44911
8911,38659,44865
8881,38628,44827
8848,38597,44787
8820,38567,44745
8802,38541,44708
8787,38516,44672
8770,38491,44637
8759,38473,44605
8756,38464,44580
8750,38457,44558
8733,38448,44533
8715,38445,44506
8699,38448,44481
8673,38449,44460
8634,38442,44437
8591,38431,44411
8548,38418,44388
8503,38403,44364
8459,38386,44332
8423,38369,44292
8395,38350,44251
8365,38323,44206
8335,38292,44155
8319,38266,44104
8315,38247,44064
8307,38231,44034
8292,38214,44006
8278,38203,43981
8260,38203,43967
8230,38202,43957
8195,38198,43949
8173,38199,43943
8160,38198,43931
8140,38189,43905
8115,38172,43868
8092,38149,43828
8070,38125,43788
8045,38097,43746
8022,38067,43701
8003,38035,43656
7983,38003,43614
7959,37971,43576
7940,37946,43544
7939,37937,43531
7951,37943,43538
7971,37959,43568
8007,37987,43625
8065,38035,43713
8138,38105,43830
8222,38183,43964
8325,38269,44110
8452,38368,44273
8591,38472,44449
8730,38574,44631
8868,38679,44821
9004,38784,45016
9124,38880,45207
9229,38964,45383
9332,39043,45546
9437,39125,45708
9535,39203,45866
9626,39273,46013
9720,39337,46153
9818,39402,46289
9910,39460,46416
9990,39507,46522
10066,39549,46613
10136,39588,46695
10187,39620,46765
10220,39641,46820
10247,39657,46868
10269,39671,46912
10280,39681,46945
10278,39683,46959
10268,39675,46962
10252,39664,46965
10227,39647,46964
10200,39625,46957
10185,39608,46947
10179,39597,46936
10183,39590,46927
10198,39591,46922
10224,39605,46925
10252,39630,46937
10276,39656,46954
10298,39679,46974
10320,39702,46997
10337,39723,47020
10343,39738,47036
10347,39748,47046
10351,39754,47058
10348,39755,47069
10335,39747,47074
10326,39736,47076
10331,39732,47084
10341,39733,47094
10347,39732,47100
10358,39734,47106
10372,39741,47118
10380,39751,47128
10380,39756,47129
10377,39757,47123
10374,39758,47114
10363,39752,47099
10345,39739,47080
10330,39727,47064
10312,39715,47052
10285,39696,47034
10259,39674,47009
10241,39653,46981
10225,39637,46957
10211,39629,46939
10201,39627,46926
10199,39630,46921
10197,39640,46925
10195,39651,46931
10193,39659,46931
10196,39669,46933
10201,39679,46937
10203,39683,46936
10206,39681,46929
10211,39678,46920
10213,39675,46911
10208,39669,46898
10207,39660,46882
10213,39653,46871
10214,39649,46867
10207,39643,46861
10200,39636,46852
10198,39636,46852
10191,39643,46863
10178,39651,46878
10168,39661,46893
10164,39669,46906
10156,39669,46912
10144,39663,46907
10142,39658,46895
10147,39659,46885
10140,39659,46869
10114,39647,46840
10084,39624,46797
10058,39601,46753
10029,39578,46708
10000,39551,46662
9982,39527,46621
9970,39506,46589
9953,39483,46559
9934,39459,46524
9921,39441,46491
9909,39428,46462
9889,39417,46435
9863,39407,46401
9837,39396,46364
9807,39388,46331
9769,39376,46300
9728,39358,46263
9689,39336,46222
9648,39311,46179
9599,39280,46134
9545,39243,46084
9497,39207,46033
9456,39175,45986
9420,39146,45938
9391,39114,45889
9373,39085,45847
9361,39060,45815
9345,39035,45785
9332,39016,45758
9327,39007,45738
9321,39002,45721
9307,38993,45699
9292,38983,45677
9279,38979,45659
9258,38978,45643
9229,38975,45617
9206,38970,45584
9188,38968,45553
9165,38963,45524
9135,38949,45489
9109,38932,45453
9089,38914,45417
9068,38889,45375
9042,38857,45324
9018,38825,45270
8997,38799,45223
8972,38776,45178
8948,38756,45133
8932,38740,45094
8923,38728,45066
8913,38718,45045
8899,38711,45022
8886,38708,45002
8875,38707,44989
8858,38701,44975
8835,38692,44956
8813,38686,44937
8794,38683,44922
8775,38676,44904
8752,38667,44878
8731,38660,44849
8707,38653,44817
8673,38640,44784
8634,38619,44746
8598,38593,44705
8565,38565,44669
8532,38539,44633
8504,38513,44593
8486,38491,44556
8469,38470,44524
8448,38447,44491
8431,38427,44457
8424,38414,44430
8414,38406,44408
8397,38399,44385
8383,38396,44362
8380,38398,44346
8379,38400,44335
8374,38394,44320
8367,38386,44302
8359,38381,44287
8339,38373,44271
8308,38357,44246
8279,38339,44212
8256,38324,44180
8228,38303,44152
8189,38276,44119
8149,38253,44082
8120,38235,44048
8094,38214,44013
8067,38192,43973
8045,38178,43933
8027,38169,43895
8003,38154,43856
7974,38131,43815
7949,38107,43774
7926,38086,43735
7895,38063,43693
7861,38036,43648
7834,38011,43608
7816,37994,43575
7801,37982,43544
7789,37974,43515
7785,37974,43497
7788,37982,43495
7795,37997,43511
7808,38018,43546
7834,38049,43605
7868,38088,43688
7905,38130,43784
7958,38174,43889
8038,38228,44006
8134,38295,44135
8239,38365,44275
8360,38444,44429
8499,38540,44604
8639,38642,44793
8773,38744,44989
8907,38853,45192
9042,38968,45401
9168,39079,45608
9278,39174,45800
9378,39256,45972
9472,39331,46126
9552,39394,46259
9614,39441,46371
9668,39477,46468
9717,39506,46551
9747,39522,46612
9765,39527,46654
9789,39532,46684
9815,39544,46709
9832,39555,46730
9846,39559,46744
9869,39557,46754
9889,39556,46765
9895,39552,46775
9893,39544,46779
9894,39544,46784
9893,39551,46791
9880,39556,46793
9860,39556,46788
9842,39555,46778
9830,39551,46765
9816,39542,46751
9803,39528,46736
9799,39516,46728
9797,39510,46728
9791,39502,46729
9789,39495,46728
9794,39496,46727
9802,39499,46729
9806,39502,46732
9811,39507,46734
9825,39521,46739
9845,39539,46744
9862,39553,46749
9879,39563,46759
9898,39575,46778
9913,39587,46797
9921,39592,46804
9933,39594,46806
9949,39602,46809
9958,39611,46812
9956,39614,46806
9954,39613,46794
9948,39608,46784
9930,39598,46771
9904,39582,46750
9881,39567,46727
9863,39555,46709
9838,39541,46695
9806,39523,46679
9778,39508,46659
9754,39498,46643
9730,39483,46628
9710,39468,46608
9707,39461,46588
9716,39464,46577
9725,39467,46566
9727,39464,46551
9728,39459,46538
9730,39460,46534
9730,39463,46537
9733,39469,46540
9747,39485,46550
9769,39508,46570
9787,39530,46593
9808,39546,46617
9833,39561,46644
9850,39574,46671
9851,39581,46692
9841,39580,46703
9827,39575,46706
9807,39566,46705
9777,39552,46690
9749,39535,46664
9728,39518,46631
9701,39497,46594
9666,39469,46552
9631,39440,46510
9606,39418,46475
9582,39402,46440
9555,39380,46400
9535,39359,46360
9525,39343,46326
9515,39331,46299
9499,39317,46275
9485,39307,46253
9476,39304,46238
9462,39299,46223
9439,39288,46200
9416,39273,46175
9392,39254,46148
9356,39228,46114
9309,39196,46070
9264,39166,46023
9225,39140,45976
9186,39114,45923
9147,39080,45861
9115,39044,45794
9082,39010,45729
9040,38974,45667
8994,38938,45610
8954,38909,45564
8923,38889,45531
8895,38874,45504
8871,38861,45479
8856,38855,45459
8849,38858,45447
8841,38859,45435
8832,38855,45421
8826,38853,45409
8816,38854,45400
8793,38850,45385
8763,38842,45361
8731,38828,45333
8694,38813,45303
8653,38793,45267
8614,38764,45230
8576,38734,45194
8534,38708,45156
8494,38682,45110
8468,38656,45063
8457,38637,45023
8448,38619,44987
8436,38597,44950
8429,38577,44917
8427,38564,44893
8421,38557,44874
8412,38553,44851
8406,38554,44825
8397,38558,44802
8375,38558,44783
8348,38554,44760
8332,38552,44735
8320,38552,44717
8303,38549,44704
8282,38539,44689
8266,38527,44672
8248,38512,44653
8219,38487,44620
8179,38451,44573
8138,38413,44526
8095,38375,44482
8042,38330,44433
7993,38284,44379
7959,38251,44329
7935,38233,44291
7913,38217,44259
7897,38203,44227
7891,38199,44203
7886,38203,44187
7874,38204,44171
7862,38204,44153
7856,38213,44139
7851,38223,44128
7841,38230,44116
7831,38234,44102
7824,38240,44086
7810,38244,44068
7791,38238,44046
7777,38227,44021
7765,38214,43993
7743,38192,43962
7711,38162,43928
7682,38132,43896
7661,38106,43870
7639,38083,43853
7615,38061,43839
7601,38048,43834
7603,38049,43846
7619,38059,43885
7652,38082,43954
7713,38132,44050
7804,38208,44166
7912,38298,44295
8027,38390,44435
8146,38484,44590
8268,38583,44764
8385,38682,44952
8497,38777,45141
8615,38873,45326
8738,38972,45511
8853,39065,45690
8962,39149,45860
9069,39231,46021
9166,39306,46172
9241,39365,46301
9300,39408,46408
9350,39441,46499
9390,39469,46578
9422,39489,46643
9450,39500,46695
9482,39506,46738
9513,39508,46774
9538,39505,46798
9561,39501,46810
9591,39508,46823
9622,39525,46837
9647,39540,46843
9667,39550,46838
9679,39558,46834
9679,39569,46835
9668,39571,46832
9654,39563,46822
9641,39556,46815
9622,39548,46813
9594,39534,46804
9571,39516,46790
9558,39500,46777
9542,39486,46766
9521,39473,46752
9505,39463,46736
9500,39457,46725
9490,39451,46719
9474,39446,46712
9465,39452,46705
9462,39471,46702
9456,39491,46701
9454,39502,46699
9461,39510,46698
9469,39518,46704
9468,39522,46708
9464,39520,46705
9465,39517,46699
9466,39513,46689
9453,39498,46668
9432,39477,46640
9415,39459,46611
9397,39444,46587
9373,39423,46560
9346,39395,46528
9324,39365,46496
9305,39335,46463
9286,39305,46426
9269,39280,46389
9260,39264,46360
9250,39257,46343
9237,39252,46333
9230,39249,46325
9234,39256,46324
9240,39267,46333
9245,39276,46347
9256,39287,46367
9280,39308,46394
9306,39332,46426
9325,39352,46455
9344,39374,46484
9363,39398,46515
9372,39414,46538
9370,39419,46549
9367,39416,46552
9367,39412,46552
9360,39404,46550
9344,39389,46539
9326,39369,46521
9312,39351,46501
9296,39332,46481
9279,39312,46461
9273,39299,46443
9274,39290,46429
9267,39281,46411
9252,39269,46385
9237,39259,46357
9223,39252,46335
9206,39245,46312
9184,39242,46283
9169,39247,46256
9157,39256,46233
9140,39258,46210
9124,39246,46187
9114,39230,46167
9100,39219,46148
9078,39207,46123
9052,39192,46088
9025,39177,46049
8996,39162,46008
8958,39139,45962
8919,39109,45914
8889,39080,45867
8860,39051,45820
8825,39018,45768
8789,38984,45714
8761,38957,45667
8737,38937,45627
8712,38919,45589
8689,38902,45548
8672,38886,45514
8658,38869,45491
8642,38850,45468
8628,38834,45442
8616,38821,45418
8597,38806,45393
8567,38787,45361
8537,38772,45325
8511,38763,45290
8484,38753,45252
8451,38738,45210
8421,38721,45168
8392,38703,45134
8353,38681,45100
8310,38654,45064
8276,38626,45030
8251,38599,45005
8221,38574,44979
8183,38548,44941
8156,38526,44893
8142,38510,44843
8127,38492,44794
8113,38471,44746
8105,38460,44709
8098,38457,44682
8085,38454,44659
8067,38447,44637
8052,38443,44619
8036,38443,44605
8013,38437,44588
7986,38425,44569
7961,38412,44550
7936,38400,44533
7903,38381,44511
7874,38360,44484
7851,38341,44457
7823,38319,44431
7789,38289,44398
7761,38256,44357
7743,38229,44318
7725,38210,44282
7703,38195,44248
7691,38187,44218
7692,38188,44198
7697,38193,44188
7698,38195,44176
7699,38196,44161
7699,38198,44144
7687,38199,44124
7664,38199,44102
7644,38198,44082
7632,38198,44072
7622,38196,44069
7614,38192,44071
7614,38193,44084
7626,38201,44112
7644,38214,44151
7672,38232,44204
7721,38266,44279
7789,38316,44379
7867,38377,44500
7960,38445,44639
8076,38524,44798
8209,38613,44977
8346,38707,45168
8484,38806,45363
8626,38915,45565
8765,39029,45772
8893,39137,45973
9013,39238,46161
9128,39338,46342
9230,39431,46516
9314,39506,46673
9394,39565,46810
9476,39613,46931
9549,39651,47037
9608,39681,47123
9663,39707,47194
9720,39733,47258
9770,39757,47314
9809,39772,47358
9845,39780,47390
9880,39792,47415
9906,39805,47434
9921,39815,47447
9941,39832,47461
9966,39859,47479
9982,39885,47497
9983,39898,47510
9978,39904,47519
9972,39908,47526
9959,39905,47527
9940,39897,47520
9929,39891,47515
9926,39887,47512
9918,39881,47505
9906,39869,47494
9900,39860,47485
9905,39858,47482
9917,39862,47485
9933,39869,47491
9957,39883,47504
9983,39906,47524
10004,39925,47545
10028,39939,47565
10061,39955,47588
10089,39971,47612
10101,39980,47626
10099,39983,47631
10092,39984,47631
10077,39981,47627
10050,39967,47611
10016,39946,47583
9980,39924,47549
9942,39900,47512
9904,39870,47473
9872,39840,47435
9849,39819,47400
9829,39802,47370
9811,39783,47344
9800,39767,47322
9800,39760,47310
9802,39759,47304
9803,39757,47302
9809,39759,47305
9819,39765,47312
9828,39770,47322
9837,39775,47332
9854,39787,47345
9876,39808,47362
9892,39826,47379
9899,39835,47391
9903,39841,47402
9902,39848,47410
9893,39850,47416
9884,39848,47418
9879,39848,47418
9879,39852,47418
9875,39855,47418
9866,39852,47410
9858,39845,47400
9849,39837,47394
9834,39827,47384
9814,39814,47367
9797,39801,47348
9781,39789,47330
9761,39772,47309
9739,39746,47280
9718,39720,47249
9696,39702,47219
9672,39691,47185
9649,39682,47147
9634,39674,47110
9621,39662,47074
9601,39641,47034
9580,39619,46996
9565,39600,46963
9551,39584,46933
9532,39563,46903
9514,39543,46874
9499,39529,46849
9477,39518,46823
9447,39505,46793
9422,39494,46762
9405,39484,46733
9382,39472,46705
9348,39452,46672
9316,39427,46632
9289,39404,46593
9256,39383,46554
9217,39360,46510
9182,39342,46465
9152,39329,46422
9119,39317,46379
9078,39299,46331
9038,39278,46285
9002,39258,46246
8961,39235,46205
8917,39205,46157
8878,39174,46107
8841,39147,46061
8804,39123,46014
8768,39101,45966
8740,39084,45925
8716,39069,45892
8686,39047,45859
8654,39018,45820
8630,38993,45776
8612,38973,45734
8590,38951,45695
8568,38928,45655
8549,38906,45618
8526,38884,45587
8499,38862,45554
8476,38842,45522
8462,38830,45496
8450,38824,45475
8436,38817,45453
8425,38813,45424
8417,38814,45395
8402,38813,45371
8378,38808,45349
8354,38800,45326
8334,38792,45304
8309,38781,45280
8279,38765,45253
8254,38751,45229
8236,38742,45210
8213,38731,45188
8180,38713,45156
8148,38695,45118
8120,38679,45083
8089,38659,45053
8054,38631,45021
8021,38598,44985
7995,38567,44949
7969,38540,44911
7937,38511,44866
7907,38487,44819
7882,38469,44776
7852,38450,44734
7816,38425,44687
7784,38395,44644
7753,38367,44606
7717,38339,44567
7681,38316,44523
7653,38296,44483
7630,38278,44449
7605,38253,44416
7578,38225,44379
7559,38203,44345
7543,38190,44318
7523,38179,44293
7503,38166,44265
7488,38157,44238
7474,38153,44215
7456,38145,44191
7442,38139,44163
7440,38142,44141
7438,38148,44124
7432,38154,44111
7434,38160,44103
7447,38173,44107
7467,38194,44125
7487,38219,44158
7516,38249,44210
7563,38290,44289
7621,38343,44394
7684,38403,44520
7761,38471,44669
7856,38548,44839
7961,38633,45023
8068,38719,45214
8185,38808,45407
8315,38905,45604
8450,39006,45804
8587,39102,46004
8733,39195,46204
8883,39289,46403
9022,39383,46593
9150,39472,46768
9273,39558,46932
9389,39640,47087
9493,39714,47229
9587,39777,47351
9676,39838,47460
9752,39897,47562
9807,39940,47648
9848,39964,47717
9891,39982,47781
9932,40002,47840
9962,40020,47886
9984,40034,47920
10004,40046,47946
10016,40058,47967
10016,40066,47979
10015,40070,47986
10020,40076,47993
10024,40081,48003
10021,40083,48012
10018,40086,48016
10016,40091,48020
10010,40092,48025
9997,40086,48031
9988,40080,48042
9989,40079,48061
9989,40081,48083
9987,40083,48099
9988,40091,48108
9996,40108,48118
10000,40124,48127
9997,40135,48132
10001,40140,48136
10017,40145,48149
10035,40151,48167
10048,40153,48180
10062,40150,48188
10077,40147,48192
10081,40143,48188
10076,40137,48172
10076,40133,48151
10079,40133,48135
10078,40133,48119
10076,40126,48095
10081,40118,48070
10088,40112,48050
10085,40103,48030
10072,40087,48008
10058,40074,47990
10042,40062,47975
10017,40046,47960
9992,40028,47945
9978,40017,47936
9969,40019,47940
9957,40029,47950
9950,40046,47959
9955,40070,47967
9960,40088,47972
9957,40092,47973
9951,40086,47973
9949,40081,47974
9946,40077,47977
9939,40071,47977
9935,40063,47971
9939,40059,47966
9940,40057,47966
9935,40056,47964
9934,40058,47960
9941,40063,47958
9944,40062,47957
9940,40052,47950
9940,40044,47944
9946,40044,47943
9947,40049,47940
9936,40049,47927
9923,40046,47908
9912,40043,47890
9894,40040,47870
9867,40030,47845
9838,40015,47822
9807,39996,47800
9764,39966,47772
9711,39930,47736
9666,39897,47693
9631,39868,47650
9593,39839,47605
9553,39805,47549
9518,39773,47486
9491,39745,47428
9465,39720,47377
9437,39692,47325
9412,39669,47277
9386,39654,47236
9354,39641,47200
9323,39625,47165
9300,39610,47137
9277,39598,47114
9247,39583,47088
9211,39562,47056
9172,39538,47021
9125,39510,46979
9068,39475,46927
9011,39435,46868
8963,39399,46808
8917,39366,46752
8872,39333,46696
8835,39305,46640
8810,39284,46586
8787,39265,46533
8760,39241,46478
8739,39219,46427
8727,39204,46386
8713,39192,46354
8687,39176,46322
8657,39160,46288
8633,39143,46255
8604,39120,46218
8568,39089,46173
8532,39055,46123
8500,39027,46078
8467,39000,46037
8432,38974,45996
8403,38951,45955
8380,38936,45921
8358,38924,45890
8334,38910,45856
8318,38900,45821
8305,38897,45792
8285,38893,45764
8264,38882,45734
8252,38873,45710
8243,38871,45692
8227,38866,45677
8208,38855,45658
8190,38848,45640
8171,38846,45626
8141,38836,45608
8105,38817,45577
8070,38795,45536
8030,38769,45492
7983,38735,45442
7939,38700,45392
7904,38670,45348
7872,38641,45307
7837,38611,45262
7803,38583,45212
7780,38560,45164
7758,38542,45121
7736,38526,45081
7724,38512,45050
7723,38503,45027
7721,38491,45005
7708,38475,44981
7691,38460,44959
7679,38456,44942
7667,38460,44926
7650,38462,44909
7640,38465,44892
7636,38473,44876
7619,38475,44858
7588,38466,44830
7555,38451,44796
7524,38431,44765
7491,38405,44735
7455,38374,44700
7422,38344,44665
7393,38319,44633
7362,38295,44602
7335,38274,44568
7312,38255,44535
7288,38240,44504
7259,38223,44468
7225,38200,44423
7192,38175,44377
7161,38149,44336
7128,38117,44294
7100,38084,44254
7086,38062,44226
7086,38054,44218
7100,38060,44232
7136,38085,44269
7197,38132,44335
7276,38198,44437
7368,38273,44568
7477,38360,44720
7602,38460,44893
7734,38568,45082
7865,38678,45278
8001,38790,45482
8144,38905,45693
8284,39020,45908
8418,39130,46120
8551,39233,46327
8683,39337,46530
8798,39433,46725
8898,39518,46908
8996,39594,47073
9094,39662,47224
9180,39719,47359
9251,39761,47475
9319,39796,47569
9385,39830,47646
9439,39859,47707
9482,39882,47758
9525,39904,47806
9563,39927,47851
9587,39945,47888
9606,39961,47915
9628,39980,47942
9644,39998,47968
9649,40008,47986
9649,40011,47996
9652,40016,48009
9655,40027,48025
9650,40033,48037
9644,40033,48040
9646,40036,48037
9649,40045,48036
9643,40050,48037
9630,40048,48030
9620,40047,48025
9613,40050,48026
9606,40048,48023
9606,40043,48011
9613,40039,48001
9620,40036,47999
9620,40027,48001
9619,40016,48002
9621,40010,48006
9624,40005,48014
9623,39997,48019
9625,39990,48023
9634,39991,48032
9642,39993,48043
9641,39990,48044
9641,39988,48037
9649,39988,48032
9653,39986,48024
9645,39977,48007
9635,39968,47986
9628,39963,47970
9617,39961,47953
9602,39958,47931
9592,39956,47911
9590,39958,47901
9587,39960,47893
9579,39957,47882
9571,39950,47874
9564,39942,47871
9549,39929,47863
9531,39911,47843
9521,39897,47820
9517,39894,47806
9511,39895,47800
9509,39896,47799
9519,39901,47802
9535,39908,47809
9543,39909,47814
9544,39906,47813
9544,39908,47813
9542,39913,47820
9535,39915,47830
9529,39915,47841
9534,39918,47854
9540,39920,47865
9535,39918,47868
9524,39914,47864
9518,39914,47856
9508,39916,47840
9486,39912,47814
9463,39904,47785
9446,39898,47764
9427,39893,47746
9399,39881,47719
9376,39865,47687
9356,39851,47662
9328,39836,47637
9296,39819,47607
9271,39805,47576
9255,39795,47549
9237,39781,47523
9211,39760,47494
9181,39737,47461
9150,39715,47431
9111,39690,47398
9067,39662,47356
9032,39634,47309
9001,39606,47261
8960,39572,47210
8909,39530,47152
8859,39487,47091
8816,39447,47034
8773,39409,46977
8730,39372,46916
8690,39338,46855
8649,39307,46795
8600,39275,46735
8549,39244,46678
8510,39220,46627
8480,39201,46581
8446,39183,46535
8414,39165,46489
8391,39151,46449
8371,39140,46418
8347,39128,46391
8327,39115,46362
8315,39106,46331
8304,39104,46300
8287,39102,46269
8271,39099,46235
8258,39096,46199
8237,39089,46167
8207,39075,46136
8178,39058,46104
8154,39042,46074
8124,39023,46044
8084,38997,46012
8046,38974,45981
8017,38960,45957
7990,38946,45931
7959,38923,45897
7931,38893,45858
7907,38864,45819
7879,38835,45774
7843,38801,45721
7809,38766,45665
7778,38737,45614
7743,38714,45569
7711,38693,45525
7691,38679,45487
7680,38670,45455
7667,38661,45423
7653,38646,45390
7641,38628,45358
7625,38611,45327
7600,38593,45295
7571,38572,45263
7548,38554,45233
7529,38540,45207
7506,38521,45178
7478,38497,45144
7454,38474,45109
7433,38455,45077
7410,38434,45046
7387,38413,45014
7369,38398,44980
7349,38385,44944
7327,38368,44903
7310,38354,44860
7302,38351,44823
7295,38355,44794
7281,38352,44766
7269,38346,44738
7267,38345,44717
7264,38343,44701
7252,38330,44679
7238,38312,44651
7220,38295,44627
7192,38278,44606
7156,38256,44582
7128,38235,44556
7108,38223,44532
7091,38215,44508
7068,38204,44477
7040,38190,44440
7013,38178,44406
6987,38166,44376
6964,38154,44345
6950,38147,44315
6943,38144,44290
6933,38143,44269
6921,38138,44244
6911,38129,44217
6902,38119,44190
6882,38105,44161
6856,38093,44134
6840,38093,44121
6834,38102,44128
6831,38112,44152
6838,38125,44191
6866,38152,44256
6919,38196,44347
6988,38248,44460
7074,38311,44590
7179,38386,44740
7294,38471,44910
7406,38560,45086
7517,38651,45267
7638,38748,45459
7762,38849,45657
7881,38947,45856
8002,39038,46051
8126,39129,46241
8242,39214,46422
8345,39291,46588
8443,39365,46738
8541,39440,46878
8625,39508,47004
8694,39563,47109
8758,39606,47198
8821,39641,47278
8869,39663,47348
8897,39673,47402
8916,39679,47438
8932,39682,47464
8942,39679,47479
8945,39669,47481
8953,39658,47478
8965,39651,47473
8967,39644,47464
8961,39632,47448
8955,39620,47430
8948,39612,47415
8935,39605,47402
8919,39595,47387
8910,39587,47368
8905,39583,47347
8896,39575,47327
8888,39561,47312
8889,39551,47305
8890,39554,47310
8885,39564,47316
8881,39576,47319
8885,39591,47326
8891,39606,47341
8895,39618,47357
8903,39626,47367
8915,39633,47375
8924,39640,47383
8922,39645,47390
8916,39650,47395
8912,39659,47398
8904,39668,47398
8889,39670,47393
8877,39667,47383
8867,39662,47370
8849,39651,47352
8820,39628,47325
8794,39596,47294
8775,39566,47261
8753,39539,47224
8726,39511,47182
8705,39490,47140
8692,39483,47107
8676,39484,47087
8653,39480,47072
8634,39469,47060
8622,39462,47053
8612,39457,47046
8603,39449,47037
8601,39444,47029
8610,39447,47030
8621,39451,47036
8627,39453,47042
8635,39453,47052
8646,39455,47067
8654,39454,47080
8662,39452,47085
8677,39456,47090
8693,39469,47101
8703,39484,47108
8707,39493,47108
8716,39499,47110
8726,39502,47115
8728,39502,47117
8725,39500,47116
8727,39502,47117
8725,39504,47117
8711,39500,47113
8691,39492,47105
8672,39487,47096
8651,39485,47086
8624,39478,47070
8600,39470,47050
8582,39463,47031
8561,39456,47010
8534,39444,46985
8511,39431,46959
8492,39419,46932
8467,39400,46900
8434,39374,46859
8403,39344,46814
8383,39315,46772
8358,39287,46733
8322,39259,46691
8283,39233,46650
8249,39211,46611
8210,39189,46568
8169,39168,46520
8134,39148,46469
8105,39129,46420
8070,39106,46370
8026,39075,46314
7987,39041,46259
7954,39011,46211
7919,38984,46162
7880,38954,46108
7846,38925,46057
7816,38897,46011
7778,38862,45960
7738,38825,45905
7711,38798,45854
7688,38782,45813
7658,38769,45778
7626,38753,45744
7604,38740,45715
7591,38733,45691
7575,38727,45668
7562,38719,45643
7554,38709,45620
7545,38698,45600
7531,38686,45576
7514,38676,45547
7502,38672,45522
7486,38669,45496
7464,38657,45464
7442,38639,45429
7423,38622,45398
7400,38606,45367
7371,38585,45332
7342,38565,45299
7315,38548,45269
7281,38529,45239
7240,38503,45207
7203,38479,45176
7173,38462,45153
7138,38445,45132
7101,38425,45107
7070,38404,45078
7046,38388,45050
7022,38371,45019
6996,38347,44984
6971,38324,44952
6952,38311,44928
6935,38302,44908
6918,38292,44886
6904,38283,44861
6887,38273,44837
6861,38258,44807
6832,38240,44771
6809,38225,44734
6791,38209,44700
6769,38188,44667
6746,38162,44631
6730,38136,44594
6715,38113,44561
6692,38087,44530
6671,38060,44496
6658,38038,44462
6649,38023,44431
6637,38011,44400
6626,38005,44374
6621,38010,44356
6618,38021,44341
6610,38029,44323
6600,38032,44303
6595,38035,44293
6592,38037,44295
6589,38039,44304
6597,38049,44325
6621,38074,44371
6657,38108,44442
6704,38150,44527
6772,38207,44629
6861,38279,44757
6960,38358,44906
7065,38435,45064
7183,38517,45231
7311,38608,45412
7435,38702,45601
7551,38793,45790
7668,38882,45976
7784,38970,46164
7892,39051,46344
7994,39123,46511
8098,39195,46666
8203,39269,46812
8298,39336,46947
8382,39392,47066
8460,39439,47174
8531,39478,47271
8586,39507,47349
8624,39527,47405
8656,39547,47447
8682,39564,47483
8699,39576,47505
8709,39586,47510
8722,39596,47508
8739,39609,47508
8753,39619,47506
8762,39623,47498
8767,39630,47490
8768,39640,47489
8763,39650,47488
8755,39655,47481
8746,39656,47472
8730,39654,47466
8709,39649,47464
8690,39642,47464
8676,39636,47465
8662,39627,47464
8648,39613,47459
8640,39598,47452
8636,39588,47452
8620,39575,47449
8597,39557,47436
8585,39540,47416
8585,39530,47400
8585,39525,47386
8580,39519,47370
8578,39517,47356
8584,39521,47347
8588,39526,47337
8589,39530,47323
8595,39536,47309
8604,39542,47298
8608,39540,47287
8607,39528,47269
8610,39514,47252
8614,39505,47242
8610,39494,47231
8599,39483,47219
8591,39483,47213
8585,39494,47215
8573,39505,47213
8556,39511,47205
8547,39517,47200
8545,39529,47202
8541,39540,47203
8536,39546,47204
8540,39552,47211
8546,39557,47222
8547,39555,47231
8546,39548,47238
8549,39544,47248
8551,39542,47259
8542,39536,47262
8531,39527,47259
8525,39521,47257
8517,39520,47259
8508,39518,47257
8506,39517,47251
8513,39518,47251
8517,39516,47254
8515,39509,47252
8518,39503,47249
8524,39501,47251
8521,39498,47249
8506,39489,47236
8492,39475,47213
8484,39464,47190
8472,39452,47163
8455,39439,47127
8441,39429,47091
8432,39423,47059
8415,39411,47027
8390,39394,46992
8371,39380,46964
8357,39371,46945
8339,39357,46924
8315,39340,46891
8296,39325,46854
8280,39309,46816
8256,39282,46771
8225,39249,46720
8200,39223,46673
8181,39209,46633
8157,39197,46596
8132,39181,46558
8109,39166,46523
8086,39155,46492
8057,39147,46461
8029,39138,46423
8009,39132,46383
7987,39125,46346
7960,39111,46308
7936,39093,46269
7919,39079,46235
7900,39067,46208
7874,39050,46180
7847,39032,46152
7828,39016,46126
7811,39002,46104
7790,38984,46077
7767,38968,46044
7743,38957,46012
7713,38945,45983
7680,38925,45950
7653,38902,45915
7636,38885,45886
7617,38868,45862
7591,38847,45834
7565,38825,45803
7541,38805,45775
7511,38785,45744
7477,38761,45707
7447,38732,45669
7420,38708,45636
7392,38686,45604
7363,38663,45569
7339,38639,45537
7318,38614,45505
7290,38591,45470
7255,38573,45428
7225,38560,45381
7196,38550,45336
7166,38539,45294
7139,38522,45253
7123,38502,45212
7113,38482,45175
7106,38465,45143
7104,38450,45117
7109,38444,45101
7111,38446,45093
7103,38444,45087
7089,38439,45080
7083,38442,45071
7079,38448,45057
7065,38449,45033
7050,38448,45005
7044,38447,44982
7039,38438,44964
7021,38423,44940
6997,38410,44915
6976,38398,44897
6957,38387,44890
6939,38383,44892
6929,38394,44904
6937,38418,44929
6960,38447,44969
6993,38475,45023
7044,38510,45096
7119,38562,45196
7205,38624,45314
7293,38687,45443
7393,38758,45592
7508,38839,45759
7627,38923,45937
7748,39007,46119
7879,39100,46312
8022,39202,46518
8165,39305,46728
8301,39400,46926
8436,39491,47114
8566,39579,47297
8681,39662,47465
8785,39740,47617
8886,39816,47759
8982,39890,47893
9060,39954,48015
9125,40007,48121
9186,40055,48215
9238,40097,48297
9275,40129,48362
9298,40150,48409
9316,40166,48445
9328,40176,48469
9329,40177,48478
9328,40170,48477
9327,40160,48474
9321,40148,48466
9305,40132,48454
9293,40117,48441
9290,40109,48433
9290,40104,48428
9284,40097,48422
9286,40094,48417
9301,40102,48421
9320,40114,48432
9336,40119,48442
9354,40123,48456
9379,40135,48479
9403,40149,48503
9420,40157,48522
9440,40167,48540
9461,40183,48562
9476,40199,48585
9484,40213,48604
9491,40226,48620
9500,40242,48638
9504,40257,48653
9501,40267,48659
9497,40272,48658
9489,40276,48655
9466,40271,48648
9434,40254,48631
9406,40235,48607
9384,40218,48582
9360,40193,48549
9342,40165,48511
9340,40149,48481
9347,40148,48463
9348,40148,48447
9345,40144,48430
9345,40138,48414
9336,40129,48398
9311,40114,48378
9281,40093,48353
9254,40073,48327
9229,40057,48305
9207,40043,48285
9195,40036,48270
9199,40040,48268
9207,40051,48279
9214,40063,48296
9226,40073,48318
9245,40089,48348
9262,40109,48380
9271,40126,48407
9282,40142,48430
9295,40152,48447
9298,40150,48452
9289,40137,48437
9280,40126,48408
9281,40122,48377
9288,40118,48348
9293,40112,48321
9303,40111,48304
9315,40114,48301
9321,40111,48303
9320,40097,48302
9320,40085,48301
9316,40079,48297
9299,40067,48289
9274,40051,48275
9247,40033,48254
9214,40016,48225
9170,39992,48188
9122,39960,48139
9077,39925,48082
9035,39896,48026
8992,39869,47971
8955,39846,47919
8934,39835,47877
8918,39830,47843
8897,39820,47811
8872,39807,47778
8848,39792,47746
8816,39770,47714
8772,39739,47678
8726,39705,47637
8680,39670,47592
8633,39634,47541
8585,39597,47484
8544,39565,47423
8515,39540,47366
8486,39519,47312
8452,39497,47255
8424,39480,47200
8403,39464,47155
8379,39444,47120
8351,39420,47087
8331,39400,47058
8318,39388,47033
8302,39377,47012
8275,39362,46985
8244,39344,46952
8215,39329,46920
8182,39312,46884
8145,39288,46838
8112,39265,46788
8086,39247,46742
8061,39231,46700
8037,39214,46662
8020,39199,46627
8008,39184,46595
7995,39170,46565
7982,39158,46531
7971,39150,46499
7959,39149,46472
7942,39146,46450
7924,39138,46427
7913,39131,46409
7901,39122,46392
7876,39104,46368
7840,39077,46335
7807,39051,46301
7776,39025,46271
7736,38998,46234
7695,38975,46189
7662,38958,46144
7631,38940,46100
7598,38918,46055
7572,38896,46010
7555,38879,45969
7536,38864,45930
7511,38843,45887
7488,38817,45844
7472,38798,45810
7461,38790,45785
7452,38785,45763
7447,38783,45745
7448,38785,45737
7443,38789,45732
7429,38791,45721
7414,38793,45706
7397,38791,45692
7366,38779,45672
7323,38758,45640
7282,38733,45602
7249,38711,45562
7219,38691,45523
7187,38665,45480
7160,38638,45436
7140,38613,45395
7119,38588,45355
7099,38563,45316
7088,38546,45287
7086,38542,45273
7088,38544,45270
7098,38554,45283
7127,38579,45321
7173,38619,45386
7227,38663,45473
7293,38712,45577
7377,38773,45704
7470,38845,45852
7564,38920,46013
7665,38999,46185
7779,39084,46366
7902,39174,46549
8031,39267,46733
8168,39364,46918
8313,39470,47109
8458,39580,47305
8594,39688,47496
8726,39790,47683
8860,39890,47865
8986,39986,48038
9100,40075,48198
9208,40158,48350
9307,40234,48493
9383,40296,48621
9439,40340,48727
9485,40375,48812
9530,40406,48881
9564,40430,48940
9583,40440,48986
9595,40443,49019
9603,40444,49043
9602,40442,49057
9597,40437,49058
9602,40432,49053
9619,40431,49049
9632,40428,49045
9638,40421,49037
9648,40417,49028
9664,40423,49027
9677,40435,49036
9688,40448,49052
9703,40465,49075
9721,40486,49107
9730,40503,49138
9737,40517,49166
9750,40533,49196
9763,40550,49229
9770,40559,49259
9770,40558,49279
9769,40555,49292
9767,40555,49303
9762,40553,49307
9757,40544,49303
9760,40537,49299
9767,40534,49297
9773,40536,49294
9781,40543,49292
9796,40558,49299
9811,40577,49311
9818,40592,49319
9824,40603,49323
9829,40610,49323
9821,40607,49320
9799,40590,49305
9772,40565,49277
9748,40537,49245
9718,40508,49211
9682,40477,49169
9654,40450,49124
9637,40430,49090
9623,40420,49066
9614,40418,49053
9616,40424,49052
9624,40435,49064
9628,40444,49082
9631,40452,49096
9638,40461,49103
9644,40472,49111
9645,40477,49117
9639,40473,49118
9634,40468,49117
9630,40465,49118
9627,40461,49117
9626,40459,49112
9634,40466,49110
9645,40478,49116
9652,40484,49123
9657,40487,49127
9666,40490,49130
9671,40495,49133
9664,40494,49131
9648,40485,49118
9625,40471,49102
9595,40454,49084
9557,40433,49059
9521,40410,49032
9492,40390,49005
9464,40373,48979
9439,40354,48946
9419,40334,48908
9405,40321,48875
9382,40309,48845
9352,40294,48806
9330,40281,48758
9317,40270,48713
9301,40256,48677
9276,40235,48637
9245,40213,48594
9216,40196,48555
9181,40178,48522
9139,40153,48487
9098,40123,48449
9059,40094,48411
9016,40062,48371
8972,40026,48322
8939,39993,48268
8916,39968,48218
8889,39946,48171
8858,39920,48121
8835,39897,48077
8815,39880,48044
8791,39864,48014
8766,39850,47985
8748,39843,47960
8732,39842,47935
8709,39837,47905
8686,39825,47864
8666,39812,47822
8645,39801,47785
8616,39784,47745
8580,39757,47701
8547,39726,47660
8509,39693,47621
8460,39655,47575
8408,39614,47523
8363,39579,47471
8325,39548,47422
8288,39519,47374
8259,39492,47328
8241,39471,47288
8228,39458,47254
8214,39443,47220
8203,39427,47187
8194,39416,47162
8177,39405,47139
8151,39392,47112
8130,39380,47084
8115,39372,47059
8096,39365,47035
8075,39356,47007
8063,39349,46979
8060,39347,46957
8053,39346,46939
8041,39340,46917
8029,39332,46891
8012,39318,46863
7983,39299,46830
7946,39276,46792
7906,39253,46756
7862,39229,46721
7808,39196,46678
7750,39158,46630
7704,39124,46586
7667,39098,46548
7634,39073,46508
7603,39050,46463
7583,39032,46420
7571,39019,46384
7554,39003,46348
7534,38984,46308
7518,38968,46271
7502,38954,46242
7484,38939,46216
7468,38927,46187
7458,38921,46160
7449,38920,46137
7434,38917,46111
7417,38908,46080
7405,38897,46048
7389,38883,46016
7367,38862,45978
7344,38838,45934
7323,38820,45894
7301,38805,45860
7279,38793,45827
7264,38783,45794
7256,38778,45765
7241,38774,45736
7218,38770,45703
7201,38767,45675
7196,38772,45662
7193,38778,45665
7189,38783,45679
7193,38791,45703
7212,38805,45743
7242,38825,45802
7288,38855,45880
7353,38899,45978
7432,38957,46101
7518,39025,46244
7612,39097,46401
7719,39172,46568
7839,39253,46746
7961,39340,46930
8086,39430,47114
8221,39526,47299
8358,39627,47487
8488,39724,47672
8614,39815,47849
8739,39904,48023
8858,39991,48196
8964,40070,48362
9060,40140,48510
9154,40209,48645
9241,40274,48770
9315,40328,48874
9380,40374,48960
9438,40415,49032
9481,40450,49093
9508,40473,49141
9526,40487,49176
9539,40498,49206
9545,40504,49233
9542,40504,49252
9541,40505,49268
9549,40511,49291
9557,40516,49311
9558,40522,49317
9560,40532,49313
9570,40544,49310
9580,40547,49310
9585,40544,49310
9593,40542,49314
9609,40548,49323
9626,40557,49339
9642,40565,49356
9666,40577,49377
9695,40594,49404
9717,40609,49436
9734,40620,49465
9757,40633,49491
9781,40647,49519
9799,40654,49546
9816,40656,49566
9837,40664,49588
9855,40675,49612
9860,40681,49630
9854,40682,49641
9845,40686,49650
9830,40691,49661
9809,40687,49664
9783,40673,49653
9755,40655,49631
9723,40639,49601
9687,40620,49565
9652,40595,49526
9624,40569,49490
9598,40547,49457
9572,40523,49421
9552,40499,49381
9544,40480,49350
9541,40467,49330
9539,40457,49314
9543,40452,49299
9558,40458,49293
9574,40468,49293
9580,40473,49292
9585,40478,49289
9598,40492,49293
9609,40514,49306
9610,40529,49320
9607,40536,49333
9606,40545,49346
9600,40549,49352
9587,40543,49350
9578,40531,49341
9573,40521,49329
9563,40510,49314
9547,40494,49293
9530,40475,49271
9514,40459,49253
9490,40442,49234
9461,40420,49211
9438,40402,49189
9421,40391,49168
9399,40379,49148
9375,40362,49125
9358,40347,49100
9343,40335,49072
9323,40320,49042
9304,40302,49011
9295,40287,48983
9288,40276,48958
9274,40261,48932
9257,40245,48906
9243,40238,48884
9227,40236,48867
9205,40230,48848
9182,40218,48824
9163,40205,48797
9141,40191,48766
9108,40172,48731
9071,40151,48692
9041,40130,48649
9016,40104,48599
8981,40071,48546
8940,40040,48495
8897,40015,48451
8850,39990,48409
8801,39961,48362
8759,39933,48311
8723,39907,48264
8681,39879,48213
8634,39845,48153
8596,39811,48092
8571,39781,48038
8547,39753,47986
8517,39725,47935
8486,39704,47887
8454,39693,47845
8416,39685,47810
8384,39674,47775
8375,39663,47745
8384,39659,47724
8394,39657,47707
8395,39652,47686
8393,39644,47663
8387,39640,47645
8373,39634,47629
8356,39627,47611
8341,39625,47595
8318,39626,47579
8280,39618,47555
8236,39604,47523
8197,39591,47486
8163,39577,47451
8123,39557,47411
8080,39529,47364
8042,39499,47318
8004,39465,47273
7960,39426,47223
7917,39384,47167
7883,39348,47117
7855,39318,47074
7827,39287,47030
7800,39257,46986
7781,39231,46948
7762,39208,46913
7740,39184,46875
7722,39165,46839
7713,39156,46809
7702,39153,46783
7688,39148,46757
7676,39142,46732
7669,39139,46712
7661,39137,46694
7650,39134,46670
7642,39131,46648
7638,39130,46630
7626,39123,46610
7603,39111,46582
7584,39099,46551
7569,39091,46520
7545,39079,46489
7515,39061,46456
7491,39047,46428
7469,39034,46403
7437,39016,46375
7403,38994,46342
7377,38977,46307
7356,38965,46281
7330,38952,46254
7302,38935,46223
7279,38920,46195
7254,38910,46171
7224,38899,46148
7193,38884,46116
7166,38868,46077
7139,38848,46037
7106,38822,45993
7071,38794,45945
7036,38768,45895
6997,38743,45846
6952,38711,45797
6910,38674,45747
6878,38643,45704
6850,38620,45667
6823,38599,45630
6802,38579,45591
6796,38570,45562
6798,38571,45545
6801,38575,45533
6817,38587,45535
6849,38613,45563
6890,38649,45621
6940,38691,45703
7009,38744,45810
7098,38815,45944
7197,38895,46099
7306,38980,46268
7428,39076,46452
7562,39181,46651
7696,39287,46856
7827,39388,47055
7959,39485,47248
8089,39579,47439
8206,39669,47629
8311,39755,47810
8415,39841,47981
8515,39921,48137
8600,39986,48272
8672,40038,48384
8739,40085,48485
8798,40126,48575
8838,40153,48643
8864,40168,48689
8887,40182,48725
8908,40196,48757
8922,40204,48774
8935,40206,48777
8952,40207,48778
8968,40208,48779
8978,40201,48773
8984,40188,48758
8991,40179,48744
8994,40174,48734
8993,40167,48724
8996,40162,48719
9005,40162,48722
9010,40166,48728
9010,40172,48731
9011,40180,48731
9017,40194,48734
9019,40210,48741
9016,40224,48750
9021,40239,48767
9034,40259,48793
9041,40279,48823
9043,40294,48849
9049,40309,48873
9061,40324,48898
9067,40332,48919
9064,40332,48929
9061,40325,48933
9057,40314,48935
9043,40296,48927
9023,40270,48910
9002,40244,48890
8978,40227,48872
8949,40214,48854
8919,40202,48834
8896,40193,48814
8877,40187,48796
8858,40178,48771
8841,40166,48739
8832,40156,48710
8825,40147,48687
8811,40136,48661
8793,40120,48634
8778,40105,48614
8762,40090,48600
8744,40072,48585
8730,40053,48568
8728,40039,48555
8730,40032,48553
8726,40027,48555
8724,40023,48559
8731,40028,48566
8739,40038,48574
8742,40044,48579
8747,40048,48582
8759,40057,48593
8770,40069,48609
8776,40074,48619
8788,40076,48622
8808,40085,48626
8824,40098,48631
8829,40106,48634
8832,40116,48639
8835,40131,48645
8829,40142,48648
8809,40142,48643
8784,40135,48630
8755,40123,48613
8718,40101,48591
8678,40073,48562
8644,40045,48527
8615,40021,48492
8582,39995,48456
8551,39969,48415
8532,39946,48374
8520,39927,48338
8505,39909,48302
8489,39889,48265
8474,39872,48231
8458,39860,48202
8440,39851,48175
8423,39839,48143
8407,39833,48115
8390,39832,48093
8368,39826,48068
8347,39814,48037
8324,39798,48003
8294,39777,47967
8249,39749,47924
8196,39716,47874
8146,39682,47822
8099,39646,47775
8052,39608,47726
8010,39569,47677
7976,39533,47629
7940,39498,47579
7899,39461,47527
7866,39428,47479
7846,39408,47441
7829,39394,47409
7804,39377,47376
7777,39360,47340
7758,39352,47308
7740,39352,47281
7721,39350,47256
7710,39348,47233
7705,39347,47213
7700,39343,47195
7692,39332,47175
7679,39321,47149
7659,39311,47122
7628,39297,47093
7590,39277,47062
7556,39254,47031
7525,39234,47002
7488,39211,46971
7449,39186,46934
7421,39163,46896
7404,39144,46860
7385,39122,46821
7367,39095,46776
7355,39070,46732
7349,39051,46693
7337,39031,46656
7323,39010,46623
7314,38996,46598
7301,38986,46580
7276,38971,46559
7248,38956,46533
7227,38949,46511
7208,38947,46493
7186,38944,46475
7171,38941,46457
7161,38944,46445
7144,38946,46437
7120,38942,46421
7098,38936,46398
7077,38928,46377
7052,38916,46361
7026,38901,46342
7008,38890,46323
6998,38887,46307
6982,38883,46286
6956,38869,46256
6931,38851,46218
6913,38835,46179
6893,38817,46140
6867,38791,46097
6840,38760,46051
6812,38727,46005
6780,38689,45959
6746,38651,45911
6722,38619,45872
6707,38598,45853
6693,38588,45848
6685,38586,45852
6692,38591,45869
6716,38608,45906
6750,38634,45962
6799,38669,46034
6867,38720,46125
6952,38786,46242
7045,38865,46380
7150,38953,46535
7270,39053,46711
7398,39165,46903
7525,39280,47099
7654,39395,47294
7788,39513,47490
7917,39627,47681
8030,39726,47860
8134,39812,48026
8235,39888,48176
8325,39948,48307
8397,39988,48418
8457,40014,48509
8510,40039,48588
8555,40062,48652
8586,40080,48699
8611,40094,48731
8638,40113,48757
8660,40133,48776
8674,40145,48784
8692,40151,48785
8713,40160,48792
8727,40170,48803
8729,40174,48804
8728,40174,48799
8730,40172,48795
8731,40167,48791
8727,40160,48786
8724,40156,48786
8723,40158,48792
8718,40161,48799
8712,40163,48801
8711,40168,48805
8711,40177,48812
8703,40183,48818
8695,40185,48823
8696,40193,48833
8702,40207,48850
8704,40216,48864
8705,40213,48870
8711,40209,48874
8719,40209,48880
8717,40206,48882
8711,40197,48878
8709,40185,48868
8703,40171,48853
8688,40152,48831
8667,40129,48804
8648,40106,48775
8630,40081,48744
8607,40053,48706
8583,40023,48665
8559,39997,48627
8531,39975,48589
8497,39954,48546
8471,39936,48506
8459,39927,48480
8453,39922,48468
8446,39918,48462
8449,39915,48458
8465,39918,48459
8480,39921,48466
8486,39920,48474
8493,39923,48483
8509,39938,48497
8527,39960,48516
8546,39980,48536
8569,39997,48554
8593,40015,48574
8608,40032,48591
8614,40044,48599
8619,40052,48602
8621,40060,48608
8613,40064,48610
8599,40061,48605
8593,40057,48602
8591,40053,48601
8585,40050,48598
8575,40042,48588
8569,40034,48576
8566,40030,48568
8559,40021,48557
8550,40007,48536
8549,39995,48514
8552,39991,48494
8547,39987,48474
8537,39979,48454
8523,39971,48437
8501,39962,48423
8464,39947,48400
8424,39930,48367
8391,39914,48333
8362,39899,48302
8333,39881,48268
8308,39861,48232
8291,39845,48198
8273,39833,48168
8250,39819,48135
8227,39799,48099
8204,39778,48062
8171,39753,48018
8129,39720,47964
8088,39683,47904
8055,39651,47855
8021,39627,47817
7983,39604,47779
7950,39581,47741
7923,39566,47708
7897,39560,47679
7866,39552,47649
7841,39542,47615
7826,39535,47583
7810,39527,47553
7788,39509,47517
7770,39488,47476
7759,39477,47439
7743,39472,47401
7724,39465,47360
7708,39458,47325
7691,39451,47302
7668,39442,47281
7643,39427,47254
7623,39412,47228
7605,39397,47206
7578,39376,47181
7547,39350,47151
7519,39326,47121
7491,39304,47093
7459,39277,47062
7428,39247,47026
7402,39221,46990
7375,39201,46956
7342,39181,46920
7315,39164,46886
7293,39151,46860
7270,39143,46838
7248,39134,46813
7233,39124,46784
7221,39114,46755
7205,39097,46723
7182,39072,46686
7163,39047,46648
7148,39027,46616
7123,39005,46586
7088,38978,46547
7053,38952,46502
7020,38930,46458
6986,38907,46414
6950,38881,46369
6917,38859,46328
6887,38843,46296
6856,38824,46269
6824,38802,46238
6804,38784,46208
6792,38775,46184
6777,38768,46161
6758,38758,46135
6743,38753,46108
6728,38755,46084
6708,38755,46056
6688,38748,46022
6676,38742,45990
6663,38737,45964
6643,38730,45942
6625,38718,45925
6620,38710,45921
6631,38712,45936
6652,38722,45970
6686,38741,46025
6740,38774,46102
6810,38819,46203
6889,38871,46320
6985,38931,46454
7101,39008,46613
7227,39101,46790
7354,39200,46973
7487,39301,47156
7628,39403,47341
7762,39503,47523
7883,39595,47696
8000,39682,47863
8119,39771,48029
8233,39862,48192
8335,39944,48342
8433,40018,48477
8527,40088,48601
8609,40151,48713
8676,40201,48809
8735,40242,48891
8789,40282,48968
8833,40319,49039
8863,40345,49096
8886,40365,49145
8904,40384,49187
8910,40396,49220
8909,40399,49241
8907,40396,49253
8903,40390,49266
8892,40380,49276
8879,40365,49277
8874,40354,49275
8873,40350,49278
8866,40346,49281
8859,40341,49280
8861,40342,49281
8865,40350,49286
8863,40357,49290
8859,40358,49291
8859,40358,49296
8857,40357,49305
8848,40354,49309
8838,40349,49310
8834,40348,49316
8829,40348,49325
8824,40348,49333
8826,40352,49340
8834,40359,49347
8837,40365,49354
8833,40367,49355
8835,40369,49351
8845,40377,49346
8847,40386,49336
8839,40379,49314
8834,40358,49286
8833,40337,49257
8821,40316,49227
8796,40292,49192
8773,40269,49156
8756,40256,49126
8740,40245,49098
8720,40231,49068
8705,40221,49042
8696,40218,49027
8682,40214,49016
8665,40206,49003
8653,40200,48992
8646,40195,48984
8641,40187,48978
8638,40181,48970
8642,40182,48965
8649,40191,48966
8653,40200,48968
8657,40209,48966
8666,40218,48961
8678,40229,48961
8686,40236,48965
8691,40237,48965
8703,40242,48968
8714,40250,48979
8716,40253,48991
8713,40252,49000
8711,40254,49006
8703,40256,49008
8680,40249,49003
8652,40232,48990
8624,40211,48971
8593,40188,48950
8560,40163,48925
8534,40141,48898
8516,40125,48874
8499,40108,48849
8476,40084,48816
8452,40059,48777
8434,40040,48741
8413,40023,48705
8385,40001,48661
8359,39977,48612
8342,39958,48568
8327,39945,48531
8308,39932,48492
8293,39920,48457
8281,39910,48429
8260,39898,48400
8229,39880,48368
8199,39864,48338
8170,39853,48309
8136,39838,48274
8097,39815,48233
8060,39793,48187
8028,39773,48139
7995,39751,48089
7961,39725,48041
7933,39701,47997
7907,39681,47960
7878,39663,47921
7846,39641,47874
7817,39620,47825
7786,39598,47778
7746,39574,47731
7706,39548,47685
7671,39521,47641
7638,39495,47601
7599,39466,47562
7562,39434,47523
7534,39408,47486
7508,39387,47451
7477,39363,47413
7449,39336,47370
7428,39312,47330
7405,39288,47290
7373,39260,47246
7342,39233,47201
7318,39213,47160
7294,39199,47123
7264,39182,47082
7236,39164,47044
7217,39152,47015
7194,39143,46988
7166,39130,46958
7143,39115,46932
7120,39106,46914
7089,39101,46894
7057,39093,46866
7032,39085,46838
7013,39073,46810
6990,39052,46775
6964,39025,46732
6940,39000,46689
6917,38977,46648
6888,38951,46604
6857,38922,46559
6830,38898,46516
6802,38877,46473
6768,38853,46426
6731,38827,46375
6700,38804,46327
6674,38783,46285
6645,38757,46247
6615,38728,46209
6591,38705,46173
6569,38689,46135
6541,38672,46093
6511,38654,46051
6489,38645,46016
6467,38641,45988
6442,38632,45956
6416,38618,45919
6393,38605,45882
6369,38590,45849
6339,38570,45813
6313,38550,45777
6295,38531,45745
6275,38510,45716
6252,38487,45687
6235,38469,45660
6224,38457,45635
6208,38446,45609
6183,38429,45578
6159,38410,45543
6140,38394,45507
6116,38378,45469
6086,38359,45428
6062,38341,45392
6047,38329,45367
6037,38322,45351
6033,38321,45346
6046,38336,45365
6081,38371,45414
6128,38419,45487
6189,38476,45581
6271,38548,45700
6369,38632,45846
6473,38719,46009
6585,38804,46180
6709,38893,46361
6836,38987,46549
6961,39079,46737
7090,39170,46925
7225,39263,47115
7358,39358,47307
7482,39451,47493
7599,39537,47669
7713,39619,47835
7818,39694,47992
7907,39761,48133
7989,39824,48258
8075,39887,48377
8156,39949,48488
8220,40000,48587
8273,40041,48667
8319,40076,48727
8355,40104,48776
8378,40120,48814
8396,40131,48845
8405,40140,48874
8396,40141,48901
8375,40131,48914
8360,40118,48915
8355,40113,48912
8347,40113,48906
8335,40107,48892
8330,40097,48874
8331,40089,48860
8327,40079,48847
8317,40065,48833
8310,40054,48820
8308,40051,48816
8304,40047,48817
8300,40044,48820
8301,40048,48827
8308,40060,48839
8312,40072,48850
8314,40078,48856
8319,40083,48861
8326,40089,48871
8329,40094,48883
8331,40096,48891
8341,40096,48898
8355,40100,48906
8364,40101,48910
8369,40100,48909
8382,40104,48905
8394,40109,48899
8399,40106,48889
8402,40101,48879
8409,40103,48874
8408,40108,48870
8392,40107,48862
8376,40102,48851
8364,40095,48840
8347,40083,48828
8324,40064,48811
8303,40044,48793
8288,40028,48777
8268,40010,48758
8242,39992,48736
8223,39979,48718
8215,39975,48708
8204,39975,48701
8186,39970,48686
8170,39966,48670
8162,39968,48660
8156,39972,48658
8148,39970,48657
8145,39965,48655
8142,39960,48655
8137,39953,48653
8129,39940,48643
8125,39925,48631
8119,39915,48624
8102,39904,48617
8080,39893,48605
8066,39889,48594
8057,39890,48581
8043,39887,48565
8026,39879,48546
8014,39875,48528
8005,39875,48515
7989,39870,48503
7972,39856,48484
7960,39841,48460
7950,39826,48434
7933,39806,48404
7914,39780,48363
7901,39756,48321
7887,39735,48282
7862,39712,48243
7836,39691,48203
7817,39676,48168
7800,39666,48136
7777,39653,48097
7754,39637,48053
7736,39624,48013
7716,39613,47980
7688,39600,47947
7663,39588,47914
7642,39579,47883
7613,39569,47851
7573,39551,47811
7533,39532,47767
7502,39517,47727
7471,39500,47689
7435,39476,47650
7405,39449,47611
7384,39423,47578
7360,39393,47544
7330,39359,47504
7301,39326,47460
7275,39300,47420
7246,39278,47383
7215,39255,47341
7189,39231,47294
7161,39206,47248
7124,39179,47201
7084,39153,47156
7050,39131,47114
7020,39115,47076
6987,39099,47034
6955,39079,46982
6931,39058,46930
6912,39038,46886
6886,39014,46843
6858,38988,46798
6835,38970,46759
6814,38961,46726
6792,38954,46696
6776,38947,46663
6767,38944,46635
6757,38946,46614
6743,38947,46591
6736,38944,46563
6733,38942,46540
6720,38939,46520
6698,38931,46495
6680,38921,46470
6663,38911,46451
6641,38897,46430
6618,38877,46402
6604,38851,46372
6593,38827,46343
6567,38809,46314
6532,38794,46285
6500,38780,46257
6469,38767,46228
6432,38745,46196
6387,38712,46154
6344,38677,46109
6304,38645,46064
6262,38612,46017
6220,38574,45968
6184,38539,45921
6157,38512,45879
6130,38490,45840
6102,38471,45803
6080,38459,45772
6064,38456,45748
6044,38453,45720
6020,38444,45681
6000,38433,45642
5984,38423,45612
5964,38413,45586
5944,38401,45557
5929,38390,45524
5920,38378,45491
5908,38362,45459
5893,38345,45431
5881,38335,45409
5868,38330,45386
5850,38321,45356
5831,38312,45322
5814,38307,45290
5791,38305,45260
5761,38300,45230
5730,38291,45201
5702,38278,45174
5672,38262,45151
5642,38244,45131
5627,38231,45121
5626,38229,45132
5630,38235,45162
5641,38244,45205
5673,38262,45265
5731,38299,45348
5799,38355,45450
5876,38418,45566
5970,38485,45698
6083,38562,45850
6207,38647,46018
6332,38735,46192
6461,38829,46372
6593,38927,46560
6718,39021,46748
6836,39111,46930
6956,39200,47108
7074,39289,47285
7183,39375,47455
7282,39449,47608
7376,39516,47744
7461,39578,47865
7531,39628,47969
7595,39669,48055
7660,39707,48131
7722,39743,48200
7771,39772,48259
7806,39793,48304
7837,39808,48341
7862,39821,48369
7878,39829,48385
7887,39833,48393
7895,39835,48398
7896,39836,48402
7889,39833,48402
7883,39828,48397
7883,39831,48395
7878,39836,48395
7868,39835,48390
7864,39834,48385
7870,39839,48387
7875,39843,48392
7875,39843,48395
7879,39844,48399
7889,39852,48407
7892,39861,48416
7884,39864,48424
7881,39868,48433
7887,39878,48451
7892,39891,48476
7893,39897,48499
7892,39896,48516
7894,39893,48534
7895,39887,48548
7892,39880,48555
7893,39877,48559
7894,39878,48560
7885,39876,48554
7868,39869,48540
7851,39864,48521
7838,39863,48502
7825,39857,48479
7811,39845,48450
7800,39834,48423
7786,39820,48397
7761,39797,48366
7732,39771,48331
7713,39753,48301
7706,39748,48281
7699,39743,48262
7693,39736,48242
7692,39731,48228
7693,39730,48221
7688,39726,48212
7685,39719,48201
7692,39719,48196
7706,39725,48196
7718,39728,48197
7731,39729,48198
7742,39733,48199
7743,39736,48201
7735,39731,48199
7732,39724,48197
7739,39723,48201
7740,39727,48206
7733,39731,48206
7726,39738,48203
7725,39748,48204
7722,39757,48208
7710,39762,48206
7702,39766,48196
7698,39771,48189
7688,39772,48181
7672,39766,48167
7660,39756,48151
7648,39747,48137
7627,39733,48120
7599,39712,48097
7575,39692,48074
7553,39672,48052
7528,39648,48027
7501,39622,47994
7477,39599,47959
7451,39580,47927
7416,39561,47892
7378,39538,47854
7350,39517,47816
7326,39497,47777
7294,39473,47734
7255,39442,47688
7216,39411,47642
7174,39383,47596
7128,39356,47547
7086,39327,47491
7052,39301,47433
7017,39275,47378
6976,39248,47324
6940,39224,47276
6913,39203,47232
6884,39184,47192
6849,39160,47149
6817,39135,47106
6793,39115,47068
6768,39099,47033
6740,39080,46991
6716,39060,46944
6695,39040,46898
6664,39014,46850
6622,38978,46795
6582,38938,46742
6548,38906,46696
6512,38879,46656
6474,38849,46616
6446,38818,46579
6427,38792,46547
6407,38769,46516
6382,38748,46480
6360,38734,46444
6339,38727,46412
6312,38719,46380
6280,38710,46347
6253,38703,46316
6226,38696,46289
6193,38681,46261
6156,38655,46224
6125,38625,46183
6096,38597,46144
6064,38573,46106
6033,38549,46067
6009,38528,46030
5988,38511,45995
5966,38498,45962
5951,38489,45932
5950,38487,45904
5954,38489,45876
5953,38489,45844
5953,38484,45808
5959,38480,45778
5959,38474,45756
5948,38464,45737
5935,38454,45719
5928,38445,45706
5916,38434,45699
5893,38422,45682
5867,38413,45649
5848,38407,45617
5828,38401,45591
5805,38390,45561
5786,38378,45529
5774,38367,45502
5755,38354,45479
5724,38335,45451
5693,38315,45423
5667,38296,45396
5633,38277,45366
5591,38254,45330
5552,38232,45289
5517,38212,45249
5481,38192,45210
5446,38166,45167
5418,38142,45123
5397,38125,45081
5375,38110,45040
5354,38092,44999
5341,38074,44963
5330,38058,44932
5310,38041,44899
5290,38024,44864
5280,38012,44832
5277,38004,44805
5271,37996,44782
5264,37989,44763
5261,37985,44753
5258,37988,44752
5251,37990,44754
5248,37994,44763
5259,38008,44788
5279,38030,44831
5308,38058,44889
5352,38100,44967
5414,38159,45073
5489,38228,45201
5571,38298,45347
5668,38372,45508
5784,38459,45687
5908,38554,45877
6032,38650,46070
6159,38746,46265
6290,38844,46461
6413,38936,46651
6526,39017,46825
6635,39093,46981
6739,39167,47126
6829,39235,47261
6906,39293,47380
6980,39346,47482
7054,39397,47574
7117,39440,47653
7167,39472,47714
7210,39498,47763
7247,39521,47805
7272,39536,47837
7288,39542,47855
7300,39544,47866
7308,39547,47873
7304,39548,47873
7292,39542,47864
7283,39535,47849
7274,39530,47839
