green_channel,red_channel,ir_channel
58272,30958,46993
58355,31039,47149
58413,31102,47270
58467,31156,47352
58501,31192,47408
58500,31202,47443
58490,31202,47456
58488,31203,47451
58472,31195,47438
58432,31169,47418
58393,31139,47381
58372,31115,47333
58350,31087,47285
58315,31050,47239
58295,31021,47186
58296,31006,47135
58291,30989,47096
58273,30963,47066
58264,30949,47034
58273,30949,47004
58276,30946,46985
58270,30935,46973
58277,30928,46957
58291,30924,46937
58281,30909,46922
58253,30884,46905
58235,30866,46876
58224,30851,46838
58190,30822,46798
58141,30783,46748
58107,30751,46683
58083,30728,46617
58038,30697,46554
57985,30658,46491
57952,30624,46426
57928,30594,46369
57891,30556,46323
57852,30523,46280
57839,30509,46239
57842,30506,46211
57837,30497,46199
57837,30491,46192
57861,30498,46186
57888,30512,46189
57901,30523,46199
57915,30536,46209
57944,30557,46217
57968,30573,46235
57970,30578,46255
57972,30582,46268
57987,30592,46273
57994,30595,46280
57979,30583,46290
57968,30575,46292
57974,30579,46285
57976,30580,46279
57963,30571,46272
57956,30565,46253
57959,30566,46227
57947,30560,46208
57918,30543,46188
57899,30532,46159
57892,30528,46127
57871,30517,46101
57836,30497,46074
57811,30482,46040
57799,30471,46006
57774,30450,45973
57737,30418,45932
57715,30389,45876
57701,30361,45817
57665,30322,45764
57617,30278,45709
57583,30244,45645
57558,30216,45582
57518,30181,45529
57473,30144,45479
57449,30121,45428
57432,30099,45380
57391,30063,45336
57343,30023,45286
57316,29989,45226
57298,29955,45163
57266,29913,45100
57236,29872,45032
57225,29842,44960
57213,29813,44897
57182,29775,44843
57156,29745,44792
57152,29730,44742
57144,29717,44701
57118,29695,44671
57095,29675,44638
57089,29662,44602
57082,29648,44573
57060,29626,44549
57044,29609,44521
57044,29601,44490
57034,29589,44463
57007,29571,44440
56993,29559,44412
56996,29554,44384
56989,29541,44361
56965,29519,44339
56954,29504,44314
56959,29498,44288
56947,29479,44262
56916,29447,44231
56898,29418,44190
56891,29394,44150
56868,29365,44122
56833,29329,44094
56809,29303,44057
56796,29287,44020
56769,29266,43989
56735,29243,43954
56719,29231,43910
56718,29224,43869
56702,29209,43839
56681,29193,43809
56676,29186,43777
56679,29180,43751
56671,29162,43732
56664,29142,43707
56676,29136,43678
56689,29130,43651
56680,29113,43623
56665,29095,43587
56663,29084,43543
56656,29066,43503
56627,29034,43468
56597,28997,43424
56583,28970,43372
56560,28940,43322
56515,28901,43278
56474,28871,43240
56461,28864,43216
56459,28869,43222
56460,28885,43261
56491,28931,43331
56563,29011,43440
56653,29111,43598
56752,29225,43797
56886,29365,44025
57055,29532,44281
57228,29708,44564
57399,29886,44863
57589,30077,45162
57796,30283,45461
57988,30484,45764
58164,30672,46061
58354,30862,46341
58548,31049,46608
58709,31209,46860
58837,31345,47084
58964,31475,47270
59084,31594,47430
59170,31683,47568
59224,31746,47674
59275,31801,47743
59314,31841,47788
59316,31851,47816
59297,31839,47818
59285,31824,47796
59264,31800,47760
59214,31753,47714
59157,31697,47648
59120,31649,47568
59089,31604,47494
59043,31554,47430
59002,31510,47364
58989,31479,47297
58978,31449,47239
58949,31410,47189
58927,31374,47136
58931,31351,47080
58934,31328,47035
58920,31297,46998
58907,31272,46955
58905,31259,46909
58891,31242,46872
58857,31213,46839
58834,31189,46797
58828,31173,46749
58809,31146,46707
58772,31107,46663
58747,31076,46606
58737,31052,46545
58707,31021,46493
58659,30983,46445
58631,30957,46394
58621,30943,46348
58598,30922,46315
58567,30899,46290
58562,30892,46266
58573,30893,46251
58565,30883,46249
58543,30867,46250
58542,30864,46252
58560,30870,46259
58560,30866,46273
58547,30858,46280
58553,30862,46281
58573,30875,46288
58584,30882,46305
58600,30887,46316
58644,30904,46316
58694,30923,46318
58723,30927,46323
58747,30928,46321
58785,30935,46309
58816,30935,46297
58819,30915,46282
58820,30892,46252
58838,30874,46204
58845,30847,46152
58828,30804,46098
58816,30758,46033
58823,30718,45961
58823,30675,45892
58801,30622,45820
58782,30571,45736
58773,30527,45645
58751,30476,45563
58712,30418,45490
58691,30373,45418
58693,30346,45354
58686,30317,45306
58662,30284,45265
58651,30265,45219
58653,30257,45176
58635,30236,45145
58599,30204,45115
58577,30180,45076
58570,30162,45036
58547,30136,45005
58511,30104,44973
58493,30081,44933
58484,30062,44892
58455,30031,44856
58414,29993,44815
58390,29967,44766
58373,29946,44720
58336,29909,44677
58292,29867,44629
58270,29835,44572
58258,29810,44523
58233,29779,44488
58206,29754,44454
58199,29745,44418
58193,29736,44386
58165,29713,44360
58141,29690,44332
58143,29682,44301
58144,29677,44278
58123,29664,44264
58104,29652,44243
58104,29650,44217
58102,29646,44203
58079,29635,44197
58063,29630,44185
58069,29637,44168
58065,29639,44158
58035,29626,44152
58010,29616,44135
58002,29613,44110
57978,29601,44091
57933,29576,44072
57897,29554,44039
57873,29533,43997
57832,29496,43958
57774,29449,43916
57733,29414,43861
57711,29390,43805
57675,29357,43758
57629,29315,43716
57602,29278,43667
57586,29251,43617
57549,29220,43575
57499,29185,43533
57464,29158,43486
57438,29135,43443
57400,29105,43414
57365,29077,43391
57364,29071,43380
57385,29083,43402
57404,29105,43463
57435,29150,43554
57503,29230,43673
57597,29333,43829
57696,29446,44019
57813,29580,44232
57966,29740,44464
58128,29911,44721
58275,30079,45000
58427,30254,45282
58603,30440,45555
58772,30615,45823
58912,30769,46083
59044,30912,46322
59180,31049,46536
59293,31166,46728
59372,31256,46897
59446,31336,47034
59530,31412,47145
59594,31467,47239
59627,31497,47312
59661,31519,47355
59701,31540,47376
59716,31541,47386
59702,31523,47380
59697,31507,47353
59701,31496,47315
59678,31468,47274
59636,31428,47227
59611,31395,47171
59600,31368,47113
59565,31328,47060
59513,31278,47008
59482,31239,46948
59464,31212,46893
59428,31178,46849
59383,31138,46804
59358,31108,46749
59341,31081,46695
59302,31037,46644
59252,30984,46584
59216,30938,46510
59181,30891,46433
59120,30830,46359
59054,30766,46282
59010,30716,46202
58969,30667,46129
58911,30605,46063
58854,30545,45999
58821,30505,45935
58793,30472,45882
58755,30433,45841
58727,30403,45802
58727,30392,45766
58728,30387,45745
58714,30377,45737
58709,30375,45731
58725,30391,45729
58735,30407,45742
58727,30417,45763
58727,30434,45780
58747,30459,45794
58758,30476,45813
58752,30482,45832
58758,30495,45843
58782,30516,45853
58791,30523,45867
58787,30515,45878
58800,30514,45879
58828,30520,45879
58836,30514,45885
58827,30498,45887
58833,30490,45875
58848,30488,45857
58841,30477,45843
58816,30463,45823
58802,30458,45793
58794,30455,45763
58762,30439,45736
58716,30411,45701
58691,30392,45654
58675,30376,45608
58639,30346,45570
58597,30311,45529
58581,30285,45478
58574,30256,45428
58547,30212,45382
58519,30168,45326
58512,30136,45261
58505,30107,45202
58474,30072,45152
58439,30043,45101
58423,30028,45049
58404,30011,45007
58368,29982,44971
58340,29957,44929
58331,29946,44885
58314,29930,44850
58273,29901,44819
58239,29875,44780
58223,29854,44736
58197,29820,44701
58149,29772,44668
58108,29729,44625
58083,29699,44578
58051,29671,44536
58008,29642,44496
57982,29624,44453
57975,29618,44416
57959,29607,44392
57932,29589,44370
57920,29580,44339
57920,29578,44307
57907,29567,44283
57885,29549,44261
57882,29540,44237
57888,29537,44217
57873,29524,44207
57846,29505,44194
57835,29492,44172
57831,29477,44146
57805,29446,44121
57767,29407,44088
57741,29374,44043
57718,29346,43998
57678,29314,43958
57638,29285,43917
57623,29271,43872
57614,29260,43834
57592,29238,43806
57571,29216,43776
57569,29206,43740
57563,29195,43708
57538,29175,43683
57514,29155,43650
57506,29143,43612
57495,29127,43585
57466,29101,43563
57440,29077,43531
57427,29064,43494
57403,29045,43467
57365,29012,43443
57337,28978,43410
57326,28950,43370
57310,28921,43337
57285,28888,43316
57279,28872,43307
57300,28881,43323
57330,28909,43377
57371,28959,43466
57451,29044,43583
57567,29161,43736
57688,29292,43933
57815,29435,44165
57973,29603,44418
58155,29789,44691
58323,29971,44981
58484,30149,45276
58665,30338,45561
58855,30526,45839
59017,30692,46112
59155,30838,46364
59296,30978,46590
59428,31108,46796
59526,31212,46984
59604,31301,47142
59686,31388,47266
59756,31462,47362
59790,31510,47437
59807,31540,47483
59829,31567,47504
59838,31582,47513
59818,31574,47509
59793,31555,47485
59781,31537,47445
59760,31508,47399
59713,31461,47350
59665,31411,47291
59633,31370,47225
59595,31326,47164
59541,31273,47108
59499,31227,47046
59480,31196,46981
59454,31162,46924
59410,31118,46873
59379,31081,46816
59374,31054,46757
59364,31021,46707
59341,30981,46659
59332,30952,46607
59336,30932,46559
59322,30903,46519
59287,30867,46480
59264,30844,46430
59251,30827,46378
59218,30799,46333
59170,30766,46289
59140,30743,46234
59127,30728,46181
59101,30704,46140
59069,30678,46105
59062,30669,46071
59067,30672,46048
59052,30666,46040
59028,30657,46034
59027,30662,46027
59038,30672,46029
59034,30672,46045
59024,30671,46059
59030,30680,46066
59032,30685,46076
59010,30674,46090
58990,30662,46098
58999,30663,46099
59010,30666,46109
59001,30657,46124
58991,30649,46128
58999,30654,46119
59005,30660,46110
58995,30656,46104
58992,30654,46088
59008,30662,46065
59015,30663,46047
59001,30652,46030
58992,30644,46001
58998,30643,45968
58990,30631,45944
58961,30606,45920
58935,30585,45884
58918,30571,45844
58884,30542,45806
58832,30497,45766
58792,30459,45718
58761,30426,45666
58715,30383,45621
58660,30333,45577
58622,30292,45525
58596,30257,45472
58553,30215,45422
58501,30169,45369
58467,30135,45309
58444,30107,45249
58403,30068,45193
58352,30024,45134
58317,29992,45073
58292,29964,45019
58255,29925,44975
58217,29885,44932
58201,29864,44887
58196,29852,44849
58175,29832,44817
58155,29813,44782
58154,29805,44745
58156,29799,44713
58138,29784,44688
58121,29772,44659
58118,29767,44624
58108,29758,44594
58077,29737,44568
58046,29716,44538
58029,29705,44506
58001,29689,44481
57954,29660,44459
57915,29631,44426
57898,29606,44386
57878,29576,44351
57848,29540,44319
57830,29512,44282
57827,29497,44245
57818,29483,44219
57800,29465,44201
57795,29456,44180
57805,29459,44160
57804,29457,44147
57787,29451,44135
57781,29452,44117
57784,29457,44100
57775,29450,44090
57757,29433,44078
57751,29419,44056
57749,29404,44027
57723,29374,43997
57687,29336,43963
57667,29307,43919
57652,29281,43876
57614,29241,43835
57564,29193,43786
57527,29153,43728
57498,29119,43672
57460,29078,43621
57426,29037,43570
57416,29016,43527
57416,29010,43508
57416,29010,43516
57434,29029,43546
57484,29077,43602
57553,29146,43696
57629,29231,43834
57731,29343,44010
57873,29485,44218
58024,29640,44459
58165,29798,44726
58315,29970,45006
58486,30157,45295
58656,30342,45596
58812,30515,45897
58971,30688,46178
59135,30858,46440
59277,31007,46690
59390,31136,46921
59503,31259,47121
59615,31373,47288
59694,31457,47432
59739,31513,47547
59780,31561,47626
59816,31604,47676
59819,31627,47710
59800,31632,47724
59795,31635,47715
59802,31632,47692
59785,31607,47662
59751,31569,47622
59732,31543,47569
59719,31521,47515
59682,31485,47464
59636,31443,47409
59614,31413,47348
59611,31394,47295
59597,31371,47259
59578,31349,47224
59576,31340,47183
59581,31334,47146
59568,31318,47122
59550,31300,47098
59548,31291,47071
59539,31275,47047
59503,31241,47025
59461,31199,46992
59430,31165,46946
59397,31130,46897
59349,31085,46850
59304,31039,46794
59276,31004,46736
59245,30969,46686
59200,30930,46643
59166,30901,46599
59153,30887,46556
59136,30872,46523
59106,30849,46494
59083,30832,46459
59075,30823,46425
59059,30808,46400
59032,30786,46383
59020,30777,46368
59026,30781,46359
59022,30783,46364
59010,30781,46374
59016,30787,46378
59035,30801,46383
59038,30808,46397
59030,30811,46414
59037,30826,46429
59054,30847,46446
59052,30855,46465
59037,30852,46474
59034,30853,46470
59036,30851,46464
59018,30834,46458
58990,30808,46440
58977,30788,46410
58966,30765,46378
58936,30729,46346
58898,30687,46305
58877,30655,46256
58862,30630,46211
58833,30603,46170
58804,30579,46126
58794,30568,46080
58784,30557,46037
58755,30535,45998
58725,30513,45949
58712,30503,45891
58699,30493,45837
58666,30471,45788
58631,30446,45734
58609,30426,45679
58582,30399,45636
58543,30359,45600
58514,30323,45558
58503,30297,45512
58486,30266,45471
58452,30224,45429
58422,30185,45377
58399,30152,45320
58361,30111,45270
58309,30061,45224
58272,30022,45173
58248,29992,45123
58212,29959,45081
58163,29924,45042
58130,29900,45000
58110,29883,44960
58077,29857,44926
58034,29822,44890
58007,29794,44845
57990,29771,44800
57960,29742,44763
57927,29713,44728
57917,29696,44689
57919,29686,44655
57908,29665,44632
57894,29640,44605
57898,29624,44571
57906,29611,44541
57895,29587,44516
57879,29560,44484
57879,29543,44444
57879,29528,44410
57859,29504,44387
57838,29482,44366
57836,29469,44340
57827,29455,44316
57792,29433,44298
57758,29412,44277
57743,29402,44252
57728,29391,44233
57696,29372,44216
57668,29356,44186
57655,29344,44146
57635,29324,44109
57599,29293,44073
57572,29264,44030
57562,29239,43986
57541,29205,43948
57504,29166,43910
57479,29136,43864
57474,29115,43818
57460,29089,43779
57436,29059,43740
57427,29038,43692
57430,29025,43644
57416,29007,43605
57390,28986,43573
57389,28976,43548
57408,28980,43542
57422,28989,43568
57440,29013,43624
57492,29068,43711
57572,29152,43839
57654,29251,44010
57744,29363,44208
57867,29500,44425
58011,29651,44666
58146,29800,44927
58284,29954,45196
58444,30126,45465
58606,30302,45741
58749,30463,46021
58889,30618,46288
59042,30776,46533
59185,30925,46764
59300,31054,46980
59407,31171,47166
59522,31283,47324
59621,31374,47461
59689,31438,47579
59747,31486,47666
59809,31528,47727
59850,31558,47775
59860,31572,47810
59862,31581,47821
59871,31586,47811
59860,31578,47789
59824,31554,47758
59792,31532,47714
59771,31514,47664
59735,31487,47623
59687,31453,47586
59657,31426,47544
59644,31407,47502
59614,31381,47468
59571,31352,47439
59547,31334,47406
59541,31323,47376
59522,31308,47355
59497,31290,47332
59493,31278,47299
59499,31266,47265
59482,31242,47232
59450,31211,47194
59434,31187,47149
59423,31166,47106
59390,31134,47064
59346,31097,47013
59319,31065,46955
59300,31035,46904
59266,30998,46862
59228,30963,46817
59213,30944,46768
59201,30929,46726
59173,30902,46693
59152,30876,46658
59158,30859,46621
59166,30844,46592
59158,30823,46573
59151,30805,46555
59163,30801,46540
59173,30799,46534
59167,30791,46537
59167,30792,46539
59186,30805,46542
59196,30817,46557
59187,30822,46578
59182,30832,46593
59183,30845,46599
59166,30846,46605
59131,30837,46607
59106,30831,46598
59097,30824,46582
59076,30805,46567
59045,30777,46548
59034,30755,46519
59041,30738,46489
59032,30711,46467
59010,30677,46442
59004,30651,46407
59012,30634,46369
59001,30611,46332
58974,30582,46289
58961,30559,46242
58953,30537,46198
58926,30509,46160
58890,30480,46122
58873,30464,46079
58862,30453,46038
58828,30433,46004
58784,30410,45963
58758,30394,45915
58731,30373,45870
58681,30337,45829
58629,30297,45782
58597,30264,45728
58566,30234,45681
58520,30201,45642
58479,30172,45599
58461,30154,45548
58445,30136,45500
58415,30108,45455
58391,30084,45409
58390,30071,45365
58389,30061,45335
58374,30046,45315
58368,30035,45292
58377,30031,45266
58373,30021,45248
58349,30003,45230
58333,29992,45206
58331,29988,45181
58317,29977,45164
58291,29956,45148
58279,29940,45124
58280,29929,45094
58261,29908,45066
58221,29880,45034
58196,29858,44988
58180,29840,44938
58142,29809,44895
58089,29771,44853
58052,29739,44804
58028,29710,44760
57988,29676,44724
57943,29640,44685
57921,29612,44638
57910,29589,44596
57882,29557,44561
57850,29523,44524
57841,29502,44485
57838,29486,44454
57814,29464,44433
57789,29439,44405
57783,29421,44370
57779,29402,44337
57757,29372,44307
57735,29343,44273
57729,29325,44237
57719,29308,44208
57686,29283,44184
57654,29262,44153
57642,29252,44118
57627,29241,44088
57594,29222,44060
57567,29204,44027
57561,29192,43995
57548,29175,43969
57515,29147,43939
57487,29123,43896
57472,29104,43850
57443,29078,43811
57392,29041,43772
57350,29006,43725
57323,28981,43684
57290,28955,43662
57256,28931,43655
57255,28929,43662
57289,28953,43696
57330,28995,43771
57384,29060,43890
57485,29162,44044
57621,29293,44231
57755,29432,44450
57889,29578,44690
58051,29742,44941
58234,29918,45208
58403,30090,45490
58564,30260,45777
58741,30437,46057
58917,30609,46332
59059,30762,46597
59182,30903,46838
59311,31040,47053
59428,31161,47250
59512,31256,47426
59579,31332,47567
59650,31399,47670
59709,31451,47749
59735,31480,47808
59751,31493,47839
59775,31502,47846
59788,31501,47845
59773,31486,47839
59755,31469,47818
59749,31454,47782
59730,31431,47745
59687,31395,47707
59649,31359,47661
59630,31335,47612
59608,31312,47573
59575,31288,47543
59557,31274,47508
59559,31269,47470
59551,31259,47442
59528,31242,47419
59517,31234,47392
59520,31232,47368
59506,31220,47354
59476,31200,47339
59458,31187,47312
59445,31178,47273
59410,31154,47232
59360,31119,47187
59327,31090,47134
59302,31062,47078
59256,31021,47025
59199,30976,46968
59161,30940,46904
59137,30911,46845
59096,30875,46796
59049,30838,46747
59026,30812,46696
59014,30791,46658
58988,30764,46632
58960,30739,46607
58953,30727,46583
58952,30719,46569
58936,30706,46565
58928,30696,46563
58943,30698,46561
58960,30701,46563
58958,30700,46572
58960,30703,46579
58980,30719,46584
58997,30737,46600
58998,30748,46621
59006,30760,46634
59033,30781,46641
59052,30799,46650
59047,30807,46658
59047,30817,46655
59063,30835,46648
59069,30848,46647
59055,30848,46643
59050,30850,46628
59056,30857,46606
59046,30850,46582
59019,30831,46555
59003,30817,46520
58998,30806,46483
58975,30783,46451
58935,30750,46414
58910,30721,46365
58895,30697,46310
58859,30662,46260
58808,30620,46211
58775,30586,46160
58749,30556,46109
58700,30518,46060
58639,30471,46006
58596,30430,45943
58562,30391,45882
58511,30344,45826
58455,30295,45767
58421,30260,45708
58396,30233,45660
58360,30203,45621
58325,30175,45580
58310,30156,45533
58297,30139,45491
58267,30110,45455
58242,30083,45415
58242,30069,45374
58242,30058,45343
58225,30040,45320
58211,30023,45293
58213,30011,45257
58205,29991,45219
58173,29959,45177
58144,29932,45123
58133,29918,45066
58114,29904,45021
58077,29883,44982
58050,29866,44936
58043,29861,44894
58030,29852,44865
58004,29833,44844
57988,29817,44819
57986,29807,44795
57969,29791,44779
57935,29769,44764
57912,29754,44739
57898,29741,44714
57864,29719,44696
57816,29691,44677
57787,29671,44650
57769,29654,44621
57732,29626,44597
57687,29595,44570
57666,29575,44532
57659,29561,44496
57633,29539,44469
57599,29514,44438
57582,29495,44395
57569,29477,44353
57536,29449,44315
57498,29422,44272
57481,29409,44225
57469,29399,44181
57442,29384,44144
57417,29370,44103
57416,29364,44058
57413,29352,44018
57390,29323,43987
57365,29290,43951
57353,29264,43907
57335,29240,43866
57298,29208,43829
57269,29181,43791
57261,29171,43759
57259,29171,43753
57258,29179,43778
57283,29211,43830
57344,29274,43913
57416,29353,44040
57492,29446,44205
57601,29565,44399
57743,29714,44622
57887,29875,44878
58029,30043,45156
58194,30226,45438
58377,30418,45722
58546,30601,46010
58698,30769,46290
58861,30934,46550
59030,31099,46796
59169,31250,47031
59276,31380,47245
59381,31497,47428
59483,31599,47586
59555,31675,47722
59605,31732,47831
59658,31784,47910
59704,31822,47970
59718,31834,48012
59713,31829,48026
59713,31824,48016
59709,31814,47997
59677,31788,47973
59631,31752,47929
59593,31717,47865
59551,31674,47799
59489,31618,47738
59426,31563,47668
59383,31521,47593
59341,31479,47526
59285,31427,47468
59233,31382,47411
59203,31348,47353
59174,31308,47302
59131,31258,47254
59094,31210,47199
59074,31170,47139
59048,31126,47083
59006,31076,47028
58974,31035,46969
58960,31009,46910
58939,30985,46858
58907,30953,46806
58889,30927,46747
58885,30907,46688
58865,30880,46638
58831,30845,46594
58812,30817,46545
58803,30796,46500
58776,30768,46469
58732,30738,46444
58705,30719,46416
58691,30709,46389
58665,30690,46371
58633,30667,46354
58620,30655,46335
58620,30651,46325
58607,30642,46324
58594,30633,46326
58604,30638,46327
58624,30651,46340
58631,30661,46364
58642,30676,46386
58676,30701,46401
58714,30724,46419
58732,30737,46444
58745,30746,46463
58770,30763,46474
58788,30773,46482
58779,30761,46485
58765,30740,46470
58766,30724,46443
58760,30705,46414
58732,30679,46385
58707,30656,46348
58695,30639,46308
58671,30616,46272
58626,30582,46235
58588,30546,46188
58565,30515,46133
58530,30473,46078
58473,30419,46020
58424,30365,45947
58388,30316,45865
58341,30258,45785
58287,30198,45705
58255,30153,45621
58239,30119,45543
58206,30079,45476
58159,30036,45414
58132,30005,45350
58122,29984,45292
58100,29957,45247
58068,29927,45206
58053,29905,45162
58047,29886,45124
58025,29856,45095
57993,29822,45065
57980,29806,45029
57982,29799,44998
57967,29781,44976
57940,29753,44948
57928,29727,44913
57920,29698,44881
57885,29655,44850
57834,29612,44807
57795,29582,44758
57757,29551,44714
57703,29508,44675
57650,29465,44631
57614,29434,44579
57580,29406,44536
57533,29374,44499
57493,29351,44460
57477,29343,44423
57465,29336,44393
57443,29323,44365
57433,29312,44333
57440,29306,44301
57440,29295,44278
57426,29275,44258
57422,29259,44230
57435,29255,44201
57436,29250,44180
57422,29238,44161
57418,29226,44137
57427,29219,44115
57417,29202,44102
57386,29175,44087
57361,29153,44059
57342,29138,44024
57305,29112,43989
57255,29077,43947
57222,29051,43894
57202,29031,43842
57167,29002,43803
57130,28977,43778
57125,28976,43772
57150,29004,43799
57182,29048,43866
57229,29113,43966
57313,29212,44095
57423,29333,44260
57535,29461,44463
57660,29600,44689
57812,29761,44929
57973,29930,45188
58117,30091,45462
58260,30251,45733
58420,30419,45996
58576,30583,46261
58706,30734,46523
58831,30876,46767
58964,31014,46986
59080,31134,47189
59161,31232,47373
59228,31314,47520
59298,31385,47630
59347,31435,47718
59364,31463,47783
59377,31480,47818
59400,31493,47828
59412,31494,47831
59403,31484,47823
59396,31476,47795
59399,31471,47758
59384,31453,47719
59351,31423,47676
59329,31397,47623
59321,31377,47568
59295,31348,47519
59251,31309,47469
59219,31278,47411
59197,31254,47353
59157,31221,47302
59102,31178,47251
59059,31138,47194
59026,31096,47136
58974,31036,47079
58908,30965,47012
58859,30904,46932
58818,30848,46847
58756,30784,46763
58688,30719,46673
58639,30667,46577
58599,30617,46488
58545,30559,46412
58490,30506,46339
58457,30468,46268
58435,30439,46211
58404,30410,46174
58381,30389,46144
58383,30385,46121
58386,30383,46110
58371,30370,46112
58362,30363,46111
58376,30371,46108
58394,30384,46116
58403,30393,46132
58420,30403,46143
58456,30420,46154
58486,30435,46177
58497,30444,46208
58514,30462,46235
58544,30491,46261
58557,30516,46295
58554,30536,46330
58563,30559,46349
58581,30584,46359
58578,30595,46370
58554,30589,46378
58539,30582,46374
58534,30574,46358
58509,30549,46337
58470,30514,46308
58443,30483,46265
58424,30454,46216
58389,30416,46166
58343,30371,46109
58310,30331,46041
58283,30292,45972
58237,30244,45905
58187,30193,45834
58161,30155,45761
58150,30123,45696
58127,30088,45645
58103,30056,45593
58096,30034,45537
58088,30011,45487
58057,29978,45443
58021,29941,45396
57999,29911,45343
57971,29879,45295
57919,29831,45251
57864,29778,45200
57827,29731,45144
57792,29685,45093
57742,29634,45046
57696,29589,44992
57668,29558,44933
57638,29534,44882
57592,29506,44839
57552,29482,44790
57534,29469,44740
57519,29458,44702
57496,29447,44677
57488,29449,44655
57503,29466,44636
57512,29484,44628
57509,29499,44625
57518,29518,44616
57540,29542,44604
57544,29556,44597
57530,29557,44587
57527,29560,44569
57534,29562,44544
57523,29549,44521
57498,29527,44493
57486,29509,44456
57480,29493,44418
57451,29464,44385
57408,29429,44351
57377,29402,44310
57354,29374,44268
57310,29328,44225
57259,29271,44169
57225,29222,44102
57198,29179,44038
57157,29134,43984
57112,29093,43928
57085,29064,43868
57063,29041,43817
57030,29018,43782
57008,29004,43760
57020,29012,43757
57051,29037,43789
57088,29073,43859
57152,29133,43959
57257,29225,44093
57382,29341,44270
57508,29473,44488
57652,29630,44730
57825,29811,44993
57994,29995,45277
58144,30169,45571
58300,30341,45856
58471,30513,46131
58627,30673,46402
58757,30814,46659
58883,30952,46887
59007,31085,47092
59104,31196,47279
59175,31283,47442
59249,31361,47574
59328,31429,47682
59383,31475,47770
59414,31499,47835
59448,31518,47873
59480,31534,47894
59487,31535,47905
59472,31523,47902
59463,31510,47880
59454,31494,47846
59420,31460,47809
59372,31419,47761
59342,31387,47700
59316,31356,47635
59266,31311,47573
59210,31262,47509
59176,31222,47440
59149,31182,47373
59103,31129,47309
59055,31073,47241
59025,31029,47170
58994,30988,47104
58943,30939,47044
58892,30891,46978
58861,30853,46906
58825,30814,46837
58772,30766,46772
58722,30720,46702
58693,30685,46629
58661,30650,46562
58613,30608,46500
58571,30569,46434
58551,30539,46371
58529,30510,46325
58499,30481,46294
58488,30465,46269
58500,30464,46249
58508,30460,46242
58503,30449,46246
58513,30446,46253
58540,30458,46265
58552,30469,46283
58550,30477,46303
58563,30492,46319
58586,30514,46336
58591,30530,46360
58581,30537,46381
58584,30550,46392
58594,30565,46397
58585,30567,46402
58565,30559,46405
58564,30555,46401
58571,30552,46394
58557,30538,46389
58532,30517,46378
58523,30502,46355
58519,30490,46331
58499,30471,46308
58475,30448,46277
58470,30435,46240
58469,30423,46203
58455,30399,46169
58439,30371,46128
58438,30348,46078
58431,30318,46029
58403,30278,45983
58375,30242,45931
58364,30217,45875
58346,30187,45823
58302,30147,45779
58259,30111,45733
58231,30086,45683
58194,30057,45636
58142,30019,45591
58100,29985,45538
58074,29961,45484
58040,29933,45438
57989,29896,45394
57950,29865,45345
57929,29846,45296
57900,29825,45255
57859,29801,45218
57833,29788,45175
57823,29783,45132
57801,29770,45100
57768,29750,45069
57756,29740,45033
57760,29739,44997
57752,29731,44969
57732,29715,44939
57727,29704,44900
57730,29696,44863
57718,29680,44835
57697,29661,44807
57691,29653,44773
57688,29648,44740
57666,29632,44712
57639,29613,44681
57627,29604,44647
57616,29596,44619
57584,29575,44597
57546,29546,44567
57522,29519,44525
57496,29490,44482
57451,29452,44441
57408,29415,44395
57386,29389,44346
57366,29360,44303
57329,29322,44264
57296,29285,44216
57285,29260,44164
57274,29238,44119
57249,29207,44077
57229,29178,44024
57223,29158,43961
57202,29131,43906
57161,29097,43860
57130,29069,43817
57118,29053,43778
57099,29037,43754
57072,29019,43741
57064,29014,43735
57077,29026,43746
57090,29044,43789
57108,29073,43866
57163,29130,43972
57252,29216,44110
57345,29317,44286
57445,29433,44489
57582,29573,44710
57749,29733,44954
57909,29897,45223
58065,30064,45506
58243,30247,45790
58436,30435,46077
58607,30605,46363
58759,30760,46629
58915,30914,46870
59060,31057,47096
59171,31176,47306
59261,31278,47489
59353,31370,47640
59433,31444,47769
59484,31493,47879
59519,31527,47959
59554,31555,48007
59567,31566,48035
59540,31550,48045
59503,31523,48029
59479,31500,47991
59443,31469,47943
59383,31422,47883
59323,31370,47804
59278,31324,47714
59229,31276,47631
59167,31222,47554
59118,31172,47475
59092,31131,47397
59061,31085,47331
59017,31033,47276
58987,30990,47228
58978,30963,47187
58964,30936,47158
58940,30906,47132
58927,30884,47095
58926,30870,47051
58906,30849,47007
58868,30820,46957
58844,30796,46898
58830,30773,46837
58797,30737,46780
58747,30694,46723
58710,30659,46661
58684,30632,46600
58642,30598,46548
58595,30558,46502
58572,30530,46457
58564,30510,46417
58538,30482,46386
58504,30452,46355
58491,30433,46322
58486,30418,46299
58467,30401,46294
58453,30391,46296
58463,30399,46301
58478,30412,46313
58477,30421,46333
58482,30438,46352
58508,30473,46374
58534,30513,46407
58544,30548,46450
58557,30583,46488
58588,30623,46518
58614,30657,46549
58619,30676,46581
58624,30690,46601
58642,30708,46610
58648,30717,46618
58636,30713,46623
58632,30713,46613
58641,30719,46593
58633,30714,46572
58603,30696,46549
58577,30682,46514
58559,30673,46470
58520,30654,46428
58467,30624,46384
58429,30601,46330
58403,30580,46270
58359,30550,46214
58306,30510,46154
58272,30475,46082
58252,30444,46004
58216,30403,45928
58170,30353,45852
58144,30308,45773
58131,30267,45701
58101,30215,45637
58059,30160,45569
58032,30113,45492
58012,30067,45419
57973,30014,45356
57928,29962,45294
57899,29921,45227
57870,29881,45168
57821,29833,45117
57772,29786,45062
57744,29748,45005
57714,29711,44953
57665,29666,44904
57619,29623,44849
57595,29589,44792
57571,29556,44745
57533,29518,44708
57499,29488,44672
57482,29471,44637
57463,29453,44612
57430,29424,44589
57408,29398,44561
57405,29384,44531
57395,29371,44507
57367,29352,44485
57343,29337,44454
57327,29327,44419
57296,29308,44390
57248,29281,44358
57206,29260,44315
57177,29246,44268
57133,29225,44230
57078,29196,44196
57041,29171,44156
57023,29150,44116
56993,29122,44083
56955,29087,44048
56936,29060,44002
56929,29040,43956
56903,29008,43913
56865,28969,43864
56844,28936,43806
56829,28909,43753
56793,28875,43711
56748,28842,43670
56723,28819,43628
56709,28804,43599
56686,28792,43591
56675,28795,43602
56702,28829,43638
56755,28889,43717
56817,28967,43847
56908,29071,44012
57042,29208,44204
57195,29361,44431
57343,29518,44688
57501,29684,44959
57687,29866,45243
57875,30047,45543
58042,30217,45847
58209,30381,46136
58385,30544,46406
58542,30692,46667
58665,30818,46910
58777,30932,47121
58884,31034,47301
58963,31114,47457
59010,31166,47584
59056,31208,47675
59107,31246,47737
59139,31265,47787
59149,31265,47818
59164,31262,47818
59185,31257,47797
59184,31241,47771
59161,31214,47738
59149,31191,47691
59142,31170,47640
59114,31135,47594
59073,31093,47547
59049,31062,47494
59032,31036,47443
58996,30999,47397
58954,30957,47349
58929,30926,47295
58911,30902,47244
58875,30869,47199
58837,30835,47154
58824,30814,47110
58815,30796,47073
58785,30770,47043
58752,30742,47007
58733,30725,46964
58709,30707,46922
58662,30677,46879
58615,30643,46824
58586,30616,46763
58560,30588,46709
58522,30553,46662
58494,30523,46613
58490,30506,46563
58484,30491,46523
58459,30472,46493
58443,30461,46466
58449,30464,46443
58453,30470,46434
58444,30471,46432
58445,30481,46427
58462,30500,46425
58467,30511,46435
58456,30512,46446
58459,30521,46453
58476,30537,46462
58476,30548,46480
58461,30555,46503
58462,30568,46520
58476,30585,46535
58474,30591,46554
58463,30590,46570
58472,30595,46576
58492,30606,46580
58495,30607,46585
58487,30600,46583
58492,30596,46569
58498,30592,46551
58480,30576,46535
58452,30553,46509
58445,30543,46473
58445,30533,46439
58425,30508,46408
58398,30478,46372
58386,30460,46330
58374,30444,46291
58341,30418,46254
58311,30393,46209
58299,30380,46155
58283,30366,46104
58245,30336,46055
58203,30300,45997
58174,30269,45931
58137,30233,45869
58079,30185,45813
58028,30141,45755
57992,30104,45696
57948,30065,45643
57888,30021,45593
57839,29982,45533
57809,29947,45467
57771,29903,45408
57721,29851,45353
57686,29813,45293
57671,29791,45233
57647,29764,45184
57611,29728,45137
57589,29696,45084
57583,29672,45032
57564,29643,44989
57530,29611,44948
57511,29590,44901
57507,29579,44855
57490,29561,44817
57461,29539,44781
57446,29526,44738
57437,29515,44696
57410,29494,44663
57374,29465,44632
57356,29445,44596
57346,29427,44561
57315,29397,44529
57274,29361,44491
57247,29329,44450
57220,29298,44415
57176,29259,44386
57135,29220,44352
57118,29194,44312
57107,29170,44276
57078,29138,44246
57051,29104,44212
57042,29081,44174
57030,29059,44141
57000,29031,44110
56977,29006,44070
56975,28991,44022
56969,28972,43978
56945,28945,43941
56925,28922,43900
56920,28905,43858
56908,28883,43823
56878,28850,43791
56856,28821,43750
56846,28798,43706
56822,28766,43669
56783,28728,43632
56761,28702,43592
56756,28691,43561
56744,28683,43556
56732,28686,43578
56753,28717,43628
56809,28777,43713
56875,28853,43843
56955,28948,44014
57073,29075,44215
57222,29226,44450
57371,29379,44713
57521,29537,44988
57695,29713,45266
57884,29898,45555
58054,30073,45854
58213,30242,46146
58385,30414,46422
58553,30579,46685
58691,30722,46934
58812,30853,47158
58936,30980,47353
59047,31095,47530
59128,31187,47689
59197,31262,47815
59268,31328,47907
59321,31377,47975
59342,31401,48023
59348,31408,48044
59359,31411,48044
59352,31400,48036
59313,31372,48021
59270,31345,47991
59238,31325,47947
59195,31299,47904
59132,31260,47861
59077,31222,47810
59041,31191,47752
58998,31155,47699
58944,31116,47651
58910,31088,47602
58903,31072,47554
58892,31058,47519
58876,31041,47490
58876,31030,47454
58893,31026,47418
58899,31014,47390
58888,30997,47365
58884,30989,47332
58883,30982,47291
58855,30960,47247
58810,30926,47198
58777,30896,47143
58750,30869,47089
58704,30829,47040
58647,30783,46985
58607,30750,46923
58577,30723,46862
58530,30684,46812
58481,30643,46764
58456,30614,46718
58438,30595,46684
58407,30573,46665
58380,30555,46644
58382,30553,46618
58395,30559,46603
58397,30561,46605
58403,30568,46612
58432,30583,46620
58463,30596,46637
58476,30600,46660
58492,30608,46678
58522,30627,46692
58546,30641,46710
58549,30643,46728
58552,30645,46735
58568,30652,46733
58570,30652,46735
58551,30639,46736
58534,30625,46725
58522,30615,46704
58486,30591,46678
58431,30553,46647
58388,30518,46601
58360,30486,46545
58322,30447,46492
58275,30402,46435
58245,30365,46370
58229,30335,46307
58197,30297,46252
58157,30254,46197
58136,30221,46139
58125,30194,46086
58098,30158,46040
58061,30117,45991
58040,30085,45930
58024,30059,45869
57992,30027,45816
57953,29988,45762
57935,29956,45705
57921,29926,45654
57888,29886,45611
57848,29843,45565
57824,29811,45515
57804,29788,45472
57769,29761,45438
57734,29736,45397
57717,29715,45347
57700,29689,45301
57661,29648,45261
57621,29607,45213
57600,29578,45160
57577,29550,45115
57539,29520,45076
57511,29499,45034
57507,29489,44988
57504,29477,44953
57490,29460,44928
57484,29449,44897
57493,29446,44865
57489,29437,44840
57466,29416,44817
57448,29400,44787
57440,29393,44756
57412,29373,44732
57364,29338,44708
57328,29308,44673
57305,29284,44634
57269,29250,44602
57223,29211,44571
57194,29184,44531
57179,29167,44491
57148,29143,44454
57107,29116,44418
57087,29101,44376
57079,29089,44334
57057,29065,44298
57029,29036,44262
57022,29019,44222
57025,29010,44189
57010,28993,44163
56989,28973,44133
56986,28964,44100
56983,28952,44070
56957,28926,44042
56924,28898,44007
56900,28877,43962
56869,28855,43920
56819,28823,43884
56772,28794,43847
56748,28777,43813
56736,28766,43798
56726,28761,43811
56743,28779,43849
56803,28833,43919
56887,28911,44037
56982,29006,44201
57111,29131,44397
57278,29288,44626
57455,29461,44893
57627,29642,45186
57814,29841,45487
58021,30055,45795
58216,30261,46112
58386,30451,46425
58551,30639,46718
58710,30819,46990
58834,30974,47245
58930,31102,47475
59026,31214,47668
59120,31311,47828
59183,31381,47965
59218,31427,48070
59254,31464,48136
59291,31494,48176
59304,31504,48202
59299,31501,48209
59304,31501,48195
59314,31502,48175
59303,31491,48154
59282,31471,48123
59278,31454,48080
59280,31439,48039
59264,31415,48005
59237,31388,47967
59221,31369,47925
59202,31349,47883
59161,31315,47841
59119,31279,47795
59092,31251,47749
59067,31225,47713
59029,31193,47684
58999,31165,47650
58993,31149,47607
58989,31133,47566
58970,31112,47530
58954,31094,47484
58952,31084,47428
58937,31070,47378
58900,31044,47330
58866,31016,47277
58844,30997,47223
58808,30970,47176
58751,30933,47131
58705,30900,47079
58677,30877,47025
58637,30852,46979
58581,30818,46938
58535,30792,46894
58506,30776,46851
58473,30758,46819
58433,30735,46792
58417,30719,46767
58423,30711,46750
58422,30698,46746
58413,30682,46747
58419,30677,46743
58437,30680,46744
58440,30678,46754
58436,30677,46763
58453,30690,46768
58481,30709,46778
58491,30719,46795
58494,30726,46807
58512,30741,46810
58533,30760,46816
58537,30769,46824
58533,30769,46822
58536,30768,46809
58530,30761,46792
58498,30743,46771
58459,30722,46741
58433,30706,46702
58403,30681,46660
58356,30641,46618
58309,30601,46566
58276,30567,46506
58236,30525,46448
58179,30476,46389
58124,30431,46322
58086,30395,46255
58045,30355,46195
57992,30305,46139
57951,30263,46073
57926,30232,46002
57895,30199,45937
57854,30162,45876
57830,30136,45810
57823,30119,45747
57805,30090,45696
57774,30051,45650
57758,30018,45602
57754,29994,45555
57733,29966,45516
57700,29939,45479
57682,29923,45438
57673,29914,45399
57647,29896,45371
57607,29871,45344
57584,29850,45310
57569,29825,45273
57534,29785,45238
57485,29735,45195
57447,29694,45138
57414,29657,45077
57364,29615,45021
57314,29574,44963
57289,29544,44902
57276,29521,44851
57255,29496,44818
57239,29475,44789
57247,29467,44759
57257,29459,44735
57249,29443,44717
57240,29428,44696
57242,29424,44670
57234,29420,44650
57203,29406,44635
57172,29389,44609
57156,29378,44573
57132,29360,44545
57085,29327,44522
57039,29293,44490
57006,29262,44448
56959,29221,44404
56892,29164,44351
56830,29108,44281
56776,29054,44199
56709,28991,44117
56630,28921,44039
56569,28866,43965
56527,28824,43899
56479,28783,43848
56428,28740,43809
56406,28712,43778
56416,28708,43769
56430,28721,43795
56455,28756,43856
56523,28833,43951
56628,28945,44090
56741,29073,44274
56866,29216,44496
57030,29387,44745
57219,29577,45025
57403,29773,45336
57585,29972,45658
57782,30179,45974
57981,30385,46285
58154,30575,46593
58313,30751,46884
58476,30922,47150
58623,31081,47397
58736,31215,47623
58834,31331,47816
58932,31435,47974
59012,31519,48106
59058,31576,48214
59092,31617,48291
59129,31652,48339
59147,31668,48365
59135,31660,48367
59117,31641,48343
59112,31621,48298
59100,31592,48247
59066,31549,48189
59028,31504,48113
58997,31464,48028
58953,31421,47952
58898,31376,47885
58856,31339,47816
58832,31312,47753
58802,31284,47706
58762,31252,47668
58741,31229,47628
58738,31214,47591
58719,31190,47561
58681,31161,47527
58651,31139,47480
58627,31117,47426
58581,31078,47368
58519,31028,47302
58471,30982,47224
58430,30933,47143
58372,30872,47066
58307,30806,46988
58265,30756,46907
58236,30715,46831
58189,30665,46762
58136,30615,46694
58105,30580,46624
58091,30557,46568
58074,30532,46533
58065,30512,46510
58080,30509,46499
58100,30512,46502
58104,30510,46514
58111,30514,46529
58142,30535,46544
58173,30557,46567
58185,30570,46594
58200,30586,46616
58229,30610,46638
58250,30632,46668
58251,30645,46698
58258,30659,46716
58280,30678,46727
58292,30688,46740
58283,30682,46749
58277,30673,46742
58282,30664,46723
58272,30646,46700
58240,30618,46671
58212,30592,46628
58196,30567,46578
58165,30534,46534
58122,30494,46492
58097,30462,46438
58087,30439,46380
58061,30410,46327
58021,30373,46271
57996,30338,46207
57983,30307,46145
57956,30267,46091
57924,30226,46038
57912,30196,45980
57906,30170,45924
57883,30132,45878
57853,30090,45833
57840,30063,45782
57826,30041,45731
57785,30007,45683
57731,29966,45629
57691,29932,45568
57657,29902,45514
57612,29867,45468
57570,29837,45420
57545,29818,45366
57519,29797,45314
57476,29765,45268
57439,29735,45221
57428,29714,45173
57420,29695,45133
57399,29673,45100
57383,29654,45059
57384,29643,45010
57383,29632,44971
57370,29614,44945
57363,29599,44919
57367,29591,44892
57359,29576,44873
57333,29552,44854
57314,29532,44823
57306,29516,44788
57285,29491,44760
57244,29455,44730
57211,29423,44691
57189,29398,44651
57157,29367,44621
57114,29329,44593
57085,29301,44554
57068,29281,44510
57038,29257,44471
56998,29228,44431
56973,29206,44384
56957,29186,44335
56923,29152,44286
56881,29109,44230
56855,29070,44166
56835,29031,44104
56800,28985,44051
56760,28938,44001
56739,28904,43953
56729,28881,43921
56714,28865,43913
56713,28868,43927
56748,28906,43969
56806,28967,44049
56870,29039,44167
56960,29134,44314
57091,29264,44492
57237,29417,44710
57381,29579,44965
57537,29754,45235
57714,29942,45512
57885,30129,45804
58034,30304,46103
58182,30479,46391
58334,30652,46659
58468,30806,46914
58574,30934,47151
58672,31050,47355
58771,31157,47525
58850,31246,47676
58904,31313,47804
58956,31371,47899
59009,31421,47965
59034,31448,48013
59038,31454,48040
59052,31454,48039
59076,31450,48021
59077,31431,47997
59060,31400,47967
59050,31374,47923
59045,31348,47871
59018,31309,47819
58978,31263,47763
58954,31227,47699
58937,31196,47639
58899,31153,47588
58853,31106,47533
58824,31067,47470
58802,31031,47409
58760,30985,47353
58710,30934,47289
58672,30889,47213
58633,30843,47137
58575,30784,47064
58519,30723,46985
58488,30672,46901
58461,30624,46822
58422,30570,46753
58388,30519,46682
58375,30480,46610
58360,30445,46548
58325,30408,46496
58294,30380,46447
58282,30364,46405
58268,30348,46379
58244,30329,46364
58233,30322,46352
58243,30328,46343
58246,30332,46344
58235,30330,46348
58233,30333,46344
58244,30340,46340
58242,30342,46350
58227,30339,46367
58226,30344,46378
58239,30357,46386
58239,30362,46400
58227,30363,46417
58231,30376,46432
58247,30395,46448
58249,30404,46469
58239,30405,46484
58244,30416,46488
58257,30432,46490
58250,30436,46492
58229,30430,46485
58223,30431,46466
58225,30433,46446
58206,30423,46427
58177,30403,46400
58160,30381,46363
58142,30354,46323
58102,30314,46279
58057,30271,46224
58027,30234,46159
57996,30192,46093
57946,30141,46032
57901,30092,45966
57879,30055,45893
57855,30018,45823
57813,29973,45756
57778,29931,45681
57764,29900,45604
57749,29871,45538
57716,29836,45484
57686,29805,45435
57672,29782,45388
57652,29757,45351
57616,29725,45320
57587,29702,45285
57573,29692,45249
57551,29679,45220
57515,29659,45194
57493,29648,45159
57488,29647,45124
57469,29638,45100
57436,29622,45080
57415,29612,45054
57406,29607,45025
57385,29592,45000
57352,29571,44971
57333,29560,44933
57326,29554,44894
57303,29541,44861
57273,29525,44829
57263,29517,44791
57261,29508,44756
57241,29486,44727
57209,29457,44695
57193,29436,44657
57182,29413,44623
57151,29375,44594
57113,29333,44560
57086,29299,44517
57053,29264,44476
56995,29218,44439
56933,29173,44394
56891,29139,44340
56853,29108,44291
56801,29076,44252
56757,29046,44211
56737,29023,44166
56716,28995,44119
56680,28961,44072
56651,28932,44020
56643,28915,43962
56629,28892,43908
56595,28857,43854
56565,28820,43794
56546,28786,43732
56515,28747,43680
56462,28698,43631
56413,28652,43576
56378,28616,43520
56339,28577,43476
56299,28541,43447
56288,28529,43436
56310,28545,43452
56342,28578,43512
56387,28629,43615
56474,28717,43756
56602,28842,43942
56739,28985,44172
56882,29142,44432
57053,29324,44705
57247,29524,44997
57431,29722,45308
57607,29916,45621
57797,30117,45925
57989,30316,46225
58152,30495,46520
58297,30661,46797
58447,30823,47045
58591,30973,47273
58703,31098,47480
58798,31202,47653
58891,31297,47788
58963,31373,47898
58996,31422,47987
59008,31451,48045
59020,31471,48072
59019,31474,48084
58995,31453,48084
58966,31424,48065
58949,31399,48032
58921,31369,47994
58871,31323,47950
58825,31276,47891
58796,31235,47822
58757,31187,47755
58701,31130,47687
58651,31079,47611
58617,31041,47536
58576,31003,47473
58525,30960,47418
58485,30926,47360
58458,30900,47303
58421,30868,47254
58372,30829,47204
58334,30799,47145
58309,30775,47085
58269,30743,47028
58216,30703,46967
58180,30670,46896
58160,30643,46824
58128,30608,46761
58086,30570,46698
58061,30545,46629
58046,30525,46565
58011,30495,46514
57966,30461,46467
57942,30438,46421
57936,30424,46387
57923,30407,46373
57913,30393,46368
57925,30394,46367
57942,30401,46377
57940,30401,46396
57936,30403,46413
57950,30415,46426
57966,30425,46443
57967,30422,46464
57967,30417,46480
57981,30420,46493
57989,30418,46506
57973,30403,46514
57956,30388,46509
57956,30383,46498
57954,30376,46492
57939,30364,46486
57930,30354,46466
57934,30351,46438
57927,30344,46415
57900,30328,46395
57877,30313,46365
57862,30298,46326
57831,30269,46289
57780,30225,46249
57739,30180,46198
57708,30139,46137
57660,30089,46077
57597,30031,46014
57549,29981,45945
57514,29939,45875
57465,29890,45808
57407,29834,45735
57370,29788,45658
57348,29748,45586
57313,29702,45524
57268,29654,45461
57240,29616,45390
57221,29584,45318
57189,29549,45259
57158,29521,45207
57152,29513,45161
57155,29512,45127
57138,29500,45101
57116,29481,45067
57111,29469,45027
57105,29458,44995
57077,29440,44971
57046,29421,44941
57030,29406,44901
57011,29390,44863
56975,29363,44834
56942,29335,44800
56924,29312,44758
56901,29283,44718
56860,29245,44681
56823,29211,44639
56803,29185,44594
56776,29155,44553
56731,29116,44513
56694,29081,44463
56675,29055,44409
56651,29027,44367
56618,28995,44333
56597,28970,44294
56590,28953,44255
56574,28934,44225
56547,28908,44197
56536,28894,44165
56542,28890,44135
56535,28882,44114
56514,28869,44094
56504,28865,44066
56502,28863,44039
56486,28850,44017
56460,28829,43996
56448,28820,43973
56441,28813,43952
56413,28790,43932
56372,28757,43903
56345,28731,43860
56323,28707,43817
56282,28674,43777
56232,28635,43726
56192,28594,43663
56150,28546,43599
56088,28487,43536
56021,28430,43465
55973,28387,43393
55933,28349,43332
55883,28309,43282
55842,28275,43237
55831,28258,43203
55834,28255,43200
55840,28267,43236
55875,28310,43311
55957,28393,43428
56065,28505,43598
56184,28638,43815
56335,28801,44065
56524,28992,44344
56718,29193,44652
56904,29391,44977
57101,29596,45304
57311,29806,45629
57505,30006,45953
57672,30188,46263
57834,30361,46546
57990,30520,46803
58114,30654,47039
58207,30761,47247
58297,30859,47417
58383,30947,47557
58441,31010,47679
58473,31051,47780
58510,31086,47851
58548,31117,47900
58561,31129,47934
58553,31123,47944
58551,31118,47931
58549,31111,47904
58525,31090,47870
58492,31062,47823
58476,31039,47762
58468,31013,47696
58445,30973,47630
58422,30932,47559
58421,30901,47485
58423,30874,47420
58409,30840,47368
58396,30812,47320
58398,30799,47274
58399,30787,47236
58382,30764,47205
58365,30737,47172
58360,30716,47136
58349,30690,47105
58317,30654,47076
58285,30617,47033
58262,30584,46981
58225,30546,46936
58167,30499,46893
58113,30456,46840
58076,30423,46781
58033,30386,46729
57976,30341,46678
57930,30297,46618
57901,30257,46556
57864,30213,46502
57819,30168,46454
57794,30137,46408
57787,30119,46368
57771,30099,46342
57749,30077,46326
57749,30071,46311
57765,30077,46303
57766,30080,46308
57759,30082,46318
57769,30098,46325
57790,30120,46336
57795,30129,46356
57791,30129,46373
57802,30137,46383
57818,30150,46390
57814,30156,46401
57804,30161,46410
57809,30175,46415
57817,30188,46418
57808,30186,46421
57795,30180,46414
57796,30181,46396
57793,30179,46377
57769,30161,46356
57740,30139,46324
57727,30124,46278
57712,30106,46232
57678,30076,46186
57644,30045,46130
57628,30018,46070
57608,29986,46017
57567,29946,45965
57525,29909,45905
57498,29883,45843
57465,29851,45790
57415,29809,45745
57376,29771,45697
57356,29742,45646
57328,29708,45599
57286,29666,45549
57255,29630,45488
57235,29599,45423
57201,29560,45368
57155,29513,45317
57123,29475,45261
57101,29450,45205
57066,29421,45158
57018,29387,45114
56985,29362,45065
56966,29344,45017
56935,29320,44973
56897,29290,44927
56880,29267,44878
56872,29245,44833
56848,29211,44795
56818,29175,44756
56810,29149,44713
56808,29129,44673
56784,29101,44640
56752,29073,44602
56734,29053,44556
56714,29029,44511
56676,28992,44470
56637,28956,44427
56617,28935,44383
56599,28916,44348
56567,28892,44325
56542,28873,44299
56540,28865,44271
56535,28853,44249
56510,28828,44227
56488,28805,44195
56481,28793,44153
56465,28781,44117
56431,28760,44084
56404,28741,44043
56394,28730,43995
56377,28712,43957
56346,28685,43924
56322,28660,43881
56311,28643,43833
56291,28621,43795
56258,28595,43758
56235,28579,43716
56224,28569,43673
56197,28545,43632
56154,28513,43589
56124,28486,43536
56105,28462,43484
56071,28428,43437
56026,28389,43391
56002,28361,43346
55994,28342,43311
55978,28322,43292
55968,28309,43290
55991,28323,43311
56044,28367,43375
56106,28433,43490
56192,28526,43648
56322,28656,43842
56481,28813,44077
56643,28982,44348
56818,29167,44640
57021,29375,44944
57233,29587,45264
57429,29788,45591
57622,29988,45911
57827,30192,46219
58017,30387,46519
58173,30564,46803
58315,30726,47055
58458,30879,47274
58580,31011,47472
58670,31112,47646
58750,31196,47781
58829,31271,47886
58884,31329,47977
58908,31366,48048
58925,31394,48089
58945,31414,48107
58947,31414,48112
58928,31396,48101
58912,31378,48068
58899,31362,48021
58863,31331,47970
58808,31290,47913
58768,31255,47848
58744,31224,47784
58707,31184,47729
58662,31140,47677
58635,31109,47624
58621,31088,47578
58587,31060,47541
58541,31026,47503
58512,31000,47457
58495,30982,47416
58463,30955,47382
58422,30917,47338
58395,30882,47275
58367,30844,47207
58319,30792,47139
58265,30737,47064
58228,30692,46983
58196,30651,46908
58153,30600,46842
58110,30550,46773
58088,30513,46705
58068,30481,46647
58033,30443,46599
58002,30410,46551
57991,30393,46505
57983,30379,46472
57962,30359,46450
57946,30344,46431
57950,30339,46412
57953,30335,46402
57943,30327,46401
57943,30330,46402
57963,30347,46408
57979,30368,46433
57983,30387,46470
57997,30415,46502
58028,30451,46528
58048,30477,46559
58051,30485,46588
58064,30493,46606
58088,30507,46617
58093,30512,46630
58083,30505,46635
58084,30499,46624
58091,30497,46601
58077,30486,46576
58046,30465,46545
58028,30447,46506
58017,30429,46465
57986,30400,46427
57944,30365,46384
57918,30340,46332
57898,30316,46281
57861,30283,46235
57819,30248,46184
57794,30222,46124
57771,30193,46064
57726,30149,46010
57675,30098,45954
57639,30057,45888
57602,30019,45823
57549,29975,45763
57499,29930,45695
57466,29891,45621
57431,29851,45551
57378,29806,45487
57330,29766,45423
57303,29737,45361
57275,29708,45308
57233,29672,45261
57201,29643,45214
57190,29625,45170
57176,29605,45134
57146,29574,45100
57120,29546,45059
57106,29525,45014
57078,29499,44974
57030,29462,44933
56989,29427,44880
56961,29401,44825
56922,29370,44775
56874,29333,44727
56844,29303,44674
56828,29280,44621
56800,29252,44575
56764,29219,44533
56744,29194,44488
56734,29177,44446
56710,29156,44413
56678,29132,44380
56665,29117,44342
56665,29110,44308
56646,29093,44278
56613,29068,44241
56592,29045,44195
56576,29022,44153
56545,28989,44117
56512,28955,44078
56501,28931,44035
56494,28909,43997
56469,28883,43967
56439,28859,43933
56424,28846,43893
56408,28832,43856
56374,28809,43822
56340,28782,43780
56321,28762,43732
56299,28736,43686
56260,28700,43641
56226,28665,43587
56211,28636,43528
56194,28603,43480
56166,28571,43451
56156,28559,43437
56177,28577,43452
56213,28617,43515
56261,28678,43626
56350,28775,43777
56483,28911,43969
56627,29068,44203
56774,29238,44469
56946,29430,44756
57140,29638,45060
57324,29841,45382
57494,30035,45707
57676,30232,46021
57862,30422,46324
58021,30593,46616
58158,30744,46885
58299,30888,47122
58435,31019,47333
58538,31124,47522
58613,31209,47683
58692,31289,47812
58768,31359,47917
58810,31405,48002
58826,31427,48059
58845,31438,48082
58857,31437,48079
58843,31418,48057
58820,31392,48014
58806,31368,47957
58786,31342,47902
58745,31303,47847
58702,31258,47782
58672,31220,47709
58639,31180,47640
58588,31131,47576
58543,31081,47507
58518,31042,47435
58489,31003,47370
58445,30956,47315
58406,30913,47259
58382,30879,47203
58350,30848,47157
58302,30814,47113
58262,30788,47059
58236,30767,46998
58198,30736,46942
58145,30693,46883
58102,30651,46814
58074,30612,46743
58035,30562,46677
57983,30504,46608
57950,30458,46531
57941,30425,46460
57925,30388,46408
57897,30349,46368
57884,30327,46330
57881,30317,46301
57862,30303,46287
57832,30289,46282
57821,30289,46281
57824,30301,46292
57813,30309,46317
57801,30317,46342
57816,30339,46364
57844,30365,46392
57857,30381,46425
57865,30392,46451
57889,30411,46465
57913,30429,46477
57916,30433,46488
57914,30430,46486
57923,30434,46474
57925,30436,46465
57905,30423,46458
57884,30409,46442
57879,30400,46417
57869,30385,46392
57839,30356,46369
57809,30325,46337
57794,30306,46300
57773,30284,46264
57731,30250,46225
57690,30213,46173
57664,30182,46112
57630,30143,46052
57576,30090,45993
57530,30039,45924
57499,29996,45849
57459,29950,45777
57409,29900,45708
57378,29864,45633
57365,29842,45563
57340,29814,45503
57303,29780,45446
57285,29752,45383
57277,29728,45321
57247,29694,45267
57201,29654,45218
57170,29625,45165
57147,29600,45112
57108,29562,45064
57060,29516,45017
57032,29483,44969
57014,29457,44928
56981,29425,44896
56942,29394,44863
56923,29377,44821
56908,29362,44776
56874,29338,44733
56836,29312,44689
56817,29296,44642
56801,29281,44602
56771,29258,44571
56742,29236,44535
56729,29221,44492
56713,29201,44448
56676,29168,44408
56639,29134,44363
56617,29108,44313
56592,29084,44269
56551,29053,44231
56513,29023,44186
56492,28998,44137
56465,28969,44098
56421,28932,44066
56382,28899,44027
56360,28874,43983
56329,28848,43946
56284,28817,43913
56252,28796,43874
56237,28786,43833
56216,28770,43796
56186,28747,43757
56171,28731,43711
56173,28723,43664
56160,28705,43626
56133,28677,43591
56115,28653,43550
56106,28632,43507
56080,28606,43474
56048,28580,43449
56042,28573,43434
56060,28588,43447
56081,28614,43500
56119,28659,43588
56202,28740,43709
56323,28854,43877
56449,28985,44093
56587,29136,44342
56757,29314,44613
56942,29504,44908
57119,29688,45220
57299,29876,45536
57494,30076,45849
57680,30269,46160
57838,30441,46461
57984,30600,46737
58138,30752,46984
58277,30885,47208
58383,30992,47408
58478,31088,47573
58577,31181,47703
58655,31258,47808
58698,31310,47889
58731,31350,47942
58767,31383,47973
58785,31399,47995
58778,31395,48005
58770,31381,47992
58768,31363,47959
58748,31331,47919
58706,31284,47871
58669,31238,47805
58639,31193,47732
58590,31138,47660
58524,31077,47586
58471,31024,47500
58431,30976,47415
58377,30920,47343
58315,30859,47278
58275,30811,47213
58252,30772,47151
58218,30729,47096
58175,30683,47040
58144,30646,46975
58120,30611,46908
58077,30563,46840
58021,30509,46767
57980,30464,46686
57946,30421,46607
57897,30369,46536
57846,30314,46464
57814,30273,46388
57788,30243,46323
57752,30212,46273
57723,30190,46229
57719,30187,46192
57719,30190,46170
57702,30189,46162
57689,30190,46154
57697,30202,46142
57710,30215,46142
57714,30222,46157
57726,30233,46175
57761,30257,46198
57795,30282,46234
57809,30297,46277
57824,30315,46313
57852,30341,46344
57869,30359,46379
57868,30363,46412
57871,30369,46432
57887,30382,46442
57886,30387,46451
57863,30378,46452
57849,30369,46435
57842,30362,46408
57816,30342,46383
57776,30312,46353
57751,30288,46310
57740,30269,46264
57713,30242,46221
57674,30208,46176
57650,30180,46123
57635,30156,46068
57599,30122,46016
57551,30081,45960
57520,30049,45895
57498,30021,45832
57462,29987,45778
57419,29951,45724
57393,29923,45665
57372,29898,45608
57331,29863,45555
57286,29827,45498
57262,29804,45440
57239,29781,45390
57198,29747,45349
57157,29710,45304
57134,29682,45254
57110,29652,45204
57068,29611,45158
57030,29572,45107
57010,29542,45053
56985,29511,45005
56941,29473,44959
56897,29437,44905
56870,29407,44847
56841,29371,44794
56801,29329,44746
56768,29297,44688
56752,29280,44628
56730,29264,44579
56703,29245,44541
56691,29234,44503
56696,29234,44469
56688,29228,44444
56667,29212,44419
56657,29199,44385
56659,29192,44353
56645,29174,44328
56613,29144,44302
56589,29119,44270
56576,29104,44240
56553,29085,44216
56522,29062,44191
56509,29046,44159
56505,29031,44125
56486,29003,44095
56458,28969,44063
56446,28945,44028
56440,28930,43997
56412,28907,43972
56373,28877,43939
56347,28849,43890
56321,28819,43837
56274,28776,43786
56222,28732,43727
56187,28698,43660
56154,28658,43595
56100,28603,43536
56046,28554,43475
56015,28520,43411
55993,28488,43358
55970,28459,43329
55969,28450,43323
56008,28475,43351
56066,28524,43430
56135,28593,43559
56239,28695,43728
56387,28839,43940
56553,29010,44203
56724,29197,44507
56918,29405,44830
57136,29629,45165
57346,29851,45514
57538,30061,45859
57728,30265,46182
57917,30459,46488
58077,30627,46784
58206,30770,47056
58333,30904,47294
58455,31025,47499
58546,31119,47673
58608,31188,47812
58669,31247,47910
58721,31295,47981
58739,31322,48033
58734,31329,48057
58737,31333,48054
58744,31335,48041
58730,31320,48022
58700,31295,47991
58680,31274,47946
58663,31253,47898
58630,31223,47850
58589,31188,47794
58560,31156,47730
58532,31123,47674
58490,31078,47626
58449,31035,47575
58423,31005,47525
58394,30977,47487
58346,30938,47460
58297,30898,47430
58262,30865,47392
58226,30831,47356
58172,30785,47317
58119,30738,47260
58081,30701,47192
58039,30661,47124
57978,30607,47049
57922,30551,46955
57886,30504,46854
57847,30455,46765
57796,30402,46687
57757,30358,46609
57736,30328,46537
57713,30299,46483
57686,30271,46444
57680,30261,46407
57695,30267,46380
57702,30275,46373
57703,30284,46375
57725,30304,46373
57762,30331,46375
57783,30348,46390
57791,30357,46413
57814,30373,46438
57843,30394,46468
57854,30405,46507
57859,30411,46544
57883,30426,46572
57910,30446,46598
57917,30458,46628
57914,30463,46652
57925,30473,46660
57933,30482,46660
57914,30476,46658
57886,30461,46642
57871,30449,46610
57853,30433,46576
57818,30404,46547
57784,30377,46514
57768,30358,46473
57750,30337,46434
57714,30306,46397
57680,30276,46349
57659,30255,46294
57628,30229,46242
57578,30192,46187
57531,30153,46119
57499,30121,46047
57464,30089,45986
57418,30051,45932
57382,30017,45870
57366,29990,45805
57347,29957,45750
57315,29916,45701
57289,29885,45643
57278,29863,45582
57255,29834,45529
57218,29799,45479
57194,29771,45423
57180,29746,45367
57150,29711,45320
57106,29671,45274
57075,29639,45223
57052,29611,45173
57015,29574,45134
56967,29530,45096
56937,29496,45052
56915,29468,45009
56878,29435,44974
56833,29398,44935
56805,29371,44886
56784,29352,44839
56747,29325,44797
56706,29295,44747
56681,29273,44691
56658,29250,44642
56619,29216,44600
56581,29182,44556
56562,29158,44508
56543,29137,44468
56511,29109,44438
56483,29083,44404
56477,29069,44366
56473,29057,44335
56453,29034,44310
56436,29009,44277
56437,28990,44238
56438,28970,44206
56423,28941,44180
56412,28916,44144
56411,28899,44105
56399,28880,44074
56371,28857,44045
56351,28841,44011
56347,28834,43978
56338,28823,43957
56317,28807,43939
56302,28798,43910
56293,28791,43876
56266,28771,43845
56225,28740,43811
56197,28712,43768
56177,28690,43717
56141,28661,43671
56095,28625,43627
56066,28598,43586
56053,28583,43558
56038,28573,43558
56036,28579,43586
56077,28614,43642
56153,28676,43740
56237,28754,43887
56340,28857,44070
56485,28996,44285
56661,29164,44542
56839,29345,44838
57025,29540,45155
57230,29751,45478
57437,29964,45806
57626,30164,46133
57814,30361,46447
58015,30562,46749
58204,30753,47039
58360,30918,47312
58498,31064,47551
58631,31197,47757
58740,31307,47940
58814,31389,48095
58873,31452,48209
58934,31506,48290
58971,31543,48350
58973,31554,48385
58968,31552,48384
58966,31544,48356
58943,31520,48320
58896,31480,48274
58851,31437,48211
58812,31396,48139
58763,31348,48069
58705,31292,47999
58664,31245,47925
58643,31210,47855
58619,31175,47799
58592,31144,47748
58583,31127,47694
58586,31117,47648
58574,31102,47619
58556,31081,47595
58555,31065,47562
58556,31049,47527
58533,31021,47494
58497,30985,47454
58474,30957,47404
58453,30931,47353
58410,30893,47304
58358,30851,47248
58320,30816,47179
58284,30779,47111
58234,30729,47047
58185,30677,46978
58155,30637,46908
58129,30600,46847
58092,30560,46801
58061,30528,46757
58052,30512,46711
58049,30502,46680
58036,30490,46666
58030,30484,46655
58045,30494,46649
58063,30509,46658
58067,30520,46678
58077,30533,46693
58104,30552,46707
58122,30566,46733
58119,30568,46765
58122,30570,46787
58135,30573,46798
58134,30567,46808
58118,30552,46811
58110,30540,46799
58111,30532,46777
58101,30515,46758
58081,30493,46740
58073,30479,46713
58077,30473,46680
58064,30459,46651
58038,30439,46620
58023,30424,46580
58015,30414,46540
57991,30399,46511
57956,30379,46482
57935,30362,46444
57919,30345,46403
57883,30318,46364
57833,30279,46311
57792,30240,46242
57752,30201,46170
57697,30153,46106
57645,30102,46041
57620,30061,45968
57605,30025,45901
57581,29985,45843
57557,29945,45785
57546,29916,45723
57530,29889,45667
57494,29854,45618
57460,29821,45564
57449,29796,45505
57439,29773,45455
57410,29748,45417
57381,29733,45379
57368,29728,45341
57350,29719,45313
57319,29701,45288
57297,29685,45259
57293,29678,45234
57280,29666,45216
57248,29644,45194
57219,29618,45154
57201,29595,45104
57170,29567,45062
57127,29532,45020
57097,29500,44969
57079,29473,44913
57043,29438,44865
56994,29401,44822
56965,29374,44777
56954,29355,44733
56931,29328,44694
56898,29300,44653
56882,29281,44603
56878,29267,44557
56860,29249,44524
56837,29232,44495
56835,29224,44464
56839,29219,44439
56823,29202,44422
56798,29178,44400
56789,29162,44369
56784,29151,44344
56764,29135,44329
56742,29118,44312
56733,29109,44286
56720,29098,44260
56684,29076,44237
56645,29051,44206
56620,29027,44162
56592,28999,44117
56547,28964,44074
56505,28933,44024
56477,28909,43968
56444,28881,43920
56395,28842,43875
56351,28800,43822
56323,28762,43761
56285,28722,43706
56233,28678,43657
56199,28644,43610
56196,28633,43580
56203,28639,43591
56223,28669,43644
56286,28740,43736
56394,28851,43878
56519,28983,44077
56657,29133,44320
56835,29314,44592
57047,29519,44892
57262,29728,45217
57468,29936,45552
57683,30151,45883
57897,30365,46211
58085,30563,46536
58249,30746,46842
58414,30923,47120
58568,31087,47374
58685,31222,47607
58776,31330,47809
58865,31425,47972
58941,31504,48105
58983,31556,48211
59005,31585,48283
59030,31609,48324
59045,31627,48345
59033,31628,48351
59014,31622,48334
59007,31615,48298
58995,31601,48257
58962,31572,48216
58929,31540,48165
58913,31511,48104
58894,31478,48049
58859,31435,48002
58831,31396,47952
58822,31371,47903
58808,31347,47870
58777,31319,47846
58753,31295,47816
58745,31282,47782
58729,31267,47755
58699,31245,47729
58675,31227,47691
58659,31210,47642
58627,31178,47592
58573,31133,47541
58526,31087,47476
58488,31042,47402
58434,30989,47330
58365,30928,47255
58309,30875,47170
58268,30829,47088
58219,30778,47023
58165,30723,46962
58129,30680,46897
58109,30649,46840
58080,30616,46798
58049,30587,46765
58043,30574,46733
58049,30572,46714
58044,30568,46715
58036,30567,46721
58044,30579,46725
58061,30597,46735
58065,30607,46755
58067,30618,46774
58086,30641,46792
58110,30665,46817
58118,30677,46850
58124,30687,46874
58140,30702,46887
58149,30712,46901
58138,30710,46916
58127,30708,46919
58129,30713,46909
58125,30714,46897
58104,30703,46880
58085,30688,46848
58076,30675,46805
58056,30651,46764
58018,30611,46720
57982,30570,46664
57958,30532,46600
57924,30489,46541
57875,30438,46484
57834,30396,46419
57806,30366,46352
57769,30332,46294
57722,30292,46237
57690,30258,46167
57674,30234,46098
57646,30205,46041
57602,30166,45987
57569,30131,45925
57547,30103,45865
57511,30069,45816
57469,30031,45772
57445,30005,45724
57430,29986,45677
57403,29961,45637
57369,29933,45597
57353,29913,45552
57345,29895,45512
57320,29871,45482
57288,29841,45446
57269,29814,45398
57252,29786,45354
57215,29747,45316
57174,29707,45272
57148,29677,45218
57120,29649,45168
57072,29611,45126
57023,29576,45080
56990,29552,45029
56959,29532,44989
56920,29505,44958
56891,29480,44920
56882,29464,44874
56868,29446,44832
56834,29418,44792
56804,29391,44745
56791,29371,44696
56773,29347,44660
56744,29315,44632
56729,29290,44597
56732,29278,44564
56727,29266,44546
56709,29248,44534
56706,29239,44515
56720,29238,44494
56718,29232,44478
56700,29218,44461
56695,29212,44437
56704,29212,44412
56695,29202,44389
56668,29181,44360
56649,29162,44318
56636,29145,44277
56607,29114,44244
56570,29076,44209
56551,29045,44162
56542,29019,44112
56513,28981,44066
56474,28938,44014
56448,28901,43953
56425,28864,43894
56383,28818,43842
56336,28773,43787
56308,28744,43734
56291,28730,43704
56277,28728,43710
56286,28749,43750
56343,28807,43829
56431,28898,43960
56534,29010,44142
56665,29152,44361
56839,29326,44611
57030,29516,44895
57216,29706,45206
57413,29902,45523
57629,30108,45843
57836,30311,46171
58018,30501,46495
58199,30685,46799
58383,30866,47082
58543,31030,47352
58669,31171,47599
58786,31299,47809
58899,31414,47985
58982,31503,48134
59032,31566,48250
59076,31616,48327
59113,31653,48373
59116,31664,48402
59092,31652,48409
59072,31634,48390
59057,31613,48356
59025,31578,48317
58980,31532,48266
58948,31487,48198
58924,31443,48128
58883,31390,48066
58833,31334,48004
58803,31291,47940
58788,31261,47886
58765,31229,47853
58740,31199,47823
58732,31183,47787
58729,31171,47758
58712,31153,47739
58694,31136,47716
58691,31127,47685
58685,31116,47656
58657,31089,47625
58626,31055,47581
58609,31022,47523
58582,30983,47466
58535,30932,47410
58488,30883,47343
58459,30841,47269
58428,30800,47201
58380,30754,47140
58337,30714,47076
58312,30686,47012
58283,30658,46960
58244,30628,46919
58217,30606,46879
58207,30596,46845
58196,30585,46827
58183,30573,46820
58192,30569,46812
58222,30576,46813
58246,30582,46830
58261,30584,46853
58288,30597,46871
58323,30620,46890
58337,30637,46917
58336,30648,46943
58348,30663,46959
58370,30680,46975
58374,30688,46991
58365,30690,46998
58370,30697,46993
58380,30705,46985
58369,30695,46978
58345,30670,46961
58332,30646,46927
58322,30624,46892
58291,30593,46859
58253,30559,46820
58231,30534,46772
58213,30510,46727
58178,30476,46687
58143,30439,46638
58124,30413,46579
58103,30386,46523
58061,30347,46471
58019,30308,46410
57994,30278,46343
57966,30248,46284
57923,30210,46232
57885,30177,46175
57866,30157,46114
57842,30133,46066
57806,30099,46025
57780,30065,45977
57770,30039,45927
57753,30013,45887
57722,29979,45849
57701,29950,45804
57697,29932,45759
57684,29912,45726
57654,29884,45696
57633,29859,45659
57622,29841,45618
57594,29812,45583
57554,29773,45550
57528,29736,45509
57511,29704,45465
57476,29667,45427
57429,29627,45388
57398,29593,45339
57378,29566,45290
57341,29532,45249
57295,29493,45205
57270,29466,45154
57259,29446,45107
57232,29420,45070
57199,29391,45033
57179,29369,44989
57164,29350,44949
57136,29327,44919
57110,29310,44889
57106,29308,44856
57108,29312,44828
57096,29310,44809
57082,29309,44787
57084,29317,44760
57086,29325,44746
57070,29321,44742
57057,29312,44734
57060,29311,44721
57059,29309,44711
57042,29298,44703
57030,29289,44684
57031,29287,44658
57022,29279,44639
56993,29260,44622
56965,29243,44593
56948,29233,44556
56918,29214,44523
56875,29180,44491
56842,29147,44443
56820,29119,44383
56783,29083,44326
56729,29041,44271
56688,29008,44212
56665,28985,44155
56635,28957,44113
56605,28931,44088
56608,28929,44081
56643,28954,44109
56684,28991,44187
56741,29048,44305
56840,29143,44458
56974,29271,44655
57117,29413,44894
57272,29568,45157
57457,29745,45434
57659,29938,45729
57848,30128,46042
58028,30317,46356
58219,30512,46661
58410,30705,46959
58577,30882,47243
58730,31044,47504
58885,31200,47741
59024,31338,47961
59126,31443,48159
59212,31527,48320
59297,31601,48445
59362,31657,48549
59392,31688,48630
59410,31707,48682
59432,31722,48706
59439,31724,48715
59419,31706,48705
59398,31682,48670
59389,31659,48620
59371,31629,48572
59334,31591,48526
59304,31556,48469
59287,31530,48410
59259,31498,48357
59214,31460,48305
59183,31431,48250
59171,31415,48199
59148,31395,48165
59114,31369,48134
59094,31348,48096
59085,31329,48057
59060,31298,48021
59021,31257,47980
58998,31221,47931
58985,31191,47877
58955,31153,47825
58910,31105,47767
58881,31062,47695
58861,31023,47623
58825,30975,47555
58783,30925,47482
58761,30887,47405
58746,30856,47338
58718,30817,47286
58689,30781,47238
58682,30761,47190
58680,30750,47153
58664,30736,47129
58651,30728,47107
58663,30735,47087
58680,30744,47079
58681,30745,47085
58684,30750,47095
58703,30769,47109
58720,30789,47134
58725,30803,47166
58736,30819,47189
58760,30840,47208
58775,30856,47233
58771,30863,47262
58771,30871,47281
58785,30882,47292
58791,30884,47306
58779,30874,47318
58771,30866,47314
58774,30861,47298
58761,30845,47280
58734,30819,47258
58719,30801,47227
58714,30790,47189
58693,30772,47154
58657,30746,47114
58634,30725,47064
58617,30704,47011
58579,30673,46965
58528,30633,46918
58491,30599,46862
58464,30566,46805
58421,30523,46754
58364,30475,46701
58323,30438,46641
58292,30412,46582
58252,30382,46528
58213,30353,46472
58197,30336,46416
58191,30322,46367
58170,30298,46328
58147,30270,46287
58144,30253,46239
58142,30236,46195
58121,30211,46157
58101,30189,46114
58101,30177,46066
58100,30160,46026
58078,30131,45992
58053,30102,45949
58037,30079,45900
58017,30056,45860
57983,30025,45828
57957,29997,45790
57947,29979,45753
57929,29960,45725
57895,29931,45697
57867,29904,45659
57851,29883,45618
57825,29857,45589
57784,29820,45561
57753,29786,45522
57735,29763,45481
57708,29741,45449
57670,29714,45419
57648,29692,45382
57641,29675,45345
57625,29653,45316
57600,29628,45283
57591,29610,45240
57592,29595,45197
57578,29571,45161
57552,29543,45121
57542,29523,45071
57540,29509,45028
57521,29490,44997
57496,29469,44968
57488,29456,44935
57488,29447,44906
57472,29428,44887
57454,29408,44866
57455,29399,44841
57460,29394,44816
57446,29376,44794
57430,29355,44766
57428,29342,44730
57422,29326,44694
57391,29297,44659
57356,29262,44612
57334,29234,44558
57310,29202,44508
57270,29157,44463
57237,29113,44414
57221,29085,44367
57203,29062,44338
57179,29042,44330
57182,29044,44343
57226,29080,44386
57286,29140,44473
57360,29222,44603
57467,29334,44764
57606,29473,44959
57750,29626,45197
57896,29792,45464
58068,29977,45745
58260,30175,46037
58440,30367,46343
58606,30552,46652
58780,30734,46947
58954,30911,47233
59101,31068,47512
59225,31208,47771
59351,31342,47999
59473,31465,48200
59564,31561,48377
59632,31633,48523
59700,31697,48633
59760,31748,48719
59785,31775,48786
59789,31785,48823
59801,31790,48829
59809,31786,48824
59796,31768,48813
59776,31747,48791
59772,31736,48758
59769,31723,48729
59752,31701,48706
59735,31679,48675
59732,31663,48634
59729,31646,48599
59711,31622,48573
59697,31601,48544
59701,31591,48511
59704,31583,48488
59691,31571,48466
59681,31560,48434
59687,31553,48397
59684,31540,48370
59660,31515,48348
59638,31490,48317
59626,31473,48279
59599,31447,48241
59553,31407,48197
59515,31367,48137
59489,31331,48074
59448,31288,48011
59394,31236,47943
59350,31190,47866
59319,31152,47787
59277,31110,47718
59227,31064,47658
59194,31028,47598
59179,31001,47545
59155,30972,47505
59129,30947,47473
59127,30937,47444
59140,30938,47426
59139,30935,47425
59131,30928,47424
59138,30929,47419
59151,30934,47416
59145,30930,47421
59135,30921,47426
59145,30923,47428
59158,30926,47442
59152,30922,47465
59145,30918,47480
59154,30923,47485
59163,30930,47491
59154,30929,47498
59147,30928,47494
59156,30934,47480
59159,30936,47466
59145,30926,47453
59133,30912,47429
59135,30903,47393
59129,30888,47356
59104,30864,47320
59085,30843,47272
59081,30833,47216
59069,30816,47166
59040,30787,47121
59017,30758,47071
59006,30740,47022
58988,30718,46983
58957,30687,46947
58936,30664,46901
58927,30649,46856
58905,30630,46824
58871,30601,46792
58851,30573,46746
58840,30545,46692
58811,30506,46640
58765,30459,46586
58732,30420,46528
58708,30388,46474
58670,30353,46428
58626,30318,46382
58598,30294,46330
58578,30276,46284
58546,30250,46249
58510,30221,46211
58492,30202,46167
58478,30188,46123
58445,30163,46084
58403,30128,46037
58375,30098,45980
58352,30069,45927
58316,30037,45881
58281,30004,45832
58267,29982,45781
58254,29962,45737
58224,29932,45699
58194,29900,45653
58178,29878,45599
58158,29858,45554
58121,29832,45517
58090,29809,45473
58080,29794,45424
58068,29776,45385
58043,29750,45348
58025,29728,45302
58024,29714,45255
58016,29698,45224
57996,29677,45203
57989,29662,45176
57998,29658,45147
57997,29651,45123
57982,29635,45099
57974,29622,45062
57973,29614,45025
57954,29599,44996
57919,29575,44969
57893,29554,44934
57875,29535,44899
57842,29506,44871
57802,29472,44840
57781,29447,44801
57771,29428,44762
57742,29399,44726
57703,29364,44685
57679,29338,44634
57660,29316,44583
57623,29284,44538
57580,29248,44486
57550,29218,44424
57521,29188,44366
57474,29150,44317
57421,29112,44261
57382,29083,44197
57348,29054,44141
57302,29015,44093
57261,28977,44043
57244,28954,43998
57240,28943,43979
57241,28939,43994
57271,28963,44042
57345,29027,44131
57444,29123,44275
57560,29243,44473
57710,29395,44706
57897,29581,44969
58093,29785,45268
58284,29991,45592
58488,30209,45921
58706,30439,46251
58912,30663,46590
59097,30874,46926
59285,31075,47240
59474,31266,47530
59633,31430,47804
59759,31568,48051
59878,31692,48257
59996,31805,48436
60091,31899,48600
60157,31972,48736
60219,32037,48831
60276,32086,48898
60301,32105,48946
60297,32101,48968
60290,32093,48961
60279,32082,48941
60246,32059,48919
60204,32029,48884
60177,32003,48831
60158,31977,48778
60124,31943,48734
60086,31910,48685
60066,31889,48628
60051,31870,48577
60020,31842,48536
59986,31814,48492
59969,31796,48446
59954,31773,48407
59922,31736,48371
59889,31700,48325
59866,31672,48272
59835,31642,48225
59785,31603,48185
59736,31563,48133
59703,31525,48066
59663,31476,47998
59606,31415,47930
59553,31358,47852
59518,31309,47767
59480,31259,47692
59436,31206,47627
59406,31163,47559
59394,31135,47493
59377,31111,47444
59353,31088,47408
59346,31081,47375
59356,31087,47351
59353,31087,47343
59342,31081,47341
59352,31086,47338
59378,31104,47342
59390,31118,47364
59390,31128,47391
59406,31144,47410
59430,31167,47431
59436,31183,47460
59431,31191,47485
59437,31203,47497
59449,31217,47507
59442,31219,47519
59423,31213,47520
59416,31208,47503
59413,31203,47487
59397,31193,47476
59383,31185,47456
59386,31185,47427
59390,31184,47407
59379,31171,47395
59367,31156,47376
59371,31149,47345
59371,31137,47316
59352,31115,47290
59332,31089,47251
59324,31065,47198
59311,31037,47150
59278,31001,47109
59247,30968,47061
59228,30943,47007
59198,30916,46960
59150,30885,46915
59107,30857,46857
59073,30831,46789
59027,30795,46729
58967,30748,46672
58920,30705,46605
58888,30669,46537
58846,30628,46478
58793,30579,46419
58756,30536,46351
58733,30502,46283
58700,30466,46227
58662,30427,46177
58642,30399,46120
58638,30380,46065
58620,30355,46021
58590,30325,45978
58574,30306,45927
58565,30295,45883
58538,30276,45852
58505,30253,45819
58489,30237,45776
58480,30224,45736
58456,30201,45706
58428,30174,45676
58420,30159,45643
58417,30149,45616
58397,30133,45596
58371,30119,45569
58358,30112,45532
58340,30101,45502
58300,30076,45478
58259,30049,45445
58237,30027,45402
58215,30000,45363
58176,29962,45325
58139,29926,45277
58121,29902,45223
58102,29879,45179
58070,29851,45142
58048,29827,45100
58046,29812,45054
58039,29795,45021
58019,29774,44995
58007,29758,44962
58009,29751,44928
57999,29737,44906
57975,29716,44883
57962,29699,44846
57957,29686,44806
57932,29663,44774
57888,29626,44737
57850,29589,44685
57817,29553,44628
57767,29506,44578
57709,29450,44525
57670,29402,44460
57642,29360,44397
57601,29311,44343
57554,29261,44289
57529,29227,44233
57523,29210,44196
57514,29204,44192
57515,29217,44219
57557,29270,44282
57635,29358,44399
57729,29468,44568
57851,29605,44775
58016,29775,45013
58201,29964,45291
58385,30161,45602
58577,30367,45922
58787,30584,46240
58992,30795,46565
59171,30988,46892
59340,31173,47200
59514,31357,47486
59673,31523,47756
59803,31662,48006
59920,31785,48219
60034,31900,48399
60124,31995,48561
60178,32061,48694
60221,32112,48785
60267,32153,48848
60291,32173,48895
60282,32168,48919
60265,32153,48910
60246,32133,48877
60206,32100,48838
60149,32051,48789
60103,32005,48721
60069,31964,48644
60021,31917,48571
59964,31865,48496
59926,31824,48413
59908,31793,48340
59880,31756,48284
59845,31715,48231
59829,31685,48172
59823,31662,48117
59802,31634,48073
59770,31604,48029
59750,31579,47975
59731,31555,47922
59691,31517,47874
59639,31472,47819
59600,31430,47754
59566,31388,47692
59514,31337,47633
59455,31281,47561
59411,31235,47476
59368,31191,47397
59306,31138,47330
59248,31087,47265
59214,31049,47200
59186,31017,47149
59149,30983,47116
59122,30957,47082
59117,30946,47048
59112,30941,47030
59098,30934,47024
59095,30932,47017
59112,30940,47012
59128,30951,47025
59132,30958,47050
59146,30971,47070
59175,30994,47091
59197,31015,47127
59209,31029,47170
59233,31047,47206
59269,31074,47238
59289,31094,47272
59295,31102,47294
59315,31109,47293
59344,31118,47282
59350,31118,47273
59334,31105,47254
59324,31092,47218
59317,31078,47179
59289,31051,47149
59249,31014,47114
59218,30980,47066
59191,30952,47019
59144,30916,46978
59087,30874,46929
59040,30838,46866
58992,30800,46802
58925,30748,46739
58858,30687,46667
58811,30634,46584
58768,30587,46503
58716,30533,46429
58667,30480,46352
58640,30440,46270
58617,30404,46198
58581,30363,46136
58549,30327,46072
58536,30304,46007
58523,30282,45957
58492,30252,45919
58466,30227,45878
58459,30217,45833
58446,30206,45798
58414,30183,45772
58382,30157,45738
58363,30132,45696
58335,30099,45661
58288,30056,45626
58245,30017,45577
58210,29985,45519
58160,29948,45467
58097,29904,45412
58051,29869,45345
58026,29845,45278
58000,29817,45226
57967,29782,45181
57949,29756,45128
57947,29740,45078
57936,29724,45041
57915,29705,45007
57909,29694,44967
57909,29689,44932
57890,29676,44912
57862,29656,44888
57852,29645,44855
57851,29638,44830
57834,29622,44817
57809,29597,44799
57797,29577,44768
57788,29558,44740
57761,29527,44715
57727,29491,44680
57705,29463,44632
57680,29438,44585
57636,29404,44542
57593,29369,44491
57569,29340,44432
57545,29309,44380
57502,29266,44334
57460,29222,44282
57433,29187,44225
57404,29150,44174
57359,29107,44131
57321,29072,44082
57306,29057,44038
57304,29061,44026
57312,29078,44050
57354,29124,44104
57439,29206,44202
57543,29315,44360
57662,29444,44566
57815,29606,44799
58003,29792,45060
58193,29982,45355
58378,30171,45670
58580,30371,45984
58792,30581,46300
58984,30783,46626
59154,30969,46943
59325,31143,47231
59490,31305,47497
59621,31442,47748
59724,31558,47971
59826,31663,48152
59921,31755,48305
59982,31822,48439
60016,31869,48537
60053,31913,48594
60086,31952,48631
60094,31971,48658
60086,31971,48661
60085,31959,48637
60074,31936,48603
60037,31896,48563
59993,31850,48505
59964,31815,48430
59935,31782,48360
59887,31738,48297
59841,31690,48225
59813,31646,48142
59783,31601,48071
59738,31552,48009
59698,31511,47941
59679,31482,47870
59659,31453,47815
59626,31413,47768
59601,31374,47710
59592,31342,47646
59571,31307,47592
59527,31263,47542
59488,31219,47480
59461,31180,47415
59419,31135,47359
59361,31085,47305
59317,31041,47239
59291,31007,47174
59252,30972,47125
59203,30933,47081
59171,30905,47029
59161,30887,46984
59145,30867,46958
59127,30843,46940
59132,30831,46920
59149,30832,46908
59150,30832,46915
59141,30832,46925
59144,30841,46930
59153,30855,46940
59144,30861,46958
59127,30862,46967
59128,30868,46965
59133,30876,46970
59122,30877,46985
59107,30874,46992
59111,30878,46988
59123,30885,46991
59125,30885,46998
59129,30884,46995
59153,30893,46987
59175,30902,46984
59174,30901,46986
59167,30901,46974
59173,30905,46946
59172,30901,46923
59150,30882,46903
59127,30859,46866
59118,30839,46820
59103,30815,46783
59068,30778,46745
59037,30739,46692
59022,30708,46634
58997,30677,46590
58957,30638,46548
58925,30597,46489
58901,30559,46420
58857,30515,46357
58795,30465,46293
58747,30422,46217
58711,30386,46141
58661,30344,46080
58600,30296,46022
58554,30256,45958
58523,30223,45897
58476,30183,45847
58417,30137,45794
58374,30101,45730
58343,30075,45671
58299,30040,45622
58246,29997,45568
58212,29958,45503
58187,29922,45443
58149,29880,45395
58107,29840,45347
58079,29809,45289
58056,29785,45238
58024,29758,45196
57996,29733,45152
57985,29716,45101
57975,29697,45059
57948,29667,45024
57918,29636,44977
57905,29614,44922
57892,29593,44877
57862,29563,44840
57833,29530,44791
57818,29504,44735
57798,29482,44694
57766,29457,44664
57745,29438,44627
57744,29430,44585
57737,29417,44555
57714,29395,44533
57697,29374,44500
57693,29363,44467
57677,29348,44447
57646,29326,44429
57627,29311,44397
57622,29303,44361
57601,29292,44335
57563,29274,44308
57538,29260,44264
57523,29247,44213
57490,29224,44167
57442,29188,44119
57409,29155,44060
57384,29119,44002
57341,29067,43951
57283,29007,43895
57242,28955,43832
57214,28915,43782
57175,28879,43754
57141,28853,43740
57142,28853,43743
57173,28880,43783
57220,28927,43874
57297,29003,44007
57418,29117,44176
57568,29260,44397
57723,29419,44668
57896,29599,44964
58097,29804,45274
58305,30021,45608
58497,30235,45955
58685,30446,46291
58882,30655,46609
59065,30851,46920
59219,31022,47215
59364,31179,47474
59508,31327,47702
59629,31455,47913
59713,31555,48100
59788,31640,48245
59864,31714,48353
59918,31770,48443
59944,31804,48513
59969,31832,48549
59993,31856,48562
59991,31863,48569
59968,31845,48562
59954,31818,48528
59947,31789,48480
59918,31750,48431
59874,31702,48375
59843,31658,48307
59826,31620,48240
59796,31579,48188
59758,31537,48135
59737,31506,48069
59726,31485,48007
59699,31462,47959
59660,31435,47909
59635,31415,47848
59612,31398,47791
59571,31371,47749
59524,31337,47705
59494,31305,47650
59466,31270,47596
59422,31222,47546
59376,31169,47486
59349,31124,47416
59321,31080,47351
59276,31030,47291
59232,30981,47221
59206,30946,47145
59182,30914,47084
59145,30879,47041
59116,30850,46995
59106,30833,46952
59094,30818,46930
59072,30801,46924
59061,30795,46913
59070,30805,46903
59072,30816,46907
59059,30819,46917
59056,30823,46918
59069,30833,46917
59075,30841,46930
59066,30840,46955
59065,30840,46975
59074,30844,46993
59071,30843,47020
59061,30834,47040
59071,30830,47037
59091,30830,47024
59094,30820,47019
59081,30800,47012
59080,30788,46992
59090,30789,46970
59085,30789,46958
59065,30782,46940
59055,30777,46904
59050,30775,46864
59025,30764,46832
58989,30742,46789
58964,30719,46727
58940,30694,46665
58898,30657,46608
58851,30613,46542
58816,30572,46463
58781,30529,46393
58730,30478,46336
58681,30424,46273
58652,30377,46201
58625,30330,46137
58578,30278,46082
58530,30229,46022
58498,30192,45955
58461,30155,45893
58407,30110,45837
58357,30064,45772
58324,30026,45702
58287,29991,45641
58239,29951,45587
58203,29917,45525
58188,29896,45461
58167,29872,45410
58132,29838,45364
58106,29804,45307
58096,29777,45243
58074,29748,45190
58034,29712,45142
58005,29681,45087
57991,29660,45034
57965,29640,45002
57927,29618,44977
57904,29598,44944
57892,29582,44908
57866,29558,44880
57831,29531,44850
57810,29513,44808
57800,29500,44767
57777,29482,44734
57748,29457,44697
57735,29436,44650
57729,29416,44609
57706,29390,44583
57676,29361,44555
57660,29341,44517
57649,29325,44482
57621,29300,44455
57589,29273,44423
57572,29252,44380
57556,29230,44341
57521,29199,44307
57483,29167,44264
57460,29144,44213
57438,29125,44173
57400,29096,44143
57366,29065,44102
57348,29040,44052
57327,29015,44011
57289,28978,43974
57254,28937,43923
57236,28902,43865
57213,28864,43819
57174,28818,43776
57140,28776,43719
57118,28747,43657
57086,28718,43610
57041,28683,43571
57009,28653,43530
56996,28639,43504
56988,28640,43518
56993,28663,43573
57042,28724,43666
57139,28827,43813
57260,28961,44023
57402,29119,44280
57586,29308,44563
57800,29518,44874
58013,29731,45216
58222,29946,45568
58442,30170,45912
58664,30396,46251
58864,30609,46588
59044,30805,46903
59221,30990,47181
59383,31160,47434
59511,31301,47670
59614,31416,47870
59712,31518,48031
59794,31602,48169
59842,31660,48287
59876,31702,48367
59915,31738,48413
59944,31764,48446
59948,31772,48471
59945,31767,48471
59950,31757,48448
59940,31738,48422
59902,31704,48391
59860,31667,48340
59830,31632,48277
59793,31593,48221
59741,31548,48170
59697,31508,48109
59670,31476,48038
59635,31441,47975
59586,31398,47917
59549,31358,47850
59528,31323,47784
59496,31281,47728
59451,31230,47671
59416,31184,47601
59396,31146,47530
59365,31107,47473
59322,31064,47417
59292,31029,47351
59276,30999,47285
59249,30964,47230
59208,30927,47173
59179,30895,47107
59154,30869,47047
59113,30839,47003
59066,30805,46961
59038,30777,46911
59022,30753,46870
58996,30725,46844
58967,30695,46819
58957,30676,46790
58955,30667,46771
58938,30657,46764
58921,30649,46757
58929,30652,46747
58945,30660,46751
58950,30660,46767
58954,30662,46776
58976,30675,46775
58999,30690,46779
59004,30695,46789
59007,30699,46792
59026,30710,46791
59044,30724,46802
59045,30732,46825
59048,30741,46839
59063,30758,46844
59067,30770,46856
59051,30767,46868
59039,30757,46858
59038,30746,46830
59021,30728,46807
58985,30699,46781
58959,30672,46735
58944,30648,46678
58911,30613,46627
58858,30565,46573
58814,30517,46503
58784,30475,46428
58748,30429,46363
58702,30377,46299
58671,30331,46223
58651,30295,46148
58617,30255,46084
58574,30209,46018
58547,30169,45939
58529,30136,45864
58494,30097,45803
58453,30052,45742
58431,30014,45674
58418,29981,45615
58389,29945,45568
58349,29913,45515
58322,29890,45453
58300,29870,45400
58264,29846,45360
58223,29822,45314
58198,29804,45258
58174,29785,45210
58137,29758,45173
58103,29729,45132
58085,29706,45084
58063,29678,45043
58025,29641,45005
57992,29606,44955
57975,29581,44898
57955,29554,44851
57921,29518,44810
57893,29484,44763
57881,29460,44717
57863,29437,44684
57833,29407,44654
57809,29381,44613
57799,29362,44568
57779,29339,44534
57746,29307,44501
57723,29275,44454
57708,29250,44398
57676,29223,44351
57633,29192,44307
57602,29166,44255
57582,29142,44203
57548,29110,44164
57504,29072,44129
57479,29038,44086
57466,29010,44046
57437,28979,44016
57400,28944,43981
57379,28912,43934
57367,28883,43891
57334,28850,43860
57294,28818,43822
57272,28796,43771
57258,28780,43721
57233,28759,43677
57205,28737,43627
57189,28718,43568
57173,28698,43516
57142,28670,43473
57111,28638,43427
57095,28612,43374
57076,28585,43325
57037,28552,43284
56999,28520,43239
56984,28506,43201
56979,28507,43195
56979,28522,43229
57014,28566,43298
57101,28651,43413
57217,28771,43589
57351,28918,43820
57518,29093,44084
57721,29296,44382
57931,29512,44719
58136,29730,45073
58356,29957,45422
58590,30191,45768
58805,30417,46118
58995,30626,46454
59180,30822,46754
59358,31006,47023
59503,31164,47275
59615,31295,47499
59718,31409,47683
59809,31509,47838
59864,31585,47972
59894,31636,48077
59929,31674,48147
59958,31699,48195
59957,31702,48233
59938,31690,48249
59928,31679,48237
59921,31667,48216
59895,31644,48195
59862,31613,48159
59843,31588,48102
59823,31563,48042
59782,31530,47989
59737,31493,47930
59709,31463,47863
59684,31433,47803
59645,31395,47752
59610,31357,47696
59594,31329,47636
59580,31302,47589
59553,31269,47550
59526,31233,47500
59510,31204,47443
59484,31170,47396
59439,31121,47348
59397,31069,47285
59367,31025,47217
59328,30982,47159
59276,30936,47106
59231,30895,47038
59203,30862,46966
59166,30827,46907
59117,30785,46857
59085,30750,46800
59069,30722,46744
59042,30693,46705
59004,30662,46673
58981,30642,46639
58977,30632,46611
58965,30621,46600
58945,30606,46594
58944,30600,46583
58960,30607,46581
58966,30617,46600
58969,30627,46623
58991,30647,46640
59022,30670,46664
59035,30686,46699
59038,30699,46732
59059,30721,46751
59085,30745,46766
59091,30758,46784
59091,30762,46792
59102,30766,46789
59108,30766,46787
59095,30756,46788
59078,30743,46772
59070,30734,46737
59055,30722,46704
59019,30701,46676
58982,30677,46636
58961,30655,46589
58934,30627,46549
58893,30591,46513
58855,30555,46464
58833,30523,46402
58804,30485,46347
58759,30437,46296
58720,30391,46232
58696,30348,46158
58664,30301,46092
58613,30248,46030
58565,30199,45955
58524,30158,45875
58472,30116,45810
58412,30069,45752
58368,30027,45683
58339,29992,45616
58297,29951,45562
58246,29907,45510
58209,29871,45449
58181,29841,45390
58144,29806,45343
58104,29769,45294
58086,29740,45235
58082,29720,45180
58067,29696,45140
58043,29665,45099
58032,29641,45051
58024,29624,45008
57995,29602,44977
57957,29576,44940
57932,29554,44892
57910,29533,44852
57871,29507,44824
57834,29483,44792
57818,29469,44748
57803,29459,44709
57773,29442,44675
57748,29421,44632
57743,29405,44582
57741,29389,44544
57721,29365,44517
57703,29341,44481
57700,29325,44438
57693,29310,44405
57670,29288,44382
57654,29266,44351
57652,29249,44315
57644,29230,44290
57619,29205,44270
57599,29182,44239
57592,29169,44204
57576,29152,44178
57546,29123,44151
57525,29094,44110
57516,29073,44066
57492,29050,44033
57452,29018,44000
57420,28984,43952
57398,28952,43901
57362,28914,43860
57310,28869,43815
57273,28833,43756
57248,28808,43701
57215,28784,43666
57181,28762,43640
57172,28757,43625
57190,28773,43643
57219,28807,43709
57272,28865,43816
57373,28961,43961
57507,29094,44154
57649,29248,44395
57804,29420,44662
57987,29614,44940
58178,29816,45239
58356,30013,45556
58531,30207,45867
58719,30407,46168
58899,30599,46468
59054,30772,46759
59200,30934,47019
59350,31087,47250
59482,31223,47466
59583,31334,47663
59672,31428,47823
59762,31510,47949
59832,31573,48056
59869,31610,48144
59896,31632,48194
59925,31648,48215
59939,31655,48229
59931,31652,48234
59927,31648,48216
59933,31644,48185
59923,31632,48157
59891,31608,48123
59863,31579,48067
59847,31547,48004
59821,31507,47950
59784,31460,47895
59759,31421,47830
59747,31393,47769
59721,31363,47724
59686,31329,47683
59668,31302,47636
59661,31283,47595
59638,31258,47565
59606,31228,47531
59589,31204,47483
59577,31181,47436
59543,31143,47390
59497,31092,47329
59459,31041,47252
59420,30992,47177
59361,30938,47112
59300,30882,47042
59258,30834,46964
59220,30791,46900
59170,30745,46852
59131,30705,46804
59122,30681,46757
59119,30663,46724
59103,30643,46706
59094,30630,46688
59104,30631,46671
59118,30640,46671
59123,30647,46684
59138,30658,46693
59174,30681,46702
59204,30706,46730
59215,30725,46763
59224,30741,46783
59241,30760,46794
59242,30771,46813
59225,30770,46827
59218,30770,46822
59224,30773,46810
59219,30769,46807
59204,30760,46807
59201,30756,46794
59211,30757,46780
59209,30749,46774
59192,30733,46763
59186,30719,46734
59192,30709,46701
59182,30688,46674
59157,30654,46643
59144,30623,46604
59136,30596,46569
59107,30566,46543
59065,30532,46507
59033,30502,46453
59007,30472,46400
58965,30434,46352
58915,30389,46296
58873,30350,46226
58832,30311,46160
58775,30266,46104
58718,30223,46044
58679,30191,45977
58647,30162,45918
58605,30126,45864
58566,30091,45802
58546,30061,45734
58528,30027,45675
58495,29986,45626
58461,29946,45567
58436,29914,45503
58408,29883,45452
58369,29848,45407
58341,29816,45356
58329,29791,45305
58311,29766,45272
58277,29737,45245
58253,29718,45207
58247,29711,45169
58237,29706,45148
58216,29697,45134
58204,29693,45111
58207,29697,45086
58200,29696,45071
58179,29686,45053
58166,29674,45018
58159,29663,44977
58136,29641,44947
58104,29613,44918
58086,29589,44880
58077,29568,44847
58052,29540,44826
58016,29508,44801
57995,29484,44764
57982,29468,44731
57958,29448,44707
57928,29422,44678
57911,29401,44641
57898,29383,44612
57873,29360,44589
57847,29332,44555
57836,29309,44509
57826,29287,44469
57800,29259,44436
57772,29229,44398
57755,29205,44353
57734,29179,44315
57694,29142,44279
57655,29101,44232
57632,29067,44177
57607,29033,44128
57566,28994,44081
57533,28959,44020
57521,28936,43957
57514,28920,43918
57507,28910,43909
57527,28926,43925
57586,28979,43976
57661,29056,44078
57746,29149,44226
57864,29267,44404
58014,29415,44618
58170,29581,44874
58328,29759,45155
58508,29952,45445
58698,30156,45746
58869,30353,46064
59023,30536,46375
59187,30713,46660
59350,30883,46927
59486,31031,47191
59601,31155,47434
59718,31269,47640
59826,31372,47821
59901,31452,47984
59950,31511,48112
60002,31560,48198
60049,31599,48262
60069,31624,48314
60075,31641,48339
60087,31658,48337
60094,31663,48324
60079,31646,48304
60063,31620,48266
60064,31601,48215
60056,31581,48170
60024,31546,48131
59988,31505,48078
59964,31472,48017
59940,31442,47965
59903,31406,47920
59868,31368,47869
59849,31336,47816
59826,31306,47778
59792,31274,47749
59767,31246,47710
59756,31224,47666
59738,31200,47633
59707,31166,47601
59686,31133,47552
59680,31107,47501
59662,31076,47465
59629,31038,47424
59606,31005,47362
59593,30980,47294
59564,30953,47239
59520,30921,47185
59485,30894,47122
59461,30872,47065
59425,30849,47026
59383,30824,46993
59363,30812,46957
59360,30810,46931
59349,30808,46924
59332,30803,46920
59330,30804,46909
59336,30810,46905
59328,30807,46912
59313,30798,46915
59314,30797,46910
59321,30802,46917
59315,30803,46940
59309,30802,46959
59323,30808,46970
59342,30818,46985
59343,30824,47006
59342,30831,47016
59354,30845,47015
59365,30856,47017
59359,30856,47021
59351,30853,47011
59353,30855,46989
59348,30854,46971
59325,30842,46954
59306,30830,46921
59302,30822,46878
59292,30809,46844
59265,30787,46814
59243,30765,46774
59236,30748,46730
59218,30726,46695
59185,30696,46661
59160,30669,46615
59149,30647,46565
59123,30617,46526
59081,30581,46489
59051,30551,46441
59031,30525,46385
58997,30490,46332
58952,30451,46279
58921,30418,46219
58897,30390,46164
58857,30357,46122
58805,30317,46076
58766,30280,46017
58738,30249,45964
58699,30212,45923
58656,30171,45878
58633,30140,45821
58623,30116,45769
58596,30082,45726
58562,30045,45676
58541,30015,45615
58520,29992,45561
58482,29963,45522
58441,29933,45480
58418,29911,45432
58396,29889,45392
58359,29857,45361
58328,29826,45325
58318,29809,45283
58309,29798,45251
58285,29783,45231
58264,29767,45207
58259,29757,45174
58248,29743,45151
58222,29720,45131
58201,29695,45094
58196,29673,45048
58189,29651,45011
58172,29626,44980
58164,29607,44938
58170,29598,44898
58167,29587,44875
58149,29571,44855
58138,29561,44825
58139,29557,44798
58126,29547,44784
58099,29532,44772
58083,29521,44750
58078,29509,44724
58058,29482,44703
58024,29446,44676
58000,29417,44640
57986,29395,44605
57959,29366,44581
57924,29332,44549
57902,29304,44503
57884,29280,44459
57848,29243,44421
57799,29198,44374
57761,29159,44313
57731,29125,44256
57691,29086,44213
57654,29050,44172
57644,29034,44133
57657,29041,44125
57678,29070,44163
57728,29127,44237
57824,29221,44351
57947,29343,44515
58077,29479,44725
58223,29634,44961
58398,29816,45218
58582,30010,45503
58758,30199,45808
58938,30386,46113
59129,30577,46413
59309,30762,46716
59467,30932,47014
59616,31093,47287
59763,31250,47532
59890,31391,47761
59988,31508,47966
60078,31610,48133
60166,31700,48271
60229,31769,48393
60268,31815,48489
60306,31852,48551
60343,31883,48592
60357,31898,48626
60347,31895,48640
60337,31887,48622
60331,31874,48590
60305,31847,48561
60260,31807,48522
60220,31767,48463
60187,31729,48402
60143,31684,48348
60093,31632,48286
60059,31583,48214
60036,31543,48153
60004,31501,48109
59966,31458,48067
59941,31428,48024
59922,31409,47994
59889,31387,47977
59852,31362,47951
59825,31341,47909
59799,31315,47867
59762,31278,47825
59725,31235,47769
59700,31197,47698
59668,31154,47628
59613,31102,47561
59557,31050,47484
59521,31007,47402
59488,30965,47337
59446,30918,47283
59412,30878,47223
59393,30849,47157
59371,30823,47108
59342,30796,47078
59325,30781,47050
59327,30781,47026
59326,30784,47021
59319,30783,47030
59327,30791,47039
59349,30808,47048
59358,30819,47067
59356,30821,47085
59366,30828,47090
59386,30841,47096
59391,30847,47115
59385,30844,47135
59394,30844,47142
59414,30849,47147
59420,30848,47159
59413,30841,47167
59415,30839,47159
59424,30843,47152
59415,30840,47154
59398,30830,47148
59394,30822,47125
59393,30813,47099
59376,30799,47078
59356,30786,47049
59350,30778,47008
59345,30765,46972
59320,30741,46941
59291,30712,46900
59274,30689,46845
59255,30665,46796
59219,30632,46757
59182,30595,46713
59160,30565,46663
59135,30535,46619
59091,30495,46576
59051,30452,46520
59029,30416,46455
59004,30381,46401
58969,30342,46353
58943,30311,46296
58932,30291,46238
58912,30270,46196
58877,30244,46158
58849,30226,46106
58832,30216,46052
58809,30200,46011
58777,30173,45974
58757,30146,45926
58747,30124,45883
58722,30095,45856
58685,30062,45834
58660,30035,45805
58644,30014,45776
58617,29987,45755
58587,29959,45733
58579,29940,45702
58581,29929,45674
58566,29909,45653
58540,29883,45623
58528,29867,45580
58522,29859,45541
58501,29846,45511
58474,29830,45480
58461,29821,45444
58452,29811,45416
58427,29792,45398
58395,29771,45372
58377,29755,45337
58364,29739,45308
58340,29713,45288
58316,29686,45262
58309,29667,45232
58302,29652,45214
58282,29632,45204
58263,29612,45183
58260,29601,45153
58254,29590,45133
58231,29571,45118
58208,29553,45090
58196,29538,45051
58175,29518,45017
58133,29490,44981
58092,29461,44930
58060,29433,44873
58019,29397,44828
57968,29349,44785
57932,29305,44731
57913,29272,44676
57893,29242,44635
57867,29217,44607
57860,29209,44585
57877,29223,44587
57902,29250,44628
57935,29292,44701
58001,29361,44800
58100,29460,44942
58207,29576,45130
58319,29706,45347
58454,29857,45579
58608,30023,45835
58758,30192,46114
58908,30362,46394
59076,30539,46669
59248,30717,46947
59400,30882,47227
59540,31036,47487
59684,31187,47719
59816,31322,47934
59916,31431,48133
59997,31520,48301
60077,31601,48436
60141,31666,48550
60174,31713,48643
60191,31747,48703
60207,31773,48731
60212,31786,48749
60200,31785,48763
60191,31780,48759
60193,31778,48742
60184,31770,48726
60153,31749,48710
60124,31725,48676
60106,31704,48631
60081,31681,48593
60043,31652,48560
60013,31626,48515
59994,31604,48465
59966,31578,48424
59927,31544,48387
59900,31510,48342
59887,31481,48296
59862,31448,48259
59825,31410,48225
59801,31378,48178
59785,31350,48129
59754,31313,48088
59709,31267,48038
59671,31225,47969
59637,31187,47896
59585,31142,47832
59525,31090,47763
59481,31047,47684
59449,31011,47616
59406,30970,47560
59358,30925,47498
59328,30888,47427
59310,30857,47367
59285,30822,47321
59264,30793,47276
59261,30776,47231
59260,30763,47202
59247,30747,47192
59237,30734,47183
59240,30733,47171
59245,30737,47175
59242,30739,47197
59248,30745,47218
59270,30758,47235
59287,30768,47263
59289,30771,47294
59293,30776,47307
59307,30783,47305
59314,30784,47308
59303,30774,47309
59294,30763,47289
59294,30752,47253
59284,30732,47220
59259,30705,47193
59241,30684,47164
59236,30670,47137
59222,30654,47118
59197,30631,47097
59183,30614,47059
59180,30606,47017
59166,30596,46986
59139,30578,46953
59120,30560,46907
59104,30545,46860
59071,30520,46821
59025,30486,46779
58993,30457,46728
58972,30435,46682
58940,30412,46651
58902,30386,46614
58877,30365,46563
58859,30343,46516
58824,30310,46478
58783,30267,46433
58753,30230,46378
58723,30196,46330
58680,30156,46288
58635,30113,46236
58603,30076,46169
58570,30041,46106
58522,29999,46051
58481,29959,45992
58458,29927,45930
58433,29893,45878
58396,29852,45835
58363,29815,45781
58348,29786,45721
58331,29759,45673
58302,29724,45630
58278,29689,45575
58267,29663,45517
58254,29638,45475
58228,29611,45445
58213,29596,45413
58215,29592,45385
58211,29588,45372
58194,29578,45365
58186,29570,45345
58186,29568,45322
58174,29562,45308
58148,29552,45296
58130,29547,45276
58120,29543,45257
58096,29531,45245
58061,29509,45232
58038,29490,45208
58023,29471,45186
57992,29444,45174
57953,29412,45157
57928,29389,45122
57910,29371,45084
57876,29345,45054
57834,29313,45018
57806,29288,44975
57787,29270,44941
57758,29249,44914
57731,29230,44877
57719,29221,44832
57713,29214,44795
57699,29198,44763
57686,29181,44726
57688,29172,44684
57688,29162,44652
57670,29142,44629
57647,29118,44595
57631,29096,44551
57612,29071,44517
57575,29037,44490
57537,29003,44456
57516,28979,44422
57495,28959,44405
57466,28942,44402
57453,28940,44412
57473,28962,44448
57511,29002,44527
57562,29060,44642
57646,29144,44779
57761,29256,44945
57883,29386,45154
58008,29529,45395
58160,29693,45654
58338,29876,45930
58509,30061,46224
58670,30239,46519
58837,30415,46798
59009,30589,47067
59163,30751,47335
59300,30898,47588
59439,31038,47810
59573,31172,48012
59677,31286,48198
59755,31376,48353
59832,31453,48467
59900,31520,48560
59939,31566,48639
59959,31592,48688
59980,31611,48707
59988,31620,48714
59966,31608,48712
59934,31584,48689
59913,31563,48649
59893,31542,48612
59861,31515,48580
59830,31485,48535
59815,31455,48478
59799,31421,48426
59771,31380,48386
59747,31343,48344
59741,31314,48300
59736,31286,48269
59717,31255,48245
59698,31226,48207
59683,31202,48160
59654,31175,48119
59609,31141,48080
59572,31109,48027
59548,31081,47967
59514,31048,47915
59464,31007,47862
59421,30970,47793
59392,30937,47719
59354,30900,47656
59310,30857,47596
59283,30820,47525
59274,30792,47457
59257,30762,47402
59233,30729,47351
59224,30704,47296
59222,30684,47252
59205,30664,47230
59180,30645,47214
59173,30635,47195
59173,30633,47185
59158,30628,47186
59139,30620,47184
59134,30619,47176
59134,30622,47178
59119,30618,47190
59103,30614,47194
59101,30614,47186
59100,30612,47183
59086,30600,47186
59075,30587,47182
59082,30586,47170
59086,30586,47163
59069,30577,47158
59051,30566,47142
59048,30561,47121
59044,30555,47110
59029,30540,47104
59017,30524,47085
59018,30519,47058
59016,30519,47044
58998,30516,47035
58984,30515,47015
58981,30521,46990
58970,30522,46973
58943,30514,46956
58919,30506,46923
58900,30497,46882
58870,30475,46848
58824,30442,46811
58783,30411,46757
58751,30385,46696
58709,30352,46640
58657,30307,46579
58615,30262,46502
58584,30221,46424
58544,30173,46359
58498,30120,46297
58465,30079,46230
58447,30051,46171
58425,30025,46128
58399,29998,46086
58393,29981,46040
58397,29974,46003
58389,29963,45976
58377,29949,45945
58376,29943,45905
58370,29935,45872
58342,29918,45852
58305,29894,45825
58278,29874,45784
58252,29852,45747
58212,29821,45715
58178,29792,45675
58164,29776,45630
58148,29760,45595
58117,29735,45562
58092,29712,45511
58084,29696,45453
58074,29678,45406
58049,29651,45367
58024,29624,45319
58013,29603,45270
57997,29583,45236
57969,29561,45214
57950,29545,45185
57945,29536,45153
57934,29523,45132
57914,29507,45119
57907,29498,45097
57913,29496,45071
57905,29488,45054
57883,29473,45037
57868,29461,45007
57859,29450,44973
57837,29430,44947
57807,29402,44919
57789,29379,44877
57775,29358,44837
57746,29331,44806
57709,29300,44773
57692,29278,44733
57687,29262,44697
57666,29240,44669
57633,29212,44634
57609,29188,44589
57590,29168,44545
57559,29143,44508
57529,29118,44468
57515,29099,44422
57503,29079,44386
57475,29053,44358
57442,29025,44318
57420,28998,44260
57397,28967,44205
57358,28926,44159
57316,28885,44108
57288,28854,44050
57258,28825,44001
57212,28791,43957
57170,28761,43908
57147,28745,43862
57133,28738,43842
57123,28739,43851
57141,28763,43882
57202,28820,43950
57286,28902,44073
57383,29002,44246
57514,29131,44449
57678,29291,44683
57847,29462,44953
58008,29634,45243
58180,29814,45532
58363,30002,45826
58532,30184,46133
58686,30355,46440
58846,30522,46730
59007,30683,47006
59143,30831,47274
59258,30961,47516
59375,31084,47722
59487,31197,47902
59564,31288,48060
59613,31358,48182
59660,31414,48261
59700,31456,48318
59711,31475,48362
59706,31477,48379
59707,31476,48368
59705,31471,48351
59689,31456,48336
59673,31438,48303
59668,31426,48255
59658,31412,48208
59631,31385,48164
59605,31353,48111
59594,31329,48053
59580,31310,48010
59550,31287,47978
59521,31265,47940
59503,31247,47900
59484,31228,47874
59455,31200,47856
59434,31173,47827
59424,31154,47791
59396,31128,47761
59343,31093,47729
59292,31061,47680
59251,31035,47619
59197,30997,47563
59125,30946,47502
59058,30895,47423
59003,30850,47337
58941,30800,47265
58872,30743,47194
58821,30689,47115
58790,30642,47040
58756,30596,46982
58714,30550,46928
58690,30514,46868
58683,30492,46818
58670,30472,46787
58651,30455,46763
58654,30451,46739
58668,30459,46730
58670,30466,46743
58669,30469,46757
58685,30479,46766
58707,30493,46781
58713,30503,46805
58717,30513,46822
58734,30534,46831
58753,30561,46852
58759,30578,46885
58764,30585,46908
58781,30589,46913
58791,30588,46916
58780,30580,46921
58768,30573,46916
58769,30573,46901
58761,30570,46886
58734,30554,46870
58709,30534,46840
58697,30519,46805
58677,30504,46781
58635,30480,46757
58593,30455,46710
58562,30432,46651
58524,30399,46597
58472,30352,46542
58425,30305,46472
58388,30267,46397
58342,30228,46337
58290,30184,46284
58254,30144,46223
58232,30111,46163
58201,30073,46117
58163,30033,46074
58143,30002,46024
58131,29979,45973
58105,29949,45930
58069,29914,45882
58050,29885,45822
58038,29862,45763
58011,29834,45714
57974,29800,45662
57952,29770,45602
57936,29745,45549
57908,29716,45508
57878,29689,45464
57862,29673,45412
57852,29662,45370
57834,29642,45340
57819,29620,45306
57819,29606,45266
57817,29595,45235
57795,29574,45211
57772,29550,45179
57766,29534,45138
57759,29517,45104
57734,29493,45077
57707,29470,45042
57695,29458,45002
57682,29446,44977
57655,29425,44960
57632,29403,44933
57626,29389,44903
57618,29374,44883
57596,29352,44869
57579,29332,44843
57575,29321,44813
57567,29313,44795
57547,29301,44784
57536,29292,44766
57536,29287,44748
57521,29276,44741
57493,29256,44732
57474,29238,44706
57465,29225,44672
57443,29208,44641
57410,29186,44603
57391,29167,44551
57379,29147,44497
57351,29115,44449
57310,29072,44394
57278,29034,44327
57253,28999,44265
57209,28955,44214
57152,28904,44159
57106,28860,44096
57066,28825,44039
57021,28791,43997
56985,28763,43966
56982,28755,43949
57003,28768,43966
57035,28794,44023
57091,28841,44104
57189,28921,44212
57310,29029,44367
57436,29152,44564
57578,29293,44784
57743,29454,45022
57911,29624,45289
58070,29794,45576
58234,29968,45859
58414,30146,46138
58586,30320,46422
58738,30481,46702
58885,30633,46957
59035,30784,47192
59163,30919,47412
59255,31028,47606
59333,31118,47755
59402,31192,47869
59441,31243,47965
59450,31269,48035
59455,31281,48066
59456,31280,48071
59430,31262,48067
59384,31230,48048
59348,31199,48007
59327,31170,47957
59292,31133,47905
59248,31090,47843
59220,31053,47767
59204,31024,47695
59177,30991,47639
59145,30954,47585
59130,30925,47524
59123,30902,47471
59103,30875,47434
59081,30844,47395
59075,30821,47349
59068,30803,47309
59041,30780,47279
59008,30755,47240
58987,30734,47187
58960,30705,47133
58912,30657,47079
58859,30597,47011
58816,30541,46928
58769,30488,46848
58707,30432,46775
58648,30383,46697
58607,30346,46614
58564,30311,46547
58512,30269,46490
58470,30232,46426
58454,30207,46364
58441,30188,46322
58422,30166,46296
58415,30151,46271
58428,30152,46252
58438,30160,46255
58438,30166,46272
58453,30178,46287
58487,30202,46305
58514,30223,46338
58526,30234,46374
58546,30247,46400
58575,30266,46427
58590,30280,46464
58587,30286,46495
58589,30293,46507
58593,30300,46510
58581,30299,46516
58562,30290,46516
58557,30286,46501
58559,30286,46489
58542,30276,46485
58513,30258,46470
58493,30242,46434
58476,30225,46394
58440,30198,46358
58394,30164,46312
58359,30137,46251
58325,30111,46191
58276,30077,46133
58226,30039,46065
58192,30006,45990
58162,29973,45926
58119,29934,45872
58079,29894,45810
58057,29858,45740
58031,29818,45677
57985,29767,45619
57944,29717,45548
57920,29674,45471
57894,29633,45411
57860,29594,45364
57834,29561,45311
57822,29535,45255
57805,29508,45211
57774,29476,45174
57755,29448,45131
57751,29430,45087
57737,29414,45057
57710,29397,45033
57696,29389,45002
57693,29386,44969
57672,29371,44947
57639,29346,44928
57624,29328,44898
57619,29314,44868
57598,29294,44847
57565,29267,44821
57545,29249,44783
57533,29239,44744
57506,29221,44716
57470,29197,44685
57449,29179,44645
57434,29165,44611
57401,29145,44593
57357,29117,44571
57324,29093,44536
57297,29070,44503
57257,29038,44475
57220,29004,44438
57201,28977,44391
57185,28956,44351
57155,28936,44324
57126,28915,44289
57114,28896,44243
57105,28873,44201
57079,28838,44164
57055,28801,44116
57046,28770,44060
57029,28736,44011
56993,28693,43968
56957,28652,43915
56931,28618,43857
56899,28586,43812
56850,28551,43772
56808,28521,43722
56785,28503,43674
56769,28492,43652
56759,28486,43656
56780,28501,43679
56836,28544,43733
56903,28607,43833
56980,28690,43972
57094,28800,44138
57242,28936,44337
57393,29082,44578
57542,29237,44842
57712,29408,45113
57896,29590,45395
58067,29767,45688
58228,29936,45973
58400,30106,46239
58571,30275,46495
58714,30427,46747
58839,30563,46976
58971,30689,47170
59095,30802,47339
59187,30890,47488
59256,30957,47597
59320,31011,47664
59368,31046,47709
59388,31057,47737
59396,31055,47738
59409,31049,47714
59412,31033,47686
59390,31000,47657
59364,30964,47612
59352,30934,47556
59333,30901,47503
59294,30860,47454
59256,30819,47396
59230,30789,47334
59200,30766,47282
59157,30739,47244
59124,30711,47202
59111,30689,47161
59102,30668,47136
59082,30644,47118
59069,30625,47086
59069,30614,47045
59056,30596,47009
59022,30566,46968
58990,30533,46909
58962,30501,46838
58917,30460,46771
58853,30410,46702
58795,30359,46620
58745,30308,46537
58683,30252,46467
58616,30197,46401
58572,30161,46329
58552,30140,46269
58524,30115,46227
58486,30084,46185
58460,30059,46137
58445,30042,46102
58420,30023,46087
58395,30006,46077
58392,29998,46065
58397,29996,46063
58386,29991,46078
58373,29991,46091
58378,30001,46096
58385,30013,46110
58379,30017,46133
58376,30020,46145
58398,30032,46146
58424,30044,46151
58432,30048,46159
58437,30048,46154
58453,30052,46138
58462,30055,46131
58455,30048,46130
58451,30040,46116
58458,30039,46092
58454,30036,46077
58428,30021,46063
58405,30003,46031
58396,29988,45990
58375,29967,45957
58336,29938,45925
58305,29911,45881
58285,29887,45833
58252,29854,45791
58201,29810,45745
58156,29768,45684
58118,29730,45615
58066,29687,45553
58005,29636,45489
57964,29590,45417
57940,29552,45349
57904,29508,45293
57857,29459,45237
57827,29418,45169
57809,29384,45104
57780,29343,45052
57744,29301,44999
57723,29271,44940
57709,29250,44891
57680,29225,44860
57646,29201,44823
57627,29185,44774
57613,29173,44730
57584,29154,44699
57552,29132,44663
57533,29112,44618
57514,29091,44580
57483,29062,44554
57456,29031,44523
57445,29007,44485
57435,28983,44455
57407,28954,44434
57380,28925,44404
57368,28905,44366
57352,28887,44336
57323,28865,44308
57301,28847,44267
57292,28835,44218
57274,28821,44179
57240,28800,44147
57211,28780,44105
57191,28760,44056
57160,28731,44017
57115,28689,43983
57077,28651,43936
57053,28623,43888
57026,28596,43855
56993,28567,43827
56977,28546,43789
56979,28536,43753
56975,28524,43726
56960,28505,43697
56957,28494,43658
56966,28492,43625
56963,28485,43609
56948,28469,43594
56942,28455,43566
56940,28443,43540
56921,28426,43520
56890,28405,43494
56872,28389,43455
56855,28372,43418
56822,28341,43389
56782,28300,43349
56753,28262,43293
56727,28224,43241
56689,28181,43202
56657,28147,43167
56648,28132,43142
56654,28134,43152
56663,28149,43202
56697,28190,43284
56773,28266,43395
56873,28369,43553
56985,28490,43753
57123,28635,43977
57293,28808,44223
57471,28995,44504
57647,29187,44811
57835,29390,45121
58040,29603,45435
58232,29808,45759
58403,29993,46078
58572,30169,46368
58738,30339,46630
58873,30486,46874
58975,30606,47089
59068,30710,47258
59150,30798,47391
59198,30860,47505
59215,30899,47589
59229,30929,47634
59242,30949,47650
59231,30946,47653
59206,30927,47637
59192,30908,47600
59184,30887,47555
59157,30849,47507
59116,30796,47445
59085,30744,47361
59058,30694,47282
59017,30640,47218
58974,30591,47155
58951,30558,47086
58938,30537,47029
58920,30518,46991
58907,30502,46955
58911,30496,46919
58915,30491,46896
58896,30476,46883
58870,30458,46862
58854,30444,46827
58830,30423,46794
58778,30384,46759
58720,30339,46703
58674,30298,46629
58626,30255,46560
58564,30201,46495
58509,30148,46418
58469,30101,46338
58422,30049,46271
58362,29987,46211
58311,29931,46142
58275,29888,46072
58235,29850,46016
58192,29816,45968
58168,29796,45917
58167,29791,45874
58164,29789,45856
58153,29780,45851
58155,29778,45844
58172,29787,45846
58179,29795,45867
58178,29802,45891
58193,29815,45904
58219,29834,45918
58234,29847,45943
58241,29854,45962
58261,29867,45966
58285,29885,45969
58292,29898,45982
58293,29904,45989
58306,29911,45984
58317,29916,45982
58307,29908,45984
58291,29893,45978
58289,29879,45961
58285,29864,45946
58261,29840,45934
58236,29814,45906
58226,29795,45864
58205,29777,45825
58160,29750,45789
58115,29718,45738
58089,29691,45675
58064,29661,45617
58026,29623,45567
57991,29587,45507
57971,29558,45439
57942,29527,45380
57898,29487,45327
57857,29448,45263
57827,29412,45197
57785,29369,45140
57726,29319,45082
57678,29272,45009
57644,29231,44932
57600,29184,44868
57547,29133,44805
57509,29089,44734
57485,29054,44670
57444,29017,44630
57392,28976,44596
57354,28943,44550
57333,28923,44503
57305,28902,44467
57272,28877,44430
57257,28859,44381
57254,28848,44336
57241,28830,44304
57220,28805,44270
57214,28786,44231
57213,28775,44203
57200,28763,44189
57181,28748,44168
57178,28739,44134
57178,28731,44104
57158,28715,44078
57133,28693,44042
57122,28675,43997
57108,28657,43962
57077,28632,43939
57045,28608,43908
57027,28591,43868
57006,28572,43835
56967,28543,43809
56932,28517,43777
56916,28503,43741
56897,28490,43716
56863,28469,43697
56831,28446,43665
56811,28427,43625
56788,28405,43595
56752,28374,43571
56720,28347,43536
56704,28328,43496
56685,28307,43464
56659,28281,43434
56646,28261,43390
56648,28251,43342
56640,28237,43304
56616,28213,43267
56597,28188,43214
56588,28167,43158
56566,28140,43115
56532,28103,43075
56511,28070,43025
56496,28040,42975
56462,28003,42934
56417,27962,42891
56392,27933,42849
56387,27923,42829
56386,27924,42847
56397,27942,42890
56443,27991,42961
56522,28071,43078
56617,28172,43250
56734,28298,43455
56886,28453,43687
57058,28627,43955
57227,28807,44253
57400,28996,44559
57591,29198,44866
57780,29405,45186
57953,29603,45513
58121,29790,45820
58294,29969,46100
58452,30131,46367
58582,30269,46615
58698,30390,46825
58809,30500,46996
58899,30591,47147
58961,30659,47277
59014,30714,47370
59069,30761,47434
59103,30793,47484
59108,30803,47516
59104,30803,47516
59100,30799,47495
59079,30785,47471
59041,30757,47437
59008,30724,47382
58980,30690,47317
58936,30644,47259
58879,30586,47202
58836,30530,47136
58804,30481,47072
58764,30432,47022
58720,30387,46974
58693,30357,46919
58678,30336,46867
58653,30308,46827
58622,30275,46782
58606,30245,46726
58596,30217,46674
58569,30181,46629
58533,30141,46577
58508,30107,46512
58487,30076,46452
58455,30040,46404
58423,30006,46353
58404,29981,46296
58382,29954,46241
58343,29915,46187
58301,29875,46123
58275,29841,46052
58250,29809,45996
58214,29777,45954
58182,29753,45910
58166,29739,45864
58149,29729,45836
58123,29716,45822
58109,29709,45805
58113,29710,45789
58115,29711,45790
58104,29706,45802
58100,29703,45806
58108,29705,45806
58108,29702,45818
58099,29693,45833
58103,29690,45837
58118,29696,45840
58120,29699,45853
58110,29697,45866
58113,29695,45864
58124,29699,45857
58119,29698,45856
58098,29688,45849
58090,29680,45829
58092,29675,45806
58078,29659,45786
58050,29635,45755
58036,29616,45706
58030,29600,45658
58007,29578,45623
57973,29549,45582
57950,29525,45525
57934,29504,45472
57905,29478,45429
57872,29448,45381
57852,29423,45321
57832,29398,45265
57792,29361,45214
57748,29318,45153
57720,29280,45083
57695,29244,45023
57653,29203,44974
57609,29163,44917
57581,29132,44851
57553,29100,44791
57509,29056,44737
57470,29014,44677
57450,28980,44616
57430,28949,44568
57400,28917,44529
57377,28890,44484
57367,28872,44439
57350,28850,44409
57320,28823,44387
57299,28803,44353
57296,28793,44314
57287,28779,44290
57267,28759,44271
57255,28747,44237
57248,28740,44199
57220,28725,44173
57176,28699,44144
57145,28674,44098
57128,28654,44046
57103,28630,44004
57069,28603,43966
57051,28580,43924
57040,28560,43884
57014,28533,43853
56980,28502,43817
56966,28481,43774
56960,28466,43734
56936,28442,43703
56899,28408,43664
56872,28374,43614
56847,28339,43571
56803,28295,43534
56756,28250,43488
56727,28215,43434
56704,28190,43387
56666,28164,43350
56632,28139,43309
56618,28120,43265
56605,28101,43232
56578,28076,43207
56554,28055,43177
56548,28043,43145
56538,28027,43121
56511,28002,43100
56489,27981,43063
56484,27970,43018
56473,27958,42984
56447,27937,42952
56426,27916,42905
56418,27900,42854
56401,27877,42813
56368,27842,42774
56341,27808,42722
56325,27778,42668
56294,27744,42626
56247,27704,42588
56212,27669,42538
56193,27643,42490
56167,27617,42459
56137,27594,42438
56130,27589,42422
56149,27606,42430
56179,27640,42480
56226,27695,42571
56317,27785,42697
56442,27908,42871
56577,28051,43098
56724,28209,43360
56903,28394,43643
57101,28599,43955
57293,28808,44292
57481,29014,44633
57680,29224,44965
57876,29432,45294
58047,29622,45614
58207,29795,45907
58370,29961,46165
58516,30112,46405
58630,30237,46625
58726,30343,46806
58820,30439,46949
58895,30519,47071
58937,30573,47172
58963,30610,47234
58988,30638,47261
58996,30649,47272
58977,30640,47269
58951,30620,47235
58930,30594,47181
58897,30557,47128
58847,30507,47074
58803,30457,47007
58775,30415,46936
58743,30373,46878
58702,30331,46825
58672,30300,46768
58659,30283,46714
58638,30263,46678
58611,30240,46650
58600,30226,46617
58602,30223,46590
58590,30217,46582
58569,30206,46573
58559,30200,46548
58553,30197,46518
58530,30182,46494
58496,30155,46461
58473,30127,46410
58453,30097,46356
58413,30058,46308
58361,30012,46252
58323,29965,46184
58286,29916,46119
58230,29861,46059
58169,29804,45991
58128,29757,45913
58095,29720,45846
58048,29684,45792
58005,29655,45739
57983,29640,45686
57969,29633,45648
57947,29627,45625
57934,29624,45604
57943,29632,45584
57955,29643,45581
57954,29649,45591
57959,29659,45599
57985,29675,45608
58010,29692,45632
58021,29702,45663
58038,29714,45683
58069,29731,45698
58091,29745,45722
58096,29752,45745
58104,29762,45752
58119,29773,45751
58116,29774,45759
58094,29764,45762
58081,29752,45744
58076,29739,45715
58055,29716,45690
58020,29682,45658
57993,29647,45610
57968,29613,45556
57922,29571,45505
57861,29523,45450
57809,29478,45379
57767,29434,45310
57712,29381,45248
57650,29322,45181
57602,29271,45102
57563,29228,45027
57513,29186,44961
57465,29143,44891
57438,29107,44818
57420,29077,44758
57391,29046,44711
57361,29020,44660
57349,29002,44602
57335,28987,44552
57302,28964,44507
57269,28935,44455
57257,28911,44397
57246,28887,44347
57217,28857,44306
57189,28826,44260
57174,28803,44212
57154,28779,44174
57119,28749,44144
57088,28719,44104
57069,28694,44056
57040,28663,44014
56991,28623,43972
56946,28584,43917
56913,28549,43858
56872,28511,43812
56824,28472,43775
56793,28440,43728
56784,28415,43679
56773,28389,43642
56759,28359,43609
56760,28337,43567
56771,28328,43528
56764,28321,43506
56741,28312,43485
56728,28309,43453
56726,28311,43427
56712,28307,43417
56690,28300,43406
56681,28298,43383
56678,28295,43362
56661,28284,43347
56637,28270,43326
56625,28263,43295
56616,28255,43266
56589,28235,43245
56556,28206,43216
56534,28179,43175
56510,28150,43138
56472,28112,43106
56433,28072,43064
56406,28042,43009
56380,28014,42958
56341,27977,42913
56302,27939,42860
56276,27908,42800
56245,27875,42748
56199,27833,42704
56157,27792,42649
56133,27760,42586
56112,27733,42543
56087,27712,42521
56079,27710,42511
56106,27734,42523
56154,27782,42584
56219,27853,42696
56323,27956,42847
56470,28097,43047
56634,28262,43302
56806,28442,43593
57002,28643,43899
57217,28858,44221
57420,29072,44565
57607,29277,44911
57798,29480,45240
57987,29678,45557
58149,29858,45869
58285,30021,46155
58420,30177,46402
58545,30318,46622
58635,30433,46822
58702,30524,46985
58769,30599,47105
58828,30657,47200
58858,30689,47279
58870,30701,47325
58888,30708,47334
58900,30713,47328
58890,30706,47315
58871,30691,47283
58865,30681,47235
58858,30672,47191
58831,30653,47151
58803,30630,47102
58788,30614,47043
58772,30599,46990
58741,30582,46948
58708,30563,46900
58690,30544,46849
58672,30518,46813
58641,30480,46788
58615,30446,46755
58604,30420,46713
58585,30392,46676
58551,30355,46638
58521,30319,46585
58501,30287,46522
58465,30246,46463
58410,30193,46401
58358,30139,46321
58313,30085,46231
58257,30024,46149
58192,29957,46069
58143,29899,45982
58109,29852,45901
58066,29808,45838
58017,29767,45782
57989,29739,45722
57978,29720,45674
57958,29698,45646
57932,29672,45619
57920,29652,45585
57921,29641,45560
57919,29631,45557
57921,29630,45559
57942,29646,45561
57971,29672,45574
57986,29692,45602
57998,29707,45624
58023,29729,45637
58047,29750,45659
58051,29762,45692
58049,29768,45714
58060,29776,45722
58067,29783,45733
58054,29778,45747
58038,29768,45749
58033,29759,45738
58022,29747,45725
57992,29726,45713
57962,29702,45689
57946,29683,45652
57927,29665,45622
57891,29639,45594
57857,29607,45551
57836,29578,45498
57806,29543,45451
57758,29495,45402
57712,29445,45339
57675,29400,45266
57628,29353,45198
57570,29302,45129
57526,29254,45048
57496,29214,44964
57460,29169,44891
57417,29120,44823
57389,29081,44748
57375,29051,44680
57347,29018,44627
57306,28983,44577
57280,28955,44517
57267,28932,44463
57242,28906,44421
57206,28876,44377
57181,28856,44326
57165,28842,44284
57139,28825,44256
57108,28803,44225
57090,28790,44184
57072,28778,44144
57041,28756,44114
57013,28732,44079
57003,28717,44038
56996,28703,44005
56975,28681,43983
56955,28661,43951
56949,28650,43906
56940,28641,43869
56914,28621,43840
56889,28596,43805
56875,28576,43764
56853,28554,43730
56815,28521,43702
56780,28486,43661
56754,28456,43612
56722,28424,43576
56678,28389,43548
56644,28358,43511
56625,28333,43470
56603,28306,43437
56567,28271,43405
56538,28238,43363
56522,28213,43316
56499,28188,43280
