green_channel,red_channel,ir_channel
26598,43095,22282
26590,43087,22254
26597,43101,22251
26603,43118,22244
26612,43126,22221
26639,43145,22210
26670,43177,22219
26677,43195,22216
26664,43187,22184
26653,43179,22152
26641,43175,22129
26608,43147,22088
26560,43091,22024
26512,43036,21966
26455,42987,21914
26373,42921,21837
26284,42839,21739
26208,42770,21651
26143,42715,21572
26075,42651,21480
26014,42587,21383
25971,42551,21307
25931,42532,21237
25875,42494,21138
25822,42446,21024
25788,42422,20937
25760,42412,20866
25723,42387,20782
25693,42358,20698
25679,42348,20635
25651,42335,20570
25596,42289,20475
25539,42234,20376
25495,42198,20299
25445,42166,20225
25380,42113,20131
25311,42053,20036
25249,42010,19962
25183,41969,19890
25114,41914,19794
25064,41868,19703
25032,41849,19639
24991,41828,19571
24939,41789,19478
24901,41763,19391
24871,41759,19326
24832,41748,19255
24793,41719,19169
24766,41699,19092
24739,41688,19034
24694,41653,18964
24637,41588,18869
24590,41529,18786
24550,41484,18727
24500,41432,18669
24459,41378,18617
24450,41358,18610
24467,41375,18650
24499,41403,18707
24561,41445,18792
24669,41531,18944
24810,41659,19158
24974,41800,19400
25174,41959,19676
25415,42154,20011
25676,42371,20385
25938,42581,20763
26212,42793,21153
26508,43031,21576
26805,43277,22012
27085,43502,22422
27356,43713,22812
27627,43932,23204
27879,44142,23572
28103,44321,23887
28315,44488,24173
28522,44667,24458
28701,44834,24709
28850,44968,24903
28991,45088,25070
29123,45213,25232
29234,45324,25363
29327,45404,25451
29418,45473,25529
29503,45545,25614
29554,45592,25674
29574,45601,25692
29595,45605,25703
29617,45617,25722
29619,45612,25721
29609,45586,25695
29605,45571,25684
29602,45573,25695
29582,45564,25691
29554,45539,25664
29536,45524,25645
29518,45522,25635
29479,45498,25598
29432,45454,25538
29397,45422,25490
29360,45401,25448
29303,45358,25377
29238,45299,25284
29177,45250,25198
29100,45197,25101
28999,45113,24969
28901,45019,24828
28830,44951,24716
28767,44895,24617
28690,44820,24503
28612,44740,24381
28549,44682,24282
28487,44635,24194
28419,44574,24091
28371,44518,23995
28349,44492,23932
28326,44473,23879
28295,44441,23817
28272,44415,23769
28264,44415,23752
28255,44420,23738
28244,44411,23709
28246,44408,23692
28260,44427,23701
28256,44435,23701
28232,44416,23676
28215,44401,23655
28201,44399,23646
28172,44381,23620
28135,44339,23567
28103,44297,23520
28064,44262,23487
28002,44208,23435
27927,44132,23355
27866,44070,23280
27816,44031,23218
27762,43986,23143
27712,43937,23059
27681,43910,22998
27656,43904,22953
27623,43888,22889
27587,43863,22810
27564,43854,22750
27542,43852,22695
27507,43831,22620
27476,43807,22544
27463,43810,22501
27449,43823,22464
27418,43813,22397
27382,43793,22315
27357,43790,22250
27328,43786,22186
27286,43751,22094
27251,43709,21999
27233,43688,21934
27209,43673,21877
27170,43637,21798
27131,43598,21719
27098,43579,21663
27057,43562,21605
27005,43526,21520
26965,43493,21443
26937,43479,21391
26890,43454,21328
26829,43400,21237
26775,43344,21149
26722,43297,21076
26655,43240,20994
26587,43167,20894
26538,43111,20812
26504,43085,20766
26470,43062,20733
26446,43038,20706
26460,43045,20723
26507,43093,20796
26574,43155,20897
26671,43229,21027
26817,43348,21223
27003,43508,21487
27212,43677,21787
27450,43859,22126
27723,44075,22525
28013,44312,22964
28303,44540,23403
28603,44773,23849
28921,45034,24328
29238,45304,24817
29531,45543,25271
29806,45755,25691
30069,45964,26099
30301,46155,26469
30495,46304,26770
30674,46432,27025
30850,46569,27266
31006,46701,27481
31132,46804,27652
31243,46895,27801
31344,46994,27952
31421,47076,28077
31471,47120,28155
31520,47157,28224
31573,47205,28303
31610,47238,28366
31632,47247,28399
31655,47256,28436
31672,47271,28484
31662,47266,28503
31633,47229,28483
31614,47197,28463
31603,47186,28458
31582,47168,28443
31557,47134,28410
31542,47110,28385
31528,47101,28372
31495,47079,28336
31452,47041,28275
31418,47016,28223
31392,47005,28179
31355,46978,28111
31309,46933,28024
31260,46894,27947
31198,46852,27872
31115,46779,27765
31024,46686,27634
30945,46610,27513
30866,46546,27401
30771,46461,27271
30671,46367,27137
30584,46298,27031
30497,46242,26934
30408,46170,26816
30339,46105,26704
30304,46075,26629
30279,46064,26573
30248,46042,26506
30222,46022,26447
30204,46021,26416
30184,46018,26388
30161,45991,26338
30147,45966,26292
30141,45957,26268
30122,45939,26239
30094,45898,26188
30071,45860,26141
30052,45837,26110
30019,45812,26067
29980,45774,26001
29953,45750,25949
29935,45751,25923
29907,45746,25888
29873,45724,25832
29848,45710,25785
29824,45709,25748
29780,45691,25688
29730,45648,25605
29690,45612,25531
29647,45585,25466
29583,45538,25380
29510,45470,25271
29439,45404,25166
29354,45334,25058
29244,45235,24919
29128,45118,24763
29029,45021,24631
28933,44941,24512
28828,44851,24370
28731,44763,24226
28655,44705,24117
28580,44662,24024
28494,44604,23916
28417,44539,23805
28359,44496,23720
28302,44460,23638
28236,44404,23531
28176,44347,23421
28132,44311,23333
28076,44273,23245
28002,44211,23136
27926,44142,23027
27852,44085,22935
27769,44018,22832
27683,43931,22704
27611,43854,22587
27550,43806,22499
27477,43756,22406
27397,43689,22295
27337,43639,22204
27296,43622,22148
27256,43609,22097
27231,43592,22053
27249,43605,22065
27306,43657,22144
27379,43720,22255
27474,43790,22395
27609,43894,22597
27778,44031,22859
27961,44172,23146
28170,44322,23460
28419,44514,23832
28693,44738,24249
28963,44956,24668
29233,45168,25089
29512,45395,25533
29779,45624,25978
30020,45828,26389
30251,46015,26773
30493,46214,27155
30729,46415,27517
30939,46586,27824
31132,46739,28092
31319,46895,28348
31475,47035,28569
31588,47132,28730
31688,47214,28864
31788,47306,29000
31870,47389,29116
31928,47440,29193
31974,47478,29256
32015,47523,29330
32043,47558,29389
32060,47566,29413
32086,47581,29438
32121,47622,29487
32144,47657,29525
32156,47666,29533
32178,47675,29543
32200,47693,29571
32204,47697,29586
32203,47683,29582
32212,47680,29589
32221,47693,29608
32208,47690,29605
32178,47662,29568
32151,47636,29528
32120,47617,29492
32069,47578,29428
32009,47523,29337
31958,47484,29258
31903,47453,29188
31826,47396,29090
31736,47322,28968
31652,47258,28856
31565,47200,28746
31469,47120,28609
31381,47033,28466
31311,46967,28349
31241,46908,28241
31155,46831,28111
31067,46747,27974
30991,46685,27863
30924,46638,27768
30857,46581,27662
30803,46527,27563
30766,46499,27499
30725,46476,27448
30674,46432,27379
30623,46383,27309
30573,46348,27257
30510,46302,27194
30434,46223,27098
30358,46143,27009
30279,46080,26946
30182,46002,26877
30081,45901,26784
30000,45817,26695
29934,45764,26626
29864,45712,26547
29800,45655,26449
29767,45622,26367
29756,45620,26311
29737,45614,26244
29713,45592,26157
29695,45580,26083
29674,45583,26026
29634,45563,25949
29579,45515,25844
29523,45471,25745
29465,45435,25654
29387,45373,25541
29294,45288,25413
29204,45215,25308
29112,45149,25212
29004,45061,25089
28898,44961,24949
28814,44886,24832
28742,44832,24727
28668,44772,24606
28613,44721,24489
28584,44700,24408
28557,44688,24342
28516,44654,24253
28470,44611,24152
28428,44584,24068
28384,44563,23990
28330,44523,23892
28282,44480,23797
28240,44457,23729
28183,44428,23660
28105,44368,23565
28030,44304,23471
27962,44254,23392
27884,44196,23295
27803,44120,23170
27739,44057,23054
27687,44021,22962
27623,43979,22860
27550,43914,22737
27492,43858,22630
27447,43824,22551
27395,43786,22470
27344,43740,22383
27318,43713,22332
27315,43712,22328
27317,43711,22341
27334,43715,22368
27386,43757,22448
27470,43842,22585
27577,43937,22753
27717,44047,22959
27907,44204,23240
28129,44399,23581
28362,44596,23936
28614,44795,24307
28897,45022,24724
29194,45265,25164
29485,45489,25585
29781,45711,26000
30085,45955,26434
30370,46196,26854
30616,46397,27220
30835,46568,27543
31037,46737,27851
31209,46893,28129
31348,47011,28353
31469,47109,28547
31585,47212,28738
31677,47299,28895
31740,47353,28998
31805,47403,29083
31876,47469,29174
31933,47528,29245
31985,47570,29290
32048,47619,29344
32112,47685,29423
32159,47737,29492
32194,47765,29539
32241,47798,29596
32292,47841,29666
32326,47867,29716
32353,47874,29740
32386,47892,29773
32410,47920,29821
32406,47924,29846
32384,47897,29842
32363,47872,29840
32340,47855,29838
32308,47825,29803
32275,47783,29744
32258,47764,29702
32246,47761,29670
32216,47740,29606
32177,47704,29519
32142,47680,29440
32097,47656,29359
32031,47605,29245
31964,47543,29119
31910,47501,29018
31849,47467,28928
31767,47409,28818
31680,47334,28700
31602,47268,28597
31513,47196,28493
31405,47096,28364
31304,46995,28241
31222,46921,28148
31147,46859,28065
31078,46793,27971
31033,46742,27892
31011,46723,27845
30984,46707,27799
30951,46676,27737
30934,46658,27686
30930,46663,27658
30916,46660,27624
30894,46639,27573
30880,46624,27527
30870,46623,27495
30840,46609,27446
30797,46575,27373
30763,46550,27306
30732,46535,27254
30688,46503,27188
30638,46453,27108
30597,46414,27041
30558,46386,26985
30506,46337,26906
30447,46268,26807
30393,46210,26716
30336,46163,26628
30267,46102,26514
30205,46041,26395
30164,46009,26304
30123,45987,26225
30064,45939,26125
30000,45878,26017
29945,45839,25931
29887,45810,25851
29820,45764,25747
29764,45714,25641
29724,45685,25560
29680,45660,25488
29620,45613,25398
29561,45560,25300
29512,45524,25218
29457,45489,25131
29395,45435,25020
29345,45386,24915
29313,45363,24840
29278,45342,24767
29238,45306,24677
29209,45281,24597
29186,45276,24541
29153,45265,24484
29117,45242,24415
29099,45233,24361
29095,45246,24328
29077,45244,24280
29042,45214,24206
29009,45182,24133
28970,45155,24071
28912,45106,23987
28848,45036,23882
28795,44980,23788
28745,44943,23712
28683,44896,23624
28622,44844,23527
28574,44810,23450
28527,44786,23382
28470,44745,23287
28416,44697,23178
28382,44673,23099
28353,44665,23046
28320,44647,22991
28300,44630,22945
28308,44642,22938
28325,44669,22959
28348,44686,22982
28394,44708,23025
28475,44766,23117
28576,44848,23250
28689,44931,23406
28834,45035,23605
29017,45185,23874
29212,45356,24186
29417,45525,24512
29648,45711,24870
29906,45929,25270
30172,46156,25685
30441,46372,26092
30720,46596,26505
31000,46835,26928
31252,47055,27315
31475,47236,27645
31690,47406,27948
31890,47576,28236
32057,47717,28482
32200,47824,28680
32337,47926,28865
32462,48028,29046
32555,48099,29190
32626,48141,29296
32695,48184,29396
32753,48233,29490
32791,48260,29555
32824,48270,29598
32868,48297,29655
32910,48340,29727
32935,48372,29780
32955,48391,29818
32988,48425,29868
33023,48463,29921
33047,48479,29949
33076,48489,29969
33122,48523,30015
33163,48565,30071
33183,48580,30096
33193,48577,30101
33202,48585,30118
33200,48590,30130
33184,48568,30101
33170,48536,30054
33160,48518,30018
33129,48490,29970
33070,48432,29884
33006,48367,29783
32944,48316,29691
32874,48264,29591
32799,48194,29471
32733,48130,29362
32674,48083,29281
32599,48024,29192
32513,47944,29080
32440,47871,28973
32369,47813,28883
32284,47746,28785
32198,47668,28672
32133,47608,28578
32083,47577,28518
32027,47549,28460
31975,47515,28395
31947,47501,28355
31937,47511,28339
31928,47513,28313
31926,47508,28272
31942,47521,28247
31961,47546,28236
31964,47552,28205
31958,47539,28160
31955,47532,28133
31939,47521,28112
31893,47477,28058
31837,47415,27983
31793,47374,27924
31753,47348,27875
31701,47303,27806
31652,47249,27728
31618,47214,27666
31577,47182,27601
31517,47129,27505
31462,47072,27402
31421,47041,27320
31380,47021,27246
31329,46986,27155
31282,46947,27064
31244,46926,26998
31192,46899,26930
31121,46841,26831
31052,46777,26726
30989,46726,26633
30920,46668,26529
30846,46590,26405
30780,46519,26293
30717,46467,26210
30633,46403,26115
30533,46316,25992
30449,46241,25881
30379,46189,25794
30303,46131,25700
30228,46063,25588
30170,46014,25491
30123,45991,25418
30066,45959,25333
30005,45908,25228
29955,45867,25137
29907,45842,25064
29845,45804,24975
29784,45753,24872
29741,45721,24794
29709,45705,24735
29669,45671,24656
29626,45629,24570
29594,45604,24509
29557,45584,24453
29501,45538,24367
29442,45482,24271
29402,45447,24202
29364,45424,24146
29315,45388,24068
29272,45351,23985
29243,45334,23927
29207,45317,23869
29152,45275,23783
29098,45230,23690
29056,45205,23618
29015,45180,23546
28969,45134,23452
28929,45088,23364
28893,45062,23300
28842,45029,23229
28777,44973,23136
28726,44924,23057
28687,44895,23007
28647,44869,22963
28622,44840,22924
28636,44840,22932
28685,44883,23001
28747,44940,23100
28827,45001,23222
28941,45093,23394
29086,45224,23622
29250,45367,23877
29437,45517,24156
29657,45700,24483
29901,45913,24850
30148,46123,25221
30399,46324,25591
30662,46538,25984
30919,46760,26381
31150,46952,26734
31360,47113,27045
31562,47271,27344
31741,47421,27622
31889,47538,27849
32028,47637,28051
32174,47749,28262
32306,47862,28459
32407,47945,28606
32496,48012,28718
32592,48090,28832
32673,48163,28934
32728,48208,28995
32779,48247,29042
32839,48302,29107
32891,48353,29170
32927,48376,29209
32959,48390,29247
32988,48417,29302
32996,48430,29339
32980,48408,29340
32965,48380,29339
32950,48363,29352
32919,48336,29352
32889,48293,29327
32877,48265,29309
32871,48262,29311
32849,48254,29299
32820,48230,29262
32805,48218,29229
32795,48224,29203
32771,48216,29154
32740,48186,29079
32717,48162,29012
32692,48145,28959
32650,48109,28889
32598,48053,28802
32548,48003,28728
32491,47958,28658
32419,47889,28559
32341,47804,28439
32274,47737,28339
32212,47683,28255
32141,47615,28155
32078,47547,28052
32040,47512,27983
32006,47494,27933
31960,47461,27870
31917,47427,27808
31888,47413,27771
31856,47401,27738
31809,47364,27678
31768,47322,27611
31737,47299,27568
31702,47277,27533
31656,47230,27477
31615,47182,27422
31583,47155,27387
31544,47127,27346
31498,47079,27283
31458,47035,27225
31417,47007,27178
31361,46969,27114
31298,46911,27022
31254,46867,26941
31226,46851,26887
31191,46828,26828
31148,46784,26750
31109,46747,26681
31061,46721,26625
30989,46675,26548
30906,46603,26442
30836,46535,26341
30771,46481,26248
30693,46412,26137
30612,46331,26011
30545,46268,25908
30484,46222,25825
30406,46162,25727
30321,46090,25617
30247,46037,25526
30176,45991,25441
30090,45921,25329
30010,45843,25205
29957,45794,25111
29910,45762,25032
29855,45715,24935
29807,45666,24835
29771,45635,24757
29720,45603,24677
29643,45545,24570
29560,45475,24458
29486,45421,24367
29410,45369,24277
29327,45295,24161
29259,45224,24049
29208,45182,23967
29156,45146,23890
29101,45097,23800
29053,45050,23720
29008,45016,23658
28949,44975,23583
28888,44917,23486
28849,44874,23410
28828,44858,23365
28800,44837,23311
28763,44795,23233
28731,44759,23160
28694,44736,23104
28636,44699,23031
28570,44642,22935
28516,44597,22852
28467,44570,22785
28404,44530,22701
28336,44475,22598
28281,44436,22514
28232,44411,22450
28167,44364,22367
28094,44294,22265
28027,44233,22178
27959,44180,22097
27879,44111,21991
27809,44041,21875
27767,44001,21788
27738,43980,21722
27700,43952,21646
27670,43931,21579
27665,43943,21555
27668,43968,21555
27672,43981,21557
27701,44005,21585
27765,44067,21670
27849,44150,21794
27947,44230,21932
28073,44320,22107
28233,44445,22341
28403,44585,22607
28580,44717,22877
28779,44860,23172
28994,45028,23501
29207,45199,23830
29421,45357,24141
29656,45530,24465
29900,45727,24811
30126,45916,25141
30331,46084,25435
30529,46246,25713
30709,46403,25980
30850,46523,26201
30960,46601,26368
31060,46670,26517
31148,46742,26656
31206,46789,26754
31249,46808,26814
31298,46833,26878
31349,46871,26950
31381,46896,26997
31404,46908,27024
31433,46932,27065
31458,46962,27111
31461,46968,27123
31460,46957,27112
31474,46961,27120
31491,46975,27137
31493,46969,27134
31496,46957,27127
31506,46967,27143
31506,46980,27155
31488,46969,27135
31473,46950,27102
31471,46947,27088
31468,46950,27076
31454,46933,27036
31441,46912,26989
31431,46908,26960
31401,46897,26922
31350,46856,26851
31300,46810,26775
31255,46777,26710
31201,46739,26631
31145,46687,26528
31105,46646,26436
31075,46625,26369
31028,46590,26296
30966,46531,26202
30914,46472,26119
30867,46427,26060
30811,46376,25998
30757,46322,25925
30720,46290,25873
30694,46284,25843
30662,46274,25805
30631,46253,25759
30618,46247,25733
30613,46254,25721
30598,46247,25690
30587,46231,25644
30595,46234,25615
30604,46250,25596
30597,46246,25557
30584,46224,25507
30576,46209,25473
30554,46193,25440
30512,46155,25378
30477,46116,25309
30458,46106,25266
30438,46105,25236
30398,46080,25185
30351,46039,25118
30308,46006,25061
30258,45969,25001
30195,45908,24914
30139,45848,24825
30094,45811,24759
30036,45772,24686
29961,45712,24584
29893,45649,24479
29837,45602,24394
29780,45556,24306
29722,45497,24200
29681,45453,24108
29656,45441,24045
29623,45429,23983
29581,45399,23903
29548,45376,23831
29517,45370,23774
29470,45353,23707
29420,45315,23620
29381,45279,23546
29344,45252,23488
29287,45205,23413
29214,45132,23313
29144,45064,23220
29069,45005,23136
28977,44928,23029
28884,44839,22910
28814,44771,22813
28756,44724,22737
28689,44668,22647
28626,44609,22551
28584,44574,22480
28546,44550,22421
28499,44511,22341
28462,44470,22260
28440,44453,22206
28408,44438,22157
28349,44397,22083
28289,44344,22002
28244,44311,21944
28202,44288,21895
28148,44246,21822
28093,44195,21739
28048,44164,21675
27993,44131,21602
27921,44069,21496
27854,44004,21389
27802,43960,21303
27747,43916,21217
27689,43859,21115
27640,43811,21022
27593,43785,20952
27535,43752,20874
27473,43699,20776
27430,43657,20695
27402,43635,20642
27367,43607,20583
27325,43562,20509
27292,43528,20452
27266,43509,20423
27239,43483,20395
27223,43452,20366
27230,43444,20375
27251,43465,20430
27277,43490,20501
27322,43518,20588
27404,43576,20725
27516,43665,20909
27643,43762,21112
27797,43876,21341
27987,44028,21623
28193,44205,21937
28393,44371,22240
28601,44535,22536
28833,44724,22853
29067,44924,23173
29281,45096,23459
29482,45250,23721
29676,45411,23982
29840,45554,24214
29964,45648,24388
30071,45717,24532
30173,45795,24682
30252,45864,24820
30303,45900,24917
30341,45919,24991
30373,45946,25067
30393,45966,25125
30405,45965,25145
30430,45972,25158
30466,46006,25190
30488,46035,25213
30491,46038,25208
30500,46043,25209
30515,46064,25228
30515,46073,25236
30513,46064,25223
30524,46061,25217
30536,46072,25224
30529,46067,25215
30515,46041,25182
30511,46021,25158
30508,46013,25144
30488,45991,25110
30457,45949,25051
30426,45913,24996
30388,45882,24944
30330,45832,24864
30263,45769,24763
30209,45723,24682
30159,45691,24620
30104,45650,24543
30059,45605,24460
30027,45581,24400
29984,45564,24348
29926,45527,24274
29875,45488,24193
29844,45475,24135
29814,45467,24088
29775,45434,24025
29739,45390,23963
29713,45362,23927
29678,45337,23895
29634,45292,23840
29606,45255,23793
29598,45250,23779
29589,45256,23769
29578,45250,23742
29577,45246,23716
29581,45259,23708
29571,45263,23688
29548,45241,23640
29534,45222,23598
29523,45220,23578
29497,45203,23549
29463,45160,23503
29434,45118,23460
29400,45086,23422
29349,45043,23360
29290,44983,23275
29242,44933,23201
29201,44900,23145
29147,44857,23074
29088,44802,22985
29040,44763,22906
28995,44739,22838
28939,44701,22750
28883,44652,22652
28841,44623,22582
28805,44611,22532
28755,44584,22464
28701,44545,22383
28655,44516,22317
28603,44484,22255
28532,44425,22169
28464,44359,22073
28415,44316,21998
28366,44281,21929
28300,44223,21832
28235,44157,21724
28188,44115,21639
28142,44084,21562
28085,44033,21464
28034,43983,21367
27997,43959,21300
27951,43934,21235
27888,43878,21142
27831,43819,21050
27783,43779,20980
27724,43735,20904
27659,43673,20807
27597,43613,20721
27533,43567,20657
27454,43509,20578
27366,43430,20473
27297,43365,20383
27244,43326,20323
27187,43284,20259
27135,43229,20179
27097,43191,20109
27059,43173,20054
27003,43144,19982
26945,43100,19888
26901,43067,19805
26861,43041,19737
26809,42996,19655
26750,42934,19558
26696,42881,19476
26638,42835,19409
26564,42768,19319
26485,42687,19207
26417,42622,19118
26350,42574,19046
26277,42518,18959
26217,42469,18875
26185,42458,18830
26163,42469,18806
26140,42472,18775
26136,42478,18758
26166,42515,18790
26218,42574,18861
26283,42630,18943
26373,42693,19051
26487,42786,19212
26610,42892,19404
26737,42986,19604
26889,43092,19831
27068,43230,20098
27256,43379,20382
27450,43522,20666
27659,43676,20967
27874,43850,21289
28072,44014,21588
28253,44153,21845
28433,44291,22095
28608,44441,22348
28761,44574,22569
28900,44683,22749
29035,44788,22919
29157,44892,23085
29250,44966,23217
29321,45008,23312
29389,45050,23400
29449,45098,23487
29488,45127,23549
29516,45141,23589
29546,45164,23639
29569,45192,23694
29571,45193,23719
29562,45174,23719
29562,45166,23730
29560,45168,23746
29549,45152,23737
29543,45128,23720
29550,45123,23726
29551,45126,23738
29531,45101,23719
29503,45060,23680
29478,45033,23653
29444,45011,23622
29392,44967,23558
29341,44917,23482
29300,44886,23425
29250,44853,23369
29183,44800,23292
29119,44742,23210
29064,44697,23142
29010,44651,23067
28953,44588,22972
28903,44529,22885
28860,44487,22823
28804,44441,22756
28737,44377,22667
28683,44323,22584
28639,44288,22522
28588,44248,22460
28538,44194,22388
28502,44150,22333
28471,44124,22304
28426,44087,22265
28377,44036,22209
28340,43996,22165
28305,43972,22139
28263,43939,22099
28222,43900,22045
28194,43877,22009
28167,43869,21989
28131,43849,21954
28094,43817,21906
28067,43799,21870
28037,43788,21839
27994,43758,21782
27956,43723,21719
27934,43710,21682
27907,43704,21652
27853,43665,21591
27786,43604,21511
27722,43552,21445
27651,43503,21381
27567,43428,21293
27490,43345,21200
27424,43279,21128
27347,43213,21053
27247,43122,20946
27146,43025,20827
27051,42945,20721
26952,42869,20614
26849,42780,20492
26761,42703,20384
26688,42655,20307
26612,42608,20227
26532,42546,20128
26465,42491,20039
26401,42455,19970
26326,42415,19893
26254,42360,19795
26205,42314,19707
26168,42287,19641
26120,42250,19562
26062,42196,19461
26010,42151,19370
25956,42120,19296
25888,42076,19209
25817,42016,19105
25759,41966,19015
25702,41925,18947
25629,41869,18866
25552,41796,18775
25484,41733,18703
25410,41678,18640
25320,41602,18550
25235,41519,18441
25175,41466,18355
25125,41440,18290
25065,41405,18210
25014,41370,18130
24983,41360,18075
24948,41352,18024
24896,41315,17944
24845,41264,17851
24806,41229,17777
24765,41195,17709
24709,41135,17620
24648,41067,17533
24588,41017,17472
24512,40963,17407
24421,40885,17317
24340,40808,17232
24275,40758,17173
24216,40719,17122
24168,40680,17071
24157,40670,17059
24183,40706,17104
24220,40757,17175
24268,40804,17257
24347,40871,17375
24449,40964,17537
24555,41058,17707
24669,41141,17872
24807,41241,18069
24960,41366,18305
25105,41484,18545
25245,41584,18776
25401,41697,19024
25566,41826,19286
25723,41945,19523
25877,42052,19738
26041,42176,19965
26202,42311,20199
26338,42422,20399
26453,42506,20569
26556,42587,20734
26636,42659,20880
26686,42700,20979
26731,42726,21051
26786,42768,21133
26831,42811,21207
26846,42821,21237
26845,42812,21237
26848,42814,21246
26842,42811,21248
26819,42776,21215
26802,42736,21173
26798,42719,21151
26784,42707,21130
26751,42679,21088
26717,42647,21047
26683,42628,21026
26638,42600,20996
26589,42548,20938
26553,42501,20887
26523,42477,20862
26476,42443,20825
26417,42386,20761
26365,42331,20701
26316,42290,20655
26248,42236,20591
26170,42164,20498
26105,42105,20411
26051,42069,20345
25984,42021,20267
25910,41955,20165
25847,41898,20074
25786,41853,19999
25716,41792,19911
25647,41722,19811
25595,41676,19738
25555,41654,19689
25508,41621,19629
25461,41576,19562
25425,41545,19519
25386,41521,19487
25335,41482,19435
25293,41437,19377
25278,41414,19350
25271,41409,19342
25253,41391,19317
25233,41370,19286
25224,41376,19280
25210,41387,19277
25183,41376,19249
25167,41358,19217
25168,41358,19206
25165,41357,19195
25147,41332,19155
25125,41298,19106
25103,41275,19072
25066,41243,19027
25011,41188,18954
24963,41139,18887
24926,41115,18850
24882,41088,18810
24837,41046,18751
24808,41018,18699
24786,41013,18663
24748,41000,18615
24699,40966,18543
24663,40939,18479
24637,40925,18432
24594,40895,18370
24535,40838,18282
24477,40785,18201
24412,40742,18133
24326,40683,18048
24229,40603,17942
24143,40535,17847
24062,40484,17766
23970,40420,17672
23879,40346,17572
23810,40292,17494
23752,40252,17429
23686,40197,17343
23628,40138,17247
23594,40110,17178
23570,40104,17127
23537,40085,17058
23512,40060,16984
23504,40053,16934
23489,40047,16886
23454,40017,16811
23418,39979,16725
23395,39959,16661
23367,39944,16606
23323,39910,16532
23280,39874,16458
23251,39862,16412
23219,39852,16370
23177,39823,16308
23141,39799,16250
23115,39796,16212
23090,39791,16172
23071,39772,16119
23076,39768,16087
23102,39795,16098
23127,39825,16121
23152,39844,16147
23197,39876,16210
23262,39929,16315
23337,39982,16433
23428,40034,16561
23552,40114,16727
23701,40227,16938
23853,40343,17159
24008,40453,17385
24177,40580,17643
24354,40726,17926
24522,40862,18196
24687,40987,18452
24864,41130,18725
25042,41286,19003
25199,41419,19242
25343,41531,19450
25484,41648,19657
25606,41757,19846
25699,41832,19986
25783,41886,20095
25871,41950,20209
25946,42012,20315
25997,42048,20384
26036,42067,20427
26076,42094,20475
26102,42117,20512
26109,42113,20516
26118,42101,20511
26137,42106,20523
26144,42108,20529
26136,42091,20510
26127,42076,20487
26118,42076,20476
26101,42070,20454
26079,42042,20405
26072,42023,20366
26076,42029,20357
26067,42028,20344
26046,42006,20306
26034,41984,20269
26021,41972,20241
25987,41946,20189
25944,41901,20107
25914,41865,20035
25888,41848,19984
25844,41816,19920
25787,41761,19839
25734,41714,19773
25683,41680,19720
25622,41633,19646
25561,41576,19557
25522,41540,19492
25495,41527,19449
25465,41508,19401
25442,41489,19354
25440,41491,19336
25440,41504,19331
25426,41498,19309
25413,41483,19279
25422,41492,19274
25438,41513,19282
25443,41513,19274
25448,41503,19262
25458,41505,19270
25452,41502,19275
25422,41473,19249
25387,41435,19210
25360,41411,19184
25332,41387,19152
25297,41345,19094
25273,41309,19041
25264,41302,19017
25251,41300,18991
25237,41289,18946
25235,41292,18909
25238,41316,18892
25227,41330,18863
25212,41323,18811
25209,41320,18767
25213,41331,18745
25202,41332,18713
25180,41315,18661
25162,41300,18618
25140,41292,18588
25104,41265,18542
25069,41224,18474
25053,41200,18418
25052,41201,18384
25051,41207,18345
25058,41220,18298
25086,41260,18269
25125,41319,18253
25156,41362,18214
25180,41389,18154
25212,41423,18111
25236,41457,18079
25241,41467,18029
25240,41460,17973
25243,41463,17943
25232,41464,17920
25198,41434,17868
25156,41389,17800
25125,41363,17750
25097,41348,17708
25068,41324,17644
25055,41306,17577
25061,41320,17538
25066,41344,17506
25066,41354,17457
25077,41370,17412
25097,41407,17388
25117,41443,17362
25135,41463,17323
25164,41487,17303
25201,41527,17319
25226,41555,17340
25247,41562,17356
25289,41580,17398
25346,41621,17481
25402,41661,17581
25468,41694,17692
25572,41754,17847
25711,41851,18059
25862,41960,18295
26028,42073,18550
26223,42213,18846
26438,42380,19182
26652,42543,19515
26866,42696,19839
27093,42866,20180
27324,43049,20529
27540,43214,20854
27747,43363,21158
27954,43516,21463
28140,43659,21754
28287,43762,21997
28415,43837,22197
28538,43915,22386
28641,43990,22554
28712,44035,22674
28770,44069,22768
28825,44116,22868
28865,44156,22961
28883,44163,23019
28898,44152,23057
28918,44154,23105
28929,44158,23147
28930,44144,23159
28939,44134,23171
28963,44147,23209
28982,44163,23246
28990,44161,23259
28999,44159,23270
29007,44169,23293
28998,44167,23299
28978,44142,23277
28968,44122,23263
28962,44118,23268
28940,44106,23260
28909,44074,23228
28888,44047,23198
28865,44035,23178
28822,44008,23138
28768,43959,23070
28725,43919,23008
28686,43895,22956
28633,43857,22886
28576,43804,22800
28528,43760,22731
28478,43723,22677
28412,43667,22604
28343,43597,22516
28287,43542,22446
28230,43500,22388
28169,43449,22314
28120,43400,22239
28097,43379,22195
28079,43374,22172
28045,43350,22137
28011,43315,22097
27992,43299,22080
27973,43287,22069
27940,43253,22032
27915,43220,21993
27905,43211,21983
27886,43209,21979
27849,43185,21949
27813,43154,21907
27791,43139,21881
27771,43128,21853
27744,43102,21802
27724,43080,21758
27708,43077,21737
27679,43069,21707
27638,43039,21652
27606,43009,21601
27574,42991,21564
27520,42958,21509
27452,42896,21425
27397,42839,21347
27349,42800,21286
27288,42752,21209
27221,42689,21114
27167,42640,21033
27121,42615,20974
27066,42585,20903
27012,42546,20814
26978,42524,20737
26957,42522,20677
26927,42511,20605
26896,42485,20523
26876,42471,20463
26852,42464,20415
26801,42429,20344
26739,42372,20258
26689,42330,20193
26646,42305,20140
26599,42271,20067
26570,42241,19991
26563,42242,19943
26554,42253,19902
26531,42246,19837
26509,42232,19762
26496,42234,19707
26477,42236,19654
26446,42213,19577
26420,42188,19503
26405,42183,19457
26378,42174,19414
26333,42140,19351
26284,42098,19287
26235,42068,19241
26182,42036,19193
26136,41994,19133
26125,41974,19097
26146,41992,19107
26179,42024,19141
26233,42059,19194
26323,42122,19295
26441,42225,19453
26572,42341,19640
26725,42460,19844
26913,42608,20095
27123,42788,20396
27340,42966,20714
27568,43136,21037
27815,43319,21393
28066,43516,21778
28299,43697,22153
28518,43856,22505
28735,44019,22856
28938,44184,23197
29118,44324,23494
29291,44446,23758
29469,44583,24025
29640,44728,24286
29790,44843,24504
29935,44941,24690
30080,45051,24878
30205,45161,25052
30298,45237,25181
30377,45290,25280
30459,45349,25383
30527,45405,25476
30567,45434,25538
30596,45452,25591
30627,45484,25664
30643,45510,25731
30639,45508,25766
30634,45496,25790
30630,45495,25823
30618,45489,25849
30604,45468,25853
30608,45456,25860
30625,45468,25884
30631,45474,25898
30628,45462,25891
30628,45452,25891
30619,45451,25902
30588,45436,25894
30548,45403,25857
30514,45375,25820
30480,45356,25788
30434,45323,25735
30383,45273,25657
30338,45231,25586
30286,45198,25522
30217,45147,25437
30146,45079,25336
30086,45023,25250
30029,44977,25177
29964,44917,25087
29905,44855,24990
29858,44817,24914
29807,44790,24852
29741,44745,24771
29681,44692,24684
29648,44666,24632
29628,44662,24603
29608,44656,24567
29604,44659,24536
29618,44689,24535
29627,44719,24539
29612,44715,24514
29589,44694,24473
29569,44681,24447
29541,44665,24417
29499,44622,24359
29464,44576,24301
29439,44551,24266
29404,44525,24226
29361,44484,24164
29324,44447,24103
29289,44429,24059
29244,44405,24008
29195,44365,23936
29158,44336,23873
29128,44325,23829
29086,44300,23770
29031,44250,23688
28983,44201,23611
28930,44161,23545
28862,44107,23459
28789,44036,23352
28726,43975,23257
28659,43928,23179
28575,43867,23085
28483,43792,22976
28400,43729,22881
28321,43681,22797
28240,43627,22701
28174,43574,22599
28135,43549,22525
28107,43544,22471
28073,43528,22401
28043,43503,22321
28026,43495,22261
28005,43488,22208
27963,43451,22128
27918,43400,22036
27881,43364,21965
27838,43329,21900
27771,43268,21809
27693,43192,21707
27618,43128,21624
27527,43058,21539
27416,42961,21424
27308,42862,21306
27213,42788,21213
27120,42726,21123
27027,42658,21019
26949,42599,20925
26887,42565,20857
26823,42528,20780
26755,42473,20679
26704,42430,20587
26671,42412,20521
26633,42384,20453
26598,42339,20378
26588,42312,20332
26593,42318,20328
26589,42325,20335
26585,42324,20347
26604,42343,20398
26644,42388,20495
26695,42439,20611
26771,42495,20748
26894,42586,20938
27055,42716,21184
27237,42862,21463
27448,43029,21779
27697,43239,22152
27965,43476,22561
28230,43705,22961
28497,43922,23350
28775,44152,23754
29042,44380,24156
29286,44575,24516
29521,44748,24847
29755,44927,25174
29965,45097,25478
30136,45228,25727
30283,45331,25935
30415,45435,26137
30521,45528,26316
30595,45586,26446
30658,45628,26550
30724,45680,26660
30783,45733,26758
30832,45771,26825
30891,45815,26888
30960,45879,26972
31018,45942,27054
31069,45987,27121
31127,46037,27193
31187,46101,27280
31227,46152,27350
31254,46175,27390
31287,46198,27429
31317,46228,27481
31327,46245,27516
31329,46244,27529
31348,46254,27552
31376,46278,27588
31390,46288,27602
31394,46279,27587
31400,46274,27575
31397,46274,27567
31366,46250,27530
31317,46203,27466
31268,46159,27405
31211,46119,27344
31136,46058,27255
31054,45983,27148
30982,45925,27058
30910,45876,26977
30821,45807,26875
30728,45727,26763
30648,45663,26670
30569,45605,26585
30484,45529,26475
30407,45451,26360
30348,45399,26273
30293,45362,26201
30238,45316,26115
30199,45277,26038
30179,45265,25999
30158,45258,25969
30129,45231,25920
30103,45202,25870
30078,45189,25840
30041,45172,25803
29996,45133,25739
29964,45095,25681
29940,45076,25646
29901,45048,25605
29851,45006,25543
29811,44975,25492
29773,44955,25459
29719,44917,25411
29659,44858,25335
29614,44810,25260
29573,44776,25193
29519,44731,25107
29461,44673,25004
29416,44630,24918
29374,44603,24846
29317,44563,24760
29252,44507,24661
29185,44456,24574
29104,44403,24489
29001,44327,24377
28897,44234,24246
28806,44158,24134
28716,44092,24034
28619,44013,23921
28533,43936,23808
28467,43887,23723
28405,43854,23647
28333,43804,23544
28260,43743,23426
28194,43696,23327
28124,43651,23230
28046,43584,23106
27976,43513,22983
27920,43463,22890
27857,43416,22805
27779,43350,22700
27704,43280,22595
27638,43232,22514
27564,43183,22433
27481,43113,22328
27409,43046,22225
27347,42997,22142
27281,42946,22054
27219,42888,21953
27176,42850,21872
27141,42838,21815
27090,42819,21747
27032,42783,21663
26989,42754,21589
26951,42737,21528
26895,42701,21451
26830,42643,21354
26773,42588,21266
26715,42541,21191
26638,42475,21097
26555,42391,20985
26484,42322,20892
26421,42275,20822
26352,42224,20741
26289,42169,20654
26247,42139,20594
26210,42122,20549
26163,42089,20484
26122,42053,20408
26104,42046,20363
26100,42062,20347
26101,42075,20339
26133,42095,20365
26204,42153,20456
26298,42235,20597
26405,42316,20758
26538,42410,20954
26705,42543,21211
26886,42699,21508
27072,42851,21815
27287,43019,22153
27532,43222,22541
27789,43439,22952
28053,43648,23358
28335,43867,23777
28633,44114,24217
28918,44358,24634
29187,44583,25009
29454,44801,25367
29705,45015,25717
29915,45197,26024
30092,45339,26273
30257,45470,26496
30409,45598,26712
30534,45699,26892
30640,45766,27031
30736,45824,27159
30814,45880,27284
30861,45911,27377
30887,45920,27441
30914,45937,27509
30938,45968,27585
30954,45989,27637
30974,45997,27667
31011,46022,27711
31052,46062,27768
31085,46088,27807
31123,46110,27836
31170,46152,27886
31202,46196,27937
31206,46210,27954
31197,46201,27947
31189,46195,27950
31166,46182,27946
31116,46133,27902
31055,46067,27842
30993,46010,27795
30910,45944,27739
30797,45845,27647
30671,45729,27536
30543,45624,27430
30398,45507,27306
30232,45361,27144
30070,45217,26975
29922,45100,26823
29783,44995,26671
29664,44891,26513
29583,44816,26381
29537,44785,26289
29502,44768,26208
29480,44752,26127
29487,44755,26068
29507,44784,26035
29516,44809,25999
29523,44825,25953
29549,44855,25927
29583,44902,25926
29605,44931,25916
29619,44938,25888
29636,44952,25874
29647,44979,25878
29639,44989,25863
29624,44980,25828
29621,44981,25809
29619,44988,25798
29602,44972,25760
29583,44942,25705
29576,44932,25673
29566,44937,25653
29544,44926,25612
29525,44905,25561
29516,44898,25529
29492,44889,25495
29440,44853,25428
29381,44808,25342
29332,44783,25266
29284,44760,25187
29232,44717,25084
29192,44677,24986
29168,44666,24919
29144,44664,24858
29119,44649,24781
29103,44640,24709
29096,44654,24656
29086,44671,24597
29077,44670,24517
29082,44670,24444
29091,44683,24393
29078,44681,24338
29049,44654,24262
29021,44623,24194
28985,44600,24146
28923,44558,24081
28843,44488,23988
28772,44418,23899
28711,44364,23821
28643,44304,23725
28574,44236,23612
28523,44187,23518
28485,44159,23446
28440,44127,23366
28393,44087,23276
28355,44063,23208
28314,44048,23156
28257,44014,23085
28202,43968,22999
28166,43944,22933
28138,43931,22884
28103,43901,22820
28075,43870,22751
28062,43864,22702
28042,43861,22658
27997,43830,22586
27941,43784,22500
27891,43752,22434
27842,43727,22372
27789,43687,22286
27752,43650,22199
27734,43638,22142
27708,43628,22093
27668,43596,22023
27629,43559,21949
27596,43540,21895
27551,43515,21831
27496,43465,21736
27452,43418,21648
27415,43391,21583
27365,43356,21511
27308,43298,21417
27264,43250,21335
27230,43228,21281
27185,43205,21224
27136,43171,21154
27103,43148,21104
27084,43145,21085
27069,43143,21076
27072,43142,21075
27114,43173,21118
27188,43239,21213
27278,43317,21339
27397,43407,21500
27560,43538,21730
27757,43708,22023
27971,43885,22342
28207,44068,22686
28473,44280,23086
28753,44514,23523
29029,44735,23946
29314,44947,24364
29618,45181,24809
29923,45424,25262
30210,45645,25682
30489,45854,26076
30766,46073,26465
31019,46285,26833
31233,46462,27150
31427,46613,27430
31607,46762,27700
31756,46895,27938
31870,46990,28122
31973,47067,28278
32068,47145,28426
32144,47207,28546
32201,47241,28624
32256,47273,28696
32310,47320,28787
32348,47356,28866
32380,47372,28920
32426,47399,28980
32478,47447,29056
32510,47487,29113
32529,47509,29142
32562,47542,29181
32604,47592,29236
32636,47630,29274
32663,47647,29292
32697,47673,29321
32723,47707,29361
32727,47719,29378
32721,47708,29374
32717,47701,29371
32699,47694,29364
32654,47661,29320
32597,47607,29246
32545,47563,29176
32490,47524,29107
32420,47462,29009
32357,47393,28896
32318,47353,28809
32284,47329,28738
32238,47289,28649
32194,47246,28556
32162,47226,28490
32125,47211,28433
32075,47171,28356
32032,47126,28275
32006,47107,28220
31981,47097,28175
31950,47071,28112
31926,47047,28055
31912,47045,28025
31889,47041,27994
31855,47015,27944
31821,46989,27902
31791,46981,27886
31750,46968,27864
31705,46939,27818
31680,46920,27779
31667,46919,27759
31643,46906,27726
31615,46876,27671
31606,46860,27628
31603,46866,27610
31582,46862,27580
31548,46834,27527
31520,46811,27480
31492,46798,27442
31446,46766,27378
31389,46710,27283
31346,46670,27200
31311,46650,27134
31267,46618,27052
31218,46574,26958
31178,46545,26882
31132,46520,26814
31065,46466,26718
30991,46394,26604
30926,46339,26504
30859,46292,26410
30779,46225,26294
30709,46155,26175
30662,46111,26085
30615,46077,26009
30553,46022,25913
30487,45960,25813
30425,45921,25735
30359,45888,25658
30289,45835,25552
30235,45787,25447
30201,45769,25372
30168,45758,25303
30130,45733,25215
30096,45707,25134
30065,45695,25075
30018,45671,25005
29959,45621,24907
29910,45572,24813
29863,45536,24739
29798,45490,24655
29728,45425,24552
29674,45372,24463
29630,45340,24399
29574,45301,24325
29516,45252,24234
29471,45216,24154
29429,45195,24090
29372,45162,24011
29311,45117,23914
29259,45085,23832
29211,45066,23769
29154,45033,23693
29100,44990,23605
29065,44966,23533
29037,44959,23474
29003,44937,23399
28974,44908,23319
28962,44904,23269
28951,44911,23232
28922,44897,23169
28893,44874,23095
28877,44866,23040
28853,44859,22985
28811,44831,22903
28774,44798,22814
28755,44787,22748
28738,44786,22690
28718,44769,22610
28705,44750,22530
28700,44748,22476
28687,44745,22425
28661,44720,22353
28639,44693,22287
28624,44683,22250
28602,44672,22218
28576,44648,22182
28581,44644,22181
28619,44678,22237
28673,44725,22325
28755,44782,22438
28889,44879,22615
29070,45028,22866
29271,45197,23160
29496,45373,23486
29758,45579,23863
30045,45817,24283
30334,46056,24709
30628,46290,25132
30932,46533,25570
31227,46777,26011
31496,46992,26423
31753,47179,26803
32010,47368,27175
32251,47555,27537
32453,47705,27853
32623,47822,28123
32778,47935,28379
32911,48036,28609
33011,48097,28781
33095,48133,28911
33180,48179,29040
33252,48229,29155
33300,48251,29225
33341,48259,29271
33385,48280,29324
33412,48296,29370
33415,48284,29388
33409,48260,29393
33401,48247,29415
33381,48229,29433
33347,48187,29419
33319,48149,29404
33299,48139,29413
33274,48136,29420
33244,48120,29403
33233,48116,29392
33242,48139,29406
33246,48159,29409
33247,48165,29389
33265,48183,29377
33290,48222,29377
33292,48243,29354
33273,48235,29301
33258,48231,29251
33242,48239,29207
33212,48232,29138
33175,48205,29047
33149,48183,28967
33123,48174,28900
33081,48146,28814
33030,48096,28713
32988,48056,28636
32947,48028,28584
32893,47988,28518
32839,47942,28441
32802,47922,28388
32773,47919,28348
32741,47903,28286
32718,47882,28213
32721,47890,28167
32735,47918,28139
32741,47937,28094
32758,47959,28046
32796,48008,28023
32830,48063,28003
32847,48093,27953
32863,48112,27886
32881,48146,27831
32886,48176,27772
32874,48171,27686
32863,48149,27602
32852,48134,27540
32818,48105,27474
32766,48044,27387
32711,47974,27303
32649,47912,27234
32569,47836,27149
32480,47740,27033
32404,47656,26925
32338,47597,26838
32263,47534,26741
32188,47459,26626
32127,47398,26530
32066,47358,26460
31989,47308,26376
31904,47235,26269
31832,47170,26175
31763,47119,26099
31681,47052,26002
31592,46960,25881
31513,46874,25774
31436,46804,25681
31344,46723,25569
31252,46633,25446
31174,46563,25347
31095,46503,25256
31001,46422,25141
30909,46336,25014
30835,46277,24910
30766,46236,24814
30694,46184,24697
30643,46138,24578
30618,46122,24491
30593,46118,24423
30553,46094,24340
30511,46059,24254
30471,46036,24189
30409,46005,24123
30324,45939,24030
30245,45870,23934
30183,45827,23860
30120,45790,23790
30059,45740,23703
30010,45693,23621
29970,45665,23561
29915,45630,23491
29851,45575,23396
29803,45530,23309
29767,45508,23244
29724,45477,23165
29682,45428,23064
29657,45392,22977
29633,45375,22916
29582,45341,22842
29509,45277,22740
29435,45215,22644
29355,45163,22566
29254,45091,22469
29148,44995,22349
29060,44910,22245
28983,44840,22161
28895,44759,22063
28811,44675,21959
28751,44625,21886
28704,44600,21834
28652,44566,21764
28607,44529,21686
28590,44523,21639
28590,44542,21617
28598,44559,21593
28635,44590,21597
28714,44662,21667
28814,44759,21785
28923,44852,21922
29056,44950,22093
29221,45083,22328
29403,45240,22609
29598,45393,22903
29828,45566,23232
30093,45780,23617
30363,46007,24035
30627,46214,24458
30900,46423,24890
31179,46652,25336
31446,46876,25761
31697,47076,26143
31947,47272,26507
32186,47473,26864
32389,47650,27180
32565,47791,27442
32737,47930,27690
32901,48078,27934
33025,48194,28137
33110,48264,28281
33187,48323,28402
33251,48383,28511
33283,48410,28578
33295,48399,28602
33310,48388,28629
33325,48388,28667
33322,48369,28683
33312,48333,28680
33309,48308,28692
33298,48291,28705
33260,48251,28680
33211,48197,28635
33177,48164,28614
33149,48147,28605
33108,48112,28572
33074,48073,28533
33054,48056,28519
33022,48040,28504
32965,47994,28452
32902,47935,28381
32851,47899,28326
32798,47873,28271
32739,47826,28188
32685,47778,28100
32634,47749,28035
32566,47713,27964
32481,47648,27864
32395,47577,27758
32314,47525,27667
32222,47465,27568
32122,47379,27441
32038,47297,27323
31968,47240,27234
31899,47184,27145
31836,47121,27048
31794,47077,26974
31762,47059,26933
31718,47031,26883
31670,46985,26808
31644,46956,26746
31633,46955,26709
31611,46948,26660
31587,46922,26595
31580,46913,26555
31581,46926,26546
31567,46927,26527
31543,46909,26491
31525,46898,26469
31495,46888,26453
31437,46849,26404
31368,46790,26331
31316,46748,26277
31268,46718,26236
31209,46668,26172
31154,46613,26098
31116,46582,26045
31076,46563,25997
31021,46526,25922
30963,46479,25833
30916,46450,25762
30868,46424,25691
30812,46375,25591
30764,46323,25490
30723,46293,25419
30671,46266,25353
30604,46214,25262
30535,46151,25165
30472,46104,25086
30397,46051,24996
30309,45974,24879
30228,45906,24764
30157,45863,24665
30079,45813,24557
29999,45739,24427
29936,45675,24315
29884,45631,24237
29812,45572,24152
29729,45492,24045
29659,45420,23945
29596,45363,23860
29519,45295,23761
29435,45209,23647
29367,45138,23547
29307,45087,23464
29242,45032,23371
29181,44974,23269
29136,44934,23186
29091,44912,23118
29035,44882,23036
28976,44842,22941
28925,44817,22864
28870,44800,22799
28804,44758,22706
28743,44700,22596
28696,44663,22512
28647,44637,22442
28582,44586,22347
28523,44529,22244
28480,44497,22171
28428,44468,22110
28355,44410,22024
28277,44337,21923
28207,44284,21842
28129,44234,21762
28040,44163,21653
27973,44097,21544
27933,44059,21463
27894,44029,21387
27847,43983,21296
27805,43939,21212
27765,43911,21153
27707,43874,21089
27641,43813,21008
27590,43760,20947
27551,43732,20922
27512,43709,20913
27490,43686,20920
27511,43697,20986
27574,43758,21123
27658,43840,21291
27777,43940,21486
27950,44089,21745
28167,44288,22067
28406,44501,22411
28669,44716,22765
28968,44962,23157
29291,45239,23585
29610,45512,24012
29929,45776,24429
30250,46052,24854
30551,46322,25270
30810,46546,25634
31039,46725,25947
31249,46892,26246
31428,47036,26518
31567,47130,26734
31686,47195,26913
31802,47267,27092
31898,47337,27257
31962,47378,27373
32011,47402,27455
32056,47439,27536
32088,47477,27604
32106,47492,27633
32129,47503,27647
32161,47532,27676
32179,47558,27698
32179,47556,27693
32176,47547,27685
32170,47548,27691
32140,47531,27678
32088,47481,27632
32041,47431,27590
31995,47396,27562
31943,47354,27520
31895,47300,27453
31862,47260,27393
31830,47236,27345
31779,47193,27278
31712,47124,27186
31647,47056,27103
31576,46996,27030
31482,46919,26935
31378,46824,26815
31286,46742,26709
31195,46675,26621
31086,46591,26515
30967,46481,26390
30852,46370,26279
30730,46261,26177
30592,46129,26053
30457,45989,25915
30349,45877,25804
30253,45791,25716
30160,45705,25619
30093,45637,25530
30064,45616,25484
30047,45623,25463
30024,45625,25429
30008,45627,25390
30010,45653,25372
30011,45680,25357
30000,45678,25313
29993,45668,25265
29989,45676,25241
29972,45680,25218
29938,45655,25170
29894,45617,25116
29843,45588,25081
29778,45548,25035
29707,45483,24956
29648,45420,24876
29594,45372,24812
29524,45314,24736
29448,45238,24635
29387,45177,24545
29335,45141,24483
29271,45096,24412
29200,45035,24321
29143,44990,24242
29090,44966,24185
29021,44926,24112
28942,44861,24009
28879,44803,23909
28823,44760,23819
28755,44702,23710
28680,44624,23583
28610,44560,23473
28533,44508,23381
28438,44440,23271
28336,44354,23148
28245,44282,23043
28154,44217,22949
28055,44132,22833
27963,44042,22714
27892,43978,22624
27821,43929,22545
27730,43860,22440
27632,43777,22322
27546,43709,22225
27460,43648,22134
27367,43568,22018
27290,43489,21903
27232,43436,21822
27169,43389,21749
27091,43322,21648
27012,43250,21536
26937,43194,21443
26848,43129,21350
26741,43039,21234
26648,42956,21123
26575,42904,21036
26501,42854,20949
26428,42790,20849
26372,42734,20762
26318,42694,20692
26244,42645,20604
26162,42574,20488
26093,42508,20380
26028,42457,20297
25951,42394,20206
25870,42311,20098
25795,42238,20001
25715,42179,19922
25620,42108,19827
25521,42021,19717
25435,41951,19629
25357,41902,19562
25275,41843,19481
25205,41776,19395
25167,41739,19348
25153,41735,19345
25154,41737,19359
25186,41754,19403
25260,41814,19514
25356,41908,19675
25456,41999,19847
25575,42096,20040
25730,42228,20293
25905,42381,20592
26088,42526,20900
26295,42679,21230
26528,42860,21602
26760,43048,21989
26977,43214,22354
27191,43368,22706
27405,43536,23065
27601,43695,23401
27772,43826,23682
27940,43953,23937
28105,44094,24186
28249,44225,24405
28373,44332,24581
28488,44431,24738
28586,44527,24884
28647,44590,24992
28677,44611,25050
28703,44624,25089
28716,44637,25124
28700,44627,25131
28669,44591,25111
28643,44560,25101
28613,44543,25105
28566,44513,25086
28513,44463,25035
28467,44422,24989
28419,44393,24953
28356,44348,24892
28286,44284,24806
28227,44234,24730
28171,44197,24666
28103,44146,24582
28036,44085,24489
27985,44042,24420
27931,44008,24361
27853,43947,24274
27767,43869,24167
27691,43806,24072
27615,43752,23980
27530,43679,23862
27453,43603,23739
27392,43549,23641
27327,43503,23553
27249,43443,23447
27172,43380,23343
27107,43336,23267
27039,43287,23195
26966,43217,23098
26910,43156,23010
26876,43124,22955
26845,43096,22909
26816,43055,22856
26795,43020,22819
26773,43003,22810
26737,42978,22797
26697,42941,22766
26680,42924,22747
26676,42940,22754
26667,42960,22759
26667,42973,22750
26692,43001,22754
26729,43047,22779
26750,43077,22787
26758,43083,22768
26771,43095,22749
26778,43112,22734
26760,43106,22692
26730,43073,22622
26709,43046,22561
26690,43029,22514
26656,42996,22451
26614,42946,22373
26575,42908,22312
26528,42878,22261
26462,42828,22182
26390,42763,22081
26328,42712,21998
26266,42672,21918
26191,42620,21809
26121,42566,21697
26067,42536,21610
26010,42506,21532
25938,42450,21436
25867,42383,21338
25803,42331,21260
25732,42280,21178
25647,42205,21067
25571,42130,20955
25508,42078,20868
25443,42031,20784
25380,41973,20684
25331,41924,20592
25288,41895,20520
25229,41855,20438
25161,41789,20331
25109,41734,20232
25066,41705,20156
25014,41672,20076
24965,41623,19981
24929,41586,19898
24896,41568,19838
24843,41535,19767
24775,41480,19674
24713,41432,19591
24652,41398,19519
24580,41351,19426
24509,41288,19320
24458,41241,19239
24422,41215,19178
24385,41183,19104
24352,41148,19026
24339,41138,18979
24333,41147,18953
24316,41144,18916
24307,41137,18883
24325,41154,18894
24353,41189,18942
24385,41218,19002
24447,41260,19093
24554,41344,19250
24691,41457,19455
24845,41573,19677
25028,41706,19931
25246,41883,20241
25479,42083,20586
25718,42277,20935
25978,42479,21297
26258,42709,21688
26542,42949,22087
26823,43172,22469
27105,43394,22850
27378,43624,23238
27623,43835,23593
27838,44007,23893
28040,44167,24169
28222,44325,24434
28368,44451,24654
28483,44537,24816
28592,44614,24956
28692,44695,25090
28761,44751,25188
28804,44774,25241
28844,44794,25283
28871,44821,25326
28870,44826,25340
28851,44804,25321
28838,44784,25305
28827,44778,25301
28804,44760,25275
28780,44729,25227
28767,44712,25194
28751,44701,25169
28712,44665,25115
28663,44609,25042
28623,44567,24986
28583,44534,24935
28530,44483,24859
28486,44430,24774
28458,44401,24712
28423,44382,24656
28367,44343,24580
28307,44297,24496
28260,44273,24433
28211,44255,24373
28153,44216,24288
28110,44181,24206
28085,44174,24151
28059,44174,24102
28028,44156,24037
28008,44137,23977
27996,44134,23938
27975,44128,23895
27946,44102,23835
27931,44084,23789
27926,44085,23769
27915,44082,23748
27909,44073,23716
27929,44084,23708
27968,44125,23739
27995,44159,23765
28011,44173,23767
28035,44189,23773
28059,44214,23793
28062,44218,23792
28054,44200,23765
28057,44193,23745
28066,44202,23735
28063,44198,23704
28056,44180,23658
28059,44179,23631
28059,44193,23619
28042,44191,23587
28021,44174,23535
28010,44173,23493
27992,44177,23456
27953,44154,23398
27912,44114,23329
27884,44089,23282
27855,44072,23245
27812,44036,23186
27774,43994,23118
27749,43973,23069
27717,43953,23018
27669,43911,22936
27623,43860,22842
27587,43828,22767
27547,43800,22696
27498,43753,22603
27455,43710,22513
27424,43691,22452
27387,43672,22391
27343,43633,22309
27302,43591,22229
27256,43555,22168
27185,43501,22093
27097,43417,21991
27019,43335,21892
26949,43273,21810
26871,43208,21720
26797,43136,21616
26746,43084,21527
26709,43053,21459
26660,43015,21378
26606,42966,21282
26564,42936,21205
26524,42920,21147
26467,42889,21075
26401,42839,20983
26346,42801,20904
26297,42777,20838
26242,42738,20756
26195,42691,20668
26177,42671,20616
26181,42674,20603
26192,42673,20603
26228,42686,20635
26304,42742,20735
26400,42828,20885
26504,42913,21048
26631,43010,21236
26794,43152,21485
26982,43323,21781
27187,43494,22094
27428,43680,22443
27706,43903,22849
27994,44142,23285
28280,44366,23713
28569,44586,24141
28862,44820,24586
29138,45046,25017
29394,45246,25405
29645,45436,25771
29886,45629,26127
30098,45799,26445
30281,45935,26710
30454,46061,26953
30612,46193,27188
30736,46299,27378
30831,46366,27515
30921,46426,27635
31006,46492,27750
31066,46541,27828
31108,46567,27864
31153,46602,27900
31199,46654,27945
31230,46691,27970
31253,46708,27979
31280,46731,28001
31302,46759,28031
31306,46763,28038
31302,46748,28023
31302,46743,28020
31295,46739,28020
31270,46706,27993
31239,46657,27951
31210,46624,27929
31165,46591,27912
31092,46522,27858
31009,46429,27777
30937,46353,27704
30866,46290,27627
30792,46220,27522
30735,46163,27415
30699,46139,27336
30664,46127,27269
30624,46103,27189
30591,46079,27109
30571,46078,27052
30546,46080,26996
30514,46064,26919
30497,46056,26851
30497,46074,26813
30494,46093,26778
30487,46097,26729
30484,46104,26689
30477,46120,26670
30450,46114,26638
30411,46075,26579
30384,46037,26529
30367,46013,26501
30340,45983,26465
30310,45938,26415
30293,45902,26379
30278,45881,26363
30244,45850,26336
30201,45807,26293
30170,45781,26260
30145,45776,26239
30113,45760,26202
30086,45732,26153
30080,45721,26124
30082,45727,26106
30071,45716,26063
30049,45692,26002
30026,45683,25956
29992,45677,25913
29937,45643,25838
29884,45595,25750
29851,45568,25684
29817,45552,25628
29761,45515,25551
29701,45468,25465
29656,45440,25405
29612,45417,25348
29561,45375,25262
29523,45341,25170
29506,45339,25103
29489,45344,25044
29465,45331,24970
29445,45311,24898
29427,45303,24847
29391,45283,24786
29339,45232,24690
29294,45180,24595
29256,45145,24521
29202,45102,24437
29139,45043,24332
29086,44994,24238
29035,44964,24165
28963,44922,24081
28879,44858,23973
28810,44801,23874
28756,44762,23793
28699,44717,23702
28645,44663,23601
28608,44624,23520
28573,44602,23457
28523,44567,23378
28472,44521,23284
28437,44495,23212
28415,44489,23166
28401,44479,23127
28409,44476,23111
28455,44511,23157
28526,44577,23255
28608,44645,23372
28718,44726,23522
28873,44850,23744
29058,45004,24024
29263,45164,24331
29506,45344,24684
29788,45565,25107
30083,45808,25569
30378,46044,26027
30686,46283,26486
31010,46547,26967
31331,46817,27444
31639,47063,27889
31945,47301,28318
32244,47551,28744
32512,47787,29130
32743,47982,29453
32952,48149,29735
33136,48300,29993
33280,48417,30204
33390,48492,30355
33491,48553,30483
33581,48618,30608
33643,48662,30707
33689,48681,30771
33735,48701,30830
33772,48734,30893
33782,48750,30928
33780,48744,30932
33787,48748,30943
33798,48768,30966
33796,48775,30971
33792,48766,30958
33801,48768,30964
33809,48779,30989
33798,48769,30997
33781,48741,30986
33767,48720,30982
33741,48700,30972
33694,48656,30926
33649,48606,30864
33619,48581,30825
33588,48571,30793
33536,48537,30726
33477,48490,30638
33427,48465,30570
33375,48447,30504
33313,48408,30409
33261,48367,30306
33230,48349,30225
33197,48337,30149
33149,48301,30048
33099,48254,29943
33051,48220,29863
32988,48175,29779
32904,48096,29662
32821,48006,29544
32744,47934,29449
32660,47862,29356
32576,47777,29256
32507,47707,29175
32450,47665,29121
32384,47621,29065
32315,47561,28999
32267,47519,28955
32234,47505,28936
32200,47491,28906
32169,47469,28859
32159,47466,28831
32160,47486,28827
32152,47496,28813
32141,47487,28782
32138,47482,28761
32128,47479,28750
32089,47447,28711
32031,47388,28641
31974,47336,28578
31909,47287,28515
31822,47211,28419
31734,47120,28304
31667,47058,28211
31608,47018,28134
31543,46967,28037
31488,46917,27939
31454,46895,27871
31416,46885,27812
31361,46853,27728
31301,46806,27631
31250,46776,27552
31195,46749,27474
31129,46694,27363
31068,46630,27244
31010,46583,27149
30932,46529,27054
30830,46444,26933
30720,46344,26805
30606,46252,26690
30482,46150,26567
30352,46029,26421
30238,45914,26283
30140,45825,26172
30039,45739,26058
29942,45647,25932
29863,45576,25820
29795,45533,25729
29723,45491,25628
29655,45438,25511
29609,45404,25410
29575,45394,25335
29530,45375,25255
29479,45339,25162
29436,45313,25087
29393,45298,25036
29340,45266,24980
29298,45219,24927
29282,45193,24916
29288,45195,24955
29307,45202,25020
29353,45222,25124
29441,45288,25300
29564,45394,25542
29710,45510,25816
29897,45650,26130
30141,45847,26513
30420,46088,26944
30712,46335,27382
31022,46589,27830
31351,46870,28309
31675,47155,28791
31982,47411,29240
32284,47653,29670
32576,47897,30098
32835,48122,30497
33056,48301,30836
33251,48451,31130
33423,48595,31402
33552,48710,31624
33640,48777,31775
33713,48824,31889
33774,48873,31992
33806,48900,32064
33815,48895,32096
33822,48890,32117
33822,48896,32144
33797,48883,32146
33760,48842,32117
33736,48807,32093
33715,48790,32086
33679,48761,32064
33640,48718,32022
33615,48690,31995
33595,48678,31986
33558,48652,31958
33515,48614,31905
33486,48593,31861
33459,48581,31828
33420,48552,31774
33380,48513,31706
33349,48491,31658
33308,48476,31617
33242,48433,31541
33167,48371,31439
33099,48323,31350
33025,48281,31264
32937,48217,31151
32859,48147,31030
32803,48103,30934
32746,48076,30849
32672,48032,30742
32593,47977,30624
32523,47938,30525
32448,47898,30431
32364,47832,30319
32294,47766,30214
32246,47730,30142
32205,47706,30077
32168,47670,29998
32147,47638,29930
32138,47631,29892
32116,47620,29849
32079,47587,29785
32051,47558,29729
32029,47548,29699
31994,47534,29665
31957,47502,29611
31938,47478,29563
31927,47471,29532
31897,47452,29490
31851,47416,29428
31812,47391,29374
31774,47381,29331
31723,47356,29270
31671,47311,29189
31634,47278,29126
31600,47260,29080
31551,47228,29014
31495,47181,28928
31436,47142,28853
31365,47102,28779
31275,47034,28672
31186,46951,28542
31116,46889,28434
31051,46842,28340
30965,46774,28224
30873,46693,28093
30794,46632,27984
30718,46579,27882
30632,46506,27755
30551,46423,27623
30482,46355,27517
30404,46287,27417
30310,46198,27294
30216,46103,27164
30131,46033,27054
30048,45972,26947
29963,45899,26820
29897,45841,26706
29852,45819,26629
29803,45806,26559
29747,45779,26473
29700,45754,26393
29658,45739,26329
29599,45708,26246
29532,45654,26132
29481,45610,26026
29439,45588,25945
29382,45556,25857
29316,45505,25756
29262,45463,25671
29211,45437,25605
29144,45396,25526
29077,45340,25430
29036,45308,25356
29011,45303,25311
28988,45299,25266
28983,45301,25231
29008,45336,25244
29056,45399,25306
29121,45468,25390
29214,45544,25506
29347,45656,25692
29509,45799,25938
29690,45945,26207
29906,46107,26509
30164,46310,26878
30440,46538,27296
30714,46756,27719
31001,46974,28153
31309,47218,28620
31608,47466,29087
31880,47684,29512
32142,47888,29911
32400,48101,30306
32638,48306,30673
32849,48477,30979
33039,48627,31247
33209,48775,31503
33340,48894,31715
33433,48963,31861
33508,49009,31974
33562,49049,32076
33580,49062,32139
33577,49038,32155
33577,49011,32163
33574,48997,32185
33547,48970,32185
33502,48915,32148
33459,48864,32106
33411,48823,32071
33348,48768,32016
33281,48698,31936
33227,48646,31867
33181,48617,31815
33127,48583,31758
33078,48543,31696
33042,48519,31652
33000,48504,31621
32940,48470,31571
32873,48416,31499
32809,48368,31431
32732,48320,31363
32640,48248,31260
32553,48163,31135
32486,48099,31027
32420,48049,30926
32340,47978,30800
32263,47899,30665
32200,47839,30553
32126,47777,30447
32027,47683,30315
31923,47574,30174
31826,47482,30053
31724,47397,29940
31610,47297,29807
31506,47203,29683
31421,47140,29593
31341,47086,29510
31266,47025,29413
31210,46975,29327
31168,46951,29271
31123,46927,29215
31078,46889,29141
31054,46863,29081
31044,46863,29051
31026,46862,29018
31007,46845,28970
30993,46832,28933
30970,46827,28909
30920,46800,28866
30855,46747,28793
30796,46698,28725
30737,46659,28666
30663,46605,28581
30584,46534,28470
30518,46476,28371
30455,46430,28287
30378,46365,28181
30293,46277,28052
30217,46199,27943
30137,46130,27845
30038,46040,27716
29934,45935,27567
29848,45850,27438
29765,45784,27322
29671,45706,27187
29587,45627,27049
29520,45569,26938
29446,45515,26836
29355,45440,26711
29264,45356,26578
29182,45291,26466
29097,45233,26365
29000,45155,26246
28913,45078,26128
28845,45029,26040
28771,44985,25952
28686,44921,25836
28607,44852,25718
28533,44796,25622
28449,44738,25519
28356,44659,25390
28275,44586,25271
28211,44539,25179
28136,44485,25077
28053,44411,24952
27981,44347,24838
27917,44300,24743
27846,44247,24640
27774,44181,24523
27715,44128,24425
27658,44091,24348
27582,44040,24253
27494,43966,24134
27411,43898,24027
27332,43843,23940
27245,43774,23844
27167,43699,23746
27123,43655,23689
27104,43648,23682
27098,43653,23697
27122,43676,23743
27191,43740,23849
27285,43828,24004
27389,43910,24178
27528,44007,24387
27719,44152,24662
27933,44330,24986
28150,44504,25318
28381,44680,25663
28636,44884,26045
28887,45094,26435
29121,45280,26796
29352,45456,27139
29585,45644,27488
29797,45821,27815
29978,45960,28092
30135,46077,28333
30271,46191,28555
30367,46277,28733
30425,46316,28850
30476,46344,28943
30524,46385,29032
30552,46417,29096
30569,46430,29127
30594,46442,29153
30619,46467,29190
30625,46482,29210
30621,46477,29201
30626,46479,29196
30633,46491,29201
30625,46486,29187
30615,46464,29152
30619,46457,29131
30624,46470,29129
30608,46464,29112
30578,46430,29072
30550,46399,29036
30516,46375,29001
30465,46334,28934
30410,46280,28845
30365,46246,28776
30324,46227,28721
30274,46191,28643
30223,46146,28550
30181,46122,28475
30128,46100,28402
30052,46045,28297
29973,45973,28173
29906,45919,28068
29836,45869,27972
29752,45799,27857
29674,45725,27747
29613,45675,27667
29548,45626,27592
29468,45551,27497
29395,45477,27406
29341,45431,27344
29291,45395,27288
29245,45347,27214
29218,45314,27154
29211,45313,27131
29199,45315,27107
29180,45299,27061
29175,45287,27023
29178,45290,27006
29166,45279,26977
29143,45245,26923
29134,45222,26879
29132,45220,26858
29111,45209,26825
29074,45179,26770
29038,45156,26724
28999,45140,26688
28945,45103,26624
28884,45045,26532
28833,44996,26451
28787,44963,26380
28730,44919,26292
28678,44871,26196
28643,44847,26127
28611,44837,26077
28561,44807,26000
28507,44762,25902
28465,44732,25820
28421,44707,25749
28362,44662,25658
28306,44610,25562
28263,44577,25486
28212,44549,25415
28142,44495,25317
28068,44425,25201
27999,44365,25100
27921,44300,25001
27829,44209,24880
27742,44115,24758
27668,44043,24664
27586,43974,24575
27490,43886,24466
27396,43799,24355
27306,43730,24257
27208,43661,24148
27105,43573,24012
27023,43500,23887
26962,43462,23794
26902,43429,23701
26850,43388,23593
26824,43365,23504
26812,43364,23445
26783,43349,23373
26735,43309,23273
26693,43272,23185
26654,43249,23126
26609,43217,23069
26574,43181,23018
26571,43173,23014
26597,43201,23060
26637,43238,23124
26704,43288,23217
26813,43379,23373
26955,43506,23582
27114,43640,23808
27300,43786,24060
27528,43975,24373
27778,44196,24731
28031,44409,25090
28296,44620,25453
28576,44851,25842
28843,45080,26227
29080,45274,26568
29309,45451,26883
29541,45634,27198
29755,45805,27493
29936,45936,27737
30094,46044,27944
30237,46156,28143
30352,46252,28310
30438,46312,28422
30517,46363,28510
30590,46427,28599
30645,46483,28670
30685,46514,28711
30728,46543,28750
30772,46585,28804
30794,46610,28844
30794,46605,28849
30792,46597,28850
30785,46595,28858
30762,46579,28845
30740,46544,28807
30734,46521,28783
30728,46517,28778
30705,46503,28756
30675,46474,28706
30658,46458,28664
30641,46452,28635
30603,46426,28584
30551,46380,28505
30509,46345,28430
30473,46324,28364
30426,46288,28274
30377,46243,28172
30346,46222,28100
30320,46215,28044
30279,46186,27957
30232,46139,27853
30193,46106,27771
30142,46074,27700
30074,46014,27603
30013,45943,27496
29972,45894,27416
29934,45861,27353
29886,45816,27279
29844,45771,27207
29816,45751,27165
29785,45736,27130
29743,45700,27076
29714,45667,27027
29702,45661,27001
29688,45657,26979
29670,45631,26945
29662,45606,26919
29660,45599,26912
29647,45588,26892
29625,45556,26843
29608,45529,26796
29586,45515,26762
29543,45486,26709
29487,45433,26629
29438,45386,26557
29394,45359,26506
29336,45323,26442
29271,45269,26354
29218,45226,26276
29174,45201,26215
29121,45170,26137
29066,45126,26039
29023,45099,25958
28985,45087,25893
28935,45054,25809
28879,45002,25706
28829,44962,25621
28778,44925,25546
28706,44858,25441
28627,44772,25317
28560,44703,25216
28486,44641,25124
28395,44562,25009
28308,44482,24890
28244,44432,24801
28186,44396,24725
28119,44345,24628
28055,44287,24525
28001,44246,24445
27939,44208,24364
27862,44153,24259
27794,44094,24148
27740,44054,24056
27684,44015,23963
27619,43959,23854
27561,43907,23755
27507,43874,23681
27439,43831,23596
27364,43761,23485
27299,43692,23379
27241,43641,23296
27177,43588,23215
27116,43528,23128
27082,43490,23074
27070,43483,23071
27068,43485,23092
27089,43494,23129
27152,43541,23215
27252,43634,23363
27371,43741,23540
27517,43856,23739
27706,44004,23992
27928,44189,24303
28156,44378,24631
28393,44565,24970
28651,44777,25346
28908,45000,25743
29139,45196,26109
29359,45366,26439
29582,45538,26765
29793,45706,27078
29976,45843,27343
30147,45962,27572
30317,46092,27800
30457,46212,28012
30550,46287,28170
30621,46331,28288
30692,46378,28404
30750,46420,28508
30788,46436,28575
30828,46450,28630
30881,46491,28705
30925,46537,28773
30952,46563,28812
30971,46581,28840
30984,46609,28876
30980,46631,28902
30963,46630,28897
30970,46629,28897
31000,46651,28925
31017,46668,28949
31024,46666,28948
31038,46667,28948
31051,46679,28960
31043,46676,28954
31023,46647,28917
31009,46622,28880
30996,46611,28856
30965,46587,28813
30922,46545,28745
30884,46511,28683
30841,46484,28627
30777,46434,28543
30703,46366,28429
30636,46307,28321
30565,46256,28224
30478,46186,28114
30386,46106,27994
30307,46043,27896
30226,45989,27813
30131,45915,27710
30040,45833,27595
29977,45779,27506
29926,45745,27438
29875,45708,27366
29846,45684,27303
29845,45695,27275
29844,45720,27259
29829,45725,27222
29817,45719,27182
29817,45728,27165
29816,45740,27152
29805,45729,27116
29798,45712,27078
29799,45710,27062
29786,45702,27038
29759,45671,26986
29738,45638,26931
29719,45617,26886
29687,45588,26829
29646,45541,26751
29618,45506,26685
29598,45496,26646
29561,45480,26595
29513,45447,26519
29471,45417,26447
29428,45395,26386
29372,45357,26303
29310,45299,26198
29256,45251,26103
29200,45217,26023
29130,45165,25928
29055,45091,25817
28988,45025,25718
28919,44970,25630
28838,44902,25524
28758,44827,25408
28692,44776,25317
28630,44743,25245
28562,44697,25158
28501,44643,25065
28453,44608,24995
28398,44577,24928
28324,44521,24828
28252,44455,24716
28193,44412,24628
28133,44378,24550
28065,44321,24452
28001,44254,24350
27950,44208,24274
27890,44167,24201
27813,44104,24102
27739,44037,23997
27678,43991,23910
27618,43954,23819
27557,43902,23705
27508,43855,23600
27472,43834,23531
27427,43813,23470
27379,43778,23403
27350,43757,23361
27341,43763,23360
27334,43772,23377
27336,43774,23404
27377,43806,23475
27459,43882,23604
27564,43977,23767
27698,44081,23958
27871,44219,24206
28073,44393,24513
28284,44576,24841
28515,44758,25175
28773,44961,25537
29042,45184,25917
29309,45397,26282
29583,45601,26629
29867,45820,26986
30137,46045,27343
30377,46240,27663
30597,46406,27949
30803,46563,28227
30975,46702,28481
31106,46798,28679
31223,46871,28838
31338,46953,28997
31431,47029,29144
31491,47072,29248
31533,47092,29320
31574,47123,29393
31604,47153,29458
31625,47162,29492
31655,47172,29524
31699,47209,29583
31741,47255,29645
31772,47286,29684
31804,47312,29715
31840,47354,29763
31865,47392,29804
31881,47406,29816
31907,47418,29828
31934,47442,29855
31941,47449,29867
31934,47429,29851
31928,47406,29829
31910,47388,29811
31860,47350,29764
31790,47282,29679
31724,47219,29592
31659,47170,29518
31582,47108,29429
31505,47031,29320
31444,46972,29221
31390,46936,29139
31330,46894,29045
31270,46841,28935
31223,46801,28841
31179,46776,28762
31126,46737,28669
31076,46691,28572
31044,46667,28508
31015,46657,28466
30969,46625,28403
30921,46581,28325
30889,46558,28267
30862,46549,28222
30826,46523,28163
30805,46494,28101
30810,46494,28070
30822,46508,28057
30824,46509,28031
30828,46508,28004
30838,46529,28002
30836,46549,27999
30816,46541,27969
30797,46524,27929
30780,46522,27902
30750,46513,27865
30703,46473,27798
30660,46427,27728
30620,46396,27674
30561,46356,27606
30491,46293,27511
30428,46231,27419
30363,46182,27343
30281,46120,27255
30193,46037,27140
30126,45966,27032
30067,45918,26947
29999,45864,26851
29934,45799,26734
29887,45755,26635
29850,45738,26560
29801,45709,26475
29747,45664,26378
29703,45628,26301
29657,45601,26238
29594,45554,26154
29525,45492,26050
29463,45444,25961
29399,45411,25880
29327,45366,25781
29269,45320,25679
29237,45300,25609
29212,45298,25559
29178,45279,25494
29147,45250,25422
29125,45235,25368
29091,45219,25312
29037,45174,25224
28986,45118,25130
28948,45081,25064
28904,45051,25007
28843,45001,24927
28781,44950,24841
28728,44921,24777
28664,44889,24705
28583,44828,24603
28505,44765,24499
28435,44721,24410
28359,44673,24310
28281,44605,24187
28220,44544,24078
28173,44505,24001
28117,44461,23927
28061,44405,23845
28025,44367,23782
28004,44359,23755
27985,44363,23745
27982,44371,23748
28024,44412,23801
28107,44495,23914
28210,44591,24059
28345,44700,24238
28523,44850,24483
28729,45033,24785
28949,45215,25106
29189,45399,25443
29458,45608,25817
29740,45833,26217
30017,46049,26610
30300,46261,27002
30595,46498,27418
30881,46740,27837
31141,46951,28214
31386,47137,28553
31623,47326,28883
31834,47503,29189
32011,47639,29438
32170,47751,29647
32324,47872,29854
32462,47991,30047
32575,48077,30196
32679,48147,30323
32779,48231,30458
32855,48306,30580
32906,48349,30667
32952,48378,30738
33001,48415,30812
33037,48446,30870
33061,48456,30897
33092,48466,30926
33130,48490,30975
33151,48500,31011
33154,48483,31017
33162,48470,31027
33170,48471,31053
33157,48459,31063
33135,48428,31047
33127,48410,31037
33125,48409,31038
33109,48399,31016
33088,48372,30968
33072,48353,30928
33048,48341,30895
32997,48305,30835
32928,48245,30749
32857,48191,30663
32772,48139,30574
32670,48064,30454
32574,47977,30319
32498,47914,30209
32429,47870,30120
32353,47817,30015
32282,47759,29901
32229,47723,29811
32181,47698,29736
32126,47656,29646
32080,47609,29554
32057,47588,29493
32039,47580,29449
32014,47561,29391
31995,47541,29339
31986,47543,29318
31965,47546,29301
31930,47523,29259
31901,47493,29211
31882,47478,29181
31856,47458,29147
31813,47412,29085
31773,47366,29027
31740,47338,28992
31694,47302,28953
31637,47243,28887
31584,47186,28818
31524,47138,28760
31437,47070,28682
31331,46972,28569
31232,46881,28460
31136,46809,28365
31028,46728,28257
30918,46634,28132
30822,46554,28019
30730,46489,27921
30628,46409,27807
30525,46310,27672
30436,46222,27548
30350,46150,27437
30255,46067,27311
30162,45978,27175
30088,45914,27065
30023,45874,26973
29952,45823,26865
29883,45765,26749
29824,45726,26656
29757,45694,26574
29668,45634,26470
29574,45561,26352
29497,45507,26257
29428,45466,26170
29357,45409,26061
29298,45352,25951
29254,45322,25872
29200,45295,25798
29126,45243,25697
29053,45186,25591
28993,45148,25508
28932,45115,25429
28868,45063,25329
28807,45010,25234
28751,44977,25165
28681,44937,25090
28602,44875,24990
28537,44817,24896
28479,44776,24820
28413,44728,24731
28349,44666,24622
28306,44618,24524
28271,44593,24448
28219,44560,24362
28158,44515,24262
28106,44483,24178
28056,44461,24110
27993,44422,24027
27926,44365,23927
27874,44323,23841
27830,44299,23772
27782,44270,23694
27743,44239,23616
27727,44230,23573
27723,44242,23567
27721,44247,23570
27733,44250,23589
27774,44284,23659
27839,44349,23774
27918,44415,23908
28030,44493,24074
28187,44615,24305
28376,44767,24586
28578,44916,24881
28801,45070,25198
29050,45255,25565
29300,45454,25954
29541,45638,26330
29793,45824,26701
30060,46036,27087
30320,46253,27466
30560,46447,27808
30790,46631,28129
31012,46823,28449
31199,46993,28734
31345,47117,28964
31471,47221,29164
31578,47316,29349
31651,47377,29489
31698,47393,29573
31738,47402,29640
31768,47420,29707
31774,47423,29749
31765,47404,29765
31759,47393,29787
31753,47398,29822
31735,47389,29838
31721,47365,29830
31724,47355,29830
31731,47365,29847
31730,47368,29851
31732,47358,29843
31750,47363,29852
31770,47382,29873
31772,47381,29868
31762,47358,29837
31749,47338,29811
31718,47316,29784
31654,47262,29717
31576,47184,29622
31505,47120,29537
31428,47064,29449
31337,46985,29329
31251,46898,29199
31179,46832,29095
31099,46772,28998
31001,46691,28876
30901,46608,28747
30810,46549,28643
30715,46497,28545
30618,46425,28428
30539,46354,28319
30484,46310,28239
30433,46273,28167
30382,46226,28084
30341,46187,28013
30308,46173,27964
30266,46154,27910
30217,46112,27835
30183,46079,27770
30161,46067,27732
30132,46048,27695
30099,46015,27645
30076,45998,27611
30057,46005,27601
30023,45998,27576
29981,45965,27521
29945,45934,27472
29907,45911,27434
29854,45868,27370
29797,45804,27279
29754,45751,27200
29718,45717,27139
29672,45672,27062
29620,45617,26969
29578,45580,26893
29531,45553,26829
29461,45502,26737
29379,45430,26620
29305,45371,26517
29229,45320,26423
29141,45247,26310
29060,45169,26198
28996,45115,26115
28928,45067,26037
28845,44995,25929
28761,44917,25808
28688,44863,25708
28612,44822,25615
28529,44766,25502
28460,44714,25395
28411,44691,25320
28357,44671,25246
28293,44632,25152
28235,44589,25058
28179,44555,24980
28105,44502,24888
28017,44416,24766
27938,44333,24649
27866,44268,24556
27780,44196,24458
27688,44107,24342
27604,44026,24232
27520,43961,24136
27422,43889,24021
27323,43803,23883
27245,43733,23757
27181,43685,23654
27109,43630,23548
27038,43566,23435
26982,43520,23343
26926,43488,23270
26852,43441,23182
26772,43375,23081
26697,43315,22993
26616,43265,22907
26522,43198,22798
26435,43122,22680
26368,43065,22588
26303,43020,22513
26227,42958,22424
26157,42892,22334
26111,42857,22280
26084,42847,22254
26075,42843,22228
26103,42861,22230
26174,42925,22302
26268,43016,22426
26374,43100,22571
26503,43193,22747
26662,43321,22985
26835,43466,23259
27015,43601,23540
27220,43753,23853
27453,43943,24213
27692,44144,24586
27931,44332,24950
28180,44522,25318
28430,44724,25697
28654,44908,26050
28850,45058,26356
29046,45206,26647
29241,45361,26936
29413,45496,27185
29564,45602,27381
29706,45703,27555
29830,45810,27721
29919,45894,27844
29983,45943,27917
30045,45987,27977
30100,46036,28036
30134,46063,28065
30151,46063,28066
30167,46063,28075
30172,46063,28092
30152,46039,28079
30120,45996,28043
30094,45967,28017
30062,45946,27996
30014,45906,27951
29971,45858,27896
29947,45832,27866
29922,45818,27846
29877,45779,27797
29825,45726,27729
29783,45695,27674
29743,45679,27621
29698,45648,27543
29660,45619,27464
29636,45614,27411
29605,45611,27360
29556,45580,27280
29500,45536,27190
29444,45505,27114
29382,45468,27032
29314,45403,26925
29257,45339,26823
29212,45299,26747
29159,45260,26671
29103,45211,26583
29065,45175,26513
29038,45162,26470
29001,45140,26420
28954,45098,26351
28920,45068,26295
28893,45062,26265
28861,45049,26230
28836,45024,26183
28831,45015,26156
28833,45025,26150
28820,45023,26130
28800,45004,26090
28786,44992,26062
28769,44984,26041
28735,44953,25994
28695,44904,25924
28667,44869,25867
28640,44847,25821
28602,44813,25757
28562,44769,25687
28529,44744,25638
28485,44727,25595
28416,44684,25524
28345,44627,25434
28291,44589,25361
28240,44559,25296
28178,44509,25208
28124,44455,25117
28085,44425,25050
28037,44396,24983
27973,44340,24889
27908,44273,24785
27847,44222,24698
27779,44170,24605
27700,44098,24483
27632,44032,24366
27582,43996,24280
27528,43962,24196
27465,43910,24094
27407,43861,24002
27346,43825,23930
27265,43775,23843
27172,43699,23726
27093,43629,23615
27021,43577,23524
26936,43514,23423
26845,43430,23302
26763,43349,23190
26681,43280,23089
26585,43201,22975
26490,43113,22845
26415,43047,22732
26352,43003,22637
26281,42949,22529
26210,42885,22409
26153,42837,22312
26094,42798,22234
26018,42739,22137
25940,42668,22024
25877,42620,21932
25818,42588,21860
25757,42544,21777
25713,42506,21700
25698,42506,21662
25695,42527,21656
25693,42538,21655
25709,42551,21674
25760,42597,21751
25841,42672,21876
25947,42753,22021
26092,42854,22210
26274,42999,22468
26475,43168,22769
26689,43337,23082
26922,43516,23418
27168,43714,23787
27409,43909,24160
27645,44083,24516
27891,44261,24880
28140,44459,25263
28370,44646,25628
28583,44801,25950
28792,44948,26254
28983,45096,26546
29142,45220,26795
29281,45316,26990
29417,45413,27169
29541,45518,27343
29635,45604,27481
29706,45664,27576
29770,45722,27661
29818,45781,27737
29835,45805,27774
29836,45796,27773
29836,45790,27771
29829,45791,27773
29800,45773,27749
29766,45739,27709
29746,45719,27689
29725,45706,27678
29689,45669,27639
29652,45618,27584
29629,45588,27550
29606,45571,27522
29569,45541,27466
29535,45509,27399
29513,45500,27355
29481,45492,27312
29423,45451,27237
29356,45391,27142
29298,45347,27060
29236,45307,26978
29164,45245,26870
29098,45179,26759
29047,45135,26668
28985,45089,26571
28906,45020,26446
28833,44953,26323
28769,44907,26224
28703,44862,26128
28636,44806,26019
28592,44768,25930
28568,44762,25877
28538,44755,25827
28506,44732,25765
28490,44720,25719
28479,44723,25695
28454,44715,25662
28424,44688,25610
28406,44669,25576
28395,44666,25563
28370,44647,25535
28341,44611,25487
28325,44589,25453
28307,44581,25433
28271,44556,25391
28229,44515,25326
28200,44488,25275
28173,44470,25235
28128,44432,25173
28079,44380,25097
28034,44344,25038
27975,44313,24982
27891,44251,24897
27806,44173,24794
27739,44114,24710
27675,44069,24634
27603,44012,24536
27538,43956,24435
27485,43922,24357
27422,43888,24279
27345,43829,24172
27273,43762,24054
27209,43712,23952
27138,43663,23846
27061,43596,23716
26995,43530,23589
26941,43486,23493
26877,43443,23400
26806,43384,23289
26747,43330,23187
26696,43292,23107
26640,43248,23024
26587,43194,22924
26555,43153,22837
26533,43136,22776
26498,43115,22708
26455,43081,22622
26418,43053,22544
26378,43036,22481
26319,43002,22400
26252,42947,22296
26198,42902,22202
26153,42877,22128
26100,42841,22043
26040,42785,21949
25991,42740,21880
25946,42710,21827
25887,42660,21746
25818,42591,21641
25758,42539,21552
25699,42502,21477
25634,42453,21389
25585,42409,21309
25573,42407,21280
25583,42437,21291
25604,42469,21312
25654,42514,21366
25747,42602,21491
25867,42715,21668
26005,42826,21865
26181,42954,22106
26398,43126,22414
26640,43325,22767
26899,43525,23132
27182,43741,23525
27487,43991,23963
27789,44246,24411
28078,44480,24839
28367,44708,25268
28652,44940,25701
28914,45151,26101
29154,45325,26448
29388,45491,26770
29608,45663,27082
29790,45808,27349
29937,45911,27557
30066,46000,27738
30170,46083,27902
30238,46137,28024
30287,46164,28105
30332,46196,28181
30368,46237,28258
30383,46259,28308
30386,46258,28330
30389,46263,28357
30387,46277,28389
30373,46272,28392
30360,46252,28372
30367,46252,28369
30380,46267,28382
30381,46269,28377
30382,46264,28361
30394,46278,28364
30397,46300,28369
30381,46296,28340
30361,46278,28291
30349,46273,28258
30332,46272,28223
30297,46245,28156
30259,46204,28075
30222,46173,28016
30167,46136,27957
30086,46069,27868
29999,45988,27763
29918,45921,27668
29830,45853,27565
29735,45764,27426
29651,45680,27285
29581,45623,27172
29508,45569,27060
29434,45501,26934
29375,45446,26824
29328,45416,26742
29273,45384,26660
29212,45338,26564
29172,45305,26484
29150,45294,26434
29127,45280,26384
29105,45256,26323
29095,45244,26281
29086,45248,26261
29061,45239,26231
29028,45210,26183
29003,45190,26144
28983,45183,26116
28948,45161,26069
28905,45121,26003
28871,45089,25951
28835,45065,25908
28779,45019,25841
28717,44958,25758
28667,44912,25692
28617,44876,25629
28557,44827,25539
28508,44779,25441
28481,44760,25372
28455,44750,25317
28414,44715,25242
28365,44665,25152
28315,44627,25075
28248,44588,24992
28164,44524,24875
28090,44457,24748
28029,44409,24639
27965,44362,24532
27890,44296,24410
27820,44233,24297
27757,44196,24211
27687,44157,24124
27612,44097,24013
27547,44038,23908
27487,43995,23825
27416,43946,23734
27343,43877,23626
27289,43819,23530
27246,43787,23461
27186,43747,23383
27112,43683,23280
27046,43625,23179
26975,43577,23089
26885,43512,22978
26788,43429,22842
26707,43358,22718
26634,43305,22612
26553,43243,22496
26476,43174,22371
26418,43124,22270
26366,43090,22187
26301,43045,22093
26237,42993,21990
26189,42961,21907
26148,42944,21840
26105,42915,21760
26082,42888,21686
26089,42895,21655
26109,42921,21658
26131,42940,21664
26173,42961,21693
26249,43020,21780
26349,43109,21914
26469,43202,22072
26630,43321,22278
26837,43491,22559
27066,43690,22893
27306,43888,23249
27566,44094,23635
27847,44324,24065
28127,44556,24505
28401,44766,24921
28685,44976,25337
28974,45201,25768
29248,45416,26177
29505,45604,26543
29757,45790,26891
29993,45981,27228
30194,46147,27518
30367,46277,27750
30536,46405,27966
30695,46544,28177
30826,46662,28353
30937,46749,28485
31043,46834,28608
31133,46925,28726
31191,46993,28812
31226,47033,28864
31258,47069,28912
31282,47105,28957
31286,47114,28969
31279,47104,28961
31282,47108,28971
31288,47124,28990
31280,47118,28980
31268,47099,28951
31268,47099,28940
31265,47106,28935
31246,47089,28905
31232,47066,28866
31238,47069,28854
31238,47078,28845
31211,47055,28799
31174,47013,28733
31141,46983,28676
31095,46949,28611
31024,46883,28512
30952,46811,28404
30891,46762,28317
30824,46720,28228
30746,46659,28114
30676,46600,27997
30617,46562,27902
30550,46522,27802
30473,46461,27677
30413,46407,27563
30369,46379,27483
30321,46354,27407
30276,46322,27319
30256,46303,27245
30248,46305,27201
30229,46298,27155
30203,46272,27097
30184,46254,27053
30165,46247,27023
30133,46224,26978
30100,46184,26915
30083,46152,26866
30071,46135,26832
30045,46107,26784
30016,46068,26724
29998,46045,26685
29979,46036,26662
29942,46011,26615
29899,45971,26546
29863,45944,26490
29821,45923,26437
29762,45879,26356
29707,45824,26264
29665,45785,26197
29615,45750,26133
29540,45691,26036
29457,45623,25925
29383,45574,25834
29307,45528,25746
29223,45459,25629
29154,45393,25508
29108,45362,25417
29063,45341,25333
29009,45299,25228
28959,45249,25124
28916,45215,25046
28859,45173,24963
28785,45102,24851
28715,45034,24746
28650,44984,24664
28573,44927,24575
28492,44850,24462
28429,44785,24354
28373,44741,24270
28303,44693,24180
28226,44630,24070
28161,44578,23969
28101,44540,23883
28033,44491,23785
27965,44428,23668
27909,44376,23564
27849,44337,23479
27773,44278,23382
27688,44199,23267
27609,44125,23165
27525,44058,23074
27426,43974,22958
27328,43876,22820
27247,43797,22699
27167,43737,22593
27078,43664,22469
26997,43588,22342
26930,43538,22243
26856,43497,22154
26769,43432,22039
26694,43360,21921
26645,43315,21840
26604,43289,21782
26560,43255,21717
26528,43223,21662
26517,43221,21652
26512,43233,21667
26517,43238,21686
26560,43264,21741
26647,43339,21861
26765,43447,22030
26916,43568,22232
27110,43719,22490
27342,43911,22819
27591,44117,23185
27852,44318,23562
28145,44541,23976
28464,44795,24433
28781,45047,24896
29095,45284,25342
29416,45531,25789
29727,45791,26239
30002,46025,26649
30243,46218,27005
30473,46398,27336
30688,46573,27651
30868,46717,27917
31022,46829,28129
31168,46942,28323
31299,47058,28507
31400,47146,28651
31481,47206,28761
31557,47270,28870
31610,47331,28967
31627,47355,29015
31632,47358,29029
31648,47378,29052
31660,47409,29083
31653,47416,29088
31644,47409,29080
31646,47416,29091
31643,47422,29100
31624,47397,29079
31611,47365,29051
31613,47361,29046
31614,47369,29047
31603,47355,29016
31589,47328,28969
31573,47314,28935
31538,47293,28890
31482,47244,28812
31432,47198,28729
31396,47177,28665
31358,47161,28594
31318,47131,28502
31287,47106,28416
31257,47095,28351
31206,47069,28272
31139,47014,28157
31086,46969,28046
31042,46943,27959
30981,46903,27868
30910,46839,27761
30851,46783,27667
30795,46744,27589
30728,46700,27499
30662,46646,27398
30619,46611,27315
30590,46596,27256
30559,46573,27190
30535,46542,27118
30527,46528,27074
30522,46525,27051
30503,46505,27012
30478,46474,26957
30460,46455,26915
30435,46440,26882
30391,46401,26824
30349,46353,26754
30322,46329,26704
30289,46310,26667
30238,46269,26609
30186,46219,26538
30143,46185,26482
30095,46150,26425
30038,46091,26342
29990,46033,26253
29955,46002,26184
29920,45982,26120
29878,45948,26034
29836,45916,25947
29798,45906,25882
29747,45891,25815
29688,45852,25726
29641,45814,25639
29600,45789,25564
29546,45751,25474
29488,45695,25359
29440,45650,25256
29390,45625,25180
29312,45577,25088
29215,45494,24964
29119,45411,24842
29023,45339,24736
28920,45257,24619
28825,45164,24487
28753,45097,24375
28701,45065,24293
28646,45032,24207
28589,44984,24109
28542,44945,24030
28496,44918,23966
28433,44868,23877
28359,44796,23762
28292,44733,23665
28226,44678,23586
28149,44601,23489
28074,44518,23382
28013,44461,23297
27942,44410,23218
27843,44335,23109
27737,44249,22983
27650,44184,22876
27573,44132,22779
27498,44070,22666
27441,44018,22557
27408,43998,22481
27373,43987,22415
27328,43953,22332
27285,43912,22244
27246,43890,22173
27200,43867,22099
27149,43822,22005
27116,43783,21930
27107,43772,21901
27104,43774,21894
27114,43780,21898
27156,43812,21946
27226,43881,22056
27313,43965,22204
27426,44053,22382
27588,44174,22618
27795,44340,22922
28030,44525,23263
28298,44720,23630
28602,44948,24042
28917,45207,24495
29219,45457,24947
29512,45687,25379
29809,45920,25813
30097,46156,26244
30361,46370,26637
30610,46557,26991
30849,46743,27334
31061,46924,27654
31233,47070,27919
31380,47184,28137
31513,47292,28341
31613,47385,28515
31673,47436,28628
31720,47462,28696
31770,47500,28762
31807,47540,28817
31821,47548,28834
31826,47538,28827
31833,47540,28831
31818,47533,28823
31776,47493,28776
31732,47443,28715
31701,47415,28672
31668,47394,28636
31630,47358,28581
31599,47322,28530
31577,47312,28505
31544,47300,28476
31499,47261,28416
31460,47220,28349
31420,47188,28290
31360,47142,28211
31288,47073,28103
31224,47006,28001
31158,46950,27915
31069,46876,27813
30967,46778,27687
30871,46687,27567
30773,46611,27457
30660,46523,27332
30547,46421,27189
30453,46337,27064
30371,46275,26961
30283,46211,26853
30203,46145,26741
30142,46103,26653
30088,46082,26587
30026,46051,26510
29969,46013,26424
29930,45994,26360
29899,45986,26316
29867,45961,26261
29849,45931,26205
29853,45924,26184
29857,45925,26177
29838,45905,26141
29812,45870,26089
29791,45850,26054
29759,45831,26022
29711,45787,25962
29671,45740,25893
29647,45719,25849
29617,45705,25811
29575,45672,25747
29533,45636,25679
29499,45621,25635
29449,45599,25584
29377,45548,25497
29305,45489,25402
29237,45441,25321
29160,45381,25226
29084,45301,25105
29025,45227,24990
28970,45172,24895
28890,45109,24788
28793,45030,24659
28706,44959,24541
28624,44901,24440
28533,44836,24327
28446,44758,24199
28378,44697,24088
28320,44657,24001
28251,44608,23907
28180,44545,23804
28122,44498,23722
28064,44470,23655
27993,44430,23569
27920,44374,23464
27860,44330,23371
27799,44297,23287
27729,44249,23184
27664,44191,23073
27616,44153,22989
27565,44128,22921
27495,44079,22832
27417,44012,22727
27349,43962,22638
27282,43920,22553
27207,43860,22443
27141,43799,22329
27093,43761,22239
27042,43730,22160
26978,43676,22061
26916,43615,21958
26866,43577,21880
26813,43545,21803
26747,43491,21703
26689,43440,21609
26643,43418,21547
26593,43396,21484
26544,43357,21405
26514,43328,21336
26491,43325,21292
26458,43319,21238
26424,43292,21162
26418,43286,21107
26445,43320,21099
26480,43365,21110
26531,43407,21132
26616,43473,21200
26730,43574,21322
26857,43684,21473
27008,43801,21651
27202,43957,21889
27430,44154,22191
27674,44361,22521
27943,44579,22881
28249,44827,23300
28569,45096,23765
28883,45350,24229
29199,45592,24684
29522,45842,25150
29824,46085,25607
30090,46289,26013
30335,46461,26378
30575,46632,26731
30789,46795,27055
30962,46921,27317
31113,47023,27532
31249,47130,27733
31354,47227,27899
31430,47290,28004
31498,47338,28076
31563,47396,28146
31610,47446,28198
31634,47460,28209
31646,47455,28204
31651,47458,28209
31631,47447,28198
31587,47404,28153
31539,47355,28103
31486,47316,28066
31414,47258,28009
31331,47165,27912
31259,47072,27813
31193,47005,27732
31110,46937,27644
31019,46856,27539
30938,46786,27444
30858,46734,27366
30760,46671,27273
30658,46589,27157
30573,46516,27051
30496,46464,26959
30412,46406,26850
30332,46338,26726
30271,46285,26622
30210,46244,26534
30132,46184,26430
30051,46107,26311
29977,46042,26205
29898,45985,26105
29810,45917,25982
29734,45846,25856
29686,45803,25766
29651,45782,25705
29614,45753,25637
29587,45725,25570
29574,45718,25536
29554,45715,25516
29516,45687,25472
29478,45649,25417
29449,45628,25381
29409,45605,25345
29353,45553,25281
29301,45491,25213
29263,45450,25170
29219,45410,25131
29162,45349,25069
29109,45290,25006
29060,45250,24960
29002,45210,24900
28936,45150,24810
28879,45095,24724
28822,45055,24658
28750,45007,24582
28671,44941,24484
28605,44883,24391
28539,44841,24312
28450,44785,24217
28348,44706,24096
28256,44632,23980
28163,44569,23877
28051,44487,23755
27938,44381,23613
27840,44282,23484
27745,44196,23375
27633,44096,23255
27517,43984,23122
27410,43886,23003
27302,43798,22895
27183,43697,22764
27070,43590,22620
26978,43510,22505
26894,43453,22410
26808,43387,22300
26736,43320,22188
26683,43280,22105
26621,43248,22032
26533,43188,21931
26444,43117,21823
26374,43071,21743
26309,43036,21672
26238,42981,21576
26175,42923,21477
26123,42888,21406
26060,42854,21338
25984,42796,21248
25914,42738,21156
25851,42696,21079
25779,42647,20997
25700,42574,20893
25633,42506,20795
25573,42459,20721
25496,42401,20634
25408,42321,20520
25330,42247,20410
25253,42192,20318
25158,42126,20213
25052,42041,20083
24963,41967,19966
24889,41920,19879
24810,41871,19787
24731,41807,19678
24669,41755,19589
24616,41722,19529
24561,41687,19467
24516,41650,19404
24497,41639,19378
24499,41657,19389
24511,41680,19408
24552,41714,19452
24638,41787,19564
24758,41895,19742
24901,42012,19949
25080,42143,20192
25300,42311,20499
25539,42506,20857
25784,42698,21228
26042,42892,21617
26327,43114,22048
26619,43352,22498
26902,43571,22923
27187,43785,23336
27475,44017,23760
27739,44238,24169
27964,44412,24524
28160,44554,24836
28332,44689,25131
28463,44805,25382
28556,44878,25565
28637,44933,25709
28708,44992,25834
28752,45034,25920
28773,45050,25960
28790,45061,25985
28798,45080,26010
28778,45076,26003
28738,45040,25957
28703,45004,25907
28674,44986,25872
28641,44964,25823
28613,44934,25759
28594,44917,25709
28571,44915,25676
28528,44894,25629
28472,44848,25560
28417,44804,25497
28356,44764,25437
28272,44700,25347
28177,44614,25228
28090,44537,25118
28002,44470,25012
27900,44388,24880
27796,44295,24733
27700,44216,24605
27598,44145,24484
27479,44048,24337
27362,43935,24176
27266,43845,24037
27180,43771,23915
27090,43685,23781
27008,43600,23653
26938,43539,23561
26862,43484,23482
26776,43410,23387
26706,43344,23299
26661,43313,23248
26626,43298,23213
26594,43271,23166
26575,43250,23127
26564,43252,23116
26538,43246,23100
26496,43213,23057
26462,43180,23017
26436,43165,22995
26402,43142,22960
26367,43103,22905
26346,43075,22863
26326,43064,22843
26282,43036,22807
26220,42977,22738
26164,42920,22674
26109,42875,22626
26038,42817,22559
25961,42740,22466
25899,42677,22382
25842,42629,22312
25769,42569,22222
25690,42497,22115
25622,42440,22024
25554,42396,21945
25471,42334,21842
25387,42260,21721
25321,42205,21622
25261,42165,21539
25192,42110,21437
25129,42052,21332
25082,42019,21254
25033,41995,21187
24967,41951,21096
24896,41892,20991
24832,41848,20904
24769,41811,20821
24700,41757,20717
24641,41703,20612
24595,41672,20532
24538,41644,20457
24467,41598,20361
24398,41547,20261
24335,41510,20178
24269,41473,20092
24199,41416,19982
24147,41361,19881
24106,41326,19809
24052,41289,19732
23990,41235,19632
23937,41183,19536
23884,41146,19457
23816,41099,19368
23746,41036,19257
23696,40987,19160
23656,40963,19085
23604,40932,19004
23549,40887,18915
23507,40849,18846
23469,40823,18800
23427,40790,18747
23397,40752,18693
23393,40742,18676
23404,40762,18703
23422,40787,18747
23462,40816,18812
23539,40877,18932
23646,40969,19104
23773,41071,19303
23939,41193,19544
24163,41366,19864
24421,41579,20244
24693,41799,20640
24986,42029,21051
25303,42285,21497
25619,42548,21954
25917,42787,22385
26213,43016,22802
26513,43257,23229
26792,43491,23639
27036,43687,23996
27256,43853,24309
27454,44012,24598
27609,44144,24842
27717,44226,25017
27799,44282,25152
27860,44335,25268
27892,44370,25348
27905,44372,25378
27918,44372,25395
27929,44387,25420
27913,44386,25417
27875,44349,25369
27836,44306,25313
27794,44275,25267
27730,44231,25204
27654,44165,25109
27589,44106,25021
27529,44062,24950
27454,44006,24859
27370,43929,24740
27292,43858,24624
27216,43797,24521
27126,43720,24402
27032,43630,24268
26955,43555,24150
26884,43499,24046
26802,43435,23925
26722,43365,23798
26658,43315,23701
26591,43275,23618
26506,43213,23509
26422,43139,23386
26361,43086,23284
26304,43047,23194
26239,42995,23090
26189,42946,22996
26164,42927,22941
26147,42923,22909
26126,42907,22865
26111,42889,22819
26107,42892,22795
26096,42898,22777
26076,42885,22743
26069,42875,22715
26077,42889,22709
26078,42902,22701
26072,42895,22677
26073,42889,22663
26075,42895,22672
26054,42882,22667
26016,42839,22627
25987,42796,22580
25962,42767,22545
25925,42730,22499
25885,42677,22433
25856,42637,22375
25830,42619,22336
25784,42589,22283
25729,42539,22205
25683,42496,22140
25639,42466,22092
25583,42424,22023
25525,42368,21928
25481,42328,21847
25441,42304,21783
25386,42266,21701
25332,42218,21604
25293,42191,21528
25254,42175,21462
25202,42143,21374
25152,42101,21273
25123,42086,21201
25101,42087,21149
25065,42070,21078
25026,42036,20995
24991,42010,20928
24942,41977,20862
24867,41912,20764
24786,41832,20654
24710,41769,20563
24626,41710,20479
24533,41630,20374
24451,41551,20269
24382,41501,20187
24310,41460,20107
24232,41403,20004
24170,41348,19903
24124,41313,19822
24078,41278,19737
24036,41233,19638
24010,41205,19555
23993,41205,19503
23961,41201,19449
23923,41179,19379
23897,41162,19319
23880,41163,19283
23865,41166,19249
23870,41171,19222
23915,41208,19239
23996,41290,19313
24106,41396,19424
24258,41525,19577
24463,41699,19802
24705,41918,20094
24967,42148,20419
25262,42385,20779
25600,42657,21203
25964,42960,21677
26336,43264,22162
26721,43571,22660
27120,43899,23194
27511,44233,23738
27872,44530,24246
28214,44796,24720
28550,45061,25187
28857,45309,25629
29120,45511,26012
29360,45686,26354
29589,45865,26688
29783,46028,26991
29932,46145,27229
30053,46230,27417
30160,46317,27589
30242,46390,27729
30297,46424,27816
30343,46445,27882
30386,46478,27953
30413,46503,28007
30424,46500,28025
30436,46492,28034
30444,46494,28050
30434,46482,28046
30415,46451,28011
30410,46433,27981
30414,46441,27972
30398,46439,27951
30369,46413,27906
30347,46389,27868
30323,46375,27848
30279,46345,27809
30221,46293,27740
30166,46244,27672
30109,46200,27613
30033,46136,27530
29949,46054,27422
29871,45984,27322
29788,45925,27230
29688,45844,27111
29586,45749,26968
29503,45675,26839
29429,45618,26726
29352,45552,26605
29291,45490,26488
29256,45460,26408
29221,45449,26347
29174,45421,26270
29133,45382,26190
29114,45363,26139
29102,45354,26107
29081,45330,26063
29071,45307,26024
29080,45311,26018
29085,45317,26021
29074,45296,26002
29057,45263,25973
29039,45244,25956
29011,45223,25936
28976,45180,25893
28952,45144,25852
28941,45136,25833
28921,45129,25807
28895,45106,25762
28879,45085,25723
28861,45078,25697
28820,45060,25652
28768,45018,25577
28728,44982,25507
28691,44963,25454
28642,44932,25388
28589,44883,25301
28548,44842,25223
28508,44816,25163
28449,44772,25083
28378,44700,24976
28313,44634,24878
28249,44584,24797
28173,44523,24699
28095,44449,24583
28034,44391,24487
27980,44355,24407
27919,44308,24312
27862,44256,24213
27823,44225,24141
27782,44200,24079
27717,44150,23989
27643,44087,23883
27580,44042,23795
27514,44003,23710
27435,43939,23599
27361,43867,23478
27302,43814,23381
27239,43767,23292
27164,43701,23182
27095,43630,23063
27037,43581,22963
26973,43536,22867
26897,43471,22751
26832,43411,22640
26783,43377,22555
26733,43346,22474
26685,43304,22380
26649,43271,22302
26619,43257,22255
26582,43239,22211
26550,43211,22163
26549,43210,22152
26576,43248,22196
26620,43303,22276
26698,43367,22389
26833,43472,22573
27016,43626,22841
27225,43802,23158
27459,43988,23508
27737,44210,23918
28047,44467,24384
28365,44725,24862
28691,44976,25343
29037,45249,25851
29385,45539,26377
29716,45811,26880
30036,46064,27358
30353,46322,27836
30649,46569,28290
30907,46772,28678
31138,46942,29009
31361,47116,29321
31559,47285,29608
31716,47419,29841
31851,47529,30032
31972,47640,30210
32058,47737,30359
32108,47795,30456
32142,47825,30517
32173,47854,30574
32193,47874,30620
32199,47866,30634
32208,47853,30637
32225,47861,30654
32225,47870,30662
32207,47853,30641
32196,47831,30617
32188,47821,30607
32166,47802,30584
32135,47759,30534
32115,47725,30493
32105,47715,30476
32083,47700,30449
32051,47661,30395
32022,47622,30340
31980,47592,30290
31913,47540,30212
31835,47462,30103
31767,47392,29999
31702,47340,29908
31623,47283,29800
31541,47217,29672
31473,47168,29557
31407,47135,29458
31330,47089,29343
31255,47029,29215
31192,46979,29103
31130,46936,29006
31059,46874,28896
30997,46808,28785
30960,46771,28709
30929,46757,28657
30886,46729,28593
30843,46690,28525
30816,46671,28485
30791,46658,28454
30756,46625,28398
30728,46592,28340
30719,46590,28312
30714,46600,28301
30701,46591,28273
30693,46581,28245
30695,46596,28245
30686,46611,28243
30662,46597,28210
30640,46574,28165
30622,46564,28126
30591,46548,28074
30550,46510,27996
30519,46474,27924
30495,46456,27870
30459,46430,27801
30419,46385,27709
30388,46346,27625
30353,46317,27557
30290,46268,27467
30208,46187,27346
30134,46107,27232
30064,46040,27135
29982,45964,27023
29896,45879,26895
29827,45819,26786
29767,45790,26702
29699,45755,26609
29631,45708,26503
29577,45675,26417
29528,45658,26349
29475,45627,26265
29425,45585,26168
29391,45560,26097
29358,45548,26045
29310,45516,25972
29260,45468,25885
29222,45433,25818
29176,45399,25752
29112,45338,25648
29051,45269,25528
29006,45225,25434
28958,45191,25351
28894,45136,25245
28829,45077,25131
28774,45041,25040
28714,45009,24951
28646,44957,24836
28591,44908,24728
28555,44891,24657
28524,44884,24604
28500,44864,24550
28503,44855,24524
28529,44884,24550
28567,44929,24603
28626,44977,24670
28734,45059,24797
28885,45190,25010
29054,45344,25274
29251,45507,25577
29500,45705,25949
29788,45946,26390
30089,46196,26857
30407,46445,27334
30756,46718,27846
31119,47016,28391
31470,47300,28921
31805,47558,29422
32130,47815,29914
32435,48071,30392
32700,48293,30815
32930,48474,31179
33146,48650,31519
33341,48820,31830
33501,48955,32080
33642,49063,32284
33778,49175,32481
33892,49279,32657
33965,49340,32780
34019,49374,32866
34073,49415,32953
34116,49457,33031
34138,49474,33071
34159,49481,33092
34185,49502,33127
34194,49518,33157
34178,49506,33159
34157,49482,33148
34140,49470,33152
34118,49456,33149
34086,49419,33118
34066,49387,33086
34062,49379,33074
34048,49369,33054
34025,49340,33012
34004,49314,32972
33975,49301,32939
33925,49277,32882
33865,49231,32787
33817,49190,32693
33774,49165,32613
33715,49126,32516
33642,49064,32393
33568,48999,32268
33484,48939,32148
33377,48861,32009
33263,48762,31846
33163,48677,31696
33072,48613,31566
32978,48540,31429
32892,48457,31290
32821,48390,31174
32755,48337,31075
32685,48270,30958
32623,48197,30835
32586,48154,30746
32559,48133,30686
32525,48104,30622
32495,48070,30559
32475,48056,30525
32449,48052,30503
32410,48031,30460
32379,48004,30406
32363,47994,30374
32346,47992,30350
32318,47972,30302
32293,47946,30246
32275,47936,30213
32246,47926,30180
32202,47892,30120
32162,47853,30052
32129,47827,29996
32086,47799,29929
32033,47752,29835
31987,47709,29742
31942,47684,29667
31878,47646,29582
31799,47581,29470
31727,47518,29360
31655,47467,29266
31567,47402,29158
31472,47314,29027
31393,47235,28908
31325,47179,28811
31246,47115,28702
31157,47033,28576
31075,46963,28466
30997,46913,28375
30910,46854,28268
30822,46778,28141
30751,46717,28030
30687,46677,27938
30613,46626,27833
30536,46565,27721
30471,46521,27635
30407,46483,27560
30331,46418,27457
30249,46335,27334
30174,46266,27226
30092,46205,27120
29993,46123,26986
29898,46033,26842
29823,45965,26726
29755,45912,26628
29684,45847,26514
29622,45783,26400
29576,45747,26314
29525,45718,26236
29464,45671,26138
29408,45620,26038
29363,45593,25964
29316,45573,25892
29266,45538,25799
29239,45513,25722
29239,45522,25692
29250,45545,25688
29275,45565,25700
29335,45607,25762
29427,45687,25892
29531,45782,26064
29655,45879,26267
29827,46008,26536
30038,46178,26880
30270,46366,27270
30528,46563,27691
30825,46798,28164
31147,47072,28684
31470,47350,29210
31801,47620,29727
32147,47904,30254
32485,48194,30777
32796,48460,31254
33087,48700,31685
33371,48938,32102
33640,49168,32499
33881,49363,32838
34104,49531,33123
34318,49702,33388
34501,49867,33632
34634,49987,33821
34739,50067,33963
34839,50142,34097
34923,50211,34212
34980,50247,34277
35030,50272,34320
35083,50320,34385
35118,50375,34452
35125,50403,34487
35121,50415,34500
35123,50438,34526
35114,50453,34542
35083,50434,34520
35057,50410,34491
35048,50408,34484
35035,50407,34473
35019,50391,34440
35011,50382,34414
35003,50393,34407
34973,50385,34380
34925,50339,34311
34881,50287,34233
34835,50242,34154
34763,50175,34045
34671,50078,33899
34584,49986,33754
34502,49914,33628
34410,49836,33495
34313,49747,33340
34227,49673,33189
34138,49618,33052
34036,49551,32904
33936,49470,32745
33851,49403,32612
33777,49354,32504
33704,49297,32388
33638,49235,32270
33588,49193,32185
33537,49166,32119
33471,49119,32031
33400,49051,31927
33338,48995,31846
33278,48948,31777
33211,48881,31689
33156,48810,31603
33123,48773,31550
33090,48750,31513
33040,48707,31454
32987,48654,31382
32946,48620,31329
32898,48587,31274
32836,48530,31191
32780,48470,31104
32736,48438,31037
32690,48417,30971
32641,48384,30884
32603,48355,30799
32576,48347,30735
32537,48333,30663
32484,48297,30564
32434,48259,30465
32377,48227,30376
32296,48173,30268
32200,48090,30128
32116,48010,29993
32033,47946,29876
31929,47864,29745
31815,47754,29594
31711,47647,29457
31604,47553,29340
31483,47447,29209
31364,47332,29061
31266,47242,28929
31186,47184,28819
31112,47131,28701
31052,47081,28578
31019,47060,28487
30998,47062,28421
30965,47049,28340
30928,47024,28250
30898,47015,28179
30858,47009,28113
30796,46971,28020
30735,46918,27918
30692,46884,27838
30644,46857,27768
30575,46802,27676
30504,46737,27575
30444,46690,27494
30369,46640,27410
30274,46560,27292
30182,46470,27164
30101,46401,27057
30017,46339,26954
29927,46260,26830
29843,46179,26707
29771,46120,26609
29692,46061,26511
29605,45988,26392
29533,45925,26278
29473,45885,26183
29411,45844,26087
29359,45798,25981
29338,45775,25905
29342,45786,25878
29349,45803,25874
29369,45817,25886
29419,45856,25951
29494,45927,26077
29587,46010,26237
29715,46105,26435
29902,46249,26707
30135,46447,27060
30395,46665,27461
30686,46894,27900
31016,47159,28397
31364,47455,28939
31707,47744,29477
32049,48020,30001
32395,48306,30531
32729,48590,31049
33038,48840,31516
33331,49062,31940
33614,49286,32350
33863,49499,32727
34058,49665,33032
34217,49789,33276
34359,49908,33495
34473,50014,33680
34551,50082,33806
34616,50130,33899
34678,50189,33997
34719,50239,34079
34735,50249,34119
34745,50239,34139
34757,50243,34169
34756,50247,34188
34741,50229,34176
34732,50212,34163
34732,50217,34173
34717,50211,34167
34683,50176,34126
34651,50137,34082
34612,50105,34047
34550,50057,33995
34478,49986,33918
34428,49932,33854
34396,49910,33812
34348,49880,33753
34285,49824,33662
34226,49773,33576
34167,49737,33501
34092,49686,33404
34012,49616,33276
33943,49562,33155
33878,49526,33051
33802,49477,32933
33728,49417,32804
33668,49376,32694
33609,49349,32592
33536,49302,32465
33467,49240,32323
33423,49198,32207
33384,49172,32114
33330,49128,32010
33273,49073,31902
33229,49041,31821
33183,49021,31751
33127,48983,31660
33083,48942,31573
33063,48925,31524
33047,48917,31494
33026,48891,31450
33004,48856,31404
32986,48837,31375
32951,48814,31338
32890,48758,31267
32825,48690,31187
32762,48633,31122
32684,48568,31048
32597,48483,30952
32523,48408,30862
32462,48364,30797
32392,48319,30721
32314,48254,30613
32245,48196,30507
32178,48149,30418
32093,48088,30319
32002,48006,30199
31929,47936,30086
31865,47886,29991
31790,47830,29885
31708,47761,29763
31631,47703,29651
31551,47656,29552
31456,47592,29434
31362,47513,29299
31282,47449,29178
31205,47397,29070
31114,47329,28946
31022,47247,28808
30938,47172,28688
30846,47094,28577
30731,46989,28442
30613,46865,28293
30507,46758,28167
30398,46663,28052
30272,46548,27915
30147,46422,27767
30029,46313,27637
29901,46206,27506
29758,46079,27344
29629,45953,27176
29520,45863,27037
29421,45796,26912
29323,45722,26777
29235,45653,26648
29156,45606,26548
29073,45561,26448
28983,45496,26328
28902,45434,26216
28823,45388,26127
28739,45338,26030
28658,45270,25906
28597,45208,25790
28546,45163,25702
28474,45104,25606
28382,45015,25483
28295,44930,25365
28208,44861,25267
28109,44783,25160
28015,44694,25042
27955,44633,24959
27928,44613,24928
27915,44604,24919
27925,44600,24936
27974,44632,25016
28055,44710,25167
28160,44805,25357
28303,44921,25586
28502,45085,25888
28741,45292,26251
29002,45513,26641
29295,45747,27063
29624,46015,27542
29959,46299,28053
30277,46561,28545
30589,46807,29016
30899,47058,29483
31180,47295,29918
31415,47485,30283
31628,47647,30594
31828,47810,30885
31995,47958,31146
32122,48065,31348
32225,48146,31507
32316,48228,31651
32378,48295,31763
32412,48327,31823
32441,48347,31860
32470,48376,31897
32484,48397,31913
32484,48397,31899
32480,48392,31886
32468,48395,31888
32433,48378,31868
32381,48326,31812
32334,48271,31756
32286,48230,31714
32222,48179,31653
32148,48106,31566
32086,48040,31491
32030,47992,31436
31960,47931,31361
31881,47848,31258
31813,47771,31159
31746,47711,31072
31663,47641,30962
31576,47558,30825
31502,47493,30702
31435,47451,30599
31361,47398,30485
31286,47336,30362
31217,47289,30257
31142,47245,30156
31049,47173,30023
30958,47088,29877
30886,47024,29761
30817,46972,29667
30737,46898,29558
30660,46816,29444
30595,46754,29354
30524,46700,29273
30439,46628,29171
30362,46554,29068
30307,46508,28993
30261,46477,28930
30215,46435,28854
30182,46397,28785
30160,46382,28744
30129,46368,28701
30086,46334,28639
30050,46300,28584
30016,46276,28547
29966,46242,28499
29906,46185,28423
29861,46137,28352
29826,46115,28305
29780,46089,28252
29733,46046,28180
29701,46015,28115
29671,46004,28068
29618,45976,28006
29546,45918,27912
29479,45863,27819
29413,45818,27738
29329,45757,27636
29240,45679,27510
29170,45617,27398
29113,45574,27303
29047,45517,27198
28982,45450,27083
28930,45399,26989
28873,45357,26902
28791,45289,26788
28703,45205,26658
28629,45141,26550
28556,45094,26456
28473,45035,26343
28399,44973,26224
28345,44933,26133
28291,44900,26055
28219,44842,25954
28138,44770,25836
28058,44706,25730
27967,44640,25622
27862,44549,25485
27766,44456,25346
27682,44385,25236
27589,44316,25128
27487,44228,24998
27391,44140,24868
27302,44076,24763
27205,44011,24655
27098,43923,24523
27004,43836,24394
26920,43769,24287
26826,43697,24173
26732,43611,24043
26652,43535,23928
26578,43479,23839
26491,43417,23743
26402,43338,23629
26337,43276,23535
26297,43246,23478
26268,43220,23433
26256,43196,23397
26277,43207,23412
26327,43261,23491
26392,43329,23605
26485,43406,23750
26624,43523,23961
26801,43679,24236
27001,43848,24540
27239,44032,24876
27526,44265,25275
27841,44534,25718
28152,44790,26157
28467,45033,26593
28792,45294,27050
29099,45558,27502
29371,45790,27908
29625,45997,28276
29872,46207,28633
30096,46405,28964
30284,46559,29235
30453,46683,29461
30603,46801,29669
30710,46894,29837
30773,46942,29942
30819,46968,30009
30860,46997,30067
30884,47017,30105
30893,47016,30112
30905,47014,30113
30920,47030,30128
30919,47037,30126
30900,47018,30091
30886,47003,30061
30876,47004,30052
30855,46994,30035
30830,46966,29995
30813,46949,29960
30793,46945,29939
30750,46919,29894
30691,46866,29816
30633,46809,29737
30567,46753,29661
30478,46678,29558
30377,46581,29425
30279,46489,29300
30173,46404,29184
30046,46300,29042
29908,46176,28875
29780,46061,28718
29652,45953,28569
29514,45829,28397
29385,45701,28217
29280,45604,28071
29187,45535,27951
29092,45463,27823
29009,45395,27696
28949,45357,27604
28898,45332,27534
28842,45290,27453
28801,45251,27378
28789,45244,27341
28788,45252,27323
28782,45245,27288
28784,45231,27252
28801,45240,27246
28813,45256,27247
28814,45256,27224
28819,45258,27199
28826,45277,27194
28821,45290,27184
28811,45279,27148
28813,45271,27116
28825,45284,27107
28817,45285,27085
28790,45255,27029
28765,45222,26970
28739,45205,26922
28696,45176,26855
28644,45125,26761
28602,45081,26679
28565,45059,26620
28510,45025,26546
28437,44967,26442
28365,44911,26343
28293,44862,26256
28205,44790,26144
28107,44693,26005
28021,44609,25880
27942,44543,25773
27859,44470,25650
27780,44390,25518
27718,44329,25410
27657,44280,25319
27580,44214,25207
27503,44144,25084
27448,44102,24989
27401,44076,24910
27341,44034,24811
27281,43985,24703
27227,43956,24619
27163,43932,24540
27088,43882,24436
27018,43822,24325
26961,43779,24239
26905,43741,24158
26846,43684,24055
26799,43627,23956
26768,43594,23888
26727,43562,23823
26673,43511,23736
26621,43456,23647
26568,43418,23574
26502,43378,23494
26432,43325,23392
26386,43288,23307
26365,43286,23265
26357,43296,23246
26370,43309,23244
26420,43349,23294
26503,43426,23409
26603,43515,23557
26727,43610,23727
26897,43747,23957
27107,43930,24254
27339,44127,24584
27600,44332,24942
27901,44570,25357
28224,44837,25822
28545,45099,26292
28866,45349,26754
29194,45608,27226
29515,45872,27694
29812,46111,28117
30094,46328,28503
30364,46547,28884
30603,46755,29243
30792,46915,29535
30941,47034,29764
31067,47141,29968
31160,47225,30135
31216,47263,30238
31261,47279,30305
31312,47307,30375
31353,47337,30437
31373,47343,30464
31386,47341,30474
31402,47358,30496
31403,47374,30510
31386,47361,30489
31376,47345,30461
31378,47348,30450
31372,47351,30437
31357,47337,30405
31350,47328,30380
31347,47336,30377
31325,47330,30360
31290,47296,30312
31266,47266,30262
31249,47251,30223
31218,47224,30169
31181,47178,30089
31150,47139,30012
31117,47114,29950
31065,47074,29870
31009,47016,29764
30962,46966,29662
30909,46923,29566
30835,46860,29447
30757,46783,29311
30691,46723,29191
30625,46678,29087
30546,46622,28970
30468,46555,28847
30398,46501,28749
30324,46452,28662
30241,46385,28559
30171,46318,28457
30128,46282,28394
30096,46265,28354
30058,46233,28301
30023,46197,28248
30000,46181,28224
29974,46172,28208
29938,46139,28166
29911,46106,28120
29898,46097,28100
29884,46091,28085
29861,46063,28048
29838,46029,28005
29815,46013,27975
29778,45993,27934
29730,45947,27855
29691,45905,27770
29659,45887,27706
29614,45863,27633
29562,45816,27538
29521,45772,27451
29480,45745,27385
29418,45707,27306
29345,45646,27196
29283,45589,27092
29224,45545,27007
29154,45491,26914
29086,45419,26806
29028,45353,26709
28959,45297,26624
28868,45224,26522
28772,45133,26398
28690,45056,26281
28611,44998,26178
28529,44935,26063
28458,44869,25941
28406,44826,25840
28354,44797,25756
28287,44750,25652
28220,44692,25534
28166,44648,25436
28106,44611,25347
28032,44556,25237
27964,44496,25121
27915,44461,25033
27862,44433,24957
27789,44377,24854
27708,44304,24733
27633,44244,24630
27552,44185,24531
27462,44103,24407
27386,44021,24281
27329,43969,24184
27273,43929,24096
27212,43875,23998
27167,43830,23915
27145,43820,23878
27142,43832,23875
27164,43855,23897
27232,43912,23978
27347,44022,24139
27488,44156,24348
27659,44297,24587
27881,44470,24885
28139,44686,25249
28414,44914,25646
28707,45138,26061
29027,45386,26516
29357,45660,27007
29669,45924,27492
29966,46162,27951
30262,46394,28406
30544,46627,28855
30797,46835,29261
31033,47017,29618
31265,47200,29961
31479,47385,30283
31659,47537,30547
31815,47653,30759
31954,47762,30953
32066,47863,31124
32142,47930,31242
32207,47978,31324
32280,48043,31417
32350,48114,31509
32403,48157,31566
32457,48188,31605
32518,48237,31664
32562,48285,31722
32577,48298,31742
32581,48293,31742
32585,48299,31753
32580,48302,31761
32562,48280,31740
32551,48253,31713
32552,48247,31706
32539,48242,31696
32513,48215,31662
32491,48189,31624
32469,48180,31595
32430,48164,31546
32382,48125,31460
32351,48093,31377
32329,48079,31313
32290,48053,31236
32239,48005,31130
32191,47959,31024
32136,47921,30928
32060,47866,30813
31979,47789,30675
31909,47720,30546
31841,47664,30431
31760,47598,30307
31680,47524,30176
31615,47471,30067
31556,47437,29985
31493,47394,29900
31435,47342,29812
31397,47311,29750
31366,47296,29707
31330,47270,29649
31307,47239,29587
31306,47230,29554
31304,47233,29537
31284,47214,29499
31259,47180,29447
31238,47159,29416
31205,47141,29388
31155,47097,29324
31111,47048,29246
31084,47025,29189
31050,47006,29140
30998,46960,29065
30938,46902,28980
30877,46858,28913
30802,46808,28837
30711,46730,28727
30629,46651,28614
30560,46595,28523
30490,46539,28427
30423,46471,28308
30376,46415,28199
30339,46388,28121
30289,46359,28041
30230,46312,27941
30183,46271,27848
30135,46245,27771
30073,46209,27684
30007,46154,27579
29954,46103,27485
29901,46062,27405
29832,46002,27305
29757,45918,27179
29685,45846,27060
29607,45793,26962
29511,45727,26859
29414,45644,26744
29335,45577,26646
29262,45530,26559
29183,45472,26450
29111,45408,26328
29058,45365,26234
29008,45339,26161
28948,45296,26069
28893,45247,25966
28850,45222,25884
28800,45202,25808
28734,45155,25700
28672,45099,25582
28626,45066,25492
28586,45047,25421
28545,45013,25338
28522,44988,25271
28525,44998,25257
28537,45025,25278
28558,45048,25311
28611,45088,25382
28708,45175,25522
28839,45296,25715
29006,45434,25939
29228,45610,26224
29497,45836,26588
29790,46084,27001
30106,46337,27439
30452,46611,27917
30809,46912,28437
31147,47201,28953
31467,47456,29438
31786,47703,29912
32092,47950,30375
32358,48168,30792
32592,48349,31149
32813,48522,31479
33008,48689,31789
33161,48818,32043
33284,48904,32234
33395,48982,32401
33490,49062,32557
33563,49119,32673
33630,49156,32755
33705,49208,32843
33771,49275,32936
33814,49323,32999
33846,49354,33040
33882,49395,33096
33905,49436,33153
33906,49443,33175
33908,49431,33177
33931,49435,33197
33949,49448,33224
33944,49439,33223
33932,49420,33206
33922,49418,33203
33897,49410,33194
33850,49368,33145
33803,49312,33079
33762,49269,33024
33712,49226,32959
33648,49161,32861
33583,49091,32755
33516,49037,32667
33433,48978,32567
33341,48899,32436
33259,48826,32305
33182,48774,32191
33090,48718,32068
33001,48650,31930
32938,48596,31808
32889,48566,31711
32830,48530,31608
32766,48478,31492
32713,48436,31391
32660,48408,31309
32597,48366,31219
32537,48311,31119
32498,48274,31040
32468,48256,30983
32431,48229,30920
32399,48195,30849
32383,48177,30798
32363,48168,30762
32326,48139,30708
32290,48095,30642
32267,48066,30601
32247,48053,30577
32220,48028,30535
32204,48006,30488
32206,48012,30468
32202,48030,30454
32178,48026,30408
32148,48003,30342
32126,47989,30287
32097,47976,30230
32052,47938,30144
32010,47892,30050
31980,47867,29979
31936,47839,29906
31872,47784,29804
31809,47721,29693
31751,47672,29598
31682,47618,29498
31607,47542,29370
31535,47460,29244
31465,47394,29138
31378,47319,29024
31280,47226,28886
31196,47145,28756
31119,47089,28649
31034,47031,28538
30953,46965,28415
30891,46914,28311
30829,46884,28232
30754,46842,28140
30678,46781,28025
30618,46733,27923
30562,46703,27843
30498,46665,27754
30441,46617,27653
30400,46585,27571
30357,46571,27508
30300,46541,27426
30241,46494,27324
30193,46458,27240
30144,46434,27169
30083,46393,27077
30025,46340,26973
29979,46299,26888
29922,46263,26809
29844,46205,26703
29766,46139,26586
29707,46096,26494
29648,46062,26417
29574,46005,26328
29509,45941,26241
29470,45905,26192
29442,45887,26170
29425,45868,26151
29447,45873,26170
29516,45929,26262
29611,46016,26409
29728,46110,26591
29882,46233,26825
30073,46401,27134
30291,46596,27490
30538,46797,27868
30831,47027,28295
31162,47299,28786
31493,47579,29290
31819,47844,29778
32157,48116,30272
32493,48401,30772
32803,48665,31234
33090,48892,31641
33360,49105,32022
33601,49311,32386
33798,49478,32697
33962,49599,32948
34111,49709,33171
34236,49815,33375
34323,49888,33531
34385,49926,33638
34442,49963,33734
34482,50001,33823
34493,50008,33874
34487,49986,33892
34480,49970,33915
34463,49958,33941
34430,49927,33938
34399,49888,33918
34379,49870,33915
34349,49860,33915
34303,49829,33891
34268,49794,33862
34252,49786,33857
34241,49792,33858
34225,49779,33835
34210,49752,33797
34197,49736,33770
34169,49716,33732
34121,49664,33656
34076,49606,33569
34033,49566,33499
33969,49523,33418
33887,49458,33307
33807,49390,33189
33729,49339,33083
33636,49280,32962
33533,49194,32809
33443,49116,32662
33359,49061,32540
33265,49003,32418
33176,48930,32282
33105,48870,32161
33041,48833,32065
32970,48792,31965
32899,48736,31851
32847,48695,31758
32804,48675,31695
32756,48643,31627
32713,48597,31552
32688,48566,31498
32662,48550,31463
32619,48518,31408
32574,48472,31339
32540,48440,31293
32511,48425,31265
32477,48401,31220
32450,48374,31168
32437,48368,31141
32419,48371,31124
32378,48344,31073
32329,48291,30996
32290,48249,30933
32248,48219,30876
32192,48174,30793
32138,48116,30699
32089,48072,30623
32024,48029,30543
31937,47958,30428
31851,47875,30297
31774,47815,30182
31695,47764,30068
31609,47697,29933
31532,47632,29800
31467,47588,29696
31394,47541,29592
31309,47471,29465
31233,47404,29347
31164,47358,29255
31086,47308,29154
31008,47239,29029
30945,47177,28913
30884,47133,28820
30800,47076,28719
30704,46999,28598
30623,46933,28488
30551,46885,28395
30473,46824,28286
30396,46748,28155
30331,46684,28042
30272,46639,27955
30202,46581,27859
30123,46503,27744
30048,46433,27643
29975,46376,27547
29894,46303,27421
29812,46222,27276
29741,46161,27156
29670,46114,27061
29586,46044,26952
29504,45960,26835
29433,45893,26741
29359,45833,26653
29271,45758,26539
29191,45684,26419
29131,45639,26329
29072,45605,26252
28998,45550,26154
28925,45482,26044
28865,45432,25957
28804,45392,25882
28739,45340,25803
28701,45302,25757
28702,45313,25775
28728,45355,25838
28780,45401,25924
28873,45474,26062
29009,45599,26273
29171,45749,26528
29362,45901,26808
29601,46088,27148
29879,46322,27562
30167,46570,28009
30466,46817,28462
30791,47084,28941
31125,47373,29446
31437,47640,29928
31726,47867,30364
32007,48088,30785
32268,48310,31198
32489,48497,31561
32680,48644,31866
32862,48786,32153
33022,48924,32421
33139,49028,32632
33222,49096,32782
33295,49161,32907
33356,49224,33013
33392,49257,33074
33418,49272,33107
33454,49301,33152
33485,49339,33201
33492,49350,33215
33494,49350,33208
33509,49374,33219
33522,49409,33234
33525,49420,33224
33535,49424,33207
33559,49446,33212
33571,49469,33217
33561,49464,33189
33545,49445,33152
33533,49439,33135
33507,49427,33111
33463,49385,33049
33424,49340,32979
33391,49320,32927
33350,49297,32869
33298,49246,32784
33246,49190,32690
33184,49145,32601
33099,49082,32489
32998,48991,32340
32908,48907,32192
32824,48842,32067
32725,48764,31934
32619,48664,31785
32524,48569,31651
32429,48486,31537
32321,48389,31409
32215,48280,31267
32131,48195,31150
32060,48140,31064
31984,48085,30978
31909,48025,30887
31853,47987,30821
31805,47969,30775
31751,47939,30712
31706,47898,30639
31684,47878,30590
31667,47872,30557
31635,47842,30506
31596,47796,30443
31561,47765,30401
31513,47735,30361
31445,47678,30289
31380,47612,30202
31339,47574,30137
31301,47548,30085
31244,47500,30011
31180,47441,29926
31120,47396,29856
31043,47345,29782
30946,47264,29677
30857,47179,29562
30789,47117,29467
30719,47060,29371
30642,46992,29252
30568,46929,29134
30496,46885,29035
30413,46838,28930
30325,46772,28801
30256,46717,28681
30203,46687,28585
30146,46658,28484
30092,46617,28366
30054,46585,28260
30017,46571,28173
29954,46539,28071
29876,46473,27945
29809,46409,27829
29753,46362,27737
29690,46307,27639
29626,46243,27530
29577,46200,27442
29529,46175,27376
29467,46132,27290
29399,46069,27182
29341,46014,27084
29279,45965,26995
29199,45897,26885
29117,45820,26765
29045,45764,26669
28966,45718,26588
28865,45648,26479
28765,45559,26349
28686,45488,26239
28610,45429,26142
28526,45358,26027
28455,45290,25910
28406,45251,25822
28355,45223,25743
28292,45177,25643
28233,45123,25535
28184,45089,25450
28132,45060,25368
28072,45009,25263
28018,44956,25162
27976,44924,25091
27926,44891,25025
27874,44848,24953
27842,44814,24905
27825,44804,24897
27817,44800,24909
27832,44800,24935
27896,44841,25020
28008,44938,25188
28146,45064,25406
28315,45205,25661
28533,45386,25982
28786,45611,26368
29059,45851,26786
29357,46097,27219
29688,46369,27690
30029,46661,28193
30354,46933,28682
30661,47173,29140
30957,47407,29589
31227,47634,30017
31455,47821,30381
31656,47966,30682
31843,48102,30957
32000,48226,31202
32116,48312,31387
32209,48371,31525
32287,48427,31653
32332,48470,31762
32339,48474,31823
32338,48459,31853
32345,48463,31889
32346,48479,31922
32331,48474,31918
32309,48459,31898
32286,48454,31895
32248,48437,31885
32192,48382,31836
32145,48320,31775
32110,48282,31735
32075,48255,31698
32039,48217,31646
32015,48188,31597
31994,48183,31564
31953,48172,31515
31890,48129,31431
31830,48081,31343
31769,48041,31261
31687,47986,31157
31598,47906,31021
31519,47833,30892
31437,47775,30783
31332,47699,30657
31218,47594,30500
