green_channel,red_channel,ir_channel
27800,3445,53481
27709,3352,53312
27620,3263,53151
27543,3187,53010
27483,3130,52897
27435,3086,52805
27396,3054,52734
27370,3037,52686
27353,3032,52661
27340,3029,52650
27336,3029,52652
27344,3038,52670
27363,3058,52704
27385,3081,52742
27409,3102,52776
27435,3120,52806
27454,3134,52826
27462,3137,52829
27462,3130,52813
27458,3119,52786
27449,3106,52749
27427,3087,52703
27397,3068,52655
27371,3057,52612
27347,3049,52577
27326,3039,52549
27314,3035,52532
27319,3044,52534
27338,3062,52552
27362,3084,52582
27388,3111,52625
27421,3147,52687
27459,3186,52760
27498,3222,52834
27540,3260,52914
27588,3304,52996
27636,3347,53072
27677,3380,53134
27712,3407,53189
27743,3431,53238
27765,3447,53274
27777,3456,53292
27783,3461,53299
27783,3465,53299
27774,3463,53288
27759,3455,53264
27746,3445,53231
27733,3433,53192
27711,3412,53144
27680,3380,53085
27647,3345,53017
27611,3306,52941
27566,3257,52851
27513,3197,52751
27458,3135,52648
27401,3072,52544
27336,3005,52431
27265,2933,52306
27192,2862,52175
27118,2795,52042
27041,2726,51908
26966,2659,51776
26899,2600,51652
26834,2543,51534
26766,2484,51415
26698,2427,51297
26637,2378,51189
26582,2334,51087
26525,2288,50982
26469,2240,50883
26418,2192,50791
26368,2144,50703
26321,2096,50616
26281,2054,50534
26250,2023,50462
26222,1995,50394
26194,1968,50327
26174,1943,50267
26156,1920,50216
26130,1894,50170
26098,1863,50123
26069,1835,50078
26045,1811,50038
26020,1786,50002
25993,1758,49964
25968,1735,49928
25947,1720,49900
25925,1703,49874
25901,1681,49840
25878,1661,49802
25860,1646,49764
25837,1630,49724
25809,1609,49681
25783,1589,49642
25760,1572,49607
25734,1552,49568
25707,1529,49526
25685,1505,49484
25664,1478,49443
25637,1446,49402
25607,1412,49359
25583,1386,49319
25564,1365,49282
25541,1341,49242
25515,1313,49202
25491,1289,49168
25464,1268,49136
25432,1245,49100
25403,1223,49062
25382,1208,49033
25366,1195,49012
25348,1177,48986
25328,1154,48955
25308,1134,48929
25287,1115,48902
25265,1096,48870
25251,1084,48839
25245,1078,48815
25238,1074,48796
25228,1067,48774
25221,1059,48750
25220,1053,48728
25215,1046,48704
25206,1034,48677
25198,1024,48650
25194,1019,48627
25185,1015,48602
25171,1009,48577
25158,1004,48560
25147,999,48549
25131,990,48534
25111,976,48512
25091,960,48490
25073,944,48472
25054,923,48451
25036,898,48419
25020,875,48383
25002,855,48349
24976,831,48315
24946,805,48278
24921,785,48244
24901,770,48215
24881,752,48183
24862,734,48147
24847,718,48116
24835,704,48093
24824,693,48075
24828,694,48075
24857,720,48111
24914,775,48193
25002,861,48337
25139,996,48569
25338,1196,48915
25600,1459,49376
25919,1773,49938
26292,2135,50587
26710,2540,51307
27154,2965,52063
27593,3380,52808
28011,3772,53508
28398,4133,54147
28743,4452,54710
29037,4724,55182
29285,4952,55565
29491,5136,55869
29649,5277,56098
29763,5375,56257
29845,5437,56357
29902,5471,56412
29927,5475,56421
29918,5452,56387
29886,5412,56319
29836,5362,56230
29771,5301,56123
29695,5228,55998
29612,5149,55865
29524,5069,55730
29436,4986,55591
29349,4906,55452
29273,4838,55322
29208,4781,55205
29150,4728,55099
29100,4682,55010
29061,4644,54940
29029,4611,54884
28999,4576,54836
28976,4545,54796
28965,4523,54770
28963,4509,54757
28962,4499,54756
28965,4499,54767
28980,4511,54789
28997,4527,54817
29010,4541,54838
29026,4554,54854
29046,4575,54872
29059,4595,54883
29065,4606,54882
29066,4610,54869
29057,4604,54845
29032,4583,54804
28993,4544,54744
28949,4499,54672
28906,4455,54595
28861,4408,54511
28811,4357,54424
28763,4309,54340
28721,4270,54269
28682,4235,54210
28649,4202,54161
28627,4180,54130
28617,4173,54120
28613,4175,54122
28615,4182,54131
28629,4194,54152
28655,4216,54184
28681,4241,54217
28704,4265,54246
28727,4286,54275
28746,4303,54308
28757,4315,54335
28766,4325,54356
28780,4337,54378
28795,4350,54402
28805,4358,54418
28807,4361,54422
28803,4362,54418
28792,4360,54403
28771,4346,54371
28744,4322,54322
28712,4289,54263
28669,4246,54190
28614,4194,54101
28552,4139,54000
28495,4084,53893
28437,4025,53782
28371,3957,53663
28300,3884,53539
28229,3815,53417
28156,3743,53295
28078,3667,53169
27999,3592,53041
27925,3523,52916
27850,3451,52788
27768,3372,52653
27682,3288,52515
27598,3208,52383
27516,3131,52255
27436,3054,52125
27359,2981,51994
27281,2914,51864
27198,2844,51734
27114,2771,51606
27038,2699,51487
26972,2634,51375
26908,2571,51264
26846,2512,51155
26795,2462,51053
26754,2422,50963
26714,2384,50878
26673,2348,50798
26636,2317,50729
26603,2291,50669
26572,2263,50613
26545,2236,50563
26525,2214,50520
26504,2193,50477
26478,2163,50427
26448,2129,50377
26420,2101,50334
26394,2079,50293
26367,2056,50251
26343,2033,50211
26329,2015,50180
26319,2002,50152
26302,1987,50116
26280,1969,50074
26261,1953,50035
26239,1937,50000
26208,1914,49961
26175,1890,49922
26145,1868,49886
26113,1840,49846
26078,1807,49796
26048,1779,49746
26030,1758,49704
26015,1742,49669
25997,1722,49632
25981,1701,49596
25968,1684,49567
25954,1668,49541
25934,1649,49509
25911,1632,49471
25884,1615,49429
25850,1591,49383
25812,1559,49335
25780,1531,49295
25757,1509,49265
25732,1482,49232
25705,1449,49189
25676,1419,49143
25645,1394,49101
25610,1365,49056
25571,1331,49004
25534,1298,48951
25497,1267,48902
25458,1232,48852
25423,1194,48801
25394,1160,48751
25368,1131,48703
25338,1101,48652
25304,1068,48602
25272,1041,48561
25245,1021,48525
25220,1004,48487
25195,987,48445
25177,973,48412
25163,962,48384
25148,949,48351
25133,936,48317
25123,930,48288
25111,924,48261
25093,910,48233
25076,894,48206
25065,884,48187
25057,874,48170
25046,858,48147
25036,841,48124
25029,831,48107
25023,823,48094
25018,817,48078
25018,816,48063
25022,820,48052
25023,825,48044
25017,829,48032
25011,835,48023
25009,843,48021
25006,848,48018
25002,843,48007
24998,835,47994
24992,827,47982
24980,815,47965
24965,799,47945
24953,787,47927
24943,778,47912
24928,762,47888
24909,741,47856
24890,723,47827
24875,711,47804
24855,695,47779
24830,675,47749
24806,657,47722
24789,644,47703
24775,632,47692
24775,632,47700
24801,657,47746
24860,714,47848
24955,806,48018
25102,949,48278
25318,1159,48656
25601,1439,49156
25940,1775,49763
26332,2157,50456
26768,2576,51216
27222,3010,52003
27667,3431,52767
28088,3824,53473
28472,4183,54105
28807,4498,54650
29083,4756,55098
29301,4959,55450
29469,5116,55718
29591,5224,55908
29670,5284,56021
29715,5307,56070
29729,5303,56070
29712,5272,56026
29669,5215,55942
29610,5140,55830
29539,5058,55699
29454,4969,55550
29358,4875,55389
29262,4783,55226
29165,4698,55068
29063,4610,54909
28954,4514,54747
28851,4417,54589
28756,4329,54440
28666,4244,54297
28580,4164,54163
28507,4100,54048
28450,4055,53952
28404,4020,53870
28371,3992,53800
28353,3974,53751
28349,3969,53723
28356,3969,53712
28374,3979,53722
28402,4001,53752
28431,4025,53793
28452,4046,53831
28470,4065,53866
28491,4088,53901
28511,4109,53929
28524,4121,53938
28530,4124,53930
28534,4125,53915
28530,4123,53893
28515,4111,53857
28494,4095,53814
28472,4082,53776
28448,4070,53741
28420,4053,53704
28398,4037,53671
28388,4027,53645
28382,4018,53623
28377,4007,53604
28379,4001,53595
28391,4006,53603
28407,4018,53621
28423,4030,53641
28439,4043,53667
28455,4062,53701
28468,4084,53737
28480,4105,53767
28494,4125,53796
28512,4144,53825
28526,4155,53852
28535,4157,53872
28544,4156,53889
28548,4152,53899
28541,4140,53891
28524,4120,53863
28502,4100,53825
28476,4078,53780
28440,4043,53722
28391,3994,53644
28330,3936,53549
28257,3867,53440
28175,3786,53315
28091,3701,53180
28008,3617,53040
27916,3530,52891
27810,3430,52727
27696,3321,52551
27583,3214,52376
27470,3107,52204
27352,2997,52027
27236,2887,51851
27129,2785,51679
27023,2684,51507
26919,2580,51329
26821,2479,51154
26733,2390,50993
26646,2307,50842
26558,2222,50694
26474,2142,50557
26396,2069,50433
26321,1996,50313
26246,1925,50194
26176,1857,50079
26111,1797,49976
26050,1742,49878
25994,1685,49782
25945,1632,49695
25901,1589,49621
25855,1552,49554
25809,1516,49489
25768,1485,49431
25731,1456,49381
25692,1422,49328
25652,1384,49271
25618,1348,49217
25586,1318,49168
25554,1289,49117
25521,1261,49060
25489,1236,49004
25455,1214,48952
25420,1191,48900
25387,1168,48851
25359,1149,48808
25330,1132,48768
25294,1106,48725
25255,1075,48680
25225,1051,48640
25210,1034,48605
25201,1018,48577
25192,1004,48556
25187,996,48545
25184,993,48539
25179,988,48531
25175,985,48523
25175,989,48515
25175,993,48502
25172,991,48484
25167,986,48466
25158,979,48452
25137,963,48436
25106,933,48409
25075,899,48377
25052,872,48351
25032,851,48325
25014,832,48295
25004,817,48264
24998,807,48237
24988,796,48210
24973,782,48181
24961,771,48152
24950,766,48125
24936,760,48095
24916,750,48060
24897,741,48026
24879,735,47997
24858,723,47964
24833,704,47928
24811,687,47896
24795,676,47872
24781,664,47849
24767,652,47827
24756,642,47808
24745,633,47791
24733,621,47769
24724,607,47748
24717,596,47730
24707,585,47713
24693,571,47692
24680,560,47674
24673,555,47662
24666,551,47651
24653,543,47632
24640,531,47610
24633,525,47595
24626,525,47586
24620,526,47576
24619,529,47564
24623,539,47556
24622,549,47549
24614,552,47539
24609,551,47528
24609,553,47523
24607,553,47517
24598,545,47511
24593,539,47511
24594,539,47517
24592,538,47521
24587,532,47519
24590,531,47518
24599,537,47522
24607,547,47523
24610,554,47513
24615,562,47498
24617,574,47485
24612,581,47471
24603,578,47454
24596,570,47439
24589,560,47427
24578,545,47415
24563,527,47402
24550,512,47393
24538,498,47381
24520,482,47361
24500,465,47338
24488,452,47321
24485,445,47313
24486,441,47312
24492,445,47322
24512,465,47359
24555,510,47439
24626,586,47571
24744,708,47776
24921,890,48081
25157,1131,48493
25445,1423,49003
25784,1759,49598
26165,2128,50259
26569,2511,50959
26972,2887,51660
27363,3245,52334
27731,3581,52961
28059,3880,53515
28332,4123,53975
28549,4312,54337
28713,4454,54608
28824,4554,54795
28891,4618,54906
28928,4651,54952
28937,4658,54949
28915,4639,54903
28865,4595,54818
28800,4536,54704
28723,4462,54568
28631,4371,54409
28528,4267,54227
28420,4160,54035
28315,4059,53846
28211,3959,53656
28107,3856,53467
28008,3755,53288
27917,3664,53124
27827,3581,52972
27741,3500,52828
27666,3428,52696
27602,3367,52580
27546,3314,52481
27500,3268,52395
27466,3233,52323
27435,3208,52266
27407,3188,52219
27390,3178,52184
27389,3183,52170
27399,3199,52174
27410,3217,52183
27421,3233,52195
27433,3249,52212
27441,3259,52224
27438,3256,52218
27424,3243,52194
27400,3227,52158
27369,3204,52110
27329,3171,52052
27292,3138,51992
27262,3110,51937
27234,3085,51888
27203,3059,51841
27178,3038,51803
27167,3030,51781
27162,3028,51770
27159,3029,51769
27168,3035,51783
27190,3052,51812
27219,3076,51850
27250,3104,51896
27286,3137,51950
27327,3180,52015
27368,3228,52090
27411,3276,52169
27460,3327,52249
27508,3380,52324
27546,3424,52388
27572,3452,52435
27593,3472,52472
27609,3486,52499
27614,3488,52505
27608,3478,52491
27597,3462,52465
27576,3441,52429
27540,3408,52376
27493,3363,52304
27445,3318,52223
27399,3276,52139
27348,3229,52049
27293,3181,51953
27237,3136,51853
27179,3088,51751
27113,3031,51641
27048,2971,51529
26990,2914,51418
26940,2857,51306
26887,2792,51188
26830,2725,51068
26771,2663,50951
26706,2603,50837
26635,2538,50724
26564,2474,50615
26501,2416,50515
26442,2360,50419
26387,2302,50321
26339,2248,50224
26295,2203,50134
26250,2159,50052
26202,2111,49972
26156,2066,49897
26114,2028,49830
26070,1992,49764
26025,1954,49699
25987,1921,49638
25956,1893,49582
25927,1865,49526
25895,1834,49470
25862,1806,49418
25831,1786,49374
25803,1768,49335
25779,1747,49295
25761,1729,49261
25745,1714,49233
25726,1695,49202
25704,1670,49166
25683,1643,49130
25659,1618,49098
25628,1591,49066
25596,1565,49032
25574,1546,49003
25558,1534,48981
25541,1520,48957
25525,1508,48932
25513,1503,48912
25499,1497,48892
25481,1485,48865
25466,1468,48836
25458,1453,48814
25453,1443,48796
25442,1431,48774
25428,1419,48749
25416,1411,48728
25402,1403,48706
25384,1387,48678
25366,1368,48645
25348,1348,48616
25325,1329,48587
25297,1307,48556
25274,1288,48524
25258,1272,48497
25243,1255,48472
25226,1234,48443
25211,1217,48414
25198,1204,48391
25186,1188,48369
25174,1171,48343
25165,1158,48319
25162,1155,48303
25160,1156,48290
25156,1156,48271
25153,1156,48252
25153,1159,48242
25150,1160,48237
25143,1157,48232
25138,1153,48227
25136,1152,48222
25132,1150,48211
25123,1146,48194
25114,1144,48178
25104,1143,48165
25086,1133,48146
25066,1115,48115
25048,1101,48081
25029,1087,48047
25008,1069,48014
24989,1052,47985
24978,1045,47968
24971,1044,47957
24960,1038,47941
24946,1026,47916
24937,1014,47893
24929,996,47873
24915,969,47845
24898,941,47814
24887,921,47791
24878,910,47773
24863,904,47755
24848,901,47740
24840,902,47736
24837,904,47743
24841,912,47765
24864,941,47815
24916,1001,47910
25003,1093,48059
25130,1220,48271
25309,1398,48573
25551,1637,48984
25851,1931,49495
26199,2266,50087
26590,2637,50741
27010,3034,51441
27434,3430,52151
27847,3810,52840
28235,4168,53484
28587,4494,54063
28888,4774,54554
29134,5003,54952
29332,5188,55269
29487,5328,55508
29595,5421,55669
29660,5472,55762
29695,5491,55800
29701,5487,55791
29680,5458,55736
29640,5410,55645
29585,5347,55528
29507,5269,55387
29405,5174,55223
29289,5066,55044
29173,4955,54858
29057,4840,54665
28934,4720,54466
28809,4601,54266
28692,4491,54076
28579,4390,53898
28468,4292,53727
28367,4201,53567
28285,4126,53430
28217,4067,53316
28155,4017,53220
28105,3976,53143
28067,3943,53083
28036,3913,53033
28010,3888,52989
27993,3872,52957
27981,3862,52936
27968,3852,52914
27953,3837,52885
27937,3821,52851
27918,3804,52818
27885,3780,52773
27839,3745,52710
27793,3706,52636
27747,3667,52562
27701,3627,52488
27658,3584,52411
27627,3546,52341
27603,3516,52286
27578,3490,52241
27558,3471,52207
27550,3467,52194
27554,3474,52202
27564,3483,52220
27579,3491,52244
27603,3504,52279
27631,3521,52325
27658,3541,52374
27687,3566,52425
27722,3598,52484
27755,3632,52546
27779,3659,52599
27804,3684,52646
27835,3711,52695
27864,3740,52741
27887,3764,52775
27905,3784,52797
27919,3802,52815
27927,3814,52825
27926,3813,52819
27919,3804,52798
27908,3790,52766
27888,3766,52720
27854,3729,52658
27810,3685,52583
27761,3640,52497
27702,3588,52398
27633,3527,52285
27563,3466,52167
27498,3409,52052
27431,3349,51936
27358,3279,51813
27283,3204,51685
27211,3132,51558
27135,3060,51431
27057,2988,51304
26981,2918,51181
26906,2849,51062
26830,2777,50942
26756,2703,50816
26690,2636,50693
26631,2577,50582
26569,2517,50476
26507,2455,50372
26455,2402,50279
26408,2357,50197
26356,2309,50115
26300,2253,50030
26246,2199,49950
26195,2151,49876
26145,2101,49805
26100,2051,49737
26062,2009,49675
26027,1971,49612
25990,1934,49542
25956,1901,49469
25932,1880,49407
25916,1868,49359
25898,1853,49315
25879,1836,49276
25863,1827,49245
25850,1823,49219
25835,1815,49190
25823,1807,49162
25814,1802,49138
25801,1793,49115
25783,1779,49087
25765,1763,49059
25750,1753,49038
25736,1743,49022
25716,1726,49001
25694,1707,48978
25674,1688,48956
25651,1664,48928
25622,1634,48894
25595,1605,48854
25572,1580,48815
25547,1555,48777
25518,1529,48739
25490,1504,48702
25463,1480,48666
25432,1453,48623
25400,1422,48575
25374,1395,48533
25355,1376,48501
25336,1360,48474
25316,1341,48446
25300,1324,48420
25288,1308,48398
25275,1291,48376
25262,1276,48350
25254,1266,48326
25248,1260,48306
25237,1249,48283
25224,1235,48258
25214,1222,48235
25204,1211,48212
25191,1197,48187
25181,1187,48164
25176,1184,48147
25171,1183,48135
25162,1177,48117
25149,1167,48096
25137,1161,48077
25125,1157,48060
25106,1149,48037
25086,1138,48010
25066,1128,47984
25041,1115,47957
25011,1096,47926
24982,1075,47894
24957,1054,47866
24933,1029,47838
24904,994,47804
24875,958,47769
24849,929,47738
24825,904,47708
24804,882,47682
24794,870,47666
24792,866,47662
24792,865,47660
24789,861,47652
24785,859,47641
24780,860,47630
24770,856,47617
24755,848,47599
24742,842,47584
24734,840,47573
24725,833,47560
24712,821,47541
24698,808,47521
24682,795,47503
24662,778,47481
24642,759,47455
24631,747,47434
24628,744,47419
24626,742,47405
24627,739,47391
24630,740,47385
24632,739,47382
24625,732,47378
24615,721,47373
24608,713,47370
24603,708,47365
24591,700,47355
24580,689,47344
24575,685,47338
24573,688,47338
24575,699,47343
24595,726,47370
24644,779,47444
24727,858,47578
24850,970,47776
25020,1130,48058
25242,1349,48445
25510,1621,48930
25820,1931,49492
26165,2270,50110
26536,2633,50762
26912,2998,51424
27279,3352,52071
27630,3683,52684
27958,3984,53246
28247,4247,53735
28489,4467,54136
28690,4647,54451
28845,4789,54685
28949,4885,54840
29006,4937,54926
29033,4958,54957
29036,4955,54942
29013,4926,54882
28969,4873,54788
28915,4807,54670
28851,4736,54536
28771,4658,54385
28680,4573,54219
28585,4484,54045
28487,4390,53870
28380,4288,53692
28269,4184,53510
28160,4084,53334
28055,3989,53168
27952,3896,53007
27856,3811,52856
27775,3737,52723
27707,3672,52608
27654,3616,52509
27621,3578,52435
27608,3569,52393
27608,3582,52377
27614,3603,52382
27627,3632,52404
27650,3667,52439
27680,3697,52473
27708,3717,52501
27734,3731,52522
27755,3742,52541
27763,3743,52549
27756,3729,52538
27741,3704,52511
27718,3672,52471
27683,3635,52418
27640,3589,52350
27599,3542,52279
27561,3501,52213
27524,3467,52153
27487,3439,52099
27458,3420,52055
27441,3408,52024
27427,3397,51999
27415,3384,51979
27411,3376,51969
27415,3377,51971
27416,3380,51977
27413,3380,51984
27411,3382,51993
27409,3386,52003
27404,3388,52012
27402,3389,52022
27407,3393,52037
27411,3399,52052
27406,3399,52058
27394,3392,52056
27379,3381,52046
27357,3363,52025
27324,3333,51990
27281,3292,51943
27239,3249,51889
27197,3203,51826
27151,3150,51746
27104,3095,51653
27062,3045,51558
27017,2999,51464
26962,2948,51366
26902,2894,51260
26842,2839,51151
26780,2781,51038
26712,2718,50920
26645,2654,50803
26578,2595,50689
26508,2534,50573
26436,2469,50449
26368,2405,50328
26306,2347,50218
26245,2293,50114
26185,2239,50014
26129,2190,49921
26080,2146,49841
26036,2104,49768
25994,2061,49698
25958,2023,49633
25926,1994,49571
25896,1969,49510
25873,1947,49451
25862,1929,49401
25855,1915,49358
25843,1896,49314
25824,1872,49267
25805,1848,49223
25784,1824,49180
25757,1797,49134
25728,1769,49084
25702,1746,49040
25680,1727,49003
25656,1703,48967
25630,1677,48926
25609,1655,48889
25589,1638,48857
25565,1620,48824
25542,1603,48791
25524,1592,48763
25509,1582,48740
25493,1569,48716
25483,1557,48692
25478,1551,48673
25470,1547,48660
25454,1534,48641
25433,1518,48618
25412,1503,48596
25388,1485,48573
25356,1460,48545
25325,1435,48518
25301,1414,48495
25278,1393,48467
25253,1367,48432
25229,1345,48397
25209,1330,48365
25191,1317,48336
25172,1303,48306
25154,1291,48276
25138,1281,48251
25121,1270,48228
25102,1255,48205
25087,1244,48187
25077,1235,48173
25065,1223,48157
25051,1207,48137
25041,1194,48115
25034,1183,48096
25025,1168,48074
25014,1151,48050
25006,1140,48028
24999,1131,48007
24987,1118,47983
24970,1100,47955
24952,1082,47928
24935,1064,47903
24915,1046,47880
24899,1033,47860
24889,1028,47846
24878,1026,47835
24865,1021,47820
24856,1017,47805
24852,1014,47795
24847,1010,47787
24838,1002,47777
24835,999,47764
24842,1004,47756
24849,1008,47751
24850,1006,47741
24851,1005,47729
24856,1009,47724
24857,1015,47720
24852,1017,47711
24847,1016,47702
24845,1014,47697
24839,1009,47690
24828,1000,47678
24816,990,47668
24808,984,47664
24803,976,47660
24798,967,47650
24795,964,47642
24790,964,47636
24779,958,47626
24761,944,47610
24747,930,47596
24738,923,47585
24727,917,47572
24717,910,47557
24715,909,47546
24715,912,47540
24712,912,47533
24705,906,47521
24699,898,47512
24692,891,47503
24682,885,47489
24674,880,47473
24673,881,47462
24672,881,47455
24663,874,47446
24651,860,47433
24640,846,47421
24626,830,47407
24606,811,47389
24587,791,47374
24574,775,47366
24560,762,47362
24539,748,47352
24522,740,47340
24516,744,47337
24522,758,47343
24540,778,47362
24579,812,47407
24645,871,47492
24739,961,47626
24862,1085,47821
25024,1249,48092
25235,1460,48449
25486,1709,48885
25767,1989,49387
26078,2296,49940
26408,2621,50526
26744,2948,51121
27071,3263,51701
27384,3559,52250
27673,3828,52749
27926,4059,53182
28135,4248,53538
28303,4397,53822
28430,4508,54034
28512,4577,54172
28550,4603,54239
28556,4599,54244
28533,4569,54195
28481,4515,54100
28404,4442,53966
28313,4360,53806
28213,4270,53627
28100,4170,53432
27980,4060,53226
27863,3947,53020
27747,3834,52817
27631,3720,52614
27518,3609,52414
27410,3509,52226
27305,3415,52050
27202,3321,51882
27106,3233,51726
27024,3155,51586
26951,3087,51458
26885,3023,51339
26830,2965,51235
26789,2921,51152
26758,2887,51089
26727,2856,51038
26705,2832,51003
26695,2824,50985
26688,2826,50976
26680,2831,50966
26678,2837,50952
26677,2843,50935
26669,2844,50914
26652,2833,50882
26630,2815,50842
26606,2794,50798
26576,2766,50746
26541,2733,50685
26506,2702,50627
26476,2678,50582
26451,2658,50546
26433,2639,50518
26425,2625,50504
26427,2621,50505
26434,2624,50518
26448,2634,50540
26475,2660,50578
26515,2703,50636
26565,2753,50703
26622,2807,50774
26681,2864,50852
26734,2917,50933
26782,2963,51008
26833,3006,51080
26890,3055,51155
26944,3106,51231
26988,3149,51296
27023,3181,51347
27054,3211,51388
27078,3235,51418
27086,3244,51430
27079,3238,51425
27066,3227,51412
27049,3210,51388
27022,3184,51347
26987,3152,51290
26949,3117,51223
26901,3074,51143
26845,3025,51050
26791,2976,50954
26741,2928,50861
26690,2878,50769
26637,2825,50674
26587,2774,50584
26543,2731,50499
26501,2692,50415
26458,2649,50325
26416,2607,50233
26377,2568,50146
26334,2527,50062
26288,2483,49978
26243,2443,49900
26202,2409,49834
26161,2375,49771
26119,2336,49706
26079,2300,49643
26040,2268,49585
26003,2236,49530
25971,2204,49478
25945,2176,49434
25920,2151,49396
25896,2126,49356
25873,2104,49312
25856,2086,49269
25840,2067,49226
25817,2042,49180
25792,2016,49135
25768,1991,49093
25742,1965,49055
25711,1935,49016
25682,1908,48977
25660,1889,48943
25642,1873,48913
25626,1855,48883
25612,1840,48854
25604,1832,48834
25598,1825,48821
25589,1814,48809
25579,1804,48797
25576,1801,48790
25573,1802,48785
25565,1802,48776
25558,1801,48765
25555,1803,48756
25551,1802,48744
25541,1792,48724
25531,1780,48704
25521,1768,48689
25504,1751,48670
25481,1729,48642
25458,1711,48614
25438,1698,48592
25417,1680,48569
25397,1657,48544
25386,1640,48524
25384,1633,48510
25382,1629,48496
25377,1624,48481
25376,1621,48472
25379,1622,48467
25378,1619,48460
25374,1612,48447
25372,1606,48437
25369,1605,48430
25362,1600,48423
25354,1595,48416
25351,1594,48412
25349,1595,48408
25343,1591,48396
25337,1583,48376
25333,1576,48355
25323,1568,48332
25305,1557,48305
25288,1546,48281
25281,1542,48263
25279,1540,48251
25276,1538,48238
25272,1537,48223
25272,1540,48212
25271,1542,48202
25263,1537,48189
25253,1527,48173
25245,1519,48159
25239,1510,48147
25227,1496,48131
25212,1481,48111
25201,1470,48094
25190,1461,48076
25179,1448,48055
25173,1437,48034
25167,1430,48017
25160,1423,48004
25150,1416,47990
25144,1411,47979
25140,1408,47971
25133,1400,47962
25123,1387,47950
25116,1376,47940
25113,1369,47932
25105,1362,47919
25091,1354,47900
25078,1351,47884
25067,1351,47871
25049,1347,47855
25028,1339,47837
25012,1330,47825
25002,1320,47821
24992,1309,47822
24987,1305,47830
25000,1314,47857
25030,1343,47908
25078,1390,47987
25157,1462,48108
25279,1574,48293
25442,1727,48556
25645,1922,48896
25895,2162,49316
26190,2448,49814
26518,2768,50376
26864,3106,50973
27220,3449,51588
27580,3790,52203
27923,4114,52792
28234,4408,53326
28509,4663,53788
28745,4880,54176
28934,5055,54485
29075,5181,54713
29172,5264,54872
29230,5312,54969
29247,5325,55003
29230,5302,54979
29189,5257,54912
29129,5196,54815
29048,5120,54689
28955,5032,54542
28863,4942,54384
28773,4853,54221
28677,4760,54049
28574,4661,53869
28472,4565,53690
28371,4473,53513
28271,4380,53336
28177,4285,53166
28093,4197,53015
28015,4118,52882
27941,4044,52761
27874,3972,52650
27819,3913,52550
27771,3866,52464
27728,3825,52387
27692,3790,52319
27664,3762,52263
27637,3740,52218
27614,3720,52183
27602,3709,52158
27602,3707,52142
27603,3703,52126
27594,3692,52100
27576,3677,52064
27553,3662,52021
27523,3640,51970
27485,3606,51909
27443,3569,51847
27407,3539,51788
27377,3515,51730
27346,3490,51672
27320,3469,51618
27299,3453,51574
27282,3440,51543
27273,3432,51521
27277,3434,51513
27293,3447,51526
27312,3462,51553
27332,3481,51588
27359,3509,51631
27390,3544,51679
27418,3576,51727
27442,3600,51772
27466,3618,51814
27487,3635,51854
27503,3649,51886
27513,3659,51910
27521,3671,51929
27526,3684,51945
27524,3688,51950
27513,3681,51942
27499,3670,51926
27480,3656,51903
27454,3633,51867
27420,3601,51817
27385,3566,51761
27345,3529,51697
27294,3484,51618
27236,3430,51523
27176,3373,51421
27112,3313,51311
27043,3245,51191
26972,3174,51069
26905,3105,50952
26834,3038,50835
26760,2968,50714
26686,2899,50594
26616,2835,50481
26547,2770,50371
26476,2703,50260
26410,2636,50152
26352,2574,50053
26297,2514,49959
26245,2455,49865
26196,2402,49776
26154,2360,49701
26116,2326,49637
26079,2291,49574
26043,2260,49512
26011,2233,49456
25978,2202,49405
25946,2168,49351
25919,2138,49298
25897,2117,49253
25873,2099,49210
25848,2078,49168
25828,2062,49128
25817,2055,49095
25804,2044,49064
25789,2028,49030
25775,2013,48998
25766,2001,48973
25758,1991,48955
25751,1983,48940
25744,1982,48925
25737,1981,48909
25728,1972,48890
25722,1958,48869
25721,1948,48852
25718,1940,48839
25710,1928,48822
25703,1917,48802
25697,1913,48784
25690,1910,48767
25677,1901,48745
25663,1886,48721
25651,1876,48704
25638,1868,48692
25618,1855,48680
25596,1838,48667
25574,1822,48653
25550,1803,48634
25522,1779,48607
25493,1756,48579
25470,1741,48560
25453,1728,48543
25436,1713,48522
25423,1701,48502
25417,1698,48489
25413,1698,48480
25410,1692,48469
25408,1685,48457
25410,1683,48449
25413,1684,48441
25412,1684,48430
25408,1684,48417
25402,1681,48405
25393,1672,48390
25382,1660,48373
25376,1655,48357
25373,1652,48343
25367,1644,48328
25360,1635,48317
25362,1632,48310
25369,1634,48302
25373,1632,48290
25375,1628,48275
25375,1628,48263
25374,1630,48253
25367,1629,48240
25356,1624,48224
25339,1617,48210
25314,1608,48196
25286,1593,48179
25260,1574,48161
25242,1559,48146
25230,1546,48127
25218,1531,48101
25207,1519,48075
25199,1509,48054
25189,1496,48034
25177,1481,48014
25165,1470,47998
25155,1465,47987
25145,1461,47975
25137,1456,47960
25135,1453,47951
25135,1452,47946
25133,1451,47942
25128,1446,47935
25125,1438,47928
25122,1433,47920
25119,1429,47911
25115,1426,47905
25114,1427,47905
25110,1428,47899
25102,1423,47885
25094,1415,47868
25088,1406,47852
25082,1398,47838
25073,1389,47823
25061,1377,47806
25047,1368,47792
25033,1361,47779
25017,1353,47764
25002,1342,47750
24988,1330,47743
24973,1315,47737
24958,1297,47730
24944,1281,47725
24932,1270,47720
24920,1259,47707
24906,1249,47689
24897,1245,47678
24899,1249,47681
24918,1265,47702
24954,1294,47746
25013,1342,47828
25102,1419,47966
25221,1532,48168
25378,1683,48440
25584,1877,48790
25837,2120,49220
26120,2399,49713
26423,2701,50249
26744,3020,50815
27073,3344,51396
27393,3654,51966
27696,3943,52501
27975,4206,52987
28227,4442,53418
28443,4640,53782
28614,4794,54068
28744,4906,54282
28839,4984,54428
28893,5026,54508
28909,5035,54525
28898,5021,54494
28864,4984,54425
28805,4924,54316
28724,4845,54170
28631,4755,53997
28531,4657,53810
28419,4548,53608
28296,4433,53396
28174,4318,53182
28054,4203,52973
27931,4085,52762
27810,3969,52557
27697,3863,52366
27594,3768,52192
27494,3679,52033
27401,3598,51889
27324,3530,51765
27265,3474,51660
27215,3425,51571
27177,3386,51497
27155,3363,51446
27145,3354,51416
27136,3348,51395
27129,3343,51380
27125,3343,51373
27120,3344,51366
27109,3341,51352
27098,3339,51335
27091,3335,51319
27080,3326,51296
27061,3307,51258
27040,3285,51212
27018,3265,51167
26993,3242,51122
26966,3213,51072
26940,3187,51025
26919,3168,50988
26898,3149,50956
26873,3127,50926
26851,3110,50903
26837,3101,50890
26829,3095,50885
26828,3094,50889
26842,3103,50902
26866,3123,50927
26893,3145,50955
26918,3166,50982
26945,3190,51014
26972,3216,51049
26992,3236,51079
27005,3251,51102
27016,3264,51123
27023,3274,51139
27020,3272,51142
27006,3257,51132
26987,3236,51117
26964,3212,51097
26936,3180,51066
26906,3144,51021
26875,3110,50967
26839,3077,50907
26793,3038,50835
26741,2994,50755
26687,2949,50673
26629,2902,50588
26567,2849,50493
26507,2793,50394
26452,2740,50299
26398,2686,50203
26337,2625,50104
26278,2564,50005
26226,2507,49911
26175,2453,49818
26119,2397,49725
26064,2343,49638
26017,2294,49559
25974,2250,49487
25929,2207,49416
25890,2169,49349
25858,2138,49288
25827,2107,49229
25796,2072,49169
25767,2040,49112
25742,2015,49061
25716,1991,49011
25692,1966,48961
25674,1945,48919
25661,1930,48887
25645,1915,48858
25625,1896,48826
25608,1877,48797
25592,1864,48773
25574,1849,48749
25557,1831,48724
25548,1821,48706
25544,1817,48691
25535,1814,48673
25524,1811,48652
25517,1811,48636
25509,1810,48621
25494,1799,48602
25477,1783,48585
25465,1772,48571
25455,1765,48558
25439,1751,48540
25416,1734,48518
25393,1718,48497
25370,1704,48477
25346,1684,48451
25326,1662,48423
25312,1644,48401
25302,1629,48385
25291,1615,48367
25282,1604,48348
25275,1600,48332
25265,1596,48313
25252,1590,48293
25245,1588,48278
25244,1591,48268
25245,1596,48259
25245,1599,48247
25244,1604,48237
25245,1608,48231
25241,1604,48223
25234,1593,48212
25225,1582,48200
25214,1574,48188
25204,1567,48173
25195,1557,48154
25188,1545,48136
25183,1536,48123
25178,1530,48113
25174,1526,48102
25176,1525,48089
25180,1525,48077
25184,1525,48063
25186,1526,48053
25188,1532,48051
25184,1537,48049
25175,1537,48042
25165,1535,48031
25154,1529,48022
25142,1521,48013
25131,1513,48005
25123,1508,47999
25121,1508,47998
25120,1511,47995
25117,1511,47988
25117,1512,47980
25122,1515,47977
25129,1516,47973
25133,1515,47965
25140,1519,47959
25151,1528,47960
25158,1535,47961
25160,1538,47960
25159,1542,47963
25154,1547,47968
25143,1549,47969
25131,1545,47964
25123,1537,47953
25121,1531,47941
25119,1525,47932
25118,1518,47925
25119,1513,47917
25124,1512,47908
25127,1515,47901
25129,1521,47899
25131,1530,47900
25132,1539,47902
25126,1544,47902
25114,1543,47903
25101,1538,47902
25087,1529,47894
25070,1516,47879
25055,1499,47862
25044,1484,47850
25035,1474,47839
25025,1465,47827
25017,1457,47813
25015,1453,47802
25013,1452,47790
25007,1449,47775
25003,1444,47762
25001,1440,47754
24995,1434,47747
24983,1422,47736
24968,1408,47723
24955,1395,47711
24941,1382,47697
24923,1369,47682
24904,1358,47668
24887,1349,47657
24870,1339,47646
24851,1328,47632
24835,1316,47619
24824,1310,47613
24819,1307,47610
24822,1308,47614
24839,1319,47629
24874,1350,47667
24926,1399,47736
25001,1468,47844
25110,1568,48007
25254,1707,48236
25431,1881,48530
25639,2086,48888
25881,2328,49310
26153,2600,49788
26444,2883,50299
26743,3165,50821
27042,3445,51343
27333,3721,51852
27603,3979,52328
27844,4206,52753
28056,4401,53122
28236,4565,53434
28375,4689,53675
28468,4768,53839
28524,4812,53937
28546,4826,53980
28536,4813,53966
28498,4773,53901
28441,4717,53795
28366,4647,53657
28273,4563,53491
28169,4468,53304
28061,4365,53109
27946,4257,52907
27823,4141,52698
27697,4024,52484
27574,3910,52273
27456,3800,52068
27342,3689,51869
27238,3582,51682
27145,3488,51513
27059,3403,51358
26977,3321,51212
26904,3246,51080
26843,3183,50968
26790,3130,50874
26744,3085,50795
26712,3055,50734
26694,3042,50694
26685,3041,50666
26676,3040,50640
26669,3040,50621
26666,3045,50610
26661,3049,50597
26649,3046,50575
26632,3036,50546
26614,3021,50516
26591,3002,50485
26565,2977,50450
26541,2953,50414
26523,2934,50385
26509,2918,50361
26498,2907,50341
26497,2910,50333
26508,2925,50338
26523,2943,50349
26538,2961,50363
26557,2982,50385
26580,3007,50416
26605,3028,50448
26631,3046,50479
26660,3066,50517
26688,3092,50563
26711,3120,50612
26734,3150,50661
26763,3186,50715
26795,3225,50772
26824,3257,50822
26848,3280,50863
26868,3296,50897
26883,3305,50921
26888,3305,50929
26880,3297,50921
26864,3282,50899
26834,3253,50862
26791,3209,50808
26741,3155,50736
26689,3097,50656
26632,3040,50566
26568,2982,50469
26502,2921,50373
26441,2861,50281
26383,2803,50188
26326,2744,50093
26278,2688,50000
26241,2644,49915
26208,2608,49836
26173,2574,49760
26141,2542,49689
26111,2519,49626
26076,2497,49567
26037,2470,49507
26003,2442,49452
25973,2415,49401
25941,2385,49347
25907,2351,49287
25878,2320,49228
25851,2292,49176
25819,2259,49125
25786,2225,49071
25759,2195,49024
25737,2173,48985
25716,2154,48947
25693,2135,48910
25673,2119,48876
25654,2104,48846
25634,2086,48817
25617,2066,48786
25606,2051,48757
25597,2039,48730
25582,2025,48701
25563,2011,48672
25546,2002,48652
25532,1996,48637
25518,1989,48616
25507,1979,48590
25501,1976,48569
25495,1972,48553
25482,1960,48533
25466,1944,48510
25452,1928,48491
25434,1909,48470
25412,1888,48444
25393,1871,48420
25381,1860,48404
25369,1849,48390
25353,1833,48371
25336,1818,48353
25325,1810,48343
25316,1808,48333
25308,1805,48320
25304,1802,48311
25303,1798,48306
25299,1791,48297
25294,1780,48279
25292,1772,48263
25292,1769,48251
25284,1760,48235
25266,1742,48214
25248,1720,48191
25231,1700,48166
25207,1678,48135
25178,1652,48101
25156,1631,48073
25140,1618,48057
25126,1605,48045
25112,1593,48031
25101,1587,48021
25090,1586,48016
25077,1585,48009
25068,1584,47999
25067,1587,47993
25070,1591,47990
25068,1589,47984
25060,1581,47975
25051,1575,47966
25045,1572,47957
25041,1567,47946
25043,1565,47938
25052,1572,47936
25061,1581,47937
25064,1585,47930
25066,1585,47920
25067,1586,47913
25061,1577,47904
25044,1558,47891
25028,1541,47877
25017,1529,47866
25004,1520,47857
24984,1510,47845
24965,1501,47837
24952,1496,47835
24944,1490,47835
24937,1484,47833
24932,1476,47830
24925,1467,47820
24913,1457,47806
24900,1446,47795
24892,1438,47786
24888,1433,47776
24884,1427,47763
24880,1421,47750
24878,1417,47739
24873,1410,47726
24862,1395,47709
24851,1378,47694
24843,1367,47687
24838,1363,47685
24834,1364,47688
24835,1371,47700
24853,1393,47735
24892,1434,47799
24951,1495,47896
25038,1581,48035
25160,1697,48229
25316,1845,48478
25499,2024,48781
25712,2233,49141
25954,2473,49558
26215,2732,50015
26480,2995,50491
26744,3253,50967
27007,3504,51431
27257,3739,51867
27479,3944,52258
27672,4120,52597
27836,4272,52885
27965,4395,53117
28054,4482,53283
28109,4531,53386
28138,4551,53435
28141,4545,53433
28124,4518,53386
28095,4481,53305
28050,4434,53196
27981,4372,53060
27894,4295,52899
27800,4213,52729
27701,4127,52556
27594,4033,52375
27482,3930,52187
27374,3828,52003
27272,3727,51824
27172,3625,51646
27068,3523,51469
26968,3427,51299
26876,3342,51143
26792,3266,51002
26723,3200,50878
26672,3149,50778
26631,3106,50696
26594,3067,50625
26565,3034,50567
26548,3013,50526
26539,3002,50498
26531,2993,50475
26528,2985,50448
26527,2983,50422
26522,2983,50396
26508,2974,50362
26490,2960,50327
26474,2946,50295
26457,2932,50265
26438,2913,50233
26425,2895,50201
26419,2884,50174
26411,2875,50151
26398,2862,50128
26388,2851,50110
26384,2846,50101
26382,2844,50096
26380,2841,50093
26384,2843,50097
26395,2854,50113
26407,2869,50135
26414,2881,50159
26425,2896,50183
26440,2915,50213
26455,2933,50242
26470,2950,50266
26490,2969,50288
26512,2991,50311
26526,3008,50330
26531,3017,50341
26535,3020,50347
26535,3019,50346
26523,3008,50334
26504,2988,50310
26484,2965,50279
26463,2944,50246
26432,2917,50204
26392,2881,50149
26352,2843,50090
26313,2807,50030
26272,2768,49965
26229,2722,49896
26186,2676,49829
26143,2632,49761
26097,2586,49688
26050,2540,49613
26008,2498,49540
25967,2456,49464
25922,2409,49383
25877,2360,49301
25835,2318,49229
25793,2279,49164
25746,2236,49098
25701,2194,49036
25660,2159,48981
25621,2125,48931
25582,2089,48881
25547,2055,48833
25519,2028,48791
25493,2005,48754
25467,1978,48717
25447,1951,48684
25436,1931,48657
25425,1916,48627
25410,1900,48593
25397,1889,48564
25388,1885,48545
25377,1882,48531
25363,1874,48515
25351,1864,48499
25340,1858,48485
25326,1853,48465
25311,1844,48436
25300,1836,48409
25292,1832,48388
25283,1828,48365
25275,1821,48342
25270,1815,48323
25265,1810,48308
25256,1803,48292
25246,1794,48276
25240,1791,48266
25237,1791,48258
25234,1789,48249
25232,1783,48241
25236,1781,48238
25241,1781,48235
25244,1777,48227
25248,1773,48220
25257,1775,48219
25263,1777,48217
25263,1775,48210
25263,1771,48200
25270,1776,48196
25278,1786,48195
25275,1791,48189
25267,1791,48178
25261,1792,48172
25255,1790,48169
25248,1784,48165
25241,1781,48158
25237,1785,48152
25233,1790,48145
25230,1795,48139
25231,1800,48140
25236,1804,48142
25240,1800,48140
25243,1793,48134
25246,1789,48129
25249,1790,48127
25251,1792,48123
25252,1794,48117
25254,1801,48113
25256,1813,48113
25255,1826,48114
25253,1835,48115
25255,1844,48118
25257,1849,48119
25254,1847,48113
25246,1840,48105
25239,1836,48101
25236,1836,48100
25235,1835,48097
25233,1832,48092
25233,1830,48087
25234,1826,48081
25229,1819,48072
25226,1809,48059
25228,1803,48048
25234,1799,48037
25235,1792,48023
25231,1785,48010
25226,1778,48002
25217,1773,47997
25207,1766,47994
25202,1761,47995
25204,1761,48000
25208,1760,48004
25207,1753,48000
25208,1744,47991
25214,1741,47983
25217,1738,47974
25213,1735,47962
25208,1735,47953
25204,1738,47952
25200,1739,47950
25191,1736,47941
25180,1730,47929
25169,1723,47920
25155,1710,47910
25138,1692,47894
25121,1673,47878
25106,1660,47866
25090,1648,47852
25072,1636,47837
25055,1626,47825
25042,1619,47814
25031,1613,47803
25024,1608,47798
25023,1606,47797
25024,1611,47799
25025,1617,47804
25037,1628,47822
25071,1662,47873
25130,1726,47972
25220,1814,48122
25344,1931,48324
25506,2084,48590
25700,2271,48920
25919,2488,49304
26160,2730,49734
26419,2988,50199
26679,3246,50676
26930,3490,51139
27167,3716,51576
27387,3927,51983
27583,4113,52351
27747,4267,52665
27878,4391,52922
27985,4487,53124
28063,4553,53266
28109,4586,53346
28129,4591,53371
28131,4579,53354
28111,4548,53298
28071,4499,53207
28018,4438,53093
27952,4371,52960
27868,4290,52804
27768,4196,52625
27663,4093,52434
27555,3989,52239
27440,3882,52039
27319,3768,51833
27204,3655,51631
27098,3552,51442
26996,3456,51266
26902,3367,51102
26822,3290,50955
26751,3220,50824
26684,3155,50703
26620,3096,50594
26567,3052,50507
26528,3022,50444
26495,3000,50393
26470,2984,50348
26457,2975,50317
26452,2971,50297
26444,2965,50279
26434,2959,50260
26425,2953,50241
26412,2941,50218
26390,2914,50185
26362,2880,50147
26337,2851,50109
26313,2827,50073
26286,2801,50035
26261,2776,49998
26243,2758,49969
26227,2746,49944
26213,2738,49923
26207,2738,49912
26211,2748,49916
26222,2761,49930
26235,2773,49948
26252,2791,49970
26276,2820,50001
26301,2850,50037
26322,2875,50068
26342,2893,50094
26360,2904,50118
26367,2904,50132
26362,2895,50135
26354,2886,50133
26347,2881,50130
26335,2873,50119
26317,2858,50101
26305,2845,50082
26297,2838,50066
26283,2827,50045
26263,2810,50018
26247,2795,49988
26235,2785,49956
26219,2768,49916
26199,2746,49870
26184,2725,49825
26172,2706,49785
26154,2685,49741
26132,2661,49691
26113,2639,49641
26095,2619,49593
26076,2599,49541
26057,2578,49487
26035,2558,49436
26006,2533,49386
25967,2500,49333
25929,2464,49278
25898,2431,49228
25869,2403,49181
25836,2370,49127
25803,2334,49071
25778,2305,49017
25757,2280,48965
25734,2257,48913
25713,2236,48866
25696,2220,48830
25676,2205,48803
25653,2189,48777
25631,2174,48756
25613,2166,48740
25597,2155,48723
25579,2138,48698
25560,2117,48670
25544,2099,48644
25525,2079,48616
25504,2054,48584
25485,2031,48553
25472,2016,48528
25456,2001,48504
25438,1982,48476
25423,1969,48451
25412,1962,48433
25398,1955,48414
25383,1945,48393
25372,1938,48378
25366,1935,48369
25357,1927,48358
25346,1915,48343
25337,1904,48328
25327,1895,48314
25313,1887,48301
25299,1878,48291
25291,1872,48284
25283,1868,48274
25272,1859,48258
25262,1848,48242
25255,1842,48232
25250,1839,48228
25241,1834,48220
25233,1826,48208
25230,1821,48199
25228,1817,48193
25221,1809,48181
25214,1799,48168
25213,1790,48163
25212,1783,48159
25209,1775,48153
25207,1769,48148
25207,1766,48148
25204,1759,48144
25196,1749,48133
25189,1740,48122
25186,1736,48116
25179,1735,48110
25168,1734,48099
25157,1736,48088
25150,1743,48083
25142,1746,48079
25133,1743,48067
25127,1738,48052
25122,1734,48041
25115,1726,48030
25105,1711,48017
25099,1699,48007
25095,1693,48004
25090,1686,48001
25086,1678,47995
25090,1678,47994
25098,1686,47998
25102,1694,48000
25107,1703,48000
25117,1716,48005
25125,1728,48013
25125,1734,48012
25120,1732,48002
25114,1730,47993
25109,1727,47985
25102,1719,47972
25095,1710,47958
25093,1703,47951
25090,1696,47948
25082,1682,47941
25072,1664,47932
25065,1649,47926
25058,1637,47919
25050,1626,47908
25048,1621,47899
25053,1625,47902
25056,1631,47909
25052,1630,47908
25047,1628,47902
25044,1629,47899
25038,1627,47899
25031,1622,47893
25030,1620,47886
25033,1624,47882
25033,1627,47880
25031,1627,47878
25034,1630,47877
25039,1635,47880
25041,1637,47879
25044,1641,47876
25055,1657,47880
25070,1683,47892
25088,1712,47910
25109,1740,47934
25140,1773,47975
25183,1815,48032
25234,1862,48104
25295,1917,48198
25377,1996,48329
25484,2103,48508
25613,2234,48734
25769,2386,49006
25951,2565,49327
26152,2765,49689
26360,2973,50074
26571,3182,50464
26783,3388,50846
26987,3582,51208
27170,3754,51537
27331,3904,51830
27466,4033,52083
27571,4137,52290
27642,4208,52440
27686,4249,52533
27710,4271,52579
27712,4273,52577
27683,4245,52529
27631,4194,52442
27564,4127,52326
27483,4049,52184
27391,3958,52019
27295,3858,51841
27200,3756,51659
27101,3653,51474
27001,3550,51287
26908,3453,51108
26824,3367,50941
26739,3285,50784
26653,3206,50634
26577,3134,50499
26514,3073,50381
26457,3018,50276
26402,2963,50178
26355,2920,50096
26320,2890,50033
26289,2866,49981
26263,2844,49937
26243,2829,49904
26227,2818,49879
26216,2805,49855
26210,2792,49832
26210,2787,49815
26212,2787,49803
26209,2784,49788
26202,2776,49770
26199,2770,49757
26195,2768,49750
26189,2767,49741
26187,2767,49731
26195,2772,49729
26209,2783,49737
26225,2797,49749
26247,2815,49766
26275,2842,49796
26303,2871,49835
26326,2894,49873
26350,2917,49908
26380,2944,49947
26409,2973,49988
26434,2999,50024
26460,3023,50057
26489,3049,50089
26514,3068,50117
26531,3075,50137
26543,3077,50153
26555,3081,50167
26559,3085,50177
26554,3085,50180
26545,3082,50180
26537,3078,50179
26526,3071,50174
26508,3055,50156
26486,3032,50128
26463,3006,50094
26435,2977,50055
26401,2943,50006
26367,2909,49954
26332,2872,49901
26291,2830,49842
26246,2787,49779
26206,2749,49717
26171,2716,49656
26135,2685,49589
26099,2658,49522
26072,2641,49465
26053,2628,49419
26036,2612,49376
26021,2594,49332
26009,2579,49292
25995,2563,49258
25975,2543,49224
25951,2522,49188
25930,2505,49156
25908,2488,49125
25883,2465,49088
25860,2440,49049
25841,2421,49014
25817,2404,48979
25785,2384,48941
25756,2367,48907
25739,2359,48882
25728,2351,48859
25718,2338,48828
25711,2323,48796
25707,2314,48774
25702,2307,48758
25695,2295,48742
25691,2285,48729
25688,2282,48720
25684,2276,48709
25676,2262,48693
25668,2249,48678
25658,2241,48667
25643,2230,48649
25625,2215,48623
25613,2203,48601
25605,2197,48587
25595,2189,48576
25582,2177,48560
25575,2166,48545
25573,2159,48536
25569,2157,48527
25564,2157,48519
25561,2163,48518
25555,2169,48517
25543,2170,48511
25534,2169,48506
25533,2172,48505
25534,2174,48505
25531,2170,48500
25526,2162,48491
25523,2155,48484
25522,2147,48476
25521,2134,48466
25523,2126,48460
25528,2126,48461
25531,2130,48462
25528,2131,48459
25523,2132,48456
25521,2135,48454
25516,2135,48450
25509,2136,48445
25500,2137,48442
25493,2138,48442
25487,2135,48439
25479,2123,48430
25474,2108,48420
25473,2096,48414
25476,2088,48411
25480,2083,48412
25488,2082,48417
25499,2086,48423
25506,2091,48423
25511,2094,48424
25517,2101,48430
25526,2112,48434
25534,2125,48432
25538,2135,48429
25539,2144,48426
25538,2149,48422
25532,2148,48415
25523,2144,48409
25514,2139,48404
25501,2133,48395
25485,2124,48382
25471,2112,48369
25461,2101,48361
25455,2095,48353
25448,2091,48343
25443,2089,48336
25443,2087,48336
25446,2089,48344
25456,2098,48361
25480,2121,48401
25525,2164,48472
25595,2230,48577
25697,2318,48725
25831,2434,48924
25993,2582,49178
26176,2757,49481
26378,2952,49830
26599,3164,50218
26835,3390,50632
27074,3621,51049
27303,3844,51452
27516,4055,51830
27711,4251,52180
27883,4424,52491
28028,4567,52757
28145,4682,52978
28234,4770,53149
28290,4827,53266
28321,4855,53336
28334,4863,53363
28330,4855,53349
28305,4830,53295
28261,4784,53204
28202,4726,53086
28131,4658,52949
28051,4578,52796
27965,4488,52629
27876,4397,52459
27785,4308,52289
27689,4217,52119
27593,4123,51954
27502,4034,51800
27417,3950,51654
27337,3872,51513
27266,3802,51386
27209,3745,51277
27163,3699,51185
27125,3661,51107
27097,3632,51045
27078,3613,50998
27067,3599,50960
27060,3589,50926
27056,3584,50900
27052,3584,50882
27043,3581,50864
27028,3570,50838
27013,3554,50806
26999,3535,50769
26979,3511,50725
26951,3483,50675
26924,3455,50624
26901,3428,50571
26879,3403,50517
26857,3380,50466
26837,3359,50426
26821,3344,50398
26808,3334,50380
26797,3328,50369
26790,3328,50366
26785,3331,50364
26779,3332,50362
26772,3329,50365
26770,3329,50377
26773,3333,50394
26778,3338,50410
26784,3345,50428
26792,3356,50448
26801,3369,50470
26809,3380,50489
26818,3389,50505
26828,3395,50514
26833,3399,50513
26827,3399,50503
26811,3396,50489
26794,3391,50474
26776,3382,50451
26753,3364,50419
26727,3341,50382
26703,3320,50343
26679,3302,50301
26654,3280,50253
26626,3250,50200
26596,3216,50143
26565,3180,50084
26533,3142,50023
26503,3107,49967
26475,3078,49916
26448,3049,49864
26420,3016,49810
26395,2985,49761
26372,2958,49716
26350,2930,49671
26329,2903,49626
26312,2881,49587
26297,2864,49555
26278,2848,49525
26253,2829,49494
26226,2812,49461
26201,2799,49427
26178,2784,49390
26157,2766,49355
26140,2749,49326
26123,2730,49298
26098,2705,49264
26069,2676,49227
26044,2649,49192
26024,2626,49158
26007,2606,49125
25990,2588,49096
25977,2574,49071
25964,2561,49048
25951,2546,49024
25940,2532,49002
25936,2525,48985
25937,2523,48972
25939,2525,48959
25944,2531,48950
25954,2542,48944
25963,2554,48939
25970,2561,48934
25976,2564,48929
25981,2566,48926
25982,2565,48922
25975,2560,48910
25961,2553,48893
25942,2545,48875
25921,2535,48854
25901,2521,48830
25883,2504,48805
25865,2485,48782
25844,2463,48760
25821,2440,48741
25805,2424,48725
25799,2417,48712
25797,2415,48701
25792,2412,48692
25786,2409,48687
25781,2405,48680
25774,2399,48670
25769,2393,48661
25768,2389,48657
25770,2384,48655
25769,2377,48651
25767,2367,48645
25771,2362,48645
25785,2365,48645
25797,2376,48643
25802,2387,48645
25808,2397,48653
25819,2404,48668
25827,2407,48678
25831,2406,48681
25836,2405,48679
25838,2404,48673
25835,2400,48663
25824,2389,48652
25811,2379,48642
25795,2369,48632
25779,2357,48617
25764,2346,48602
25753,2338,48590
25745,2331,48576
25739,2325,48559
25734,2320,48545
25732,2319,48534
25731,2320,48525
25729,2319,48514
25730,2322,48507
25737,2331,48509
25746,2340,48511
25754,2344,48510
25759,2344,48505
25765,2344,48501
25769,2344,48498
25771,2344,48493
25773,2348,48491
25776,2355,48491
25777,2360,48490
25772,2359,48490
25765,2356,48488
25756,2353,48478
25743,2344,48461
25724,2330,48441
25701,2315,48421
25682,2300,48397
25666,2280,48373
25650,2262,48352
25633,2249,48336
25616,2239,48324
25603,2230,48320
25600,2223,48327
25606,2221,48346
25621,2229,48376
25652,2250,48425
25708,2296,48510
25795,2374,48643
25910,2486,48831
26048,2626,49071
26210,2791,49367
26397,2985,49717
26609,3202,50111
26838,3429,50533
27077,3659,50970
27319,3889,51408
27554,4112,51831
27772,4316,52224
27971,4499,52578
28146,4661,52888
28291,4798,53142
28399,4902,53339
28472,4975,53481
28515,5020,53570
28529,5035,53602
28515,5018,53580
28478,4976,53517
28427,4921,53424
28363,4853,53303
28283,4772,53157
28193,4683,52995
28097,4593,52824
27997,4502,52646
27892,4405,52461
27786,4305,52270
27682,4205,52079
27577,4104,51892
27479,4007,51716
27391,3921,51557
27310,3847,51417
27234,3778,51289
27165,3710,51174
27111,3650,51077
27072,3605,50998
27039,3572,50934
27010,3549,50884
26987,3534,50846
26970,3524,50819
26956,3514,50795
26946,3502,50771
26942,3493,50749
26940,3488,50729
26936,3480,50706
26933,3472,50683
26936,3467,50664
26942,3466,50647
26944,3463,50629
26940,3460,50611
26934,3458,50594
26926,3458,50577
26916,3461,50563
26907,3464,50554
26900,3468,50550
26890,3467,50545
26878,3460,50540
26871,3455,50540
26874,3455,50543
26882,3460,50545
26892,3466,50549
26907,3475,50561
26925,3485,50576
26936,3488,50586
26937,3483,50587
26929,3476,50585
26920,3471,50583
26912,3465,50573
26901,3454,50555
26888,3443,50535
26872,3433,50513
26854,3419,50487
26839,3402,50459
26832,3390,50434
26826,3381,50411
26812,3367,50379
26791,3347,50342
26768,3327,50306
26741,3300,50263
26704,3262,50210
26660,3217,50152
26616,3172,50097
26573,3130,50039
26528,3084,49975
26480,3036,49910
26436,2994,49850
26392,2956,49789
26350,2917,49726
26312,2882,49665
26279,2851,49607
26248,2821,49548
26212,2790,49487
26174,2761,49431
26141,2736,49383
26113,2713,49341
26088,2692,49300
26065,2670,49264
26045,2650,49232
26022,2629,49200
25998,2607,49165
25979,2588,49132
25966,2574,49103
25957,2564,49073
25952,2554,49045
25948,2544,49024
25942,2535,49007
25933,2524,48985
25921,2510,48964
25910,2497,48947
25901,2487,48933
25892,2478,48920
25883,2469,48911
25876,2465,48906
25873,2465,48902
25868,2464,48895
25860,2462,48888
25850,2460,48881
25841,2455,48871
25829,2446,48855
25816,2431,48836
25801,2415,48816
25786,2401,48794
25771,2391,48770
25760,2379,48750
25750,2368,48731
25740,2356,48707
25729,2340,48680
25720,2323,48661
25712,2310,48650
25704,2298,48637
25695,2289,48624
25686,2283,48615
25678,2282,48611
25672,2283,48607
25670,2286,48605
25670,2290,48607
25673,2294,48612
25677,2297,48611
25681,2295,48608
25682,2289,48608
25680,2283,48604
25671,2277,48592
25661,2272,48577
25658,2270,48568
25663,2271,48565
25668,2274,48562
25670,2279,48558
25674,2282,48557
25679,2286,48557
25681,2290,48553
25678,2295,48547
25675,2300,48541
25676,2305,48534
25678,2307,48526
25677,2304,48519
25674,2298,48515
25665,2290,48509
25650,2279,48503
25634,2268,48499
25619,2258,48499
25605,2246,48496
25594,2232,48484
25584,2218,48470
25575,2208,48460
25568,2202,48453
25562,2198,48445
25558,2197,48440
25554,2198,48437
25550,2198,48432
25544,2193,48427
25537,2186,48424
25531,2182,48424
25527,2178,48425
25526,2175,48424
25531,2176,48424
25541,2182,48429
25545,2186,48428
25543,2187,48420
25539,2185,48412
25535,2185,48405
25530,2183,48395
25522,2178,48382
25513,2169,48370
25504,2160,48361
25492,2149,48348
25475,2133,48331
25457,2117,48315
25441,2104,48303
25421,2088,48291
25398,2069,48282
25383,2052,48280
25377,2041,48281
25377,2033,48282
25380,2029,48286
25387,2034,48298
25400,2047,48314
25418,2066,48334
25443,2093,48368
25483,2135,48426
25540,2198,48510
25619,2282,48627
25727,2388,48786
25864,2518,48993
26024,2674,49243
26206,2850,49532
26409,3046,49859
26630,3261,50222
26860,3487,50605
27082,3706,50987
27288,3912,51352
27476,4101,51691
27641,4267,51989
27780,4402,52238
27893,4509,52441
27979,4590,52600
28037,4644,52710
28067,4670,52766
28074,4669,52775
28059,4647,52744
28023,4604,52676
27971,4544,52579
27911,4476,52462
27845,4405,52333
27772,4328,52191
27690,4242,52037
27602,4154,51880
27511,4068,51723
27420,3985,51567
27334,3909,51418
27256,3843,51282
27185,3785,51156
27117,3731,51039
27051,3676,50933
26992,3622,50840
26940,3576,50759
26895,3538,50689
26859,3508,50634
26838,3490,50598
26829,3480,50576
26824,3472,50560
26820,3466,50544
26820,3466,50532
26822,3469,50519
26820,3466,50502
26814,3456,50481
26805,3443,50459
26795,3426,50430
26782,3408,50394
26768,3389,50359
26751,3372,50327
26728,3351,50292
26704,3326,50258
26686,3302,50234
26674,3286,50218
26664,3277,50208
26658,3272,50202
26656,3267,50201
26654,3264,50206
26648,3263,50209
26641,3262,50214
26638,3266,50224
26643,3275,50236
26651,3282,50244
26657,3284,50248
26665,3285,50255
26673,3288,50264
26678,3290,50272
26678,3289,50275
26679,3289,50275
26681,3293,50275
26680,3298,50272
26673,3299,50264
26663,3299,50252
26653,3296,50238
26643,3291,50221
26633,3283,50200
26626,3276,50179
26618,3267,50155
26606,3252,50122
26589,3232,50079
26570,3214,50034
26553,3196,49992
26534,3178,49950
26511,3156,49906
26488,3130,49862
26465,3102,49821
26440,3072,49780
26415,3043,49739
26394,3021,49702
26376,3003,49667
26356,2985,49632
26333,2967,49598
26311,2954,49568
26291,2942,49541
26275,2930,49511
26265,2918,49483
26255,2907,49461
26243,2897,49441
26228,2883,49419
26213,2870,49401
26202,2864,49388
26193,2858,49375
26185,2852,49359
26182,2849,49343
26182,2849,49330
26183,2848,49317
26184,2845,49303
26190,2845,49291
26200,2850,49281
26206,2855,49272
26205,2857,49261
26203,2858,49253
26202,2861,49246
26201,2863,49239
26202,2864,49234
26205,2868,49235
26208,2872,49234
26206,2871,49229
26201,2863,49223
26197,2853,49216
26190,2845,49207
26179,2836,49197
26171,2827,49191
26167,2823,49190
26165,2826,49190
26160,2829,49187
26152,2832,49184
26147,2835,49183
26144,2837,49181
26141,2837,49174
26141,2833,49169
26142,2830,49166
26144,2827,49161
26149,2825,49151
26155,2826,49145
26163,2830,49146
26168,2832,49148
26167,2832,49149
26165,2834,49152
26167,2839,49157
26169,2844,49157
26171,2847,49153
26171,2846,49148
26169,2845,49145
26167,2844,49140
26166,2846,49133
26167,2850,49129
26167,2856,49126
26163,2859,49121
26153,2855,49113
26143,2847,49106
26135,2838,49097
26127,2828,49084
26120,2817,49072
26115,2808,49066
26115,2800,49059
26115,2790,49046
26110,2777,49028
26100,2763,49009
26089,2752,48992
26075,2743,48979
26062,2735,48971
26056,2729,48965
26052,2721,48960
26046,2711,48953
26040,2702,48948
26036,2697,48947
26034,2696,48944
26029,2694,48937
26022,2690,48933
26018,2688,48934
26017,2688,48930
26017,2685,48922
26016,2682,48911
26011,2681,48901
26006,2682,48894
26002,2684,48888
26004,2689,48886
26010,2698,48892
26019,2711,48906
26035,2731,48931
26063,2762,48979
26110,2807,49057
26177,2867,49168
26264,2948,49319
26376,3060,49517
26516,3199,49765
26680,3357,50051
26859,3533,50368
27050,3724,50713
27248,3921,51078
27446,4115,51443
27641,4299,51794
27824,4471,52118
27993,4628,52410
28144,4764,52662
28271,4875,52871
28371,4964,53035
28439,5026,53152
28474,5058,53217
28482,5063,53233
28470,5050,53211
28438,5019,53153
28387,4966,53060
28319,4895,52940
28242,4811,52803
28157,4716,52649
28062,4613,52479
27960,4504,52300
27858,4398,52122
27761,4301,51950
27669,4212,51787
27581,4128,51636
27499,4051,51495
27423,3980,51361
27355,3918,51236
27295,3866,51130
27246,3827,51044
27207,3798,50972
27178,3776,50910
27157,3758,50864
27142,3744,50829
27127,3730,50794
27108,3711,50755
27087,3692,50716
27065,3676,50678
27042,3659,50636
27016,3640,50592
26989,3619,50552
26965,3595,50517
26942,3568,50482
26918,3538,50446
26898,3509,50415
26880,3485,50386
26860,3464,50357
26843,3448,50331
26834,3440,50312
26831,3438,50298
26830,3437,50288
26831,3437,50288
26838,3443,50301
26849,3455,50321
26862,3470,50341
26875,3487,50362
26890,3504,50386
26907,3525,50413
26924,3549,50441
26941,3569,50471
26957,3587,50501
26971,3602,50527
26981,3610,50547
26985,3612,50562
26989,3615,50572
26993,3620,50574
26996,3625,50568
26996,3629,50558
26993,3631,50544
26982,3628,50522
26966,3615,50493
26947,3595,50461
26926,3574,50428
26903,3551,50392
26876,3525,50351
26845,3496,50309
26816,3469,50268
26787,3442,50221
26755,3412,50168
26721,3381,50115
26690,3355,50063
26666,3333,50013
26646,3313,49966
26628,3295,49923
26609,3276,49880
26586,3254,49835
26559,3224,49788
26530,3193,49745
26504,3165,49707
26478,3140,49670
26452,3113,49634
26427,3087,49600
26405,3064,49572
26385,3043,49546
26364,3024,49523
26344,3008,49502
26327,2997,49483
26314,2990,49465
26305,2985,49450
26302,2980,49436
26301,2972,49417
26296,2961,49397
26285,2950,49381
26273,2942,49367
26258,2934,49353
26239,2918,49333
26220,2898,49313
26203,2881,49298
26191,2868,49284
26178,2854,49269
26168,2839,49256
26164,2829,49244
26162,2826,49230
26162,2826,49212
26166,2829,49197
26176,2836,49188
26186,2843,49181
26190,2847,49175
26193,2851,49175
26199,2859,49179
26206,2870,49183
26212,2880,49188
26218,2888,49197
26225,2895,49206
26228,2899,49212
26227,2897,49214
26226,2894,49216
26229,2896,49219
26234,2904,49222
26240,2912,49226
26246,2918,49233
26251,2921,49241
26254,2921,49243
26257,2920,49242
26262,2922,49245
26268,2927,49246
26274,2933,49246
26277,2937,49243
26279,2939,49241
26282,2943,49238
26282,2947,49231
26280,2949,49221
26278,2949,49212
26274,2946,49203
26267,2936,49191
26259,2924,49181
26256,2917,49178
26260,2912,49176
26266,2906,49171
26267,2899,49163
26263,2894,49155
26256,2893,49144
26246,2893,49131
26233,2892,49123
26221,2892,49116
26213,2890,49109
26204,2885,49100
26192,2876,49094
26177,2866,49088
26161,2853,49075
26146,2841,49057
26132,2832,49041
26122,2828,49032
26111,2825,49025
26098,2818,49015
26082,2808,49003
26067,2797,48991
26050,2787,48978
26033,2775,48962
26021,2765,48947
26017,2756,48936
26014,2744,48927
26006,2728,48921
25997,2710,48917
25990,2693,48913
25984,2680,48906
25984,2675,48904
25996,2682,48913
26018,2699,48931
26047,2725,48959
26086,2760,49005
26143,2811,49078
26223,2888,49186
26327,2990,49340
26459,3117,49547
26620,3271,49810
26805,3452,50124
27005,3653,50478
27217,3867,50866
27442,4088,51273
27667,4305,51676
27880,4508,52059
28076,4693,52414
28253,4864,52739
28408,5014,53022
28533,5137,53254
28634,5230,53437
28712,5298,53572
28766,5340,53658
28790,5355,53692
28786,5341,53681
28760,5308,53632
28716,5256,53546
28650,5185,53425
28565,5097,53276
28463,4999,53108
28349,4891,52923
28228,4776,52726
28110,4663,52527
27996,4555,52332
27884,4450,52142
27774,4349,51959
27673,4256,51793
27583,4169,51643
27499,4087,51508
27423,4011,51388
27359,3944,51286
27309,3889,51201
27269,3847,51132
27239,3815,51075
27218,3795,51030
27204,3784,50996
27195,3778,50969
27190,3775,50948
27191,3776,50930
27191,3777,50914
27185,3771,50894
27174,3758,50873
27161,3747,50853
27147,3740,50830
27134,3731,50803
27123,3719,50777
27115,3709,50752
27107,3701,50729
27095,3692,50710
27083,3685,50701
27081,3687,50701
27088,3699,50707
27098,3716,50713
27107,3734,50723
27120,3755,50738
27138,3777,50757
27159,3800,50779
27183,3827,50808
27211,3862,50844
27239,3898,50878
27269,3931,50909
27304,3962,50944
27339,3992,50981
27370,4017,51011
27396,4036,51037
27419,4053,51060
27442,4069,51078
27458,4082,51086
27465,4087,51084
27463,4085,51076
27455,4080,51064
27440,4068,51044
27415,4051,51019
27388,4029,50990
27364,4006,50955
27339,3982,50914
27314,3957,50870
27290,3932,50826
27268,3906,50782
27247,3880,50737
27228,3857,50696
27212,3839,50659
27200,3825,50621
27187,3812,50579
27170,3795,50539
27152,3777,50504
27134,3759,50469
27115,3741,50432
27096,3723,50400
27079,3706,50373
27065,3690,50345
27056,3676,50314
27050,3664,50283
27047,3650,50251
27040,3634,50219
27027,3616,50188
27009,3597,50159
26989,3582,50130
26966,3571,50096
26945,3556,50059
26927,3541,50026
26913,3530,50000
26900,3520,49975
26887,3506,49947
26874,3493,49921
26860,3484,49898
26845,3474,49875
26829,3466,49855
26816,3461,49839
26805,3457,49827
26798,3453,49814
26795,3449,49802
26796,3447,49796
26798,3446,49790
26798,3441,49780
26795,3434,49771
26791,3429,49767
26784,3422,49762
26774,3411,49749
26763,3396,49730
26752,3379,49710
26738,3365,49687
26720,3350,49659
26700,3335,49634
26684,3323,49617
26673,3315,49608
26661,3307,49605
26647,3301,49604
26635,3301,49605
26627,3304,49605
26619,3306,49606
26616,3307,49610
26617,3309,49614
26618,3307,49609
26614,3299,49596
26609,3289,49581
26606,3281,49568
26603,3273,49552
26597,3262,49530
26591,3249,49508
26587,3241,49491
26584,3234,49475
26579,3227,49460
26573,3224,49448
26568,3225,49439
26562,3225,49431
26551,3221,49422
26543,3217,49417
26538,3215,49413
26534,3216,49407
26534,3219,49400
26539,3223,49397
26546,3228,49399
26550,3234,49401
26551,3240,49402
26555,3248,49405
26563,3260,49412
26572,3271,49419
26582,3282,49430
26594,3292,49440
26604,3300,49442
26607,3304,49434
26604,3303,49424
26598,3300,49416
26588,3297,49408
26573,3290,49394
26556,3277,49379
26542,3261,49366
26530,3245,49351
26520,3232,49337
26514,3224,49331
26513,3218,49327
26513,3211,49321
26512,3203,49310
26510,3195,49304
26508,3190,49302
26502,3185,49298
26490,3177,49290
26478,3168,49281
26467,3161,49273
26455,3155,49262
26441,3145,49247
26431,3134,49237
26428,3125,49236
26433,3122,49243
26448,3128,49259
26481,3152,49298
26534,3199,49368
26607,3271,49477
26706,3367,49635
26837,3493,49855
26999,3653,50139
27189,3844,50480
27405,4059,50873
27646,4295,51307
27901,4547,51767
28156,4799,52228
28400,5037,52670
28630,5257,53081
28843,5459,53458
29029,5638,53791
29185,5786,54070
29312,5903,54293
29406,5987,54457
29459,6033,54557
29479,6046,54595
29476,6035,54584
29455,6007,54533
29412,5956,54441
29343,5879,54311
29258,5784,54155
29161,5678,53980
29050,5561,53786
28929,5438,53576
28806,5321,53367
28687,5213,53166
28569,5106,52971
28458,5003,52784
28359,4910,52610
28269,4825,52447
28183,4747,52293
28106,4678,52156
28043,4623,52041
27990,4581,51946
27940,4541,51862
27896,4503,51788
27860,4475,51728
27829,4454,51679
27801,4431,51631
27778,4408,51587
27764,4392,51552
27749,4380,51525
27730,4365,51494
27709,4348,51461
27687,4328,51429
27663,4301,51395
27637,4271,51355
27615,4245,51317
27597,4225,51282
27579,4207,51251
27560,4190,51223
27543,4175,51201
27532,4165,51181
27523,4158,51165
27513,4150,51157
27506,4144,51158
27501,4144,51166
27497,4149,51176
27498,4158,51190
27507,4173,51210
27522,4192,51231
27538,4209,51252
27556,4226,51274
27576,4245,51300
27594,4262,51327
27610,4273,51351
27626,4286,51375
27642,4300,51397
27653,4312,51409
27656,4315,51406
27650,4308,51392
27640,4295,51369
27624,4281,51337
27602,4261,51296
27578,4238,51252
27554,4214,51208
27529,4187,51159
27502,4156,51104
27477,4129,51050
27459,4108,51005
27439,4090,50963
27413,4065,50918
27382,4039,50869
27352,4014,50823
27325,3989,50778
27299,3962,50735
27277,3941,50697
27260,3929,50662
27244,3919,50627
27229,3908,50591
27219,3896,50557
27212,3886,50528
27203,3874,50503
27194,3863,50481
27188,3857,50464
27182,3856,50446
27173,3851,50426
27161,3843,50404
27150,3835,50381
27141,3830,50355
27131,3823,50326
27121,3816,50302
27113,3813,50283
27105,3812,50262
27094,3810,50238
27083,3805,50216
27071,3797,50197
27058,3788,50177
27046,3780,50158
27038,3774,50147
27033,3772,50146
27029,3770,50145
27024,3766,50144
27019,3759,50144
27017,3755,50143
27019,3754,50137
27021,3753,50131
27023,3753,50127
27023,3754,50125
27018,3751,50119
27011,3743,50107
27004,3734,50095
26997,3728,50082
26986,3721,50062
26971,3711,50042
26960,3704,50027
26954,3702,50015
26950,3700,50002
26943,3698,49989
26936,3698,49984
26934,3703,49983
26939,3709,49980
26946,3715,49975
26955,3724,49976
26962,3733,49979
26965,3739,49978
26967,3745,49976
26975,3754,49977
26988,3766,49981
27001,3774,49984
27010,3777,49986
27018,3777,49988
27023,3773,49986
27020,3764,49980
27012,3751,49972
27002,3739,49962
26990,3730,49947
26976,3719,49927
26965,3708,49909
26956,3699,49894
26947,3692,49876
26937,3687,49854
26924,3682,49833
26911,3678,49812
26897,3668,49788
26884,3655,49763
26872,3643,49742
26864,3635,49725
26858,3627,49709
26853,3619,49691
26851,3615,49677
26849,3611,49665
26841,3604,49652
26827,3592,49637
26812,3578,49624
26801,3566,49616
26793,3554,49608
26788,3541,49603
26788,3534,49608
26795,3538,49628
26812,3552,49666
26846,3581,49729
26906,3632,49830
26994,3714,49978
27112,3829,50178
27259,3978,50439
27442,4165,50767
27654,4385,51153
27889,4626,51582
28140,4879,52043
28400,5134,52521
28663,5386,52996
28918,5626,53449
29159,5849,53869
29382,6053,54253
29584,6236,54594
29754,6387,54877
29890,6502,55098
29993,6586,55257
30063,6637,55355
30097,6657,55397
30101,6647,55393
30085,6617,55352
30050,6573,55277
29994,6517,55171
29921,6450,55042
29839,6376,54896
29749,6294,54731
29652,6204,54552
29552,6110,54367
29446,6016,54179
29335,5918,53989
29223,5817,53797
29117,5719,53608
29017,5627,53429
28924,5540,53259
28838,5461,53103
28763,5395,52970
28701,5340,52859
28647,5290,52762
28600,5243,52677
28558,5201,52608
28521,5167,52549
28489,5133,52492
28454,5092,52435
28415,5046,52375
28371,4998,52309
28327,4948,52237
28284,4897,52165
28245,4851,52094
28212,4813,52025
28184,4781,51961
28159,4756,51910
28141,4740,51873
28128,4734,51848
28118,4736,51830
28112,4740,51825
28112,4748,51829
28115,4758,51836
28117,4769,51843
28122,4782,51856
28133,4798,51878
28148,4812,51906
28162,4825,51934
28178,4838,51965
28197,4854,51997
28217,4872,52027
28235,4890,52056
28256,4908,52091
28280,4930,52127
28304,4952,52160
28325,4969,52188
28344,4983,52213
28359,4994,52231
28365,4997,52232
28361,4991,52221
28352,4981,52205
28341,4966,52183
28322,4945,52146
28294,4916,52099
28259,4880,52045
28218,4838,51984
28167,4791,51913
28107,4742,51831
28044,4690,51742
27982,4636,51652
27920,4579,51559
27860,4520,51468
27805,4465,51379
27756,4416,51295
27712,4373,51214
27677,4333,51140
27649,4296,51070
27624,4260,51003
27596,4224,50939
27567,4192,50882
27538,4167,50834
27512,4148,50790
27484,4127,50745
27455,4101,50701
27427,4076,50661
27403,4055,50625
27384,4036,50588
27367,4022,50558
27351,4014,50533
27335,4006,50505
27318,3995,50476
27306,3984,50450
27295,3976,50428
27283,3971,50405
27271,3965,50381
27265,3961,50365
27270,3961,50355
27278,3962,50345
27283,3960,50330
27285,3958,50315
27288,3961,50303
27294,3965,50292
27296,3966,50280
27296,3967,50268
27297,3969,50258
27296,3966,50251
27290,3957,50242
27282,3946,50231
27274,3936,50219
27267,3926,50207
27259,3916,50194
27251,3908,50181
27243,3900,50165
27228,3890,50141
27210,3876,50116
27194,3862,50095
27182,3853,50079
27170,3845,50064
27155,3832,50049
27140,3815,50034
27124,3798,50019
27107,3783,50005
27094,3772,49993
27088,3769,49988
27090,3772,49987
27094,3778,49983
27097,3788,49981
27101,3800,49979
27107,3810,49970
27109,3811,49956
27110,3808,49944
27113,3806,49939
27118,3807,49939
27124,3808,49940
27127,3808,49946
27128,3812,49953
27130,3816,49952
27128,3820,49944
27125,3826,49937
27126,3831,49929
27127,3832,49920
27118,3828,49909
27099,3821,49895
27079,3810,49874
27062,3795,49849
27044,3774,49821
27030,3753,49797
27018,3735,49779
27005,3715,49762
26989,3693,49744
26974,3672,49727
26961,3656,49708
26950,3645,49689
26944,3640,49678
26948,3646,49682
26963,3663,49703
26987,3690,49744
27026,3731,49811
27089,3795,49919
27184,3892,50083
27318,4028,50312
27490,4203,50616
27703,4412,50996
27952,4653,51441
28231,4919,51939
28532,5206,52478
28847,5507,53043
29167,5811,53608
29480,6101,54150
29777,6370,54654
30054,6617,55110
30303,6839,55511
30517,7027,55845
30691,7179,56113
30829,7299,56322
30933,7386,56471
31002,7443,56557
31041,7472,56589
31055,7480,56581
31044,7466,56540
31014,7432,56468
30974,7391,56377
30927,7343,56276
30870,7286,56167
30808,7223,56047
30745,7158,55922
30684,7098,55798
30622,7039,55676
30560,6982,55557
30501,6931,55444
30448,6886,55340
30399,6845,55244
30354,6804,55155
30314,6767,55072
30279,6734,54997
30241,6699,54927
30203,6663,54866
30168,6630,54815
30135,6601,54773
30102,6574,54731
30068,6544,54684
30033,6511,54634
29996,6478,54581
29951,6440,54514
29898,6395,54434
29842,6344,54345
29782,6284,54250
29716,6215,54144
29644,6139,54029
29572,6063,53913
29501,5989,53801
29430,5915,53691
29363,5846,53590
29307,5789,53504
29259,5743,53430
29212,5697,53362
29169,5652,53300
29136,5617,53255
29113,5592,53228
29092,5572,53210
29075,5554,53197
29065,5546,53194
29060,5547,53203
29058,5549,53216
29065,5556,53235
29086,5573,53264
29110,5592,53295
29128,5606,53323
29145,5619,53347
29162,5630,53368
29170,5635,53378
29169,5630,53372
29162,5620,53356
29149,5607,53333
29128,5587,53297
29095,5555,53245
29055,5514,53177
29009,5469,53098
28952,5416,53007
28887,5356,52903
28824,5294,52793
28764,5232,52685
28698,5165,52574
28627,5093,52457
28558,5021,52338
28494,4954,52224
28430,4890,52111
28367,4825,52001
28308,4761,51898
28255,4703,51805
28201,4645,51710
28143,4585,51612
28085,4529,51516
28033,4479,51427
27986,4435,51346
27951,4403,51274
27929,4385,51217
27916,4374,51173
27901,4362,51134
27887,4353,51099
27880,4354,51074
27877,4360,51055
27873,4364,51042
27871,4370,51035
27874,4381,51039
27879,4392,51043
27879,4397,51039
27879,4396,51028
27880,4396,51014
27875,4394,50996
27868,4387,50976
27867,4381,50960
27869,4376,50947
27865,4368,50932
27859,4360,50918
27853,4357,50910
27844,4358,50901
27826,4356,50884
27804,4350,50860
27783,4344,50833
27766,4335,50806
27751,4322,50779
27737,4301,50752
27724,4278,50725
27707,4253,50694
27684,4224,50659
27660,4196,50625
27642,4176,50599
27628,4160,50576
27613,4144,50554
27598,4129,50534
27586,4118,50518
27576,4109,50500
27566,4099,50480
27556,4090,50461
27546,4083,50446
27535,4077,50434
27522,4069,50421
27513,4061,50409
27506,4056,50401
27497,4053,50389
27483,4047,50371
27468,4038,50352
27451,4027,50330
27426,4008,50298
27394,3979,50257
27361,3946,50216
27331,3915,50178
27305,3885,50140
27280,3855,50102
27260,3830,50066
27242,3813,50035
27224,3800,50008
27206,3787,49980
27189,3774,49958
27175,3764,49940
27157,3753,49919
27136,3738,49895
27118,3726,49874
27103,3717,49857
27087,3704,49840
27072,3688,49826
27057,3672,49816
27048,3659,49809
27043,3649,49805
27043,3641,49805
27046,3641,49809
27052,3649,49810
27056,3661,49805
27062,3673,49800
27073,3686,49803
27085,3698,49808
27093,3707,49810
27096,3713,49811
27099,3721,49813
27101,3730,49816
27098,3735,49817
27091,3735,49814
27083,3732,49811
27072,3724,49805
27057,3715,49795
27049,3709,49787
27048,3711,49786
27053,3719,49789
27065,3734,49798
27092,3763,49824
27136,3810,49869
27197,3869,49938
27279,3948,50042
27391,4055,50202
27543,4203,50435
27739,4392,50751
27981,4625,51155
28268,4903,51648
28596,5223,52213
28951,5570,52827
29323,5930,53469
29705,6297,54122
30080,6653,54759
30426,6979,55348
30732,7263,55869
30996,7504,56315
31214,7700,56679
31376,7844,56958
31484,7936,57153
31548,7986,57274
31575,8000,57331
31566,7979,57329
31529,7930,57273
31475,7864,57179
31409,7787,57059
31332,7700,56917
31249,7608,56759
31169,7520,56598
31088,7433,56434
30995,7338,56261
30894,7238,56081
30794,7144,55903
30694,7058,55731
30594,6972,55564
30497,6886,55406
30411,6811,55264
30332,6741,55138
30256,6673,55021
30187,6610,54915
30135,6562,54831
30095,6526,54764
30062,6493,54704
30037,6466,54656
30020,6444,54620
30004,6422,54590
29982,6394,54555
29957,6363,54517
29928,6333,54476
29886,6299,54423
29827,6249,54350
29760,6186,54261
29687,6115,54160
29603,6032,54043
29511,5938,53912
29424,5844,53777
29341,5755,53643
29260,5670,53510
29182,5588,53381
29115,5518,53266
29058,5464,53167
29003,5414,53077
28948,5368,52994
28901,5331,52927
28862,5306,52876
28825,5281,52831
28790,5249,52784
28760,5218,52742
28733,5189,52703
28701,5157,52666
28670,5129,52635
28648,5108,52611
28635,5091,52589
28621,5069,52562
28608,5047,52534
28600,5035,52515
28595,5030,52500
28591,5026,52483
28586,5022,52465
28580,5023,52452
28570,5027,52441
28558,5026,52423
28549,5024,52398
28547,5027,52372
28545,5025,52341
28536,5015,52304
28525,5003,52265
28518,4994,52229
28510,4983,52193
28501,4968,52152
28494,4954,52109
28488,4946,52068
28480,4940,52025
28467,4927,51977
28452,4910,51923
28432,4887,51868
28404,4854,51805
28364,4811,51735
28320,4762,51665
28273,4714,51596
28220,4664,51527
28167,4616,51457
28124,4577,51394
28089,4547,51339
28058,4518,51288
28029,4488,51238
28005,4468,51194
27985,4459,51157
27962,4447,51118
27933,4426,51075
27903,4401,51032
27872,4372,50990
27840,4337,50943
27812,4306,50896
27793,4282,50859
27775,4264,50829
27754,4245,50801
27738,4228,50776
27731,4217,50761
27731,4210,50751
27728,4199,50735
27721,4186,50713
27712,4178,50696
27697,4170,50677
27671,4151,50645
27642,4126,50606
27616,4103,50568
27588,4076,50530
27553,4041,50486
27522,4006,50439
27495,3976,50393
27467,3946,50347
27434,3915,50301
27400,3889,50262
27366,3867,50234
27332,3845,50211
27298,3820,50187
27269,3797,50164
27245,3779,50145
27223,3761,50125
27203,3739,50101
27186,3717,50077
27168,3697,50057
27149,3678,50035
27129,3657,50009
27118,3641,49989
27115,3633,49977
27114,3628,49966
27112,3625,49959
27112,3631,49958
27115,3642,49959
27117,3649,49955
27120,3651,49946
27130,3659,49940
27144,3674,49940
27155,3691,49941
27163,3707,49940
27173,3727,49942
27182,3752,49949
27190,3775,49956
27201,3793,49963
27219,3811,49976
27241,3830,49993
27266,3848,50012
27293,3872,50034
27323,3902,50060
27350,3932,50083
27368,3956,50097
27381,3972,50104
27393,3981,50110
27400,3981,50110
27390,3968,50101
27370,3944,50088
27345,3920,50073
27314,3892,50050
27274,3855,50013
27233,3814,49966
27197,3775,49922
27163,3736,49880
27128,3698,49839
27095,3667,49804
27065,3645,49777
27033,3627,49752
27004,3611,49728
26985,3602,49713
26975,3600,49707
26965,3596,49704
26955,3587,49700
26946,3577,49697
26934,3568,49693
26918,3556,49687
26906,3541,49681
26904,3536,49686
26916,3545,49708
26938,3567,49749
26976,3606,49822
27047,3677,49949
27156,3786,50141
27301,3931,50398
27485,4110,50729
27714,4330,51134
27979,4581,51597
28257,4844,52088
28535,5106,52588
28806,5362,53083
29054,5598,53547
29269,5800,53957
29451,5966,54307
29602,6098,54597
29714,6194,54818
29782,6249,54964
29814,6269,55040
29816,6260,55057
29788,6226,55017
29735,6168,54928
29664,6094,54800
29582,6010,54645
29485,5912,54463
29366,5797,54253
29234,5670,54024
29097,5541,53788
28952,5403,53543
28796,5253,53289
28640,5100,53042
28487,4952,52808
28334,4806,52580
28185,4660,52355
28055,4525,52147
27947,4409,51960
27850,4304,51790
27755,4206,51635
27671,4121,51500
27599,4052,51386
27531,3991,51288
27469,3937,51204
27418,3895,51137
27380,3863,51084
27348,3836,51040
27324,3819,51003
27310,3812,50977
27305,3811,50959
27301,3812,50945
27300,3819,50933
27309,3835,50932
27327,3856,50938
27347,3875,50942
27366,3894,50948
27386,3917,50960
27403,3936,50973
27412,3946,50981
27421,3952,50987
27435,3964,50998
27445,3975,51011
27445,3982,51017
27440,3987,51017
27430,3988,51015
27413,3981,51008
27390,3966,50994
27370,3951,50978
27353,3935,50965
27329,3909,50947
27299,3873,50921
27272,3840,50893
27248,3815,50864
27221,3790,50830
27193,3760,50791
27171,3731,50754
27157,3709,50725
27147,3689,50701
27142,3675,50682
27144,3669,50669
27149,3668,50660
27150,3665,50647
27150,3661,50628
27152,3660,50614
27155,3658,50604
27154,3649,50589
27148,3637,50570
27139,3627,50552
27127,3617,50534
27108,3601,50511
27082,3579,50483
27061,3561,50457
27047,3552,50436
27035,3545,50415
27023,3541,50396
27014,3541,50385
27006,3541,50377
26998,3539,50366
26995,3539,50357
27003,3543,50355
27014,3548,50356
27022,3549,50355
27030,3551,50354
27041,3555,50355
27046,3555,50351
27043,3546,50339
27035,3532,50324
27026,3521,50316
27016,3515,50312
27007,3513,50307
27007,3515,50302
27016,3521,50299
27027,3525,50295
27038,3528,50290
27052,3536,50286
27071,3553,50292
27091,3572,50306
27109,3591,50323
27132,3612,50343
27159,3639,50366
27187,3664,50386
27213,3685,50400
27241,3707,50414
27270,3732,50431
27291,3754,50448
27307,3772,50462
27319,3785,50471
27327,3796,50478
27329,3804,50483
27330,3811,50487
27336,3820,50496
27347,3828,50506
27356,3832,50510
27363,3838,50511
27372,3847,50521
27383,3859,50536
27393,3870,50549
27403,3884,50560
27413,3902,50577
27419,3917,50594
27418,3923,50602
27414,3921,50602
27409,3917,50600
27401,3910,50592
27389,3898,50576
27379,3886,50559
27372,3876,50545
27361,3867,50534
27349,3853,50523
27344,3845,50518
27352,3852,50526
27367,3870,50544
27385,3892,50562
27410,3922,50584
27440,3957,50612
27471,3989,50642
27505,4022,50672
27546,4060,50709
27591,4102,50748
27635,4144,50787
27677,4183,50824
27719,4222,50859
27762,4262,50892
27806,4301,50924
27851,4342,50959
27898,4387,50995
27945,4435,51028
27991,4483,51060
28040,4533,51097
28094,4586,51139
28150,4642,51187
28212,4701,51251
28287,4770,51346
28382,4860,51478
28500,4977,51652
28637,5120,51872
28799,5284,52142
28987,5471,52463
29199,5677,52822
29424,5890,53208
29654,6108,53609
29880,6326,54008
30087,6529,54382
30270,6708,54716
30433,6864,55006
30575,6996,55252
30688,7097,55446
30769,7162,55586
30821,7198,55673
30850,7210,55713
30850,7198,55707
30822,7160,55660
30775,7106,55577
30710,7041,55461
30629,6967,55317
30532,6881,55153
30423,6783,54973
30303,6674,54778
30173,6554,54570
30040,6426,54354
29909,6296,54138
29784,6170,53928
29663,6047,53726
29545,5928,53535
29439,5821,53361
29347,5730,53208
29268,5650,53071
29205,5581,52949
29159,5529,52847
29124,5493,52763
29093,5462,52693
29067,5435,52635
29050,5412,52591
29035,5392,52558
29022,5376,52532
29015,5368,52514
29015,5369,52501
29018,5374,52488
29019,5379,52474
29018,5384,52460
29017,5390,52447
29018,5395,52436
29020,5398,52425
29023,5404,52420
29027,5412,52418
29030,5418,52416
29035,5422,52416
29044,5426,52420
29053,5433,52430
29058,5438,52439
29061,5441,52447
29066,5447,52462
29070,5458,52481
29069,5466,52498
29065,5469,52510
29064,5470,52521
29069,5472,52533
29071,5476,52544
29073,5480,52554
29075,5485,52563
29075,5488,52571
29070,5485,52573
29065,5477,52571
29064,5471,52566
29064,5467,52554
29063,5462,52538
29060,5457,52527
29056,5454,52520
29050,5451,52507
29042,5447,52486
29032,5442,52460
29018,5435,52432
29004,5424,52397
28988,5407,52359
28971,5385,52321
28948,5359,52281
28920,5327,52234
28887,5292,52180
28855,5259,52130
28823,5229,52084
28788,5197,52033
28750,5162,51980
28713,5129,51931
28679,5098,51888
28647,5065,51846
28614,5029,51803
28583,4994,51763
28554,4963,51727
28524,4936,51697
28495,4912,51672
28467,4892,51654
28441,4876,51638
28420,4864,51621
28407,4856,51611
28400,4851,51603
28394,4845,51592
28385,4838,51577
28376,4827,51563
28369,4813,51549
28363,4800,51534
28356,4788,51517
28348,4779,51505
28341,4777,51497
28339,4784,51493
28341,4794,51493
28348,4803,51500
28356,4813,51507
28365,4823,51508
28376,4835,51509
28394,4848,51517
28419,4863,51531
28445,4882,51546
28470,4900,51560
28490,4916,51576
28508,4931,51592
28521,4944,51603
28530,4953,51608
28535,4957,51611
28543,4959,51610
28551,4961,51604
28558,4966,51595
28568,4977,51590
28580,4994,51588
28591,5013,51590
28605,5032,51598
28626,5052,51611
28647,5072,51624
28664,5093,51634
28677,5111,51644
28691,5126,51657
28704,5139,51668
28714,5148,51676
28719,5156,51683
28723,5164,51691
28730,5173,51697
28737,5184,51701
28743,5192,51706
28747,5196,51711
28747,5195,51709
28744,5189,51699
28741,5179,51689
28741,5169,51681
28740,5159,51672
28736,5151,51661
28731,5147,51653
28725,5143,51645
28718,5138,51630
28708,5129,51609
28697,5118,51589
28688,5104,51572
28683,5090,51555
28683,5081,51541
28689,5078,51536
28706,5088,51546
28739,5113,51577
28793,5161,51641
28877,5236,51756
28992,5347,51932
29137,5491,52170
29312,5666,52474
29521,5873,52851
29770,6118,53296
30051,6396,53793
30356,6692,54326
30672,7000,54879
30990,7310,55433
31297,7608,55966
31587,7880,56461
31855,8120,56903
32088,8325,57275
32273,8482,57570
32404,8590,57787
32484,8651,57926
32513,8668,57983
32494,8641,57965
32432,8576,57886
32338,8484,57755
32223,8370,57576
32092,8237,57361
31949,8090,57120
31799,7935,56867
31643,7780,56608
31483,7626,56346
31326,7476,56091
31176,7337,55848
31035,7209,55614
30901,7089,55391
30776,6975,55188
30660,6871,55004
30551,6773,54830
30447,6680,54667
30352,6592,54521
30266,6514,54394
30190,6442,54277
30123,6375,54167
30064,6311,54067
30007,6251,53972
29948,6193,53877
29891,6137,53782
29843,6086,53697
29802,6044,53620
29762,6006,53545
29721,5968,53472
29683,5933,53406
29646,5898,53343
29610,5864,53279
29577,5832,53220
29549,5807,53171
29530,5787,53128
29518,5774,53092
29512,5766,53069
29510,5766,53057
29512,5772,53051
29514,5780,53051
29520,5793,53063
29533,5813,53088
29553,5839,53117
29575,5865,53146
29597,5890,53180
29624,5917,53220
29655,5947,53260
29686,5976,53295
29714,5999,53328
29737,6020,53359
29756,6037,53381
29768,6046,53393
29766,6047,53398
29751,6037,53393
29725,6013,53367
29689,5976,53324
29648,5929,53270
29605,5880,53210
29560,5827,53139
29512,5771,53061
29458,5715,52985
29400,5659,52908
29337,5600,52823
29271,5536,52730
29206,5470,52639
29146,5410,52557
29091,5356,52478
29038,5305,52402
28983,5254,52329
28926,5206,52256
28871,5159,52183
28821,5112,52114
28778,5067,52048
28743,5030,51985
28712,5001,51928
28685,4976,51880
28662,4959,51843
28643,4945,51814
28627,4929,51787
28613,4917,51764
28603,4910,51748
28598,4905,51734
28597,4899,51722
28596,4894,51715
28599,4895,51717
28605,4905,51720
28610,4917,51722
28612,4927,51723
28614,4933,51723
28616,4938,51722
28617,4942,51718
28619,4945,51717
28628,4950,51720
28642,4960,51724
28658,4975,51728
28674,4993,51737
28688,5009,51747
28700,5026,51751
28708,5042,51748
28713,5055,51746
28717,5066,51743
28721,5076,51735
28726,5082,51726
28730,5084,51721
28731,5085,51721
28731,5084,51721
28730,5080,51718
28732,5073,51716
28736,5067,51714
28740,5062,51710
28741,5059,51705
28741,5058,51702
28740,5056,51700
28734,5052,51694
28717,5047,51684
28696,5044,51674
28678,5044,51660
28660,5037,51639
28641,5024,51619
28627,5012,51609
28620,5005,51606
28617,4999,51603
28616,4995,51603
28616,4996,51605
28620,4998,51605
28624,5000,51600
28624,4999,51595
28621,4995,51591
28618,4995,51586
28614,4997,51580
28607,4997,51574
28598,4993,51569
28586,4986,51560
28574,4977,51548
28564,4967,51541
28563,4959,51543
28568,4955,51546
28576,4953,51547
28587,4956,51549
28602,4962,51552
28617,4970,51553
28630,4976,51551
28642,4983,51555
28655,4996,51559
28668,5011,51559
28682,5026,51557
28694,5044,51564
28702,5062,51579
28704,5077,51593
28704,5084,51602
28703,5086,51606
28701,5086,51609
28698,5084,51609
28696,5082,51608
28700,5085,51608
28711,5093,51606
28722,5102,51604
28735,5112,51603
28752,5122,51605
28770,5133,51613
28786,5146,51626
28805,5166,51656
28837,5201,51716
28896,5263,51817
28991,5360,51978
29128,5497,52219
29313,5680,52555
29552,5916,52987
29840,6198,53501
30167,6514,54082
30524,6857,54704
30895,7210,55338
31262,7556,55958
31610,7882,56547
31927,8178,57081
32199,8428,57537
32417,8626,57903
32578,8773,58183
32690,8875,58379
32756,8932,58493
32780,8946,58530
32766,8922,58504
32720,8871,58429
32650,8799,58311
32560,8708,58156
32458,8602,57975
32345,8487,57774
32224,8365,57560
32097,8241,57341
31971,8124,57124
31850,8015,56911
31733,7910,56698
31625,7810,56491
31530,7718,56301
31445,7637,56129
31367,7563,55973
31295,7496,55837
31233,7440,55724
31182,7396,55629
31141,7363,55548
31108,7335,55482
31080,7315,55431
31059,7301,55391
31046,7290,55361
31034,7278,55338
31019,7263,55314
31000,7245,55282
30975,7222,55241
30947,7192,55194
30918,7156,55137
30882,7112,55064
30837,7063,54978
30787,7013,54891
30736,6965,54810
30687,6920,54730
30642,6876,54652
30602,6834,54582
30572,6802,54524
30551,6782,54474
30536,6767,54431
30524,6757,54400
30517,6750,54380
30513,6743,54369
30511,6737,54365
30511,6734,54371
30516,6739,54386
30526,6747,54403
30539,6758,54422
30552,6774,54446
30567,6796,54474
30581,6820,54497
30591,6842,54516
30597,6859,54537
30597,6869,54555
30592,6874,54563
30583,6872,54560
30570,6863,54544
30553,6847,54516
30533,6827,54477
30507,6802,54428
30478,6773,54372
30447,6741,54311
30411,6706,54244
30373,6668,54179
30340,6631,54115
30311,6596,54046
30281,6560,53971
30245,6520,53898
30209,6478,53829
30170,6435,53756
30126,6391,53677
30078,6343,53599
30031,6296,53523
29987,6253,53444
29946,6214,53365
29906,6179,53293
29865,6146,53229
29823,6113,53166
29775,6075,53101
29726,6034,53036
29676,5990,52974
29626,5946,52909
29576,5900,52844
29527,5853,52785
29482,5809,52732
29441,5770,52675
29404,5734,52620
29370,5701,52573
29341,5674,52533
29318,5651,52495
29297,5629,52457
29280,5611,52425
29265,5598,52401
29253,5587,52378
29244,5578,52356
29241,5570,52341
29244,5567,52328
29250,5568,52315
29255,5572,52305
29262,5579,52303
29267,5585,52302
29266,5587,52295
29259,5585,52286
29252,5585,52280
29248,5589,52277
29249,5593,52275
29248,5590,52271
29243,5583,52266
29234,5572,52251
29221,5552,52228
29204,5530,52205
29189,5514,52186
29174,5501,52167
29156,5483,52142
29136,5460,52120
29117,5437,52105
29104,5423,52088
29095,5412,52070
29090,5405,52060
29091,5403,52058
29095,5409,52059
29101,5422,52064
29107,5438,52075
29111,5449,52087
29114,5453,52091
29113,5450,52087
29109,5444,52079
29104,5438,52072
29095,5431,52063
29082,5419,52048
29068,5400,52033
29054,5383,52021
29041,5371,52008
29031,5362,51993
29026,5358,51979
29025,5358,51966
29022,5359,51951
29016,5358,51935
29008,5354,51920
29002,5352,51906
28993,5349,51892
28982,5346,51879
28973,5345,51871
28969,5347,51865
28969,5348,51857
28975,5348,51853
28989,5353,51859
29006,5361,51869
29020,5369,51878
29030,5376,51885
29037,5385,51893
29045,5396,51903
29051,5407,51910
29054,5414,51915
29056,5418,51918
29055,5421,51916
29054,5423,51912
29052,5423,51908
29048,5420,51904
29041,5415,51895
29032,5410,51884
29023,5404,51875
29013,5396,51866
29003,5391,51853
28995,5384,51837
28991,5376,51824
28987,5370,51815
28978,5361,51803
28966,5349,51787
28955,5335,51772
28942,5321,51758
28927,5308,51742
28911,5297,51727
28899,5291,51717
28894,5290,51714
28893,5293,51711
28894,5295,51711
28898,5298,51717
28906,5303,51729
28917,5308,51743
28933,5315,51768
28963,5337,51817
29015,5389,51908
29101,5480,52059
29234,5615,52293
29425,5802,52626
29675,6047,53059
29976,6343,53580
30316,6677,54173
30681,7031,54814
31058,7388,55468
31429,7732,56105
31778,8053,56707
32097,8344,57252
32375,8595,57717
32604,8800,58089
32780,8954,58372
32907,9066,58573
32990,9139,58693
33029,9171,58737
33026,9162,58720
32989,9120,58654
32924,9049,58540
32833,8952,58382
32715,8829,58185
32572,8683,57950
32408,8518,57678
32227,8339,57379
32037,8150,57068
31845,7961,56752
31651,7773,56435
31463,7590,56127
31288,7419,55840
31129,7263,55579
30985,7122,55341
30857,6995,55129
30746,6882,54945
30653,6787,54785
30574,6708,54641
30509,6644,54518
30459,6596,54418
30420,6560,54337
30390,6532,54268
30367,6509,54212
30346,6487,54167
30329,6466,54129
30312,6444,54091
30296,6422,54054
30281,6406,54019
30267,6396,53983
30253,6391,53946
30241,6385,53913
30234,6382,53888
30232,6384,53864
30231,6392,53842
30232,6401,53829
30236,6414,53824
30243,6432,53821
30249,6449,53819
30254,6461,53822
30257,6468,53826
30261,6473,53827
30265,6474,53824
30270,6472,53821
30275,6466,53815
30278,6457,53803
30278,6446,53788
30277,6438,53781
30280,6437,53782
30289,6443,53787
30306,6457,53797
30331,6478,53817
30360,6507,53846
30392,6543,53878
30422,6577,53909
30445,6602,53937
30461,6617,53954
30469,6623,53956
30471,6624,53944
30469,6619,53924
30460,6608,53896
30441,6589,53856
30412,6563,53809
30379,6534,53760
30342,6505,53707
30303,6474,53646
30269,6443,53582
30243,6415,53523
30220,6390,53467
30198,6361,53412
30173,6327,53356
30144,6291,53304
30114,6258,53251
30084,6226,53195
30055,6194,53141
30028,6163,53090
29999,6133,53038
29967,6102,52985
29936,6069,52936
29906,6036,52889
29873,6001,52840
29839,5963,52787
29808,5922,52736
29782,5884,52690
29764,5855,52646
29752,5836,52606
29747,5828,52578
29746,5830,52563
29749,5837,52552
29752,5847,52543
29759,5859,52544
29772,5873,52553
29791,5895,52564
29813,5923,52577
29839,5956,52596
29867,5989,52618
29899,6022,52638
29931,6053,52658
29962,6082,52678
29990,6108,52694
30014,6128,52702
30032,6142,52704
30049,6156,52704
30065,6174,52702
30077,6190,52694
30083,6201,52683
30084,6209,52676
30081,6214,52666
30073,6206,52649
30060,6185,52629
30043,6160,52606
30026,6135,52579
30008,6111,52546
29990,6089,52517
29973,6070,52494
29957,6053,52469
29942,6038,52444
29929,6024,52426
29919,6013,52412
29910,6000,52395
29899,5984,52375
29883,5968,52359
29867,5957,52348
29852,5947,52335
29836,5936,52320
29820,5923,52308
29810,5912,52297
29808,5902,52281
29806,5891,52264
29803,5881,52251
29800,5873,52241
29797,5864,52226
29790,5851,52203
29779,5834,52176
29764,5816,52147
29743,5795,52115
29717,5771,52080
29689,5743,52047
29658,5714,52016
29623,5684,51981
29585,5650,51943
29549,5613,51905
29518,5579,51866
29489,5545,51825
29457,5508,51783
29426,5471,51746
29398,5435,51713
29371,5400,51682
29343,5365,51653
29316,5330,51624
29294,5300,51595
29278,5270,51569
29263,5242,51551
29248,5219,51541
29234,5202,51533
29219,5186,51522
29205,5170,51516
29198,5158,51512
29195,5151,51501
29192,5145,51484
29191,5137,51471
29190,5128,51464
29192,5123,51457
29194,5121,51448
29197,5120,51439
29202,5124,51430
29206,5129,51418
29206,5133,51407
29203,5133,51404
29200,5132,51405
29194,5131,51400
29187,5128,51388
29180,5122,51376
29174,5113,51364
29165,5098,51348
29153,5077,51327
29140,5053,51305
29129,5030,51285
29119,5006,51266
29113,4984,51251
29114,4968,51252
29126,4965,51273
29154,4980,51320
29207,5023,51413
29298,5105,51568
29433,5235,51799
29611,5411,52110
29828,5626,52504
30077,5873,52967
30351,6143,53471
30638,6422,53992
30924,6695,54506
31198,6952,54994
31450,7182,55437
31668,7378,55818
31848,7536,56129
31985,7654,56364
32079,7731,56522
32130,7767,56605
32143,7767,56618
32123,7737,56570
32068,7676,56465
31980,7586,56306
31868,7477,56106
31742,7358,55879
31608,7233,55629
31465,7099,55364
31318,6958,55095
31172,6817,54830
31033,6679,54571
30904,6544,54322
30781,6417,54089
30665,6299,53871
30556,6193,53667
30455,6094,53481
30362,6002,53316
30276,5917,53172
30198,5840,53043
30131,5772,52925
30075,5715,52823
30027,5668,52738
29987,5630,52664
29954,5600,52600
29930,5579,52546
29915,5564,52501
29900,5552,52463
29883,5538,52428
29865,5520,52398
29848,5501,52370
29832,5484,52338
29815,5466,52306
29799,5447,52275
29785,5432,52243
29769,5420,52211
29750,5406,52179
29731,5389,52148
29713,5371,52116
29696,5355,52085
29680,5344,52062
29670,5338,52046
29662,5333,52033
29654,5326,52022
29653,5324,52018
29661,5332,52024
29676,5349,52037
29696,5370,52055
29719,5395,52083
29746,5427,52118
29773,5463,52153
29798,5497,52186
29820,5525,52221
29843,5548,52253
29866,5566,52277
29890,5580,52294
29915,5595,52310
29936,5611,52326
29950,5625,52335
29960,5634,52336
29971,5639,52335
29983,5640,52329
29995,5640,52314
30005,5640,52298
30012,5642,52287
30019,5645,52277
30024,5650,52262
30023,5653,52243
30022,5657,52226
30025,5665,52210
30036,5674,52195
30050,5684,52188
30069,5695,52191
30089,5707,52190
30102,5715,52185
30110,5721,52178
30116,5731,52167
30118,5738,52147
30113,5738,52117
30103,5732,52085
30094,5726,52057
30087,5720,52030
30077,5712,52001
30061,5698,51972
30044,5682,51943
30030,5666,51911
30015,5651,51876
30001,5635,51845
29987,5618,51821
29969,5598,51793
29948,5574,51762
29926,5550,51737
29908,5526,51715
29894,5503,51687
29882,5482,51655
29874,5466,51623
29867,5453,51595
29857,5443,51564
29846,5432,51534
29835,5419,51508
29825,5406,51489
29816,5397,51470
29808,5389,51450
29802,5383,51434
29795,5380,51419
29788,5379,51399
29781,5378,51376
29775,5375,51357
29775,5374,51345
29779,5373,51333
29788,5373,51326
29799,5376,51327
29811,5380,51325
29821,5377,51320
29828,5369,51314
29833,5359,51310
29839,5352,51307
29850,5350,51304
29865,5354,51308
29883,5364,51318
29901,5377,51327
29919,5392,51333
29939,5405,51344
29963,5417,51362
29990,5431,51378
30017,5442,51389
30039,5448,51400
30057,5451,51409
30071,5454,51412
30078,5452,51410
30081,5446,51404
30079,5438,51396
30077,5430,51381
30077,5422,51364
30081,5415,51353
30088,5410,51346
30094,5404,51333
30098,5399,51315
30102,5396,51301
30106,5401,51294
30111,5408,51289
30117,5411,51285
30128,5416,51290
30148,5429,51302
30171,5446,51308
30194,5463,51311
30220,5482,51321
30257,5509,51345
30310,5546,51390
30382,5597,51465
30480,5676,51593
30615,5797,51794
30797,5965,52085
31028,6182,52479
31310,6446,52976
31640,6751,53556
32006,7089,54193
32392,7446,54866
32783,7808,55546
33163,8154,56197
33513,8469,56792
33825,8744,57319
34096,8981,57768
34323,9178,58129
34501,9331,58403
34635,9443,58601
34730,9519,58735
34794,9566,58812
34833,9586,58842
34850,9585,58835
34851,9567,58797
34839,9537,58731
34817,9499,58647
34786,9454,58553
34746,9406,58449
34697,9358,58332
34641,9309,58205
34578,9252,58072
34511,9188,57932
34441,9120,57781
34367,9049,57624
34291,8973,57469
34209,8893,57315
34119,8808,57154
34023,8716,56988
33922,8619,56827
33821,8518,56671
33723,8414,56513
33631,8317,56361
33546,8230,56220
33468,8151,56088
33393,8076,55963
33323,8001,55846
33260,7929,55737
33201,7863,55630
33141,7797,55518
33078,7728,55404
33017,7660,55294
32956,7592,55184
32894,7523,55071
32832,7453,54960
32773,7388,54856
32717,7335,54765
32670,7294,54691
32635,7263,54638
32610,7242,54606
32595,7231,54589
32592,7227,54586
32602,7229,54602
32623,7241,54640
32651,7264,54688
32681,7291,54745
32712,7318,54817
32746,7349,54901
32782,7384,54984
32822,7421,55063
32866,7460,55147
32914,7497,55233
32959,7531,55308
32996,7561,55372
33028,7585,55430
33053,7604,55481
33071,7616,55515
33079,7617,55527
33074,7607,55520
33055,7582,55492
33022,7544,55438
32974,7492,55359
32912,7427,55259
32837,7352,55138
32751,7268,54995
32655,7173,54835
32552,7072,54664
32444,6966,54484
32330,6853,54292
32209,6735,54093
32087,6616,53896
31966,6497,53699
31846,6377,53504
31731,6257,53317
31624,6143,53144
31528,6042,52979
31440,5949,52823
31360,5862,52682
31288,5783,52557
31223,5715,52438
31159,5652,52324
31097,5594,52220
31039,5540,52126
30989,5491,52036
30942,5445,51951
30893,5399,51873
30847,5353,51802
30808,5310,51733
30776,5271,51667
30747,5237,51610
30722,5204,51560
30700,5173,51512
30681,5142,51465
30662,5113,51423
30638,5085,51382
30610,5058,51336
30580,5027,51284
30551,4995,51230
30526,4967,51180
30501,4941,51131
30473,4914,51084
30443,4891,51042
30413,4870,51003
30381,4848,50961
30349,4823,50918
30319,4798,50881
30294,4775,50851
30274,4755,50820
30258,4736,50792
30248,4722,50768
30246,4716,50749
30248,4721,50734
30250,4729,50723
30254,4736,50715
30263,4745,50709
30276,4757,50705
30288,4767,50703
30298,4775,50703
30303,4780,50698
30302,4781,50689
30296,4777,50681
30291,4770,50677
30286,4760,50665
30279,4744,50647
30272,4726,50632
30269,4714,50621
30269,4706,50610
30269,4699,50597
30265,4694,50592
30258,4692,50593
30250,4694,50590
30239,4696,50580
30231,4700,50571
30226,4704,50565
30223,4707,50556
30221,4709,50544
30219,4712,50538
30220,4714,50535
30221,4715,50529
30224,4712,50519
30230,4709,50512
30238,4711,50511
30246,4715,50510
30253,4720,50505
30263,4727,50501
30272,4733,50496
30276,4737,50484
30278,4739,50466
30281,4741,50450
30284,4742,50432
30281,4740,50412
30272,4733,50395
30264,4726,50387
30260,4719,50379
30253,4709,50370
30243,4698,50365
30234,4691,50369
30232,4693,50383
30241,4708,50414
30274,4748,50486
30346,4826,50624
30472,4956,50852
30660,5148,51189
30911,5402,51649
31226,5713,52219
31596,6072,52874
32005,6463,53588
32435,6870,54331
32863,7271,55065
33273,7649,55752
33649,7986,56368
33979,8277,56897
34255,8519,57333
34473,8710,57673
34634,8848,57919
34743,8938,58083
34805,8982,58173
34823,8984,58190
34800,8949,58145
34748,8885,58054
34670,8803,57925
34569,8704,57758
34449,8591,57563
34318,8468,57346
34181,8338,57114
34038,8201,56869
33890,8058,56617
33741,7914,56368
33591,7773,56121
33441,7632,55872
33294,7491,55624
33151,7353,55384
33017,7223,55156
32890,7099,54936
32766,6978,54725
32650,6867,54530
32546,6770,54356
32454,6688,54201
32371,6617,54067
32300,6559,53952
32244,6517,53851
32200,6487,53763
32166,6468,53693
32144,6459,53639
32128,6455,53593
32113,6448,53553
32100,6438,53521
32088,6425,53492
32074,6410,53457
32057,6389,53415
32040,6365,53373
32021,6345,53335
32002,6330,53297
31989,6321,53261
31982,6320,53234
31983,6330,53223
31995,6352,53229
32018,6382,53251
32051,6419,53290
32094,6466,53345
32145,6518,53415
32199,6575,53499
32259,6636,53598
32326,6701,53710
32399,6767,53833
32476,6835,53962
32553,6904,54095
32626,6972,54223
32685,7031,54335
32732,7078,54431
32772,7115,54514
32806,7146,54580
32832,7170,54627
32849,7184,54658
32856,7189,54675
32854,7185,54671
32841,7169,54641
32816,7138,54592
32777,7091,54525
32722,7029,54435
32653,6951,54320
32570,6859,54186
32476,6758,54039
32372,6652,53877
32262,6541,53700
32147,6426,53516
32027,6310,53330
31905,6195,53142
31782,6081,52952
31656,5967,52765
31534,5853,52584
31420,5740,52409
31312,5635,52243
31211,5538,52090
31116,5450,51945
31030,5368,51806
30950,5293,51676
30878,5221,51563
30814,5155,51466
30755,5094,51377
30698,5038,51291
30648,4986,51213
30606,4940,51146
30569,4898,51082
30532,4855,51020
30496,4814,50960
30463,4776,50904
30434,4737,50851
30402,4695,50797
30371,4656,50748
30341,4628,50706
30313,4606,50668
30288,4585,50631
30268,4571,50596
30256,4565,50568
30247,4563,50542
30239,4560,50517
30229,4559,50495
30220,4561,50476
30209,4560,50456
30198,4552,50434
30191,4542,50412
30186,4534,50394
30180,4527,50379
30171,4517,50369
30159,4508,50361
30150,4501,50354
30143,4496,50346
30135,4491,50343
30126,4487,50344
30122,4485,50343
30124,4484,50340
30131,4488,50339
30142,4496,50343
30154,4506,50348
30168,4521,50355
30185,4541,50371
30206,4564,50391
30224,4586,50406
30235,4603,50414
30244,4615,50421
30253,4626,50427
30260,4631,50424
30263,4633,50412
30264,4635,50401
30265,4637,50396
30265,4639,50392
30262,4639,50385
30257,4637,50377
30247,4632,50361
30230,4619,50336
30207,4595,50306
30182,4567,50279
30157,4540,50254
30135,4516,50227
30114,4493,50199
30098,4472,50173
30086,4457,50150
30076,4446,50131
30065,4438,50120
30061,4435,50119
30064,4440,50127
30074,4453,50152
30097,4479,50209
30149,4531,50314
30242,4624,50481
30386,4768,50734
30594,4973,51096
30873,5246,51575
31216,5580,52158
31606,5957,52820
32025,6360,53535
32456,6771,54271
32880,7171,54990
33276,7543,55657
33630,7875,56253
33938,8163,56769
34196,8404,57195
34402,8592,57527
34560,8729,57772
34676,8824,57941
34751,8885,58042
34787,8911,58083
34794,8909,58074
34778,8883,58024
34742,8838,57936
34686,8773,57814
34615,8694,57669
34532,8606,57512
34435,8509,57338
34324,8404,57148
34208,8294,56951
34092,8182,56752
33971,8069,56549
33848,7957,56343
33728,7851,56143
33613,7751,55950
33504,7653,55760
33402,7559,55579
33308,7472,55413
33224,7397,55262
33146,7328,55119
33070,7258,54986
32997,7191,54866
32930,7131,54761
32868,7077,54668
32814,7026,54585
32766,6980,54512
32725,6941,54440
32688,6900,54366
32647,6855,54288
32601,6805,54205
32548,6756,54113
32490,6708,54016
32432,6661,53921
32379,6617,53830
32333,6576,53742
32297,6536,53659
32266,6500,53593
32241,6473,53546
32223,6452,53512
32212,6439,53491
32210,6438,53491
32217,6449,53509
32230,6468,53538
32246,6487,53575
32267,6510,53626
32297,6539,53689
32338,6576,53762
32384,6617,53842
32430,6656,53927
32473,6691,54010
32510,6725,54084
32540,6752,54149
32564,6772,54205
32583,6786,54250
32593,6793,54281
32595,6794,54299
32589,6790,54302
32577,6782,54289
32557,6770,54259
32531,6753,54215
32501,6731,54162
32468,6705,54100
32429,6672,54030
32389,6634,53957
32351,6597,53883
32311,6561,53799
32264,6519,53702
32214,6473,53600
32167,6428,53505
32123,6386,53412
32078,6343,53315
32033,6299,53218
31989,6256,53127
31947,6216,53038
31903,6176,52947
31858,6135,52857
31815,6095,52774
31776,6059,52697
31740,6027,52625
31708,5996,52557
31679,5966,52495
31651,5939,52437
31625,5917,52384
31604,5903,52341
31591,5896,52311
31582,5891,52287
31577,5884,52263
31575,5881,52242
31576,5882,52226
31577,5884,52211
31574,5882,52198
31570,5878,52191
31566,5875,52186
31560,5871,52177
31554,5865,52166
31550,5861,52156
31547,5863,52150
31546,5868,52144
31548,5871,52138
31553,5876,52135
31558,5880,52131
31557,5879,52122
31551,5871,52111
31542,5857,52098
31529,5840,52077
31514,5820,52043
31498,5799,52003
31480,5775,51960
31457,5749,51912
31425,5715,51858
31382,5675,51800
31334,5632,51738
31287,5589,51665
31234,5538,51585
31170,5473,51504
31102,5397,51424
31032,5314,51337
30956,5224,51243
30877,5133,51149
30797,5046,51059
30719,4962,50965
30643,4882,50865
30571,4805,50768
30504,4734,50680
30441,4674,50601
30384,4626,50532
30336,4587,50477
30300,4560,50437
30279,4544,50404
30273,4540,50381
30279,4547,50375
30294,4563,50382
30314,4582,50388
30340,4606,50397
30371,4636,50414
30403,4670,50436
30435,4703,50457
30465,4731,50481
30493,4759,50511
30527,4794,50550
30572,4841,50605
30641,4909,50701
30746,5014,50866
30892,5169,51120
31085,5377,51474
31336,5636,51935
31643,5943,52499
31997,6291,53142
32385,6663,53835
32793,7046,54555
33203,7431,55269
33599,7798,55941
33967,8133,56551
34297,8429,57088
34581,8685,57544
34815,8896,57909
34998,9061,58184
35134,9184,58384
35227,9270,58517
35280,9321,58586
35300,9338,58597
35293,9326,58564
35262,9293,58492
35211,9243,58380
35141,9174,58235
35058,9088,58070
34964,8991,57891
34858,8885,57695
34744,8775,57490
34626,8663,57282
34504,8547,57070
34379,8426,56851
34252,8301,56631
34126,8178,56414
34001,8053,56197
33875,7927,55977
33748,7801,55758
33622,7678,55544
33495,7554,55329
33364,7427,55112
33231,7295,54900
33097,7160,54692
32966,7023,54482
32835,6883,54267
32700,6744,54055
32564,6609,53849
32431,6474,53645
32297,6336,53441
32158,6196,53241
32016,6057,53044
31875,5923,52850
31741,5792,52663
31613,5666,52494
31492,5548,52338
31381,5443,52189
31280,5352,52048
31189,5270,51926
31110,5196,51825
31042,5131,51739
30984,5078,51667
30935,5035,51613
30897,4999,51572
30863,4967,51538
30833,4938,51511
30805,4917,51495
30786,4900,51487
30773,4884,51475
30763,4871,51457
30755,4862,51443
30749,4854,51435
30741,4844,51421
30730,4828,51401
30714,4807,51379
30689,4781,51356
30654,4749,51324
30609,4711,51283
30560,4669,51234
30510,4627,51180
30460,4586,51118
30411,4545,51051
30365,4504,50984
30326,4467,50918
30292,4432,50849
30261,4394,50782
30233,4360,50721
30210,4332,50665
30187,4307,50613
30166,4284,50572
30150,4263,50545
30140,4247,50526
30134,4237,50512
30131,4230,50502
30132,4227,50496
30133,4229,50487
30134,4231,50477
30135,4232,50471
30136,4235,50469
30138,4239,50465
30141,4246,50458
30142,4257,50458
30146,4271,50461
30153,4289,50459
30162,4309,50457
30171,4331,50462
30184,4354,50469
30201,4375,50474
30219,4394,50478
30238,4416,50490
30260,4444,50506
30284,4474,50519
30307,4502,50531
30332,4529,50544
30357,4558,50557
30377,4587,50564
30393,4613,50572
30411,4637,50586
30431,4657,50599
30453,4675,50603
30476,4691,50609
30499,4710,50623
30522,4732,50640
30548,4752,50656
30575,4769,50677
30600,4788,50705
30624,4814,50729
30642,4840,50746
30656,4863,50764
30669,4882,50783
30681,4899,50796
30690,4914,50803
30697,4925,50807
30705,4934,50811
30714,4941,50816
30722,4945,50819
30728,4951,50827
30734,4958,50838
30737,4964,50842
30735,4965,50840
30728,4963,50838
30719,4963,50836
30712,4965,50828
30707,4967,50814
30706,4965,50805
30706,4959,50802
30702,4949,50794
30690,4933,50780
30671,4913,50766
30647,4893,50751
30618,4872,50729
30590,4847,50698
30564,4820,50665
30544,4795,50631
30525,4771,50595
30503,4747,50558
30475,4719,50523
30443,4690,50489
30409,4656,50450
30374,4616,50409
30341,4577,50374
30308,4543,50343
30276,4511,50311
30247,4480,50281
30220,4452,50260
30197,4430,50242
30178,4411,50228
30168,4400,50231
30175,4410,50265
30210,4454,50339
30283,4536,50467
30400,4663,50671
30568,4843,50968
30789,5076,51354
31058,5354,51819
31364,5661,52354
31696,5986,52934
32040,6316,53526
32381,6637,54108
32705,6942,54664
33005,7222,55175
33267,7470,55619
33489,7675,55983
33670,7834,56270
33809,7951,56477
33904,8030,56603
33954,8070,56656
33969,8076,56651
33954,8055,56594
33914,8013,56491
33852,7952,56352
33771,7877,56189
33677,7792,56006
33575,7698,55804
33468,7599,55590
33358,7494,55372
33245,7388,55150
33130,7285,54926
33017,7184,54707
32911,7085,54497
32811,6990,54297
32715,6898,54105
32619,6807,53928
32526,6722,53769
32442,6642,53620
32366,6564,53481
32298,6493,53356
32239,6431,53247
32191,6379,53148
32153,6333,53058
32121,6294,52980
32090,6264,52917
32057,6240,52856
32022,6215,52791
31984,6185,52729
31946,6151,52673
31910,6117,52617
31876,6086,52561
31845,6058,52512
31815,6030,52468
31786,6000,52428
31759,5970,52390
31731,5940,52358
31703,5914,52334
31676,5894,52312
31652,5876,52292
31635,5860,52279
31624,5848,52274
31617,5838,52271
31610,5825,52269
31601,5808,52272
31588,5789,52276
31570,5769,52272
31550,5751,52259
31528,5731,52241
31504,5712,52221
31480,5692,52192
31452,5669,52156
31422,5642,52121
31392,5610,52084
31359,5572,52037
31325,5528,51983
31291,5485,51929
31259,5447,51876
31224,5412,51821
31186,5379,51768
31148,5349,51721
31111,5322,51674
31073,5292,51618
31032,5261,51560
30989,5231,51506
30950,5201,51453
30914,5173,51402
30882,5146,51356
30852,5122,51316
30824,5103,51278
30800,5087,51241
30780,5070,51212
30763,5052,51190
30752,5038,51168
30745,5029,51146
30739,5020,51130
30739,5015,51119
30744,5014,51107
30754,5021,51097
30768,5034,51097
30783,5052,51103
30795,5071,51107
30805,5090,51106
30815,5107,51106
30826,5123,51109
30837,5137,51106
30848,5149,51101
30863,5163,51103
30882,5181,51111
30901,5199,51117
30918,5216,51120
30935,5233,51125
30953,5252,51131
30971,5271,51137
30986,5288,51145
30997,5302,51153
31003,5314,51159
31005,5321,51158
31006,5324,51154
31009,5324,51154
31012,5324,51154
31012,5321,51148
31005,5310,51137
30993,5295,51125
30980,5280,51110
30965,5262,51088
30948,5241,51063
30932,5220,51043
30918,5200,51021
30898,5178,50995
30874,5155,50972
30850,5132,50956
30824,5106,50938
30792,5075,50916
30758,5042,50900
30726,5011,50885
30695,4981,50861
30663,4949,50827
30629,4915,50792
30593,4882,50755
30556,4847,50712
30520,4809,50665
30484,4766,50620
30444,4719,50574
30401,4669,50525
30356,4619,50474
30311,4569,50427
30266,4522,50383
30222,4477,50339
30180,4436,50298
30139,4397,50266
30101,4361,50238
30063,4328,50206
30027,4297,50173
29993,4273,50148
29964,4256,50128
29939,4240,50103
29920,4225,50078
29911,4212,50065
29915,4207,50066
29927,4211,50081
29949,4229,50117
29992,4268,50187
30062,4333,50295
30161,4428,50450
30292,4557,50669
30461,4726,50960
30667,4934,51314
30905,5173,51722
31168,5438,52176
31446,5717,52654
31723,5994,53130
31987,6252,53579
32228,6480,53992
32443,6678,54358
32624,6845,54659
32764,6974,54888
32866,7065,55050
32936,7122,55146
32974,7150,55176
32976,7148,55146
32946,7115,55067
32889,7057,54944
32812,6982,54777
32718,6890,54578
32613,6782,54363
32507,6671,54144
32401,6563,53926
32296,6459,53716
32192,6360,53519
32095,6270,53335
32010,6189,53163
31939,6118,53007
31880,6059,52873
31830,6010,52757
31782,5966,52653
31737,5925,52561
31693,5886,52486
31654,5850,52421
31616,5810,52357
31578,5767,52295
31541,5726,52238
31506,5688,52184
31466,5651,52127
31421,5616,52070
31378,5583,52022
31337,5553,51974
31298,5521,51922
31257,5488,51870
31219,5456,51823
31187,5428,51778
31161,5401,51733
31139,5374,51693
31123,5348,51658
31111,5327,51624
31101,5308,51595
31094,5293,51575
31089,5283,51566
31087,5278,51565
31086,5276,51571
31089,5279,51586
31098,5288,51611
31110,5303,51637
31124,5321,51666
31142,5340,51706
31164,5365,51750
31187,5390,51788
31209,5411,51819
31229,5427,51849
31247,5439,51875
31259,5447,51891
31264,5449,51900
31262,5449,51905
31253,5444,51905
31238,5430,51890
31220,5409,51864
31199,5388,51832
31173,5366,51795
31142,5342,51746
31109,5313,51692
31076,5282,51637
31041,5249,51582
31003,5211,51520
30961,5171,51458
30920,5134,51401
30884,5101,51346
30849,5068,51289
30812,5030,51234
30773,4991,51183
30737,4958,51135
30708,4930,51088
30685,4904,51049
30669,4880,51020
30662,4865,50997
30660,4859,50979
30660,4859,50969
30660,4864,50965
30662,4873,50963
30667,4885,50962
30678,4900,50970
30697,4919,50983
30721,4943,50994
30747,4970,51004
30775,5002,51019
30807,5036,51042
30842,5072,51065
30876,5105,51087
30906,5135,51114
30933,5162,51139
30953,5187,51154
30970,5209,51162
30986,5229,51174
31001,5248,51190
31017,5269,51204
31034,5293,51216
31052,5318,51234
31071,5344,51257
31093,5371,51279
31112,5396,51298
31131,5418,51319
31150,5439,51337
31169,5459,51347
31188,5473,51353
31206,5482,51359
31223,5491,51363
31237,5502,51361
31246,5511,51359
31251,5516,51356
31254,5517,51349
31253,5514,51338
31247,5510,51328
31238,5505,51321
31227,5499,51312
31217,5492,51296
31208,5483,51284
31205,5477,51283
31210,5475,51289
31223,5482,51308
31253,5505,51361
31311,5560,51462
31404,5656,51624
31540,5793,51866
31728,5982,52211
31976,6229,52662
32276,6525,53199
32616,6857,53802
32983,7212,54455
33358,7575,55128
33725,7929,55780
34067,8259,56383
34374,8555,56921
34638,8807,57381
34852,9005,57748
35011,9150,58017
35119,9244,58196
35182,9292,58292
35203,9299,58311
35186,9268,58267
35134,9209,58173
35056,9129,58037
34956,9031,57865
34840,8917,57664
34712,8793,57444
34570,8660,57204
34415,8514,56941
34248,8357,56660
34078,8192,56370
33907,8023,56070
33733,7847,55763
33559,7671,55463
33390,7500,55175
33230,7336,54898
33078,7180,54634
32935,7030,54391
32803,6890,54171
32679,6761,53964
32561,6642,53771
32447,6530,53594
32340,6429,53434
32246,6342,53290
32163,6268,53162
32091,6203,53050
32029,6145,52953
31977,6095,52862
31930,6052,52779
31885,6015,52708
31846,5984,52649
31813,5959,52594
31790,5939,52545
31774,5924,52509
31763,5913,52481
31751,5904,52452
31741,5897,52427
31739,5896,52416
31748,5904,52421
31763,5920,52433
31784,5941,52454
31812,5969,52488
31847,6003,52533
31886,6041,52580
31925,6081,52629
31966,6125,52686
32008,6172,52748
32050,6220,52804
32089,6262,52857
32126,6299,52909
32159,6331,52953
32185,6356,52986
32201,6374,53012
32209,6385,53035
32211,6391,53050
32205,6391,53048
32191,6381,53035
32170,6364,53013
32143,6343,52978
32109,6315,52930
32069,6279,52873
32025,6239,52813
31979,6197,52747
31931,6154,52676
31882,6110,52604
31835,6065,52530
31790,6019,52451
31745,5973,52369
31699,5930,52300
31657,5890,52241
31619,5851,52179
31584,5810,52116
31551,5771,52057
31520,5735,52002
31490,5701,51946
31463,5670,51890
31436,5644,51841
31410,5625,51798
31385,5610,51756
31363,5599,51716
31345,5590,51689
31329,5583,51669
31315,5575,51646
31302,5564,51622
31292,5553,51600
31285,5540,51580
31279,5524,51557
31270,5505,51533
31256,5483,51511
31240,5461,51490
31226,5443,51469
31215,5426,51453
31207,5413,51445
31202,5406,51440
31198,5404,51434
31194,5406,51429
31192,5415,51427
31197,5431,51425
31205,5453,51423
31217,5474,51430
31232,5494,51444
31246,5513,51456
31256,5528,51465
31262,5537,51473
31269,5545,51477
31274,5553,51470
31276,5555,51458
31276,5552,51450
31274,5548,51448
31272,5546,51444
31274,5545,51439
31277,5544,51440
31280,5546,51443
31282,5546,51440
31278,5542,51430
31270,5536,51423
31261,5531,51418
31251,5525,51407
31239,5514,51389
31226,5501,51371
31214,5485,51355
31199,5468,51337
31184,5450,51321
31173,5434,51313
31165,5425,51307
31157,5422,51301
31152,5424,51298
31152,5430,51299
31158,5436,51298
31162,5437,51292
31160,5432,51282
31155,5428,51275
31152,5428,51266
31150,5429,51252
31146,5430,51240
31144,5434,51235
31145,5440,51230
31146,5444,51221
31145,5444,51212
31141,5444,51204
31133,5445,51193
31125,5444,51178
31119,5442,51168
31117,5445,51167
31120,5449,51171
31127,5454,51181
31141,5462,51205
31169,5487,51254
31224,5539,51345
31317,5631,51503
31461,5774,51760
31668,5981,52133
31942,6254,52623
32271,6585,53216
32645,6958,53896
33049,7357,54630
33469,7766,55374
33883,8166,56092
34273,8536,56762
34623,8867,57359
34926,9148,57862
35177,9381,58265
35374,9566,58580
35518,9703,58809
35613,9790,58953
35661,9830,59019
35672,9830,59021
35653,9801,58968
35608,9748,58865
35542,9673,58725
35458,9581,58562
35360,9477,58377
35250,9364,58170
35128,9244,57945
35000,9118,57713
34868,8991,57476
34731,8866,57237
34592,8742,57004
34455,8622,56784
34326,8507,56573
34203,8397,56368
34090,8294,56175
33987,8202,55999
33895,8119,55835
33811,8040,55683
33736,7968,55551
33672,7904,55438
33618,7851,55337
33574,7805,55246
33536,7762,55170
33502,7725,55108
33469,7690,55046
33432,7651,54980
33387,7604,54912
33335,7552,54836
33281,7499,54748
33226,7444,54648
33171,7391,54549
33117,7341,54460
33070,7300,54381
33034,7267,54315
33011,7245,54270
32998,7232,54242
32990,7228,54220
32990,7231,54209
32998,7241,54220
33013,7256,54248
33033,7275,54287
33059,7302,54335
33091,7338,54398
33130,7381,54470
33172,7426,54544
33214,7470,54618
33257,7511,54696
33299,7551,54774
33337,7590,54844
33369,7625,54908
33398,7658,54965
33421,7684,55007
33435,7696,55027
33441,7695,55031
33438,7687,55024
33428,7674,55005
33409,7652,54970
33380,7619,54923
33343,7580,54863
33295,7537,54787
33236,7487,54692
33167,7427,54585
33090,7359,54467
33010,7286,54338
32929,7206,54199
32844,7118,54058
32756,7026,53921
32664,6930,53781
32570,6834,53640
32477,6743,53507
32389,6659,53382
32306,6578,53254
32225,6498,53124
32151,6422,53004
32086,6352,52895
32030,6291,52792
31981,6235,52696
31934,6183,52611
31888,6136,52534
31846,6095,52458
31809,6058,52387
31779,6025,52327
31750,5995,52277
31717,5964,52227
31679,5932,52177
31641,5903,52133
31607,5876,52091
31573,5851,52048
31539,5827,52007
31512,5806,51973
31492,5789,51945
31479,5774,51919
31473,5764,51897
31473,5758,51882
31477,5756,51869
31481,5755,51857
31481,5752,51845
31473,5747,51834
31463,5743,51820
31457,5740,51805
31455,5737,51796
31457,5736,51796
31464,5740,51797
31471,5751,51797
31478,5765,51801
31486,5781,51810
31496,5797,51816
31507,5814,51817
31519,5832,51820
31532,5850,51827
31543,5865,51828
31548,5871,51821
31546,5867,51812
31542,5859,51807
31537,5850,51796
31531,5841,51779
31526,5832,51763
31522,5824,51747
31518,5817,51728
31514,5808,51708
31507,5800,51693
31496,5790,51681
31487,5781,51665
31482,5774,51649
31478,5774,51641
31473,5775,51639
31465,5771,51631
31453,5760,51618
31442,5747,51609
31432,5736,51599
31422,5725,51584
31411,5715,51571
31400,5703,51561
31392,5693,51548
31386,5685,51528
31378,5677,51509
31371,5667,51497
31365,5658,51484
31357,5650,51472
31349,5639,51465
31340,5626,51461
31331,5613,51455
31320,5600,51447
31306,5590,51442
31297,5583,51440
31292,5580,51437
31288,5577,51429
31286,5575,51424
31286,5576,51423
31289,5580,51421
31293,5589,51421
31302,5602,51430
31321,5625,51453
31356,5666,51496
31415,5735,51582
31513,5843,51744
31668,6005,52011
31894,6235,52401
32191,6534,52922
32554,6894,53567
32965,7302,54305
33409,7741,55094
33866,8189,55899
34317,8624,56685
34742,9030,57416
35126,9394,58061
35460,9709,58610
35741,9972,59063
35968,10181,59419
36140,10336,59678
36258,10442,59851
36327,10504,59947
36356,10529,59978
36350,10518,59952
36314,10475,59877
36253,10406,59761
36172,10321,59611
36074,10221,59431
35965,10109,59230
35850,9990,59019
35729,9868,58801
35599,9743,58578
35464,9618,58363
35333,9499,58159
35211,9387,57958
35096,9278,57759
34984,9170,57570
34880,9069,57396
34783,8978,57233
34694,8896,57084
34613,8820,56950
34540,8751,56832
34476,8692,56723
34418,8642,56623
34366,8598,56540
34320,8558,56473
34278,8519,56403
34235,8477,56326
34191,8434,56249
34146,8393,56175
34101,8351,56092
34052,8306,56003
34006,8259,55918
33963,8213,55839
33923,8173,55763
33886,8139,55693
33856,8112,55641
33837,8095,55607
33830,8092,55590
33835,8105,55591
33855,8133,55618
33888,8174,55669
33930,8224,55738
33981,8281,55829
34045,8351,55943
34124,8433,56074
34210,8520,56211
34298,8608,56357
34386,8696,56510
34470,8776,56659
34543,8841,56791
34600,8889,56904
34644,8926,56995
34677,8951,57060
34699,8964,57100
34710,8964,57121
34709,8955,57124
34699,8943,57110
34684,8928,57081
34664,8911,57043
34641,8892,56995
34612,8869,56932
34571,8835,56851
34518,8785,56758
34450,8723,56653
34367,8647,56527
34268,8557,56374
34154,8453,56203
34029,8334,56015
33897,8203,55803
33758,8061,55576
33613,7912,55347
33468,7763,55123
33331,7618,54900
33205,7482,54686
33088,7360,54489
32979,7251,54311
32876,7153,54144
32781,7062,53991
32697,6980,53856
32622,6907,53734
32553,6840,53618
32489,6778,53509
32432,6725,53412
32381,6678,53323
32328,6630,53234
32275,6579,53148
32226,6530,53070
32183,6486,52998
32146,6448,52930
32112,6416,52873
32083,6390,52826
32060,6372,52786
32043,6361,52748
32031,6353,52719
32025,6347,52698
32022,6344,52678
32016,6340,52658
32008,6335,52645
32002,6334,52641
31999,6338,52637
31997,6340,52628
31994,6340,52623
31993,6341,52619
31994,6346,52610
31998,6351,52598
32000,6358,52591
32003,6367,52587
32008,6378,52578
32014,6390,52567
32019,6402,52559
32024,6411,52554
32029,6415,52546
32034,6418,52539
32040,6422,52540
32045,6425,52543
32046,6427,52540
32046,6427,52535
32051,6427,52535
32062,6429,52539
32072,6433,52541
32078,6437,52540
32078,6440,52541
32074,6441,52535
32064,6439,52518
32051,6433,52494
32040,6423,52467
32030,6411,52438
32018,6397,52406
32005,6380,52378
31991,6362,52353
31976,6343,52323
31956,6320,52286
31929,6292,52246
31899,6261,52207
31863,6226,52166
31819,6188,52121
31771,6145,52075
31723,6102,52028
31675,6060,51981
31628,6015,51935
31584,5971,51896
31548,5933,51865
31518,5901,51834
31487,5872,51805
31456,5842,51784
31429,5816,51765
31405,5793,51740
31384,5772,51713
31364,5753,51689
31349,5738,51669
31337,5727,51649
31327,5715,51627
31317,5703,51612
31307,5693,51603
31296,5687,51590
31286,5682,51576
31279,5681,51569
31274,5681,51565
31271,5677,51551
31266,5670,51532
31260,5661,51518
31254,5651,51509
31249,5641,51493
31245,5632,51476
31243,5625,51464
31242,5620,51453
31238,5615,51439
31233,5611,51426
31229,5612,51421
31227,5618,51423
31225,5628,51425
31227,5640,51435
31239,5658,51464
31269,5691,51519
31328,5753,51615
31428,5854,51780
31584,6012,52043
31807,6240,52421
32097,6534,52920
32448,6885,53539
32850,7287,54256
33287,7721,55030
33735,8161,55820
34171,8583,56593
34574,8972,57311
34936,9320,57943
35248,9616,58473
35502,9854,58905
35699,10033,59238
35842,10158,59468
35935,10235,59602
35980,10268,59650
35982,10265,59627
35946,10229,59545
35879,10161,59412
35791,10069,59239
35685,9959,59034
35564,9832,58804
35426,9691,58556
35274,9540,58296
35111,9382,58025
34937,9216,57739
34756,9041,57444
34579,8864,57152
34407,8689,56867
34239,8519,56585
34080,8356,56315
33932,8207,56065
33796,8074,55835
33672,7957,55623
33564,7854,55434
33470,7768,55272
33389,7698,55132
33318,7641,55010
33257,7593,54908
33204,7548,54820
33156,7503,54735
33107,7457,54643
33059,7409,54556
33013,7364,54476
32969,7320,54392
32924,7271,54301
32879,7219,54212
32835,7170,54130
32796,7125,54053
32759,7084,53985
32724,7048,53932
32692,7022,53894
32667,7007,53864
32650,7001,53845
32642,7002,53842
32641,7008,53854
32648,7019,53873
32663,7037,53897
32687,7062,53934
32713,7093,53981
32738,7126,54027
32767,7158,54073
32801,7193,54124
32835,7229,54176
32864,7260,54219
32887,7282,54253
32902,7294,54281
32909,7297,54299
32904,7291,54301
32887,7272,54285
32857,7243,54256
32815,7203,54212
32762,7151,54148
32699,7086,54064
32625,7011,53968
32546,6931,53858
32462,6845,53735
32375,6753,53604
32287,6661,53473
32200,6574,53339
32112,6494,53207
32025,6419,53084
31944,6352,52974
31870,6291,52869
31801,6231,52767
31736,6173,52675
31681,6120,52595
31633,6071,52520
31588,6023,52446
31545,5975,52383
31507,5935,52332
31472,5901,52285
31438,5872,52239
31403,5845,52199
31369,5818,52165
31338,5794,52129
31312,5773,52094
31291,5752,52065
31273,5733,52037
31259,5720,52004
31249,5711,51970
31242,5702,51940
31234,5695,51919
31225,5691,51902
31213,5686,51887
31204,5679,51877
31197,5673,51868
31194,5671,51854
31193,5674,51842
31193,5677,51837
31194,5678,51833
31191,5676,51823
31181,5668,51813
31173,5659,51810
31166,5650,51810
31159,5642,51804
31151,5635,51794
31146,5630,51785
31144,5630,51777
31142,5633,51768
31137,5635,51758
31134,5636,51749
31131,5638,51736
31123,5639,51718
31115,5639,51706
31115,5642,51703
31117,5643,51701
31117,5640,51694
31116,5632,51690
31117,5625,51692
31121,5619,51689
31125,5616,51683
31129,5617,51682
31131,5623,51688
31132,5630,51692
31131,5636,51695
31128,5641,51703
31125,5644,51714
31126,5648,51718
31131,5654,51718
31142,5666,51724
31159,5683,51736
31178,5700,51744
31197,5716,51748
31218,5733,51756
31238,5749,51762
31253,5761,51758
31263,5771,51747
31267,5778,51741
31269,5782,51738
31269,5784,51732
31266,5782,51725
31261,5781,51722
31256,5783,51722
31252,5785,51720
31250,5786,51721
31253,5789,51730
31261,5798,51743
31270,5809,51753
31277,5820,51764
31287,5832,51778
31299,5846,51789
31312,5858,51796
31323,5868,51805
31336,5878,51818
31351,5890,51826
31366,5902,51830
31381,5914,51838
31392,5927,51854
31398,5943,51871
31400,5959,51884
31398,5968,51895
31394,5974,51899
31391,5979,51895
31387,5983,51887
31379,5982,51882
31371,5978,51880
31359,5970,51877
31342,5956,51869
31325,5939,51858
31312,5924,51848
31302,5909,51833
31293,5893,51813
31286,5880,51802
31285,5876,51799
31291,5880,51797
31302,5889,51794
31319,5902,51799
31345,5922,51811
31380,5948,51832
31429,5987,51876
31499,6046,51965
31600,6142,52114
31743,6286,52338
31934,6485,52654
32179,6740,53074
32475,7042,53588
32810,7380,54174
33169,7740,54811
33540,8108,55479
33913,8476,56143
34270,8827,56771
34600,9150,57347
34893,9437,57856
35140,9681,58279
35338,9874,58606
35484,10010,58844
35581,10097,58998
35631,10143,59069
35641,10151,59063
35610,10122,58990
35543,10061,58860
35445,9971,58678
35321,9857,58459
35180,9721,58217
35027,9566,57953
34864,9399,57664
34694,9224,57361
34522,9048,57060
34353,8877,56766
34192,8712,56477
34040,8556,56199
33895,8412,55943
