green_channel,red_channel,ir_channel
6719,55526,37432
6618,55404,37237
6530,55292,37060
6455,55194,36905
6396,55121,36784
6355,55077,36704
6332,55059,36663
6329,55061,36658
6345,55084,36687
6379,55125,36746
6429,55182,36829
6493,55254,36939
6570,55344,37075
6654,55448,37228
6741,55558,37390
6828,55669,37559
6916,55782,37735
7007,55896,37913
7099,56009,38086
7185,56116,38249
7266,56215,38402
7343,56307,38545
7413,56388,38674
7474,56462,38786
7525,56526,38882
7564,56577,38958
7592,56615,39012
7610,56636,39043
7616,56640,39054
7607,56628,39046
7588,56606,39021
7561,56576,38979
7527,56538,38921
7487,56492,38847
7442,56434,38758
7390,56367,38658
7334,56296,38552
7275,56222,38442
7214,56141,38324
7149,56054,38197
7085,55967,38068
7022,55883,37943
6959,55798,37816
6895,55711,37683
6828,55622,37547
6753,55530,37407
6674,55436,37264
6594,55342,37121
6517,55251,36980
6445,55165,36844
6376,55082,36713
6307,55001,36587
6238,54921,36465
6171,54842,36347
6106,54768,36236
6046,54700,36133
5989,54636,36036
5936,54573,35940
5887,54509,35848
5841,54445,35760
5798,54385,35675
5758,54332,35594
5719,54284,35517
5681,54239,35444
5644,54198,35376
5611,54162,35314
5581,54133,35258
5555,54111,35206
5534,54093,35160
5513,54072,35119
5494,54048,35081
5478,54027,35049
5464,54008,35020
5448,53988,34988
5429,53965,34952
5412,53944,34919
5397,53926,34891
5384,53912,34866
5374,53898,34845
5361,53884,34827
5347,53866,34813
5334,53848,34802
5325,53837,34797
5318,53830,34792
5309,53823,34781
5296,53812,34763
5282,53796,34739
5269,53776,34707
5253,53754,34667
5231,53725,34619
5203,53690,34562
5168,53652,34499
5125,53605,34434
5078,53552,34367
5031,53497,34298
4986,53443,34223
4943,53387,34146
4902,53332,34069
4864,53283,33998
4829,53243,33939
4802,53210,33896
4786,53190,33875
4789,53199,33891
4819,53248,33961
4884,53336,34088
4990,53468,34281
5139,53650,34547
5326,53881,34888
5546,54153,35293
5795,54461,35755
6067,54793,36260
6353,55141,36792
6648,55499,37342
6943,55859,37896
7226,56208,38438
7493,56540,38954
7741,56853,39438
7972,57140,39888
8184,57399,40295
8371,57624,40653
8526,57808,40958
8651,57958,41211
8756,58081,41417
8841,58177,41573
8900,58244,41674
8935,58281,41722
8948,58292,41726
8939,58274,41693
8909,58230,41625
8865,58167,41526
8810,58090,41402
8744,58001,41256
8671,57903,41092
8592,57797,40917
8506,57684,40731
8412,57566,40536
8314,57446,40339
8215,57325,40143
8118,57202,39948
8021,57076,39750
7922,56948,39549
7824,56819,39344
7725,56690,39138
7623,56559,38929
7513,56420,38714
7399,56279,38497
7286,56142,38285
7175,56009,38083
7068,55886,37892
6972,55777,37723
6891,55683,37579
6824,55602,37459
6775,55542,37367
6747,55507,37309
6737,55498,37285
6747,55511,37294
6775,55545,37334
6819,55596,37402
6873,55658,37492
6937,55732,37603
7012,55819,37734
7094,55917,37881
7183,56023,38039
7272,56129,38203
7360,56232,38367
7446,56333,38531
7528,56431,38688
7603,56523,38836
7671,56610,38972
7736,56692,39097
7796,56767,39208
7846,56831,39301
7886,56881,39373
7917,56918,39426
7936,56941,39462
7944,56953,39479
7943,56952,39476
7931,56938,39455
7911,56912,39417
7884,56877,39361
7852,56834,39291
7814,56785,39212
7768,56729,39124
7716,56668,39030
7663,56604,38934
7607,56537,38835
7550,56468,38729
7491,56396,38619
7430,56322,38505
7372,56246,38387
7316,56169,38267
7259,56090,38148
7199,56013,38029
7138,55937,37912
7077,55859,37793
7015,55779,37670
6954,55697,37546
6892,55613,37422
6824,55526,37294
6753,55438,37166
6682,55357,37044
6611,55285,36929
6547,55216,36818
6490,55150,36712
6437,55087,36608
6380,55027,36508
6324,54969,36415
6275,54915,36329
6234,54865,36249
6196,54817,36173
6159,54772,36102
6120,54729,36037
6085,54690,35979
6055,54653,35925
6026,54614,35874
5998,54576,35828
5971,54545,35788
5947,54516,35749
5922,54487,35708
5899,54458,35668
5878,54437,35634
5860,54422,35605
5847,54411,35579
5839,54404,35558
5833,54397,35543
5824,54385,35528
5817,54376,35514
5812,54370,35500
5805,54364,35484
5795,54356,35465
5783,54343,35445
5769,54331,35424
5755,54320,35402
5739,54305,35375
5717,54281,35339
5692,54252,35296
5665,54219,35245
5631,54180,35185
5591,54135,35115
5550,54088,35043
5508,54041,34970
5467,53992,34896
5426,53940,34821
5384,53886,34746
5339,53830,34671
5294,53775,34596
5255,53725,34523
5220,53683,34461
5192,53651,34415
5177,53638,34398
5184,53650,34421
5221,53696,34493
5291,53782,34621
5398,53911,34811
5539,54086,35069
5715,54308,35395
5926,54569,35782
6164,54860,36224
6420,55174,36709
6687,55503,37225
6959,55840,37754
7228,56176,38279
7490,56502,38787
7740,56811,39269
7974,57094,39719
8187,57347,40131
8376,57572,40502
8545,57769,40827
8689,57937,41099
8805,58071,41318
8895,58175,41487
8961,58249,41609
9004,58293,41684
9027,58309,41715
9034,58305,41707
9026,58283,41665
9000,58242,41592
8958,58186,41492
8906,58116,41372
8843,58033,41232
8773,57936,41075
8695,57829,40906
8609,57713,40725
8515,57592,40537
8414,57468,40346
8310,57344,40155
8208,57223,39961
8108,57099,39762
8005,56968,39555
7896,56829,39339
7785,56687,39121
7675,56547,38901
7562,56404,38676
7446,56259,38449
7330,56116,38225
7217,55977,38010
7109,55848,37807
7013,55730,37622
6929,55627,37461
6860,55540,37330
6807,55472,37231
6770,55427,37167
6750,55408,37136
6744,55411,37134
6755,55436,37159
6782,55478,37208
6822,55531,37281
6873,55593,37372
6933,55665,37478
7002,55750,37597
7078,55847,37729
7159,55950,37870
7241,56052,38013
7321,56151,38156
7398,56248,38299
7473,56339,38437
7542,56420,38562
7605,56493,38676
7660,56558,38776
7701,56607,38854
7729,56639,38911
7748,56660,38950
7759,56669,38970
7759,56663,38968
7746,56644,38948
7724,56616,38916
7695,56582,38873
7661,56542,38817
7624,56498,38748
7582,56450,38668
7533,56396,38580
7479,56333,38484
7425,56263,38383
7370,56192,38276
7311,56119,38160
7248,56041,38038
7182,55959,37911
7116,55876,37780
7047,55790,37645
6972,55698,37506
6892,55598,37362
6809,55497,37215
6728,55400,37071
6650,55306,36931
6576,55213,36796
6505,55125,36666
6435,55040,36540
6362,54958,36415
6292,54881,36294
6226,54809,36180
6161,54738,36068
6097,54662,35954
6036,54584,35842
5977,54508,35735
5915,54432,35630
5855,54357,35526
5798,54284,35426
5743,54217,35332
5690,54156,35241
5639,54102,35153
5591,54053,35071
5547,54008,34994
5512,53965,34926
5481,53926,34867
5452,53889,34814
5425,53856,34765
5406,53831,34723
5393,53812,34686
5381,53798,34653
5367,53787,34624
5352,53775,34597
5339,53764,34574
5332,53758,34556
5329,53755,34543
5324,53748,34529
5313,53736,34515
5300,53725,34504
5286,53716,34495
5273,53706,34480
5261,53692,34458
5249,53675,34432
5232,53655,34401
5208,53627,34363
5181,53592,34316
5150,53555,34263
5114,53515,34204
5073,53469,34139
5030,53421,34071
4987,53374,34002
4944,53326,33931
4904,53279,33862
4867,53235,33799
4828,53194,33738
4790,53152,33679
4755,53110,33622
4722,53070,33565
4692,53035,33513
4670,53009,33473
4661,52996,33454
4667,53010,33469
4701,53061,33535
4771,53152,33665
4880,53287,33868
5031,53472,34151
5220,53706,34510
5441,53982,34930
5689,54290,35398
5957,54620,35905
6237,54963,36440
6520,55309,36984
6801,55650,37523
7071,55979,38041
7322,56285,38524
7555,56564,38967
7765,56814,39365
7949,57034,39718
8105,57223,40021
8232,57379,40271
8334,57503,40472
8415,57596,40625
8473,57660,40733
8509,57698,40797
8526,57713,40819
8525,57707,40803
8509,57679,40751
8478,57634,40666
8433,57575,40558
8372,57499,40433
8299,57410,40290
8217,57312,40132
8127,57206,39960
8032,57093,39776
7935,56974,39587
7838,56851,39393
7741,56728,39196
7642,56606,38996
7540,56480,38793
7433,56347,38583
7320,56210,38370
7202,56069,38152
7079,55922,37926
6955,55772,37696
6832,55624,37468
6711,55478,37243
6594,55336,37027
6486,55204,36825
6390,55084,36642
6309,54980,36484
6247,54899,36357
6205,54840,36265
6184,54807,36211
6182,54799,36193
6193,54813,36208
6220,54848,36254
6265,54903,36330
6323,54972,36428
6388,55051,36543
6454,55140,36677
6527,55239,36829
6608,55346,36991
6695,55457,37156
6785,55571,37323
6876,55685,37491
6963,55793,37656
7044,55893,37812
7121,55986,37955
7190,56070,38081
7248,56142,38188
7295,56202,38275
7333,56248,38346
7361,56282,38397
7379,56302,38425
7387,56310,38435
7386,56305,38428
7377,56291,38403
7358,56267,38365
7331,56235,38317
7300,56196,38260
7267,56154,38194
7227,56104,38118
7179,56042,38032
7128,55972,37937
7074,55900,37838
7016,55825,37733
6953,55749,37622
6891,55675,37506
6828,55602,37387
6760,55524,37262
6688,55442,37134
6615,55361,37005
6542,55280,36877
6470,55199,36749
6402,55117,36620
6334,55035,36493
6265,54953,36367
6197,54873,36244
6135,54799,36127
6076,54727,36015
6020,54655,35903
5965,54584,35793
5912,54516,35690
5864,54453,35596
5821,54394,35508
5778,54334,35421
5732,54271,35334
5685,54213,35254
5642,54160,35179
5601,54111,35109
5562,54064,35043
5526,54021,34981
5491,53979,34921
5455,53938,34859
5423,53902,34799
5392,53872,34745
5361,53847,34697
5332,53822,34650
5307,53799,34605
5283,53777,34565
5259,53754,34527
5237,53732,34489
5217,53711,34453
5198,53690,34420
5179,53667,34390
5164,53645,34361
5151,53628,34335
5138,53613,34311
5125,53597,34289
5108,53578,34263
5090,53555,34235
5071,53529,34203
5047,53495,34166
5017,53455,34124
4987,53417,34078
4957,53380,34029
4924,53340,33973
4889,53297,33910
4854,53254,33847
4819,53210,33785
4786,53167,33722
4753,53127,33660
4719,53089,33601
4683,53055,33545
4653,53026,33497
4636,53009,33465
4634,53010,33458
4650,53036,33486
4692,53093,33563
4768,53190,33704
4882,53333,33916
5035,53525,34199
5224,53760,34546
5445,54033,34953
5693,54336,35416
5961,54661,35920
6239,55000,36446
6521,55341,36980
6798,55677,37510
7064,55998,38022
7313,56301,38505
7542,56585,38953
7753,56846,39364
7942,57079,39731
8106,57282,40048
8245,57457,40319
8361,57603,40543
8454,57715,40719
8524,57795,40845
8575,57848,40929
8602,57877,40970
8608,57880,40971
8597,57859,40934
8571,57817,40866
8530,57761,40772
8476,57692,40654
8410,57610,40518
8333,57515,40366
8249,57412,40202
8162,57304,40030
8073,57190,39852
7985,57075,39670
7894,56959,39486
7799,56838,39298
7701,56713,39107
7602,56588,38913
7499,56459,38715
7391,56324,38507
7279,56184,38292
7162,56041,38072
7040,55896,37847
6922,55751,37619
6814,55614,37398
6718,55491,37194
6634,55384,37013
6565,55293,36863
6511,55222,36746
6474,55175,36662
6453,55153,36615
6450,55155,36602
6466,55180,36624
6497,55225,36679
6539,55282,36761
6591,55346,36863
6655,55422,36987
6731,55512,37133
6812,55612,37291
6895,55713,37451
6980,55816,37613
7065,55921,37778
7149,56023,37940
7232,56121,38097
7313,56214,38245
7385,56300,38376
7444,56373,38485
7492,56434,38572
7527,56482,38638
7551,56518,38688
7566,56540,38723
7572,56549,38742
7570,56547,38746
7560,56536,38731
7542,56509,38700
7517,56468,38655
7489,56423,38601
7458,56374,38539
7422,56320,38466
7382,56261,38381
7338,56206,38288
7293,56153,38192
7245,56097,38094
7197,56040,37995
7147,55983,37897
7092,55922,37797
7034,55856,37694
6975,55787,37585
6916,55716,37473
6853,55643,37356
6790,55566,37238
6727,55488,37124
6664,55412,37013
6599,55339,36901
6534,55266,36788
6470,55196,36678
6412,55128,36570
6359,55059,36466
6309,54989,36364
6258,54921,36268
6210,54857,36178
6165,54798,36091
6123,54741,36006
6084,54688,35928
6047,54638,35852
6008,54588,35775
5968,54539,35699
5930,54495,35626
5894,54453,35556
5860,54409,35486
5827,54364,35419
5794,54320,35356
5761,54278,35297
5731,54239,35244
5704,54207,35200
5680,54184,35164
5659,54170,35135
5641,54157,35108
5626,54145,35084
5617,54137,35066
5612,54137,35056
5607,54138,35048
5603,54135,35043
5600,54132,35039
5594,54128,35036
5589,54124,35033
5590,54121,35031
5593,54120,35030
5590,54118,35027
5582,54111,35021
5575,54100,35015
5565,54087,35004
5550,54068,34986
5528,54041,34959
5501,54008,34925
5471,53972,34883
5436,53931,34831
5399,53883,34769
5358,53831,34701
5316,53779,34630
5273,53726,34554
5227,53668,34473
5177,53612,34391
5129,53562,34311
5084,53514,34233
5043,53470,34157
5009,53431,34090
4979,53397,34032
4958,53369,33983
4950,53351,33954
4962,53355,33962
4999,53394,34019
5067,53475,34138
5174,53609,34327
5320,53795,34593
5506,54031,34935
5729,54310,35351
5981,54625,35832
6259,54969,36365
6555,55333,36929
6855,55702,37506
7151,56068,38085
7442,56427,38657
7721,56770,39206
7980,57089,39716
8214,57378,40182
8424,57639,40603
8611,57872,40977
8775,58073,41297
8914,58244,41565
9027,58384,41781
9115,58493,41946
9180,58570,42062
9223,58616,42129
9246,58632,42149
9250,58624,42129
9237,58596,42074
9207,58547,41986
9160,58480,41870
9101,58400,41733
9034,58309,41577
8961,58210,41406
8884,58104,41224
8800,57991,41034
8709,57872,40841
8614,57754,40649
8520,57638,40459
8427,57520,40269
8333,57397,40079
8236,57273,39885
8138,57150,39689
8039,57027,39488
7936,56900,39282
7832,56770,39075
7727,56638,38871
7621,56503,38669
7519,56372,38473
7426,56253,38291
7342,56148,38130
7269,56058,37990
7212,55986,37880
7171,55939,37804
7145,55914,37761
7137,55912,37753
7147,55930,37778
7174,55967,37831
7214,56020,37905
7267,56086,37997
7331,56163,38107
7404,56250,38235
7480,56340,38373
7556,56431,38517
7632,56522,38665
7710,56617,38817
7789,56712,38967
7863,56803,39107
7928,56888,39235
7988,56965,39353
8041,57032,39460
8089,57091,39552
8133,57141,39628
8169,57183,39691
8195,57213,39739
8211,57228,39766
8215,57230,39772
8206,57221,39757
8185,57199,39719
8156,57164,39663
8122,57121,39596
8082,57074,39519
8039,57022,39432
7990,56964,39337
7934,56899,39235
7877,56826,39128
7817,56748,39014
7756,56665,38897
7697,56583,38779
7637,56503,38661
7573,56420,38539
7506,56336,38415
7444,56254,38292
7384,56175,38170
7323,56097,38050
7262,56021,37933
7200,55944,37819
7136,55866,37705
7077,55791,37591
7021,55723,37483
6966,55662,37379
6911,55605,37274
6855,55547,37170
6801,55490,37072
6752,55438,36982
6708,55391,36900
6663,55343,36821
6617,55293,36743
6577,55241,36668
6541,55193,36597
6509,55147,36532
6480,55105,36471
6450,55063,36412
6419,55020,36353
6387,54979,36294
6358,54945,36244
6330,54915,36203
6303,54887,36167
6281,54863,36137
6267,54844,36114
6260,54830,36096
6254,54822,36079
6249,54817,36063
6240,54814,36049
6231,54812,36039
6223,54810,36032
6211,54802,36026
6198,54792,36018
6184,54780,36008
6169,54761,35991
6151,54737,35964
6132,54711,35928
6111,54682,35884
6086,54651,35834
6059,54619,35780
6033,54590,35728
6006,54562,35680
5982,54534,35633
5961,54507,35587
5935,54478,35539
5902,54444,35487
5866,54406,35430
5830,54363,35370
5792,54313,35306
5751,54259,35232
5706,54200,35150
5660,54138,35063
5614,54078,34976
5569,54020,34889
5521,53963,34803
5472,53906,34721
5425,53853,34643
5382,53804,34572
5348,53763,34514
5326,53739,34480
5324,53740,34484
5350,53776,34536
5412,53854,34650
5517,53980,34837
5664,54157,35101
5849,54384,35436
6068,54653,35838
6315,54961,36298
6585,55301,36808
6868,55656,37347
7155,56016,37897
7441,56374,38448
7721,56722,38990
7986,57050,39507
8232,57353,39990
8458,57632,40436
8660,57882,40840
8834,58098,41190
8984,58281,41483
9107,58429,41722
9205,58545,41909
9282,58633,42046
9339,58697,42137
9376,58733,42185
9393,58745,42190
9389,58734,42155
9369,58703,42089
9335,58653,41999
9286,58587,41885
9225,58503,41749
9154,58404,41594
9075,58297,41427
8993,58189,41254
8907,58078,41078
8814,57963,40899
8718,57847,40718
8624,57732,40534
8531,57614,40347
8441,57492,40158
8349,57373,39969
8253,57253,39776
8154,57130,39576
8052,57003,39373
7947,56872,39168
7843,56742,38963
7741,56613,38764
7646,56494,38582
7560,56387,38420
7485,56296,38280
7429,56226,38168
7393,56179,38088
7372,56151,38038
7364,56144,38015
7373,56152,38017
7397,56176,38046
7434,56217,38104
7482,56273,38188
7536,56339,38288
7598,56417,38400
7667,56502,38524
7739,56591,38659
7814,56680,38803
7890,56773,38951
7966,56869,39099
8039,56961,39240
8106,57044,39373
8170,57122,39499
8229,57194,39617
8279,57256,39718
8317,57303,39797
8348,57341,39858
8371,57370,39902
8385,57390,39926
8392,57401,39931
8393,57401,39919
8384,57384,39892
8362,57350,39849
8330,57305,39793
8289,57257,39724
8241,57204,39642
8189,57146,39550
8137,57085,39449
8082,57019,39340
8023,56947,39225
7962,56872,39106
7901,56797,38986
7839,56721,38863
7774,56644,38736
7705,56565,38607
7638,56486,38480
7572,56407,38355
7503,56325,38229
7431,56241,38100
7360,56156,37972
7295,56071,37849
7234,55988,37732
7175,55904,37616
7116,55824,37504
7057,55748,37393
6996,55673,37279
6936,55599,37164
6878,55530,37054
6821,55466,36948
6764,55405,36846
6711,55349,36750
6661,55295,36660
6613,55243,36577
6572,55193,36499
6537,55148,36427
6504,55106,36359
6472,55066,36295
6441,55028,36236
6412,54991,36184
6387,54958,36136
6364,54926,36091
6340,54893,36046
6318,54862,36003
6300,54838,35966
6285,54819,35934
6271,54799,35905
6257,54781,35878
6246,54765,35857
6239,54750,35839
6232,54734,35820
6226,54721,35802
6219,54713,35790
6213,54707,35779
6206,54699,35764
6198,54690,35748
6188,54682,35734
6175,54671,35717
6161,54655,35697
6149,54635,35676
6135,54610,35647
6115,54582,35610
6091,54550,35565
6066,54515,35511
6036,54478,35448
6000,54435,35379
5954,54382,35302
5900,54322,35216
5840,54258,35122
5779,54193,35023
5720,54127,34922
5662,54063,34820
5605,54000,34717
5548,53935,34612
5492,53866,34509
5441,53799,34413
5392,53736,34325
5343,53677,34242
5298,53627,34171
5268,53595,34127
5261,53589,34122
5284,53615,34166
5342,53684,34274
5439,53804,34459
5580,53979,34724
5766,54208,35066
5993,54487,35478
6252,54804,35951
6531,55146,36467
6822,55501,37011
7120,55861,37569
7414,56216,38125
7695,56558,38663
7956,56877,39171
8198,57174,39644
8417,57446,40075
8612,57687,40454
8783,57895,40782
8929,58072,41059
9049,58216,41286
9141,58329,41462
9207,58410,41586
9250,58462,41661
9273,58487,41694
9279,58487,41689
9267,58462,41643
9237,58417,41561
9194,58354,41449
9136,58273,41313
9064,58174,41158
8982,58064,40988
8895,57946,40807
8801,57820,40615
8701,57692,40418
8599,57567,40225
8500,57442,40035
8399,57316,39843
8296,57188,39647
8193,57061,39447
8089,56936,39246
7984,56808,39040
7877,56675,38825
7765,56538,38606
7648,56393,38386
7528,56244,38169
7412,56096,37956
7302,55958,37751
7201,55829,37559
7110,55712,37386
7035,55612,37240
6976,55535,37121
6935,55481,37029
6913,55450,36970
6908,55445,36947
6919,55459,36957
6947,55489,36996
6989,55536,37060
7042,55598,37146
7102,55674,37251
7170,55758,37371
7245,55849,37505
7323,55946,37651
7403,56047,37804
7484,56149,37954
7563,56249,38100
7639,56342,38238
7706,56426,38363
7764,56499,38473
7814,56557,38568
7852,56602,38644
7880,56636,38701
7896,56658,38737
7899,56665,38751
7893,56657,38746
7881,56636,38724
7860,56605,38684
7830,56566,38629
7794,56522,38562
7751,56473,38483
7700,56414,38390
7643,56346,38285
7583,56274,38173
7519,56197,38055
7451,56115,37931
7383,56028,37802
7311,55938,37671
7236,55845,37538
7164,55752,37400
7096,55662,37260
7027,55571,37118
6956,55477,36978
6884,55384,36838
6813,55294,36700
6742,55208,36567
6669,55124,36434
6597,55041,36304
6529,54962,36175
6461,54888,36048
6391,54812,35925
6322,54736,35806
6256,54663,35692
6192,54591,35581
6129,54515,35468
6068,54438,35359
6007,54363,35254
5947,54289,35151
5890,54219,35051
5836,54152,34953
5788,54091,34858
5746,54037,34768
5707,53986,34686
5668,53937,34611
5631,53891,34543
5596,53848,34480
5563,53809,34421
5532,53776,34369
5509,53752,34324
5490,53733,34285
5474,53714,34248
5459,53695,34215
5445,53681,34190
5434,53671,34175
5425,53663,34163
5418,53655,34152
5411,53647,34142
5402,53637,34131
5394,53626,34118
5388,53617,34104
5383,53610,34089
5375,53602,34072
5367,53591,34054
5363,53582,34036
5359,53574,34018
5352,53564,33997
5337,53548,33974
5317,53528,33947
5294,53506,33917
5267,53478,33879
5238,53444,33833
5208,53409,33782
5177,53372,33726
5143,53330,33661
5102,53279,33584
5056,53223,33500
5008,53167,33412
4960,53109,33321
4908,53044,33227
4853,52976,33132
4798,52908,33036
4743,52838,32936
4684,52767,32832
4626,52702,32734
4577,52652,32653
4541,52616,32595
4526,52599,32568
4543,52617,32589
4600,52680,32674
4698,52792,32832
4840,52957,33072
5024,53177,33400
5249,53448,33810
5508,53763,34287
5792,54114,34817
6093,54490,35382
6399,54876,35964
6706,55258,36545
7007,55629,37111
7290,55983,37655
7550,56312,38166
7787,56612,38637
8005,56882,39063
8202,57122,39441
8374,57326,39766
8516,57493,40034
8629,57624,40247
8717,57721,40408
8778,57786,40517
8813,57819,40579
8825,57824,40597
8817,57803,40576
8791,57761,40519
8748,57699,40427
8689,57621,40309
8617,57534,40171
8536,57437,40014
8448,57329,39841
8355,57212,39653
8258,57088,39457
8157,56958,39255
8052,56822,39047
7944,56686,38834
7836,56550,38620
7727,56414,38403
7617,56277,38180
7507,56140,37956
7395,56001,37729
7278,55857,37498
7158,55711,37263
7039,55563,37029
6921,55414,36795
6804,55263,36568
6690,55117,36356
6582,54985,36163
6487,54874,35994
6410,54788,35854
6355,54727,35748
6322,54689,35679
6307,54670,35646
6308,54670,35644
6328,54689,35673
6369,54730,35735
6428,54791,35825
6494,54867,35938
6568,54957,36068
6650,55058,36213
6739,55167,36370
6832,55277,36533
6926,55387,36698
7018,55495,36861
7105,55600,37018
7183,55696,37163
7251,55783,37294
7311,55859,37410
7361,55921,37509
7400,55972,37591
7431,56013,37657
7454,56041,37705
7466,56055,37731
7471,56054,37735
7468,56047,37724
7456,56037,37698
7435,56020,37657
7407,55990,37601
7372,55949,37532
7328,55899,37450
7274,55836,37356
7216,55763,37250
7153,55684,37136
7087,55601,37014
7019,55513,36888
6948,55420,36760
6873,55323,36632
6796,55225,36500
6718,55129,36363
6641,55032,36221
6567,54939,36083
6494,54850,35951
6422,54759,35817
6352,54665,35681
6285,54577,35548
6218,54496,35420
6153,54418,35294
6090,54341,35170
6027,54267,35048
5964,54195,34927
5904,54124,34810
5847,54056,34701
5793,53990,34598
5738,53924,34497
5684,53858,34401
5635,53800,34313
5589,53747,34234
5545,53698,34159
5504,53651,34090
5466,53605,34024
5431,53560,33959
5398,53519,33896
5368,53484,33837
5341,53456,33787
5317,53432,33746
5296,53411,33709
5280,53393,33675
5266,53377,33644
5254,53365,33617
5244,53354,33595
5235,53344,33580
5231,53335,33570
5232,53329,33567
5233,53325,33571
5232,53321,33576
5234,53321,33581
5238,53322,33585
5243,53321,33584
5246,53317,33576
5246,53312,33564
5241,53306,33550
5231,53299,33532
5218,53290,33512
5202,53279,33488
5181,53261,33456
5155,53234,33412
5126,53201,33360
5091,53163,33299
5049,53118,33231
5005,53070,33158
4966,53023,33087
4932,52979,33020
4897,52934,32951
4856,52885,32874
4809,52832,32790
4762,52779,32707
4717,52727,32628
4675,52678,32557
4640,52636,32501
4618,52612,32470
4617,52616,32475
4644,52655,32528
4707,52734,32644
4810,52861,32834
4952,53038,33101
5136,53266,33443
5360,53541,33856
5618,53856,34329
5901,54201,34850
6200,54561,35402
6504,54927,35970
6804,55289,36536
7094,55640,37086
7369,55974,37610
7627,56286,38099
7862,56571,38548
8074,56828,38951
8261,57055,39305
8421,57253,39607
8556,57421,39859
8666,57556,40062
8751,57657,40216
8809,57726,40324
8845,57768,40390
8861,57781,40415
8853,57766,40399
8827,57727,40345
8784,57669,40258
8724,57593,40141
8651,57502,40003
8570,57403,39849
8481,57295,39680
8386,57176,39499
8288,57053,39310
8188,56929,39117
8086,56805,38922
7984,56679,38726
7883,56552,38530
7782,56420,38330
7678,56283,38118
7570,56140,37896
7458,55994,37667
7342,55842,37431
7221,55685,37188
7096,55527,36944
6972,55373,36708
6854,55226,36483
6745,55091,36276
6648,54973,36094
6567,54875,35942
6506,54801,35824
6462,54754,35738
6437,54729,35684
6432,54727,35665
6449,54748,35683
6485,54787,35732
6535,54839,35804
6595,54905,35900
6665,54983,36016
6740,55069,36146
6821,55159,36287
6905,55253,36438
6990,55351,36595
7076,55451,36752
7160,55551,36908
7240,55647,37057
7313,55736,37195
7379,55815,37320
7438,55884,37431
7492,55945,37525
7538,55995,37602
7571,56031,37658
7589,56050,37692
7600,56057,37710
7603,56054,37713
7594,56041,37696
7574,56019,37661
7547,55991,37611
7513,55957,37547
7473,55914,37468
7426,55864,37375
7372,55806,37271
7312,55737,37155
7247,55658,37031
7180,55574,36905
7111,55486,36774
7037,55395,36637
6964,55303,36501
6893,55212,36370
6823,55121,36243
6753,55029,36116
6684,54937,35988
6617,54844,35860
6552,54758,35738
6488,54676,35621
6420,54597,35504
6352,54520,35388
6290,54446,35275
6231,54372,35164
6173,54299,35052
6114,54227,34944
6056,54158,34840
5998,54091,34738
5944,54027,34636
5894,53968,34540
5845,53909,34450
5798,53850,34363
5757,53792,34281
5719,53737,34204
5681,53685,34131
5648,53638,34065
5619,53599,34008
5595,53568,33959
5574,53541,33912
5554,53512,33865
5535,53486,33822
5521,53466,33787
5513,53452,33756
5502,53437,33722
5488,53420,33685
5475,53404,33655
5463,53391,33632
5450,53380,33612
5439,53371,33594
5429,53364,33580
5418,53357,33571
5410,53351,33564
5403,53349,33561
5396,53347,33558
5392,53343,33551
5390,53339,33542
5387,53338,33531
5381,53334,33518
5370,53326,33500
5357,53316,33479
5342,53303,33454
5324,53285,33422
5301,53261,33382
5276,53230,33337
5251,53195,33289
5223,53157,33236
5192,53119,33182
5159,53080,33125
5124,53037,33065
5088,52992,33005
5053,52948,32947
5020,52906,32893
4990,52869,32844
4967,52840,32806
4957,52826,32785
4965,52839,32796
5002,52891,32856
5074,52989,32978
5183,53132,33169
5332,53322,33438
5525,53561,33785
5759,53845,34203
6022,54163,34681
6307,54506,35205
6606,54869,35765
6911,55242,36346
7214,55609,36927
7509,55965,37490
7789,56305,38028
8050,56624,38536
8291,56918,39004
8512,57182,39426
8709,57415,39797
8877,57613,40117
9019,57781,40386
9134,57921,40608
9220,58033,40782
9280,58114,40905
9318,58162,40978
9333,58180,41007
9326,58169,40992
9299,58131,40935
9256,58073,40844
9199,57998,40727
9132,57909,40588
9057,57809,40432
8974,57700,40267
8885,57584,40091
8791,57464,39906
8694,57342,39713
8596,57216,39515
8498,57088,39314
8400,56958,39111
8300,56823,38907
8199,56687,38698
8099,56554,38488
7995,56419,38276
7881,56276,38058
7760,56129,37834
7637,55981,37609
7518,55833,37390
7408,55690,37176
7307,55555,36973
7215,55435,36785
7133,55332,36619
7070,55250,36483
7027,55192,36382
7003,55159,36320
6993,55148,36293
7002,55156,36297
7029,55184,36335
7069,55231,36402
7118,55296,36495
7178,55374,36609
7249,55464,36741
7329,55565,36890
7417,55674,37052
7514,55788,37223
7614,55904,37396
7711,56016,37566
7802,56121,37726
7884,56217,37875
7959,56305,38012
8024,56383,38135
8080,56450,38242
8123,56504,38328
8153,56544,38392
8172,56573,38438
8179,56591,38466
8179,56595,38477
8174,56589,38471
8163,56572,38445
8146,56542,38400
8126,56504,38341
8104,56464,38274
8074,56421,38198
8037,56368,38112
7996,56309,38018
7948,56243,37916
7893,56172,37807
7835,56095,37692
7772,56016,37573
7703,55935,37451
7631,55852,37326
7558,55769,37200
7486,55687,37075
7417,55605,36948
7350,55521,36819
7282,55433,36686
7211,55341,36553
7143,55251,36427
7075,55164,36305
7009,55077,36184
6946,54992,36059
6886,54912,35932
6829,54840,35810
6773,54775,35696
6718,54717,35593
6664,54661,35500
6611,54604,35411
6560,54547,35324
6512,54493,35239
6466,54439,35157
6421,54382,35076
6380,54326,34999
6343,54275,34929
6307,54230,34864
6277,54192,34805
6250,54159,34753
6227,54130,34705
6207,54107,34664
6191,54089,34628
6177,54073,34597
6165,54060,34572
6158,54050,34554
6153,54042,34538
6145,54036,34523
6141,54032,34512
6143,54029,34508
6146,54026,34506
6152,54026,34503
6160,54029,34504
6164,54032,34505
6165,54029,34507
6163,54020,34509
6155,54006,34506
6143,53991,34495
6131,53978,34480
6124,53967,34466
6117,53954,34451
6103,53937,34429
6086,53919,34402
6070,53902,34372
6055,53882,34337
6031,53854,34294
6000,53818,34243
5965,53775,34184
5926,53729,34118
5884,53683,34045
5840,53633,33965
5795,53579,33881
5749,53524,33796
5701,53468,33710
5649,53412,33623
5598,53359,33539
5549,53310,33463
5506,53264,33396
5473,53230,33344
5458,53217,33321
5464,53234,33339
5501,53289,33408
5581,53388,33545
5708,53540,33763
5878,53747,34065
6093,54005,34445
6348,54307,34897
6631,54645,35410
6936,55008,35967
7255,55387,36554
7577,55773,37153
7894,56158,37750
8197,56529,38330
8477,56877,38877
8732,57195,39380
8965,57483,39840
9176,57742,40250
9360,57966,40605
9518,58156,40907
9647,58312,41159
9746,58435,41357
9821,58526,41503
9875,58588,41599
9905,58626,41651
9915,58638,41663
9905,58626,41636
9876,58590,41576
9830,58532,41484
9772,58454,41361
9704,58362,41215
9627,58260,41051
9542,58146,40874
9453,58025,40685
9361,57900,40489
9268,57774,40290
9173,57646,40093
9076,57518,39895
8978,57389,39695
8878,57264,39497
8778,57141,39302
8679,57017,39106
8578,56887,38906
8476,56754,38702
8372,56619,38492
8268,56484,38281
8163,56351,38074
8058,56220,37875
7960,56098,37687
7871,55988,37517
7794,55890,37370
7736,55811,37251
7694,55752,37162
7667,55711,37099
7656,55692,37066
7660,55698,37065
7677,55725,37095
7709,55768,37153
7753,55827,37237
7806,55901,37342
7871,55985,37461
7945,56079,37594
8030,56183,37744
8125,56295,37908
8223,56410,38078
8317,56522,38246
8404,56627,38406
8487,56728,38558
8563,56821,38701
8629,56904,38828
8688,56974,38939
8739,57030,39031
8779,57072,39102
8810,57099,39151
8832,57114,39179
8842,57118,39186
8838,57110,39175
8824,57093,39147
8802,57070,39104
8771,57037,39047
8731,56993,38974
8683,56939,38886
8629,56880,38787
8570,56816,38680
8507,56748,38566
8441,56673,38448
8375,56594,38325
8311,56514,38200
8249,56432,38075
8187,56346,37948
8125,56261,37820
8064,56176,37691
7999,56089,37556
7931,56002,37418
7863,55916,37281
7795,55829,37147
7726,55740,37014
7662,55654,36882
7598,55571,36752
7531,55490,36626
7465,55410,36506
7402,55333,36393
7339,55260,36281
7276,55191,36170
7214,55121,36066
7154,55053,35972
7100,54990,35884
7052,54932,35800
7006,54875,35721
6961,54822,35645
6919,54775,35573
6883,54732,35502
6851,54692,35434
6824,54655,35369
6797,54619,35310
6772,54585,35258
6749,54552,35209
6730,54520,35164
6712,54493,35128
6695,54470,35097
6679,54451,35068
6665,54437,35043
6652,54425,35020
6640,54412,34996
6631,54401,34975
6626,54395,34962
6623,54392,34953
6619,54389,34947
6614,54383,34944
6606,54377,34942
6598,54371,34936
6591,54361,34927
6584,54347,34913
6575,54334,34894
6567,54323,34873
6556,54307,34850
6541,54285,34824
6524,54263,34798
6505,54239,34767
6480,54206,34725
6448,54166,34671
6413,54125,34613
6375,54083,34551
6335,54038,34484
6293,53986,34411
6247,53930,34331
6195,53870,34243
6141,53806,34150
6089,53741,34055
6041,53679,33962
5998,53619,33870
5956,53561,33779
5915,53506,33696
5879,53462,33629
5853,53433,33584
5843,53425,33571
5858,53449,33604
5907,53516,33697
5997,53634,33861
6132,53807,34103
6311,54035,34426
6530,54312,34830
6785,54631,35307
7067,54981,35842
7369,55352,36412
7680,55735,37000
7993,56119,37591
8302,56496,38172
8599,56860,38734
8876,57203,39265
9129,57518,39755
9357,57802,40197
9558,58052,40589
9731,58268,40930
9876,58448,41215
9990,58592,41443
10077,58701,41615
10140,58774,41731
10177,58813,41793
10188,58817,41807
10180,58797,41784
10156,58755,41728
10113,58693,41639
10055,58616,41518
9989,58528,41376
9916,58429,41216
9833,58318,41040
9741,58200,40849
9643,58073,40647
9536,57933,40434
9427,57785,40215
9320,57637,39994
9212,57491,39772
9103,57345,39547
8991,57197,39319
8874,57050,39091
8754,56904,38863
8632,56754,38634
8508,56600,38402
8383,56445,38170
8258,56291,37938
8132,56140,37707
8009,55995,37485
7894,55859,37280
7794,55738,37099
7713,55634,36944
7649,55549,36818
7605,55487,36725
7581,55453,36667
7576,55444,36643
7588,55456,36650
7615,55490,36690
7654,55546,36762
7704,55618,36856
7766,55701,36971
7838,55793,37106
7916,55894,37256
7998,56000,37416
8084,56109,37579
8172,56214,37739
8258,56315,37892
8340,56407,38035
8412,56490,38168
8478,56567,38294
8539,56638,38405
8592,56698,38495
8633,56744,38565
8663,56779,38618
8681,56802,38652
8686,56808,38664
8678,56799,38654
8658,56777,38624
8625,56740,38573
8584,56692,38502
8538,56638,38419
8489,56580,38324
8433,56518,38218
8373,56449,38106
8311,56372,37989
8248,56290,37863
8181,56204,37731
8108,56115,37594
8033,56023,37453
7954,55929,37308
7873,55831,37157
7790,55728,37004
7706,55621,36854
7621,55515,36702
7536,55408,36548
7452,55301,36392
7368,55196,36237
7290,55097,36089
7214,55004,35947
7137,54914,35808
7063,54826,35675
6992,54741,35547
6922,54659,35422
6858,54582,35301
6801,54512,35192
6748,54446,35092
6697,54382,34996
6649,54322,34902
6605,54266,34814
6564,54216,34731
6526,54166,34650
6486,54114,34572
6441,54059,34498
6394,54003,34427
6354,53953,34361
6320,53911,34303
6290,53876,34250
6262,53841,34198
6235,53808,34147
6214,53779,34100
6196,53753,34057
6178,53732,34017
6157,53712,33982
6136,53693,33952
6115,53674,33924
6093,53654,33900
6072,53636,33878
6053,53620,33855
6037,53605,33831
6022,53594,33808
6010,53585,33788
6001,53576,33769
5996,53568,33751
5994,53561,33733
5993,53551,33714
5989,53539,33695
5980,53530,33678
5967,53516,33660
5952,53497,33641
5936,53478,33619
5917,53458,33591
5890,53429,33550
5856,53391,33501
5820,53348,33445
5777,53302,33380
5726,53246,33301
5669,53182,33210
5607,53112,33107
5541,53038,32996
5472,52962,32883
5403,52885,32774
5333,52806,32665
5264,52724,32554
5198,52644,32444
5139,52569,32342
5090,52506,32253
5053,52459,32183
5031,52434,32141
5032,52439,32140
5068,52486,32201
5148,52585,32341
5277,52738,32567
5460,52953,32884
5695,53232,33292
5973,53567,33785
6286,53945,34348
6622,54353,34959
6969,54777,35597
7314,55204,36241
7649,55621,36874
7968,56016,37480
8266,56382,38048
8539,56713,38570
8784,57010,39040
9000,57273,39458
9183,57498,39820
9333,57686,40124
9450,57837,40372
9539,57950,40564
9605,58032,40703
9647,58084,40792
9667,58108,40831
9666,58106,40824
9645,58081,40782
9604,58032,40705
9548,57962,40596
9484,57876,40461
9411,57778,40304
9327,57668,40128
9233,57549,39936
9129,57421,39733
9016,57281,39519
8901,57134,39297
8785,56986,39070
8668,56838,38842
8548,56690,38613
8426,56538,38382
8301,56385,38151
8176,56232,37919
8048,56078,37686
7915,55919,37446
7775,55755,37197
7634,55591,36947
7495,55427,36702
7363,55265,36465
7241,55111,36243
7133,54974,36043
7041,54855,35868
6967,54758,35723
6914,54684,35611
6882,54636,35537
6868,54615,35503
6872,54620,35510
6896,54653,35553
6941,54711,35628
7006,54791,35732
7084,54889,35862
7174,55001,36014
7273,55123,36184
7377,55252,36367
7484,55380,36556
7590,55508,36749
7695,55634,36941
7798,55758,37128
7897,55876,37306
7991,55987,37475
8076,56090,37630
8151,56181,37768
8215,56260,37885
8268,56325,37983
8308,56376,38060
8334,56411,38113
8347,56430,38144
8346,56433,38152
8332,56422,38137
8308,56395,38102
8275,56357,38050
8235,56309,37981
8189,56254,37895
8133,56190,37792
8067,56114,37677
7995,56031,37554
7923,55945,37424
7848,55856,37287
7769,55762,37143
7686,55662,36998
7600,55556,36848
7516,55451,36697
7437,55348,36547
7360,55247,36397
7282,55146,36246
7203,55045,36094
7123,54945,35945
7043,54849,35798
6966,54758,35653
6891,54670,35513
6817,54584,35379
6746,54501,35250
6678,54421,35128
6610,54342,35009
6545,54264,34893
6484,54188,34785
6426,54113,34683
6370,54040,34586
6317,53969,34495
6265,53902,34410
6214,53839,34327
6167,53782,34250
6127,53735,34179
6094,53693,34111
6066,53656,34046
6039,53621,33985
6013,53587,33927
5988,53557,33875
5963,53531,33831
5937,53509,33793
5915,53488,33760
5897,53472,33730
5880,53455,33700
5864,53437,33674
5851,53425,33655
5839,53415,33643
5826,53404,33631
5812,53395,33618
5802,53388,33606
5796,53383,33597
5792,53381,33590
5788,53379,33585
5784,53376,33578
5777,53370,33570
5769,53360,33556
5759,53348,33536
5744,53330,33511
5720,53306,33478
5693,53276,33439
5664,53243,33394
5633,53204,33345
5600,53160,33290
5565,53111,33226
5526,53058,33153
5485,53005,33073
5441,52952,32987
5393,52895,32897
5345,52836,32808
5298,52781,32724
5252,52731,32645
5208,52682,32568
5169,52638,32500
5141,52606,32449
5126,52592,32423
5133,52605,32434
5171,52659,32500
5245,52760,32637
5363,52911,32853
5527,53117,33156
5736,53376,33542
5985,53684,34002
6270,54031,34527
6580,54405,35102
6904,54796,35706
7232,55194,36320
7553,55585,36924
7857,55956,37504
8141,56305,38051
8401,56627,38553
8631,56917,39002
8828,57170,39397
8994,57385,39737
9132,57561,40020
9246,57700,40246
9338,57805,40418
9406,57877,40540
9446,57919,40614
9461,57933,40644
9454,57921,40632
9425,57887,40580
9377,57832,40491
9313,57757,40372
9236,57667,40227
9149,57561,40059
9052,57439,39871
8949,57303,39667
8838,57157,39451
8721,57004,39227
8599,56846,38995
8474,56686,38757
8350,56528,38520
8224,56370,38284
8093,56209,38041
7959,56044,37793
7824,55875,37542
7686,55700,37285
7542,55519,37017
7396,55336,36743
7250,55154,36470
7105,54974,36204
6968,54801,35952
6843,54646,35722
6732,54510,35519
6637,54395,35346
6563,54305,35210
6518,54249,35119
6501,54230,35073
6506,54241,35066
6531,54273,35095
6575,54324,35161
6638,54397,35265
6718,54490,35400
6807,54599,35558
6903,54720,35733
7006,54851,35924
7112,54987,36125
7220,55126,36329
7330,55267,36534
7440,55408,36733
7543,55540,36922
7636,55658,37096
7721,55759,37253
7793,55845,37386
7853,55917,37495
7900,55971,37580
7935,56009,37643
7957,56034,37684
7964,56046,37705
7959,56047,37709
7948,56038,37698
7930,56019,37670
7903,55986,37624
7865,55941,37559
7818,55886,37478
7765,55823,37384
7707,55754,37279
7645,55677,37166
7580,55597,37046
7510,55514,36919
7435,55424,36784
7355,55328,36642
7275,55230,36501
7194,55130,36364
7111,55028,36224
7026,54927,36082
6945,54832,35941
6866,54740,35804
6791,54651,35671
6722,54563,35541
6653,54477,35413
6583,54391,35284
6515,54307,35156
6451,54223,35031
6387,54138,34907
6318,54053,34780
6248,53967,34654
6178,53884,34529
6110,53804,34409
6046,53728,34294
5987,53655,34186
5935,53587,34087
5887,53527,33997
5842,53475,33913
5803,53430,33838
5768,53391,33773
5739,53361,33719
5715,53337,33673
5694,53315,33629
5673,53293,33588
5654,53274,33551
5637,53256,33517
5619,53236,33484
5603,53215,33452
5586,53197,33424
5570,53182,33399
5558,53170,33378
5549,53160,33360
5540,53148,33344
5530,53135,33327
5519,53120,33311
5508,53105,33297
5494,53088,33282
5480,53071,33265
5464,53052,33243
5444,53030,33215
5423,53008,33184
5400,52986,33150
5374,52962,33112
5348,52935,33071
5319,52903,33026
5286,52867,32973
5254,52827,32916
5224,52787,32857
5193,52746,32798
5163,52707,32741
5137,52672,32688
5113,52640,32637
5090,52611,32591
5071,52587,32556
5064,52577,32545
5076,52591,32569
5111,52638,32639
5177,52726,32765
5280,52863,32960
5429,53055,33232
5623,53300,33584
5859,53592,34012
6128,53924,34505
6425,54291,35055
6738,54679,35639
7054,55075,36238
7370,55468,36834
7678,55849,37418
7970,56207,37977
8242,56535,38503
8490,56833,38988
8710,57096,39424
8899,57326,39805
9060,57524,40128
9192,57689,40395
9297,57820,40605
9375,57918,40762
9426,57985,40869
9452,58023,40929
9456,58033,40945
9440,58016,40917
9406,57973,40847
9359,57911,40745
9299,57834,40618
9223,57743,40469
9136,57638,40298
9039,57521,40113
8934,57394,39917
8827,57260,39712
8723,57123,39503
8618,56982,39287
8506,56834,39063
8387,56679,38838
8268,56525,38613
8153,56373,38387
8040,56220,38158
7923,56064,37925
7799,55906,37687
7670,55748,37445
7540,55593,37203
7413,55439,36962
7289,55286,36726
7169,55141,36508
7057,55011,36312
6959,54900,36142
6881,54812,36004
6823,54749,35902
6786,54710,35834
6773,54694,35803
6785,54703,35811
6816,54736,35853
6862,54787,35925
6922,54856,36027
6995,54943,36157
7082,55045,36313
7176,55157,36487
7274,55276,36667
7376,55401,36852
7480,55532,37041
7582,55662,37231
7681,55787,37415
7777,55905,37590
7865,56016,37755
7943,56119,37908
8013,56213,38047
8073,56292,38164
8122,56357,38257
8157,56405,38327
8179,56438,38375
8191,56457,38402
8194,56462,38408
8185,56451,38396
8165,56424,38365
8135,56384,38318
8097,56335,38257
8051,56278,38181
8000,56218,38091
7945,56153,37989
7886,56082,37879
7823,56004,37762
7761,55926,37637
7699,55846,37506
7634,55765,37372
7565,55680,37235
7493,55594,37096
7418,55506,36957
7339,55415,36818
7256,55321,36678
7173,55225,36539
7095,55127,36398
7020,55025,36256
6948,54921,36114
6877,54820,35973
6808,54724,35838
6739,54630,35706
6669,54542,35577
6603,54462,35459
6538,54389,35349
6477,54321,35245
6421,54259,35148
6369,54198,35057
6320,54139,34970
6274,54083,34885
6230,54032,34806
6189,53989,34732
6152,53952,34662
6117,53916,34594
6083,53879,34529
6055,53845,34473
6032,53815,34424
6011,53787,34380
5990,53762,34339
5968,53737,34302
5947,53714,34268
5928,53691,34235
5912,53670,34204
5895,53652,34177
5876,53635,34151
5858,53620,34127
5846,53606,34109
5836,53591,34095
5827,53575,34083
5818,53560,34070
5807,53547,34055
5794,53531,34037
5779,53512,34015
5762,53491,33990
5744,53470,33959
5725,53450,33924
5707,53430,33880
5691,53405,33829
5671,53376,33776
5647,53346,33726
5621,53316,33676
5591,53285,33627
5558,53257,33583
5525,53231,33548
5495,53205,33518
5475,53182,33496
5473,53178,33496
5493,53201,33528
5536,53254,33602
5610,53347,33732
5722,53488,33931
5875,53679,34207
6069,53918,34558
6299,54203,34983
6555,54525,35467
6831,54872,35994
7121,55235,36547
7420,55601,37114
7716,55962,37679
8002,56311,38226
8268,56638,38743
8511,56937,39223
8733,57209,39665
8933,57457,40063
9108,57672,40410
9256,57853,40702
9378,58001,40941
9476,58118,41125
9548,58206,41259
9596,58270,41349
9621,58306,41396
9624,58313,41399
9609,58294,41364
9577,58249,41295
9527,58180,41196
9463,58094,41069
9389,57994,40919
9307,57882,40750
9218,57759,40563
9118,57628,40363
9011,57493,40156
8901,57355,39947
8788,57217,39735
8674,57078,39519
8557,56939,39301
8439,56800,39081
8321,56662,38859
8201,56518,38633
8078,56367,38401
7954,56212,38163
7828,56053,37921
7697,55887,37676
7567,55719,37430
7442,55559,37192
7323,55412,36971
7211,55281,36771
7116,55171,36601
7043,55084,36465
6992,55026,36365
6963,54995,36307
6960,54992,36293
6980,55014,36318
7018,55059,36375
7070,55122,36461
7136,55203,36574
7217,55303,36713
7311,55416,36874
7410,55534,37048
7509,55655,37228
7609,55779,37413
7709,55902,37599
7807,56019,37778
7898,56126,37948
7982,56225,38108
8057,56317,38255
8120,56396,38383
8173,56462,38489
8214,56516,38575
8242,56557,38640
8259,56586,38685
8269,56602,38711
8269,56605,38719
8260,56595,38707
8244,56570,38677
8223,56537,38631
8195,56497,38568
8161,56447,38491
8118,56391,38402
8067,56329,38302
8010,56266,38193
7951,56197,38077
7887,56120,37957
7819,56039,37832
7747,55954,37706
7673,55865,37576
7596,55772,37440
7519,55679,37302
7444,55585,37164
7369,55489,37025
7294,55395,36888
7221,55307,36754
7148,55220,36623
7075,55130,36490
7000,55039,36359
6922,54949,36228
6844,54859,36098
6773,54773,35970
6711,54694,35846
6654,54620,35727
6597,54546,35610
6539,54471,35496
6482,54400,35388
6431,54337,35288
6385,54279,35196
6342,54226,35112
6303,54181,35038
6267,54141,34971
6232,54103,34911
6200,54068,34857
6173,54037,34809
6150,54011,34768
6129,53988,34729
6108,53965,34687
6088,53941,34646
6072,53917,34609
6056,53893,34576
6036,53870,34544
6016,53847,34514
5996,53826,34487
5977,53807,34461
5960,53789,34435
5947,53776,34412
5936,53761,34389
5923,53744,34364
5910,53725,34338
5895,53703,34310
5872,53677,34278
5845,53645,34240
5811,53610,34195
5772,53568,34141
5730,53523,34076
5686,53477,34004
5642,53428,33926
5597,53375,33846
5550,53318,33764
5498,53256,33677
5442,53191,33588
5389,53129,33502
5341,53072,33423
5298,53021,33351
5261,52982,33290
5240,52961,33254
5239,52962,33254
5263,52990,33297
5317,53054,33395
5410,53163,33559
5542,53321,33800
5713,53530,34116
5923,53789,34503
6166,54090,34952
6432,54422,35447
6715,54773,35975
7006,55134,36523
7299,55494,37078
7585,55840,37619
7857,56165,38133
8110,56469,38615
8342,56747,39057
8546,56992,39449
8724,57206,39793
8877,57392,40091
9005,57548,40341
9104,57675,40541
9176,57770,40690
9223,57835,40789
9249,57871,40840
9256,57882,40849
9242,57869,40820
9209,57833,40758
9163,57777,40667
9104,57702,40547
9034,57612,40405
8958,57516,40249
8877,57413,40081
8788,57301,39900
8692,57181,39708
8594,57060,39515
8495,56939,39321
8391,56811,39123
8283,56675,38920
8173,56536,38713
8059,56393,38501
7945,56247,38283
7833,56099,38061
7717,55950,37833
7594,55801,37598
7468,55651,37360
7346,55504,37127
7231,55365,36904
7122,55235,36695
7026,55116,36510
6946,55014,36353
6883,54934,36229
6838,54876,36139
6811,54844,36085
6804,54840,36068
6816,54860,36089
6843,54901,36141
6884,54960,36223
6940,55037,36329
7009,55129,36453
7088,55232,36592
7173,55339,36743
7260,55445,36903
7350,55552,37069
7440,55658,37233
7526,55759,37388
7607,55856,37535
7681,55944,37675
7745,56018,37801
7801,56081,37911
7848,56136,38003
7882,56179,38074
7904,56209,38124
7920,56226,38157
7927,56232,38174
7924,56227,38175
7915,56216,38160
7903,56198,38134
7887,56172,38096
7863,56135,38043
7828,56085,37973
7783,56025,37889
7734,55963,37796
7682,55898,37693
7624,55829,37582
7560,55754,37464
7493,55674,37342
7423,55593,37216
7354,55507,37084
7286,55417,36950
7214,55326,36815
7138,55235,36675
7061,55142,36531
6984,55049,36385
6904,54955,36242
6823,54859,36100
6743,54762,35958
6663,54667,35822
6584,54574,35691
6505,54481,35559
6431,54390,35428
6361,54306,35300
6296,54226,35177
6236,54147,35057
6176,54070,34942
6118,53998,34831
6067,53934,34729
6019,53876,34636
5972,53822,34550
5928,53772,34472
5890,53725,34400
5853,53677,34328
5816,53628,34260
5782,53582,34196
5749,53538,34138
5718,53499,34086
5692,53466,34039
5667,53439,33995
5645,53415,33955
5627,53396,33920
5616,53383,33893
5608,53375,33873
5601,53368,33856
5592,53360,33839
5584,53354,33827
5578,53352,33821
5575,53351,33815
5571,53347,33808
5561,53341,33800
5551,53335,33788
5543,53328,33770
5535,53318,33748
5525,53304,33722
5511,53287,33695
5495,53264,33665
5473,53235,33625
5444,53201,33577
5411,53163,33522
5373,53120,33461
5336,53076,33395
5300,53032,33331
5262,52989,33268
5221,52944,33206
5181,52902,33149
5147,52867,33103
5119,52839,33065
5099,52819,33040
5091,52818,33041
5106,52848,33082
5151,52916,33174
5234,53025,33329
5358,53176,33557
5527,53377,33860
5739,53628,34241
5985,53923,34686
6256,54250,35182
6549,54606,35718
6856,54980,36279
7166,55356,36845
7468,55724,37403
7755,56076,37939
8018,56401,38443
8257,56697,38907
8474,56964,39329
8665,57202,39706
8825,57407,40029
8956,57574,40297
9061,57706,40512
9143,57807,40679
9200,57876,40796
9233,57914,40864
9243,57926,40885
9235,57915,40866
9210,57883,40812
9169,57830,40727
9118,57761,40616
9055,57678,40485
8979,57581,40333
8893,57473,40162
8799,57354,39978
8697,57226,39782
8589,57089,39576
8475,56948,39362
8359,56803,39141
8240,56656,38913
8120,56505,38677
7997,56348,38435
7872,56185,38189
7743,56018,37940
7613,55847,37690
7478,55676,37437
7339,55505,37182
7203,55340,36931
7073,55182,36687
6951,55034,36458
6841,54903,36252
6749,54792,36074
6672,54701,35926
6614,54632,35811
6580,54590,35741
6570,54578,35716
6583,54594,35730
6615,54634,35778
6662,54694,35860
6722,54772,35971
6799,54865,36110
6891,54972,36271
6992,55093,36449
7099,55219,36636
7208,55347,36826
7317,55475,37016
7425,55601,37206
7527,55720,37388
7618,55827,37556
7697,55922,37705
7766,56005,37835
7822,56076,37948
7865,56134,38038
7894,56176,38106
7912,56205,38152
7917,56220,38175
7912,56219,38177
7900,56205,38161
7882,56183,38132
7860,56156,38092
7831,56119,38038
7799,56074,37972
7762,56023,37896
7717,55962,37806
7666,55893,37703
7611,55822,37593
7549,55747,37477
7483,55665,37352
7417,55582,37225
7351,55499,37100
7283,55415,36975
7215,55333,36850
7150,55252,36725
7084,55173,36600
7015,55096,36474
6947,55022,36350
6879,54951,36229
6814,54879,36110
6751,54806,35992
6687,54728,35875
6623,54650,35761
6563,54575,35653
6506,54502,35547
6450,54429,35439
6395,54357,35333
6344,54289,35233
6294,54223,35136
6242,54159,35036
6190,54097,34936
6138,54037,34839
6088,53977,34749
6040,53918,34666
5997,53861,34590
5958,53807,34522
5921,53757,34457
5889,53709,34396
5861,53666,34339
5833,53626,34287
5803,53588,34237
5774,53553,34191
5748,53519,34150
5723,53488,34111
5703,53462,34073
5683,53440,34037
5664,53422,34009
5646,53409,33990
5631,53402,33976
5618,53400,33964
5609,53401,33955
5602,53404,33945
5593,53400,33934
5583,53389,33920
5575,53374,33903
5567,53356,33882
5552,53334,33851
5530,53308,33811
5506,53284,33770
5481,53260,33729
5456,53233,33682
5430,53201,33628
5401,53167,33574
5370,53131,33521
5340,53094,33468
5314,53059,33417
5289,53026,33372
5265,52997,33336
5249,52979,33313
5249,52982,33312
5269,53013,33345
5315,53073,33425
5391,53170,33567
5505,53311,33780
5656,53499,34066
5845,53727,34421
6071,53995,34843
6329,54303,35327
6607,54645,35854
6899,55008,36407
7197,55376,36969
7493,55739,37528
7782,56091,38073
8054,56423,38591
8302,56729,39071
8525,57007,39509
8725,57256,39902
8900,57471,40243
9049,57650,40528
9172,57798,40761
9270,57917,40943
9341,58008,41075
9388,58067,41161
9415,58097,41210
9418,58101,41222
9401,58080,41196
9368,58037,41132
9320,57972,41037
9259,57891,40914
9188,57795,40765
9109,57687,40598
9022,57569,40414
8923,57442,40218
8818,57310,40012
8711,57176,39802
8605,57040,39591
8498,56902,39377
8388,56757,39160
8270,56608,38940
8150,56460,38719
8029,56311,38493
7904,56158,38257
7776,56004,38018
7647,55851,37780
7519,55697,37546
7396,55547,37315
7283,55408,37096
7184,55282,36898
7101,55173,36729
7036,55084,36591
6991,55018,36488
6964,54978,36421
6956,54963,36390
6967,54973,36393
6997,55008,36433
7039,55063,36506
7092,55134,36609
7157,55221,36736
7231,55321,36883
7317,55433,37047
7412,55552,37224
7508,55671,37408
7605,55792,37597
7702,55914,37789
7797,56030,37971
7885,56135,38136
7966,56230,38284
8035,56315,38417
8093,56389,38529
8143,56451,38619
8183,56500,38688
8210,56535,38738
8227,56558,38770
8236,56570,38785
8235,56569,38783
8223,56554,38759
8198,56524,38716
8164,56480,38656
8122,56428,38584
8076,56367,38500
8024,56297,38405
7966,56222,38299
7903,56144,38185
7837,56064,38064
7770,55983,37939
7703,55901,37812
7632,55817,37682
7559,55730,37552
7485,55642,37421
7415,55553,37290
7345,55465,37158
7275,55377,37027
7206,55289,36897
7138,55202,36768
7072,55118,36641
7008,55038,36516
6946,54960,36391
6884,54885,36270
6824,54809,36155
6765,54731,36041
6709,54655,35929
6657,54582,35821
6604,54513,35718
6548,54445,35614
6493,54379,35512
6439,54315,35413
6385,54254,35319
6333,54197,35231
6282,54144,35150
6233,54094,35073
6189,54046,35005
6148,54003,34943
6112,53964,34886
6085,53930,34837
6063,53899,34793
6040,53869,34751
6016,53839,34711
5995,53814,34680
5982,53798,34658
5974,53788,34639
5970,53782,34622
5967,53778,34611
5965,53776,34604
5964,53776,34597
5965,53776,34589
5964,53777,34581
5960,53778,34571
5953,53779,34563
5944,53777,34558
5935,53771,34555
5927,53764,34547
5915,53753,34532
5902,53740,34511
5886,53725,34482
5867,53704,34443
5843,53676,34394
5816,53642,34338
5787,53602,34281
5755,53557,34221
5718,53505,34155
5680,53453,34086
5642,53405,34020
5603,53360,33955
5565,53318,33890
5529,53281,33832
5499,53251,33784
5478,53232,33750
5475,53234,33746
5494,53266,33788
5542,53333,33886
5628,53444,34054
5755,53604,34298
5922,53814,34619
6130,54073,35012
6372,54371,35469
6645,54698,35975
6938,55048,36518
7240,55409,37082
7540,55769,37648
7832,56121,38204
8113,56460,38742
8376,56780,39249
8617,57075,39715
8836,57346,40136
9031,57590,40506
9198,57800,40820
9335,57972,41080
9446,58109,41291
9531,58213,41451
9589,58283,41560
9623,58322,41622
9633,58331,41640
9621,58314,41618
9592,58275,41558
9545,58215,41465
9484,58136,41344
9413,58042,41200
9333,57938,41036
9247,57825,40855
9155,57703,40660
9057,57576,40459
8952,57442,40253
8846,57306,40046
8741,57170,39840
8636,57035,39634
8529,56900,39423
8419,56759,39202
8307,56611,38975
8191,56459,38743
8068,56301,38506
7939,56144,38264
7813,55991,38024
7690,55842,37790
7571,55696,37562
7459,55561,37349
7359,55443,37161
7273,55344,37000
7205,55262,36872
7158,55203,36781
7132,55170,36731
7127,55166,36723
7140,55186,36748
7170,55231,36804
7218,55297,36888
7279,55377,36995
7355,55468,37123
7443,55569,37270
7538,55676,37435
7634,55788,37610
7730,55899,37788
7824,56012,37967
7913,56125,38143
7998,56234,38310
8077,56334,38464
8150,56425,38601
8215,56506,38721
8268,56574,38819
8309,56624,38896
8339,56662,38953
8359,56688,38994
8370,56700,39013
8371,56696,39010
8361,56680,38988
8337,56655,38951
8303,56620,38899
8264,56575,38831
8219,56520,38750
8169,56458,38657
8116,56391,38554
8059,56318,38445
8000,56244,38330
7938,56171,38209
7871,56095,38084
7802,56014,37957
7732,55928,37830
7660,55839,37699
7584,55746,37565
7507,55649,37429
7428,55554,37293
7352,55460,37155
7279,55370,37017
7208,55282,36881
7139,55196,36746
7071,55110,36610
6999,55019,36472
6925,54926,36333
6853,54834,36197
6784,54743,36066
6718,54654,35937
6654,54570,35813
6593,54491,35693
6533,54414,35574
6471,54338,35457
6411,54266,35346
6352,54198,35242
6294,54130,35148
6242,54067,35063
6197,54013,34990
6162,53967,34927
6132,53927,34871
6104,53892,34819
6076,53864,34772
6054,53840,34732
6035,53818,34696
6017,53798,34663
6000,53780,34633
5983,53764,34608
5966,53749,34582
5950,53736,34556
5936,53728,34532
5925,53721,34508
5917,53713,34488
5911,53704,34470
5905,53694,34454
5899,53685,34439
5891,53671,34421
5881,53654,34402
5873,53640,34386
5864,53627,34373
5854,53614,34360
5842,53602,34346
5824,53588,34324
5799,53569,34289
5770,53540,34242
5737,53503,34186
5701,53461,34123
5662,53414,34056
5618,53361,33980
5566,53301,33896
5514,53241,33808
5464,53183,33721
5417,53126,33638
5373,53071,33557
5334,53016,33479
5296,52962,33404
5259,52912,33337
5230,52875,33289
5219,52863,33273
5231,52883,33300
5275,52947,33388
5361,53062,33551
5491,53231,33793
5667,53451,34114
5885,53717,34511
6137,54025,34979
6416,54368,35505
6713,54733,36070
7019,55106,36651
7328,55482,37236
7632,55854,37812
7921,56209,38366
8190,56540,38883
8435,56842,39359
8651,57108,39786
8839,57338,40159
8999,57534,40475
9128,57695,40732
9227,57821,40931
9297,57914,41077
9343,57976,41173
9370,58010,41226
9378,58019,41239
9365,58002,41211
9335,57961,41142
9288,57899,41039
9227,57819,40908
9154,57721,40752
9075,57612,40577
8988,57497,40387
8894,57374,40184
8792,57242,39970
8685,57105,39750
8577,56966,39531
8469,56828,39314
8362,56690,39097
8255,56550,38882
8146,56408,38666
8032,56261,38444
7913,56108,38215
7789,55951,37982
7662,55796,37746
7535,55644,37512
7413,55496,37281
7295,55354,37056
7184,55222,36847
7084,55102,36659
6998,54998,36498
6929,54916,36369
6883,54860,36275
6859,54824,36217
6852,54808,36194
6862,54817,36208
6889,54853,36260
6932,54910,36343
6990,54983,36450
7063,55072,36578
7146,55173,36725
7236,55283,36887
7331,55399,37062
7429,55518,37241
7526,55638,37418
7623,55757,37591
7719,55874,37760
7813,55985,37921
7901,56087,38068
7976,56174,38197
8036,56244,38305
8081,56298,38394
8112,56341,38462
8132,56371,38509
8146,56389,38536
8149,56393,38545
8136,56382,38533
8109,56356,38503
8073,56319,38457
8032,56272,38393
7987,56215,38312
7939,56155,38218
7886,56093,38118
7829,56027,38014
7770,55957,37903
7705,55881,37782
7633,55796,37651
7559,55704,37514
7482,55604,37372
7401,55496,37220
7317,55384,37061
7229,55268,36895
7135,55148,36721
7036,55021,36539
6937,54892,36355
6837,54766,36171
6738,54641,35987
6638,54514,35804
6540,54391,35624
6448,54274,35448
6360,54160,35276
6276,54051,35112
6198,53949,34959
6122,53854,34817
6046,53763,34682
5974,53678,34552
5905,53599,34429
5841,53526,34312
5783,53458,34206
5731,53397,34111
5686,53343,34026
5646,53295,33949
5605,53249,33877
5567,53208,33812
5539,53175,33757
5520,53149,33713
5507,53127,33672
5497,53109,33636
5486,53094,33607
5473,53078,33582
5460,53064,33559
5448,53056,33541
5438,53054,33529
5429,53053,33519
5424,53054,33513
5421,53055,33511
5417,53056,33512
5411,53055,33511
5400,53048,33504
5386,53035,33493
5372,53020,33479
5358,53003,33459
5342,52982,33432
5326,52960,33403
5308,52937,33371
5287,52911,33333
5264,52880,33290
5237,52843,33241
5203,52802,33181
5166,52756,33111
5124,52706,33034
5079,52652,32951
5033,52596,32865
4982,52534,32774
4932,52468,32680
4884,52402,32589
4836,52337,32503
4791,52277,32422
4753,52225,32351
4719,52185,32295
4694,52160,32263
4688,52158,32266
4712,52192,32319
4773,52272,32436
4876,52405,32626
5021,52590,32893
5207,52828,33240
5435,53117,33665
5701,53450,34161
5995,53815,34709
6309,54204,35295
6631,54604,35900
6949,54999,36505
7257,55380,37097
7550,55739,37660
7825,56072,38181
8076,56375,38651
8297,56644,39067
8486,56877,39431
8643,57073,39738
8768,57230,39987
8862,57348,40178
8930,57435,40316
8974,57493,40405
8994,57521,40448
8995,57521,40448
8979,57494,40407
8945,57444,40330
8894,57374,40220
8828,57286,40081
8749,57184,39920
8663,57074,39744
8571,56955,39556
8470,56827,39358
8365,56695,39156
8256,56559,38951
8146,56421,38742
8039,56285,38532
7932,56148,38321
7821,56007,38106
7709,55862,37885
7594,55715,37660
7478,55566,37429
7358,55415,37191
7233,55260,36948
7105,55104,36706
6976,54949,36470
6852,54800,36244
6736,54661,36032
6638,54537,35845
6558,54435,35691
6493,54355,35570
6445,54296,35482
6417,54262,35431
6410,54256,35418
6426,54274,35440
6462,54315,35494
6514,54376,35578
6579,54457,35690
6656,54550,35824
6742,54652,35976
6838,54767,36145
6940,54893,36328
7045,55025,36517
7151,55160,36705
7254,55294,36891
7349,55417,37072
7434,55528,37239
7512,55627,37392
7583,55714,37527
7642,55789,37638
7690,55851,37727
7724,55895,37793
7742,55922,37837
7750,55933,37858
7747,55928,37857
7735,55907,37835
7716,55877,37799
7687,55839,37746
7648,55793,37678
7605,55737,37596
7554,55672,37500
7497,55597,37391
7436,55516,37272
7373,55431,37147
7310,55345,37019
7245,55257,36888
7175,55165,36750
7099,55074,36609
7018,54984,36468
6936,54891,36327
6857,54794,36184
6785,54700,36041
6715,54610,35900
6645,54519,35758
6575,54424,35619
6503,54331,35481
6432,54244,35345
6362,54158,35211
6293,54071,35078
6226,53986,34947
6161,53906,34823
6097,53828,34703
6034,53752,34586
5975,53678,34475
5914,53604,34369
5855,53531,34266
5802,53460,34165
5752,53392,34069
5705,53331,33981
5659,53276,33899
5616,53226,33822
5578,53183,33752
5546,53147,33689
5516,53113,33630
5489,53083,33577
5465,53057,33534
5441,53034,33497
5418,53017,33464
5398,53003,33436
5377,52988,33410
5358,52974,33386
5340,52961,33364
5323,52949,33344
5309,52938,33326
5299,52926,33309
5287,52907,33289
5272,52885,33265
5259,52863,33239
5248,52844,33214
5238,52824,33189
5230,52804,33163
5221,52781,33134
5206,52756,33100
5186,52729,33065
5160,52701,33027
5133,52670,32984
5104,52634,32932
5067,52589,32871
5024,52537,32803
4978,52482,32727
4931,52424,32645
4882,52363,32556
4832,52300,32465
4783,52241,32378
4736,52186,32294
4690,52132,32213
4650,52086,32143
4619,52052,32094
4600,52033,32071
4603,52039,32086
4635,52083,32152
4702,52174,32282
4811,52316,32485
4963,52512,32766
5159,52758,33126
5396,53053,33562
5669,53390,34064
5966,53757,34616
6280,54145,35200
6600,54541,35799
6914,54931,36395
7218,55304,36970
7508,55655,37517
7776,55983,38027
8017,56279,38491
8231,56543,38903
8415,56771,39261
8566,56961,39561
8689,57116,39803
8785,57239,39993
8858,57332,40132
8906,57392,40223
8928,57419,40265
8927,57414,40264
8906,57383,40224
8867,57330,40150
8811,57260,40045
8741,57173,39913
8661,57072,39759
8573,56957,39587
8480,56833,39401
8384,56703,39205
8285,56570,39002
8181,56436,38793
8073,56300,38579
7962,56163,38364
7852,56025,38149
7740,55885,37930
7625,55741,37703
7506,55593,37468
7381,55441,37227
7252,55283,36979
7122,55122,36726
6993,54960,36475
6868,54799,36231
6746,54642,36000
6635,54497,35787
6537,54370,35601
6451,54262,35444
6385,54178,35320
6341,54117,35232
6315,54081,35178
6312,54073,35160
6328,54091,35174
6360,54129,35221
6411,54189,35300
6479,54269,35410
6557,54365,35544
6645,54474,35698
6743,54596,35871
6846,54725,36058
6950,54856,36250
7054,54983,36444
7153,55106,36632
7244,55222,36808
7327,55329,36971
7400,55427,37119
7466,55517,37251
7524,55597,37364
7571,55658,37453
7603,55697,37515
7625,55718,37552
7636,55724,37568
7638,55718,37564
7630,55702,37543
7614,55678,37509
7590,55646,37462
7557,55606,37402
7516,55560,37329
7471,55506,37245
7423,55445,37149
7374,55379,37045
7322,55307,36934
7263,55228,36814
7198,55146,36686
7125,55059,36552
7046,54966,36413
6966,54871,36271
6884,54775,36126
6803,54677,35978
6723,54579,35830
6643,54483,35686
6564,54391,35543
6489,54301,35401
6417,54215,35262
6345,54130,35126
6277,54048,34993
6213,53969,34863
6154,53895,34739
6099,53824,34624
6043,53755,34512
5987,53686,34405
5936,53621,34307
5889,53561,34215
5839,53500,34125
5789,53439,34039
5741,53379,33959
5693,53320,33883
5646,53263,33810
5602,53211,33743
5561,53163,33680
5526,53120,33620
5498,53081,33565
5475,53045,33517
5458,53013,33476
5442,52988,33439
5427,52969,33403
5412,52954,33372
5401,52945,33346
5391,52938,33326
5380,52933,33310
5371,52932,33300
5361,52934,33294
5349,52934,33286
5339,52932,33277
5335,52926,33267
5332,52918,33257
5329,52908,33247
5324,52897,33233
5314,52884,33215
5304,52869,33194
5293,52851,33167
5279,52829,33131
5261,52805,33089
5240,52777,33044
5213,52742,32991
5182,52703,32933
5148,52659,32871
5112,52613,32805
5078,52568,32738
5042,52526,32672
5002,52482,32604
4958,52433,32534
4911,52381,32464
4864,52330,32400
4825,52289,32349
4797,52264,32313
4782,52255,32296
4791,52269,32312
4831,52320,32380
4907,52416,32512
5026,52564,32719
5190,52768,33008
5398,53026,33379
5645,53331,33829
5923,53671,34344
6224,54038,34904
6536,54421,35491
6851,54809,36089
7162,55189,36678
7462,55556,37245
7743,55902,37781
8000,56218,38277
8230,56502,38726
8434,56757,39127
8611,56977,39474
8759,57161,39764
8881,57312,40002
8976,57432,40189
9044,57517,40327
9085,57568,40417
9098,57590,40462
9088,57583,40463
9061,57552,40422
9021,57496,40343
8968,57420,40232
8905,57329,40097
8831,57225,39938
8743,57108,39760
8648,56983,39569
8551,56859,39372
8451,56732,39170
8350,56600,38963
8249,56465,38752
8145,56328,38535
8036,56187,38311
7924,56041,38079
7809,55893,37844
7692,55745,37611
7573,55596,37376
7448,55444,37136
7318,55286,36893
7188,55126,36653
7059,54968,36418
6934,54814,36195
6820,54674,35991
6721,54551,35812
6639,54448,35660
6576,54367,35537
6533,54310,35450
6510,54278,35398
6507,54270,35380
6521,54283,35395
6551,54319,35443
6597,54380,35522
6657,54459,35630
6730,54553,35760
6814,54659,35911
6904,54770,36076
7000,54885,36249
7099,55004,36426
7197,55123,36602
7288,55239,36776
7375,55346,36945
7456,55444,37106
7531,55532,37251
7597,55609,37377
7648,55671,37480
7686,55721,37559
7715,55760,37616
7733,55785,37654
7738,55795,37667
7733,55790,37656
7718,55771,37625
7692,55738,37577
7657,55693,37514
7620,55643,37439
7576,55586,37354
7523,55520,37259
7464,55447,37157
7403,55371,37050
7343,55293,36935
7280,55212,36815
7212,55128,36688
7140,55042,36555
7068,54956,36418
6996,54869,36279
6923,54780,36137
6850,54692,35995
6778,54603,35855
6706,54514,35716
6634,54421,35578
6562,54326,35443
6491,54235,35313
6421,54147,35186
6353,54059,35055
6286,53974,34923
6221,53893,34795
6157,53815,34670
6097,53740,34548
6041,53673,34434
5984,53612,34329
5929,53552,34230
5875,53492,34135
5825,53434,34044
5778,53378,33958
5732,53322,33875
5684,53266,33796
5639,53215,33724
5600,53168,33661
5563,53124,33600
5529,53086,33543
5502,53055,33492
5479,53029,33446
5457,53002,33403
5436,52976,33364
5417,52951,33328
5397,52927,33294
5376,52903,33262
5357,52882,33233
5340,52864,33206
5322,52845,33179
5304,52821,33152
5286,52798,33125
5272,52778,33101
5261,52763,33080
5249,52751,33062
5239,52742,33044
5229,52734,33025
5214,52722,32998
5193,52701,32962
5171,52674,32920
5150,52641,32874
5128,52606,32823
5103,52568,32766
5075,52528,32705
5044,52486,32643
5010,52442,32581
4971,52396,32517
4931,52352,32452
4892,52309,32389
4860,52269,32331
4833,52234,32281
4814,52212,32249
4805,52208,32244
4810,52228,32274
4842,52280,32355
4911,52376,32499
5024,52522,32715
5182,52722,33010
5384,52975,33385
5626,53279,33834
5901,53620,34343
6196,53980,34892
6500,54351,35468
6809,54728,36057
7114,55103,36642
7408,55463,37206
7684,55800,37735
7938,56110,38221
8165,56388,38657
8363,56633,39043
8535,56844,39378
8681,57022,39662
8803,57167,39894
8896,57281,40073
8961,57367,40201
9001,57427,40283
9021,57456,40320
9022,57457,40314
9006,57434,40270
8972,57389,40194
8924,57323,40090
8862,57239,39964
8790,57142,39820
8709,57032,39655
8619,56908,39469
8524,56777,39267
8424,56642,39059
8318,56505,38848
8206,56362,38633
8086,56215,38410
7965,56067,38183
7845,55919,37955
7725,55768,37724
7601,55613,37487
7476,55455,37246
7348,55295,37001
7222,55131,36755
7095,54967,36512
6970,54810,36275
6851,54663,36049
6743,54529,35840
6651,54412,35654
6577,54317,35501
6520,54249,35386
6478,54207,35308
6454,54191,35264
6452,54201,35260
6471,54235,35290
6507,54285,35348
6558,54348,35433
6622,54429,35544
6696,54526,35679
6779,54635,35830
6871,54752,35993
6968,54872,36165
7064,54989,36339
7156,55095,36508
7244,55191,36671
7328,55279,36823
7403,55357,36961
7466,55424,37083
7515,55479,37184
7550,55520,37261
7569,55543,37309
7575,55553,37330
7570,55551,37329
7556,55540,37314
7533,55517,37282
7504,55482,37231
7469,55437,37164
7424,55382,37082
7370,55316,36985
7310,55237,36869
7239,55144,36736
7157,55037,36582
7067,54916,36408
6967,54782,36215
6861,54640,36009
6750,54499,35800
6637,54359,35589
6526,54224,35380
6423,54100,35184
6328,53987,35006
6238,53884,34838
6158,53789,34680
6086,53701,34536
6021,53619,34405
5963,53543,34286
5910,53472,34179
5859,53403,34079
5806,53334,33981
5751,53264,33879
5694,53195,33775
5639,53129,33673
5587,53066,33575
5535,53004,33479
5481,52944,33386
5430,52887,33296
5383,52832,33213
5341,52780,33135
5306,52736,33062
5275,52702,32997
5247,52674,32939
5218,52647,32884
5190,52621,32835
5166,52593,32793
5143,52563,32757
5122,52536,32727
5103,52513,32702
5088,52493,32678
5075,52475,32656
5063,52459,32635
5052,52446,32616
5043,52435,32597
5036,52423,32577
5028,52409,32556
5020,52395,32536
5011,52381,32515
5001,52366,32493
4992,52350,32470
4985,52336,32445
4974,52320,32418
4956,52297,32390
4931,52268,32358
4901,52234,32320
4867,52198,32276
4834,52160,32227
4803,52121,32176
4770,52082,32121
4734,52044,32061
4699,52006,32000
4668,51971,31943
4641,51938,31892
4615,51907,31838
4590,51876,31784
4569,51847,31738
4556,51829,31715
4558,51830,31721
4582,51858,31764
4635,51922,31858
4721,52030,32017
4846,52185,32248
5010,52389,32553
5215,52642,32932
5455,52940,33379
5724,53271,33878
6016,53627,34418
6320,53998,34980
6622,54368,35546
6915,54727,36103
7196,55068,36639
7460,55388,37145
7703,55685,37611
7924,55950,38034
8114,56177,38403
8276,56370,38715
8412,56534,38975
8522,56667,39184
8606,56769,39341
8664,56844,39453
8696,56892,39523
8707,56913,39550
8700,56911,39539
8677,56885,39491
8637,56835,39408
8585,56766,39299
8526,56685,39168
8460,56595,39021
8386,56497,38859
8301,56386,38679
8206,56263,38486
8109,56138,38288
8012,56015,38092
7916,55891,37894
7816,55765,37694
7712,55637,37491
7602,55503,37283
7490,55365,37068
7379,55222,36849
7264,55074,36621
7140,54921,36387
7013,54768,36151
6889,54615,35922
6773,54470,35700
6667,54340,35494
6571,54227,35309
6489,54131,35153
6424,54053,35028
6380,53995,34934
6355,53959,34872
6347,53949,34846
6355,53964,34856
6378,53997,34899
6414,54046,34970
6462,54111,35065
6524,54191,35180
6595,54279,35312
6676,54376,35460
6765,54483,35622
6856,54594,35794
6945,54705,35968
7035,54815,36140
7124,54924,36306
7211,55026,36459
7293,55119,36598
7366,55199,36719
7423,55267,36820
7466,55322,36902
7498,55365,36966
7522,55395,37012
7540,55416,37042
7547,55424,37051
7540,55415,37040
7519,55391,37011
7493,55359,36971
7462,55322,36922
7422,55276,36859
7377,55221,36780
7328,55161,36692
7277,55098,36597
7224,55031,36491
7169,54958,36377
7113,54881,36259
7055,54802,36138
6995,54722,36014
6931,54643,35890
6863,54565,35766
6794,54485,35643
6730,54407,35521
6671,54333,35399
6613,54263,35278
6554,54191,35159
6494,54117,35041
6435,54045,34925
6378,53977,34813
6322,53909,34703
6262,53838,34591
6198,53765,34481
6135,53692,34374
6072,53618,34272
6014,53547,34175
5962,53484,34083
5912,53423,33995
5865,53361,33906
5824,53303,33818
5785,53248,33733
5746,53196,33657
5710,53147,33589
5677,53101,33525
5647,53061,33464
5618,53026,33405
5588,52991,33345
5560,52957,33286
5537,52932,33237
5516,52911,33196
5495,52888,33155
5473,52862,33115
5452,52841,33079
5432,52824,33049
5414,52810,33023
5402,52799,32999
5394,52793,32978
5386,52786,32958
5376,52775,32937
5364,52761,32917
5348,52742,32895
5329,52721,32866
5309,52697,32830
5291,52672,32789
5271,52645,32746
5249,52614,32700
5224,52578,32651
5198,52541,32600
5172,52505,32550
5146,52471,32499
5122,52440,32447
5100,52413,32401
5081,52391,32365
5065,52374,32340
5058,52370,32337
5071,52388,32369
5107,52440,32446
5173,52531,32578
5277,52665,32774
5421,52846,33040
5604,53071,33377
5821,53337,33777
6065,53638,34229
6334,53969,34725
6619,54317,35252
6907,54670,35793
7192,55018,36335
7466,55354,36865
7725,55670,37370
7970,55964,37842
8198,56236,38277
8404,56481,38668
8582,56694,39006
8730,56873,39288
8848,57020,39518
8941,57137,39703
9014,57224,39844
9063,57278,39938
9090,57305,39985
9096,57310,39989
9084,57295,39955
9059,57260,39889
9025,57206,39798
8978,57136,39682
8918,57049,39543
8845,56948,39382
8764,56840,39205
8677,56726,39015
8584,56604,38815
8486,56476,38611
8385,56344,38407
8285,56210,38200
8179,56072,37987
8063,55927,37764
7940,55778,37535
7813,55628,37304
7680,55474,37067
7545,55316,36822
7415,55157,36578
7289,55000,36339
7167,54842,36106
7052,54692,35887
6946,54557,35688
6857,54445,35515
6788,54358,35373
6739,54297,35268
6713,54263,35202
6707,54257,35175
6718,54273,35185
6743,54310,35227
6788,54365,35301
6851,54437,35404
6927,54525,35531
7014,54627,35678
7105,54738,35840
7196,54852,36010
7286,54965,36184
7381,55080,36365
7476,55197,36546
7566,55310,36719
7649,55414,36880
7722,55507,37026
7786,55591,37155
7843,55663,37267
7892,55722,37360
7931,55768,37434
7961,55802,37491
7979,55821,37528
7986,55826,37543
7985,55821,37538
7977,55805,37516
7962,55779,37475
7942,55745,37420
7918,55705,37357
7887,55658,37287
7847,55607,37207
7796,55548,37115
7738,55484,37012
7678,55418,36904
7619,55350,36791
7558,55277,36675
7498,55204,36557
7438,55130,36439
7375,55052,36317
7308,54969,36193
7241,54883,36070
7176,54799,35948
7114,54715,35828
7054,54634,35708
6992,54553,35588
6929,54470,35469
6864,54388,35350
6802,54309,35235
6745,54238,35123
6691,54173,35012
6637,54111,34902
6581,54049,34794
6529,53992,34692
6482,53943,34601
6440,53900,34520
6402,53860,34451
6364,53819,34389
6325,53776,34330
6290,53732,34274
6262,53690,34221
6240,53654,34173
6220,53623,34125
6202,53597,34081
6187,53576,34044
6174,53559,34012
6164,53545,33982
6158,53532,33956
6151,53520,33935
6139,53509,33917
6125,53495,33899
6112,53478,33879
6100,53458,33858
6091,53439,33839
6082,53423,33824
6071,53408,33810
6059,53397,33799
6045,53388,33787
6028,53375,33766
6009,53359,33738
5988,53341,33706
5965,53320,33670
5940,53296,33632
5915,53272,33590
5891,53244,33543
5868,53215,33492
5845,53185,33440
5821,53156,33389
5798,53128,33341
5775,53101,33294
5753,53075,33250
5736,53055,33216
5726,53044,33201
5725,53045,33211
5740,53065,33252
5781,53115,33338
5855,53205,33483
5966,53342,33696
6114,53528,33980
6301,53761,34332
6527,54039,34748
6782,54355,35221
7057,54695,35738
7345,55050,36281
7638,55409,36834
7926,55760,37383
8204,56100,37916
8467,56425,38429
8714,56731,38914
8942,57012,39360
9149,57266,39760
9331,57489,40112
9489,57680,40413
9620,57838,40658
9726,57964,40853
9808,58061,41001
9867,58130,41102
9907,58173,41159
9927,58192,41175
9926,58185,41154
9904,58154,41097
9866,58102,41010
9816,58032,40894
9756,57949,40758
9684,57856,40607
9603,57756,40442
9518,57649,40265
9435,57540,40084
9352,57428,39899
9266,57310,39707
9174,57190,39510
9081,57071,39313
8986,56952,39116
8888,56827,38917
8789,56696,38718
8686,56560,38516
8579,56418,38308
8469,56276,38095
8363,56137,37885
8260,56003,37679
8161,55875,37481
8067,55757,37300
7984,55652,37139
7918,55567,37005
7868,55503,36901
7835,55461,36830
7817,55446,36796
7816,55454,36797
7830,55482,36827
7860,55529,36886
7906,55590,36971
7964,55663,37075
8031,55747,37194
8104,55833,37323
8180,55921,37460
8260,56011,37607
8343,56105,37759
8425,56199,37912
8505,56292,38059
8582,56388,38203
8654,56479,38340
8720,56564,38468
8780,56641,38585
8829,56707,38690
8866,56759,38776
8891,56796,38839
8906,56819,38880
8911,56827,38900
8910,56823,38899
8903,56804,38879
8884,56772,38839
8855,56729,38779
8817,56679,38704
8774,56626,38623
8730,56573,38534
8681,56518,38437
8629,56458,38331
8576,56396,38220
8527,56332,38107
8479,56266,37995
8426,56195,37878
8367,56120,37755
8302,56041,37627
8234,55957,37497
8165,55868,37365
8098,55775,37231
8030,55681,37098
7963,55589,36968
7895,55500,36841
7829,55418,36720
7764,55343,36603
7701,55272,36489
7639,55203,36377
7582,55137,36270
7530,55075,36168
7482,55011,36067
7431,54944,35968
7379,54880,35872
7328,54822,35783
7281,54767,35696
7237,54713,35613
7196,54661,35537
7155,54607,35466
7116,54557,35399
7081,54513,35340
7051,54477,35288
7023,54447,35240
6999,54423,35196
6980,54404,35161
6964,54388,35133
6950,54374,35108
6934,54358,35081
6915,54342,35053
6898,54327,35028
6885,54314,35004
6874,54301,34979
6864,54288,34951
6853,54278,34926
6839,54266,34902
6825,54250,34879
6816,54233,34856
6810,54214,34834
6803,54192,34811
6791,54164,34784
6772,54132,34755
6750,54098,34718
6725,54062,34675
6697,54027,34629
6666,53994,34582
6635,53963,34533
6602,53930,34482
6567,53893,34427
6531,53856,34373
6497,53822,34323
6465,53790,34278
6435,53762,34239
6413,53741,34212
6402,53735,34205
6408,53748,34226
6439,53788,34285
6502,53866,34396
6599,53984,34566
6730,54144,34801
6897,54347,35105
7095,54593,35475
7318,54875,35901
7563,55185,36370
7825,55512,36872
8096,55850,37390
8368,56190,37906
8634,56521,38412
8888,56833,38901
9124,57126,39364
9339,57395,39790
9531,57635,40168
9702,57845,40500
9856,58027,40790
9991,58181,41037
10101,58303,41234
10182,58394,41380
10239,58457,41480
10271,58494,41537
10281,58508,41554
10276,58501,41533
10256,58472,41479
10218,58422,41392
10166,58355,41277
10107,58274,41142
10043,58180,40990
9973,58075,40822
9896,57962,40642
9815,57846,40455
9729,57727,40263
9638,57604,40065
9544,57480,39864
9448,57354,39665
9351,57227,39469
9251,57099,39271
9144,56965,39064
9030,56827,38849
8915,56687,38632
8799,56544,38412
8682,56401,38190
8570,56263,37976
8463,56133,37772
8365,56013,37580
8282,55907,37411
8217,55820,37271
8165,55750,37161
8127,55699,37083
8105,55671,37036
8098,55663,37022
8107,55674,37041
8133,55704,37090
8177,55754,37168
8236,55821,37269
8306,55901,37389
8379,55990,37522
8455,56085,37664
8533,56185,37812
8613,56287,37964
8691,56386,38115
8767,56481,38260
8839,56576,38398
8905,56666,38529
8962,56746,38647
9010,56814,38747
9050,56869,38831
9081,56909,38897
9103,56935,38941
9117,56946,38962
9122,56944,38963
9116,56930,38949
9101,56906,38919
9078,56875,38874
9046,56837,38815
9006,56790,38742
8963,56734,38656
8918,56669,38559
8867,56597,38449
8811,56519,38329
8745,56434,38201
8673,56343,38065
8597,56252,37930
8519,56159,37793
8438,56065,37653
8358,55972,37510
8278,55878,37363
8198,55781,37212
8119,55681,37062
8042,55584,36918
7970,55489,36780
7903,55398,36643
7840,55312,36508
7777,55228,36375
7712,55139,36243
7642,55047,36111
7571,54955,35982
7501,54870,35857
7434,54790,35734
7367,54710,35613
7300,54630,35495
7235,54556,35386
7174,54491,35284
7121,54433,35191
7076,54380,35106
7036,54329,35029
6998,54278,34958
6962,54229,34891
6928,54186,34829
6895,54147,34770
6864,54112,34717
6835,54081,34671
6809,54055,34630
6788,54034,34591
6770,54013,34557
6753,53992,34527
6734,53972,34497
6718,53955,34468
6703,53938,34439
6690,53922,34413
6681,53909,34393
6673,53902,34378
6666,53899,34365
6659,53900,34353
6651,53902,34343
6641,53900,34332
6630,53891,34315
6615,53875,34289
6595,53855,34256
6572,53828,34219
6547,53795,34176
6520,53755,34125
6492,53716,34068
6462,53677,34008
6431,53636,33944
6399,53594,33879
6364,53551,33813
6323,53503,33750
6281,53454,33690
6240,53409,33635
6204,53375,33589
6175,53351,33552
6158,53341,33531
6159,53349,33542
6188,53388,33598
6247,53466,33712
6341,53586,33886
6473,53754,34129
6644,53966,34443
6848,54219,34822
7083,54507,35256
7344,54822,35733
7618,55151,36240
7894,55485,36764
8169,55818,37295
8438,56145,37818
8695,56460,38320
8935,56756,38791
9154,57025,39220
9352,57266,39607
9530,57483,39951
9684,57672,40252
9812,57829,40503
9914,57955,40702
9992,58050,40851
10043,58113,40948
10070,58148,40999
10081,58158,41013
10076,58145,40989
10056,58111,40926
10022,58058,40832
9972,57990,40713
9907,57904,40574
9832,57804,40414
9752,57692,40239
9664,57571,40052
9571,57445,39856
9473,57315,39655
9373,57183,39457
9274,57055,39266
9180,56929,39078
9085,56802,38889
8985,56672,38694
8881,56543,38496
8778,56415,38295
8675,56286,38090
8570,56156,37881
8462,56024,37671
8352,55888,37464
8246,55754,37267
8149,55633,37085
8065,55529,36926
7997,55441,36792
7945,55372,36686
7911,55325,36611
7896,55304,36567
7897,55307,36555
7913,55329,36571
7943,55367,36612
7985,55418,36676
8037,55478,36760
8093,55543,36861
8152,55616,36976
8216,55698,37103
8282,55784,37239
8350,55872,37381
8425,55966,37529
8501,56061,37674
8574,56151,37811
8647,56234,37937
8716,56310,38050
8778,56380,38149
8830,56443,38236
8874,56497,38312
8909,56541,38372
8937,56574,38415
8952,56595,38442
8957,56602,38455
8954,56599,38455
8946,56584,38440
8930,56556,38405
8906,56517,38353
8873,56469,38289
8832,56412,38213
8784,56348,38125
8735,56281,38031
8683,56214,37933
8626,56144,37826
8566,56069,37710
8505,55995,37587
8446,55921,37465
8386,55847,37344
8326,55771,37225
8266,55695,37108
8209,55624,36996
8153,55558,36887
8098,55491,36779
8044,55425,36673
7989,55361,36566
7933,55296,36458
7878,55230,36351
7826,55167,36249
7773,55108,36152
7721,55049,36057
7670,54992,35963
7619,54936,35874
7572,54882,35793
7529,54825,35716
7489,54767,35642
7455,54712,35571
7423,54663,35503
7392,54618,35436
7362,54577,35374
7334,54538,35317
7307,54501,35264
7281,54466,35216
7257,54433,35173
7235,54403,35132
7215,54376,35091
7195,54348,35049
7176,54321,35008
7160,54297,34973
7147,54278,34941
7135,54260,34911
7122,54244,34886
7109,54231,34868
7095,54220,34852
7083,54210,34837
7073,54203,34825
7066,54197,34814
7059,54190,34799
7049,54180,34780
7037,54169,34755
7021,54157,34730
7007,54143,34703
6992,54125,34672
6976,54107,34639
6962,54089,34607
6946,54066,34573
6924,54034,34534
6897,53996,34489
6865,53955,34437
6827,53909,34373
6786,53859,34303
6745,53810,34233
6702,53759,34159
6657,53702,34079
6613,53642,33995
6572,53579,33909
6531,53516,33822
6488,53455,33738
6443,53399,33659
6402,53350,33590
6372,53316,33540
6362,53304,33518
6376,53326,33536
6422,53388,33609
6505,53495,33748
6624,53644,33954
6781,53839,34233
6975,54080,34590
7201,54359,35016
7454,54669,35492
7727,55005,36008
8011,55358,36550
8295,55716,37101
8574,56064,37644
8842,56398,38170
9094,56714,38668
9327,57007,39130
9539,57268,39547
9726,57499,39917
9889,57701,40240
10028,57871,40512
10143,58007,40731
10236,58111,40900
10310,58190,41027
10364,58242,41111
10396,58270,41153
10406,58276,41155
10397,58260,41120
10369,58223,41055
10328,58172,40964
10278,58109,40855
10222,58038,40726
10160,57959,40579
10089,57865,40417
10009,57755,40242
9925,57638,40058
9837,57513,39865
9744,57383,39665
9652,57253,39466
9559,57125,39272
9462,56998,39077
9359,56869,38879
9252,56738,38676
9141,56599,38468
9028,56454,38252
8914,56307,38032
8801,56161,37812
8693,56020,37597
8597,55892,37399
8515,55782,37225
8448,55693,37079
8398,55624,36962
8362,55575,36877
8338,55548,36826
8334,55547,36810
8350,55570,36827
8380,55612,36873
8420,55667,36945
8468,55735,37042
8524,55810,37159
8588,55891,37289
8659,55979,37429
8734,56071,37578
8812,56164,37730
8890,56254,37880
8967,56342,38024
9039,56428,38159
9106,56509,38283
9165,56580,38395
9217,56637,38490
9258,56684,38570
9290,56722,38631
9310,56747,38670
9319,56763,38690
9322,56772,38694
9320,56771,38681
9312,56759,38651
9296,56738,38609
9271,56706,38557
9243,56666,38495
9215,56620,38423
9181,56569,38341
9140,56513,38251
9096,56453,38155
9051,56391,38059
9000,56323,37959
8946,56247,37852
8888,56168,37738
8828,56087,37619
8766,56007,37499
8705,55928,37378
8643,55847,37256
8579,55765,37134
8515,55687,37015
8452,55613,36900
8391,55544,36786
8338,55482,36677
8287,55424,36573
8235,55365,36472
8183,55305,36374
8136,55248,36281
8091,55193,36190
8048,55138,36101
8004,55085,36013
7957,55034,35928
7910,54988,35850
7864,54943,35777
7821,54898,35708
7782,54856,35647
7751,54817,35589
7726,54782,35532
7700,54749,35478
7677,54722,35428
7661,54701,35389
7649,54682,35355
7639,54662,35324
7632,54645,35301
7622,54631,35286
7609,54615,35273
7597,54599,35260
7588,54587,35250
7579,54581,35241
7573,54578,35236
7569,54573,35235
7564,54565,35233
7557,54554,35226
7552,54542,35213
7551,54529,35202
7554,54520,35192
7558,54515,35182
7557,54508,35169
7552,54498,35152
7542,54490,35135
7528,54483,35116
7512,54472,35089
7495,54455,35053
7475,54433,35012
7449,54404,34966
7418,54367,34914
7383,54321,34856
7345,54269,34788
7304,54211,34709
7259,54148,34624
7212,54086,34534
7164,54021,34441
7115,53954,34344
7063,53887,34248
7008,53822,34154
6953,53761,34065
6899,53704,33981
6851,53651,33903
6811,53605,33838
6785,53574,33794
6778,53564,33780
6796,53586,33807
6845,53648,33891
6930,53759,34044
7053,53917,34269
7219,54125,34571
7425,54380,34947
7664,54676,35389
7928,55004,35885
8209,55354,36420
8497,55713,36975
8786,56074,37532
9068,56427,38078
9337,56765,38600
9592,57086,39094
9829,57386,39557
10045,57658,39980
10238,57899,40359
10406,58106,40693
10548,58278,40980
10669,58421,41216
10769,58539,41401
10851,58633,41538
10913,58700,41628
10949,58736,41675
10962,58740,41679
10958,58721,41649
10938,58686,41592
10905,58637,41510
10862,58576,41404
10807,58501,41281
10741,58415,41139
10671,58319,40983
10596,58215,40818
10517,58105,40646
10434,57990,40466
10349,57873,40283
10265,57753,40102
10181,57633,39922
10093,57513,39739
9999,57390,39545
9901,57264,39343
9799,57137,39137
9691,57004,38927
9581,56867,38714
9470,56733,38504
9360,56607,38296
9257,56487,38099
9166,56372,37925
9086,56268,37775
9021,56181,37651
8973,56115,37558
8944,56070,37500
8933,56046,37472
8938,56044,37469
8953,56059,37489
8980,56090,37535
9023,56138,37607
9079,56198,37702
9142,56264,37809
9206,56333,37921
9270,56403,38039
9333,56476,38162
9398,56554,38288
9468,56638,38415
9539,56725,38538
9606,56807,38652
9664,56880,38758
9715,56942,38854
9758,56994,38938
9792,57037,39007
9817,57068,39060
9832,57088,39098
9840,57098,39120
9841,57097,39121
9836,57085,39105
9827,57064,39076
9813,57038,39036
9794,57008,38985
9770,56973,38921
9739,56934,38848
9698,56893,38771
9653,56846,38687
9609,56793,38595
9566,56734,38500
9520,56671,38399
9470,56605,38295
9418,56537,38188
9363,56467,38077
9308,56398,37967
9250,56328,37854
9189,56253,37738
9130,56177,37623
9071,56102,37507
9013,56028,37390
8958,55955,37277
8903,55882,37167
8847,55810,37061
8795,55739,36958
8748,55669,36859
8703,55604,36763
8658,55543,36667
8612,55482,36569
8561,55420,36469
8511,55362,36375
8465,55306,36289
8421,55255,36209
8381,55207,36132
8342,55162,36059
8304,55121,35990
8269,55085,35929
8240,55055,35877
8214,55027,35832
8192,54999,35791
8173,54972,35755
8159,54950,35727
8148,54932,35705
8137,54917,35683
8125,54902,35659
8111,54888,35634
8097,54871,35613
8084,54853,35594
8072,54834,35577
8063,54814,35559
8055,54799,35544
8045,54787,35534
8034,54777,35526
8022,54767,35519
8012,54759,35510
8003,54752,35497
7995,54744,35482
7990,54738,35466
7985,54732,35449
7975,54722,35432
7962,54709,35410
7946,54691,35380
7926,54669,35348
7904,54642,35312
7879,54613,35270
7855,54583,35225
7830,54549,35174
7800,54509,35112
7765,54462,35040
7726,54409,34965
7682,54352,34889
7634,54293,34810
7585,54231,34728
7535,54169,34643
7482,54105,34552
7428,54040,34457
7376,53976,34361
7329,53914,34264
7286,53855,34168
7243,53797,34080
7203,53747,34004
7174,53713,33951
7165,53703,33930
7181,53722,33953
7228,53782,34034
7311,53885,34184
7434,54036,34412
7600,54236,34719
7804,54487,35102
8041,54782,35550
8304,55109,36050
8585,55456,36586
8873,55817,37144
9163,56184,37712
9449,56543,38274
9727,56891,38817
9994,57223,39337
10245,57533,39824
10475,57815,40269
10682,58070,40668
10861,58296,41015
11012,58488,41306
11138,58643,41541
11242,58764,41721
11322,58857,41856
11379,58920,41949
11412,58955,41997
11426,58963,42001
11425,58951,41973
11410,58921,41916
11384,58876,41832
11352,58817,41728
11308,58743,41608
11251,58657,41473
11183,58559,41326
11109,58453,41168
11031,58346,41000
10951,58240,40826
10870,58134,40649
10789,58025,40471
10705,57913,40295
10617,57795,40117
10526,57675,39933
10433,57553,39744
10339,57430,39549
10243,57303,39347
10144,57173,39138
10044,57043,38926
9945,56916,38723
9852,56796,38535
9767,56686,38365
9695,56592,38218
9635,56517,38097
9589,56463,38005
9558,56427,37943
9545,56411,37914
9548,56415,37919
9566,56436,37954
9598,56477,38017
9645,56537,38103
9704,56611,38208
9773,56696,38327
9848,56786,38461
9925,56880,38604
10003,56976,38750
10082,57070,38895
10158,57165,39037
10233,57260,39175
10306,57350,39307
10372,57432,39429
10431,57504,39539
10481,57567,39635
10521,57620,39716
10551,57662,39781
10573,57694,39829
10587,57712,39856
10590,57713,39862
10582,57698,39849
10564,57672,39817
10541,57641,39770
10515,57603,39710
10481,57556,39639
10441,57502,39561
10396,57444,39476
10350,57383,39384
10302,57323,39282
10254,57262,39176
10204,57196,39069
10152,57125,38958
10099,57051,38843
10043,56973,38725
9981,56892,38606
9914,56807,38484
9847,56718,38361
9779,56629,38239
9712,56545,38117
9644,56464,37994
9577,56379,37867
9514,56298,37744
9455,56221,37625
9396,56147,37507
9340,56073,37392
9286,56002,37282
9233,55934,37176
9182,55871,37076
9133,55809,36984
9084,55752,36900
9037,55697,36820
8992,55644,36741
8949,55593,36663
8908,55545,36592
8870,55500,36527
8833,55457,36463
8800,55417,36398
8769,55380,36337
8739,55348,36281
8710,55316,36229
8686,55288,36184
8669,55265,36146
8656,55248,36115
8645,55232,36087
8637,55219,36065
8635,55211,36051
8636,55205,36041
8637,55198,36030
8637,55192,36021
8634,55188,36017
8629,55184,36013
8622,55177,36008
8612,55171,36003
8602,55164,35997
8591,55156,35989
8584,55150,35980
8581,55145,35971
8578,55140,35959
8572,55131,35942
8559,55117,35916
8542,55099,35886
8524,55081,35855
8500,55058,35819
8474,55030,35778
8448,55001,35731
8420,54969,35679
8387,54933,35622
8350,54890,35557
8308,54840,35484
8264,54786,35404
8218,54728,35319
8171,54666,35231
8123,54601,35145
8076,54539,35064
8030,54476,34983
7983,54414,34902
7934,54356,34823
7886,54303,34748
7843,54259,34682
7810,54229,34632
7791,54218,34610
7794,54232,34627
7827,54279,34691
7897,54369,34817
8010,54510,35017
8167,54701,35297
8363,54940,35651
8595,55222,36074
8856,55541,36553
9135,55889,37077
9425,56250,37627
9718,56613,38187
10007,56970,38744
10285,57314,39286
10548,57639,39800
10793,57943,40281
11020,58224,40726
11224,58478,41127
11404,58701,41477
11559,58890,41774
11688,59046,42017
11791,59169,42207
11871,59261,42346
11928,59325,42439
11964,59362,42489
11981,59375,42501
11982,59365,42480
11966,59335,42427
11934,59285,42346
11885,59214,42239
11825,59128,42110
11757,59036,41966
11681,58937,41809
11600,58829,41642
11517,58717,41467
11430,58601,41287
11340,58482,41100
11252,58363,40911
11165,58245,40721
11078,58125,40534
10989,58003,40346
10893,57875,40151
10789,57743,39947
10681,57606,39737
10573,57463,39521
10465,57320,39302
10357,57183,39090
10252,57051,38891
10155,56929,38708
10072,56824,38547
10008,56740,38412
9961,56677,38308
9928,56633,38239
9909,56610,38201
9905,56608,38194
9917,56626,38217
9947,56662,38267
9991,56712,38341
10046,56776,38437
10111,56858,38554
10183,56952,38686
10258,57053,38825
10334,57158,38968
10411,57263,39115
10487,57361,39262
10562,57452,39407
10635,57543,39551
10703,57628,39687
10765,57705,39807
10819,57772,39908
10862,57829,39991
10895,57876,40057
10918,57908,40103
10931,57921,40126
10935,57921,40131
10930,57912,40120
10916,57893,40092
10895,57862,40049
10864,57822,39990
10825,57775,39920
10781,57721,39840
10735,57665,39749
10691,57608,39653
10646,57545,39552
10595,57477,39448
10538,57406,39343
10478,57331,39236
10417,57254,39124
10354,57173,39007
10286,57090,38888
10216,57006,38765
10147,56922,38639
10081,56837,38509
10018,56751,38378
9956,56668,38249
9892,56588,38121
9827,56507,37993
9765,56428,37869
9705,56351,37752
9648,56276,37638
9594,56204,37527
9542,56136,37421
9489,56070,37316
9434,56004,37210
9378,55938,37106
9323,55875,37008
9272,55816,36918
9222,55756,36832
9171,55696,36750
9121,55641,36677
9077,55591,36612
9037,55546,36550
9001,55504,36491
8971,55466,36438
8944,55434,36389
8919,55405,36346
8898,55381,36307
8880,55358,36272
8863,55337,36239
8847,55315,36209
8831,55293,36183
8818,55276,36160
8807,55263,36141
8797,55253,36123
8788,55244,36107
8782,55238,36092
8779,55234,36078
8777,55229,36066
8774,55225,36056
8770,55218,36044
8765,55208,36030
8759,55196,36018
8752,55183,36005
8741,55169,35991
8728,55156,35972
8714,55143,35948
8698,55126,35921
8680,55103,35892
8658,55077,35859
8631,55045,35814
8601,55008,35760
8571,54971,35699
8536,54930,35631
8496,54886,35555
8455,54838,35473
8411,54784,35383
8364,54725,35290
8314,54662,35196
8265,54600,35107
8219,54543,35028
8175,54490,34957
8139,54446,34897
8117,54419,34860
8112,54416,34860
8133,54443,34905
8188,54511,35006
8278,54626,35174
8407,54789,35419
8577,55003,35741
8789,55264,36132
9031,55565,36581
9292,55894,37075
9567,56239,37602
9851,56594,38149
10137,56955,38703
10419,57312,39248
10687,57650,39771
10937,57964,40263
11168,58252,40718
11379,58514,41130
11564,58744,41494
11723,58942,41809
11855,59107,42070
11962,59237,42276
12044,59337,42433
12106,59410,42544
12146,59456,42612
12167,59477,42639
12170,59474,42630
12153,59449,42585
12121,59406,42510
12076,59346,42408
12019,59266,42281
11952,59174,42130
11877,59074,41963
11793,58964,41783
11703,58844,41593
11609,58716,41396
11511,58587,41197
11409,58458,40994
11307,58328,40789
11202,58195,40584
11095,58055,40377
10986,57910,40165
10875,57758,39948
10760,57602,39724
10641,57446,39497
10520,57291,39265
10399,57141,39034
10283,56998,38812
10173,56862,38603
10074,56736,38414
9989,56629,38250
9919,56541,38114
9862,56474,38005
9822,56429,37931
9802,56410,37894
9801,56416,37894
9819,56447,37928
9855,56499,37993
9904,56565,38084
9966,56644,38195
10039,56732,38323
10118,56827,38468
10201,56928,38625
10286,57033,38789
10372,57138,38950
10456,57240,39106
10534,57335,39256
10605,57423,39393
10666,57502,39515
10717,57569,39617
10758,57624,39702
10787,57666,39768
10804,57693,39814
10816,57709,39839
10823,57715,39847
10824,57711,39842
10817,57695,39823
10801,57667,39789
10776,57633,39742
10744,57594,39680
10706,57548,39605
10663,57496,39521
10617,57439,39432
10566,57375,39338
10509,57304,39233
10450,57227,39116
10388,57145,38991
10322,57059,38865
10257,56969,38737
10191,56879,38609
10123,56790,38482
10054,56706,38355
9984,56620,38226
9913,56534,38093
9844,56450,37959
9778,56369,37829
9712,56289,37701
9646,56211,37578
9579,56132,37456
9510,56049,37331
9441,55961,37203
9373,55871,37077
9307,55782,36954
9241,55698,36834
9175,55616,36716
9109,55538,36605
9043,55467,36500
8981,55401,36399
8925,55341,36302
8875,55286,36211
8827,55233,36122
8778,55180,36033
8732,55129,35948
8690,55080,35867
8653,55033,35794
8620,54986,35728
8586,54939,35666
8556,54896,35607
8529,54858,35556
8504,54825,35510
8481,54796,35468
8463,54774,35433
8444,54755,35402
8423,54735,35373
8403,54714,35344
8384,54694,35317
8364,54675,35292
8347,54659,35272
8336,54646,35259
8330,54637,35248
8326,54630,35235
8321,54620,35220
8314,54609,35205
8306,54600,35188
8295,54589,35167
8276,54570,35138
8249,54541,35100
8220,54509,35055
8191,54475,35007
8158,54440,34953
8121,54399,34894
8081,54354,34832
8041,54308,34768
8004,54262,34702
7970,54219,34636
7934,54178,34569
7899,54138,34503
7863,54097,34441
7828,54056,34381
7794,54019,34328
7767,53991,34288
7754,53977,34272
7761,53988,34292
7795,54036,34360
7862,54124,34488
7965,54258,34682
8106,54442,34948
8290,54677,35290
8511,54957,35696
8762,55272,36157
9037,55615,36664
9329,55973,37204
9626,56335,37758
9921,56691,38311
10208,57036,38854
10478,57364,39375
10728,57671,39858
10959,57954,40300
11167,58211,40699
11351,58437,41052
11512,58632,41356
11649,58798,41613
11760,58932,41821
11843,59032,41977
11898,59099,42081
11930,59137,42141
11943,59150,42164
11937,59140,42151
11911,59104,42102
11868,59047,42017
11813,58975,41904
11746,58886,41769
11670,58780,41612
11588,58664,41436
11502,58542,41249
11410,58415,41051
11311,58285,40844
11207,58151,40636
11099,58016,40428
10985,57877,40218
10872,57735,40004
10757,57589,39786
10638,57440,39562
10515,57286,39331
10389,57128,39093
10261,56968,38851
10132,56809,38611
10006,56655,38379
9886,56510,38162
9777,56381,37966
9684,56273,37796
9607,56183,37653
9550,56111,37541
9516,56063,37467
9499,56039,37427
9500,56037,37416
9520,56059,37436
9555,56103,37490
9601,56167,37576
9663,56247,37689
9741,56341,37826
9827,56444,37976
9915,56556,38136
10002,56670,38303
10089,56781,38473
10176,56888,38643
10263,56993,38809
10344,57092,38965
10416,57184,39108
10479,57268,39238
10536,57343,39350
10584,57405,39442
10624,57455,39516
10657,57493,39574
10679,57515,39611
10690,57520,39628
10693,57512,39629
10688,57493,39611
10672,57465,39573
10648,57430,39519
10618,57389,39451
10579,57343,39371
10533,57292,39282
10479,57233,39182
10421,57168,39077
10364,57099,38968
10306,57023,38856
10244,56941,38737
10176,56857,38614
10107,56773,38489
10035,56686,38362
9962,56596,38232
9893,56507,38102
9824,56419,37971
9753,56330,37839
9682,56242,37706
9612,56157,37577
9543,56075,37452
9477,55997,37331
9415,55922,37217
9353,55847,37106
9292,55772,36997
9231,55697,36889
9172,55625,36785
9118,55559,36686
9069,55497,36589
9019,55437,36492
8966,55380,36399
8915,55330,36313
8870,55284,36236
8829,55239,36164
8793,55196,36095
8762,55157,36032
8734,55123,35975
8706,55090,35922
8682,55060,35877
8660,55034,35842
8639,55011,35811
8618,54989,35782
8601,54969,35754
8586,54949,35726
8570,54927,35697
8554,54908,35673
8542,54894,35656
8533,54886,35644
8524,54880,35634
8515,54874,35622
8506,54866,35609
8500,54859,35597
8497,54851,35590
8493,54840,35583
8485,54829,35575
8475,54819,35562
8460,54804,35541
8440,54785,35508
8419,54765,35471
8393,54740,35428
8362,54706,35381
8329,54667,35328
8294,54624,35271
8257,54580,35212
8222,54539,35151
8186,54502,35091
8148,54465,35031
8111,54427,34972
8076,54390,34916
8046,54357,34870
8027,54336,34839
8022,54330,34829
8031,54341,34848
8059,54377,34905
8115,54449,35012
8205,54564,35178
8333,54722,35410
8499,54927,35711
8702,55177,36083
8934,55464,36519
9190,55777,37002
9464,56108,37516
9745,56452,38048
10028,56802,38586
10309,57149,39116
10582,57488,39632
10838,57811,40125
11074,58108,40586
11290,58378,41006
11483,58621,41381
11653,58833,41712
11798,59011,41994
11923,59157,42224
12027,59275,42406
12103,59365,42539
12155,59427,42622
12183,59460,42659
12187,59460,42654
12172,59433,42612
12141,59385,42536
12097,59322,42433
12040,59244,42307
11970,59155,42162
11889,59053,42001
11801,58940,41826
11709,58822,41644
11614,58703,41457
11518,58579,41263
11419,58450,41062
11318,58316,40855
11213,58181,40644
11108,58044,40428
11002,57905,40207
10891,57763,39981
10774,57613,39750
10649,57455,39515
10518,57293,39282
10388,57133,39050
10265,56976,38822
10153,56830,38607
10052,56703,38415
9963,56597,38253
9889,56511,38123
9834,56446,38023
9800,56405,37956
9786,56391,37924
9787,56399,37929
9804,56426,37968
9839,56473,38040
9891,56540,38139
9958,56623,38261
10034,56717,38398
10117,56819,38550
10208,56931,38715
10302,57048,38886
10394,57163,39056
10485,57275,39223
10573,57383,39388
10655,57485,39544
10731,57580,39690
10799,57667,39822
10858,57746,39936
10909,57816,40033
10950,57874,40110
10978,57917,40164
10994,57944,40196
10998,57952,40207
10989,57943,40201
10974,57923,40182
10956,57897,40151
10930,57859,40101
10895,57809,40035
10851,57751,39959
10804,57691,39873
10755,57629,39779
10707,57565,39684
10657,57499,39586
10602,57431,39482
10544,57358,39369
10484,57282,39251
10420,57203,39127
10352,57119,38999
10282,57031,38867
10213,56942,38737
10144,56854,38608
10073,56766,38481
10003,56675,38355
9936,56588,38232
9870,56507,38111
9804,56431,37988
9742,56359,37868
9684,56293,37754
9627,56233,37650
9571,56178,37550
9516,56121,37453
9460,56065,37361
9407,56011,37274
9357,55955,37189
9311,55899,37107
9271,55845,37032
9234,55791,36961
9197,55737,36891
9160,55686,36823
9124,55640,36763
9089,55599,36710
9059,55563,36664
9035,55533,36624
9015,55510,36589
8996,55491,36556
8973,55470,36525
8949,55449,36500
8930,55435,36483
8914,55425,36472
8901,55413,36460
8890,55399,36445
8881,55387,36429
8871,55375,36411
8860,55359,36390
8845,55338,36367
8827,55317,36341
8806,55293,36315
8787,55269,36285
8771,55246,36251
8756,55221,36213
8737,55192,36173
8714,55158,36131
8686,55121,36088
8655,55084,36042
8621,55048,35990
8583,55011,35930
8543,54971,35867
8498,54930,35806
8454,54888,35744
8415,54844,35680
8381,54802,35619
8349,54765,35561
8320,54732,35506
8293,54702,35457
8270,54677,35419
8258,54664,35398
8265,54672,35407
8296,54710,35457
8356,54790,35567
8450,54914,35743
8580,55082,35986
8749,55295,36297
8956,55552,36676
9193,55844,37113
9456,56165,37596
9736,56509,38118
10027,56865,38664
10318,57224,39215
10601,57576,39756
10875,57915,40275
11135,58235,40765
11376,58527,41219
11592,58789,41630
11783,59021,41995
11949,59222,42315
12090,59392,42588
12206,59531,42811
12300,59640,42985
12370,59722,43111
12418,59777,43191
12447,59809,43227
12456,59818,43226
12445,59804,43191
12415,59769,43125
12371,59714,43032
12316,59641,42914
12252,59553,42775
12179,59451,42616
12097,59337,42439
12007,59212,42248
11912,59083,42050
11814,58954,41851
11714,58823,41653
11612,58690,41453
11507,58556,41252
11399,58418,41045
11289,58275,40834
11176,58131,40621
11059,57985,40404
10940,57838,40183
10821,57691,39962
10706,57548,39745
10594,57411,39538
10486,57284,39345
10389,57170,39172
10310,57076,39024
10252,57004,38907
10210,56953,38820
10184,56923,38763
10173,56915,38741
10178,56931,38753
10199,56966,38798
10239,57021,38874
10295,57091,38977
10362,57174,39103
10435,57267,39245
10513,57368,39397
10595,57475,39556
10681,57584,39720
10766,57692,39883
10850,57796,40044
10931,57898,40198
11005,57995,40341
11070,58081,40468
11126,58157,40579
11172,58220,40673
11209,58267,40749
11239,58299,40807
11261,58319,40849
11274,58329,40875
11276,58330,40880
11267,58317,40864
11246,58289,40827
11219,58253,40776
11185,58214,40713
11145,58170,40640
11102,58122,40562
11056,58069,40476
11007,58006,40380
10957,57939,40275
10904,57868,40164
10848,57793,40046
10789,57713,39923
10728,57633,39799
10665,57553,39674
10599,57470,39547
10531,57383,39419
10461,57295,39294
10393,57210,39170
10327,57130,39048
10261,57050,38924
10194,56969,38801
10127,56890,38683
10061,56815,38572
9995,56743,38465
9931,56673,38363
9870,56606,38262
9811,56540,38162
9756,56474,38063
9704,56412,37965
9652,56350,37870
9601,56289,37776
9551,56229,37685
9502,56172,37597
9455,56119,37516
9410,56067,37441
9368,56015,37370
9330,55968,37305
9299,55930,37251
9271,55896,37204
9242,55861,37159
9216,55829,37117
9191,55801,37078
9166,55774,37038
9143,55749,37000
9124,55727,36963
9107,55705,36928
9089,55684,36895
9072,55667,36866
9055,55652,36844
9040,55639,36826
9029,55625,36810
9019,55611,36794
9010,55600,36779
9000,55591,36761
8986,55576,36735
8966,55553,36698
8942,55527,36655
8915,55499,36612
8890,55470,36568
8868,55440,36522
8844,55407,36476
8813,55367,36428
8776,55322,36374
8736,55277,36319
8700,55236,36267
8669,55197,36217
8638,55159,36165
8606,55123,36114
8575,55090,36066
8544,55060,36024
8522,55039,35995
8518,55036,35986
8534,55056,36011
8572,55102,36076
8636,55183,36195
8732,55307,36378
8865,55478,36629
9035,55695,36946
9240,55951,37325
9473,56241,37755
9730,56559,38228
10000,56893,38732
10273,57232,39252
10545,57573,39775
10813,57907,40291
11067,58224,40786
11303,58517,41250
11522,58790,41678
11722,59039,42064
11900,59257,42401
12057,59443,42689
12188,59597,42929
12291,59716,43119
12369,59807,43265
12427,59875,43369
12467,59920,43433
12487,59939,43454
12486,59931,43437
12467,59898,43388
12434,59848,43311
12386,59782,43205
12322,59702,43071
12245,59608,42917
12159,59504,42750
12070,59394,42575
11982,59280,42394
11896,59164,42208
11808,59045,42019
11713,58923,41825
11616,58796,41626
11518,58665,41425
11417,58531,41222
11313,58394,41015
11206,58255,40803
11093,58111,40587
10973,57964,40371
10849,57818,40157
10731,57677,39950
10622,57546,39757
10524,57428,39582
10439,57325,39429
10368,57242,39303
10313,57182,39205
10276,57145,39137
10255,57130,39100
10253,57135,39093
10271,57161,39116
10308,57209,39167
10357,57273,39243
10417,57350,39341
10485,57436,39461
10557,57528,39599
10631,57622,39750
10707,57715,39907
10781,57808,40067
10851,57897,40222
10921,57983,40370
10990,58068,40512
11056,58151,40648
11115,58226,40768
11166,58291,40869
11210,58346,40953
11250,58392,41019
11283,58428,41067
11304,58450,41095
11311,58456,41101
11306,58448,41092
11292,58428,41066
11268,58398,41024
11239,58361,40968
11206,58320,40903
11168,58270,40826
11123,58215,40736
11073,58157,40638
11018,58095,40534
10959,58023,40424
10899,57942,40311
10837,57856,40196
10774,57769,40076
10706,57682,39950
10633,57592,39817
10555,57501,39680
10478,57413,39541
10403,57323,39403
10325,57231,39264
10245,57142,39126
10167,57057,38993
10091,56974,38863
10020,56895,38736
9958,56822,38614
9901,56752,38500
9842,56682,38391
9786,56610,38288
9733,56538,38191
9683,56468,38095
9636,56401,38004
9596,56338,37918
9558,56282,37837
9517,56230,37762
9469,56175,37688
9419,56120,37614
9374,56071,37545
9337,56030,37480
9303,55994,37419
9268,55959,37366
9236,55929,37317
9205,55902,37269
9173,55878,37224
9144,55854,37182
9118,55830,37143
9093,55803,37105
9071,55775,37070
9053,55750,37040
9041,55731,37014
9032,55718,36992
9022,55707,36972
9013,55694,36953
9005,55683,36935
8998,55674,36920
8990,55664,36903
8981,55654,36884
8969,55644,36864
8954,55631,36842
8935,55612,36815
8915,55588,36787
8891,55560,36754
8862,55525,36713
8825,55484,36663
8783,55436,36605
8741,55385,36538
8697,55332,36466
8650,55275,36391
8599,55218,36314
8546,55163,36235
8491,55109,36153
8437,55055,36072
8388,55003,35996
8344,54955,35928
8311,54916,35873
8292,54894,35838
8291,54893,35835
8313,54921,35874
8364,54985,35968
8456,55098,36132
8592,55265,36373
8768,55483,36686
8976,55741,37062
9210,56035,37493
9468,56358,37969
9742,56700,38477
10022,57049,39003
10303,57398,39537
10578,57742,40067
10841,58070,40577
11090,58377,41059
11323,58662,41504
11535,58921,41909
11723,59147,42266
11887,59338,42573
12027,59497,42827
12140,59626,43031
12225,59724,43183
12283,59790,43284
12317,59830,43335
12331,59844,43346
12327,59831,43319
12307,59791,43256
12270,59732,43164
12216,59658,43045
12149,59569,42902
12069,59468,42741
11979,59355,42566
11882,59233,42379
11782,59107,42185
11681,58977,41986
11579,58843,41783
11476,58709,41576
11368,58574,41366
11257,58437,41150
11143,58299,40933
11025,58154,40717
10906,58003,40496
10785,57848,40269
10662,57690,40036
10536,57533,39801
10413,57377,39569
10297,57231,39351
10194,57100,39152
10102,56985,38976
10023,56886,38825
9957,56807,38704
9909,56748,38614
9877,56712,38560
9862,56698,38540
9866,56704,38552
9885,56730,38594
9917,56770,38659
9959,56821,38740
10010,56885,38839
10069,56961,38953
10134,57047,39079
10203,57140,39213
10276,57235,39355
10347,57329,39499
10416,57419,39639
10484,57506,39770
10549,57591,39894
10608,57671,40007
10659,57741,40106
10698,57798,40187
10729,57842,40251
10749,57870,40297
10757,57880,40322
10757,57878,40327
10750,57869,40316
10735,57854,40289
10713,57829,40246
10685,57795,40190
10650,57751,40123
10609,57699,40046
10565,57644,39961
10521,57585,39871
10475,57523,39776
10424,57456,39673
10367,57381,39563
10303,57301,39447
10239,57222,39328
10175,57142,39207
10109,57059,39081
10041,56977,38950
9969,56895,38819
9893,56811,38692
9820,56725,38569
9751,56639,38450
9686,56553,38331
9621,56468,38216
9559,56387,38108
9500,56312,38006
9444,56244,37907
9389,56179,37808
9334,56114,37710
9283,56052,37617
9235,55994,37528
9190,55937,37440
9148,55879,37350
9103,55822,37263
9058,55769,37183
9012,55718,37106
8966,55668,37030
8923,55621,36959
8882,55578,36893
8844,55536,36829
8812,55496,36770
8786,55461,36718
8761,55433,36675
8739,55414,36642
8720,55402,36617
8702,55391,36594
8686,55381,36573
8671,55370,36554
8658,55360,36539
8650,55352,36527
8646,55347,36518
8642,55341,36509
8636,55333,36501
8630,55328,36497
8625,55324,36496
8619,55318,36494
8614,55309,36489
8608,55298,36483
8599,55284,36472
8586,55267,36453
8571,55248,36430
8553,55230,36401
8529,55212,36366
8501,55191,36325
8470,55165,36280
8436,55132,36231
8401,55092,36178
8364,55046,36123
8327,54997,36062
8290,54948,35994
8250,54899,35922
8209,54848,35847
8167,54797,35770
8128,54748,35696
8089,54701,35626
8055,54658,35566
8030,54631,35527
8017,54626,35516
8026,54651,35544
8064,54713,35625
8137,54817,35770
8249,54964,35984
8404,55157,36269
8600,55393,36624
8830,55666,37037
9084,55968,37495
9351,56289,37985
9623,56622,38494
9896,56957,39013
10165,57286,39528
10422,57602,40024
10664,57900,40493
10886,58175,40928
11086,58423,41322
11264,58645,41673
11420,58838,41979
11556,59005,42241
11671,59146,42458
11762,59258,42624
11830,59342,42739
11875,59399,42810
11899,59428,42841
11906,59430,42833
11898,59410,42793
11874,59370,42726
11834,59313,42632
11781,59243,42512
11716,59160,42374
11643,59065,42218
11564,58959,42048
11480,58843,41868
11389,58719,41680
11292,58591,41484
11187,58459,41283
11077,58323,41077
10963,58181,40864
10849,58036,40647
10732,57890,40424
10611,57739,40194
10491,57588,39962
10369,57439,39732
10244,57291,39503
10124,57146,39279
10013,57007,39066
9911,56880,38873
9822,56770,38706
9751,56681,38570
9699,56616,38465
9664,56574,38393
9648,56554,38354
9648,56554,38349
9665,56576,38376
9696,56616,38430
9738,56668,38505
9786,56729,38597
9841,56801,38707
9906,56882,38834
9978,56970,38975
10051,57065,39124
10125,57167,39278
10197,57272,39431
10268,57373,39579
10337,57469,39720
10402,57557,39851
10457,57632,39963
10505,57691,40057
10545,57738,40136
10576,57775,40198
10602,57801,40241
10618,57814,40263
10622,57816,40266
10615,57808,40254
10595,57788,40227
10568,57753,40181
10536,57711,40124
10499,57661,40055
10455,57602,39974
10407,57535,39879
10356,57460,39775
10302,57380,39662
10242,57299,39543
10178,57217,39421
10110,57133,39292
10039,57050,39159
9964,56965,39019
9887,56875,38875
9811,56786,38734
9734,56696,38596
9655,56602,38460
9578,56508,38325
9500,56412,38188
9421,56313,38048
9341,56216,37908
9265,56125,37771
9194,56039,37639
9124,55952,37510
9050,55864,37383
8974,55779,37258
8901,55701,37141
8833,55631,37032
8771,55564,36930
8717,55501,36832
8668,55442,36740
8619,55385,36652
8571,55331,36569
8526,55283,36494
8485,55241,36425
8449,55202,36360
8418,55168,36299
8392,55139,36245
8368,55113,36200
8344,55088,36158
8319,55062,36120
8296,55034,36086
8272,55007,36057
8247,54980,36030
8227,54954,36006
8214,54930,35986
8204,54911,35970
8192,54896,35955
8178,54883,35940
8163,54873,35925
8149,54869,35910
8135,54866,35895
8123,54860,35880
8114,54852,35867
8105,54842,35857
8095,54827,35843
8083,54806,35822
8066,54785,35795
8045,54765,35762
8021,54743,35723
7993,54714,35678
7961,54681,35626
7926,54644,35568
7887,54600,35501
7846,54552,35430
7804,54503,35361
7763,54451,35297
7721,54400,35238
7683,54355,35183
7651,54317,35133
7623,54285,35088
7603,54261,35056
7596,54256,35050
7613,54279,35085
7661,54339,35174
7743,54439,35323
7862,54585,35538
8020,54779,35825
8215,55020,36183
8441,55299,36601
8691,55609,37069
8961,55944,37579
9243,56292,38115
9533,56646,38661
9821,56999,39206
10098,57342,39736
10358,57667,40236
10598,57969,40701
10816,58246,41128
11014,58494,41513
11190,58709,41849
11338,58890,42133
11459,59038,42365
11554,59155,42543
11622,59237,42666
11668,59286,42738
11691,59307,42768
11694,59303,42760
11676,59277,42717
11643,59231,42643
11596,59168,42539
11537,59087,42409
11469,58989,42259
11395,58883,42098
11318,58774,41927
11236,58665,41748
11147,58551,41564
11050,58433,41377
10950,58314,41190
10850,58194,40999
10752,58072,40804
10657,57946,40606
10562,57818,40408
10462,57687,40206
10357,57552,40001
10248,57415,39793
10136,57272,39585
10022,57129,39378
9910,56994,39179
9807,56872,38992
9715,56764,38821
9634,56669,38671
9569,56591,38550
9523,56535,38460
9497,56500,38400
9488,56485,38371
9491,56489,38370
9505,56511,38400
9533,56554,38459
9574,56612,38540
9627,56680,38637
9691,56761,38753
9762,56854,38887
9836,56950,39028
9911,57046,39175
9988,57144,39326
10064,57240,39477
10140,57333,39622
10211,57421,39759
10274,57501,39883
10326,57569,39989
10370,57624,40080
10406,57669,40156
10437,57707,40216
10462,57737,40259
10475,57754,40281
10476,57760,40281
10464,57752,40266
10442,57729,40235
10412,57695,40188
10379,57651,40128
10340,57602,40058
10292,57545,39975
10238,57478,39881
10181,57405,39777
10120,57330,39667
10058,57251,39552
9994,57169,39434
9929,57083,39314
9862,56994,39192
9789,56904,39065
9714,56814,38935
9640,56726,38805
9570,56644,38675
9499,56563,38542
9425,56480,38407
9349,56397,38273
9273,56315,38143
9201,56231,38013
9133,56147,37885
9070,56064,37763
9009,55983,37644
8947,55901,37529
8883,55820,37420
8817,55740,37316
8752,55662,37214
8693,55587,37115
8642,55519,37023
8599,55463,36939
8560,55414,36860
8519,55368,36783
8477,55325,36711
8438,55288,36644
8403,55255,36585
8369,55226,36532
8339,55198,36484
8311,55174,36442
8286,55152,36405
8266,55133,36371
8253,55119,36344
8244,55107,36323
8237,55094,36304
8228,55080,36285
8217,55068,36270
8209,55060,36261
8205,55055,36255
8203,55050,36250
8202,55044,36248
8197,55037,36248
8191,55028,36246
8186,55020,36241
8181,55013,36233
8171,55003,36222
8160,54989,36207
8150,54975,36187
8140,54960,36165
8125,54942,36141
8103,54920,36111
8075,54891,36069
8043,54854,36018
8007,54815,35963
7965,54771,35904
7920,54721,35840
7872,54671,35769
7822,54622,35694
7770,54570,35613
7719,54518,35531
7673,54469,35454
7631,54423,35385
7594,54380,35325
7566,54347,35279
7551,54331,35254
7557,54337,35259
7590,54373,35307
7655,54450,35412
7755,54573,35586
7892,54745,35829
8062,54960,36138
8264,55215,36513
8499,55507,36953
8763,55832,37444
9045,56178,37972
9333,56532,38518
9618,56886,39070
9895,57232,39615
10159,57566,40142
10411,57885,40643
10644,58182,41108
10855,58454,41529
11045,58695,41903
11213,58903,42226
11358,59080,42497
11479,59222,42716
11573,59329,42884
11640,59404,43001
11682,59449,43070
11701,59465,43094
11699,59452,43074
11680,59417,43015
11646,59366,42928
11598,59300,42817
11541,59218,42684
11479,59127,42537
11409,59027,42379
11331,58919,42208
11249,58806,42028
11167,58691,41842
11081,58571,41651
10991,58451,41461
10899,58332,41272
10805,58213,41082
10709,58091,40889
10606,57962,40686
10496,57827,40475
10383,57691,40260
10269,57554,40045
10155,57415,39829
10043,57278,39619
9938,57147,39419
9839,57025,39233
9751,56917,39068
9680,56827,38930
9627,56760,38824
9590,56712,38747
9568,56682,38701
9558,56672,38687
9563,56684,38703
9581,56713,38750
9611,56755,38822
9654,56809,38913
9708,56877,39021
9770,56956,39140
9837,57041,39266
9905,57131,39398
9971,57220,39534
10035,57305,39669
10096,57385,39800
10155,57463,39927
10214,57540,40048
10271,57613,40160
10321,57676,40255
10366,57731,40333
10403,57780,40396
10431,57816,40442
10449,57838,40470
10460,57848,40483
10462,57847,40477
10453,57833,40454
10433,57808,40415
10406,57773,40360
10371,57730,40290
10329,57679,40209
10285,57621,40119
10241,57558,40022
10195,57493,39920
10141,57422,39811
10081,57345,39692
10017,57265,39569
9950,57182,39445
9884,57097,39317
9820,57016,39191
9757,56940,39067
9691,56863,38941
9619,56781,38814
9544,56696,38683
9467,56612,38550
9393,56530,38419
9321,56449,38291
9250,56372,38168
9180,56297,38051
9112,56222,37937
9049,56148,37825
8990,56077,37719
8933,56009,37612
8878,55939,37503
8823,55867,37394
8765,55796,37286
8706,55723,37179
8645,55646,37072
8586,55572,36966
8531,55504,36866
8476,55442,36770
8421,55380,36677
8368,55319,36594
8317,55261,36519
8271,55211,36450
8230,55168,36385
8191,55128,36327
8154,55092,36273
8121,55063,36225
8093,55037,36180
8071,55014,36137
8057,54995,36103
8046,54982,36079
8040,54973,36063
8041,54966,36052
8043,54963,36045
8042,54962,36040
8038,54959,36036
8032,54955,36032
8029,54950,36032
8024,54946,36033
8015,54938,36030
8005,54926,36022
7995,54915,36015
7979,54901,36003
7958,54881,35983
7934,54855,35956
7908,54828,35920
7879,54798,35874
7845,54760,35819
7807,54718,35756
7767,54673,35689
7725,54623,35616
7676,54562,35535
7623,54497,35448
7569,54433,35359
7517,54372,35267
7469,54312,35175
7425,54255,35086
7383,54197,35000
7342,54141,34917
7304,54090,34842
7272,54051,34785
7251,54032,34758
7250,54041,34772
7278,54087,34839
7346,54180,34974
7457,54325,35186
7610,54521,35476
7805,54763,35841
8036,55045,36275
8298,55364,36763
8583,55709,37292
8880,56068,37844
9179,56430,38403
9469,56789,38957
9746,57136,39493
10010,57465,40002
10259,57774,40477
10487,58056,40910
10686,58304,41292
10856,58517,41620
10997,58693,41891
11107,58830,42107
11191,58928,42268
11253,58996,42381
11293,59035,42448
11309,59045,42469
11303,59029,42451
11280,58987,42397
11241,58924,42310
11188,58847,42192
11123,58757,42050
11048,58655,41887
10963,58542,41707
10870,58420,41513
10773,58296,41309
10675,58172,41104
10575,58045,40897
10475,57915,40687
10376,57782,40477
10276,57648,40267
10173,57511,40057
10065,57370,39844
9953,57225,39625
9837,57077,39403
9717,56929,39178
9593,56781,38948
9468,56634,38720
9348,56492,38501
9238,56356,38295
9140,56229,38107
9055,56117,37942
8982,56027,37805
8924,55960,37699
8883,55914,37625
8860,55890,37587
8855,55891,37584
8867,55910,37608
8892,55942,37655
8928,55988,37725
8974,56048,37820
9029,56118,37936
9092,56196,38064
9165,56285,38202
9243,56381,38344
9317,56478,38485
9386,56573,38622
9452,56659,38754
9514,56736,38875
9571,56804,38984
9621,56861,39079
9665,56910,39162
9703,56951,39230
9731,56980,39283
9748,56995,39319
9758,57001,39337
9760,56999,39337
9751,56989,39318
9733,56971,39285
9709,56948,39244
9678,56917,39191
9640,56875,39124
9594,56824,39045
9544,56765,38955
9491,56700,38857
9434,56627,38751
9373,56551,38638
9311,56475,38520
9249,56399,38402
9183,56322,38279
9115,56244,38150
9047,56165,38020
8979,56082,37890
8914,55999,37760
8852,55920,37631
8788,55840,37507
8720,55756,37385
8652,55672,37268
8587,55595,37156
8526,55525,37050
8467,55458,36948
8406,55390,36844
8346,55321,36738
8289,55256,36635
8235,55193,36536
8184,55133,36441
8139,55079,36352
8096,55028,36269
8054,54976,36193
8013,54924,36123
7974,54875,36060
7938,54831,36001
7903,54790,35942
7871,54750,35885
7840,54715,35830
7809,54684,35778
7780,54655,35726
7752,54623,35675
7726,54591,35629
7701,54563,35590
7677,54537,35558
7655,54512,35528
7639,54492,35501
7624,54474,35477
7607,54457,35456
7593,54444,35437
7583,54436,35422
7575,54430,35408
7567,54424,35396
7557,54418,35385
7545,54410,35371
7532,54402,35353
7520,54392,35333
7506,54380,35311
7495,54368,35291
7486,54356,35270
7474,54339,35242
7457,54314,35206
7435,54282,35164
7407,54242,35115
7375,54195,35057
7339,54145,34993
7300,54091,34927
7257,54036,34855
7209,53977,34776
7159,53918,34693
7110,53864,34612
7063,53817,34532
7018,53771,34451
6973,53726,34368
6929,53681,34287
6887,53637,34212
6848,53595,34148
6820,53561,34103
6808,53547,34087
6818,53564,34112
6861,53617,34187
6942,53715,34324
7063,53858,34528
7222,54046,34804
7417,54278,35151
7641,54552,35563
7890,54860,36032
8159,55190,36539
8439,55533,37066
8725,55882,37603
9008,56227,38140
9279,56559,38660
9536,56871,39152
9772,57159,39602
9985,57421,40006
10176,57654,40366
10344,57857,40681
10488,58033,40949
10607,58179,41169
10697,58290,41338
10763,58367,41460
10809,58415,41540
10834,58436,41578
10839,58434,41574
10827,58411,41533
10798,58370,41462
10753,58310,41363
10691,58231,41235
10617,58137,41085
10535,58036,40920
10447,57928,40746
10356,57815,40562
10262,57696,40368
10164,57569,40165
10060,57429,39952
9950,57283,39732
9837,57136,39507
9724,56988,39279
9605,56839,39046
9482,56688,38811
9352,56536,38573
9218,56382,38332
9085,56225,38089
8953,56064,37848
8823,55906,37612
8700,55759,37394
8592,55628,37201
8501,55514,37036
8432,55422,36909
8385,55356,36821
8361,55317,36769
8358,55306,36751
8373,55323,36771
8406,55363,36821
8455,55422,36898
8518,55497,37000
8589,55585,37123
8667,55682,37264
8750,55785,37418
8838,55894,37580
8928,56008,37749
9020,56122,37920
9112,56233,38084
9200,56336,38239
9282,56430,38383
9355,56515,38517
9418,56590,38635
9471,56657,38737
9512,56712,38819
9540,56754,38877
9555,56780,38912
9559,56793,38924
9554,56793,38919
9541,56778,38896
9519,56749,38858
9491,56712,38810
9457,56672,38753
9417,56626,38684
9372,56570,38602
9322,56509,38512
9268,56441,38413
9210,56370,38303
9147,56295,38186
9085,56216,38064
9022,56134,37938
8957,56050,37808
8887,55963,37674
8815,55875,37540
8745,55789,37412
8678,55705,37289
8614,55624,37168
8552,55546,37050
8489,55472,36936
8423,55399,36822
8358,55327,36708
8293,55255,36595
8229,55181,36480
8169,55107,36369
8114,55034,36265
8061,54966,36165
8009,54903,36068
7956,54842,35971
7904,54782,35878
7857,54727,35792
7814,54676,35716
7772,54627,35644
7729,54578,35575
7688,54531,35508
7649,54485,35442
7615,54441,35378
7585,54402,35320
7558,54369,35268
7533,54339,35222
7510,54308,35179
7485,54275,35139
7461,54244,35102
7444,54218,35069
7431,54196,35039
7418,54179,35011
7407,54169,34989
7398,54163,34973
7393,54159,34962
7391,54157,34958
7388,54155,34956
7382,54151,34952
7375,54144,34944
7370,54136,34934
7362,54130,34921
7351,54120,34900
7337,54102,34867
7320,54077,34828
7301,54049,34787
7277,54017,34745
7250,53981,34698
7219,53941,34646
7179,53898,34588
7136,53851,34525
7093,53802,34460
7049,53751,34391
7004,53699,34319
6957,53646,34244
6910,53590,34168
6867,53539,34097
6828,53491,34030
6789,53445,33963
6750,53406,33900
6716,53374,33848
6689,53352,33815
6682,53351,33815
6705,53382,33861
6767,53457,33968
6869,53579,34143
7010,53749,34394
7190,53966,34724
7409,54230,35127
7662,54537,35590
7940,54875,36097
8236,55236,36634
8539,55608,37188
8842,55976,37744
9141,56332,38288
9428,56674,38809
9696,56995,39300
9937,57288,39751
10148,57550,40158
10329,57779,40518
10483,57977,40830
10613,58144,41094
10718,58279,41305
10802,58385,41464
10864,58460,41574
10900,58503,41637
10915,58514,41655
10914,58501,41636
10897,58469,41582
10865,58419,41496
10819,58351,41384
10759,58268,41248
10686,58175,41092
10602,58072,40919
10512,57958,40737
10422,57839,40549
10332,57716,40359
10239,57589,40164
10141,57459,39962
10040,57330,39755
9937,57202,39547
9833,57074,39338
9727,56944,39132
9618,56810,38925
9501,56669,38711
9378,56522,38490
9253,56376,38269
9133,56232,38054
9021,56094,37847
8920,55965,37653
8830,55854,37482
8753,55759,37341
8695,55682,37231
8657,55627,37153
8637,55599,37109
8635,55598,37099
8649,55620,37121
8679,55662,37171
8726,55723,37247
8785,55798,37348
8852,55883,37466
8926,55974,37598
9007,56070,37743
9093,56166,37895
9180,56262,38053
9266,56360,38212
9349,56459,38369
9430,56556,38521
9505,56647,38661
9571,56731,38786
9628,56808,38896
9675,56874,38991
9711,56928,39065
9738,56970,39117
9754,56999,39148
9759,57014,39161
9756,57015,39156
9746,57005,39136
9727,56982,39101
9699,56946,39049
9663,56896,38980
9622,56835,38897
9575,56770,38806
9522,56701,38706
9465,56625,38597
9404,56544,38480
9341,56459,38356
9274,56370,38228
9206,56281,38096
9138,56192,37963
9071,56103,37829
8998,56011,37691
8922,55919,37553
8845,55829,37421
8771,55741,37294
8701,55655,37170
8633,55571,37046
8566,55489,36923
8497,55407,36803
8431,55327,36685
8367,55243,36567
8309,55162,36452
8257,55090,36346
8206,55023,36244
8155,54962,36144
8106,54905,36046
8057,54849,35951
8008,54792,35861
7961,54739,35779
7917,54689,35703
7875,54643,35633
7836,54602,35569
7802,54564,35512
7771,54531,35462
7743,54499,35417
7715,54466,35373
7687,54434,35330
7659,54408,35293
7635,54386,35262
7614,54365,35234
7598,54348,35207
7584,54335,35184
7570,54322,35162
7559,54312,35142
7555,54309,35128
7557,54310,35118
7560,54311,35109
7559,54306,35101
7554,54299,35096
7548,54294,35089
7542,54288,35080
7537,54279,35067
7533,54268,35050
7525,54258,35029
7509,54242,35002
7486,54221,34969
7457,54194,34933
7423,54161,34890
7385,54122,34837
7345,54078,34773
7303,54028,34703
7258,53974,34627
7212,53915,34546
7164,53852,34459
7115,53791,34370
7069,53736,34285
7023,53683,34201
6977,53633,34119
6933,53590,34045
6893,53552,33981
6857,53523,33930
6836,53508,33902
6834,53512,33906
6856,53540,33951
6909,53604,34052
7001,53714,34220
7134,53875,34458
7307,54087,34769
7513,54339,35144
7747,54624,35575
8009,54940,36054
8291,55277,36566
8580,55625,37093
8868,55974,37625
9149,56314,38151
9414,56638,38660
9663,56940,39138
9893,57219,39578
10103,57472,39973
10285,57692,40321
10439,57878,40617
10567,58032,40861
10672,58155,41058
10754,58249,41206
10810,58313,41305
10843,58348,41360
10855,58358,41379
10846,58345,41359
10819,58310,41300
10780,58256,41208
10729,58185,41089
10667,58098,40950
10598,58002,40795
