green_channel,red_channel,ir_channel
27642,13570,43278
27620,13545,43235
27608,13527,43199
27601,13517,43169
27580,13493,43124
27546,13456,43067
27513,13427,43020
27481,13402,42977
27439,13360,42914
27395,13310,42839
27363,13272,42775
27339,13244,42719
27308,13208,42654
27277,13171,42588
27258,13150,42542
27246,13137,42507
27228,13112,42464
27211,13086,42424
27205,13075,42403
27202,13071,42393
27191,13059,42376
27183,13052,42363
27187,13063,42368
27190,13075,42375
27184,13075,42369
27180,13076,42364
27188,13090,42379
27196,13100,42396
27198,13097,42400
27202,13097,42402
27213,13108,42414
27219,13114,42418
27213,13102,42402
27208,13090,42387
27211,13089,42383
27206,13080,42369
27190,13058,42339
27174,13037,42311
27159,13023,42292
27136,13000,42262
27109,12969,42216
27090,12948,42177
27074,12937,42146
27052,12918,42104
27028,12892,42054
27012,12875,42017
26999,12863,41994
26979,12839,41964
26955,12809,41925
26940,12793,41897
26931,12785,41877
26916,12768,41845
26898,12745,41806
26885,12731,41779
26874,12721,41757
26855,12698,41720
26837,12673,41680
26832,12664,41656
26829,12661,41640
26819,12646,41615
26809,12628,41593
26806,12622,41584
26802,12617,41573
26789,12600,41547
26773,12581,41524
26764,12576,41516
26754,12571,41506
26736,12554,41481
26723,12542,41462
26719,12545,41464
26711,12544,41464
26695,12530,41446
26683,12520,41432
26683,12527,41433
26680,12529,41428
26668,12520,41406
26661,12516,41387
26662,12525,41381
26660,12525,41367
26651,12511,41342
26645,12503,41327
26645,12509,41328
26638,12509,41322
26626,12498,41304
26623,12494,41293
26625,12495,41289
26618,12484,41269
26604,12463,41239
26598,12454,41223
26600,12458,41221
26599,12455,41211
26594,12445,41195
26595,12443,41191
26594,12439,41191
26584,12419,41176
26570,12393,41155
26562,12382,41146
26557,12380,41144
26547,12371,41132
26542,12364,41120
26551,12377,41126
26565,12399,41141
26572,12412,41153
26584,12425,41180
26614,12457,41238
26657,12503,41317
26709,12555,41410
26778,12629,41538
26872,12736,41714
26977,12857,41919
27089,12981,42141
27214,13119,42395
27353,13277,42681
27494,13435,42968
27628,13577,43236
27765,13716,43497
27901,13859,43750
28016,13983,43969
28105,14077,44140
28177,14158,44279
28234,14230,44392
28265,14271,44460
28273,14280,44481
28270,14282,44485
28262,14283,44478
28241,14265,44443
28208,14226,44382
28178,14189,44324
28151,14157,44268
28115,14111,44189
28077,14058,44098
28050,14022,44023
28030,14000,43963
28003,13965,43895
27971,13923,43825
27947,13893,43771
27925,13871,43728
27896,13837,43676
27866,13798,43621
27844,13774,43581
27822,13756,43547
27793,13724,43496
27766,13688,43438
27750,13665,43393
27733,13643,43349
27707,13608,43288
27682,13571,43219
27665,13547,43161
27644,13521,43101
27611,13483,43029
27580,13448,42959
27556,13427,42906
27528,13406,42855
27498,13374,42797
27474,13348,42750
27459,13336,42722
27441,13322,42696
27421,13299,42662
27408,13285,42644
27406,13287,42650
27404,13288,42655
27401,13282,42651
27407,13283,42660
27420,13293,42683
27428,13296,42696
27430,13291,42699
27436,13295,42710
27444,13305,42731
27446,13304,42737
27445,13292,42730
27449,13290,42731
27454,13298,42738
27448,13295,42728
27437,13281,42703
27430,13272,42686
27421,13264,42672
27402,13243,42644
27379,13219,42609
27365,13211,42585
27352,13206,42563
27329,13186,42524
27303,13159,42478
27285,13143,42441
27269,13131,42403
27249,13108,42348
27234,13085,42293
27226,13072,42255
27214,13056,42217
27195,13026,42167
27179,12993,42118
27168,12969,42080
27149,12941,42043
27120,12901,41996
27091,12866,41956
27069,12849,41931
27046,12831,41902
27017,12805,41859
26993,12784,41821
26975,12773,41793
26954,12756,41759
26932,12731,41718
26918,12716,41689
26912,12715,41679
26907,12709,41664
26901,12693,41639
26902,12683,41626
26906,12683,41628
26904,12676,41623
26898,12662,41605
26900,12658,41594
26904,12664,41588
26895,12660,41570
26877,12645,41543
26862,12637,41530
26852,12638,41522
26838,12630,41502
26825,12613,41475
26822,12605,41462
26819,12602,41452
26806,12585,41427
26789,12564,41397
26782,12558,41381
26780,12560,41373
26776,12551,41355
26774,12541,41338
26782,12545,41339
26787,12554,41343
26778,12547,41335
26765,12534,41324
26758,12528,41322
26750,12521,41314
26735,12502,41288
26723,12486,41264
26720,12480,41256
26715,12469,41245
26701,12445,41219
26691,12427,41198
26689,12427,41191
26685,12424,41180
26678,12410,41157
26676,12406,41147
26682,12415,41156
26685,12420,41166
26684,12418,41172
26695,12433,41198
26717,12471,41255
26745,12516,41325
26782,12568,41414
26844,12649,41549
26928,12759,41732
27023,12879,41944
27131,13006,42182
27264,13159,42465
27413,13329,42780
27562,13495,43091
27712,13653,43390
27868,13818,43685
28018,13979,43960
28148,14109,44189
28255,14212,44378
28347,14304,44541
28421,14378,44669
28469,14417,44748
28497,14433,44789
28516,14447,44816
28520,14450,44821
28500,14425,44787
28471,14389,44734
28445,14360,44680
28412,14328,44618
28365,14280,44537
28315,14232,44457
28271,14196,44389
28225,14157,44316
28174,14105,44227
28132,14055,44146
28105,14025,44092
28078,14000,44043
28049,13969,43987
28028,13947,43940
28018,13940,43910
28004,13927,43875
27985,13902,43829
27972,13884,43792
27967,13878,43767
27955,13864,43732
27934,13838,43683
27916,13815,43636
27900,13800,43592
27872,13771,43531
27837,13730,43453
27808,13696,43384
27784,13671,43325
27753,13633,43258
27718,13587,43189
27692,13554,43135
27670,13530,43092
27640,13498,43040
27607,13462,42984
27584,13440,42943
27569,13428,42918
27550,13410,42889
27534,13396,42863
27535,13405,42862
27543,13426,42877
27544,13433,42883
27545,13433,42888
27558,13446,42909
27574,13464,42932
27582,13468,42938
27590,13471,42939
27606,13484,42952
27619,13494,42962
27622,13488,42956
27629,13481,42949
27641,13483,42951
27643,13480,42947
27630,13460,42925
27619,13439,42899
27617,13428,42880
27612,13412,42853
27600,13384,42812
27589,13363,42776
27581,13355,42750
27564,13338,42713
27536,13304,42657
27512,13275,42607
27495,13255,42568
27473,13226,42520
27445,13186,42462
27422,13158,42415
27405,13141,42380
27379,13113,42335
27350,13078,42283
27332,13055,42245
27322,13042,42218
27304,13019,42176
27284,12991,42124
27274,12979,42090
27272,12975,42068
27260,12959,42038
27245,12938,42004
27237,12932,41985
27230,12931,41971
27213,12915,41941
27193,12894,41905
27183,12891,41883
27177,12892,41867
27164,12876,41839
27153,12854,41813
27151,12844,41802
27148,12834,41787
27131,12809,41754
27109,12781,41721
27093,12767,41704
27077,12757,41687
27056,12739,41657
27040,12728,41632
27036,12729,41627
27030,12725,41618
27017,12706,41596
27010,12694,41580
27014,12696,41580
27018,12695,41573
27016,12684,41552
27017,12677,41535
27021,12679,41531
27015,12672,41519
27004,12655,41497
27002,12646,41483
27003,12644,41476
26993,12629,41455
26975,12604,41422
26967,12590,41402
26969,12590,41394
26967,12582,41373
26962,12566,41344
26961,12557,41326
26958,12555,41318
26942,12542,41300
26921,12524,41278
26910,12521,41269
26903,12525,41268
26892,12519,41256
26881,12510,41242
26882,12516,41244
26888,12528,41255
26894,12527,41260
26905,12528,41279
26932,12552,41334
26971,12597,41417
27015,12653,41517
27075,12731,41654
27162,12844,41847
27268,12978,42081
27387,13116,42341
27529,13274,42637
27696,13463,42974
27867,13656,43317
28029,13833,43639
28188,14002,43946
28343,14168,44239
28477,14310,44491
28584,14420,44689
28672,14512,44850
28746,14590,44982
28796,14641,45070
28821,14664,45114
28834,14679,45139
28834,14688,45146
28814,14671,45117
28780,14632,45055
28744,14591,44987
28708,14555,44919
28660,14506,44835
28602,14445,44740
28551,14393,44656
28503,14353,44583
28447,14305,44505
28394,14252,44427
28356,14215,44372
28329,14192,44335
28303,14163,44294
28284,14136,44252
28280,14129,44226
28281,14132,44208
28273,14123,44177
28260,14103,44139
28252,14088,44114
28242,14073,44088
28220,14044,44042
28194,14010,43989
28173,13980,43943
28146,13945,43885
28106,13896,43803
28066,13851,43717
28032,13819,43644
27994,13784,43572
27952,13733,43487
27916,13686,43407
27892,13656,43344
27870,13630,43283
27846,13598,43214
27832,13574,43157
27827,13564,43123
27815,13554,43093
27793,13533,43060
27776,13520,43045
27771,13522,43050
27767,13519,43050
27760,13510,43042
27763,13513,43050
27772,13529,43070
27771,13536,43079
27762,13532,43076
27759,13537,43082
27758,13546,43092
27750,13540,43086
27742,13522,43068
27745,13516,43060
27752,13517,43058
27751,13506,43040
27746,13485,43011
27745,13474,42990
27739,13467,42973
27716,13444,42938
27688,13414,42891
27669,13397,42852
27653,13385,42819
27631,13362,42775
27609,13335,42724
27593,13318,42681
27573,13300,42637
27539,13266,42577
27503,13230,42517
27476,13205,42474
27451,13179,42430
27420,13138,42374
27394,13098,42325
27378,13074,42292
27361,13051,42255
27336,13019,42205
27319,12996,42165
27313,12990,42142
27307,12981,42114
27298,12963,42075
27296,12955,42047
27299,12960,42037
27294,12957,42020
27278,12941,41986
27264,12930,41958
27252,12931,41941
27232,12919,41914
27204,12891,41877
27185,12871,41856
27175,12862,41848
27157,12844,41829
27136,12818,41801
27126,12805,41787
27120,12803,41782
27104,12788,41761
27086,12763,41729
27079,12751,41708
27079,12750,41695
27076,12737,41669
27071,12723,41640
27075,12722,41627
27078,12727,41618
27071,12716,41594
27060,12700,41567
27057,12694,41554
27056,12687,41546
27044,12664,41525
27028,12640,41505
27016,12631,41503
27000,12623,41499
26975,12604,41479
26955,12587,41460
26947,12583,41453
26940,12577,41441
26927,12558,41418
26917,12541,41398
26914,12538,41388
26910,12533,41371
26900,12520,41342
26895,12512,41320
26896,12515,41312
26891,12511,41298
26877,12491,41268
26869,12474,41244
26872,12472,41237
26874,12470,41228
26872,12465,41213
26879,12475,41219
26900,12506,41253
26926,12540,41297
26959,12579,41358
27009,12640,41463
27078,12727,41611
27156,12820,41781
27245,12925,41979
27359,13064,42228
27493,13229,42523
27632,13395,42834
27774,13557,43150
27927,13729,43478
28082,13898,43795
28221,14040,44070
28347,14161,44307
28466,14277,44521
28567,14379,44703
28639,14447,44833
28691,14491,44924
28736,14526,44996
28764,14544,45031
28763,14534,45018
28746,14511,44978
28722,14493,44933
28683,14467,44872
28626,14417,44783
28568,14361,44687
28517,14316,44603
28460,14267,44516
28394,14203,44418
28339,14144,44329
28300,14103,44263
28265,14066,44199
28230,14026,44131
28208,14000,44080
28199,13992,44048
28182,13979,44011
28155,13949,43963
28132,13924,43926
28116,13912,43903
28092,13891,43868
28064,13859,43819
28044,13836,43776
28028,13820,43738
28003,13788,43681
27969,13743,43606
27941,13705,43538
27918,13673,43477
27888,13631,43402
27851,13581,43320
27820,13546,43252
27791,13518,43193
27751,13478,43122
27710,13434,43047
27681,13408,42994
27661,13395,42958
27639,13376,42919
27622,13358,42887
27619,13359,42881
27621,13363,42883
27617,13353,42873
27614,13343,42864
27620,13351,42872
27628,13361,42884
27629,13358,42882
27633,13357,42881
27645,13370,42896
27655,13383,42911
27657,13384,42911
27662,13383,42911
27667,13387,42920
27662,13382,42916
27643,13360,42890
27623,13337,42862
27609,13322,42840
27588,13299,42808
27561,13268,42761
27542,13248,42722
27535,13239,42695
27525,13222,42657
27509,13193,42605
27499,13173,42561
27496,13162,42526
27481,13140,42478
27456,13106,42421
27436,13081,42378
27420,13061,42343
27395,13025,42294
27362,12981,42236
27340,12955,42194
27324,12940,42161
27301,12915,42113
27277,12884,42061
27266,12867,42026
27259,12858,42001
27240,12834,41961
27222,12808,41917
27215,12796,41889
27209,12790,41866
27190,12770,41830
27168,12745,41791
27157,12737,41766
27150,12733,41745
27139,12715,41712
27130,12693,41679
27128,12683,41662
27121,12671,41648
27102,12645,41621
27085,12621,41598
27074,12610,41589
27060,12600,41575
27039,12577,41545
27022,12558,41522
27016,12556,41519
27006,12550,41513
26987,12533,41490
26974,12522,41473
26970,12524,41469
26963,12522,41457
26951,12510,41432
26945,12505,41417
26946,12512,41416
26940,12513,41409
26931,12507,41391
26930,12512,41383
26934,12525,41388
26932,12527,41382
26924,12515,41367
26922,12511,41361
26923,12514,41363
26914,12503,41350
26901,12480,41325
26894,12468,41309
26890,12463,41299
26880,12446,41276
26869,12423,41248
26864,12409,41233
26858,12401,41221
26842,12382,41197
26825,12361,41175
26818,12358,41169
26812,12358,41165
26801,12346,41149
26794,12337,41135
26801,12346,41141
26814,12361,41155
26830,12371,41168
26856,12394,41201
26901,12444,41272
26953,12506,41370
27008,12571,41484
27080,12658,41638
27177,12776,41843
27286,12907,42079
27399,13036,42327
27528,13178,42603
27670,13340,42906
27806,13498,43203
27932,13635,43474
28055,13768,43729
28176,13901,43968
28280,14010,44167
28362,14089,44319
28430,14157,44441
28484,14212,44536
28512,14237,44584
28519,14236,44591
28517,14230,44581
28503,14219,44558
28469,14185,44501
28423,14133,44416
28383,14086,44333
28347,14045,44253
28300,13992,44158
28251,13934,44058
28215,13892,43975
28185,13860,43902
28147,13821,43822
28108,13783,43744
28081,13764,43688
28061,13752,43644
28034,13730,43593
28011,13708,43543
28000,13700,43510
27989,13689,43479
27969,13656,43429
27945,13615,43377
27926,13585,43337
27899,13551,43290
27859,13501,43222
27819,13453,43149
27789,13418,43082
27759,13380,43009
27725,13332,42924
27696,13293,42849
27677,13273,42794
27653,13249,42739
27621,13215,42677
27596,13189,42629
27584,13182,42602
27569,13173,42573
27550,13155,42536
27539,13143,42513
27536,13144,42507
27529,13138,42495
27520,13123,42481
27521,13123,42485
27528,13136,42503
27527,13136,42509
27519,13127,42507
27522,13131,42518
27532,13141,42537
27534,13139,42540
27529,13132,42531
27531,13137,42529
27535,13145,42526
27531,13134,42502
27524,13110,42470
27525,13096,42450
27529,13085,42434
27525,13064,42402
27519,13042,42365
27519,13034,42340
27514,13026,42315
27498,12999,42273
27480,12966,42228
27467,12945,42198
27448,12927,42168
27418,12899,42126
27389,12877,42085
27370,12872,42057
27349,12864,42024
27320,12838,41976
27295,12814,41931
27278,12807,41902
27258,12795,41869
27234,12771,41822
27215,12749,41782
27206,12734,41755
27197,12712,41722
27183,12679,41679
27173,12657,41649
27168,12647,41635
27156,12633,41614
27142,12613,41584
27138,12605,41564
27138,12609,41558
27128,12605,41542
27110,12589,41515
27100,12582,41498
27094,12582,41491
27080,12570,41473
27062,12550,41447
27052,12540,41431
27046,12537,41422
27034,12522,41401
27020,12503,41377
27013,12496,41368
27009,12495,41366
26998,12481,41349
26987,12463,41329
26985,12462,41324
26984,12463,41322
26976,12446,41302
26965,12423,41279
26961,12414,41269
26955,12407,41260
26939,12389,41238
26925,12375,41220
26921,12377,41220
26916,12379,41218
26904,12366,41198
26897,12355,41180
26899,12359,41177
26895,12361,41174
26886,12351,41161
26884,12346,41153
26891,12355,41157
26895,12360,41153
26890,12352,41134
26888,12349,41122
26890,12357,41121
26886,12359,41107
26878,12348,41077
26875,12341,41054
26880,12343,41046
26879,12338,41031
26872,12323,41007
26873,12316,40996
26881,12323,41003
26883,12326,41012
26887,12331,41034
26907,12360,41094
26943,12412,41189
26989,12470,41299
27048,12537,41434
27133,12634,41619
27238,12756,41848
27351,12882,42093
27473,13017,42357
27612,13179,42652
27756,13351,42957
27890,13510,43242
28018,13656,43506
28144,13801,43753
28259,13930,43965
28348,14023,44124
28416,14091,44240
28471,14146,44332
28501,14176,44388
28502,14172,44396
28491,14155,44378
28474,14141,44351
28444,14115,44304
28398,14069,44224
28347,14020,44134
28300,13976,44046
28246,13921,43952
28185,13852,43847
28127,13794,43754
28078,13752,43679
28031,13711,43602
27987,13664,43521
27958,13630,43457
27941,13610,43416
27919,13583,43373
27891,13546,43322
27874,13522,43287
27867,13511,43264
27860,13496,43230
27853,13477,43183
27853,13470,43146
27854,13470,43116
27843,13453,43069
27822,13421,43008
27804,13394,42952
27783,13367,42898
27751,13326,42826
27716,13280,42747
27686,13250,42685
27658,13230,42634
27626,13199,42578
27595,13165,42522
27572,13143,42483
27552,13125,42451
27531,13100,42412
27516,13081,42380
27516,13079,42372
27521,13080,42371
27522,13071,42359
27527,13068,42354
27542,13083,42368
27554,13099,42382
27558,13101,42384
27565,13103,42394
27579,13116,42420
27588,13121,42437
27586,13109,42433
27585,13101,42429
27591,13108,42438
27589,13108,42437
27573,13093,42418
27561,13084,42401
27557,13088,42390
27546,13080,42365
27527,13057,42328
27517,13040,42299
27514,13033,42277
27505,13016,42244
27490,12989,42199
27484,12976,42165
27484,12974,42143
27476,12960,42107
27460,12933,42060
27449,12918,42022
27442,12913,41991
27428,12897,41946
27410,12873,41895
27401,12860,41863
27390,12851,41839
27366,12826,41802
27336,12795,41758
27315,12777,41727
27295,12763,41697
27267,12736,41654
27239,12706,41609
27222,12687,41579
27209,12670,41553
27188,12643,41514
27168,12616,41476
27160,12604,41451
27157,12596,41430
27151,12578,41399
27148,12564,41377
27152,12568,41374
27153,12572,41373
27144,12561,41359
27135,12548,41347
27131,12547,41343
27122,12543,41330
27107,12527,41301
27097,12517,41280
27096,12519,41274
27094,12516,41264
27087,12502,41245
27082,12493,41234
27080,12493,41235
27071,12486,41224
27052,12469,41197
27038,12457,41175
27029,12454,41160
27017,12444,41138
27005,12426,41111
27006,12416,41100
27013,12416,41098
27011,12405,41082
27000,12388,41058
26994,12383,41049
26992,12386,41051
26983,12375,41039
26973,12355,41016
26971,12347,41005
26969,12346,41003
26954,12334,40990
26937,12318,40971
26929,12314,40965
26925,12317,40961
26913,12305,40942
26903,12288,40921
26902,12280,40913
26901,12269,40904
26889,12246,40879
26875,12228,40857
26868,12225,40851
26857,12219,40843
26837,12198,40820
26822,12182,40805
26822,12189,40813
26828,12205,40831
26841,12221,40853
26870,12258,40905
26919,12326,40998
26976,12403,41115
27039,12480,41252
27121,12577,41430
27228,12704,41656
27346,12841,41906
27471,12981,42175
27613,13139,42476
27769,13312,42798
27919,13473,43104
28057,13615,43380
28188,13753,43640
28305,13883,43873
28393,13986,44055
28453,14057,44188
28502,14115,44294
28538,14160,44368
28549,14174,44390
28540,14161,44369
28526,14144,44333
28503,14120,44283
28460,14073,44205
28410,14016,44113
28369,13970,44032
28327,13927,43953
28276,13872,43860
28230,13816,43767
28199,13780,43692
28173,13755,43623
28141,13719,43547
28111,13683,43481
28092,13665,43441
28075,13651,43411
28050,13627,43371
28030,13607,43338
28021,13602,43321
28011,13590,43302
27989,13561,43265
27968,13534,43226
27954,13520,43196
27931,13501,43157
27896,13467,43098
27862,13436,43041
27838,13415,42992
27809,13384,42932
27773,13338,42855
27741,13300,42788
27717,13275,42735
27690,13241,42673
27657,13192,42599
27629,13154,42540
27607,13131,42496
27579,13101,42445
27549,13066,42388
27531,13051,42353
27528,13053,42340
27524,13046,42326
27517,13032,42308
27515,13031,42304
27516,13038,42307
27511,13037,42298
27507,13032,42283
27514,13040,42284
27526,13055,42294
27528,13054,42292
27529,13042,42280
27539,13039,42278
27552,13036,42278
27555,13020,42262
27551,13005,42244
27545,13003,42241
27534,12998,42235
27510,12977,42208
27482,12951,42173
27464,12935,42145
27449,12919,42112
27430,12890,42064
27413,12862,42021
27403,12849,41992
27387,12832,41957
27359,12801,41906
27336,12773,41860
27320,12756,41829
27300,12735,41795
27273,12702,41749
27254,12677,41712
27245,12664,41690
27232,12646,41665
27215,12621,41628
27204,12606,41602
27199,12602,41589
27181,12587,41564
27156,12561,41525
27138,12543,41494
27128,12530,41472
27111,12507,41435
27092,12479,41387
27084,12464,41351
27078,12457,41327
27063,12441,41297
27042,12420,41264
27028,12412,41244
27017,12413,41232
27003,12402,41206
26992,12385,41177
26993,12380,41166
26998,12382,41164
26993,12373,41150
26986,12360,41131
26986,12362,41124
26985,12367,41119
26977,12357,41103
26972,12349,41090
26977,12357,41096
26983,12365,41101
26979,12359,41090
26975,12353,41081
26977,12359,41089
26974,12359,41092
26961,12341,41078
26950,12325,41066
26947,12322,41065
26936,12315,41053
26916,12296,41023
26902,12281,40999
26899,12278,40988
26893,12267,40970
26881,12243,40942
26875,12228,40925
26876,12227,40922
26871,12221,40913
26860,12210,40893
26855,12212,40881
26859,12225,40878
26858,12226,40863
26852,12219,40842
26850,12222,40838
26850,12232,40844
26840,12229,40839
26825,12216,40826
26817,12212,40823
26812,12211,40826
26799,12194,40813
26783,12171,40791
26777,12163,40783
26776,12163,40783
26766,12152,40775
26756,12142,40773
26762,12153,40801
26780,12182,40852
26803,12215,40913
26844,12265,41001
26910,12346,41137
26988,12444,41306
27074,12545,41493
27177,12662,41710
27301,12805,41966
27432,12955,42238
27559,13096,42504
27688,13236,42770
27818,13379,43037
27935,13510,43279
28031,13618,43481
28116,13717,43656
28192,13808,43809
28244,13871,43918
28271,13899,43978
28285,13913,44012
28293,13921,44027
28283,13906,44001
28255,13866,43932
28225,13827,43855
28199,13795,43780
28163,13748,43692
28116,13687,43591
28074,13635,43500
28034,13589,43416
27985,13529,43322
27935,13463,43225
27901,13416,43150
27878,13387,43094
27851,13356,43038
27827,13329,42986
27818,13322,42955
27813,13323,42934
27800,13310,42903
27785,13290,42866
27774,13281,42841
27760,13277,42821
27734,13259,42784
27705,13235,42738
27685,13218,42700
27663,13194,42658
27632,13151,42599
27601,13107,42538
27578,13077,42486
27551,13048,42430
27514,13008,42361
27481,12972,42297
27458,12952,42251
27432,12931,42205
27399,12898,42148
27371,12871,42100
27355,12858,42069
27338,12843,42035
27318,12816,41993
27309,12799,41965
27311,12799,41958
27310,12795,41953
27303,12781,41942
27300,12776,41943
27304,12783,41957
27304,12785,41962
27300,12779,41956
27302,12784,41960
27310,12798,41976
27314,12802,41984
27318,12799,41981
27331,12807,41987
27344,12822,41995
27342,12822,41983
27334,12809,41954
27333,12801,41934
27334,12797,41922
27320,12778,41894
27298,12751,41856
27283,12734,41826
27269,12721,41799
27248,12694,41756
27228,12661,41709
27215,12639,41672
27204,12620,41638
27187,12594,41594
27173,12572,41552
27168,12561,41524
27160,12548,41496
27142,12524,41453
27123,12504,41415
27112,12499,41392
27099,12493,41366
27078,12472,41326
27060,12452,41291
27049,12445,41274
27035,12431,41252
27014,12403,41214
27000,12382,41181
26998,12377,41165
26995,12368,41144
26987,12346,41111
26985,12333,41087
26990,12333,41079
26986,12325,41067
26976,12305,41043
26973,12294,41028
26976,12293,41024
26970,12281,41010
26957,12260,40987
26948,12250,40975
26943,12251,40977
26929,12243,40972
26910,12226,40957
26901,12220,40952
26894,12221,40953
26879,12209,40942
26861,12192,40921
26852,12189,40911
26847,12194,40906
26835,12187,40885
26822,12177,40858
26816,12176,40844
26810,12177,40835
26796,12165,40815
26781,12150,40793
26774,12146,40786
26768,12142,40781
26755,12126,40764
26744,12111,40749
26743,12109,40750
26743,12107,40748
26738,12096,40730
26736,12090,40715
26740,12098,40715
26742,12100,40710
26735,12086,40690
26728,12076,40673
26726,12076,40670
26718,12069,40660
26705,12049,40637
26699,12034,40621
26702,12031,40619
26701,12023,40611
26692,12003,40589
26687,11993,40578
26690,11999,40581
26689,12001,40575
26685,11995,40565
26695,12004,40579
26721,12033,40620
26746,12063,40669
26777,12094,40733
26826,12149,40834
26889,12227,40968
26953,12310,41117
27024,12399,41286
27114,12514,41492
27216,12644,41721
27315,12770,41945
27413,12894,42168
27521,13028,42405
27628,13157,42635
27719,13257,42833
27800,13337,43001
27876,13414,43153
27937,13481,43275
27972,13517,43351
27993,13532,43395
28007,13542,43422
28008,13541,43421
27991,13521,43384
27968,13496,43330
27945,13474,43276
27915,13437,43208
27871,13378,43117
27827,13318,43026
27790,13274,42947
27749,13229,42863
27704,13173,42768
27670,13130,42686
27648,13108,42630
27623,13088,42576
27592,13061,42519
27571,13045,42480
27561,13043,42459
27549,13032,42427
27530,13008,42379
27519,12991,42341
27515,12986,42318
27507,12972,42286
27492,12945,42242
27479,12926,42207
27465,12912,42176
27439,12884,42128
27408,12845,42066
27384,12815,42011
27360,12788,41960
27324,12746,41894
27284,12696,41823
27254,12661,41770
27229,12634,41728
27202,12602,41680
27178,12574,41639
27167,12565,41620
27162,12563,41611
27156,12552,41593
27153,12543,41579
27162,12549,41583
27172,12560,41588
27173,12562,41578
27175,12565,41572
27182,12584,41586
27185,12602,41599
27179,12603,41594
27177,12603,41590
27185,12614,41600
27189,12619,41606
27185,12611,41598
27185,12606,41591
27193,12609,41596
27195,12604,41594
27185,12587,41576
27178,12575,41562
27178,12574,41556
27171,12563,41535
27158,12539,41496
27151,12524,41463
27150,12518,41440
27141,12501,41407
27129,12478,41364
27127,12467,41333
27129,12462,41313
27121,12445,41284
27103,12417,41246
27088,12399,41219
27073,12388,41201
27050,12365,41170
27025,12336,41133
27006,12319,41108
26988,12308,41090
26963,12285,41058
26938,12256,41021
26924,12239,40998
26915,12230,40980
26901,12213,40948
26890,12193,40914
26888,12187,40895
26884,12184,40880
26872,12169,40855
26861,12153,40832
26856,12151,40823
26848,12148,40813
26832,12131,40789
26819,12116,40769
26814,12116,40768
26808,12115,40767
26796,12104,40754
26789,12098,40748
26790,12105,40756
26785,12106,40756
26771,12092,40739
26765,12083,40730
26768,12091,40733
26768,12093,40725
26759,12080,40700
26753,12072,40685
26750,12076,40685
26742,12071,40677
26731,12056,40661
26731,12053,40656
26738,12057,40659
26737,12047,40648
26730,12023,40630
26727,12009,40625
26726,12005,40627
26716,11992,40614
26703,11974,40592
26699,11967,40581
26696,11966,40575
26681,11953,40555
26664,11935,40527
26655,11933,40512
26651,11938,40505
26639,11931,40487
26627,11923,40469
26623,11930,40468
26622,11939,40468
26614,11931,40450
26608,11918,40431
26612,11919,40428
26618,11924,40432
26620,11921,40430
26627,11925,40436
26644,11950,40465
26665,11983,40508
26684,12010,40557
26718,12052,40633
26773,12120,40746
26835,12196,40881
26898,12268,41027
26973,12355,41199
27060,12462,41396
27146,12567,41596
27228,12662,41789
27320,12764,41993
27418,12876,42204
27506,12973,42393
27583,13052,42551
27659,13132,42695
27729,13211,42823
27777,13264,42910
27804,13290,42958
27824,13311,42990
27837,13329,43007
27831,13323,42988
27811,13298,42943
27791,13273,42898
27765,13246,42846
27721,13199,42768
27668,13141,42675
27621,13095,42594
27579,13055,42518
27534,13002,42428
27492,12946,42336
27461,12909,42266
27433,12881,42206
27401,12841,42138
27374,12804,42075
27362,12788,42037
27353,12779,42004
27337,12756,41960
27324,12732,41921
27318,12720,41897
27309,12707,41868
27290,12679,41816
27271,12655,41762
27260,12644,41722
27244,12626,41676
27220,12593,41616
27199,12564,41563
27185,12550,41526
27162,12530,41486
27130,12499,41434
27108,12477,41391
27100,12472,41369
27091,12465,41346
27079,12450,41317
27075,12445,41305
27080,12452,41310
27085,12451,41309
27088,12441,41299
27096,12444,41301
27109,12463,41317
27116,12472,41324
27119,12470,41319
27130,12477,41325
27142,12494,41342
27143,12499,41348
27141,12497,41347
27147,12505,41357
27155,12516,41371
27155,12509,41367
27148,12489,41349
27144,12478,41336
27139,12470,41324
27128,12452,41297
27117,12430,41265
27115,12423,41245
27111,12419,41226
27098,12401,41193
27084,12380,41161
27074,12373,41143
27061,12368,41123
27039,12350,41087
27021,12333,41052
27013,12330,41031
26997,12327,41009
26971,12311,40975
26951,12297,40947
26941,12293,40934
26931,12281,40917
26917,12254,40885
26909,12230,40860
26906,12217,40848
26897,12199,40827
26882,12172,40792
26871,12158,40760
26866,12161,40740
26857,12159,40715
26845,12144,40686
26843,12137,40674
26848,12141,40676
26847,12133,40666
26841,12112,40644
26841,12102,40632
26845,12100,40630
26841,12087,40615
26834,12069,40594
26836,12068,40591
26842,12077,40600
26839,12071,40594
26831,12054,40576
26830,12048,40567
26830,12051,40564
26823,12046,40547
26815,12041,40525
26817,12048,40519
26820,12058,40518
26815,12054,40503
26809,12047,40484
26809,12052,40480
26808,12057,40479
26803,12050,40466
26803,12042,40457
26811,12045,40465
26815,12049,40472
26809,12041,40461
26802,12033,40450
26800,12036,40449
26792,12035,40442
26775,12017,40420
26762,12000,40404
26760,11995,40404
26757,11986,40397
26748,11966,40375
26742,11953,40359
26741,11952,40357
26734,11946,40347
26721,11931,40324
26714,11923,40310
26713,11923,40306
26701,11913,40289
26681,11889,40259
26670,11873,40240
26668,11870,40232
26662,11861,40213
26654,11851,40192
26659,11860,40197
26671,11884,40226
26678,11903,40258
26689,11924,40302
26725,11973,40380
26782,12049,40495
26846,12129,40629
26922,12219,40785
27018,12336,40982
27124,12466,41204
27228,12588,41425
27336,12709,41652
27457,12843,41899
27576,12975,42146
27677,13086,42365
27766,13184,42564
27851,13282,42749
27921,13363,42899
27969,13412,43001
28005,13444,43073
28034,13469,43128
28042,13475,43147
28028,13455,43121
28008,13427,43076
27988,13405,43025
27959,13371,42958
27916,13318,42874
27872,13268,42794
27829,13229,42723
27782,13185,42642
27735,13133,42547
27700,13090,42462
27674,13060,42395
27643,13027,42326
27612,12990,42257
27593,12973,42210
27583,12972,42184
27568,12967,42155
27551,12955,42122
27548,12952,42107
27553,12959,42104
27551,12953,42089
27541,12935,42063
27536,12925,42044
27531,12916,42025
27512,12891,41982
27485,12856,41923
27461,12829,41872
27441,12808,41822
27411,12775,41759
27378,12738,41696
27353,12714,41654
27330,12693,41618
27299,12662,41572
27272,12633,41530
27259,12622,41508
27249,12616,41491
27236,12602,41461
27227,12589,41433
27230,12589,41425
27234,12589,41420
27230,12580,41406
27233,12578,41400
27245,12589,41410
27250,12598,41418
27246,12593,41413
27246,12592,41416
27251,12602,41432
27251,12602,41438
27244,12588,41427
27243,12578,41418
27246,12577,41418
27238,12568,41406
27223,12548,41385
27212,12537,41372
27208,12534,41365
27197,12518,41341
27181,12491,41304
27169,12476,41276
27161,12474,41260
27150,12464,41236
27136,12445,41202
27127,12435,41178
27120,12433,41159
27101,12420,41124
27077,12399,41081
27063,12388,41050
27052,12381,41025
27033,12360,40988
27014,12333,40950
27005,12321,40928
26998,12314,40912
26980,12295,40879
26959,12273,40841
26945,12262,40817
26933,12252,40795
26915,12226,40760
26900,12200,40728
26894,12192,40716
26889,12186,40709
26878,12169,40690
26874,12156,40675
26879,12158,40672
26879,12156,40666
26869,12141,40648
26861,12130,40635
26858,12133,40632
26852,12132,40620
26840,12119,40593
26835,12112,40572
26837,12117,40566
26835,12116,40555
26828,12103,40533
26823,12098,40522
26824,12104,40524
26814,12097,40517
26792,12074,40498
26770,12058,40491
26754,12055,40493
26738,12045,40482
26726,12028,40462
26725,12023,40459
26731,12026,40467
26730,12017,40461
26727,12003,40449
26734,12005,40449
26744,12015,40454
26744,12014,40442
26741,12007,40422
26743,12010,40414
26745,12013,40411
26737,12000,40393
26723,11981,40369
26715,11978,40359
26705,11978,40355
26688,11962,40339
26673,11946,40322
26667,11944,40316
26658,11943,40306
26644,11928,40281
26636,11913,40256
26636,11913,40245
26630,11912,40234
26615,11897,40213
26608,11887,40202
26612,11893,40210
26616,11900,40220
26617,11901,40228
26625,11916,40254
26647,11952,40310
26682,11993,40383
26732,12041,40472
26801,12116,40603
26884,12222,40785
26974,12334,40991
27069,12442,41206
27178,12564,41445
27299,12701,41705
27414,12832,41958
27522,12955,42197
27632,13086,42433
27740,13217,42657
27828,13319,42841
27895,13391,42987
27952,13451,43111
27999,13497,43202
28027,13516,43236
28037,13518,43233
28033,13521,43221
28013,13517,43194
27973,13486,43135
27928,13442,43060
27894,13405,42987
27863,13369,42911
27827,13319,42820
27790,13265,42730
27759,13221,42653
27728,13180,42583
27695,13132,42508
27670,13093,42446
27655,13074,42410
27639,13057,42381
27617,13031,42344
27601,13012,42318
27594,13009,42312
27583,13002,42305
27567,12981,42283
27557,12965,42262
27554,12961,42250
27545,12951,42223
27527,12926,42174
27512,12904,42127
27496,12888,42088
27465,12857,42034
27422,12811,41963
27387,12777,41901
27363,12754,41850
27335,12723,41789
27300,12683,41721
27274,12654,41668
27258,12638,41631
27239,12615,41586
27219,12587,41537
27209,12572,41509
27204,12565,41494
27190,12550,41471
27177,12534,41449
27176,12536,41448
27181,12548,41456
27181,12549,41453
27180,12546,41451
27184,12555,41466
27186,12566,41485
27179,12561,41486
27169,12555,41481
27165,12561,41486
27158,12566,41490
27143,12550,41477
27128,12529,41461
27123,12524,41457
27116,12523,41449
27104,12511,41421
27097,12497,41386
27099,12485,41363
27093,12461,41336
27070,12422,41293
27049,12390,41251
27037,12376,41220
27021,12359,41184
26998,12329,41137
26981,12305,41099
26973,12295,41079
26959,12281,41052
26939,12257,41011
26925,12239,40979
26914,12232,40959
26895,12218,40929
26872,12196,40891
26856,12185,40866
26849,12185,40854
26836,12180,40832
26818,12169,40801
26810,12167,40779
26807,12170,40765
26796,12161,40738
26778,12142,40706
26767,12130,40690
26761,12123,40681
26748,12103,40660
26734,12077,40636
26728,12062,40628
26722,12051,40624
26704,12026,40604
26683,12000,40579
26673,11992,40569
26667,11991,40566
26656,11983,40553
26647,11976,40543
26645,11982,40550
26640,11987,40555
26627,11977,40544
26614,11965,40532
26608,11965,40532
26599,11963,40526
26583,11949,40504
26570,11938,40485
26566,11938,40481
26560,11936,40473
26547,11924,40454
26537,11916,40441
26532,11917,40443
26521,11910,40436
26504,11890,40411
26492,11877,40392
26491,11878,40388
26488,11872,40380
26480,11856,40362
26478,11848,40353
26478,11850,40352
26467,11840,40335
26450,11818,40305
26442,11807,40288
26444,11808,40283
26438,11798,40266
26428,11778,40243
26428,11770,40237
26432,11772,40242
26427,11762,40234
26418,11745,40217
26420,11742,40218
26428,11750,40231
26429,11749,40238
26431,11751,40248
26448,11776,40285
26472,11813,40336
26496,11849,40390
26532,11897,40471
26591,11974,40598
26660,12066,40752
26729,12155,40912
26809,12251,41090
26904,12368,41298
27003,12488,41516
27095,12595,41724
27192,12703,41931
27294,12815,42142
27383,12913,42330
27453,12985,42476
27512,13048,42600
27565,13107,42710
27600,13143,42783
27613,13150,42813
27615,13150,42822
27608,13147,42819
27586,13128,42788
27555,13094,42730
27528,13068,42671
27503,13049,42615
27472,13018,42546
27435,12975,42468
27405,12937,42402
27379,12909,42346
27347,12871,42281
27314,12826,42213
27293,12796,42165
27278,12780,42129
27257,12757,42085
27235,12733,42043
27221,12725,42023
27206,12724,42014
27181,12712,41990
27159,12693,41959
27148,12684,41941
27140,12675,41923
27123,12651,41886
27106,12624,41842
27097,12609,41809
27087,12596,41774
27069,12570,41722
27051,12541,41667
27039,12523,41625
27027,12506,41583
27011,12479,41526
26998,12454,41472
26988,12440,41434
26971,12423,41398
26945,12393,41355
26920,12366,41322
26900,12351,41306
26880,12334,41287
26862,12309,41258
26854,12295,41240
26856,12300,41239
26857,12305,41239
26856,12303,41234
26865,12310,41239
26879,12328,41255
26887,12337,41261
26894,12337,41255
26912,12346,41259
26936,12367,41275
26951,12378,41282
26959,12379,41277
26969,12386,41276
26978,12397,41279
26976,12397,41266
26970,12387,41243
26970,12384,41226
26966,12384,41211
26949,12369,41180
26926,12344,41143
26909,12326,41117
26896,12311,41093
26878,12285,41055
26860,12257,41013
26852,12241,40985
26841,12226,40961
26819,12196,40924
26799,12163,40884
26788,12143,40856
26776,12126,40830
26758,12099,40791
26742,12076,40754
26735,12068,40734
26725,12059,40714
26708,12037,40679
26689,12014,40648
26675,12000,40633
26658,11983,40615
26636,11955,40583
26621,11938,40558
26617,11939,40553
26609,11938,40545
26597,11926,40525
26591,11922,40514
26592,11931,40518
26588,11931,40512
26577,11917,40491
26573,11911,40479
26574,11915,40475
26566,11905,40458
26551,11883,40432
26543,11872,40419
26541,11874,40417
26532,11869,40404
26520,11856,40385
26515,11854,40383
26511,11860,40388
26500,11856,40380
26488,11846,40365
26485,11848,40367
26486,11854,40376
26480,11845,40370
26475,11830,40355
26477,11827,40350
26477,11823,40345
26466,11805,40327
26458,11785,40306
26460,11778,40298
26464,11776,40294
26462,11766,40279
26464,11759,40268
26471,11767,40271
26474,11770,40268
26467,11754,40246
26461,11736,40224
26461,11732,40214
26455,11723,40200
26440,11701,40169
26428,11684,40144
26425,11685,40137
26419,11683,40128
26407,11671,40105
26402,11667,40094
26407,11682,40102
26409,11694,40104
26406,11695,40099
26414,11708,40115
26436,11740,40156
26462,11772,40203
26494,11805,40259
26543,11861,40353
26609,11941,40488
26680,12025,40640
26756,12115,40808
26850,12227,41009
26956,12352,41231
27060,12467,41445
27160,12573,41654
27268,12689,41871
27377,12807,42082
27472,12904,42259
27552,12983,42408
27623,13057,42539
27676,13116,42640
27701,13144,42695
27709,13155,42718
27711,13163,42726
27702,13160,42711
27677,13138,42666
27647,13109,42611
27623,13086,42564
27597,13056,42510
27566,13010,42438
27539,12963,42364
27519,12932,42306
27496,12901,42247
27469,12861,42177
27449,12830,42118
27437,12819,42080
27420,12808,42041
27399,12785,41992
27387,12769,41956
27387,12768,41941
27382,12760,41919
27369,12737,41880
27360,12717,41845
27357,12709,41820
27346,12689,41782
27325,12657,41729
27307,12633,41683
27292,12619,41646
27268,12594,41594
27237,12556,41528
27214,12527,41474
27198,12508,41430
27175,12478,41375
27148,12440,41317
27131,12418,41285
27120,12408,41270
27101,12388,41246
27081,12368,41219
27072,12367,41212
27071,12376,41216
27067,12374,41207
27067,12368,41196
27078,12378,41203
27091,12394,41214
27096,12393,41209
27099,12385,41200
27109,12387,41204
27117,12391,41209
27119,12385,41202
27124,12381,41198
27136,12392,41206
27143,12399,41208
27138,12392,41190
27133,12388,41175
27136,12398,41174
27135,12400,41166
27125,12387,41142
27117,12377,41120
27112,12378,41112
27095,12370,41094
27066,12343,41056
27044,12317,41022
27033,12301,40999
27016,12275,40966
26991,12237,40918
26972,12208,40877
26961,12196,40848
26942,12179,40804
26917,12152,40747
26898,12134,40706
26880,12124,40682
26854,12101,40648
26828,12070,40608
26815,12053,40583
26813,12045,40566
26805,12023,40536
26792,11996,40500
26786,11985,40479
26781,11982,40466
26767,11966,40438
26752,11947,40407
26748,11942,40394
26747,11943,40388
26737,11932,40369
26730,11921,40349
26731,11925,40344
26727,11928,40341
26713,11912,40324
26700,11895,40309
26695,11891,40313
26690,11888,40314
26680,11876,40298
26674,11872,40282
26681,11886,40283
26687,11897,40282
26685,11894,40269
26684,11894,40262
26686,11904,40271
26683,11906,40273
26675,11897,40259
26670,11891,40250
26670,11893,40253
26663,11886,40245
26650,11867,40221
26644,11855,40205
26640,11851,40200
26629,11835,40185
26612,11809,40157
26603,11792,40141
26599,11785,40140
26589,11772,40131
26576,11756,40114
26573,11757,40109
26578,11766,40111
26576,11761,40098
26569,11746,40074
26571,11745,40066
26577,11753,40069
26572,11749,40057
26567,11738,40040
26573,11741,40040
26583,11750,40047
26583,11747,40043
26586,11745,40039
26603,11763,40058
26622,11788,40089
26637,11806,40119
26663,11834,40167
26709,11891,40252
26765,11963,40367
26824,12039,40499
26900,12131,40664
26995,12250,40867
27097,12376,41086
27197,12494,41308
27303,12616,41546
27415,12745,41798
27517,12859,42034
27602,12948,42236
27683,13030,42421
27763,13116,42593
27827,13186,42728
27871,13228,42817
27910,13262,42886
27945,13294,42942
27960,13305,42960
27957,13293,42939
27952,13282,42906
27944,13272,42866
27919,13243,42801
27884,13198,42721
27855,13163,42651
27830,13139,42589
27800,13106,42516
27769,13065,42438
27744,13038,42379
27726,13024,42336
27704,13006,42288
27685,12985,42242
27676,12980,42219
27669,12981,42208
27655,12970,42188
27639,12952,42163
27630,12949,42154
27626,12946,42146
27617,12927,42119
27608,12904,42087
27605,12892,42062
27599,12878,42028
27580,12846,41968
27557,12813,41900
27538,12792,41843
27511,12764,41784
27473,12718,41714
27436,12672,41651
27409,12640,41605
27378,12607,41560
27342,12568,41509
27315,12539,41471
27300,12527,41452
27283,12511,41431
27260,12488,41401
27247,12476,41383
27248,12481,41382
27248,12480,41377
27242,12467,41363
27245,12466,41362
27254,12479,41374
27255,12485,41377
27250,12479,41370
27253,12482,41372
27263,12495,41386
27266,12501,41391
27267,12500,41385
27273,12506,41386
27277,12512,41390
27269,12502,41377
27256,12484,41353
27250,12478,41337
27245,12475,41321
27228,12454,41289
27207,12424,41251
27198,12407,41222
27192,12397,41193
27173,12372,41147
27149,12340,41096
27135,12323,41057
27123,12309,41019
27102,12282,40968
27080,12252,40918
27067,12233,40883
27054,12214,40853
27036,12187,40812
27022,12166,40776
27017,12160,40757
27010,12153,40738
26996,12135,40709
26986,12123,40686
26985,12127,40678
26982,12126,40665
26971,12111,40638
26963,12103,40618
26962,12110,40615
26955,12109,40603
26941,12092,40576
26932,12081,40557
26930,12080,40550
26924,12068,40535
26914,12046,40508
26909,12034,40493
26907,12033,40486
26895,12023,40466
26877,12002,40438
26866,11992,40424
26860,11992,40420
26849,11984,40403
26837,11968,40376
26830,11960,40361
26823,11956,40357
26805,11942,40342
26786,11925,40324
26778,11924,40322
26777,11926,40326
26771,11914,40311
26763,11898,40289
26765,11898,40285
26771,11902,40285
26771,11891,40270
26772,11879,40255
26782,11883,40258
26790,11889,40260
26787,11881,40245
26782,11874,40229
26782,11876,40225
26775,11872,40213
26757,11852,40181
26738,11833,40151
26723,11826,40137
26706,11817,40122
26682,11798,40097
26663,11786,40083
26652,11787,40082
26639,11782,40073
26621,11766,40050
26610,11758,40037
26605,11762,40040
26599,11759,40038
26593,11747,40029
26599,11747,40035
26615,11763,40058
26631,11778,40077
26654,11792,40099
26695,11828,40155
26752,11886,40246
26810,11947,40352
26871,12013,40476
26950,12104,40642
27045,12219,40847
27142,12338,41067
27245,12466,41306
27365,12617,41579
27495,12775,41867
27617,12916,42137
27731,13044,42388
27845,13173,42632
27949,13292,42851
28031,13380,43018
28099,13447,43143
28163,13509,43250
28212,13551,43324
28234,13561,43351
28243,13557,43355
28246,13555,43352
28231,13537,43326
28198,13496,43266
28163,13454,43197
28136,13422,43135
28105,13387,43065
28065,13342,42983
28029,13305,42911
28003,13284,42857
27976,13260,42804
27947,13227,42745
27926,13203,42702
27914,13197,42678
27899,13187,42653
27883,13168,42623
27876,13158,42603
27877,13156,42595
27872,13144,42578
27862,13124,42549
27856,13118,42532
27850,13124,42521
27834,13118,42491
27815,13098,42443
27801,13086,42401
27789,13078,42362
27767,13055,42305
27743,13019,42236
27729,12993,42179
27717,12969,42125
27695,12931,42054
27668,12887,41980
27648,12857,41930
27629,12833,41893
27604,12799,41848
27579,12766,41807
27564,12753,41787
27553,12749,41774
27535,12736,41754
27525,12726,41742
27531,12732,41750
27539,12739,41758
27541,12735,41751
27550,12736,41747
27569,12754,41760
27584,12768,41768
27589,12766,41762
27595,12767,41757
27611,12782,41764
27622,12792,41764
27624,12786,41746
27625,12781,41732
27627,12784,41731
27619,12773,41721
27601,12747,41697
27586,12727,41677
27575,12718,41662
27557,12697,41631
27534,12665,41587
27514,12641,41549
27498,12626,41517
27476,12601,41472
27452,12569,41416
27435,12551,41369
27421,12540,41332
27401,12515,41282
27379,12482,41226
27362,12460,41185
27345,12443,41152
27317,12415,41105
27289,12383,41054
27271,12364,41018
27257,12349,40990
27233,12320,40951
27208,12286,40907
27189,12265,40877
27171,12250,40851
27147,12224,40812
27125,12195,40774
27112,12178,40752
27101,12164,40735
27086,12142,40708
27075,12127,40684
27075,12128,40676
27072,12128,40664
27063,12117,40636
27057,12109,40611
27056,12114,40600
27050,12115,40588
27036,12102,40565
27027,12094,40551
27026,12098,40555
27019,12094,40553
27004,12077,40537
26992,12067,40531
26987,12070,40541
26978,12066,40541
26959,12054,40529
26945,12050,40528
26937,12056,40535
26924,12053,40528
26909,12040,40509
26904,12037,40500
26901,12041,40495
26888,12032,40473
26873,12015,40440
26868,12010,40425
26869,12014,40420
26866,12008,40405
26860,11996,40385
26863,11998,40379
26868,12002,40376
26862,11988,40355
26851,11966,40328
26846,11955,40317
26839,11946,40309
26824,11926,40286
26812,11907,40264
26810,11902,40257
26807,11900,40251
26799,11889,40235
26795,11880,40221
26799,11885,40224
26802,11893,40232
26803,11896,40239
26816,11911,40268
26847,11947,40333
26885,11993,40419
26932,12039,40517
26997,12107,40652
27080,12205,40830
27167,12311,41028
27256,12417,41234
27358,12540,41467
27477,12685,41728
27596,12828,41989
27711,12957,42235
27831,13090,42479
27950,13225,42714
28049,13336,42910
28128,13414,43064
28197,13481,43196
28252,13536,43303
28280,13563,43362
28287,13566,43382
28291,13568,43390
28289,13569,43385
28271,13552,43348
28240,13521,43284
28209,13494,43219
28177,13467,43153
28137,13422,43074
28100,13370,42995
28076,13333,42935
28054,13303,42883
28024,13266,42821
27997,13232,42764
27982,13220,42730
27971,13214,42703
27955,13199,42669
27942,13187,42640
27936,13185,42628
27928,13181,42616
27916,13165,42592
27907,13153,42571
27904,13153,42560
27893,13147,42538
27871,13123,42492
27850,13095,42440
27829,13071,42393
27799,13037,42333
27760,12986,42254
27725,12937,42180
27695,12899,42120
27660,12856,42055
27619,12806,41980
27587,12770,41917
27564,12750,41872
27539,12728,41824
27511,12699,41772
27492,12681,41738
27480,12676,41722
27467,12669,41704
27457,12658,41685
27459,12661,41685
27468,12674,41698
27473,12677,41701
27473,12673,41698
27478,12681,41710
27487,12694,41726
27486,12689,41726
27484,12678,41721
27491,12681,41731
27502,12690,41744
27504,12685,41742
27503,12675,41731
27507,12674,41725
27505,12670,41714
27489,12649,41683
27470,12624,41647
27457,12611,41622
27440,12597,41595
27411,12565,41549
27384,12533,41500
27367,12514,41463
27348,12496,41426
27321,12467,41380
27295,12442,41339
27274,12429,41309
27249,12410,41271
27218,12376,41215
27193,12346,41165
27176,12327,41131
27154,12305,41090
27128,12275,41037
27110,12252,40995
27100,12243,40968
27087,12228,40936
27067,12201,40894
27054,12183,40866
27049,12174,40852
27035,12156,40829
27018,12130,40795
27010,12121,40776
27007,12125,40770
26995,12117,40752
26978,12098,40725
26973,12091,40713
26971,12090,40708
26961,12076,40687
26948,12056,40657
26943,12048,40641
26940,12048,40632
26928,12036,40614
26915,12020,40595
26910,12017,40593
26910,12019,40596
26905,12008,40583
26901,11996,40568
26903,11999,40565
26902,12006,40560
26893,11999,40542
26885,11990,40525
26886,11994,40526
26882,11997,40525
26868,11988,40510
26855,11980,40497
26849,11980,40496
26838,11976,40489
26817,11958,40469
26803,11943,40456
26798,11940,40457
26791,11931,40451
26779,11911,40430
26773,11895,40415
26771,11888,40411
26761,11874,40396
26746,11853,40365
26740,11843,40342
26741,11843,40331
26736,11837,40311
26728,11823,40281
26732,11820,40269
26744,11826,40272
26746,11820,40265
26741,11802,40249
26743,11802,40247
26751,11814,40256
26754,11818,40258
26759,11820,40262
26776,11840,40295
26801,11875,40355
26825,11910,40429
26862,11958,40526
26923,12037,40667
26999,12136,40841
27076,12235,41025
27163,12345,41225
27271,12479,41457
27387,12620,41702
27496,12747,41938
27604,12868,42168
27711,12993,42399
27804,13105,42607
27875,13189,42772
27936,13258,42907
27992,13323,43021
28031,13368,43097
28046,13384,43127
28051,13388,43135
28052,13389,43133
28039,13374,43106
28015,13338,43053
27990,13300,42997
27965,13266,42941
27931,13221,42867
27885,13163,42777
27843,13113,42695
27807,13078,42628
27769,13038,42560
27732,12996,42491
27707,12971,42444
27691,12961,42414
27671,12939,42373
27650,12909,42323
27641,12895,42287
27638,12894,42265
27624,12883,42231
27609,12865,42189
27606,12857,42160
27603,12852,42136
27587,12828,42093
27562,12790,42039
27539,12760,41996
27515,12730,41952
27478,12684,41889
27438,12637,41821
27406,12606,41767
27378,12581,41718
27345,12545,41658
27315,12515,41602
27296,12501,41569
27279,12491,41541
27260,12470,41505
27247,12453,41477
27243,12454,41466
27241,12455,41456
27238,12444,41438
27241,12437,41427
27254,12444,41432
27265,12448,41438
27268,12443,41436
27272,12446,41441
27281,12460,41458
27284,12469,41464
27282,12467,41456
27288,12470,41455
27303,12484,41468
27315,12488,41472
27318,12478,41460
27322,12471,41452
27325,12470,41450
27317,12457,41431
27300,12430,41396
27287,12409,41369
27277,12395,41349
27257,12370,41316
27230,12335,41270
27209,12313,41234
27191,12299,41202
27168,12275,41157
27145,12246,41107
27132,12232,41071
27121,12225,41041
27100,12202,40998
27078,12174,40951
27065,12159,40920
27054,12149,40891
27038,12128,40846
27024,12104,40802
27018,12093,40776
27012,12083,40753
26998,12062,40718
26989,12044,40691
26987,12044,40685
26981,12043,40676
26967,12026,40651
26961,12009,40629
26966,12008,40628
26965,12004,40623
26952,11987,40603
26941,11975,40585
26937,11975,40581
26925,11968,40567
26904,11946,40535
26888,11930,40512
26883,11930,40504
26875,11926,40489
26863,11910,40464
26858,11902,40450
26857,11908,40451
26851,11911,40445
26842,11905,40431
26839,11907,40427
26842,11916,40432
26837,11909,40425
26830,11893,40410
26832,11888,40408
26838,11889,40414
26833,11877,40403
26824,11858,40383
26824,11853,40377
26826,11854,40374
26817,11841,40355
26803,11821,40330
26797,11814,40319
26792,11811,40312
26776,11795,40291
26759,11777,40270
26752,11777,40267
26748,11777,40266
26734,11762,40250
26723,11752,40237
26724,11759,40240
26723,11767,40242
26713,11761,40228
26703,11757,40213
26699,11764,40209
26693,11763,40199
26680,11747,40176
26675,11735,40161
26680,11741,40167
26687,11749,40179
26693,11754,40195
26714,11777,40240
26756,11826,40326
26804,11884,40432
26855,11944,40556
26923,12026,40717
27012,12135,40914
27108,12253,41125
27213,12374,41345
27333,12512,41590
27458,12656,41847
27570,12781,42084
27670,12889,42294
27768,12996,42494
27859,13100,42676
27928,13178,42815
27978,13232,42914
28020,13280,42995
28049,13316,43052
28057,13323,43069
28051,13311,43055
28041,13300,43034
28023,13285,43001
27990,13251,42936
27951,13204,42853
27915,13162,42775
27878,13118,42695
27835,13063,42601
27793,13007,42511
27760,12964,42443
27732,12926,42385
27704,12887,42324
27685,12861,42273
27674,12856,42243
27661,12855,42218
27645,12842,42182
27636,12832,42153
27637,12836,42141
27629,12832,42122
27609,12810,42081
27589,12789,42038
27573,12775,42003
27550,12751,41957
27519,12709,41894
27493,12671,41836
27473,12644,41790
27445,12609,41734
27409,12563,41667
27379,12528,41617
27358,12507,41584
27332,12480,41539
27305,12445,41488
27289,12420,41455
27280,12409,41438
27267,12391,41413
27254,12371,41387
27253,12371,41382
27256,12382,41391
27249,12382,41390
27243,12378,41385
27248,12390,41396
27258,12409,41414
27261,12417,41417
27261,12420,41416
27273,12436,41429
27287,12453,41444
27290,12454,41441
27293,12451,41434
27302,12458,41437
27310,12462,41436
27307,12449,41417
27303,12433,41397
27302,12429,41388
27295,12422,41370
27277,12399,41328
27263,12379,41287
27258,12372,41259
27250,12361,41228
27233,12336,41184
27218,12315,41147
27204,12303,41124
27181,12283,41093
27148,12249,41051
27120,12224,41020
27100,12209,40999
27077,12188,40967
27051,12160,40918
27032,12144,40876
27019,12139,40850
27000,12124,40821
26976,12096,40787
26962,12077,40765
26953,12067,40750
26940,12048,40720
26927,12024,40682
26927,12012,40659
26933,12011,40647
26933,12004,40624
26928,11993,40596
26928,11990,40584
26929,11988,40579
26923,11972,40562
26915,11954,40541
26913,11951,40535
26909,11953,40533
26899,11945,40520
26890,11937,40505
26888,11941,40501
26884,11944,40496
26870,11933,40476
26853,11920,40454
26842,11916,40444
26833,11910,40434
26819,11889,40412
26810,11870,40394
26807,11862,40389
26800,11850,40379
26784,11827,40356
26773,11813,40339
26771,11818,40338
26770,11822,40332
26766,11815,40313
26767,11814,40305
26774,11826,40315
26778,11834,40319
26778,11831,40311
26783,11837,40309
26791,11852,40314
26790,11855,40307
26783,11847,40288
26783,11845,40278
26785,11848,40275
26779,11837,40259
26766,11814,40236
26757,11801,40229
26751,11801,40231
26739,11793,40221
26723,11776,40203
26713,11766,40197
26705,11760,40192
26691,11740,40170
26677,11715,40140
26671,11702,40125
26667,11698,40119
26656,11684,40101
26648,11672,40085
26654,11679,40091
26668,11696,40110
26683,11711,40133
26706,11738,40179
26747,11793,40267
26800,11861,40387
26864,11931,40525
26946,12023,40700
27050,12147,40923
27163,12283,41172
27280,12417,41427
27408,12566,41702
27545,12732,41992
27673,12889,42268
27788,13025,42512
27899,13152,42737
28004,13272,42947
28090,13363,43115
28152,13426,43234
28202,13479,43323
28241,13524,43386
28255,13539,43404
28253,13528,43381
28250,13516,43349
28243,13503,43314
28220,13472,43256
28185,13428,43181
28153,13393,43114
28125,13367,43056
28093,13333,42985
28060,13292,42906
28035,13263,42843
28014,13246,42795
27991,13224,42745
27970,13201,42701
27960,13193,42676
27952,13192,42662
27940,13182,42640
27931,13170,42618
27928,13169,42610
27921,13168,42604
27903,13149,42577
27883,13124,42542
27867,13107,42514
27847,13085,42479
27817,13045,42423
27787,13003,42364
27763,12975,42314
27735,12946,42259
27702,12902,42187
27673,12860,42120
27650,12831,42068
27623,12800,42012
27592,12761,41946
27567,12730,41890
27549,12710,41851
27530,12686,41811
27509,12655,41764
27494,12635,41731
27487,12629,41716
27478,12621,41699
27467,12606,41678
27463,12604,41674
27468,12617,41688
27470,12623,41693
27469,12619,41688
27471,12621,41693
27472,12628,41707
27465,12622,41707
27455,12609,41697
27456,12610,41700
27465,12621,41709
27468,12622,41703
27469,12615,41685
27474,12616,41676
27476,12618,41670
27466,12603,41649
27453,12583,41618
27447,12576,41594
27440,12569,41568
27426,12549,41525
27414,12526,41480
27408,12511,41449
27399,12495,41417
27383,12466,41366
27370,12436,41316
27360,12419,41281
27344,12400,41249
27317,12368,41206
27292,12338,41167
27273,12323,41139
27251,12308,41108
27226,12285,41063
27206,12269,41024
27196,12270,41001
27181,12266,40976
27164,12248,40942
27155,12238,40920
27154,12241,40915
27145,12237,40904
27130,12219,40879
27122,12209,40861
27123,12210,40852
27120,12202,40835
27112,12183,40808
27112,12177,40794
27115,12182,40791
27109,12179,40779
27101,12165,40757
27100,12157,40745
27101,12156,40741
27094,12145,40721
27085,12127,40693
27086,12121,40683
27089,12118,40680
27080,12101,40662
27070,12083,40637
27066,12079,40624
27061,12081,40611
27050,12072,40583
27041,12061,40556
27041,12062,40547
27044,12068,40545
27043,12064,40532
27044,12057,40519
27052,12061,40520
27056,12065,40522
27053,12056,40509
27050,12047,40496
27053,12051,40497
27050,12053,40493
27037,12040,40473
27027,12030,40458
27026,12036,40456
27017,12039,40447
27000,12030,40422
26987,12026,40403
26983,12030,40397
26975,12022,40382
26963,11999,40354
26957,11985,40337
26956,11983,40331
26948,11968,40315
26932,11939,40289
26922,11918,40274
26917,11907,40269
26906,11890,40255
26890,11867,40234
26880,11856,40225
26872,11858,40228
26860,11855,40226
26852,11853,40229
26858,11871,40257
26876,11907,40311
26900,11946,40373
26938,11992,40455
26998,12063,40581
27070,12156,40746
27150,12252,40931
27244,12360,41144
27358,12493,41397
27485,12640,41670
27614,12782,41942
27748,12924,42214
27887,13073,42490
28013,13214,42744
28118,13331,42956
28210,13433,43140
28293,13527,43304
28354,13596,43427
28386,13631,43495
28402,13650,43534
28411,13662,43560
28404,13653,43555
28382,13621,43513
28358,13589,43459
28332,13565,43406
28295,13532,43338
28250,13483,43251
28211,13436,43167
28178,13401,43093
28140,13362,43013
28098,13315,42933
28062,13281,42876
28038,13260,42839
28014,13232,42794
27993,13200,42744
27982,13182,42715
27979,13179,42699
27969,13165,42671
27955,13144,42637
27949,13138,42619
27942,13142,42611
27923,13134,42587
27897,13115,42547
27880,13104,42513
27867,13093,42477
27846,13064,42420
27825,13026,42352
27808,12997,42293
27788,12967,42234
27755,12921,42159
27720,12870,42084
27691,12832,42027
27663,12799,41974
27633,12761,41914
27609,12731,41863
27596,12721,41837
27585,12714,41816
27571,12698,41786
27562,12687,41763
27559,12687,41759
27551,12682,41751
27537,12663,41734
27529,12648,41725
27530,12646,41733
27531,12643,41735
27530,12635,41725
27535,12637,41723
27543,12648,41731
27543,12653,41730
27536,12646,41713
27534,12642,41704
27536,12643,41705
27532,12634,41698
27523,12615,41679
27522,12605,41668
27528,12605,41663
27527,12592,41642
27519,12572,41608
27511,12562,41583
27501,12561,41561
27482,12549,41525
27460,12529,41482
27444,12516,41451
27432,12508,41426
27414,12490,41385
27395,12467,41339
27383,12454,41305
27371,12443,41273
27348,12414,41227
27324,12375,41177
27309,12350,41138
27296,12328,41099
27277,12298,41044
27261,12272,40995
27254,12262,40970
27245,12254,40949
27230,12233,40914
27218,12214,40883
27213,12209,40870
27203,12203,40854
27187,12185,40823
27174,12169,40794
27165,12164,40781
27153,12154,40766
27137,12133,40741
27128,12117,40724
27124,12111,40717
27111,12100,40702
27092,12079,40676
27080,12066,40660
27072,12066,40659
27058,12059,40649
27040,12043,40629
27031,12038,40619
27026,12042,40618
27015,12036,40606
27002,12020,40584
26999,12014,40574
27003,12018,40573
27003,12015,40560
27003,12007,40542
27012,12013,40540
27022,12024,40546
27023,12022,40534
27018,12013,40514
27017,12017,40508
27016,12025,40507
27008,12017,40492
27002,11998,40475
27004,11990,40475
27006,11983,40474
26998,11961,40457
26989,11943,40439
26985,11942,40437
26977,11943,40432
26962,11933,40409
26951,11929,40388
26949,11939,40384
26946,11949,40382
26937,11946,40369
26931,11944,40361
26931,11947,40361
26924,11938,40349
26908,11913,40321
26897,11892,40302
26894,11885,40299
26887,11876,40292
26874,11863,40277
26870,11866,40279
26880,11893,40308
26895,11922,40346
26916,11950,40396
26956,11999,40486
27016,12075,40617
27083,12156,40770
27159,12244,40944
27257,12361,41159
27373,12501,41405
27492,12642,41656
27615,12779,41910
27750,12924,42179
27884,13067,42441
28001,13187,42670
28101,13286,42866
28192,13379,43043
28267,13458,43191
28315,13506,43290
28343,13534,43349
28361,13559,43385
28366,13570,43392
28356,13555,43360
28339,13527,43308
28319,13506,43255
28291,13476,43190
28252,13427,43101
28213,13376,43005
28180,13338,42922
28145,13301,42843
28105,13253,42759
28067,13209,42686
28035,13177,42631
28002,13144,42576
27967,13102,42513
27945,13072,42468
27937,13063,42448
27927,13052,42425
27912,13030,42391
27906,13018,42368
27908,13021,42360
27903,13013,42338
27889,12988,42298
27879,12965,42262
27871,12947,42229
27851,12913,42179
27823,12867,42111
27801,12831,42052
27777,12806,42002
27741,12769,41941
27703,12725,41871
27675,12694,41815
27650,12672,41767
27619,12642,41707
27590,12606,41644
27572,12586,41600
27558,12575,41569
27541,12555,41535
27528,12536,41505
27526,12534,41495
27529,12538,41493
27529,12532,41482
27532,12527,41474
27542,12539,41484
27552,12555,41498
27555,12558,41501
27563,12559,41505
27581,12573,41522
27596,12581,41533
27603,12570,41529
27611,12564,41529
27622,12572,41540
27622,12573,41540
27609,12556,41517
27598,12542,41494
27595,12540,41480
27588,12529,41452
27571,12502,41406
27555,12480,41364
27542,12468,41332
27520,12449,41289
27491,12421,41232
27469,12401,41185
27453,12388,41148
27431,12362,41099
27406,12324,41039
27391,12298,40995
27382,12282,40964
27363,12256,40922
27339,12222,40875
27323,12202,40845
27314,12194,40826
27298,12176,40796
27282,12154,40761
27275,12146,40743
27269,12143,40732
27255,12125,40707
27240,12104,40678
27233,12099,40666
27226,12100,40657
27210,12085,40632
27196,12065,40603
27192,12060,40593
27189,12057,40586
27179,12040,40562
27169,12022,40538
27166,12019,40531
27161,12016,40525
27150,12004,40505
27145,11995,40488
27150,12000,40485
27148,12000,40477
27133,11984,40451
27119,11972,40427
27112,11972,40420
27100,11967,40407
27083,11949,40380
27071,11936,40359
27065,11934,40350
27054,11926,40335
27041,11908,40312
27038,11898,40301
27043,11899,40302
27042,11891,40292
27033,11874,40271
27029,11866,40263
27032,11869,40264
27028,11862,40250
27018,11844,40224
27016,11835,40208
27016,11834,40199
27009,11823,40180
26998,11803,40156
26994,11794,40145
26988,11790,40139
26973,11774,40120
26955,11754,40096
26943,11744,40087
26929,11737,40079
26907,11717,40055
26886,11692,40031
26875,11680,40024
26869,11673,40021
26861,11658,40007
26856,11648,39998
26862,11659,40011
26872,11678,40032
26885,11693,40049
26911,11720,40083
26954,11770,40148
27005,11831,40233
27060,11894,40331
27132,11974,40464
27223,12079,40639
27319,12191,40834
27413,12300,41035
27514,12418,41252
27622,12547,41485
27722,12667,41713
27811,12772,41924
27899,12875,42127
27982,12977,42320
28048,13055,42476
28094,13107,42591
28129,13150,42683
28151,13183,42749
28154,13192,42768
28144,13181,42749
28135,13173,42720
28123,13167,42685
28097,13143,42624
28062,13104,42544
28033,13071,42473
28006,13043,42409
27969,13003,42331
27930,12957,42247
27900,12925,42179
27872,12900,42120
27838,12866,42051
27805,12831,41984
27786,12811,41935
27770,12794,41896
27748,12763,41848
27729,12729,41803
27718,12708,41774
27703,12687,41745
27680,12652,41699
27657,12621,41651
27638,12606,41614
27612,12589,41572
27574,12557,41510
27540,12528,41450
27513,12509,41405
27481,12479,41355
27442,12435,41289
27413,12398,41233
27395,12377,41197
27376,12354,41160
27354,12327,41114
27342,12312,41082
27340,12313,41072
27334,12307,41059
27326,12292,41037
27328,12290,41027
27337,12300,41029
27340,12300,41022
27338,12293,41005
27345,12298,41001
27362,12313,41009
27376,12318,41007
27388,12314,40996
27408,12320,40999
27429,12330,41010
27438,12324,41007
27440,12309,40998
27447,12306,41002
27454,12310,41008
27452,12300,40994
27447,12284,40975
27447,12280,40969
27448,12278,40964
27439,12257,40937
27427,12232,40906
27418,12221,40887
27402,12207,40863
27375,12175,40819
27352,12144,40774
27339,12129,40743
27324,12118,40708
27300,12095,40656
27277,12074,40606
27264,12063,40573
27246,12044,40541
27220,12009,40497
27197,11978,40460
27183,11963,40440
27168,11947,40415
27149,11924,40377
27138,11911,40351
27136,11910,40340
27127,11899,40321
27110,11873,40288
27097,11851,40261
27090,11840,40242
27076,11821,40212
27059,11793,40176
27051,11778,40158
27046,11776,40155
27033,11763,40142
27014,11742,40119
27003,11733,40109
26996,11736,40106
26981,11728,40087
26965,11713,40061
26960,11713,40053
26957,11718,40055
26947,11707,40043
26936,11689,40022
26934,11686,40012
26934,11691,40006
26929,11684,39987
26927,11676,39969
26933,11680,39967
26939,11684,39968
26934,11672,39955
26930,11660,39940
26928,11659,39938
26921,11656,39931
26909,11643,39910
26906,11637,39896
26914,11647,39901
26920,11656,39902
26918,11649,39887
26919,11641,39873
26927,11645,39871
26934,11644,39865
26935,11629,39846
26937,11614,39833
26940,11608,39834
26933,11593,39825
26919,11567,39804
26909,11551,39792
26904,11551,39791
26894,11546,39778
26879,11532,39751
26871,11531,39736
26868,11539,39733
26864,11540,39723
26862,11540,39715
26876,11561,39739
26905,11601,39796
26939,11642,39861
26982,11687,39941
27046,11756,40061
27123,11846,40212
27199,11937,40374
27280,12033,40551
27375,12147,40758
27475,12267,40978
27566,12373,41185
27656,12472,41385
27749,12581,41593
27836,12686,41791
27907,12767,41953
27969,12834,42087
28026,12899,42204
28062,12948,42286
28073,12967,42321
28078,12977,42331
28082,12992,42332
28074,12995,42311
28051,12976,42264
28027,12955,42214
28007,12942,42174
27979,12918,42122
27942,12875,42049
27910,12834,41978
27885,12806,41917
27855,12772,41846
27820,12726,41763
27788,12682,41693
27760,12648,41641
27727,12610,41583
27692,12566,41518
27666,12536,41468
27645,12521,41435
27621,12500,41393
27593,12473,41340
27572,12454,41295
27553,12437,41254
27525,12402,41197
27495,12353,41131
27472,12313,41077
27450,12281,41028
27419,12241,40966
27386,12198,40899
27359,12170,40850
27335,12151,40811
27310,12125,40766
27291,12098,40724
27281,12083,40703
27270,12073,40689
27250,12052,40668
27231,12032,40650
27222,12030,40651
27216,12035,40654
27209,12032,40643
27205,12029,40636
27213,12037,40646
27220,12042,40654
27221,12033,40648
27225,12027,40643
27234,12032,40652
27237,12033,40654
27234,12024,40640
27236,12019,40631
27244,12026,40634
27248,12026,40628
27246,12014,40607
27246,12006,40590
27245,12006,40582
27235,11996,40565
27219,11977,40534
27208,11965,40507
27201,11962,40488
27186,11946,40456
27167,11917,40412
27154,11897,40382
27145,11885,40361
27125,11861,40324
27098,11826,40276
27077,11800,40241
27062,11784,40215
27041,11762,40178
27022,11739,40137
27013,11729,40114
27004,11722,40097
26985,11702,40068
26964,11677,40036
26953,11666,40022
26944,11661,40014
26928,11645,39994
26912,11629,39973
26905,11626,39966
26897,11624,39957
26882,11610,39933
26869,11595,39908
26860,11591,39897
26845,11584,39885
26824,11561,39859
26812,11541,39837
26812,11536,39830
26808,11526,39814
26793,11499,39781
26781,11480,39759
26779,11480,39758
26777,11480,39754
26771,11472,39739
26771,11471,39733
26776,11480,39738
26772,11478,39732
26760,11462,39713
26754,11457,39707
26757,11465,39713
26756,11464,39706
26752,11451,39686
26755,11445,39675
26759,11446,39675
26753,11438,39664
26741,11424,39645
26738,11425,39639
26740,11434,39641
26735,11431,39629
26728,11421,39608
26729,11419,39600
26730,11419,39599
26721,11406,39583
26708,11387,39562
26705,11384,39555
26703,11386,39556
26692,11377,39549
26679,11363,39542
26672,11363,39550
26664,11365,39561
26653,11358,39558
26649,11356,39559
26659,11377,39586
26674,11405,39622
26692,11428,39658
26724,11460,39713
26776,11517,39803
26839,11586,39915
26910,11660,40038
26992,11752,40189
27084,11869,40373
27177,11988,40570
27268,12098,40768
27364,12212,40979
27461,12331,41196
27548,12436,41395
27622,12525,41567
27694,12612,41728
27762,12695,41875
27814,12754,41985
27852,12789,42059
27887,12820,42119
27914,12846,42165
27924,12848,42176
27919,12830,42155
27912,12813,42125
27902,12797,42089
27878,12764,42033
27847,12722,41961
27820,12688,41895
27793,12660,41830
27760,12620,41748
27727,12576,41663
27704,12546,41596
27683,12523,41540
27654,12487,41476
27625,12451,41415
27603,12429,41371
27577,12408,41332
27541,12373,41280
27508,12337,41229
27486,12317,41193
27465,12297,41155
27439,12265,41103
27415,12232,41052
27396,12209,41013
27371,12182,40967
27338,12142,40906
27310,12106,40849
27289,12081,40803
27263,12048,40750
27232,12006,40683
27212,11974,40625
27201,11957,40585
27185,11933,40543
27163,11901,40496
27149,11879,40464
27144,11872,40450
27135,11862,40435
27123,11847,40416
27119,11848,40412
27121,11863,40419
27116,11866,40415
27108,11859,40403
27107,11865,40405
27113,11878,40419
27114,11879,40424
27113,11870,40420
27118,11870,40430
27122,11877,40447
27116,11871,40450
27109,11858,40441
27112,11854,40437
27115,11852,40431
27109,11836,40407
27100,11816,40377
27093,11812,40360
27082,11812,40344
27065,11800,40312
27049,11786,40283
27040,11783,40269
27030,11776,40255
27015,11754,40228
27006,11732,40200
27003,11723,40184
26991,11709,40164
26966,11681,40129
26946,11656,40096
26934,11645,40077
26919,11630,40055
26898,11606,40018
26881,11590,39986
26871,11587,39968
26858,11578,39945
26839,11554,39910
26826,11535,39883
26819,11527,39867
26807,11513,39840
26792,11487,39800
26784,11468,39770
26781,11458,39750
26775,11438,39722
26770,11411,39690
26772,11397,39675
26775,11392,39672
26769,11379,39660
26757,11359,39639
26751,11352,39632
26750,11353,39634
26742,11344,39622
26730,11328,39600
26727,11325,39588
26726,11328,39580
26716,11318,39561
26705,11305,39543
26703,11304,39540
26699,11304,39540
26686,11291,39525
26673,11278,39507
26665,11282,39503
26658,11288,39499
26646,11280,39479
26641,11273,39465
26644,11283,39475
26646,11291,39488
26642,11288,39488
26645,11290,39497
26660,11310,39530
26676,11334,39567
26693,11352,39598
26726,11386,39654
26780,11447,39751
26841,11516,39869
26903,11589,39997
26979,11682,40154
27071,11798,40343
27161,11911,40534
27246,12012,40720
27339,12124,40920
27439,12245,41129
27527,12350,41319
27605,12436,41481
27684,12521,41636
27755,12602,41778
27801,12653,41880
27825,12679,41944
27845,12703,41995
27857,12725,42029
27851,12722,42025
27832,12701,41994
27814,12684,41962
27796,12669,41922
27765,12638,41857
27729,12597,41786
27701,12568,41733
27675,12543,41683
27642,12504,41617
27613,12463,41548
27597,12439,41498
27579,12417,41453
27550,12382,41397
27522,12350,41344
27502,12334,41307
27480,12316,41272
27451,12285,41225
27428,12260,41183
27416,12250,41158
27398,12233,41130
27372,12198,41083
27349,12164,41034
27331,12141,40995
27307,12115,40944
27276,12077,40875
27251,12046,40811
27234,12028,40760
27211,12001,40703
27181,11959,40637
27157,11928,40588
27142,11912,40555
27123,11888,40516
27101,11856,40469
27088,11839,40439
27082,11835,40422
27065,11820,40394
27045,11799,40363
27038,11793,40351
27040,11797,40350
27036,11787,40338
27032,11773,40324
27039,11775,40329
27050,11788,40344
27053,11787,40342
27053,11781,40335
27064,11790,40344
27079,11801,40357
27083,11796,40353
27087,11786,40344
27099,11789,40350
27110,11794,40355
27110,11783,40342
27108,11769,40328
27111,11769,40329
27108,11768,40321
27090,11749,40290
27073,11730,40258
27065,11727,40238
27054,11718,40208
27034,11691,40160
27018,11664,40116
27006,11650,40091
26985,11631,40059
26953,11599,40013
26928,11576,39976
26915,11568,39955
26899,11552,39927
26878,11527,39887
26867,11514,39861
26865,11517,39851
26856,11509,39832
26841,11492,39803
26834,11485,39790
26834,11491,39789
26827,11485,39776
26818,11472,39755
26819,11473,39753
26823,11481,39763
26818,11475,39756
26806,11461,39737
26801,11458,39732
26800,11464,39733
26789,11457,39717
26775,11442,39695
26771,11439,39688
26767,11440,39685
26752,11425,39663
26735,11406,39636
26729,11401,39624
26727,11398,39613
26717,11380,39585
26709,11362,39557
26710,11362,39547
26706,11363,39538
26692,11349,39514
26681,11336,39494
26679,11338,39495
26676,11337,39495
26671,11325,39486
26678,11324,39492
26699,11348,39527
26720,11377,39571
26742,11406,39616
26780,11456,39692
26836,11536,39812
26895,11621,39953
26956,11702,40106
27033,11796,40290
27127,11911,40506
27222,12025,40725
27316,12129,40938
27419,12243,41164
27528,12366,41396
27628,12475,41603
27717,12566,41780
27803,12657,41949
27879,12743,42098
27930,12800,42200
27964,12830,42260
27994,12859,42304
28014,12882,42328
28011,12878,42314
27997,12857,42276
27986,12841,42238
27969,12824,42192
27936,12791,42120
27896,12752,42042
27861,12722,41981
27826,12695,41924
27788,12656,41855
27756,12620,41789
27737,12600,41746
27720,12581,41705
27695,12549,41650
27676,12522,41600
27671,12512,41572
27666,12501,41546
27655,12480,41510
27647,12465,41483
27645,12461,41471
27636,12451,41452
27618,12428,41415
27603,12408,41379
27591,12397,41351
27570,12376,41309
27541,12340,41248
27516,12308,41189
27492,12280,41140
27462,12238,41083
27425,12182,41014
27397,12138,40954
27376,12108,40906
27350,12075,40849
27322,12040,40788
27303,12024,40746
27289,12024,40720
27270,12015,40689
27252,12000,40658
27247,12000,40648
27247,12011,40650
27240,12011,40643
27233,12006,40633
27235,12011,40639
27238,12017,40650
27233,12007,40648
27229,11992,40643
27237,11993,40652
27246,11999,40661
27249,11992,40652
27253,11985,40640
27264,11992,40646
27272,11998,40650
27269,11988,40636
27265,11978,40619
27266,11983,40613
27261,11982,40599
27242,11960,40562
27227,11938,40526
27223,11931,40506
27214,11921,40482
27194,11900,40439
27175,11882,40400
27160,11875,40377
27140,11858,40343
27114,11823,40291
27095,11794,40248
27084,11777,40221
27069,11753,40185
27049,11718,40136
27036,11693,40100
27028,11684,40080
27017,11667,40051
27004,11641,40015
27001,11631,39997
27004,11636,39993
26999,11632,39975
26988,11616,39945
26983,11611,39927
26983,11617,39920
26978,11611,39906
26973,11599,39885
26976,11599,39875
26980,11603,39870
26972,11591,39848
26964,11575,39824
26964,11575,39819
26963,11580,39821
26954,11576,39809
26947,11572,39796
26949,11580,39798
26949,11586,39799
26938,11575,39781
26926,11561,39762
26925,11559,39756
26919,11556,39748
26904,11542,39725
26890,11528,39705
26884,11523,39699
26874,11513,39686
26856,11489,39657
26843,11474,39636
26840,11476,39634
26834,11477,39630
26819,11467,39613
26813,11462,39606
26819,11472,39621
26825,11480,39634
26833,11484,39642
26857,11509,39675
26895,11560,39740
26937,11618,39821
26986,11680,39923
27058,11768,40071
27146,11879,40262
27235,11989,40467
27330,12102,40686
27445,12238,40939
27571,12387,41212
27689,12518,41473
27800,12636,41717
27914,12763,41959
28022,12891,42187
28108,12993,42371
28180,13072,42516
28248,13147,42644
28302,13207,42746
28332,13234,42804
28348,13244,42833
28361,13255,42852
28365,13255,42848
28355,13231,42805
28341,13199,42748
28329,13178,42702
28310,13156,42652
28279,13122,42584
28250,13090,42517
28227,13071,42467
28197,13045,42418
28156,13003,42359
28124,12968,42310
28108,12952,42281
28091,12933,42251
28069,12903,42211
28053,12884,42185
28046,12883,42179
28035,12878,42165
28018,12863,42135
28010,12855,42113
28009,12859,42102
28004,12853,42073
27994,12835,42023
27988,12823,41979
27981,12815,41939
27958,12789,41874
27926,12746,41791
27901,12707,41719
27879,12674,41655
27846,12626,41578
27808,12570,41494
27782,12530,41428
27760,12502,41372
27733,12462,41306
27709,12418,41241
27696,12392,41200
27684,12378,41174
27665,12357,41144
27650,12337,41118
27650,12334,41112
27653,12336,41114
27652,12331,41104
27653,12330,41099
27662,12343,41114
27669,12354,41127
27669,12350,41123
27672,12348,41120
27683,12357,41128
27691,12359,41132
27690,12345,41122
27692,12337,41117
27696,12342,41123
27691,12341,41120
27672,12324,41100
27653,12311,41084
27636,12306,41076
27614,12292,41052
27586,12264,41009
27566,12242,40971
27551,12228,40942
27531,12207,40903
27509,12181,40854
27496,12168,40818
27485,12165,40793
27465,12153,40759
27445,12135,40716
27437,12131,40684
27433,12133,40661
27419,12120,40624
27401,12097,40579
27390,12085,40549
27381,12078,40527
27366,12058,40492
27350,12032,40453
27340,12020,40429
27325,12015,40410
27302,11998,40381
27282,11981,40355
27271,11979,40346
27263,11980,40339
27246,11965,40318
27229,11943,40297
27223,11933,40292
27217,11925,40285
27204,11903,40260
27197,11882,40239
27199,11878,40234
27196,11875,40222
27182,11862,40192
27171,11855,40167
27172,11865,40161
27170,11870,40152
27160,11860,40128
27152,11853,40112
27152,11859,40113
27143,11854,40108
27122,11835,40089
27104,11823,40078
27092,11823,40079
27077,11811,40070
27061,11788,40048
27055,11776,40036
27055,11778,40033
27049,11770,40014
27038,11750,39982
27037,11740,39964
27041,11737,39959
27038,11723,39943
27030,11701,39921
27030,11695,39913
27031,11699,39911
27022,11688,39892
27012,11672,39866
27009,11671,39857
27005,11675,39857
26993,11665,39841
26979,11650,39819
26972,11647,39811
26962,11645,39806
26946,11627,39787
26932,11607,39766
26928,11605,39762
26930,11608,39764
26932,11606,39764
26946,11616,39785
26980,11653,39847
27025,11705,39939
27078,11761,40052
27151,11843,40207
27246,11961,40414
27347,12093,40649
27452,12226,40897
27572,12374,41171
27707,12540,41469
27839,12699,41762
27964,12841,42029
28090,12983,42282
28213,13123,42522
28314,13234,42721
28391,13308,42873
28460,13373,43002
28521,13432,43110
28561,13467,43170
28583,13477,43187
28599,13485,43193
28605,13490,43188
28589,13472,43152
28559,13437,43094
28532,13410,43043
28504,13388,42995
28465,13351,42930
28425,13306,42862
28398,13278,42815
28377,13259,42780
28352,13229,42737
28330,13198,42696
28320,13189,42675
28314,13190,42663
28304,13178,42641
28295,13164,42622
28292,13165,42621
28286,13165,42618
28269,13150,42593
28255,13134,42565
28252,13132,42547
28246,13125,42515
28230,13099,42458
28213,13073,42398
28197,13057,42348
28170,13031,42287
28131,12984,42206
28096,12938,42128
28070,12907,42064
28040,12871,41992
28004,12823,41907
27976,12785,41836
27957,12763,41785
27929,12733,41727
27893,12690,41662
27865,12657,41614
27849,12640,41587
27834,12622,41554
27819,12600,41518
27816,12594,41504
27822,12601,41510
27819,12597,41508
27814,12586,41498
27821,12592,41503
27838,12609,41517
27846,12612,41513
27847,12609,41503
27855,12620,41512
27864,12635,41526
27863,12633,41521
27858,12623,41506
27857,12622,41504
27856,12622,41501
27842,12605,41477
27823,12583,41444
27812,12575,41423
27798,12563,41396
27775,12533,41347
27750,12501,41295
27731,12480,41259
27710,12456,41221
27685,12419,41168
27664,12385,41116
27651,12364,41079
27632,12341,41039
27608,12305,40984
27589,12277,40936
27577,12269,40904
27561,12261,40866
27537,12243,40819
27519,12229,40786
27510,12224,40768
27496,12211,40740
27472,12183,40694
27457,12161,40653
27448,12150,40626
27432,12131,40593
27416,12103,40553
27413,12083,40527
27412,12073,40513
27396,12049,40484
27372,12015,40443
27355,11993,40413
27345,11981,40392
27331,11961,40358
27316,11940,40320
27311,11937,40303
27307,11941,40296
27294,11930,40278
27279,11911,40255
27273,11904,40247
27268,11903,40243
27256,11891,40225
27240,11878,40209
27231,11881,40212
27223,11888,40215
27211,11879,40197
27201,11868,40174
27196,11867,40163
27189,11863,40152
27177,11844,40131
27169,11830,40115
27167,11833,40113
27162,11835,40107
27146,11819,40083
27134,11804,40061
27130,11801,40051
27118,11790,40036
27100,11763,40011
27091,11742,40000
27092,11734,40003
27086,11718,39992
27072,11693,39967
27066,11681,39954
27068,11685,39953
27061,11680,39940
27044,11663,39914
27034,11656,39901
27031,11659,39897
27022,11650,39877
27010,11630,39845
27006,11621,39831
27005,11621,39828
26995,11611,39809
26981,11596,39782
26979,11597,39774
26980,11608,39777
26969,11604,39766
26952,11590,39749
26941,11588,39742
26931,11589,39737
26911,11575,39717
26893,11558,39693
26885,11556,39685
26875,11554,39679
26859,11535,39658
26851,11517,39638
26857,11517,39634
26867,11518,39630
26871,11504,39606
26879,11492,39583
26894,11496,39574
26904,11497,39563
26899,11481,39540
26894,11465,39522
26894,11463,39519
26886,11456,39507
26867,11436,39481
26853,11424,39468
26850,11431,39474
26841,11432,39477
26827,11422,39471
26827,11425,39482
26844,11449,39518
26862,11476,39556
26882,11504,39600
26917,11558,39681
26973,11640,39805
27040,11729,39950
27119,11827,40122
27224,11951,40339
27347,12097,40590
27472,12240,40847
27600,12379,41113
27741,12535,41402
27886,12696,41694
28021,12837,41958
28148,12962,42196
28269,13087,42422
28371,13195,42614
28439,13264,42749
28481,13307,42841
28513,13345,42913
28529,13370,42956
28530,13367,42957
28524,13349,42936
28519,13337,42913
28502,13316,42871
28468,13273,42802
28432,13229,42729
28405,13200,42669
28375,13168,42603
28335,13121,42522
28302,13079,42452
28283,13059,42407
28261,13038,42364
28230,13007,42309
28205,12982,42265
28189,12973,42243
28171,12962,42222
28149,12941,42189
28138,12928,42164
28136,12929,42153
28127,12923,42135
28111,12906,42107
28100,12897,42084
28092,12892,42066
28076,12874,42033
28055,12842,41983
28039,12816,41936
28022,12794,41890
27989,12756,41824
27947,12710,41748
27912,12676,41683
27879,12648,41624
27837,12605,41548
27795,12556,41468
27766,12523,41408
27740,12497,41358
27706,12455,41296
27676,12411,41239
27661,12389,41209
27652,12382,41190
27640,12370,41165
27634,12363,41148
27641,12373,41153
27646,12382,41163
27643,12375,41157
27642,12368,41153
27648,12375,41163
27645,12380,41168
27630,12369,41154
27622,12362,41143
27627,12370,41147
27624,12370,41141
27606,12350,41110
27592,12333,41081
27587,12331,41067
27577,12322,41046
27561,12297,41010
27552,12279,40980
27547,12271,40962
27533,12254,40934
27512,12227,40893
27499,12212,40862
27491,12206,40841
27470,12185,40802
27441,12149,40748
27421,12123,40706
27407,12109,40675
27383,12086,40632
27356,12057,40585
27339,12040,40552
27325,12030,40526
27301,12008,40485
27274,11980,40437
27257,11964,40405
27246,11953,40379
27231,11927,40338
27215,11894,40292
27211,11878,40266
27210,11870,40245
27200,11851,40214
27189,11834,40186
27184,11832,40175
27179,11831,40165
27167,11817,40142
27157,11802,40121
27155,11799,40116
27152,11796,40109
27142,11783,40090
27136,11774,40076
27139,11779,40076
27140,11782,40068
27134,11772,40047
27133,11765,40036
27141,11768,40043
27144,11760,40038
27137,11736,40014
27134,11722,39995
27138,11727,39990
27135,11725,39977
27122,11709,39952
27116,11703,39939
27114,11707,39937
27104,11699,39920
27089,11684,39894
27084,11685,39886
27087,11697,39894
27080,11691,39891
27066,11673,39874
27061,11667,39868
27059,11670,39868
27044,11659,39853
27026,11640,39829
27023,11636,39822
27026,11640,39821
27020,11633,39807
27009,11621,39790
27001,11621,39789
26993,11624,39791
26978,11611,39776
26964,11593,39758
26963,11590,39755
26961,11586,39749
26948,11568,39727
26939,11551,39707
26939,11551,39703
26935,11550,39698
26923,11534,39676
26914,11519,39657
26919,11518,39651
26922,11514,39637
26913,11495,39606
26907,11482,39586
26908,11486,39583
26906,11486,39576
26897,11475,39555
26892,11473,39540
26894,11479,39540
26890,11473,39532
26880,11453,39508
26878,11443,39494
26885,11446,39492
26889,11443,39483
26892,11436,39472
26907,11449,39487
26931,11482,39529
26957,11513,39577
26988,11547,39636
27040,11608,39734
27112,11696,39873
27190,11787,40030
27278,11883,40208
27380,12002,40426
27488,12132,40666
27590,12251,40898
27691,12367,41125
27797,12494,41360
27897,12621,41586
27981,12726,41777
28058,12818,41945
28133,12909,42104
28192,12983,42233
28229,13022,42309
28255,13044,42352
28278,13067,42381
28290,13076,42385
28283,13061,42354
28266,13041,42306
28247,13024,42259
28219,12997,42202
28182,12951,42129
28150,12908,42061
28128,12878,42007
28102,12844,41948
28072,12801,41877
28049,12768,41815
28033,12748,41770
28010,12723,41718
27983,12689,41659
27966,12668,41615
27961,12660,41588
27953,12649,41557
27939,12629,41522
27930,12618,41500
27920,12614,41488
27897,12595,41457
27867,12562,41411
27842,12536,41370
27821,12515,41329
27790,12480,41270
27756,12437,41202
27731,12406,41147
27709,12380,41097
27680,12341,41030
27650,12303,40960
27631,12283,40911
27617,12272,40874
27594,12252,40831
27570,12231,40792
27556,12223,40773
27546,12214,40753
27529,12188,40713
27518,12166,40679
27521,12163,40670
27523,12163,40670
27516,12152,40662
27513,12146,40662
27521,12152,40675
27523,12151,40678
27514,12133,40663
27508,12122,40656
27512,12126,40665
27512,12125,40666
27502,12109,40648
27499,12099,40635
27504,12100,40631
27500,12092,40613
27484,12070,40580
27471,12056,40554
27465,12055,40539
27449,12041,40511
27422,12012,40471
27397,11992,40442
27378,11982,40424
27356,11962,40390
27336,11932,40345
27328,11912,40315
27326,11902,40294
27315,11881,40259
27299,11852,40215
27291,11835,40183
27285,11824,40158
27271,11802,40120
27253,11776,40077
27245,11765,40049
27238,11757,40028
27219,11733,39992
27198,11706,39956
27186,11696,39937
27175,11690,39921
27158,11671,39887
27148,11655,39855
27153,11658,39841
27156,11657,39828
27144,11636,39799
27131,11617,39777
27126,11615,39770
27116,11613,39757
27098,11594,39725
27085,11581,39700
27084,11585,39696
27081,11582,39690
27068,11562,39671
27060,11550,39659
27061,11552,39663
27060,11550,39658
27054,11536,39639
27053,11534,39628
27058,11545,39630
27058,11547,39623
27051,11538,39607
27049,11537,39606
27048,11546,39612
27035,11540,39599
27013,11521,39573
27004,11513,39562
27004,11516,39561
26998,11507,39544
26989,11491,39519
26987,11490,39509
26984,11494,39506
26968,11481,39488
26951,11462,39465
26946,11458,39459
26945,11463,39461
26938,11458,39447
26932,11450,39430
26935,11454,39428
26942,11458,39428
26942,11449,39410
26947,11443,39390
26960,11454,39391
26968,11462,39393
26962,11451,39378
26954,11436,39362
26950,11432,39360
26939,11421,39352
26916,11396,39326
26899,11376,39303
26892,11369,39293
26880,11360,39276
26863,11339,39247
26851,11327,39229
26845,11328,39228
26834,11323,39225
26822,11307,39216
26823,11305,39224
26837,11324,39257
26848,11344,39294
26862,11367,39338
26895,11414,39416
26947,11490,39532
27007,11569,39660
27074,11651,39802
27160,11753,39979
27255,11868,40179
27345,11971,40372
27436,12070,40563
27538,12185,40772
27642,12305,40983
27730,12406,41162
27807,12492,41316
27881,12577,41462
27942,12646,41586
27978,12679,41665
27998,12692,41713
28013,12705,41747
28018,12707,41758
28005,12683,41733
27985,12648,41689
27967,12621,41644
27940,12589,41585
27900,12541,41503
27860,12497,41422
27829,12469,41356
27795,12441,41287
27753,12399,41205
27717,12364,41131
27690,12344,41075
27659,12317,41015
27620,12274,40944
27585,12237,40884
27559,12216,40843
27532,12188,40796
27501,12147,40737
27479,12114,40694
27467,12095,40666
27445,12067,40626
27417,12033,40570
27399,12012,40527
27390,12002,40494
27374,11981,40442
27351,11948,40376
27335,11928,40325
27320,11918,40285
27294,11894,40234
27265,11861,40177
27246,11843,40137
27232,11837,40112
27210,11821,40080
27188,11798,40049
27180,11789,40039
27177,11785,40040
27166,11768,40026
27157,11750,40013
27161,11749,40019
27167,11753,40029
27165,11747,40023
27164,11742,40016
27168,11751,40028
27172,11757,40037
27170,11747,40029
27169,11740,40024
27180,11750,40033
27190,11756,40038
27193,11748,40025
27203,11741,40014
27221,11747,40017
27232,11748,40012
27231,11733,39987
27233,11722,39965
27243,11726,39958
27246,11723,39942
27238,11707,39909
27231,11698,39884
27225,11700,39869
27213,11690,39841
27197,11669,39799
27191,11658,39768
27188,11658,39751
27174,11646,39721
27153,11619,39676
27141,11600,39643
27134,11588,39618
27118,11564,39581
27096,11535,39539
27084,11522,39516
27077,11518,39503
27063,11501,39477
27049,11477,39447
27047,11466,39434
27045,11464,39428
27031,11452,39407
27015,11438,39380
27010,11438,39370
27008,11442,39363
26998,11432,39344
26986,11419,39325
26981,11417,39323
26974,11415,39321
26962,11400,39302
26955,11387,39285
26956,11389,39284
26952,11387,39275
26940,11367,39247
26931,11349,39222
26927,11345,39212
26919,11336,39194
26907,11317,39163
26899,11307,39141
26897,11311,39136
26887,11307,39125
26872,11289,39106
26864,11276,39099
26863,11275,39104
26857,11268,39100
26849,11253,39086
26855,11249,39084
26869,11258,39090
26873,11255,39077
26870,11241,39051
26877,11235,39039
26890,11238,39037
26894,11228,39019
26894,11208,38990
26903,11201,38974
26913,11202,38966
26910,11189,38944
26900,11172,38918
26900,11172,38914
26902,11179,38918
26893,11168,38906
26882,11150,38886
26877,11147,38882
26871,11149,38883
26855,11136,38868
26840,11123,38851
26835,11126,38852
26829,11129,38852
26814,11115,38837
26802,11103,38831
26801,11111,38850
26805,11124,38877
26811,11135,38901
26834,11160,38948
26878,11213,39034
26931,11273,39139
26990,11334,39253
27064,11415,39399
27155,11522,39579
27243,11631,39765
27325,11731,39946
27411,11838,40137
27503,11953,40337
27586,12053,40517
27655,12133,40671
27717,12212,40817
27773,12288,40952
27809,12338,41050
27828,12363,41111
27842,12387,41158
27846,12407,41188
27830,12398,41182
27798,12368,41145
27767,12341,41105
27735,12316,41060
27692,12273,40993
27645,12223,40913
27610,12189,40844
27581,12162,40781
27547,12122,40704
27514,12081,40625
27491,12055,40565
27472,12032,40512
27447,11997,40451
27426,11963,40395
27415,11944,40358
27404,11927,40322
27382,11895,40271
27357,11862,40220
27339,11842,40182
27316,11820,40138
27288,11786,40079
27263,11756,40025
27245,11738,39984
27220,11712,39938
27188,11670,39879
27163,11638,39830
27150,11625,39800
27135,11609,39766
27115,11583,39724
27105,11567,39698
27105,11564,39691
27099,11552,39674
27086,11530,39645
27083,11521,39630
27086,11530,39633
27082,11530,39629
27073,11521,39620
27074,11524,39629
27083,11535,39650
27083,11533,39655
27078,11523,39650
27084,11531,39660
27094,11548,39677
27095,11550,39675
27092,11543,39665
27097,11546,39670
27102,11553,39678
27095,11541,39666
27084,11523,39647
27083,11520,39642
27081,11518,39635
27067,11499,39608
27050,11475,39576
27041,11463,39559
27030,11452,39540
27011,11426,39504
26994,11402,39470
26988,11394,39454
26977,11384,39437
26951,11357,39404
26927,11332,39372
26914,11321,39351
26899,11305,39323
26879,11276,39278
26866,11255,39241
26866,11253,39224
26859,11245,39200
26840,11222,39164
26827,11208,39141
26826,11209,39137
26819,11198,39124
26802,11174,39099
26793,11162,39086
26794,11166,39087
26788,11164,39076
26775,11153,39055
26768,11155,39046
26768,11165,39045
26758,11158,39028
26743,11140,39003
26737,11136,38994
26736,11141,38992
26727,11131,38974
26715,11112,38949
26711,11103,38936
26711,11099,38927
26703,11084,38902
26694,11065,38875
26691,11062,38864
26688,11064,38858
26674,11050,38841
26662,11035,38826
26661,11038,38828
26658,11043,38829
26645,11031,38814
26635,11020,38801
26636,11026,38804
26633,11030,38805
26619,11018,38791
26611,11010,38783
26614,11017,38793
26613,11019,38795
26599,11003,38775
26588,10990,38758
26587,10990,38757
26580,10984,38745
26562,10965,38716
26549,10956,38699
26546,10963,38699
26541,10961,38691
26533,10945,38671
26534,10937,38662
26542,10943,38666
26543,10940,38658
26537,10924,38640
26534,10917,38634
26535,10921,38639
26528,10915,38633
26519,10901,38619
26520,10901,38619
26526,10909,38629
26524,10907,38629
26520,10903,38632
26529,10922,38663
26548,10958,38716
26568,10993,38773
26599,11034,38844
26652,11100,38951
26715,11182,39083
26777,11263,39223
26851,11352,39382
26943,11460,39571
27040,11569,39767
27131,11661,39949
27224,11755,40131
27325,11863,40326
27414,11963,40507
27481,12040,40654
27544,12108,40782
27606,12176,40901
27650,12223,40989
27671,12241,41036
27684,12251,41064
27692,12263,41083
27683,12255,41074
27657,12224,41034
27632,12194,40992
27611,12176,40956
27585,12150,40905
27550,12108,40833
27518,12071,40766
27492,12046,40708
27458,12015,40639
27421,11972,40559
27393,11938,40492
27372,11916,40440
27343,11886,40380
27315,11849,40317
27302,11830,40272
27297,11822,40240
27284,11807,40202
27268,11788,40163
27258,11784,40143
27246,11783,40127
27223,11763,40093
27199,11732,40047
27182,11710,40011
27162,11688,39976
27130,11649,39925
27101,11608,39871
27083,11584,39834
27068,11564,39800
27045,11532,39753
27027,11506,39712
27021,11502,39693
27014,11501,39674
26995,11487,39640
26983,11477,39612
26987,11483,39605
26988,11487,39600
26979,11479,39586
26974,11477,39582
26978,11488,39593
26977,11491,39595
26972,11478,39581
26975,11474,39578
26985,11484,39591
26988,11487,39598
26983,11475,39591
26982,11468,39590
26986,11471,39600
26982,11465,39597
26971,11449,39580
26966,11441,39572
26963,11440,39574
26950,11428,39563
26934,11409,39541
26930,11406,39531
26933,11410,39526
26925,11402,39504
26910,11386,39473
26901,11380,39456
26891,11379,39440
26869,11359,39404
26848,11331,39363
26839,11319,39338
26832,11314,39318
26815,11294,39283
26798,11268,39246
26790,11256,39225
26781,11246,39205
26760,11218,39164
26738,11189,39123
26728,11177,39102
26719,11167,39087
26703,11144,39063
26688,11125,39043
26684,11121,39039
26680,11117,39031
26670,11099,39008
26664,11087,38991
26661,11088,38988
26651,11082,38980
26633,11064,38962
26622,11054,38953
26619,11055,38955
26607,11044,38943
26583,11020,38915
26566,11006,38898
26558,11007,38894
26546,10999,38879
26531,10983,38857
26529,10984,38853
26533,10999,38860
26525,10998,38853
26513,10981,38833
26511,10974,38826
26516,10980,38829
26512,10977,38817
26503,10967,38796
26504,10970,38791
26511,10979,38793
26513,10976,38783
26515,10968,38768
26526,10971,38766
26535,10976,38765
26531,10967,38745
26525,10957,38722
26531,10964,38717
26538,10975,38717
26535,10970,38704
26533,10963,38690
26543,10967,38691
26548,10966,38689
26538,10945,38667
26529,10926,38646
26531,10927,38645
26529,10926,38643
26516,10909,38624
26507,10896,38608
26504,10898,38602
26495,10895,38589
26476,10877,38564
26461,10865,38552
26451,10869,38556
26437,10869,38557
26424,10861,38553
26424,10867,38569
26440,10893,38613
26461,10921,38667
26491,10952,38735
26545,11009,38841
26618,11090,38982
26695,11173,39133
26776,11260,39297
26874,11370,39491
26982,11495,39703
27081,11610,39908
27174,11716,40106
27272,11827,40312
27367,11937,40510
27444,12024,40674
27507,12094,40810
27568,12166,40933
27614,12225,41029
27634,12254,41083
27643,12263,41109
27653,12274,41126
27654,12275,41121
27634,12251,41081
27605,12216,41026
27580,12191,40979
27551,12163,40927
27513,12118,40859
27476,12073,40792
27449,12043,40738
27423,12010,40681
27392,11968,40612
27367,11934,40551
27348,11915,40508
27325,11893,40464
27297,11862,40412
27277,11843,40373
27269,11841,40352
27256,11834,40325
27237,11815,40287
27227,11804,40261
27228,11805,40247
27221,11796,40222
27204,11772,40184
27192,11758,40152
27179,11751,40124
27149,11729,40079
27113,11693,40023
27089,11666,39980
27070,11644,39949
27041,11608,39900
27005,11564,39839
26980,11535,39795
26962,11517,39764
26937,11488,39723
26914,11455,39680
26905,11440,39659
26903,11437,39649
26892,11428,39629
26880,11419,39613
26882,11429,39621
26891,11445,39636
26898,11449,39637
26907,11454,39638
26923,11474,39656
26932,11489,39671
26928,11486,39665
26926,11480,39658
26931,11482,39661
26933,11475,39654
26927,11453,39627
26923,11434,39602
26923,11430,39591
26919,11421,39573
26907,11399,39541
26900,11383,39516
26894,11377,39504
26879,11362,39479
26857,11334,39438
26847,11316,39405
26843,11312,39384
26829,11301,39353
26810,11280,39313
26803,11269,39289
26803,11271,39280
26791,11261,39260
26769,11242,39228
26757,11235,39208
26750,11237,39195
26736,11224,39166
26719,11201,39129
26714,11192,39110
26715,11190,39101
26706,11170,39076
26693,11144,39045
26689,11134,39033
26687,11132,39029
26675,11115,39008
26660,11094,38985
26657,11091,38978
26658,11092,38972
26653,11078,38943
26650,11062,38913
26652,11064,38898
26648,11068,38884
26630,11057,38859
26611,11045,38846
26604,11048,38853
26592,11047,38858
26571,11029,38844
26556,11018,38831
26553,11022,38832
26545,11017,38823
26530,10995,38794
26523,10983,38774
26529,10991,38773
26529,10993,38767
26522,10982,38749
26522,10979,38741
26532,10987,38746
26535,10985,38742
26531,10970,38729
26535,10963,38727
26542,10964,38736
26537,10954,38730
26526,10931,38710
26521,10920,38698
26523,10921,38694
26519,10915,38677
26512,10901,38651
26512,10898,38639
26512,10903,38634
26500,10895,38614
26483,10879,38589
26476,10875,38583
26471,10879,38585
26455,10871,38576
26439,10863,38567
26438,10874,38585
26448,10896,38619
26461,10912,38654
26486,10941,38709
26531,10997,38801
26584,11065,38915
26641,11132,39039
26713,11215,39188
26805,11323,39371
26900,11431,39561
26989,11529,39744
27082,11632,39936
27180,11746,40137
27269,11844,40321
27344,11920,40476
27417,11995,40619
27485,12071,40754
27531,12126,40859
27557,12154,40926
27578,12177,40980
27596,12203,41025
27600,12209,41037
27585,12194,41018
27568,12178,40991
27549,12164,40960
27515,12130,40904
27474,12085,40831
27445,12056,40770
27425,12040,40721
27397,12011,40659
27366,11975,40591
27347,11954,40543
27334,11942,40508
27311,11916,40461
27286,11882,40413
27272,11862,40383
27265,11847,40360
27248,11818,40321
27227,11787,40279
27216,11774,40253
27209,11769,40229
27198,11751,40188
27187,11733,40145
27182,11728,40112
27173,11718,40071
27151,11688,40010
27130,11654,39948
27117,11632,39899
27100,11608,39846
27074,11567,39782
27052,11530,39730
27040,11511,39701
27022,11492,39673
26998,11463,39637
26982,11444,39611
26976,11442,39600
26967,11438,39588
26954,11429,39571
26949,11427,39567
26949,11435,39579
26943,11433,39582
26933,11420,39575
26932,11418,39577
26938,11424,39587
26938,11421,39586
26937,11408,39576
26946,11409,39576
26957,11416,39583
26955,11409,39574
26944,11395,39556
26939,11394,39550
26936,11399,39549
26923,11390,39531
26905,11374,39505
26898,11370,39492
26894,11368,39482
26882,11352,39455
26868,11333,39423
26862,11328,39405
26855,11320,39382
26835,11293,39339
26814,11263,39296
26801,11246,39269
26783,11228,39243
26755,11194,39200
26733,11165,39163
26724,11154,39147
26713,11144,39127
26693,11120,39087
26678,11100,39051
26673,11094,39031
26666,11082,39006
26652,11056,38970
26644,11039,38948
26641,11037,38944
26631,11029,38932
26614,11011,38906
26605,11004,38891
26603,11007,38889
26595,10999,38878
26581,10978,38853
26575,10965,38837
26573,10966,38833
26566,10959,38819
26559,10943,38794
26562,10936,38780
26567,10936,38773
26560,10922,38753
26546,10901,38724
26540,10895,38709
26541,10899,38704
26535,10891,38688
26526,10878,38666
26526,10880,38663
26528,10889,38664
26521,10883,38648
26511,10871,38629
26511,10876,38627
26511,10883,38627
26499,10872,38611
26486,10860,38596
26484,10864,38595
26480,10866,38590
26468,10851,38569
26457,10835,38548
26453,10829,38542
26446,10821,38535
26431,10801,38514
26420,10785,38500
26420,10782,38502
26421,10779,38502
26423,10770,38497
26433,10776,38506
26451,10800,38538
26468,10824,38573
26485,10844,38610
26519,10881,38675
26569,10943,38775
26622,11009,38891
26676,11075,39020
26745,11160,39181
26826,11263,39366
26903,11358,39545
26974,11442,39714
27052,11537,39895
27132,11642,40082
27202,11731,40243
27260,11802,40380
27320,11872,40512
27373,11937,40628
27407,11975,40702
27427,11991,40741
27441,12006,40769
27441,12015,40781
27421,12002,40758
27393,11975,40717
27371,11958,40680
27346,11936,40638
27309,11894,40575
27272,11847,40506
27245,11818,40450
27217,11792,40392
27181,11751,40320
27151,11711,40256
27131,11688,40214
27108,11668,40171
27078,11638,40112
27057,11611,40059
27048,11601,40026
27036,11587,39994
27018,11561,39949
27006,11539,39912
27002,11530,39888
26995,11515,39855
26979,11487,39807
26967,11464,39766
26959,11454,39737
26940,11438,39697
26913,11410,39643
26896,11393,39601
26889,11386,39575
26872,11368,39540
26849,11341,39499
26835,11329,39476
26832,11327,39468
26825,11315,39446
26815,11295,39416
26817,11290,39406
26826,11299,39410
26831,11298,39402
26833,11290,39388
26843,11294,39392
26853,11303,39406
26850,11300,39410
26843,11290,39408
26845,11295,39417
26853,11304,39428
26851,11299,39420
26846,11290,39407
26847,11294,39409
26846,11296,39411
26834,11282,39398
26827,11268,39385
26834,11268,39385
26833,11263,39377
26816,11239,39346
26800,11217,39313
26796,11211,39291
26788,11200,39261
26768,11173,39218
26753,11153,39185
26748,11150,39167
26737,11142,39143
26717,11121,39106
26701,11108,39078
26693,11106,39067
26683,11094,39048
26669,11066,39015
26661,11047,38991
26658,11041,38978
26646,11023,38953
26628,10993,38917
26621,10977,38897
26620,10975,38890
26609,10965,38871
26591,10949,38842
26578,10947,38827
26568,10953,38821
26553,10946,38800
26538,10933,38774
26535,10932,38764
26537,10934,38763
26529,10919,38748
26517,10897,38728
26514,10889,38724
26512,10886,38721
26502,10873,38701
26494,10861,38683
26499,10865,38681
26505,10870,38677
26502,10860,38657
26500,10851,38637
26507,10855,38633
26508,10856,38627
26497,10838,38606
26487,10818,38587
26486,10812,38583
26480,10801,38574
26463,10776,38549
26451,10758,38533
26449,10757,38532
26445,10752,38523
26434,10737,38499
26430,10732,38485
26432,10742,38488
26426,10743,38481
26411,10725,38456
26403,10712,38439
26402,10710,38437
26396,10699,38426
26388,10680,38406
26391,10676,38405
26402,10687,38422
26410,10691,38436
26419,10694,38452
26442,10720,38501
26477,10769,38580
26513,10818,38668
26557,10872,38772
26619,10953,38914
26695,11055,39082
26771,11150,39251
26851,11242,39425
26945,11352,39623
27040,11467,39826
27123,11563,40008
27201,11648,40179
27280,11738,40350
27347,11818,40496
27393,11869,40599
27425,11907,40676
27453,11946,40742
27467,11970,40780
27466,11969,40783
27464,11962,40773
27461,11960,40761
27446,11944,40728
27417,11906,40672
27389,11870,40617
27367,11847,40572
27337,11820,40518
27301,11780,40452
27273,11748,40400
27257,11732,40366
27238,11709,40326
27215,11678,40277
27197,11660,40240
27184,11655,40214
27164,11639,40176
27139,11611,40127
27121,11595,40090
27107,11590,40065
27087,11574,40030
27066,11550,39987
27056,11535,39955
27048,11524,39927
27026,11493,39878
26995,11452,39818
26973,11425,39772
26953,11406,39734
26923,11374,39682
26892,11339,39629
26875,11323,39596
26861,11311,39570
26837,11285,39531
26815,11258,39494
26808,11252,39479
26806,11253,39471
26797,11242,39455
26793,11233,39446
26804,11240,39456
26815,11247,39467
26814,11241,39462
26814,11237,39459
26825,11247,39474
26831,11249,39479
26825,11236,39464
26821,11229,39455
26825,11239,39462
26823,11239,39463
26814,11223,39448
26811,11213,39437
26811,11214,39435
26798,11203,39420
26775,11178,39388
26758,11161,39364
26751,11157,39353
26739,11142,39330
26722,11116,39293
26712,11100,39265
26707,11094,39243
26691,11075,39205
26673,11049,39158
26668,11040,39129
26667,11041,39112
26653,11030,39082
26630,11011,39045
26615,11003,39024
26606,11001,39011
26589,10984,38982
26571,10961,38948
26564,10953,38931
26554,10946,38917
26533,10923,38889
26510,10898,38862
26497,10890,38850
26484,10884,38839
26464,10865,38814
26447,10847,38794
26443,10847,38793
26441,10850,38791
26428,10840,38771
26419,10832,38753
26421,10840,38755
26419,10845,38751
26406,10834,38731
26396,10827,38717
26395,10836,38719
26388,10840,38714
26368,10824,38692
26354,10810,38678
26350,10807,38679
26340,10791,38668
26320,10758,38641
26305,10734,38625
26298,10727,38627
26286,10715,38621
26273,10700,38607
26271,10700,38603
26275,10709,38607
26270,10703,38596
26259,10685,38574
26253,10676,38563
26253,10677,38562
26247,10668,38546
26237,10651,38521
26236,10647,38509
26235,10648,38508
26223,10634,38496
26210,10617,38480
26209,10619,38482
26210,10628,38489
26201,10625,38485
26194,10626,38485
26207,10651,38509
26228,10683,38541
26246,10705,38572
26272,10735,38625
26314,10792,38722
26365,10861,38845
26418,10929,38978
26488,11014,39138
26580,11123,39332
26677,11234,39534
26770,11333,39728
26867,11438,39930
26967,11556,40145
27055,11664,40349
27129,11751,40527
27199,11831,40692
27261,11911,40844
27303,11968,40957
27324,11998,41030
27341,12023,41085
27356,12046,41126
27357,12048,41132
27345,12030,41109
27338,12018,41086
27333,12015,41063
27316,11998,41020
27293,11970,40964
27280,11953,40921
27272,11945,40890
27252,11924,40845
27228,11898,40794
27215,11890,40761
27206,11890,40739
27187,11877,40711
27166,11858,40683
27155,11852,40673
27149,11852,40671
27141,11838,40655
27137,11821,40635
27143,11821,40632
27151,11825,40631
27148,11814,40611
27142,11797,40583
27140,11790,40561
27129,11777,40531
27103,11748,40478
27076,11717,40424
27056,11697,40380
27030,11669,40327
26995,11622,40255
26968,11579,40189
26952,11554,40145
26935,11533,40104
26913,11503,40057
26898,11488,40027
26893,11495,40020
26886,11498,40009
26873,11489,39988
26870,11490,39983
26879,11506,39998
26885,11514,40006
26887,11508,40001
26895,11511,40009
26905,11523,40026
26904,11524,40029
26900,11516,40022
26905,11521,40027
26915,11535,40039
26914,11536,40037
26908,11526,40024
26909,11525,40023
26915,11530,40028
26915,11520,40018
26910,11504,39999
26910,11499,39988
26907,11498,39975
26892,11481,39944
26872,11458,39908
26858,11446,39885
26843,11431,39858
26819,11399,39812
26795,11369,39765
26779,11356,39731
26764,11346,39699
26744,11322,39654
26731,11300,39612
26727,11295,39583
26719,11287,39550
26700,11262,39501
26687,11242,39462
26684,11235,39443
26675,11218,39420
26654,11183,39382
26636,11157,39354
26628,11149,39343
26614,11136,39324
26593,11110,39291
26580,11094,39270
26576,11097,39263
26567,11095,39247
26552,11078,39218
26544,11070,39202
26542,11072,39198
26533,11067,39180
26523,11055,39153
26525,11055,39141
26530,11062,39140
26522,11052,39124
26507,11027,39099
26499,11011,39090
26498,11003,39089
26488,10983,39072
26477,10965,39051
26481,10970,39047
26491,10984,39049
26489,10980,39036
26484,10971,39020
26490,10977,39023
26493,10985,39026
26482,10977,39011
26472,10970,38995
26473,10976,38994
26473,10979,38989
26464,10962,38966
26455,10947,38946
26455,10948,38943
26455,10949,38934
26447,10936,38909
26444,10928,38888
26447,10933,38882
26444,10931,38870
26432,10917,38846
26424,10910,38829
26424,10915,38828
26414,10910,38821
26397,10891,38804
26389,10880,38799
26392,10881,38806
26391,10873,38801
26385,10856,38789
26392,10858,38800
26411,10882,38841
26430,10909,38888
26453,10940,38951
26497,11002,39060
26557,11090,39209
26621,11181,39373
26695,11275,39557
26792,11397,39784
26905,11539,40041
27016,11672,40291
27127,11795,40532
27245,11928,40779
27360,12059,41018
27457,12163,41221
27543,12251,41396
27631,12340,41560
27708,12418,41697
27764,12464,41787
27808,12494,41848
27848,12526,41900
27877,12546,41929
27888,12542,41926
27896,12534,41915
27907,12535,41915
27906,12528,41905
27889,12504,41871
27875,12486,41838
27871,12486,41822
27863,12484,41803
27847,12470,41774
27839,12465,41755
27843,12474,41756
27842,12475,41754
27834,12466,41744
27834,12468,41747
27844,12484,41766
27847,12487,41770
27842,12474,41755
27841,12468,41743
27839,12467,41730
27821,12445,41693
27792,12402,41637
27769,12365,41587
27746,12337,41540
27706,12295,41471
27659,12243,41386
27623,12206,41316
27594,12177,41253
27557,12134,41173
27518,12087,41091
27492,12058,41034
27472,12037,40989
27447,12005,40933
27423,11973,40879
27413,11956,40847
27409,11950,40828
27402,11938,40807
27398,11932,40796
27405,11941,40806
27413,11950,40816
27412,11946,40808
27415,11948,40802
27430,11968,40817
27444,11989,40832
27447,11996,40834
27452,12004,40840
27464,12024,40861
27469,12037,40872
27463,12031,40864
27460,12029,40859
27466,12041,40865
27464,12041,40856
27448,12022,40828
27435,12006,40804
27426,11999,40789
27410,11978,40758
27386,11943,40711
27371,11919,40675
27365,11906,40652
27352,11883,40614
27334,11848,40561
27325,11828,40520
27325,11818,40491
27317,11794,40448
27303,11762,40396
27296,11746,40363
27292,11741,40338
27277,11723,40297
27258,11695,40247
27248,11679,40211
27239,11663,40182
27221,11632,40141
27199,11596,40095
27184,11578,40064
27170,11570,40038
27149,11553,40003
27130,11538,39973
27121,11538,39961
27113,11537,39949
27096,11520,39919
27083,11503,39890
27080,11501,39873
27074,11495,39853
27056,11471,39820
27038,11447,39789
27029,11435,39774
27016,11420,39754
26998,11393,39722
26990,11375,39699
26992,11375,39693
26987,11371,39680
26972,11356,39655
26961,11349,39639
26958,11353,39634
26946,11345,39616
26927,11324,39587
26916,11318,39572
26916,11328,39574
26910,11326,39563
26896,11313,39543
26892,11312,39537
26891,11319,39541
26880,11309,39526
26865,11286,39498
26860,11277,39481
26860,11278,39471
26848,11264,39448
26831,11242,39420
26826,11235,39412
26827,11238,39411
26819,11227,39394
26809,11212,39370
26807,11210,39363
26806,11210,39360
26793,11194,39343
26781,11178,39325
26780,11181,39323
26778,11186,39319
26767,11176,39300
26759,11165,39285
26764,11167,39285
26768,11167,39280
26762,11153,39257
26756,11141,39237
26758,11143,39228
26755,11140,39209
26744,11122,39176
26741,11107,39154
26745,11102,39149
26740,11089,39132
26725,11063,39103
26718,11049,39086
26720,11055,39086
26712,11056,39079
26697,11046,39063
26697,11051,39073
26714,11079,39116
26733,11109,39171
26758,11145,39243
26807,11210,39358
26878,11302,39516
26954,11398,39693
27040,11500,39891
27150,11633,40135
27280,11787,40414
27412,11934,40694
27545,12072,40969
27687,12222,41255
27823,12373,41529
27940,12500,41761
28042,12609,41959
28140,12716,42143
28223,12809,42298
28280,12870,42408
28321,12911,42489
28352,12947,42557
28368,12968,42599
28367,12962,42604
28361,12949,42594
28359,12946,42589
28350,12934,42571
28327,12904,42528
28307,12878,42486
28298,12871,42463
28283,12862,42440
28256,12838,42405
28235,12822,42380
28228,12825,42375
28218,12824,42367
28202,12813,42348
28199,12814,42343
28209,12832,42358
28213,12843,42366
28209,12841,42358
28208,12845,42356
28212,12852,42359
28206,12842,42342
28191,12816,42303
28180,12799,42265
28168,12787,42224
28137,12757,42161
28093,12714,42082
28056,12680,42011
28024,12647,41942
27984,12596,41853
27943,12539,41758
27916,12501,41684
27894,12477,41627
27865,12441,41562
27839,12402,41500
27827,12384,41462
27817,12372,41430
27797,12347,41384
27776,12320,41345
27764,12308,41331
27754,12294,41324
27739,12268,41307
27732,12251,41301
27735,12255,41320
27735,12258,41333
27726,12243,41323
27721,12233,41314
27728,12241,41321
27730,12246,41323
27722,12235,41309
27716,12229,41296
27715,12233,41291
27707,12226,41275
27693,12204,41240
27685,12187,41210
27684,12180,41190
27673,12160,41159
27652,12127,41112
27635,12102,41072
27623,12086,41040
27606,12058,40996
27586,12017,40938
27573,11989,40891
27556,11970,40853
27525,11935,40798
27489,11893,40733
27465,11867,40683
27445,11851,40645
27414,11819,40595
27377,11778,40540
27352,11752,40501
27335,11733,40468
27311,11699,40420
27286,11663,40370
27273,11645,40339
27264,11634,40313
27243,11608,40275
27221,11580,40234
27211,11566,40208
27205,11553,40184
27191,11529,40147
27177,11510,40114
27173,11507,40096
27168,11505,40076
27155,11489,40043
27143,11474,40018
27140,11475,40012
27133,11473,40001
27119,11457,39975
27111,11443,39958
27111,11443,39957
27103,11438,39949
27087,11418,39923
27076,11406,39903
27072,11409,39900
27063,11407,39892
27051,11395,39874
27048,11393,39865
27051,11400,39866
27045,11397,39854
27032,11382,39830
27024,11377,39818
27019,11380,39818
27002,11370,39806
26979,11352,39784
26966,11347,39774
26959,11346,39768
26945,11329,39746
26931,11305,39715
26929,11298,39700
26932,11299,39694
26923,11287,39673
26910,11270,39646
26909,11268,39634
26914,11269,39627
26910,11253,39603
26904,11235,39578
26907,11232,39570
26906,11229,39558
26893,11207,39524
26879,11185,39492
26873,11179,39476
26863,11171,39455
26845,11149,39420
26832,11134,39396
26830,11137,39395
26825,11139,39392
26809,11127,39372
26799,11121,39357
26800,11131,39361
26800,11136,39367
26799,11131,39368
26812,11140,39387
26839,11172,39430
26866,11206,39478
26895,11239,39535
26944,11296,39632
27013,11380,39771
27085,11466,39925
27161,11552,40096
27258,11661,40306
27370,11793,40548
27479,11921,40790
27584,12041,41025
27698,12171,41270
27810,12301,41511
27902,12407,41714
27979,12492,41885
28055,12576,42045
28121,12647,42180
28163,12685,42270
28190,12701,42325
28213,12718,42370
28228,12730,42397
28225,12717,42388
28212,12697,42358
28202,12688,42332
28185,12677,42299
28152,12649,42245
28119,12619,42189
28094,12603,42147
28067,12584,42105
28032,12550,42051
28002,12522,42004
27987,12513,41976
27972,12505,41946
27953,12486,41904
27943,12473,41872
27941,12475,41857
27934,12469,41835
27921,12452,41800
27915,12442,41771
27914,12442,41750
27903,12429,41711
27879,12397,41649
27859,12370,41590
27844,12350,41541
27821,12316,41477
27790,12264,41399
27765,12220,41331
27742,12186,41275
27707,12139,41205
27666,12088,41130
27638,12060,41077
27618,12050,41042
27588,12031,40998
27557,12007,40953
27543,12002,40931
27539,12009,40926
27529,12006,40913
27521,11996,40902
27527,11997,40910
27535,12001,40923
27533,11987,40920
27532,11970,40913
27537,11969,40921
27541,11970,40929
27536,11957,40922
27531,11943,40918
27534,11945,40927
27535,11947,40929
27530,11937,40911
27524,11926,40892
27522,11924,40884
27509,11913,40867
27484,11881,40829
27464,11852,40794
27459,11840,40772
27449,11824,40740
27427,11794,40694
27408,11773,40656
27397,11766,40631
27380,11751,40592
27360,11726,40537
27348,11711,40493
27341,11706,40461
27325,11687,40417
27301,11652,40362
27285,11629,40321
27274,11615,40295
27253,11587,40255
27225,11547,40203
27207,11521,40168
27195,11510,40144
27177,11489,40107
27155,11463,40066
27145,11451,40043
27141,11448,40032
27127,11432,40010
27107,11409,39982
27097,11401,39969
27088,11399,39959
27071,11384,39934
27054,11366,39905
27049,11363,39888
27048,11364,39872
27039,11351,39843
27031,11339,39818
27030,11342,39811
27022,11341,39806
27004,11323,39783
26989,11306,39758
26985,11301,39748
26981,11292,39732
26966,11269,39701
26954,11255,39678
26952,11259,39675
26945,11259,39667
26930,11243,39644
26924,11236,39630
26932,11247,39637
26936,11252,39638
26932,11239,39623
26932,11232,39614
26938,11237,39616
26935,11235,39605
26925,11219,39579
26922,11213,39563
26922,11220,39557
26907,11215,39540
26884,11196,39515
26867,11190,39509
26858,11194,39515
26845,11185,39507
26831,11168,39487
26823,11163,39477
26818,11164,39471
26805,11150,39446
26793,11131,39411
26792,11128,39390
26791,11128,39373
26780,11112,39342
26767,11093,39313
26762,11091,39301
26756,11091,39294
26743,11079,39275
26735,11069,39264
26743,11080,39280
26758,11100,39311
26772,11118,39347
26798,11150,39409
26841,11210,39506
26889,11283,39621
26942,11358,39747
27017,11451,39908
27120,11568,40112
27232,11690,40333
27346,11806,40561
27469,11934,40812
27601,12080,41082
27725,12216,41335
27834,12328,41557
27941,12437,41767
28043,12545,41962
28120,12626,42112
28170,12674,42219
28210,12714,42308
28243,12752,42377
28259,12768,42408
28262,12764,42410
28263,12761,42408
28257,12756,42398
28230,12728,42356
28192,12688,42293
28161,12662,42241
28135,12645,42197
28100,12614,42137
28063,12580,42073
28042,12563,42031
28028,12550,41999
28005,12523,41951
27981,12496,41903
27967,12490,41878
27958,12492,41861
27943,12483,41832
27929,12472,41807
27925,12472,41797
27916,12465,41780
27896,12437,41740
27878,12408,41697
27869,12393,41666
27853,12369,41623
27821,12325,41554
27789,12280,41481
27762,12250,41417
27731,12215,41342
27692,12168,41253
27659,12132,41177
27636,12110,41122
27611,12080,41064
27581,12043,41003
27560,12022,40961
27550,12018,40938
27537,12005,40909
27522,11985,40874
27522,11981,40861
27532,11990,40873
27534,11992,40879
27528,11982,40876
27530,11983,40887
27537,11994,40909
27535,11994,40917
27528,11987,40916
27528,11993,40926
27531,12006,40939
27526,12003,40929
27518,11991,40910
27519,11988,40905
27522,11987,40902
27514,11970,40879
27505,11946,40849
27506,11937,40835
27509,11931,40819
27497,11907,40782
27481,11882,40741
27473,11875,40716
27462,11867,40686
27440,11841,40638
27420,11817,40592
27410,11808,40565
27393,11793,40532
27364,11759,40478
27341,11726,40425
27331,11707,40388
27317,11685,40348
27295,11650,40292
27281,11622,40246
27278,11609,40218
27266,11588,40185
27244,11555,40137
27229,11532,40101
27223,11524,40081
27212,11508,40052
27193,11479,40014
27178,11461,39992
27169,11453,39982
27154,11435,39960
27134,11408,39929
27123,11399,39913
27118,11404,39907
27106,11394,39885
27092,11374,39854
27088,11368,39837
27085,11369,39826
27070,11357,39799
27053,11337,39766
27050,11332,39748
27050,11333,39737
27043,11323,39712
27033,11313,39687
27032,11319,39682
27033,11329,39683
27027,11326,39671
27022,11324,39663
27023,11336,39671
27022,11348,39675
27010,11343,39663
27001,11336,39651
26998,11340,39654
26993,11342,39654
26981,11327,39637
26975,11313,39623
26979,11312,39623
26980,11305,39613
26973,11285,39585
26971,11272,39564
26975,11273,39557
26973,11267,39542
26963,11249,39513
26957,11238,39490
26955,11239,39481
26944,11231,39466
26927,11212,39441
26919,11206,39428
26918,11210,39426
26909,11198,39408
26895,11172,39378
26889,11159,39362
26885,11154,39351
26869,11133,39324
26853,11104,39289
26854,11095,39270
26863,11100,39262
26863,11094,39249
26865,11087,39242
26883,11103,39269
26916,11137,39325
26952,11172,39392
27002,11222,39485
27075,11304,39629
27159,11404,39807
27243,11507,39997
27340,11624,40218
27457,11769,40483
27581,11922,40767
27703,12063,41041
27826,12207,41314
27954,12359,41587
28072,12495,41835
28172,12599,42041
28263,12691,42221
28347,12783,42382
28410,12856,42504
28449,12900,42580
28478,12935,42634
28503,12973,42676
28512,12992,42687
28503,12982,42662
28495,12966,42627
28490,12954,42594
28474,12928,42543
28450,12885,42478
28432,12853,42431
28421,12836,42401
28405,12813,42365
28384,12784,42323
28373,12772,42301
28369,12776,42294
28358,12770,42276
28345,12758,42253
28343,12760,42247
28344,12769,42250
28334,12763,42237
28317,12750,42211
28307,12751,42193
28300,12756,42176
28287,12743,42140
28272,12719,42093
28265,12703,42055
28258,12687,42012
28237,12653,41947
28210,12614,41875
28186,12588,41814
28156,12555,41747
28111,12504,41660
28068,12453,41576
28039,12420,41513
28010,12387,41451
27975,12341,41380
27947,12301,41322
27933,12282,41290
27920,12263,41260
27900,12232,41220
27889,12212,41194
27890,12211,41191
27890,12211,41189
27886,12205,41179
27891,12208,41182
27903,12221,41200
27908,12224,41206
27905,12218,41199
27910,12222,41204
27920,12236,41215
27921,12233,41207
27915,12217,41186
27915,12212,41177
27920,12215,41176
27914,12202,41156
27900,12175,41123
27892,12159,41102
27884,12151,41086
27862,12127,41047
27834,12092,40993
27811,12072,40952
27790,12058,40915
27762,12028,40862
27732,11990,40803
27709,11966,40760
27686,11945,40720
27659,11911,40668
27635,11879,40616
27622,11864,40581
27609,11850,40543
27587,11818,40489
27564,11785,40437
27550,11766,40401
27535,11747,40363
27510,11713,40311
27486,11681,40263
27469,11662,40232
27450,11639,40198
27425,11604,40153
27408,11579,40116
27400,11572,40096
27388,11559,40072
27371,11532,40035
27363,11516,40009
27364,11516,39995
27358,11507,39969
27345,11486,39932
27340,11476,39910
27338,11477,39901
27325,11464,39877
27301,11436,39840
27285,11421,39817
27278,11418,39809
27263,11403,39789
27242,11381,39762
27230,11376,39750
27223,11378,39746
27207,11368,39724
27190,11351,39694
27186,11349,39680
27186,11357,39678
27178,11352,39661
27169,11341,39638
27170,11342,39631
27170,11346,39631
27159,11335,39616
27147,11325,39600
27145,11331,39599
27142,11338,39600
27133,11330,39585
27125,11316,39567
27124,11313,39559
27118,11302,39547
27100,11276,39518
27083,11257,39492
27074,11259,39482
27058,11256,39468
27035,11236,39438
27019,11220,39415
27020,11218,39409
27019,11210,39398
27010,11190,39373
27006,11178,39354
27007,11181,39349
26998,11175,39334
26978,11154,39305
26966,11141,39289
26963,11138,39286
26954,11128,39275
26941,11109,39256
26938,11105,39254
26945,11117,39270
26948,11122,39281
26954,11128,39297
26979,11162,39350
27022,11223,39441
27073,11287,39547
27135,11359,39678
27217,11463,39858
27316,11589,40076
27417,11714,40303
27526,11846,40548
27651,11999,40828
27780,12157,41119
27901,12299,41392
28020,12434,41651
28141,12573,41906
28251,12700,42136
28340,12798,42318
28416,12880,42465
28485,12960,42590
28538,13021,42679
28565,13049,42725
28577,13062,42749
28582,13075,42764
28574,13073,42755
28552,13048,42717
28529,13021,42675
28508,13004,42641
28480,12980,42597
28446,12945,42539
28418,12918,42494
28400,12901,42463
28382,12877,42425
28364,12847,42381
28359,12835,42355
28362,12838,42345
28357,12830,42327
28348,12812,42300
28350,12806,42288
28356,12812,42284
28352,12807,42265
28340,12793,42235
28333,12789,42216
28326,12786,42196
28302,12761,42152
28268,12717,42092
28240,12681,42035
28218,12649,41977
28186,12601,41896
28150,12547,41804
28122,12509,41724
28094,12476,41650
28055,12426,41565
28014,12373,41481
27982,12338,41416
27955,12311,41360
27924,12277,41299
27897,12248,41248
27880,12240,41221
27861,12230,41196
27833,12204,41160
27815,12183,41135
27811,12182,41132
27804,12182,41130
27792,12170,41116
27790,12167,41112
27801,12182,41127
27807,12190,41133
27803,12181,41121
27804,12179,41118
27813,12188,41129
27815,12188,41131
27808,12173,41116
27810,12166,41109
27817,12169,41114
27811,12158,41104
27794,12135,41077
27783,12123,41060
27778,12121,41051
27761,12105,41025
27737,12074,40983
27722,12055,40950
27709,12042,40921
27685,12015,40870
27658,11980,40808
27642,11959,40761
27628,11946,40723
27604,11921,40673
27578,11890,40619
27564,11874,40584
27555,11863,40556
27540,11839,40513
27527,11811,40465
27522,11798,40434
27513,11786,40401
27492,11760,40349
27469,11734,40299
27452,11720,40267
27434,11704,40234
27408,11676,40187
27387,11650,40143
27374,11639,40114
27358,11627,40083
27336,11602,40040
27320,11582,40006
27316,11576,39990
27311,11567,39970
27301,11545,39942
27299,11531,39926
27303,11530,39921
27297,11520,39904
27280,11499,39875
27267,11489,39857
27259,11490,39850
27244,11479,39831
27222,11456,39800
27208,11441,39781
27200,11435,39769
27180,11415,39741
27157,11386,39704
27144,11372,39685
27140,11370,39681
27132,11357,39666
27122,11337,39645
27121,11333,39639
27123,11335,39641
27113,11324,39629
27100,11308,39610
27096,11307,39600
27093,11309,39593
27080,11294,39573
27067,11276,39554
27061,11274,39553
27054,11275,39554
27039,11263,39538
27028,11251,39520
27028,11252,39514
27027,11253,39504
27017,11238,39482
27008,11225,39463
27006,11228,39459
26997,11224,39450
26975,11201,39423
26958,11180,39400
26952,11171,39391
26943,11157,39373
26924,11128,39338
26908,11108,39311
26903,11103,39299
26893,11095,39282
26876,11081,39259
26870,11084,39254
26878,11106,39271
26889,11126,39288
26902,11144,39313
26935,11184,39375
26985,11247,39475
27038,11308,39591
27101,11374,39727
27187,11469,39905
27292,11586,40118
27400,11698,40335
27510,11811,40558
27630,11946,40807
27751,12088,41064
27856,12208,41297
27952,12311,41509
28050,12420,41718
28141,12521,41907
28212,12594,42051
28267,12649,42160
28314,12702,42252
28345,12743,42314
28356,12758,42332
28356,12759,42326
28355,12760,42314
28341,12744,42281
28307,12701,42218
28268,12650,42146
28236,12612,42082
28198,12569,42008
28150,12512,41918
28107,12463,41838
28076,12432,41778
28044,12400,41719
28007,12360,41652
27980,12331,41600
27966,12321,41570
27953,12309,41539
27937,12286,41501
27926,12273,41477
27923,12273,41468
27914,12264,41449
27898,12241,41419
27887,12228,41397
27876,12222,41382
27851,12203,41344
27819,12170,41287
27794,12143,41232
27773,12120,41177
27742,12080,41103
27702,12028,41018
27665,11986,40947
27629,11953,40884
27586,11910,40809
27546,11867,40732
27520,11841,40677
27500,11824,40633
27475,11799,40582
27458,11777,40538
27458,11775,40522
27463,11781,40515
27459,11774,40498
27456,11769,40488
