green_channel,red_channel,ir_channel
31261,55342,12619
31550,55693,8400
31840,56048,5445
32130,56402,3586
32421,56753,2625
32707,57094,2362
32987,57424,2607
33256,57737,3194
33511,58033,3981
33746,58305,4860
33957,58549,5745
34142,58763,6579
34298,58944,7322
34427,59097,7959
34538,59227,8485
34635,59334,8899
34711,59412,9207
34765,59464,9415
34794,59492,9535
34795,59494,9580
34769,59468,9562
34725,59419,9490
34670,59353,9374
34612,59282,9227
34547,59206,9061
34473,59122,8878
34394,59028,8678
34307,58921,8466
34214,58806,8249
34116,58684,8028
34017,58560,7807
33924,58441,7593
33833,58327,7383
33747,58219,7173
33658,58109,6962
33566,57995,6742
33478,57882,6522
33397,57774,6311
33319,57669,6110
33244,57569,5916
33171,57473,5724
33089,57375,5531
33001,57272,5336
32913,57168,5147
32831,57069,4968
32752,56975,4797
32678,56891,4635
32618,56821,4490
32576,56766,4366
32545,56724,4265
32517,56690,4181
32491,56663,4115
32471,56646,4067
32456,56635,4036
32448,56634,4024
32451,56642,4029
32462,56653,4044
32481,56669,4072
32509,56694,4117
32539,56727,4173
32567,56763,4236
32596,56802,4310
32629,56845,4397
32670,56892,4493
32716,56940,4591
32763,56988,4689
32812,57036,4783
32860,57083,4872
32902,57130,4960
32946,57182,5049
32992,57235,5132
33036,57282,5203
33073,57320,5260
33098,57346,5299
33107,57355,5316
33101,57350,5315
33086,57341,5300
33072,57332,5274
33058,57319,5238
33040,57295,5189
33017,57265,5129
32981,57225,5060
32932,57175,4981
32881,57120,4893
32838,57064,4799
32798,57008,4698
32756,56951,4593
32713,56894,4483
32667,56833,4371
32622,56772,4262
32581,56718,4162
32540,56669,4063
32498,56619,3956
32448,56560,3835
32389,56489,3704
32325,56412,3573
32261,56336,3446
32200,56262,3324
32141,56189,3206
32080,56114,3088
32020,56039,2976
31963,55968,2871
31914,55902,2771
31872,55844,2672
31831,55790,2572
31792,55737,2469
31752,55684,2365
31713,55632,2265
31678,55585,2171
31639,55535,2080
31594,55485,1994
31550,55440,1911
31512,55397,1830
31477,55353,1751
31436,55306,1670
31395,55260,1590
31360,55220,1516
31332,55186,1448
31311,55160,1389
31296,55138,1338
31285,55118,1292
31275,55098,1248
31265,55079,1204
31250,55057,1155
31229,55031,1101
31206,55000,1043
31181,54964,982
31155,54931,924
31129,54901,874
31094,54869,826
31057,54835,773
31024,54801,718
30992,54764,658
30958,54728,595
30929,54702,550
30916,54697,544
30928,54720,579
30969,54777,660
31035,54860,788
31122,54969,974
31237,55109,1225
31382,55284,1538
31558,55495,1908
31763,55738,2336
31995,56011,2823
32253,56315,3366
32524,56641,3949
32800,56978,4561
33079,57323,5194
33361,57672,5835
33642,58019,6471
33915,58353,7090
34181,58672,7688
34443,58979,8261
34691,59267,8796
34913,59527,9282
35107,59757,9714
35274,59956,10090
35419,60121,10409
35543,60260,10674
35646,60372,10882
35723,60450,11029
35772,60497,11117
35796,60520,11158
35798,60523,11158
35779,60506,11120
35746,60469,11045
35695,60409,10932
35626,60329,10790
35552,60240,10630
35478,60149,10458
35405,60057,10278
35325,59960,10087
35234,59850,9883
35136,59733,9668
35027,59608,9442
34909,59478,9210
34796,59346,8979
34687,59215,8747
34580,59083,8513
34470,58950,8276
34356,58818,8036
34242,58684,7798
34121,58545,7553
33989,58398,7302
33851,58246,7049
33717,58098,6800
33601,57963,6566
33502,57841,6347
33413,57731,6142
33330,57630,5952
33248,57534,5773
33167,57441,5606
33090,57354,5454
33020,57277,5320
32966,57215,5207
32928,57169,5120
32899,57137,5059
32877,57115,5020
32868,57107,4999
32870,57111,4993
32876,57120,5002
32882,57135,5027
32896,57159,5068
32922,57190,5122
32957,57229,5186
32999,57277,5263
33046,57332,5352
33095,57389,5447
33138,57440,5540
33174,57485,5625
33210,57529,5702
33250,57575,5775
33286,57613,5843
33315,57641,5902
33340,57664,5954
33361,57683,5997
33375,57698,6029
33381,57706,6043
33382,57706,6040
33384,57704,6027
33386,57702,6011
33384,57697,5989
33373,57685,5959
33355,57667,5920
33332,57644,5873
33304,57616,5816
33268,57578,5746
33227,57530,5665
33184,57478,5574
33138,57423,5475
33086,57366,5367
33033,57307,5254
32981,57245,5136
32932,57183,5019
32882,57120,4903
32829,57052,4787
32773,56981,4669
32717,56911,4552
32658,56841,4435
32597,56768,4317
32539,56698,4202
32489,56634,4088
32444,56572,3972
32399,56509,3855
32347,56442,3733
32291,56373,3610
32236,56308,3496
32183,56247,3386
32126,56183,3274
32070,56122,3159
32022,56071,3049
31977,56023,2944
31930,55972,2840
31886,55921,2738
31847,55873,2642
31808,55826,2552
31767,55780,2464
31727,55733,2380
31685,55683,2298
31638,55632,2216
31595,55588,2140
31560,55551,2073
31530,55523,2015
31502,55499,1960
31469,55471,1904
31435,55441,1847
31408,55413,1795
31383,55386,1743
31360,55359,1691
31342,55336,1643
31328,55318,1599
31317,55300,1554
31304,55280,1505
31284,55249,1444
31254,55208,1376
31216,55160,1306
31176,55112,1237
31142,55073,1174
31117,55045,1124
31094,55022,1081
31067,54998,1037
31042,54972,990
31023,54947,941
31007,54919,887
30991,54890,831
30978,54865,784
30969,54849,759
30965,54848,760
30972,54868,793
30998,54913,874
31058,54994,1017
31155,55115,1227
31285,55273,1506
31446,55471,1860
31637,55707,2281
31854,55973,2758
32100,56266,3286
32371,56583,3858
32655,56917,4460
32949,57266,5084
33248,57622,5712
33540,57969,6330
33817,58302,6932
34086,58622,7519
34347,58923,8084
34588,59200,8609
34800,59450,9084
34985,59668,9507
35144,59855,9874
35271,60010,10176
35370,60133,10420
35452,60231,10616
35518,60302,10762
35563,60344,10855
35586,60361,10899
35589,60356,10899
35579,60331,10860
35560,60292,10792
35533,60243,10700
35494,60183,10585
35441,60112,10441
35373,60031,10274
35298,59945,10095
35224,59859,9911
35152,59774,9720
35073,59680,9520
34989,59576,9312
34900,59464,9096
34804,59343,8872
34700,59209,8640
34590,59067,8403
34482,58929,8168
34389,58806,7941
34306,58696,7722
34221,58584,7503
34128,58464,7280
34028,58340,7052
33931,58218,6827
33834,58101,6608
33731,57985,6395
33627,57869,6195
33531,57759,6004
33450,57663,5828
33384,57581,5669
33326,57507,5526
33276,57444,5403
33232,57391,5302
33194,57350,5224
33166,57324,5173
33151,57313,5145
33144,57311,5138
33142,57315,5147
33150,57328,5172
33170,57351,5211
33197,57386,5267
33231,57432,5342
33278,57492,5437
33334,57564,5550
33391,57637,5668
33446,57708,5788
33505,57781,5913
33563,57851,6034
33616,57912,6142
33666,57968,6240
33719,58021,6333
33776,58078,6422
33833,58133,6502
33886,58180,6571
33928,58214,6626
33955,58234,6663
33967,58241,6683
33965,58236,6683
33947,58216,6657
33916,58182,6610
33879,58139,6550
33833,58086,6477
33780,58027,6389
33726,57965,6289
33669,57898,6181
33605,57827,6069
33542,57758,5954
33480,57690,5835
33419,57620,5712
33359,57551,5585
33301,57483,5456
33247,57419,5331
33194,57354,5206
33145,57286,5080
33098,57215,4952
33049,57142,4823
33004,57069,4695
32957,56999,4572
32903,56929,4450
32840,56860,4325
32767,56786,4196
32691,56711,4065
32610,56634,3930
32529,56558,3795
32457,56485,3669
32396,56418,3550
32340,56354,3439
32286,56292,3332
32234,56235,3231
32188,56183,3136
32148,56138,3045
32114,56097,2955
32081,56057,2868
32044,56017,2782
32011,55977,2698
31986,55942,2619
31964,55907,2546
31939,55867,2475
31899,55818,2401
31851,55764,2327
31804,55714,2259
31766,55674,2198
31735,55639,2139
31703,55603,2078
31672,55564,2018
31649,55529,1958
31632,55497,1896
31615,55468,1833
31589,55435,1769
31552,55396,1702
31508,55353,1631
31461,55306,1558
31414,55260,1485
31374,55220,1419
31345,55190,1361
31329,55169,1312
31320,55154,1272
31311,55140,1237
31302,55127,1211
31302,55126,1204
31315,55140,1225
31346,55177,1284
31401,55243,1390
31484,55341,1551
31598,55478,1776
31741,55656,2067
31916,55871,2424
32119,56116,2843
32341,56384,3314
32575,56670,3829
32826,56974,4384
33092,57293,4968
33365,57619,5566
33637,57946,6168
33902,58266,6763
34157,58573,7336
34398,58860,7874
34624,59124,8374
34829,59363,8830
35012,59576,9238
35167,59756,9589
35289,59896,9879
35377,60001,10110
35436,60079,10287
35477,60134,10411
35504,60167,10489
35522,60183,10525
35533,60186,10529
35532,60177,10507
35518,60151,10458
35487,60107,10378
35439,60046,10262
35376,59970,10111
35297,59877,9933
35201,59769,9734
35096,59647,9518
34988,59518,9292
34880,59389,9063
34770,59258,8831
34652,59125,8590
34531,58990,8344
34409,58851,8095
34283,58705,7842
34152,58557,7583
34021,58410,7322
33891,58266,7061
33758,58121,6800
33628,57976,6543
33506,57836,6291
33394,57698,6044
33297,57569,5804
33209,57449,5577
33120,57333,5362
33037,57225,5160
32965,57132,4978
32901,57052,4820
32846,56985,4685
32802,56930,4573
32767,56890,4486
32741,56864,4425
32722,56844,4384
32711,56833,4364
32713,56841,4367
32728,56865,4393
32750,56897,4439
32775,56937,4505
32812,56988,4591
32860,57047,4691
32909,57106,4798
32960,57168,4913
33016,57237,5035
33069,57306,5158
33113,57367,5272
33151,57421,5376
33185,57469,5470
33212,57509,5554
33231,57541,5628
33252,57570,5695
33277,57598,5759
33303,57621,5813
33329,57640,5854
33356,57655,5882
33379,57668,5898
33400,57686,5905
33420,57703,5904
33434,57712,5895
33435,57709,5877
33420,57688,5841
33388,57651,5788
33343,57602,5719
33294,57549,5637
33249,57496,5550
33208,57443,5457
33165,57384,5355
33114,57314,5242
33055,57238,5125
32992,57162,5006
32929,57090,4885
32868,57022,4767
32807,56955,4651
32746,56889,4532
32690,56824,4413
32641,56761,4295
32594,56699,4175
32544,56638,4055
32489,56574,3935
32430,56510,3817
32370,56446,3702
32312,56383,3588
32262,56325,3476
32218,56271,3369
32176,56218,3263
32136,56167,3157
32103,56118,3055
32069,56070,2958
32034,56023,2867
32003,55975,2784
31974,55926,2704
31946,55880,2623
31920,55838,2544
31894,55801,2470
31867,55769,2400
31835,55738,2327
31795,55702,2248
31746,55658,2163
31692,55606,2074
31635,55551,1982
31576,55494,1890
31515,55433,1797
31459,55374,1704
31412,55322,1616
31371,55272,1531
31330,55219,1450
31292,55172,1379
31264,55136,1325
31246,55112,1288
31233,55095,1258
31228,55089,1238
31237,55100,1245
31272,55140,1301
31338,55221,1420
31432,55339,1603
31550,55489,1851
31695,55673,2168
31865,55889,2551
32060,56134,2996
32283,56406,3499
32536,56710,4054
32811,57039,4647
33092,57377,5259
33375,57716,5880
33661,58056,6501
33938,58389,7109
34199,58706,7695
34444,59007,8250
34676,59289,8769
34888,59546,9250
35081,59776,9685
35258,59978,10069
35413,60151,10393
35544,60301,10660
35654,60426,10874
35738,60519,11034
35797,60579,11144
35836,60615,11212
35854,60624,11235
35852,60610,11219
35840,60583,11176
35816,60545,11107
35780,60495,11011
35734,60434,10889
35675,60361,10742
35606,60274,10571
35526,60177,10380
35437,60069,10172
35347,59953,9954
35252,59830,9730
35146,59698,9498
35028,59557,9262
34907,59413,9023
34787,59269,8780
34667,59129,8542
34548,58990,8306
34430,58850,8064
34311,58711,7812
34192,58574,7557
34081,58442,7307
33982,58321,7071
33894,58214,6848
33807,58109,6630
33714,57999,6418
33618,57890,6214
33520,57782,6022
33427,57676,5844
33346,57577,5684
33275,57487,5540
33210,57411,5413
33149,57347,5306
33101,57299,5226
33077,57277,5182
33075,57279,5169
33086,57300,5180
33111,57335,5213
33145,57375,5262
33183,57418,5321
33221,57463,5392
33263,57514,5475
33312,57566,5567
33363,57619,5664
33414,57672,5764
33462,57725,5866
33504,57771,5965
33540,57812,6060
33577,57853,6148
33615,57891,6227
33648,57925,6296
33669,57952,6355
33682,57973,6404
33694,57994,6447
33706,58013,6478
33709,58022,6494
33706,58024,6498
33698,58019,6488
33683,58003,6463
33666,57979,6425
33651,57953,6378
33634,57925,6317
33613,57896,6248
33588,57864,6171
33558,57827,6087
33522,57784,6000
33483,57736,5911
33437,57684,5815
33387,57629,5710
33338,57571,5602
33289,57510,5491
33237,57442,5376
33180,57368,5259
33122,57295,5140
33064,57222,5020
33008,57153,4901
32955,57084,4780
32905,57017,4658
32857,56956,4538
32807,56893,4417
32757,56828,4294
32711,56767,4178
32666,56711,4070
32618,56651,3965
32568,56586,3854
32517,56520,3739
32463,56456,3628
32412,56402,3525
32371,56357,3430
32334,56316,3337
32297,56272,3243
32259,56225,3150
32220,56176,3062
32178,56122,2976
32133,56062,2888
32090,56001,2800
32055,55947,2718
32025,55904,2645
31995,55863,2572
31955,55817,2496
31910,55769,2424
31867,55725,2357
31832,55688,2294
31804,55656,2233
31778,55628,2172
31752,55603,2113
31726,55579,2051
31702,55556,1988
31682,55536,1928
31666,55520,1872
31647,55496,1810
31620,55458,1742
31587,55416,1679
31555,55377,1621
31525,55341,1567
31500,55310,1522
31480,55284,1486
31463,55260,1458
31447,55244,1439
31436,55241,1443
31440,55261,1488
31471,55316,1589
31535,55411,1752
31636,55547,1984
31778,55728,2297
31964,55958,2695
32189,56230,3167
32442,56532,3699
32715,56860,4286
33007,57214,4920
33316,57586,5590
33634,57969,6280
33955,58355,6977
34273,58738,7677
34580,59108,8366
34874,59458,9029
35158,59794,9661
35432,60111,10254
35688,60401,10795
35917,60656,11276
36110,60874,11692
36270,61059,12047
36399,61212,12341
36498,61330,12571
36572,61417,12742
36622,61474,12856
36646,61500,12914
36648,61498,12926
36636,61480,12904
36610,61445,12848
36563,61393,12756
36500,61330,12637
36431,61257,12494
36353,61165,12324
36266,61057,12132
36176,60943,11929
36082,60824,11717
35986,60699,11495
35888,60571,11268
35785,60441,11042
35679,60311,10815
35571,60180,10586
35457,60046,10357
35341,59915,10130
35228,59792,9905
35125,59680,9685
35032,59576,9470
34946,59476,9261
34863,59376,9056
34776,59269,8849
34682,59153,8635
34591,59037,8420
34503,58927,8208
34414,58821,8005
34331,58724,7818
34261,58640,7650
34202,58564,7503
34147,58495,7371
34092,58429,7249
34042,58369,7144
33999,58320,7059
33964,58283,6994
33938,58258,6950
33917,58240,6925
33897,58227,6913
33882,58217,6915
33872,58218,6935
33869,58230,6973
33873,58252,7028
33888,58283,7100
33916,58323,7184
33956,58370,7271
34005,58423,7361
34063,58485,7457
34130,58555,7556
34195,58623,7651
34250,58681,7735
34302,58731,7814
34347,58772,7885
34380,58802,7944
34404,58826,7994
34427,58849,8033
34448,58867,8058
34461,58876,8069
34466,58875,8067
34464,58865,8048
34446,58839,8010
34415,58801,7956
34380,58757,7890
34343,58711,7813
34303,58663,7730
34257,58613,7640
34208,58557,7539
34165,58502,7432
34130,58453,7329
34096,58407,7231
34055,58355,7132
34006,58292,7026
33957,58224,6911
33907,58157,6791
33851,58089,6667
33793,58021,6538
33736,57956,6410
33677,57886,6286
33617,57812,6164
33561,57741,6041
33506,57674,5917
33447,57604,5794
33386,57531,5671
33328,57461,5550
33273,57398,5431
33217,57340,5315
33167,57288,5198
33123,57236,5080
33082,57181,4962
33034,57124,4848
32976,57064,4738
32914,57002,4632
32854,56938,4529
32796,56873,4422
32744,56811,4315
32695,56751,4209
32641,56691,4107
32586,56628,4006
32539,56569,3907
32502,56521,3818
32466,56477,3735
32432,56433,3656
32405,56395,3585
32383,56362,3520
32361,56332,3460
32335,56300,3403
32305,56265,3347
32275,56230,3287
32247,56199,3230
32218,56170,3177
32190,56141,3123
32166,56113,3066
32144,56084,3007
32117,56048,2944
32082,56010,2874
32039,55964,2799
31994,55913,2722
31950,55861,2645
31903,55807,2565
31851,55752,2486
31803,55704,2415
31756,55663,2352
31716,55630,2304
31691,55614,2278
31686,55620,2278
31703,55647,2309
31744,55700,2380
31813,55781,2503
31911,55894,2685
32044,56044,2935
32214,56236,3260
32415,56469,3660
32639,56735,4130
32879,57026,4656
33134,57335,5224
33405,57665,5829
33692,58015,6467
33987,58378,7126
34285,58745,7793
34580,59106,8453
34866,59456,9092
35141,59789,9707
35401,60103,10288
35642,60391,10828
35860,60648,11314
36049,60868,11734
36209,61054,12088
36344,61211,12385
36459,61341,12631
36554,61444,12822
36627,61521,12957
36677,61572,13042
36704,61595,13081
36703,61587,13078
36680,61555,13036
36639,61506,12952
36586,61442,12834
36524,61365,12689
36456,61272,12522
36377,61166,12339
36289,61051,12140
36192,60930,11927
36086,60805,11703
35977,60679,11471
35869,60553,11237
35761,60427,11005
35648,60298,10772
35532,60166,10537
35416,60036,10303
35304,59911,10074
35194,59789,9846
35083,59668,9620
34969,59543,9397
34854,59418,9174
34748,59300,8951
34652,59186,8726
34563,59072,8499
34475,58957,8275
34384,58842,8054
34294,58729,7842
34204,58618,7642
34118,58513,7458
34040,58418,7293
33965,58327,7144
33897,58243,7015
33847,58181,6915
33815,58141,6843
33799,58119,6796
33792,58114,6774
33784,58117,6771
33778,58122,6779
33780,58131,6796
33789,58149,6828
33804,58175,6876
33825,58206,6932
33852,58239,6995
33887,58278,7063
33931,58324,7135
33982,58377,7215
34034,58432,7304
34079,58482,7396
34119,58528,7483
34160,58571,7558
34198,58607,7620
34225,58636,7671
34244,58659,7715
34258,58678,7747
34266,58688,7762
34271,58694,7766
34273,58695,7759
34269,58690,7740
34261,58678,7710
34250,58661,7670
34236,58638,7618
34215,58606,7553
34183,58562,7472
34140,58507,7374
34087,58446,7267
34028,58379,7158
33960,58304,7044
33888,58220,6922
33815,58135,6791
33739,58049,6656
33660,57963,6520
33582,57882,6381
33505,57801,6239
33431,57723,6097
33360,57647,5955
33291,57570,5813
33227,57497,5676
33167,57427,5542
33107,57356,5409
33049,57285,5276
32997,57216,5145
32942,57144,5012
32880,57068,4878
32821,56993,4744
32762,56919,4611
32701,56846,4478
32641,56771,4344
32579,56695,4214
32518,56624,4090
32456,56555,3970
32399,56489,3854
32345,56427,3743
32294,56367,3634
32247,56309,3526
32210,56260,3426
32180,56218,3335
32153,56178,3252
32123,56138,3172
32085,56092,3093
32044,56043,3014
32000,55992,2938
31954,55941,2862
31911,55895,2783
31871,55854,2704
31836,55818,2630
31807,55787,2565
31773,55753,2504
31735,55715,2439
31693,55672,2370
31652,55626,2302
31610,55579,2239
31567,55531,2174
31528,55485,2108
31500,55448,2049
31481,55423,1997
31466,55402,1946
31445,55376,1890
31419,55346,1833
31387,55310,1772
31348,55270,1706
31311,55230,1639
31278,55193,1574
31248,55160,1513
31220,55132,1458
31195,55104,1401
31169,55076,1344
31144,55052,1295
31123,55034,1261
31112,55028,1254
31122,55046,1288
31166,55098,1376
31247,55190,1526
31355,55317,1739
31490,55481,2017
31659,55687,2364
31859,55932,2782
32083,56209,3263
32328,56510,3792
32590,56830,4360
32860,57160,4960
33142,57501,5583
33429,57848,6219
33713,58189,6848
33988,58516,7460
34248,58822,8046
34487,59104,8599
34707,59366,9117
34915,59612,9593
35108,59838,10016
35282,60038,10384
35431,60209,10696
35553,60350,10951
35653,60465,11151
35730,60549,11298
35780,60596,11392
35803,60610,11433
35803,60602,11429
35785,60581,11391
35752,60544,11321
35704,60489,11215
35640,60414,11075
35564,60320,10907
35477,60210,10717
35376,60090,10509
35264,59960,10282
35147,59825,10041
35034,59691,9798
34923,59557,9557
34805,59418,9314
34685,59280,9068
34567,59143,8825
34452,59008,8584
34342,58875,8344
34234,58744,8103
34124,58613,7860
34012,58479,7615
33895,58338,7367
33774,58195,7119
33655,58055,6874
33536,57916,6633
33426,57785,6400
33336,57670,6180
33258,57569,5975
33180,57477,5787
33104,57391,5615
33036,57312,5458
32976,57242,5318
32924,57186,5201
32883,57144,5109
32857,57118,5041
32843,57103,4995
32833,57094,4967
32829,57093,4960
32831,57103,4975
32840,57121,5008
32859,57145,5057
32889,57179,5124
32928,57221,5208
32970,57270,5301
33017,57324,5402
33070,57382,5510
33120,57437,5620
33163,57490,5729
33204,57541,5834
33245,57594,5938
33285,57649,6038
33318,57695,6126
33347,57733,6198
33379,57769,6257
33410,57802,6299
33438,57828,6326
33461,57849,6339
33472,57858,6336
33464,57848,6312
33440,57819,6268
33405,57779,6208
33368,57736,6138
33334,57694,6063
33303,57655,5987
33269,57615,5905
33225,57568,5817
33172,57512,5720
33116,57449,5618
33065,57386,5513
33015,57324,5407
32965,57261,5299
32915,57199,5188
32866,57136,5075
32815,57072,4960
32765,57006,4843
32715,56938,4723
32662,56867,4603
32604,56796,4480
32543,56721,4349
32480,56644,4213
32412,56563,4073
32340,56484,3933
32274,56410,3802
32220,56345,3682
32178,56287,3566
32138,56230,3448
32093,56169,3331
32044,56104,3219
31992,56036,3108
31935,55967,2999
31883,55904,2895
31843,55852,2800
31812,55807,2713
31783,55764,2630
31749,55722,2546
31708,55678,2463
31662,55634,2385
31619,55594,2313
31581,55556,2243
31543,55512,2168
31503,55466,2089
31463,55421,2010
31426,55383,1936
31397,55353,1867
31375,55327,1804
31354,55302,1748
31334,55278,1696
31316,55253,1646
31295,55224,1594
31272,55191,1541
31249,55156,1489
31222,55115,1433
31185,55064,1370
31137,55009,1300
31087,54956,1226
31040,54908,1152
30998,54865,1083
30959,54829,1020
30922,54796,960
30886,54769,902
30854,54747,853
30828,54730,816
30814,54722,797
30816,54730,804
30843,54763,851
30899,54826,948
30980,54923,1101
31083,55056,1316
31213,55224,1595
31373,55425,1934
31558,55652,2327
31761,55901,2774
31980,56172,3272
32219,56463,3812
32477,56773,4387
32747,57095,4981
33019,57421,5576
33288,57741,6163
33547,58049,6728
33792,58337,7263
34024,58604,7762
34240,58847,8220
34434,59066,8634
34602,59258,9000
34738,59417,9311
34840,59543,9563
34915,59638,9757
34971,59707,9897
35010,59758,9993
35041,59798,10059
35065,59824,10092
35078,59832,10088
35072,59815,10044
35043,59771,9962
34995,59703,9842
34928,59615,9692
34849,59513,9523
34769,59407,9340
34689,59301,9148
34599,59187,8942
34498,59068,8722
34389,58945,8494
34277,58821,8265
34163,58697,8038
34052,58575,7808
33948,58453,7570
33845,58331,7330
33741,58208,7091
33636,58082,6853
33528,57951,6611
33416,57813,6366
33302,57672,6118
33191,57532,5872
33086,57396,5633
32983,57263,5398
32884,57137,5170
32794,57020,4957
32711,56912,4758
32632,56812,4572
32560,56721,4406
32498,56645,4268
32448,56585,4162
32409,56541,4082
32379,56509,4021
32356,56485,3981
32345,56476,3966
32345,56482,3973
32351,56497,3998
32364,56518,4040
32383,56545,4094
32407,56579,4160
32438,56623,4238
32473,56669,4321
32510,56717,4409
32554,56770,4505
32606,56827,4602
32655,56882,4697
32701,56937,4792
32745,56992,4887
32783,57038,4972
32813,57072,5045
32834,57095,5104
32843,57110,5148
32849,57122,5178
32851,57128,5196
32848,57125,5202
32840,57116,5195
32829,57104,5179
32819,57089,5159
32805,57067,5127
32788,57040,5084
32769,57009,5030
32743,56971,4966
32715,56932,4893
32689,56894,4814
32661,56853,4728
32627,56810,4634
32587,56762,4533
32542,56709,4428
32493,56652,4321
32436,56591,4212
32373,56524,4097
32302,56450,3977
32230,56372,3849
32162,56297,3720
32100,56229,3595
32040,56161,3472
31980,56090,3349
31919,56022,3230
31861,55960,3122
31808,55903,3019
31761,55848,2914
31720,55795,2808
31686,55745,2706
31661,55698,2609
31639,55652,2516
31615,55605,2425
31587,55558,2336
31548,55508,2241
31504,55453,2143
31462,55401,2047
31420,55349,1949
31372,55293,1848
31319,55237,1750
31271,55183,1658
31227,55132,1567
31186,55081,1476
31148,55032,1391
31115,54992,1313
31085,54956,1239
31055,54921,1167
31027,54889,1102
31000,54857,1043
30972,54823,984
30945,54788,920
30926,54759,857
30906,54735,796
30877,54713,732
30841,54686,664
30802,54650,594
30766,54613,526
30730,54574,463
30689,54532,404
30648,54496,349
30616,54469,301
30596,54450,262
30594,54441,236
30605,54448,234
30630,54478,273
30678,54541,376
30757,54640,546
30873,54778,782
31022,54952,1079
31199,55162,1439
31400,55405,1861
31617,55674,2340
31850,55965,2866
32095,56269,3420
32353,56589,3998
32622,56918,4595
32896,57247,5200
33170,57573,5805
33438,57891,6398
33692,58191,6967
33937,58474,7508
34170,58740,8020
34385,58987,8493
34579,59212,8920
34753,59415,9298
34902,59589,9623
35022,59728,9887
35113,59832,10088
35177,59905,10232
35217,59947,10322
35239,59964,10366
35247,59963,10370
35233,59942,10336
35199,59901,10262
35147,59840,10148
35085,59766,10006
35021,59683,9844
34953,59589,9665
34879,59492,9477
34797,59393,9285
34704,59288,9087
34600,59176,8879
34491,59058,8666
34382,58935,8448
34273,58805,8222
34163,58670,7992
34049,58533,7759
33934,58395,7524
33820,58253,7285
33702,58109,7041
33578,57963,6793
33453,57819,6545
33333,57678,6300
33215,57540,6056
33097,57407,5818
32986,57283,5590
32886,57167,5371
32796,57059,5164
32720,56964,4979
32660,56885,4816
32606,56817,4672
32553,56756,4548
32505,56704,4444
32464,56660,4358
32424,56621,4286
32393,56591,4230
32375,56576,4196
32368,56570,4184
32367,56571,4191
32377,56585,4220
32399,56614,4269
32426,56652,4336
32458,56694,4417
32499,56747,4512
32547,56810,4616
32594,56870,4718
32635,56921,4811
32675,56970,4897
32722,57020,4986
32772,57070,5076
32821,57120,5160
32867,57167,5235
32911,57211,5300
32950,57248,5355
32980,57276,5398
32994,57291,5425
32995,57297,5439
32990,57296,5440
32976,57286,5431
32954,57267,5411
32925,57241,5380
32894,57208,5336
32862,57169,5277
32828,57123,5202
32787,57067,5115
32737,57003,5020
32679,56934,4919
32622,56864,4815
32567,56797,4711
32514,56731,4607
32464,56671,4505
32420,56617,4403
32379,56565,4298
32337,56511,4187
32287,56447,4070
32232,56379,3949
32178,56310,3828
32125,56243,3709
32073,56180,3590
32020,56118,3470
31967,56056,3352
31914,55993,3237
31861,55933,3128
31811,55877,3024
31763,55823,2919
31712,55767,2807
31661,55711,2698
31612,55659,2593
31564,55606,2490
31519,55553,2387
31483,55503,2289
31458,55461,2202
31440,55426,2127
31421,55391,2061
31400,55357,1999
31380,55321,1933
31357,55280,1860
31335,55239,1785
31314,55201,1714
31291,55168,1645
31270,55142,1579
31252,55119,1518
31234,55095,1461
31215,55070,1406
31196,55047,1352
31174,55021,1295
31147,54994,1236
31126,54970,1183
31111,54950,1133
31094,54928,1080
31076,54905,1032
31061,54884,989
31051,54861,948
31037,54836,906
31018,54808,861
30999,54779,817
30977,54752,772
30945,54721,725
30903,54685,677
30860,54647,632
30825,54615,595
30807,54596,567
30809,54595,556
30828,54614,577
30867,54658,640
30926,54727,755
31002,54820,925
31095,54941,1157
31215,55097,1450
31369,55292,1802
31553,55524,2213
31764,55787,2686
32004,56080,3215
32266,56394,3790
32546,56725,4403
32844,57076,5047
33151,57438,5705
33449,57794,6362
33734,58139,7006
34008,58473,7629
34275,58797,8231
34529,59105,8800
34766,59387,9319
34976,59636,9777
35158,59849,10168
35308,60026,10496
35426,60164,10764
35515,60268,10977
35581,60346,11140
35629,60400,11253
35657,60429,11316
35660,60431,11330
35641,60413,11302
35610,60380,11239
35570,60329,11142
35521,60266,11018
35467,60194,10875
35410,60112,10716
35344,60021,10544
35268,59923,10359
35180,59816,10160
35081,59702,9948
34976,59583,9731
34873,59463,9514
34771,59344,9300
34671,59230,9092
34579,59123,8892
34494,59018,8696
34408,58910,8495
34318,58803,8295
34225,58696,8097
34127,58582,7895
34021,58460,7687
33911,58337,7477
33804,58218,7267
33703,58104,7064
33614,57997,6873
33533,57898,6692
33454,57803,6520
33383,57715,6361
33319,57636,6216
33258,57563,6085
33199,57498,5970
33149,57444,5873
33113,57406,5795
33094,57382,5737
33089,57367,5699
33092,57362,5681
33103,57368,5682
33117,57380,5701
33130,57400,5738
33141,57424,5785
33152,57451,5841
33171,57487,5909
33195,57523,5982
33225,57559,6059
33270,57601,6145
33323,57651,6238
33376,57706,6335
33427,57761,6429
33469,57808,6513
33501,57847,6583
33530,57880,6642
33554,57905,6690
33573,57922,6723
33584,57931,6743
33591,57932,6749
33593,57927,6742
33589,57916,6726
33578,57905,6703
33565,57893,6673
33549,57876,6633
33529,57852,6581
33503,57823,6519
33474,57788,6446
33441,57746,6362
33401,57697,6271
33356,57646,6174
33311,57593,6075
33266,57540,5980
33224,57491,5891
33187,57448,5803
33152,57407,5712
33112,57358,5613
33064,57297,5501
33011,57230,5380
32961,57163,5262
32918,57099,5149
32876,57035,5034
32827,56964,4915
32769,56888,4796
32711,56813,4679
32656,56740,4562
32601,56669,4442
32546,56598,4317
32493,56529,4193
32441,56465,4077
32391,56408,3965
32344,56354,3855
32302,56303,3748
32260,56253,3645
32217,56202,3545
32175,56149,3450
32135,56098,3359
32096,56050,3268
32060,56005,3180
32020,55959,3095
31977,55913,3014
31933,55868,2937
31891,55826,2864
31856,55789,2796
31821,55753,2730
31781,55712,2663
31741,55670,2594
31703,55630,2525
31669,55592,2459
31641,55557,2396
31614,55520,2335
31580,55477,2269
31540,55433,2196
31497,55387,2117
31454,55339,2034
31414,55294,1955
31384,55255,1885
31361,55220,1819
31338,55184,1755
31307,55144,1692
31268,55100,1624
31223,55051,1546
31176,55000,1468
31137,54958,1401
31111,54929,1346
31097,54911,1302
31092,54906,1279
31100,54917,1283
31123,54947,1327
31167,55005,1422
31238,55098,1580
31336,55227,1798
31465,55394,2078
31624,55597,2424
31807,55829,2831
32013,56090,3294
32248,56382,3813
32508,56698,4377
32782,57025,4966
33054,57351,5568
33320,57672,6174
33582,57988,6776
33840,58297,7370
34089,58595,7945
34327,58878,8490
34549,59141,8998
34750,59381,9460
34931,59598,9871
35091,59788,10231
35231,59948,10537
35350,60081,10787
35444,60183,10976
35510,60250,11105
35553,60289,11184
35575,60308,11223
35579,60310,11226
35566,60296,11194
35537,60267,11127
35491,60217,11029
35428,60148,10905
35355,60067,10755
35273,59974,10576
35180,59869,10374
35084,59755,10161
34992,59640,9948
34900,59522,9732
34806,59399,9511
34705,59272,9288
34598,59144,9067
34487,59014,8846
34374,58884,8622
34263,58756,8396
34153,58629,8166
34042,58500,7932
33934,58370,7699
33828,58240,7469
33725,58112,7239
33627,57991,7017
33540,57880,6807
33458,57779,6611
33375,57681,6424
33293,57589,6246
33217,57504,6077
33142,57421,5920
33071,57343,5779
33012,57277,5657
32963,57223,5555
32929,57182,5474
32906,57153,5412
32889,57130,5363
32878,57112,5323
32873,57100,5299
32874,57099,5292
32880,57106,5301
32886,57115,5323
32893,57124,5355
32912,57140,5396
32940,57167,5448
32971,57203,5510
33004,57244,5578
33040,57292,5655
33073,57344,5739
33098,57391,5819
33120,57430,5889
33148,57466,5950
33174,57496,6000
33193,57518,6040
33206,57535,6067
33216,57548,6082
33223,57555,6091
33223,57553,6094
33218,57544,6091
33207,57532,6077
33188,57513,6050
33164,57489,6011
33135,57455,5956
33099,57410,5887
33065,57365,5812
33036,57323,5736
33009,57280,5658
32979,57234,5576
32945,57186,5489
32910,57139,5399
32871,57088,5301
32821,57028,5192
32764,56962,5075
32707,56894,4957
32646,56826,4836
32583,56757,4710
32514,56681,4580
32437,56598,4442
32356,56510,4295
32282,56424,4147
32213,56341,4001
32147,56260,3859
32087,56187,3727
32033,56121,3600
31978,56055,3475
31919,55988,3351
31855,55917,3225
31792,55845,3103
31739,55780,2988
31695,55718,2878
31650,55654,2765
31602,55588,2652
31552,55526,2541
31501,55465,2428
31444,55398,2312
31379,55327,2197
31312,55254,2087
31252,55187,1982
31203,55128,1880
31159,55075,1783
31115,55029,1696
31080,54991,1620
31053,54960,1553
31029,54932,1495
31006,54908,1441
30986,54885,1387
30967,54858,1328
30948,54827,1264
30925,54798,1197
30894,54768,1130
30855,54735,1064
30810,54697,999
30765,54659,931
30721,54619,856
30675,54573,775
30625,54523,693
30573,54471,609
30517,54415,522
30452,54354,432
30383,54289,344
30322,54227,1576
30269,54172,6184
30223,54124,13895
30183,54082,22972
30148,54040,32191
30118,54005,39455
30105,53991,42267
30115,54003,40697
30148,54042,36463
30205,54115,30895
30289,54226,24955
30403,54373,19290
30547,54551,14295
30720,54756,10175
30920,54990,6994
31142,55251,4715
31374,55527,3236
31606,55805,2426
31839,56087,2155
32077,56376,2295
32317,56668,2722
32555,56956,3329
32784,57229,4033
33002,57486,4770
33208,57728,5494
33393,57946,6171
33556,58143,6781
33698,58318,7308
33814,58465,7741
33902,58581,8081
33961,58664,8336
33996,58718,8513
34017,58749,8621
34028,58758,8668
34024,58747,8661
34006,58717,8607
33968,58667,8514
33914,58599,8395
33847,58516,8252
33770,58423,8085
33688,58325,7900
33611,58230,7709
33539,58137,7514
33465,58039,7313
33383,57934,7108
33292,57821,6897
33192,57700,6679
33087,57577,6457
32981,57455,6238
32878,57331,6019
32776,57207,5795
32679,57085,5571
32588,56966,5350
32503,56852,5137
32414,56737,4928
32318,56619,4715
32223,56501,4499
32135,56389,4290
32050,56283,4090
31967,56178,3894
31891,56078,3707
31824,55989,3530
31762,55907,3362
31701,55832,3207
31638,55764,3072
31580,55705,2961
31530,55656,2873
31490,55617,2807
31460,55590,2762
31439,55575,2734
31430,55572,2726
31430,55577,2737
31435,55585,2764
31450,55604,2806
31468,55634,2860
31489,55670,2925
31522,55715,3000
31563,55768,3083
31606,55821,3175
31652,55873,3271
31703,55922,3365
31760,55973,3454
31817,56022,3532
31867,56065,3599
31909,56102,3660
31945,56138,3715
31978,56171,3764
32003,56196,3803
32017,56211,3829
32019,56217,3845
32014,56217,3848
32006,56212,3837
31986,56194,3809
31954,56166,3766
31917,56130,3715
31877,56087,3653
31837,56042,3583
31801,55999,3512
31768,55957,3439
31739,55915,3364
31710,55872,3285
31673,55821,3195
31629,55763,3096
31580,55702,2995
31526,55638,2894
31472,55574,2788
31415,55510,2675
31354,55443,2556
31297,55380,2439
31247,55319,2330
31196,55255,2223
31144,55189,2115
31089,55125,2008
31033,55061,1902
30981,55000,1799
30936,54946,1699
30893,54893,1600
30851,54837,1498
30811,54785,1398
30777,54739,1306
30747,54697,1218
30715,54656,1129
30680,54613,1040
30635,54561,947
30584,54503,849
30533,54446,751
30490,54396,664
30456,54352,589
30424,54310,520
30390,54268,449
30353,54227,378
30316,54186,1622
30284,54146,6232
30252,54107,13940
30223,54068,23014
30194,54027,32230
30168,53988,40793
30147,53957,48251
30127,53928,54395
30097,53897,59191
30057,53865,62730
30012,53829,65170
29965,53791,1166
29924,53755,1994
29892,53724,2303
29874,53700,2253
29868,53683,1975
29869,53670,1575
29875,53662,1131
29883,53661,696
29892,53665,300
29901,53674,65504
29916,53692,65255
29949,53731,63783
30003,53798,59039
30078,53897,51291
30179,54025,42277
30311,54182,33218
30468,54367,24896
30643,54578,17758
30837,54818,11998
31046,55080,7627
31266,55358,4542
31497,55645,2571
31730,55929,1505
31958,56205,1136
32179,56472,1271
32394,56725,1748
32596,56963,2434
32780,57181,3220
32949,57381,4024
33097,57556,4789
33222,57704,5479
33330,57830,6072
33422,57933,6553
33492,58010,6924
33543,58065,7193
33577,58101,7369
33592,58117,7467
33583,58108,7494
33552,58077,7462
33514,58034,7388
33472,57983,7282
33426,57923,7148
33373,57853,6995
33312,57774,6828
33246,57685,6644
33169,57582,6444
33078,57468,6234
32985,57351,6020
32894,57233,5806
32802,57115,5592
32712,56998,5376
32624,56883,5161
32538,56773,4952
32451,56666,4746
32359,56555,4536
32264,56440,4325
32170,56325,4113
32076,56209,3898
31984,56092,3682
31897,55979,3471
31818,55875,3271
31741,55776,3081
31665,55682,2901
31599,55600,2739
31543,55528,2594
31491,55462,2463
31442,55399,2347
31401,55348,2252
31373,55314,2180
31354,55290,2124
31345,55276,2086
31344,55275,2070
31345,55283,2071
31349,55296,2088
31362,55317,2118
31382,55346,2160
31407,55380,2215
31441,55425,2282
31490,55481,2359
31544,55539,2445
31596,55594,2536
31646,55647,2630
31695,55699,2720
31738,55743,2803
31771,55776,2879
31799,55804,2948
31827,55831,3012
31858,55858,3073
31886,55882,3127
31902,55900,3169
31908,55911,3197
31903,55913,3209
31890,55906,3204
31870,55889,3184
31845,55862,3156
31820,55834,3123
31798,55808,3084
31774,55779,3032
31743,55742,2969
31701,55695,2898
31653,55643,2825
31608,55595,2750
31566,55550,2669
31524,55503,2580
31482,55453,2489
31446,55406,2399
31415,55362,2312
31381,55319,2225
31345,55277,2139
31306,55232,2051
31258,55178,1957
31205,55124,1862
31152,55070,1766
31098,55014,1667
31043,54956,1567
30988,54899,1464
30931,54841,1360
30876,54780,1258
30826,54721,1156
30776,54659,1054
30722,54597,952
30670,54538,853
30618,54479,758
30569,54421,667
30530,54372,584
30501,54331,505
30474,54289,1741
30444,54242,6339
30410,54193,14037
30377,54151,23105
30349,54117,32319
30328,54087,40881
30309,54056,48331
30283,54020,54461
30244,53976,59243
30196,53924,62766
30149,53872,65196
30104,53824,1189
30059,53776,2012
30016,53728,2307
29972,53681,2236
29927,53635,1937
29887,53595,1514
29856,53561,1044
29832,53535,585
29817,53522,183
29822,53532,65402
29853,53573,65186
29909,53645,63758
29994,53751,59069
30112,53894,51391
30258,54070,42449
30417,54270,33447
30591,54493,25175
30778,54736,18079
30980,54994,12350
31194,55261,8002
31413,55530,4931
31634,55802,2965
31859,56079,1909
32085,56357,1554
32302,56624,1704
32505,56873,2185
32690,57098,2858
32860,57304,3621
33018,57494,4405
33166,57668,5150
33299,57820,5817
33412,57946,6385
33498,58042,6841
33557,58108,7184
33596,58152,7431
33616,58176,7595
33617,58179,7684
33602,58164,7705
33573,58130,7666
33529,58074,7575
33466,58000,7438
33393,57913,7271
33314,57817,7084
33227,57708,6877
33133,57593,6660
33038,57476,6437
32937,57356,6212
32832,57234,5986
32723,57107,5754
32605,56975,5515
32488,56842,5276
32380,56713,5044
32280,56590,4822
32180,56465,4601
32078,56338,4377
31972,56209,4150
31868,56081,3924
31769,55959,3703
31676,55845,3489
31588,55737,3285
31504,55630,3089
31425,55526,2898
31354,55432,2718
31287,55345,2548
31220,55262,2389
31156,55186,2247
31099,55118,2125
31053,55066,2027
31022,55031,1953
31008,55013,1901
31006,55009,1871
31006,55013,1861
31007,55024,1868
31015,55045,1894
31032,55072,1933
31054,55104,1983
31080,55139,2041
31109,55177,2106
31145,55218,2182
31187,55264,2268
31234,55314,2361
31279,55364,2455
31319,55412,2544
31358,55459,2630
31389,55500,2708
31410,55533,2775
31431,55564,2831
31454,55593,2878
31478,55620,2919
31498,55639,2950
31508,55647,2969
31515,55651,2983
31529,55658,2998
31548,55664,3008
31562,55661,3002
31564,55648,2980
31554,55629,2946
31536,55603,2900
31516,55571,2844
31494,55537,2778
31468,55497,2705
31438,55451,2623
31407,55405,2536
31375,55360,2449
31340,55315,2363
31302,55267,2276
31261,55217,2188
31220,55163,2098
31176,55105,2005
31132,55044,1909
31088,54984,1813
31046,54931,1721
31007,54884,1631
30970,54838,1541
30933,54795,1453
30902,54754,1368
30875,54715,1286
30848,54674,1206
30817,54628,1124
30783,54583,1040
30752,54543,961
30727,54511,891
30703,54481,819
30679,54453,739
30650,54418,654
30620,54374,570
30595,54331,493
30573,54298,424
30548,54268,363
30521,54238,306
30493,54206,1566
30463,54168,6190
30431,54123,13909
30405,54085,22993
30382,54049,32218
30354,54007,40780
30318,53960,48221
30276,53913,54342
30230,53869,59121
30187,53830,62651
30147,53790,65094
30116,53754,1100
30091,53726,1937
30074,53708,2259
30066,53700,2229
30065,53696,1975
30070,53697,1601
30083,53705,1187
30097,53720,790
30113,53745,64675
30139,53789,59743
30187,53863,51815
30265,53970,42636
30375,54113,33440
30518,54296,25024
30697,54520,17833
30916,54787,12059
31178,55096,7717
31480,55440,4704
31808,55806,2846
32145,56183,1929
32477,56561,1735
32792,56926,2053
33076,57265,2704
33322,57566,3541
33536,57831,4455
33727,58069,5376
33904,58289,6254
34075,58498,7060
34241,58696,7774
34392,58874,8383
34519,59024,8880
34626,59147,9264
34713,59241,9541
34771,59299,9716
34796,59320,9800
34790,59309,9805
34758,59274,9747
34704,59219,9638
34636,59145,9491
34558,59057,9319
34473,58958,9128
34387,58855,8929
34303,58751,8728
34223,58643,8525
34146,58539,8327
34074,58442,8133
34001,58349,7942
33925,58255,7751
33842,58157,7559
33754,58055,7366
33662,57947,7171
33562,57830,6970
33462,57711,6764
33361,57591,6552
33259,57470,6336
33162,57350,6123
33063,57231,5914
32960,57111,5707
32857,56995,5504
32760,56884,5307
32666,56776,5116
32573,56672,4932
32489,56573,4756
32423,56488,4597
32368,56417,4457
32321,56357,4337
32284,56310,4242
32256,56275,4170
32232,56249,4117
32213,56231,4081
32205,56222,4065
32209,56224,4067
32223,56239,4085
32242,56261,4115
32264,56288,4153
32286,56319,4200
32315,56360,4260
32353,56409,4328
32397,56461,4400
32436,56509,4472
32469,56551,4546
32498,56591,4622
32532,56633,4701
32569,56676,4780
32604,56713,4854
32637,56745,4921
32669,56777,4986
32695,56806,5046
32716,56830,5095
32733,56847,5126
32745,56855,5141
32752,56857,5147
32747,56851,5141
32731,56834,5115
32710,56810,5073
32687,56784,5022
32658,56755,4966
32624,56722,4901
32591,56685,4830
32558,56645,4757
32530,56605,4686
32501,56561,4612
32464,56507,4525
32421,56446,4427
32372,56381,4321
32317,56312,4211
32259,56243,4097
32202,56175,3980
32145,56108,3860
32085,56042,3743
32031,55981,3633
31982,55921,3525
31935,55861,3417
31894,55810,3317
31861,55770,3226
31829,55733,3140
31799,55697,3052
31768,55658,2961
31735,55617,2871
31696,55572,2777
31651,55520,2677
31603,55466,2576
31558,55415,2479
31516,55366,2384
31478,55315,2291
31443,55266,2206
31406,55217,2127
31361,55166,2042
31312,55115,1953
31264,55065,1864
31221,55017,1777
31183,54974,1692
31150,54938,1614
31125,54906,1542
31106,54874,1472
31081,54837,1403
31049,54797,1335
31020,54759,1268
30998,54725,1207
30977,54691,1148
30947,54651,1083
30905,54602,1012
30855,54550,939
30803,54501,867
30756,54459,799
30712,54418,730
30664,54373,661
30618,54328,594
30580,54291,533
30555,54265,487
30543,54248,464
30546,54254,471
30572,54292,515
30620,54359,602
30694,54453,742
30797,54579,940
30929,54738,1194
31089,54930,1510
31277,55153,1889
31485,55402,2325
31709,55673,2812
31950,55966,3347
32208,56280,3926
32481,56612,4536
32760,56952,5164
33038,57292,5793
33309,57621,6410
33565,57932,7005
33803,58223,7567
34019,58489,8085
34216,58730,8555
34396,58949,8982
34563,59148,9367
34716,59320,9698
34844,59460,9968
34945,59569,10178
35021,59652,10335
35069,59709,10439
35096,59741,10496
35111,59752,10511
35115,59746,10491
35107,59721,10436
35084,59675,10347
35041,59612,10231
34981,59536,10090
34906,59449,9926
34819,59355,9744
34725,59252,9550
34629,59142,9350
34535,59031,9145
34441,58921,8942
34343,58807,8739
34240,58687,8532
34134,58564,8322
34030,58443,8109
33925,58321,7890
33817,58194,7665
33707,58062,7435
33600,57936,7208
33501,57819,6990
33409,57708,6782
33319,57599,6581
33233,57495,6389
33151,57395,6209
33074,57304,6042
33005,57222,5886
32941,57142,5735
32879,57063,5590
32825,56994,5461
32776,56937,5346
32728,56884,5243
32685,56840,5157
32648,56806,5096
32618,56778,5054
32597,56759,5029
32586,56749,5011
32579,56743,4997
32578,56742,4994
32588,56750,5006
32609,56769,5034
32638,56800,5080
32671,56838,5138
32705,56876,5203
32736,56912,5274
32760,56944,5347
32784,56977,5423
32813,57016,5504
32847,57062,5586
32886,57112,5665
32923,57158,5739
32957,57200,5806
32987,57234,5863
33008,57261,5907
33019,57279,5938
33026,57288,5950
33033,57292,5949
33040,57291,5938
33039,57282,5915
33028,57264,5885
33010,57243,5852
32993,57219,5814
32978,57194,5770
32959,57163,5716
32932,57124,5648
32896,57077,5568
32856,57026,5481
32813,56974,5391
32773,56927,5304
32736,56884,5218
32693,56840,5128
32648,56793,5030
32599,56737,4924
32544,56673,4808
32483,56604,4686
32417,56536,4565
32350,56471,4454
32284,56405,4348
32221,56332,4239
32158,56253,4119
32096,56172,3989
32038,56093,3854
31985,56020,3723
31939,55958,3606
31897,55908,3502
31850,55857,3403
31794,55798,3304
31737,55736,3202
31685,55677,3096
31639,55619,2988
31593,55560,2881
31546,55502,2778
31503,55445,2676
31471,55394,2576
31445,55350,2485
31415,55310,2403
31378,55269,2321
31334,55225,2237
31287,55180,2154
31239,55135,2073
31193,55090,1989
31151,55048,1904
31118,55011,1831
31095,54982,1772
31072,54953,1720
31038,54917,1663
30999,54876,1601
30959,54838,1542
30917,54799,1486
30874,54756,1428
30837,54717,1369
30805,54685,1308
30775,54657,1245
30745,54630,1183
30711,54598,1121
30673,54556,1056
30631,54508,989
30586,54457,918
30540,54406,839
30499,54359,761
30464,54320,699
30442,54296,662
30436,54291,654
30445,54307,672
30475,54348,728
30533,54420,841
30618,54525,1012
30732,54664,1237
30874,54841,1528
31046,55055,1888
31245,55300,2311
31469,55571,2789
31712,55864,3309
31972,56176,3864
32241,56500,4444
32512,56827,5038
32777,57147,5634
33029,57455,6220
33272,57751,6784
33503,58031,7321
33714,58290,7824
33906,58523,8281
34080,58731,8688
34236,58915,9042
34364,59068,9343
34461,59188,9589
34534,59279,9784
34592,59348,9932
34632,59394,10030
34658,59416,10080
34668,59416,10084
34656,59393,10045
34624,59350,9964
34581,59294,9851
34530,59229,9717
34467,59151,9562
34390,59056,9387
34301,58949,9199
34204,58835,9001
34101,58716,8793
33990,58591,8578
33872,58461,8356
33757,58331,8131
33654,58207,7905
33560,58087,7677
33466,57969,7449
33373,57853,7224
33279,57737,6999
33185,57619,6772
33086,57497,6542
32981,57369,6304
32872,57237,6062
32765,57106,5823
32657,56975,5594
32551,56850,5375
32452,56734,5169
32364,56630,4981
32290,56542,4815
32230,56465,4669
32179,56398,4541
32135,56343,4431
32098,56302,4339
32069,56275,4263
32046,56252,4199
32021,56227,4140
31994,56202,4087
31966,56178,4045
31942,56162,4021
31929,56157,4018
31927,56163,4035
31937,56180,4072
31963,56211,4129
32004,56254,4202
32057,56305,4287
32114,56359,4381
32166,56411,4478
32213,56459,4573
32255,56507,4666
32293,56554,4755
32330,56601,4838
32368,56647,4914
32406,56693,4985
32440,56735,5044
32465,56766,5083
32479,56782,5101
32484,56785,5105
32487,56781,5101
32487,56771,5087
32477,56754,5059
32454,56726,5017
32428,56694,4966
32400,56658,4906
32368,56616,4840
32332,56571,4769
32289,56521,4687
32243,56466,4602
32194,56408,4510
32142,56347,4405
32092,56285,4294
32048,56226,4186
32000,56169,4079
31949,56110,3970
31901,56052,3861
31857,55997,3753
31817,55944,3643
31778,55889,3533
31740,55832,3425
31698,55773,3314
31651,55714,3200
31605,55658,3089
31565,55607,2984
31528,55555,2881
31487,55501,2779
31437,55440,2671
31378,55371,2561
31317,55302,2451
31261,55240,2345
31213,55187,2243
31172,55141,2146
31139,55099,2054
31105,55052,1960
31061,54994,1864
31009,54930,1764
30960,54868,1668
30916,54811,1577
30875,54761,1492
30836,54715,1407
30797,54670,1324
30757,54628,1248
30721,54595,1179
30693,54570,1116
30672,54550,1058
30656,54529,1001
30640,54503,943
30624,54474,882
30609,54444,824
30595,54418,773
30575,54391,719
30545,54355,650
30507,54312,577
30465,54266,510
30424,54224,447
30384,54185,383
30345,54149,319
30317,54120,260
30293,54097,1521
30265,54075,6154
30243,54055,12577
30227,54041,17005
30217,54035,18485
30219,54042,17964
30236,54067,16215
30272,54109,13841
30336,54178,11283
30427,54277,8848
30536,54404,6721
30659,54558,5002
30799,54739,3730
30965,54955,2897
31160,55204,2461
31375,55472,2354
31609,55754,2512
31867,56053,2879
32137,56365,3397
32410,56678,4004
32683,56987,4660
32945,57283,5321
33183,57560,5954
33400,57813,6543
33594,58043,7077
33770,58254,7552
33924,58437,7961
34048,58591,8302
34142,58714,8575
34207,58802,8783
34248,58858,8929
34270,58893,9023
34276,58907,9066
34262,58898,9059
34231,58867,9009
34185,58819,8929
34129,58760,8822
34065,58687,8688
33994,58601,8529
33917,58502,8353
33836,58395,8164
33748,58279,7963
33654,58159,7752
33560,58041,7532
33464,57920,7301
33362,57796,7067
33262,57672,6835
33167,57550,6608
33072,57426,6383
32971,57292,6155
32862,57153,5922
32753,57021,5690
32643,56894,5457
32531,56765,5219
32419,56637,4981
32316,56516,4746
32220,56401,4515
32125,56288,4287
32037,56181,4074
31955,56077,3883
31875,55974,3705
31801,55876,3538
31736,55791,3389
31681,55722,3262
31634,55665,3153
31595,55619,3059
31565,55586,2982
31547,55568,2931
31540,55566,2911
31545,55580,2923
31558,55604,2956
31578,55639,3009
31610,55687,3081
31654,55744,3170
31707,55807,3271
31766,55875,3381
31831,55950,3500
31901,56029,3627
31968,56104,3755
32033,56175,3880
32097,56244,4003
32156,56306,4113
32197,56353,4203
32224,56388,4276
32247,56418,4339
32267,56442,4387
32277,56454,4420
32279,56455,4440
32269,56445,4446
32247,56426,4436
32221,56406,4416
32195,56387,4386
32175,56368,4347
32159,56349,4302
32142,56324,4247
32118,56289,4179
32084,56244,4101
32042,56193,4015
31997,56142,3925
31948,56085,3827
31893,56021,3721
31832,55952,3610
31769,55882,3499
31710,55814,3391
31657,55748,3285
31607,55686,3180
31561,55627,3076
31516,55570,2973
31466,55511,2868
31412,55452,2759
31359,55397,2652
31309,55343,2545
31263,55291,2436
31220,55237,2327
31182,55183,2222
31150,55137,2125
31119,55095,2033
31079,55047,1935
31034,54991,1834
30990,54935,1736
30949,54881,1642
30915,54829,1552
30885,54780,1463
30856,54734,1374
30825,54690,1285
30789,54644,1197
30751,54599,1112
30716,54558,1027
30681,54518,942
30643,54475,858
30603,54433,780
30561,54388,701
30512,54339,616
30457,54289,528
30406,54242,443
30360,54197,366
30318,54155,1613
30279,54115,6231
30245,54077,13947
30213,54039,23021
30182,54002,32238
30159,53967,40810
30145,53940,48282
30138,53922,54453
30135,53915,57982
30142,53926,56917
30166,53962,51698
30213,54028,44266
30294,54129,36049
30406,54266,28027
30547,54435,20817
30718,54640,14751
30913,54876,9948
31126,55134,6381
31353,55410,3942
31588,55700,2475
31833,56003,1797
32085,56313,1720
32334,56619,2071
32574,56916,2699
32804,57200,3483
33021,57463,4329
33221,57701,5170
33398,57910,5954
33551,58087,6648
33684,58239,7244
33800,58370,7741
33893,58478,8138
33958,58557,8431
34001,58605,8627
34022,58625,8741
34028,58626,8788
34026,58612,8781
34015,58585,8728
33993,58547,8634
33954,58493,8505
33899,58422,8349
33829,58337,8177
33751,58245,7996
33670,58146,7808
33580,58037,7606
33480,57919,7393
33377,57799,7174
33274,57681,6946
33170,57564,6711
33073,57453,6481
32982,57343,6256
32889,57228,6029
32792,57105,5799
32690,56975,5565
32579,56836,5324
32462,56691,5076
32347,56549,4828
32242,56418,4588
32146,56297,4363
32051,56184,4150
31956,56075,3944
31866,55975,3751
31787,55888,3575
31725,55818,3423
31679,55763,3299
31644,55716,3190
31613,55675,3096
31588,55638,3020
31568,55607,2963
31551,55580,2921
31537,55562,2893
31533,55558,2882
31543,55572,2896
31565,55601,2933
31594,55641,2991
31629,55688,3063
31670,55742,3149
31712,55797,3245
31753,55849,3349
31800,55901,3460
31856,55961,3575
31916,56025,3690
31974,56089,3803
32030,56153,3915
32080,56212,4014
32125,56265,4097
32166,56312,4165
32200,56349,4220
32229,56379,4267
32253,56405,4309
32270,56423,4346
32281,56433,4371
32282,56432,4381
32276,56426,4378
32264,56413,4364
32242,56387,4333
32213,56351,4286
32180,56308,4228
32141,56261,4165
32097,56214,4098
32055,56166,4028
32018,56119,3956
31981,56072,3877
31941,56021,3787
31901,55972,3690
31865,55927,3588
31832,55883,3483
31796,55834,3378
31757,55781,3274
31720,55730,3169
31687,55682,3063
31656,55637,2961
31626,55594,2863
31592,55548,2766
31548,55498,2674
31499,55444,2586
31443,55386,2494
31382,55320,2395
31323,55252,2290
31272,55192,2186
31227,55137,2087
31180,55081,1994
31131,55023,1903
31077,54967,1815
31023,54917,1730
30974,54868,1648
30932,54822,1568
30897,54780,1488
30863,54737,1405
30823,54689,1320
30783,54639,1237
30743,54590,1157
30698,54538,1073
30644,54475,979
30589,54407,871
30540,54344,760
30496,54286,652
30458,54233,549
30422,54183,459
30387,54132,378
30356,54086,307
30325,54048,1561
30293,54014,4874
30265,53988,7925
30249,53975,9252
30251,53980,9381
30272,54008,8757
30319,54070,7732
30403,54175,6567
30524,54319,5443
30670,54496,4481
30838,54708,3750
31032,54953,3276
31251,55227,3052
31496,55528,3059
31758,55850,3264
32028,56179,3624
32301,56510,4105
32574,56845,4679
32847,57186,5317
33122,57527,5984
33394,57855,6648
33651,58161,7286
33889,58441,7884
34111,58695,8432
34312,58921,8921
34489,59116,9341
34644,59284,9689
34776,59424,9969
34886,59538,10190
34973,59624,10355
35031,59681,10462
35063,59715,10519
35079,59732,10537
35082,59730,10524
35069,59708,10479
35038,59665,10397
34994,59607,10285
34944,59541,10154
34888,59466,10007
34824,59382,9846
34750,59290,9671
34667,59188,9482
34579,59081,9284
34486,58970,9076
34385,58855,8859
34277,58734,8636
34169,58610,8406
34066,58488,8173
33966,58369,7942
33861,58248,7711
33749,58121,7481
33633,57994,7254
33520,57867,7036
33415,57741,6825
33320,57621,6619
33233,57507,6415
33152,57402,6213
33077,57305,6022
33003,57211,5843
32932,57122,5679
32871,57046,5535
32817,56981,5407
32771,56922,5291
32730,56871,5194
32694,56830,5122
32669,56805,5075
32654,56795,5050
32644,56790,5042
32637,56789,5047
32635,56796,5066
32644,56815,5105
32661,56844,5161
32685,56879,5233
32720,56925,5317
32773,56985,5414
32837,57055,5518
32898,57124,5627
32952,57192,5737
33007,57259,5846
33061,57322,5950
33116,57380,6047
33170,57436,6131
33220,57487,6202
33261,57527,6259
33287,57556,6308
33301,57578,6354
33305,57591,6395
33307,57596,6426
33309,57597,6442
33308,57590,6437
33298,57573,6409
33280,57546,6365
33259,57517,6314
33233,57482,6258
33199,57436,6192
33161,57383,6114
33123,57327,6028
33079,57271,5938
33032,57216,5844
32983,57164,5751
32932,57110,5655
32883,57054,5551
32840,56998,5439
32805,56946,5326
32774,56899,5218
32740,56852,5115
32703,56804,5015
32662,56756,4919
32616,56705,4824
32569,56653,4728
32528,56598,4629
32495,56545,4531
32464,56496,4439
32432,56449,4351
32399,56406,4268
32362,56360,4185
32318,56306,4098
32277,56253,4005
32241,56204,3912
32205,56160,3824
32169,56117,3740
32137,56074,3661
32105,56035,3591
32073,55999,3527
32044,55968,3466
32018,55938,3406
31993,55907,3345
31971,55877,3283
31946,55844,3218
31921,55813,3153
31905,55794,3095
31894,55780,3043
31877,55759,2990
31850,55728,2933
31818,55693,2875
31790,55658,2817
31765,55624,2758
31739,55587,2695
31712,55548,2631
31687,55512,2569
31659,55475,2507
31626,55434,2443
31594,55395,2386
31570,55367,2342
31562,55353,2317
31576,55362,2327
31618,55405,2384
31686,55484,2497
31780,55599,2673
31899,55745,2910
32035,55917,3204
32193,56118,3560
32378,56354,3978
32589,56616,4453
32820,56902,4979
33071,57212,5550
33335,57537,6154
33609,57873,6782
33893,58221,7425
34179,58567,8066
34457,58900,8692
34727,59223,9297
34993,59534,9870
35243,59824,10400
35469,60083,10879
35673,60311,11301
35853,60511,11669
36006,60683,11981
36136,60822,12229
36243,60929,12419
36325,61005,12559
36380,61050,12649
36400,61061,12683
36390,61046,12667
36358,61014,12609
36307,60965,12517
36240,60894,12394
36165,60807,12243
36083,60712,12073
35989,60609,11887
35884,60498,11686
35781,60384,11477
35687,60271,11271
35598,60160,11070
35507,60048,10869
35411,59934,10660
35316,59824,10447
35228,59720,10236
35146,59615,10029
35060,59506,9824
34968,59397,9623
34872,59289,9428
34772,59180,9236
34669,59067,9040
34569,58955,8841
34473,58844,8644
34382,58736,8453
34299,58636,8273
34223,58543,8102
34157,58461,7944
34094,58385,7799
34028,58309,7663
33965,58237,7535
33911,58176,7422
33864,58126,7326
33824,58085,7247
33796,58055,7187
33787,58041,7153
33796,58041,7144
33812,58051,7151
33831,58067,7174
33852,58091,7213
33870,58115,7264
33888,58136,7319
33907,58160,7377
33931,58191,7445
33962,58230,7523
34001,58278,7612
34044,58327,7706
34086,58376,7793
34126,58424,7870
34160,58468,7937
34189,58504,7995
34213,58534,8044
34232,58554,8082
34246,58570,8113
34260,58587,8140
34268,58600,8162
34270,58607,8176
34263,58602,8173
34247,58584,8149
34224,58556,8109
34193,58521,8056
34154,58480,7991
34114,58434,7913
34069,58382,7824
34018,58325,7722
33962,58265,7610
33904,58201,7492
33844,58134,7370
33790,58067,7251
33745,58006,7136
33699,57946,7022
33650,57885,6904
33600,57823,6784
33551,57764,6668
33500,57705,6553
33448,57645,6438
33393,57580,6321
33332,57510,6199
33267,57434,6073
33207,57360,5945
33151,57292,5820
33094,57224,5696
33032,57151,5567
32970,57078,5439
32910,57007,5317
32854,56942,5204
32805,56879,5095
32761,56817,4990
32720,56761,4890
32679,56711,4796
32633,56661,4703
32588,56611,4612
32543,56558,4522
32499,56505,4433
32447,56451,4344
32382,56393,4253
32318,56335,4163
32265,56281,4073
32223,56235,3983
32193,56197,3898
32174,56166,3822
32162,56140,3755
32149,56115,3695
32130,56087,3638
32102,56058,3584
32067,56026,3528
32028,55989,3468
31991,55951,3410
31957,55913,3355
31927,55875,3302
31905,55844,3251
31889,55821,3203
31868,55798,3151
31838,55768,3088
31796,55727,3016
31743,55677,2938
31686,55623,2857
31635,55574,2782
31587,55526,2715
31539,55475,2650
31495,55429,2586
31461,55395,2531
31436,55374,2488
31422,55366,2465
31424,55373,2470
31447,55407,2516
31494,55473,2612
31569,55570,2767
31679,55701,2985
31822,55869,3266
31995,56075,3609
32190,56316,4017
32405,56583,4483
32639,56873,5004
32891,57179,5570
33158,57496,6167
33439,57825,6782
33730,58162,7405
34022,58500,8027
34302,58826,8633
34564,59133,9207
34806,59418,9735
35023,59674,10212
35216,59899,10637
35388,60097,11012
35534,60268,11330
35649,60410,11589
35742,60525,11788
35812,60608,11928
35854,60655,12014
35868,60673,12053
35861,60669,12054
35843,60644,12024
35813,60596,11957
35767,60531,11856
35712,60462,11730
35653,60392,11587
35590,60316,11427
35520,60230,11254
35439,60131,11066
35347,60014,10865
35249,59888,10654
35151,59763,10439
35058,59644,10223
34973,59535,10016
34897,59437,9824
34819,59342,9639
34733,59244,9448
34640,59136,9250
34548,59026,9047
34461,58920,8846
34375,58817,8653
34290,58713,8467
34209,58609,8284
34135,58510,8104
34065,58419,7931
34003,58338,7769
33946,58265,7617
33886,58194,7472
33828,58127,7340
33777,58071,7225
33734,58027,7128
33694,57988,7044
33660,57957,6979
33639,57936,6933
33626,57922,6907
33619,57916,6898
33621,57919,6903
33633,57930,6925
33654,57953,6965
33682,57987,7022
33717,58031,7094
33758,58080,7176
33801,58137,7268
33846,58200,7370
33891,58263,7476
33934,58320,7578
33979,58375,7682
34029,58429,7787
34080,58480,7888
34132,58530,7983
34184,58580,8071
34232,58626,8149
34274,58667,8211
34304,58696,8256
34318,58711,8286
34318,58712,8296
34309,58701,8288
34293,58679,8265
34273,58650,8229
34252,58616,8183
34233,58582,8128
34216,58552,8067
34197,58524,8000
34170,58492,7926
34133,58454,7849
34093,58414,7771
34054,58370,7687
34012,58320,7592
33962,58261,7487
33905,58197,7374
33846,58131,7254
33786,58066,7129
33727,58001,7001
33672,57939,6878
33619,57875,6761
33571,57812,6653
33528,57754,6553
33490,57699,6456
33449,57645,6353
33400,57586,6243
33350,57526,6131
33311,57469,6023
33278,57414,5918
33244,57360,5815
33204,57307,5715
33154,57247,5611
33097,57181,5505
33034,57113,5396
32969,57047,5282
32902,56981,5169
32836,56914,5059
32772,56849,4955
32716,56792,4860
32675,56748,4779
32647,56716,4710
32626,56691,4648
32605,56665,4586
32577,56630,4520
32544,56592,4449
32511,56554,4381
32484,56520,4319
32463,56491,4263
32444,56464,4209
32430,56442,4160
32418,56420,4116
32402,56395,4073
32386,56371,4032
32369,56346,3990
32343,56317,3941
32310,56286,3887
32276,56256,3832
32246,56226,3781
32222,56200,3732
32199,56178,3679
32174,56155,3625
32144,56126,3570
32106,56087,3510
32062,56039,3446
32015,55989,3380
31972,55945,3318
31942,55913,3262
31924,55888,3210
31910,55868,3162
31902,55855,3122
31904,55853,3098
31915,55863,3101
31936,55889,3134
31975,55934,3206
32037,56005,3327
32124,56105,3500
32241,56244,3731
32388,56422,4027
32561,56631,4387
32754,56863,4805
32967,57114,5269
33202,57387,5773
33450,57679,6313
33707,57987,6879
33977,58306,7461
34253,58628,8050
34531,58949,8639
34800,59257,9213
35045,59538,9751
35260,59790,10239
35449,60016,10675
35614,60216,11054
35758,60389,11375
35877,60530,11633
35968,60635,11829
36035,60712,11971
36085,60765,12068
36122,60797,12129
36141,60809,12158
36143,60802,12150
36124,60774,12100
36083,60721,12006
36022,60647,11879
35948,60558,11727
35864,60459,11554
35774,60354,11367
35682,60249,11170
35595,60147,10972
35508,60047,10775
35414,59944,10574
35313,59837,10369
35211,59727,10159
35108,59607,9941
35004,59483,9720
34903,59359,9499
34806,59237,9284
34708,59115,9072
34608,58995,8862
34512,58878,8652
34420,58766,8442
34331,58659,8239
34244,58557,8049
34157,58459,7871
34069,58361,7697
33979,58260,7525
33893,58163,7360
33813,58076,7205
33744,58000,7062
33685,57938,6932
33632,57885,6819
33590,57843,6730
33563,57818,6673
33552,57809,6645
33549,57809,6638
33546,57812,6647
33543,57820,6672
33548,57839,6715
33565,57869,6773
33587,57905,6843
33609,57943,6926
33636,57988,7022
33674,58043,7132
33722,58105,7251
33771,58168,7375
33813,58222,7491
33847,58269,7589
33878,58313,7675
33907,58351,7749
33937,58385,7814
33964,58416,7871
33979,58434,7914
33983,58439,7943
33980,58438,7962
33970,58427,7970
33947,58407,7960
33915,58380,7929
33875,58346,7880
33824,58302,7813
33762,58248,7731
33693,58185,7636
33623,58118,7532
33563,58053,7425
33508,57989,7314
33454,57925,7199
33400,57862,7085
33346,57800,6970
33296,57744,6860
33255,57693,6756
33221,57645,6654
33197,57603,6554
33179,57567,6462
33166,57533,6375
33149,57498,6288
33125,57463,6200
33095,57428,6112
33064,57389,6021
33034,57349,5927
33002,57302,5826
32964,57244,5712
32926,57182,5593
32891,57123,5478
32855,57063,5365
32817,57001,5257
32777,56942,5155
32739,56892,5064
32709,56853,4981
32689,56825,4905
32677,56804,4833
32669,56785,4764
32664,56765,4702
32657,56743,4647
32643,56718,4597
32620,56687,4546
32590,56649,4493
32559,56608,4439
32531,56567,4384
32508,56529,4329
32493,56500,4275
32483,56478,4226
32476,56461,4180
32470,56451,4137
32469,56444,4099
32468,56435,4063
32465,56420,4026
32458,56400,3986
32441,56370,3938
32412,56328,3879
32378,56285,3815
32350,56245,3751
32327,56211,3692
32306,56180,3638
32285,56153,3587
32267,56130,3540
32253,56112,3503
32245,56103,3484
32250,56111,3490
32269,56136,3524
32300,56180,3595
32353,56253,3710
32434,56361,3882
32543,56500,4115
32687,56678,4414
32869,56897,4780
33082,57147,5207
33315,57419,5689
33560,57709,6218
33814,58014,6785
34080,58332,7384
34352,58658,7999
34629,58984,8616
34903,59304,9222
35165,59609,9800
35407,59892,10335
35627,60150,10823
35829,60384,11263
36018,60596,11656
36185,60783,12003
36325,60943,12299
36431,61068,12535
36505,61159,12707
36555,61218,12821
36589,61256,12893
36612,61276,12925
36619,61273,12915
36604,61248,12866
36568,61204,12782
36514,61145,12668
36450,61076,12531
36372,60992,12371
36279,60889,12186
36176,60768,11978
36063,60636,11757
35939,60497,11525
35809,60355,11288
35688,60220,11057
35582,60096,10837
35487,59981,10622
35393,59870,10411
35292,59757,10198
35186,59639,9978
35073,59514,9753
34956,59385,9528
34846,59258,9307
34744,59135,9091
34644,59010,8879
34547,58889,8674
34458,58780,8478
34382,58681,8294
34319,58592,8125
34260,58514,7970
34198,58446,7829
34136,58380,7698
34078,58315,7579
34030,58262,7481
33992,58225,7404
33960,58194,7345
33939,58172,7306
33937,58167,7289
33949,58175,7295
33965,58191,7323
33987,58220,7373
34020,58260,7444
34062,58308,7531
34110,58360,7625
34163,58417,7725
34215,58479,7835
34267,58545,7954
34323,58618,8078
34378,58692,8203
34426,58760,8319
34475,58822,8428
34524,58879,8530
34568,58927,8620
34608,58968,8695
34642,58999,8751
34673,59019,8792
34701,59037,8825
34723,59054,8849
34731,59060,8859
34726,59055,8854
34715,59045,8835
34702,59031,8809
34681,59008,8771
34648,58977,8721
34608,58936,8658
34565,58888,8580
34525,58838,8489
34493,58791,8395
34462,58743,8300
34423,58688,8196
34376,58626,8081
34324,58564,7962
34265,58500,7842
34200,58433,7719
34135,58365,7592
34075,58298,7464
34023,58232,7341
33973,58170,7223
33923,58112,7111
33877,58058,7004
33842,58007,6897
33808,57952,6787
33764,57886,6671
33712,57815,6549
33657,57745,6421
33592,57668,6287
33519,57585,6154
33450,57505,6029
33392,57435,5912
33344,57377,5807
33304,57329,5712
33266,57284,5618
33228,57234,5522
33188,57183,5429
33145,57131,5343
33098,57077,5259
33051,57024,5177
33008,56972,5094
32965,56920,5010
32919,56868,4930
32874,56818,4855
32834,56774,4784
32802,56738,4722
32775,56712,4670
32748,56693,4622
32724,56678,4577
32703,56663,4535
32687,56652,4499
32669,56640,4467
32641,56617,4430
32608,56583,4385
32573,56545,4336
32543,56507,4286
32516,56471,4237
32496,56439,4189
32484,56413,4144
32477,56393,4105
32472,56376,4071
32464,56356,4032
32455,56337,3989
32442,56318,3945
32416,56292,3899
32376,56254,3846
32332,56208,3780
32288,56163,3707
32252,56123,3636
32224,56089,3570
32197,56055,3511
32171,56026,3459
32152,56006,3424
32144,55998,3415
32154,56014,3443
32189,56061,3518
32252,56142,3650
32347,56260,3849
32474,56418,4120
32632,56615,4463
32821,56851,4877
33043,57124,5362
33300,57434,5914
33583,57777,6526
33885,58143,7182
34198,58519,7863
34510,58890,8555
34815,59252,9248
35118,59608,9932
35418,59958,10599
35707,60294,11234
35974,60604,11818
36215,60883,12342
36430,61132,12805
36618,61349,13208
36782,61535,13554
36929,61697,13846
37061,61838,14085
37175,61955,14272
37262,62045,14410
37320,62107,14501
37346,62135,14542
37346,62132,14541
37329,62107,14501
37297,62063,14421
37254,62006,14314
37199,61938,14190
37135,61859,14047
37063,61767,13885
36983,61664,13706
36896,61554,13516
36803,61445,13323
36709,61340,13133
36613,61235,12945
36514,61129,12756
36413,61021,12563
36319,60912,12365
36239,60808,12170
36170,60713,11983
36104,60621,11805
36037,60527,11627
35968,60436,11449
35899,60351,11270
35829,60269,11092
35758,60182,10918
35679,60088,10749
35591,59987,10577
35500,59887,10406
35420,59798,10244
35356,59724,10101
35308,59667,9978
35275,59625,9876
35248,59590,9793
35224,59560,9730
35201,59532,9682
35181,59509,9646
35171,59497,9628
35170,59497,9626
35172,59504,9641
35177,59515,9671
35188,59530,9714
35207,59551,9770
35232,59580,9837
35264,59618,9914
35306,59668,9996
35356,59727,10085
35414,59791,10181
35470,59854,10277
35519,59908,10365
35565,59950,10445
35611,59988,10522
35657,60028,10596
35694,60066,10662
35721,60096,10717
35742,60119,10754
35751,60137,10777
35750,60147,10789
35746,60150,10789
35741,60144,10774
35736,60128,10746
35730,60109,10709
35722,60088,10662
35704,60061,10601
35675,60022,10522
35639,59968,10428
35597,59905,10320
35549,59837,10205
35500,59770,10090
35452,59707,9977
35403,59649,9868
35349,59591,9758
35288,59529,9648
35221,59459,9533
35149,59383,9409
35078,59306,9275
35010,59229,9138
34943,59152,9001
34883,59082,8870
34833,59019,8748
34786,58960,8630
34736,58899,8517
34684,58839,8405
34633,58776,8290
34581,58710,8173
34530,58643,8054
34479,58575,7935
34424,58507,7818
34363,58440,7704
34300,58371,7591
34244,58303,7473
34196,58242,7355
34150,58186,7242
34103,58129,7134
34057,58074,7030
34020,58025,6933
33991,57986,6843
33964,57953,6760
33936,57920,6686
33904,57885,6617
33862,57841,6547
33810,57787,6473
33759,57733,6400
33715,57682,6329
33676,57635,6258
33644,57596,6191
33619,57564,6128
33596,57535,6068
33572,57505,6012
33548,57473,5958
33522,57439,5903
33487,57404,5850
33446,57371,5803
33405,57340,5759
33366,57308,5715
33332,57278,5673
33295,57246,5623
33255,57206,5558
33214,57162,5485
33177,57120,5414
33144,57080,5344
33114,57039,5277
33089,56999,5212
33066,56959,5147
33044,56920,5083
33022,56884,5023
33000,56850,4968
32976,56817,4916
32945,56784,4862
32911,56750,4805
32880,56721,4753
32858,56705,4719
32849,56709,4716
32862,56737,4753
32902,56793,4841
32970,56880,4986
33060,56997,5189
33173,57145,5454
33314,57330,5785
33487,57553,6185
33692,57810,6650
33927,58098,7175
34188,58413,7757
34471,58753,8385
34773,59114,9049
35093,59491,9737
35420,59872,10433
35736,60242,11113
36033,60596,11760
36316,60930,12363
36583,61239,12919
36829,61523,13425
37052,61779,13875
37249,61998,14266
37415,62179,14603
37551,62329,14888
37664,62450,15115
37754,62546,15280
37827,62617,15391
37881,62659,15451
37908,62671,15467
37913,62661,15447
37895,62630,15389
37849,62581,15295
37784,62515,15171
37701,62431,15019
37610,62336,14848
37520,62236,14670
37433,62133,14484
37343,62023,14289
37244,61904,14083
37144,61784,13870
37048,61668,13658
36955,61553,13446
36858,61436,13233
36755,61314,13018
36645,61190,12802
36532,61068,12585
36425,60948,12369
36330,60831,12155
36245,60720,11952
36160,60614,11758
36069,60506,11565
35976,60400,11377
35885,60298,11196
35798,60202,11020
35720,60115,10849
35653,60037,10685
35598,59967,10534
35550,59903,10401
35501,59840,10282
35449,59776,10171
35401,59719,10072
35359,59674,9987
35325,59639,9922
35300,59612,9880
35283,59592,9858
35273,59581,9857
35276,59582,9877
35292,59598,9917
35317,59626,9971
35347,59663,10037
35380,59704,10105
35416,59747,10175
35451,59788,10244
35479,59823,10305
35503,59856,10357
35530,59891,10410
35556,59927,10467
35579,59959,10521
35597,59985,10567
35615,60008,10608
35639,60029,10645
35663,60049,10678
35680,60063,10698
35687,60064,10695
35683,60049,10672
35669,60027,10638
35646,60000,10594
35616,59963,10534
35582,59918,10462
35546,59873,10387
35512,59828,10310
35476,59780,10223
35429,59724,10122
35377,59662,10013
35322,59597,9902
35261,59531,9789
35197,59464,9674
35135,59394,9558
35074,59321,9440
35014,59248,9318
34952,59176,9195
34882,59102,9072
34804,59017,8939
34725,58928,8799
34649,58842,8655
34574,58757,8508
34501,58676,8360
34425,58593,8210
34346,58509,8057
34273,58430,7908
34205,58354,7763
34136,58277,7618
34072,58204,7478
34015,58136,7348
33958,58066,7222
33901,57995,7102
33847,57928,6985
33796,57862,6870
33752,57799,6757
33710,57740,6649
33664,57682,6544
33617,57625,6440
33575,57574,6341
33540,57528,6248
33505,57484,6161
33467,57439,6078
33429,57393,5999
33394,57348,5924
33355,57302,5851
33310,57252,5776
33266,57203,5698
33225,57159,5624
33183,57118,5557
33147,57080,5493
33119,57047,5432
33097,57018,5371
33080,56994,5313
33068,56975,5256
33054,56954,5199
33031,56924,5143
33000,56889,5087
32968,56856,5033
32935,56829,4983
32902,56803,4936
32876,56779,4894
32857,56756,4850
32841,56733,4808
32830,56714,4771
32818,56697,4732
32801,56676,4685
32779,56649,4635
32753,56614,4579
32717,56572,4514
32668,56521,4441
32615,56464,4361
32566,56410,4281
32517,56357,4197
32466,56302,4107
32417,56249,4018
32369,56197,3932
32319,56146,3852
32269,56099,3780
32224,56061,3721
32193,56038,3685
32186,56038,3686
32212,56075,3739
32277,56153,3855
32379,56275,4041
32511,56434,4298
32670,56625,4619
32854,56845,5005
33061,57097,5456
33290,57377,5964
33540,57679,6519
33809,58000,7113
34090,58333,7732
34374,58669,8363
34663,59009,8994
34952,59345,9618
35228,59669,10225
35489,59979,10804
35734,60272,11338
35964,60543,11822
36170,60783,12248
36340,60984,12609
36476,61145,12909
36583,61270,13154
36667,61370,13348
36726,61445,13488
36760,61491,13572
36773,61509,13609
36769,61503,13607
36753,61481,13570
36731,61450,13507
36705,61406,13417
36672,61347,13301
36627,61277,13163
36565,61197,13004
36483,61101,12818
36386,60990,12610
36290,60877,12394
36201,60768,12182
36116,60663,11977
36033,60561,11777
35948,60456,11574
35856,60340,11364
35762,60219,11151
35667,60099,10937
35572,59980,10723
35477,59860,10511
35382,59741,10301
35288,59629,10092
35192,59519,9884
35092,59405,9672
34992,59287,9458
34900,59172,9256
34816,59063,9068
34731,58956,8893
34643,58852,8732
34556,58751,8581
34470,58654,8436
34389,58563,8292
34316,58483,8158
34253,58418,8042
34209,58373,7951
34188,58349,7890
34182,58342,7857
34182,58342,7846
34185,58346,7851
34195,58359,7873
34211,58384,7913
34230,58416,7967
34252,58447,8025
34275,58479,8089
34304,58517,8160
34345,58567,8241
34393,58626,8336
34441,58690,8442
34491,58752,8552
34540,58810,8655
34589,58863,8751
34638,58911,8841
34681,58949,8919
34715,58980,8979
34743,59005,9023
34765,59027,9052
34781,59039,9065
34786,59037,9059
34780,59024,9035
34762,59003,8997
34732,58970,8944
34696,58928,8878
34657,58885,8804
34612,58831,8719
34564,58770,8619
34520,58708,8509
34474,58646,8391
34419,58581,8267
34360,58511,8139
34303,58444,8011
34246,58376,7887
34191,58307,7766
34142,58242,7643
34096,58183,7520
34049,58126,7400
34001,58069,7286
33952,58011,7178
33899,57948,7071
33842,57880,6960
33785,57811,6841
33730,57744,6716
33672,57677,6591
33610,57607,6466
33550,57537,6338
33498,57474,6215
33448,57412,6097
33400,57346,5979
33356,57284,5867
33315,57225,5767
33272,57171,5674
33225,57121,5581
33174,57071,5482
33127,57025,5388
33089,56983,5305
33051,56941,5226
33013,56899,5148
32980,56862,5073
32954,56827,5001
32929,56790,4930
32900,56746,4856
32863,56696,4779
32822,56646,4705
32783,56602,4635
32745,56559,4563
32712,56519,4493
32688,56486,4431
32669,56461,4377
32652,56439,4331
32639,56423,4291
32630,56409,4255
32616,56390,4216
32591,56365,4168
32561,56336,4111
32532,56306,4054
32503,56275,4002
32470,56238,3951
32437,56199,3896
32408,56160,3834
32377,56123,3768
32345,56087,3703
32311,56049,3636
32273,56011,3570
32227,55970,3502
32174,55922,3433
32122,55874,3369
32082,55835,3317
32061,55814,3287
32060,55817,3290
32082,55848,3335
32132,55907,3427
32208,55997,3573
32316,56121,3776
32453,56278,4037
32614,56466,4355
32796,56686,4732
33001,56935,5165
33225,57210,5647
33474,57510,6172
33739,57828,6733
34006,58148,7314
34268,58464,7900
34525,58775,8486
34773,59074,9058
35005,59356,9597
35219,59618,10093
35422,59862,10543
35614,60081,10944
35790,60269,11289
35943,60428,11577
36064,60555,11807
36155,60653,11982
36226,60728,12106
36279,60783,12189
36313,60813,12232
36317,60814,12233
36296,60789,12196
36256,60743,12128
36200,60681,12030
36134,60608,11902
36062,60526,11753
35988,60441,11595
35910,60351,11426
35821,60249,11238
35719,60137,11031
35614,60020,10816
35519,59907,10604
35438,59798,10399
35360,59689,10200
35280,59579,10001
35196,59467,9794
35106,59350,9579
35011,59230,9364
34917,59114,9154
34818,59002,8947
34716,58887,8743
34617,58770,8539
34525,58655,8335
34438,58545,8132
34352,58438,7932
34266,58333,7735
34179,58229,7541
34095,58130,7359
34021,58040,7196
33955,57962,7053
33895,57891,6928
33836,57825,6816
33778,57765,6719
33727,57712,6642
33688,57674,6587
33658,57650,6553
33638,57639,6537
33633,57639,6539
33648,57655,6564
33678,57684,6610
33720,57724,6674
33779,57781,6759
33853,57853,6864
33931,57936,6984
34005,58019,7112
34075,58099,7242
34138,58171,7368
34194,58233,7482
34243,58283,7583
34282,58325,7674
34314,58361,7754
34342,58393,7820
34361,58416,7867
34370,58431,7901
34363,58435,7918
34344,58425,7919
34321,58407,7907
34290,58380,7885
34257,58349,7849
34228,58318,7800
34201,58284,7739
34173,58246,7670
34144,58207,7593
34108,58163,7508
34067,58115,7411
34026,58069,7311
33982,58018,7211
33932,57960,7106
33880,57899,6999
33824,57833,6892
33764,57762,6780
33706,57690,6661
33653,57619,6536
33598,57548,6408
33545,57479,6279
33493,57413,6151
33437,57347,6026
33378,57278,5900
33315,57207,5775
33251,57133,5651
33189,57058,5525
33131,56987,5401
33076,56918,5280
33018,56848,5162
32961,56780,5046
32908,56717,4930
32855,56655,4812
32802,56593,4700
32751,56534,4597
32700,56476,4500
32654,56424,4408
32613,56379,4319
32571,56336,4234
32524,56288,4149
32475,56235,4063
32428,56183,3975
32385,56131,3888
32344,56080,3803
32306,56034,3725
32275,55996,3654
32247,55963,3588
32221,55931,3520
32197,55899,3450
32174,55866,3382
32151,55830,3317
32126,55789,3247
32096,55747,3176
32057,55704,3108
32010,55656,3040
31963,55611,2971
31929,55576,2910
31909,55554,2865
31897,55543,2839
31891,55542,2827
31893,55552,2835
31910,55576,2870
31942,55617,2941
31991,55683,3064
32060,55779,3242
32157,55905,3475
32287,56065,3770
32446,56264,4134
32634,56502,4564
32857,56775,5054
33114,57079,5597
33387,57401,6178
33667,57730,6776
33949,58066,7384
34222,58396,7988
34478,58706,8569
34716,58994,9122
34942,59267,9646
35157,59523,10136
35357,59759,10584
35546,59979,10991
35725,60184,11353
35888,60370,11667
36030,60527,11925
36145,60650,12120
36232,60739,12261
36289,60799,12354
36319,60831,12400
36327,60835,12398
36318,60817,12359
36293,60779,12289
36253,60723,12188
36205,60657,12066
36149,60584,11926
36081,60497,11763
36004,60394,11579
35919,60280,11384
35823,60160,11182
35719,60038,10978
35610,59915,10769
35494,59787,10551
35375,59659,10328
35269,59539,10108
35176,59428,9898
35090,59326,9696
35003,59226,9497
34914,59120,9296
34825,59010,9093
34735,58898,8892
34642,58785,8690
34548,58671,8485
34453,58554,8279
34359,58439,8075
34276,58333,7882
34203,58236,7701
34134,58147,7533
34072,58071,7382
34016,58003,7250
33968,57943,7131
33938,57901,7030
33920,57874,6952
33903,57852,6895
33889,57839,6863
33884,57838,6858
33892,57851,6877
33915,57879,6920
33947,57919,6983
33982,57963,7060
34019,58006,7143
34058,58049,7228
34102,58100,7318
34152,58159,7418
34206,58216,7525
34261,58268,7627
34322,58321,7728
34386,58380,7837
34444,58437,7950
34499,58490,8055
34546,58538,8147
34584,58580,8225
34616,58622,8294
34648,58664,8354
34679,58702,8403
34709,58735,8444
34735,58762,8477
34752,58781,8495
34762,58790,8500
34767,58793,8493
34758,58787,8471
34734,58764,8431
34697,58721,8371
34648,58660,8288
34590,58590,8192
34527,58518,8089
34468,58448,7982
34419,58386,7872
34378,58329,7761
34342,58274,7648
34310,58216,7531
34278,58157,7409
34249,58101,7286
34222,58049,7171
34196,58000,7065
34166,57950,6965
34121,57893,6867
34064,57831,6764
34003,57766,6654
33938,57702,6546
33868,57637,6440
33804,57572,6334
33752,57508,6230
33709,57445,6127
33665,57382,6020
33619,57319,5909
33570,57252,5792
33518,57185,5675
33463,57121,5565
33404,57057,5455
33344,56995,5345
33289,56938,5239
33240,56883,5138
33197,56830,5041
33155,56781,4947
33113,56737,4858
33074,56696,4776
33043,56660,4701
33015,56630,4631
32983,56601,4565
32946,56571,4503
32906,56539,4446
32866,56508,4396
32828,56475,4350
32797,56444,4303
32777,56415,4254
32761,56386,4202
32748,56361,4150
32737,56338,4100
32726,56316,4053
32714,56291,4007
32703,56266,3959
32696,56246,3915
32682,56224,3874
32661,56196,3828
32642,56164,3775
32622,56132,3716
32597,56098,3655
32572,56065,3594
32549,56036,3538
32527,56009,3490
32509,55989,3452
32498,55979,3429
32490,55979,3426
32489,55992,3453
32509,56028,3522
32564,56098,3645
32661,56212,3837
32793,56368,4103
32956,56566,4446
33152,56808,4866
33379,57090,5364
33635,57405,5931
33922,57751,6554
34238,58125,7226
34573,58519,7935
34918,58923,8669
35267,59329,9412
35609,59727,10149
35942,60113,10864
36259,60479,11542
36556,60823,12180
36832,61145,12777
37088,61446,13325
37320,61716,13812
37525,61949,14233
37707,62148,14590
37865,62316,14885
37993,62453,15118
38087,62556,15289
38154,62628,15406
38196,62670,15475
38212,62683,15498
38211,62678,15483
38201,62663,15443
38183,62635,15379
38154,62595,15292
38108,62541,15184
38040,62471,15051
37957,62382,14894
37870,62283,14720
37781,62174,14533
37690,62058,14341
37601,61942,14147
37516,61832,13952
37430,61726,13754
37344,61620,13552
37257,61513,13351
37164,61400,13149
37069,61283,12944
36974,61167,12742
36876,61053,12546
36778,60941,12352
36685,60832,12160
36596,60723,11972
36516,60621,11786
36445,60529,11606
36372,60442,11433
36298,60353,11270
36227,60265,11117
36158,60182,10971
36092,60106,10830
36028,60036,10697
35968,59971,10577
35914,59914,10477
35872,59870,10397
35852,59846,10344
35848,59840,10318
35851,59840,10310
35858,59844,10320
35873,59856,10347
35889,59874,10386
35908,59897,10432
35935,59929,10490
35971,59969,10561
36012,60011,10639
36057,60052,10720
36104,60094,10811
36157,60144,10913
36210,60199,11017
36256,60251,11111
36296,60302,11196
36338,60352,11279
36376,60399,11358
36407,60439,11428
36429,60470,11485
36445,60496,11526
36459,60513,11550
36472,60520,11558
36478,60517,11555
36471,60509,11544
36457,60497,11524
36439,60480,11494
36418,60459,11452
36392,60432,11397
36360,60394,11326
36322,60344,11243
36278,60287,11151
36232,60225,11050
36190,60162,10947
36155,60106,10847
36120,60055,10744
36081,60001,10630
36034,59939,10505
35976,59871,10374
35907,59797,10240
35834,59718,10098
35768,59638,9951
35704,59560,9805
35636,59481,9664
35573,59405,9531
35519,59337,9410
35469,59277,9299
35415,59214,9193
35357,59145,9084
35298,59073,8967
35242,59003,8842
35190,58938,8716
35138,58876,8589
35092,58821,8471
35047,58767,8362
34991,58705,8253
34928,58636,8136
34867,58567,8015
34813,58505,7899
34767,58450,7796
34725,58398,7705
34684,58349,7621
34641,58296,7537
34600,58243,7452
34566,58196,7370
34531,58154,7293
34491,58110,7220
34445,58065,7152
34399,58022,7084
34354,57980,7010
34313,57936,6930
34276,57894,6853
34248,57859,6789
34226,57834,6738
34202,57811,6696
34176,57786,6658
34149,57759,6617
34116,57727,6567
34076,57686,6507
34034,57640,6438
33997,57595,6367
33966,57556,6298
33941,57523,6230
33914,57489,6162
33879,57452,6098
33840,57414,6035
33802,57375,5972
33766,57335,5906
33732,57295,5842
33701,57257,5781
33673,57223,5729
33657,57198,5691
33653,57186,5674
33666,57199,5690
33700,57244,5756
33766,57327,5890
33872,57455,6102
34014,57626,6394
34187,57837,6762
34395,58091,7207
34636,58387,7727
34912,58720,8317
35217,59082,8964
35537,59459,9650
35867,59849,10364
36200,60244,11089
36528,60635,11805
36848,61020,12499
37151,61387,13161
37434,61730,13784
37699,62048,14362
37943,62340,14889
38164,62602,15360
38361,62831,15773
38526,63024,16124
38664,63185,16411
38779,63320,16640
38875,63427,16810
38948,63506,16927
38994,63554,16997
39012,63573,17022
39002,63560,17001
38972,63520,16941
38926,63458,16847
38866,63381,16723
38799,63294,16577
38728,63204,16417
38651,63112,16247
38566,63015,16068
38473,62909,15877
38377,62797,15677
38275,62677,15466
38165,62544,15238
38048,62407,15002
37929,62275,14767
37821,62150,14539
37725,62030,14319
37632,61910,14105
37538,61790,13895
37436,61667,13682
37325,61539,13461
37216,61411,13238
37116,61288,13019
37022,61170,12808
36931,61053,12599
36840,60941,12393
36750,60831,12190
36661,60724,11996
36576,60624,11819
36497,60535,11662
36423,60458,11526
36361,60393,11408
36313,60338,11308
36271,60289,11222
36228,60243,11142
36192,60200,11069
36173,60171,11016
36168,60157,10990
36167,60158,10986
36166,60169,10996
36169,60188,11016
36173,60207,11047
36179,60225,11091
36196,60251,11146
36225,60288,11210
36260,60328,11280
36296,60370,11357
36332,60413,11442
36366,60455,11524
36400,60497,11600
36437,60537,11671
36476,60574,11739
36517,60606,11801
36553,60633,11857
36584,60659,11904
36611,60685,11942
36638,60707,11969
36661,60719,11987
36678,60723,11995
36681,60716,11988
36665,60695,11959
36634,60664,11905
36594,60625,11832
36548,60581,11750
36502,60534,11663
36459,60484,11570
36420,60435,11474
36383,60390,11376
36343,60346,11272
36294,60293,11162
36237,60230,11050
36178,60162,10938
36122,60095,10824
36070,60027,10705
36025,59960,10583
35981,59896,10459
35933,59829,10329
35882,59757,10195
35832,59683,10060
35778,59607,9927
35714,59530,9792
35643,59451,9656
35571,59376,9524
35500,59301,9397
35430,59221,9268
35361,59142,9138
35297,59067,9010
35244,58998,8886
35198,58935,8771
35149,58874,8658
35099,58812,8542
35055,58753,8427
35010,58696,8315
34965,58639,8206
34923,58586,8102
34882,58536,8004
34832,58482,7911
34778,58422,7818
34725,58361,7724
34680,58306,7633
34643,58260,7547
34610,58218,7467
34581,58180,7393
34551,58142,7321
34520,58100,7253
34487,58058,7187
34455,58021,7121
34425,57987,7055
34393,57954,6990
34363,57927,6929
34333,57904,6875
34303,57880,6824
34273,57854,6775
34246,57828,6729
34220,57798,6682
34197,57766,6635
34180,57740,6595
34175,57723,6564
34174,57713,6534
34177,57704,6506
34181,57697,6482
34187,57693,6461
34197,57696,6446
34215,57706,6440
34236,57719,6438
34252,57726,6430
34261,57727,6417
34273,57729,6405
34290,57735,6398
34309,57748,6396
34328,57765,6397
34345,57780,6398
34366,57796,6406
34395,57821,6429
34434,57857,6473
34493,57913,6547
34579,57999,6665
34691,58118,6833
34837,58272,7061
35014,58462,7359
35217,58687,7726
35448,58949,8161
35707,59246,8663
35991,59575,9230
36298,59928,9855
36623,60302,10523
36955,60689,11223
37286,61079,11943
37614,61471,12672
37935,61860,13393
38241,62233,14091
38534,62586,14759
38817,62925,15392
39082,63243,15981
39326,63534,16514
39548,63794,16993
39746,64022,17418
39920,64217,17781
40069,64379,18080
40198,64519,18324
40312,64636,18519
40405,64727,18666
40476,64795,18771
40523,64842,18834
40548,64871,18857
40557,64883,18844
40549,64872,18795
40519,64832,18713
40469,64769,18601
40406,64686,18460
40336,64590,18293
40266,64492,18113
40193,64390,17921
40108,64276,17719
40009,64154,17508
39905,64032,17292
39802,63911,17073
39696,63788,16851
39592,63666,16627
39485,63543,16399
39375,63418,16168
39265,63288,15932
39158,63153,15694
39054,63018,15457
38949,62884,15218
38845,62752,14980
38750,62629,14756
38660,62511,14542
38568,62393,14333
38472,62277,14129
38379,62166,13932
38294,62063,13745
38222,61969,13575
38167,61889,13429
38131,61829,13312
38107,61789,13221
38086,61762,13151
38062,61739,13096
38040,61717,13056
38027,61704,13040
38025,61706,13049
38033,61724,13082
38055,61758,13140
38091,61804,13220
38133,61857,13315
38177,61912,13418
38221,61969,13522
38261,62021,13624
38296,62065,13718
38324,62103,13809
38351,62145,13902
38381,62187,13991
38412,62223,14069
38446,62254,14136
38481,62283,14195
38511,62309,14242
38532,62328,14270
38535,62327,14272
38521,62306,14254
38498,62280,14225
38463,62251,14183
38414,62209,14121
38354,62154,14043
38294,62093,13955
38233,62030,13856
38170,61958,13741
38103,61878,13609
38031,61788,13465
37953,61692,13310
37870,61593,13148
37785,61495,12984
37700,61398,12821
37616,61301,12662
37530,61205,12503
37447,61116,12344
37370,61033,12188
37298,60954,12030
37230,60877,11866
37165,60800,11700
37103,60722,11536
37042,60639,11375
36977,60550,11219
36902,60456,11066
36817,60359,10910
36727,60263,10747
36634,60167,10581
36541,60076,10420
36461,59993,10270
36392,59917,10133
36326,59840,10003
36256,59760,9870
36182,59675,9735
36103,59587,9601
36022,59501,9476
35942,59421,9356
35866,59345,9238
35797,59273,9123
35738,59206,9018
35683,59143,8918
35632,59090,8821
35588,59045,8727
35552,59004,8642
35519,58966,8563
35491,58929,8488
35469,58899,8422
35451,58874,8361
35430,58849,8305
35407,58822,8247
35386,58795,8190
35366,58770,8137
35343,58743,8084
35317,58712,8024
35293,58678,7959
35266,58638,7891
35227,58586,7812
35173,58519,7719
35109,58446,7620
35047,58377,7522
34990,58315,7424
34934,58257,7326
34882,58205,7231
34833,58158,7143
34786,58113,7064
34745,58074,7000
34713,58043,6955
34692,58027,6936
34690,58032,6950
34710,58065,7007
34753,58128,7117
34824,58227,7290
34931,58366,7534
35075,58543,7848
35251,58756,8233
35458,59003,8682
35693,59283,9192
35952,59593,9754
36233,59928,10359
36528,60279,10990
36830,60635,11630
37126,60985,12262
37407,61321,12871
37671,61639,13445
37914,61934,13978
38137,62201,14463
38342,62438,14900
38523,62644,15286
38677,62821,15624
38802,62972,15912
38901,63093,16144
38972,63181,16316
39011,63233,16427
39024,63252,16483
39020,63247,16489
39004,63224,16450
38974,63184,16373
38931,63129,16265
38878,63062,16133
38818,62988,15984
38751,62907,15822
38671,62811,15638
38577,62693,15432
38467,62554,15203
38338,62399,14959
38204,62246,14714
38076,62100,14470
37950,61957,14222
37826,61817,13967
37706,61683,13715
37589,61553,13466
37469,61416,13212
37346,61273,12957
37222,61128,12700
37101,60983,12442
36986,60840,12184
36868,60695,11925
36746,60552,11665
36626,60418,11412
36510,60288,11166
36401,60163,10930
36296,60042,10703
36197,59922,10483
36103,59801,10268
36014,59682,10065
35931,59573,9886
35858,59481,9730
35790,59402,9598
35727,59338,9492
35669,59289,9414
35618,59253,9359
35577,59227,9327
35549,59212,9314
35537,59212,9321
35541,59226,9347
35556,59247,9389
35582,59279,9450
35622,59329,9537
35676,59394,9644
35730,59461,9758
35779,59524,9876
35826,59587,9994
35868,59648,10108
35904,59699,10209
35940,59743,10301
35973,59781,10385
36002,59813,10454
36023,59838,10507
36035,59853,10541
36041,59860,10558
36047,59861,10562
36049,59857,10556
36036,59841,10538
36012,59819,10509
35986,59796,10473
35955,59766,10425
35917,59725,10362
35872,59675,10282
35824,59617,10189
35772,59553,10085
35722,59492,9981
35676,59439,9883
35629,59385,9787
35581,59328,9688
35537,59274,9584
35498,59223,9475
35459,59168,9363
35419,59111,9247
35373,59052,9125
35318,58985,8995
35260,58915,8862
35199,58845,8731
35132,58770,8602
35067,58691,8473
35011,58617,8344
34960,58547,8216
34909,58476,8086
34849,58402,7953
34786,58330,7821
34729,58262,7691
34677,58197,7565
34621,58130,7441
34560,58057,7316
34501,57988,7195
34447,57926,7081
34397,57868,6972
34346,57808,6868
34291,57742,6763
34237,57675,6659
34192,57617,6557
34155,57566,6460
34122,57520,6372
34088,57474,6288
34050,57426,6205
34014,57382,6124
33979,57339,6039
33940,57295,5948
33896,57247,5854
33848,57196,5763
33798,57143,5672
33748,57087,5580
33702,57032,5488
33663,56983,5399
33628,56945,5314
33594,56910,5239
33556,56871,5171
33519,56828,5110
33495,56795,5066
33486,56780,5047
33492,56787,5060
33517,56820,5115
33567,56883,5223
33650,56986,5398
33770,57132,5644
33925,57323,5965
34116,57558,6361
34338,57829,6827
34591,58133,7357
34868,58460,7942
35155,58799,8567
35448,59149,9221
35754,59514,9894
36067,59888,10576
36376,60259,11251
36678,60614,11902
36966,60947,12520
37235,61258,13096
37485,61549,13626
37715,61816,14107
37922,62057,14540
38098,62264,14917
38236,62432,15230
38343,62567,15481
38425,62675,15670
38481,62751,15800
38512,62796,15879
38526,62818,15915
38529,62823,15914
38523,62809,15879
38503,62776,15812
38459,62718,15711
38394,62638,15576
38313,62539,15409
38218,62425,15215
38117,62299,14999
38012,62167,14774
37911,62037,14548
37810,61913,14323
37704,61790,14095
37594,61669,13862
37484,61544,13622
37371,61414,13376
37251,61277,13127
37122,61134,12873
36992,60991,12617
36874,60856,12368
36767,60726,12125
36664,60595,11887
36560,60458,11651
36453,60320,11413
36341,60182,11170
36225,60044,10925
36113,59909,10686
36014,59782,10461
35926,59664,10253
35842,59557,10065
35768,59465,9899
35709,59388,9754
35662,59326,9632
35621,59278,9538
35584,59241,9468
35546,59208,9414
35513,59184,9374
35496,59175,9357
35495,59183,9363
35503,59200,9383
35523,59228,9423
35552,59267,9481
35585,59309,9550
35619,59355,9627
35652,59404,9714
35687,59455,9809
35732,59508,9910
35778,59561,10014
35824,59611,10120
35875,59665,10226
35930,59726,10331
35988,59789,10432
36045,59846,10526
36095,59897,10608
36134,59938,10674
36163,59969,10720
36185,59991,10752
36200,60004,10770
36208,60008,10776
36208,60001,10766
36204,59990,10744
36191,59975,10713
36166,59950,10669
36124,59910,10607
36069,59855,10527
36008,59795,10437
35950,59732,10342
35898,59667,10238
35855,59601,10131
35814,59537,10023
35768,59477,9915
35717,59416,9803
35659,59347,9684
35593,59265,9550
35521,59174,9403
35448,59083,9247
35377,58997,9094
35309,58916,8946
35248,58839,8804
35194,58767,8667
35146,58702,8535
35097,58640,8410
35041,58574,8287
34982,58505,8165
34927,58438,8049
34871,58370,7936
34809,58297,7819
34743,58221,7701
34678,58149,7586
34620,58086,7474
34568,58027,7364
34517,57966,7251
34466,57904,7135
34418,57843,7023
34371,57785,6916
34326,57732,6816
34286,57685,6723
34247,57640,6635
34199,57590,6545
34142,57535,6457
34081,57477,6370
34020,57417,6283
33967,57358,6194
33921,57304,6106
33881,57254,6021
33847,57211,5942
33814,57171,5869
33785,57137,5802
33757,57107,5741
33727,57074,5682
33694,57038,5621
33658,57000,5561
33624,56965,5501
33590,56930,5440
33557,56895,5374
33525,56860,5306
33496,56826,5239
33475,56793,5175
33458,56762,5113
33435,56728,5052
33404,56689,4990
33372,56652,4935
33351,56632,4900
33347,56634,4897
33362,56659,4937
33401,56710,5026
33473,56795,5174
33578,56920,5393
33717,57088,5686
33893,57302,6057
34104,57561,6506
34349,57860,7030
34625,58196,7622
34925,58560,8269
35240,58941,8955
35559,59328,9663
35883,59717,10380
36211,60108,11102
36535,60491,11816
36842,60855,12502
37132,61200,13146
37405,61521,13745
37654,61811,14290
37879,62074,14776
38078,62311,15203
38253,62521,15572
38410,62702,15885
38549,62855,16143
38664,62979,16345
38754,63076,16497
38813,63142,16597
38842,63172,16645
38844,63172,16641
38828,63149,16592
38800,63112,16511
38765,63066,16407
38720,63005,16277
38657,62925,16119
38573,62828,15938
38475,62722,15746
38369,62609,15545
38259,62489,15336
38147,62361,15118
38036,62230,14890
37926,62097,14656
37810,61957,14414
37691,61809,14166
37573,61659,13914
37460,61515,13662
37354,61382,13419
37251,61255,13183
37140,61122,12946
37019,60982,12705
36898,60841,12463
36785,60709,12225
36681,60584,11995
36583,60468,11777
36493,60360,11571
36409,60258,11374
36328,60161,11190
36257,60072,11027
36196,59994,10885
36143,59929,10760
36091,59871,10647
36035,59810,10539
35980,59749,10439
35931,59700,10358
35890,59661,10299
35858,59629,10255
35840,59605,10222
35834,59593,10208
35833,59595,10219
35833,59607,10249
35836,59624,10287
35844,59644,10334
35859,59668,10388
35881,59694,10449
35908,59724,10516
35939,59760,10587
35972,59801,10659
36001,59839,10725
36019,59869,10786
36029,59891,10842
36035,59908,10889
36035,59915,10918
36029,59913,10929
36024,59906,10925
36019,59898,10913
36014,59886,10894
36003,59867,10865
35987,59845,10826
35963,59820,10778
35927,59786,10719
35888,59748,10653
35853,59704,10579
35813,59656,10497
35769,59607,10410
35729,59561,10324
35691,59516,10235
35653,59465,10141
35617,59413,10045
35584,59362,9941
35542,59306,9827
35492,59242,9704
35437,59177,9574
35378,59110,9443
35314,59035,9309
35251,58958,9172
35191,58882,9036
35130,58806,8898
35069,58729,8759
35012,58657,8621
34956,58591,8488
34897,58526,8357
34829,58456,8224
34751,58377,8086
34675,58295,7947
34606,58212,7808
34540,58131,7672
34483,58056,7537
34430,57983,7408
34376,57915,7289
34324,57855,7179
34277,57802,7076
34234,57750,6980
34188,57696,6884
34139,57640,6788
34088,57583,6694
34037,57524,6601
33989,57464,6509
33941,57407,6418
33892,57351,6328
33842,57297,6239
33794,57245,6151
33745,57193,6065
33697,57141,5981
33659,57094,5902
33631,57056,5831
33606,57022,5766
33579,56987,5702
33548,56948,5634
33515,56910,5566
33483,56878,5504
33458,56852,5447
33434,56826,5395
33409,56800,5344
33379,56770,5288
33337,56731,5219
33284,56684,5136
33226,56630,5046
33168,56572,4955
33111,56514,4866
33057,56456,4780
33004,56398,4698
32964,56354,4635
32943,56328,4598
32939,56318,4590
32952,56330,4624
32992,56379,4718
33069,56474,4880
33184,56615,5112
33334,56802,5419
33522,57031,5806
33743,57301,6269
33996,57610,6802
34280,57953,7399
34583,58318,8050
34901,58698,8741
35235,59093,9459
35579,59496,10188
35917,59895,10909
36241,60281,11610
36551,60652,12285
36840,61004,12920
37111,61334,13504
37357,61631,14030
37573,61890,14489
37761,62113,14889
37925,62305,15237
38066,62465,15532
38182,62593,15766
38275,62692,15939
38344,62764,16053
38384,62806,16111
38399,62819,16120
38395,62808,16088
38370,62771,16020
38325,62713,15916
38264,62638,15780
38196,62554,15623
38121,62460,15451
38037,62354,15264
37943,62236,15062
37833,62104,14844
37708,61960,14605
37578,61813,14352
37454,61670,14097
37334,61533,13844
37219,61399,13596
37104,61266,13353
36983,61133,13111
36862,60998,12871
36745,60862,12628
36627,60719,12379
36512,60576,12126
36403,60436,11874
36299,60304,11626
36197,60180,11388
36098,60056,11157
35997,59931,10930
35891,59804,10705
35784,59679,10482
35683,59557,10266
35592,59441,10064
35509,59337,9883
35429,59247,9727
35357,59170,9597
35296,59107,9493
35245,59058,9410
35204,59019,9343
35172,58990,9292
35151,58971,9257
35142,58963,9242
35144,58964,9245
35148,58971,9261
35151,58983,9289
35157,59002,9329
35165,59024,9377
35180,59049,9430
35208,59084,9496
35243,59127,9575
35279,59170,9660
35320,59219,9750
35366,59274,9844
35411,59332,9940
35451,59387,10030
35494,59436,10110
35533,59475,10175
35555,59497,10217
35565,59506,10238
35576,59513,10247
35586,59520,10248
35585,59517,10233
35567,59503,10202
35539,59482,10158
35509,59455,10100
35482,59422,10031
35455,59380,9955
35422,59330,9874
35388,59279,9789
35354,59228,9702
35314,59170,9608
35268,59109,9509
35220,59048,9410
35177,58992,9311
35139,58940,9213
35099,58886,9112
35051,58823,8999
34992,58749,8871
34921,58668,8732
34847,58584,8592
34779,58506,8455
34718,58433,8319
34657,58361,8185
34592,58288,8049
34528,58212,7915
34463,58136,7786
34392,58053,7654
34315,57966,7512
34234,57878,7368
34155,57792,7223
34085,57711,7080
34021,57634,6937
33957,57556,6793
33891,57476,6651
33826,57399,6518
33757,57324,6392
33683,57250,6267
33611,57176,6142
33552,57107,6026
33506,57051,5923
33469,57004,5829
33436,56959,5738
33403,56911,5650
33368,56863,5566
33330,56816,5484
33287,56767,5399
33240,56713,5308
33194,56660,5219
33154,56611,5136
33115,56564,5056
33074,56517,4974
33034,56475,4896
32994,56435,4820
32957,56396,4745
32927,56361,4672
32899,56329,4601
32866,56294,4529
32828,56255,4454
32789,56211,4377
32746,56160,4301
32698,56102,4225
32647,56042,4147
32604,55988,4074
32566,55939,4003
32524,55891,3932
32480,55846,3861
32437,55801,3791
32391,55757,3725
32347,55717,3663
32314,55687,3611
32301,55675,3580
32311,55685,3580
32344,55722,3627
32404,55792,3731
32490,55897,3899
32609,56045,4139
32767,56237,4455
32959,56470,4850
33182,56741,5317
33429,57043,5844
33691,57365,6418
33962,57700,7030
34247,58051,7676
34548,58418,8347
34858,58788,9026
35167,59151,9698
35462,59498,10347
35739,59825,10961
35998,60131,11537
36238,60413,12069
36455,60670,12550
36648,60902,12978
36821,61107,13352
36972,61284,13667
37102,61434,13923
37204,61554,14120
37280,61641,14260
37331,61697,14351
37356,61723,14394
37361,61722,14388
37347,61699,14339
37311,61654,14252
37253,61586,14127
37177,61501,13965
37088,61403,13777
36989,61291,13570
36886,61167,13350
36786,61038,13125
36687,60908,12895
36585,60775,12658
36475,60643,12417
36365,60514,12173
36256,60382,11921
36145,60242,11662
36027,60092,11400
35906,59940,11137
35792,59795,10878
35683,59660,10622
35568,59526,10364
35450,59388,10108
35342,59257,9865
35248,59138,9640
35159,59026,9427
35070,58915,9218
34982,58801,9010
34889,58683,8803
34791,58566,8600
34694,58452,8402
34605,58345,8215
34533,58253,8053
34477,58181,7920
34426,58121,7811
34378,58072,7724
34344,58043,7665
34325,58031,7634
34320,58035,7631
34326,58054,7652
34339,58084,7697
34356,58121,7763
34387,58163,7848
34441,58219,7949
34508,58289,8067
34574,58363,8194
34640,58442,8327
34709,58525,8464
34775,58605,8602
34838,58677,8736
34898,58742,8862
34952,58800,8981
34997,58852,9091
35034,58894,9183
35071,58933,9262
35102,58967,9330
35123,58991,9382
35139,59004,9420
35155,59015,9447
35169,59024,9463
35173,59023,9467
35164,59012,9458
35146,58988,9432
35120,58954,9387
35093,58917,9324
35059,58876,9250
35012,58826,9167
34957,58768,9070
34904,58710,8961
34854,58650,8844
34806,58590,8723
34757,58532,8603
34710,58476,8490
34664,58419,8377
34611,58356,8257
34545,58283,8129
34476,58209,8000
34411,58136,7868
34351,58062,7734
34301,57993,7604
34257,57931,7482
34209,57869,7359
34157,57805,7233
34103,57740,7108
34051,57672,6985
33999,57603,6862
33948,57535,6737
33898,57470,6616
33843,57402,6497
33784,57332,6379
33727,57264,6265
33674,57201,6154
33622,57137,6044
33574,57075,5936
33528,57019,5834
33478,56962,5732
33422,56902,5628
33364,56842,5527
33310,56786,5433
33269,56738,5352
33237,56696,5280
33205,56655,5210
33172,56614,5135
33137,56569,5053
33101,56524,4970
33064,56480,4887
33026,56433,4800
32985,56382,4710
32941,56327,4619
32898,56275,4530
32856,56227,4447
32813,56182,4369
32774,56142,4298
32745,56113,4242
32731,56101,4209
32732,56105,4207
32751,56132,4249
32795,56195,4351
32872,56298,4521
32981,56441,4758
33121,56621,5065
33293,56838,5441
33497,57089,5884
33727,57368,6386
33981,57672,6938
34258,58002,7532
34554,58355,8160
34853,58717,8808
35146,59075,9457
35429,59425,10097
35706,59763,10716
35974,60083,11306
36224,60378,11855
36450,60643,12354
36658,60883,12804
36849,61099,13207
37016,61288,13557
37157,61448,13846
37264,61573,14070
37335,61660,14235
37381,61720,14348
37407,61758,14415
37412,61770,14438
37398,61755,14417
37361,61713,14355
37302,61650,14255
37225,61572,14121
37142,61481,13957
37058,61379,13769
36966,61265,13559
36863,61136,13323
36749,60994,13067
36630,60848,12805
36508,60701,12544
36390,60555,12281
36275,60409,12018
36160,60262,11758
36045,60117,11504
35930,59975,11248
35809,59833,10984
35681,59683,10707
35551,59526,10421
35422,59364,10132
35290,59201,9848
35163,59043,9568
35047,58897,9294
34937,58762,9030
34825,58631,8779
34710,58496,8538
34599,58367,8315
34493,58249,8114
34397,58145,7936
34315,58053,7779
34248,57971,7639
34199,57903,7517
34165,57851,7421
34139,57814,7347
34120,57789,7293
34110,57779,7261
34109,57786,7258
34116,57806,7287
34131,57834,7341
34155,57868,7408
34187,57909,7483
34227,57959,7563
34272,58016,7649
34318,58075,7739
34362,58133,7831
34406,58188,7926
34452,58241,8021
34498,58293,8114
34541,58341,8202
34578,58386,8289
34611,58424,8375
34643,58456,8454
34674,58484,8526
34705,58511,8590
34732,58534,8636
34750,58552,8664
34759,58563,8679
34763,58568,8680
34765,58568,8670
34757,58558,8650
34731,58531,8612
34694,58490,8554
34655,58441,8481
34620,58391,8405
34585,58341,8328
34546,58290,8249
34508,58241,8165
34474,58197,8081
34433,58154,7995
34384,58108,7907
34337,58062,7812
34296,58014,7706
34262,57963,7589
34234,57912,7464
34209,57861,7332
34184,57810,7203
34158,57755,7081
34128,57698,6965
34088,57636,6851
34039,57568,6737
33982,57497,6622
33925,57426,6505
33871,57359,6389
33821,57302,6281
33774,57251,6182
33728,57199,6088
33685,57146,5994
33640,57090,5897
33593,57030,5796
33546,56971,5693
33497,56913,5589
33452,56862,5492
33407,56818,5400
33357,56770,5307
33300,56715,5214
33241,56659,5123
33181,56605,5040
33131,56555,4963
33096,56514,4891
33067,56478,4822
33041,56444,4753
33022,56414,4681
33010,56385,4611
32998,56353,4544
32991,56324,4482
32990,56299,4426
32989,56272,4369
32980,56243,4311
32960,56212,4256
32930,56177,4200
32895,56142,4145
32858,56107,4087
32815,56066,4025
32771,56026,3965
32736,55996,3913
32712,55970,3867
32697,55948,3826
32683,55927,3788
32663,55909,3760
32644,55902,3748
32647,55912,3763
32678,55949,3818
32739,56022,3931
32833,56138,4118
32955,56292,4387
33105,56485,4732
33290,56720,5155
33515,56998,5655
33779,57321,6233
34080,57687,6883
34413,58087,7595
34767,58511,8351
35124,58943,9128
35474,59366,9905
35819,59776,10666
36161,60176,11411
36497,60567,12130
36817,60941,12802
37112,61287,13419
37375,61593,13979
37608,61861,14475
37813,62096,14907
37987,62299,15273
38131,62469,15578
38254,62609,15827
38351,62718,16017
38414,62790,16147
38445,62831,16223
38452,62845,16250
38433,62831,16229
38393,62796,16163
38344,62745,16059
38295,62683,15926
38244,62611,15774
38184,62530,15605
38109,62439,15420
38019,62334,15217
37914,62209,14994
37793,62067,14754
37667,61920,14508
37544,61778,14264
37428,61642,14023
37317,61506,13783
37208,61370,13541
37098,61232,13294
36979,61091,13037
36856,60947,12768
36732,60801,12494
36611,60657,12220
36500,60516,11954
36395,60377,11699
36291,60244,11457
36185,60114,11224
36072,59983,10990
35961,59853,10759
35862,59734,10542
35781,59628,10345
35712,59532,10166
35643,59438,10003
35572,59351,9853
35503,59275,9722
35440,59209,9610
35383,59148,9513
35329,59094,9432
35284,59053,9370
35255,59031,9333
35235,59019,9319
35225,59021,9331
35234,59041,9371
35262,59080,9441
35303,59134,9533
35356,59196,9637
35412,59260,9744
35464,59322,9850
35513,59382,9960
35563,59441,10071
35612,59500,10180
35661,59556,10285
35710,59610,10384
35753,59657,10470
35784,59690,10536
35805,59710,10580
35816,59723,10609
35820,59730,10629
35819,59731,10639
35812,59724,10634
35791,59708,10610
35762,59685,10576
35729,59659,10538
35697,59630,10493
35666,59596,10436
35630,59552,10364
35593,59502,10278
35560,59450,10182
35526,59394,10077
35484,59335,9965
35431,59271,9849
35370,59203,9729
35306,59132,9607
35244,59059,9483
35182,58982,9356
35117,58904,9225
35053,58830,9093
34997,58761,8961
34947,58698,8833
34898,58635,8710
34843,58565,8587
34784,58489,8457
34724,58410,8316
34656,58325,8168
34580,58239,8019
34508,58159,7873
34448,58086,7730
34396,58018,7594
34345,57950,7464
34291,57880,7335
34233,57808,7207
34175,57737,7081
34113,57664,6954
34051,57590,6827
33992,57518,6703
33938,57450,6584
33889,57386,6470
33842,57324,6362
33793,57262,6261
33744,57200,6161
33695,57141,6060
33652,57090,5965
33619,57052,5882
33594,57022,5812
33568,56991,5746
33538,56960,5685
33508,56929,5626
33484,56898,5565
33460,56867,5498
33427,56833,5431
33390,56804,5369
33362,56784,5319
33342,56766,5275
33323,56742,5227
33302,56712,5173
33277,56676,5112
33245,56639,5043
33203,56593,4967
33153,56534,4886
33097,56467,4802
33038,56397,4714
32979,56334,4624
32924,56277,4536
32874,56230,4460
32836,56199,4410
32818,56193,4402
32828,56214,4440
32867,56267,4531
32937,56360,4686
33038,56495,4913
33170,56669,5213
33342,56884,5583
33555,57138,6021
33806,57430,6525
34090,57762,7099
34397,58125,7742
34715,58507,8436
35043,58904,9167
35376,59309,9918
35704,59712,10670
36026,60107,11404
36340,60489,12100
36642,60846,12747
36921,61171,13340
37167,61460,13875
37379,61714,14352
37561,61937,14774
37722,62136,15139
37871,62314,15450
38000,62469,15704
38107,62595,15900
38188,62688,16040
38236,62746,16125
38256,62771,16159
38249,62763,16144
38211,62722,16078
38147,62650,15964
38069,62556,15817
37985,62450,15640
37903,62339,15439
37816,62223,15225
37723,62105,15004
37626,61982,14771
37527,61853,14532
37428,61720,14289
37323,61581,14038
37207,61439,13781
37083,61294,13518
36955,61144,13254
36824,60991,12986
36696,60837,12711
36573,60685,12432
36453,60534,12156
36333,60388,11888
36217,60248,11629
36104,60113,11376
35989,59980,11129
35870,59842,10883
35755,59703,10637
35648,59571,10399
35548,59447,10178
35454,59332,9975
35364,59224,9788
35280,59122,9615
35203,59028,9454
35135,58944,9311
35074,58874,9196
35021,58817,9106
34976,58771,9032
34942,58732,8970
34913,58701,8923
34887,58679,8897
34878,58671,8892
34894,58685,8913
34929,58721,8961
34976,58776,9034
35034,58843,9124
35098,58913,9225
35160,58983,9335
35223,59057,9452
35284,59131,9576
35334,59195,9701
35373,59247,9821
35408,59290,9927
35441,59326,10014
35478,59363,10088
35515,59402,10152
35546,59437,10207
35568,59466,10250
35588,59489,10278
35609,59502,10293
35624,59508,10299
35631,59508,10292
35628,59497,10262
35615,59473,10215
35590,59438,10160
35553,59394,10090
35509,59342,10002
35462,59287,9902
35418,59233,9798
35374,59180,9692
35328,59124,9586
35277,59061,9478
35217,58990,9360
35145,58908,9231
35061,58814,9090
34975,58717,8941
34897,58625,8791
34830,58541,8642
34774,58462,8496
34721,58389,8354
34664,58316,8209
34603,58242,8066
34534,58167,7926
34457,58091,7788
34379,58009,7648
34300,57924,7505
34222,57838,7363
34149,57759,7231
34088,57692,7104
34037,57633,6978
33989,57569,6851
33939,57503,6726
33890,57439,6607
33838,57375,6492
33778,57305,6382
33717,57234,6274
33659,57171,6169
33604,57113,6065
33551,57052,5959
33507,56995,5850
33473,56949,5742
33446,56911,5639
33423,56875,5539
33399,56840,5446
33367,56800,5359
33329,56754,5276
33292,56709,5196
33254,56664,5119
33211,56617,5043
33166,56569,4967
33125,56526,4892
33085,56482,4820
33043,56434,4747
33003,56390,4675
32974,56356,4611
32954,56329,4554
32932,56298,4494
32900,56259,4422
32862,56217,4344
32824,56174,4268
32787,56133,4194
32748,56090,4119
32713,56049,4047
32689,56017,3991
32676,56004,3965
32670,56008,3978
32683,56036,4032
32728,56099,4142
32812,56201,4321
32925,56342,4570
33070,56523,4894
33252,56748,5296
33469,57014,5767
33715,57315,6294
33984,57644,6873
34266,57994,7493
34563,58359,8142
34873,58729,8808
35185,59098,9479
35491,59461,10143
35789,59814,10790
36072,60147,11405
36329,60452,11970
36558,60724,12476
36758,60963,12926
36933,61172,13321
37085,61352,13658
37212,61501,13930
37311,61614,14138
37383,61695,14290
37431,61748,14389
37455,61775,14443
37460,61781,14456
37451,61767,14426
37426,61733,14353
37384,61678,14246
37330,61611,14117
37264,61531,13968
37182,61436,13797
37090,61330,13599
36997,61222,13380
36903,61110,13152
36802,60988,12921
36697,60859,12686
36586,60723,12442
36468,60583,12190
36350,60439,11934
36230,60293,11673
36108,60147,11409
35991,60003,11148
35884,59862,10893
35784,59724,10641
35685,59586,10389
35585,59450,10143
35487,59320,9905
35388,59189,9671
35288,59061,9440
35193,58939,9218
35103,58825,9006
35009,58712,8804
34909,58600,8609
34813,58493,8420
34732,58399,8247
34667,58324,8097
34616,58267,7974
34577,58226,7874
34545,58198,7800
34520,58178,7754
34503,58165,7734
34496,58161,7738
34506,58173,7764
34534,58203,7813
34574,58244,7880
34623,58294,7962
34684,58352,8057
34747,58417,8159
34806,58485,8270
34861,58552,8390
34911,58613,8512
34956,58669,8634
35000,58728,8762
35048,58792,8890
35098,58859,9010
35146,58923,9118
35186,58972,9210
35224,59010,9287
35263,59046,9351
35299,59079,9402
35324,59103,9437
35328,59107,9454
35318,59097,9451
35300,59080,9432
35277,59057,9399
35254,59034,9355
35228,59008,9303
35192,58974,9241
35144,58923,9163
35088,58861,9072
35031,58798,8974
34978,58735,8870
34925,58669,8757
34876,58604,8641
34831,58542,8521
34784,58480,8399
34733,58414,8273
34679,58346,8143
34624,58276,8011
34569,58207,7883
34514,58143,7764
34456,58079,7652
34396,58013,7544
34336,57945,7438
34276,57876,7325
34216,57807,7201
34161,57738,7067
34111,57668,6932
34059,57601,6804
34002,57532,6679
33939,57458,6549
33872,57381,6413
33805,57304,6277
33748,57234,6147
33705,57171,6027
33666,57115,5917
33624,57059,5812
33580,56999,5707
33532,56937,5605
33477,56872,5506
33420,56810,5407
33368,56753,5310
33321,56699,5214
33275,56643,5116
33230,56587,5017
33185,56531,4916
33141,56473,4816
33097,56414,4715
33051,56357,4617
33006,56307,4526
32972,56269,4444
32947,56240,4369
32924,56214,4302
32905,56190,4247
32887,56170,4204
32869,56156,4177
32861,56157,4174
32866,56175,4202
32895,56214,4272
32954,56282,4395
33042,56385,4582
33162,56529,4837
33312,56712,5159
33489,56930,5546
33696,57188,6000
33936,57488,6518
34208,57818,7090
34495,58166,7699
34793,58524,8338
35093,58886,8992
35384,59237,9642
35663,59575,10273
35934,59902,10878
36187,60209,11445
36414,60485,11965
36615,60730,12433
36785,60943,12844
36931,61126,13198
37059,61281,13496
37171,61411,13736
37264,61508,13918
37335,61576,14047
37384,61622,14130
37414,61650,14170
37424,61658,14169
37410,61644,14132
37374,61605,14061
37321,61544,13956
37259,61470,13820
37194,61389,13661
37127,61304,13488
37057,61213,13306
36977,61109,13110
36884,60990,12896
36783,60866,12666
36677,60743,12430
36567,60616,12187
36454,60479,11935
36338,60334,11679
36227,60187,11420
36119,60042,11156
36010,59902,10889
35900,59768,10626
35790,59634,10373
35674,59493,10122
35550,59346,9867
35422,59197,9610
35299,59055,9363
35189,58924,9132
35090,58804,8915
34996,58695,8710
34909,58594,8518
34824,58498,8340
34738,58404,8174
34658,58319,8031
34590,58252,7917
34544,58205,7831
34516,58176,7770
34499,58159,7732
34490,58154,7722
34493,58168,7743
34513,58199,7791
34548,58241,7858
34595,58291,7939
34651,58350,8036
34714,58419,8154
34780,58488,8283
34844,58554,8415
34909,58623,8554
34977,58699,8696
35047,58777,8835
35114,58850,8963
35173,58918,9076
35220,58974,9175
35250,59017,9261
35273,59053,9338
35292,59080,9403
35307,59097,9455
35326,59113,9501
35346,59128,9537
35361,59137,9562
35367,59140,9578
35368,59138,9581
35364,59127,9565
35347,59103,9527
35315,59065,9471
35275,59021,9402
35234,58977,9320
35188,58925,9224
35133,58863,9115
35077,58799,9002
35028,58739,8889
34983,58683,8777
34939,58625,8659
34887,58560,8529
34824,58486,8387
34757,58409,8250
34694,58337,8124
34633,58266,8002
34564,58189,7873
34492,58111,7739
34426,58036,7607
34366,57960,7475
34312,57886,7346
34268,57821,7224
34225,57758,7108
34173,57691,6991
34115,57624,6874
34062,57563,6759
34015,57507,6645
33976,57456,6540
33946,57410,6447
33916,57364,6359
33876,57309,6266
33826,57247,6169
33778,57189,6073
33731,57134,5978
33682,57074,5877
33629,57008,5768
33569,56938,5655
33503,56864,5542
33432,56790,5428
33364,56721,5317
33300,56655,5208
33237,56591,5103
33176,56528,5005
33115,56464,4906
33058,56400,4802
33008,56340,4701
32966,56288,4607
32928,56241,4519
32892,56198,4436
32854,56159,4361
32820,56130,4302
32798,56116,4265
32785,56115,4253
32790,56138,4282
32826,56200,4370
32903,56307,4526
33018,56455,4756
33163,56639,5060
33333,56855,5440
33533,57107,5897
33769,57400,6429
34043,57728,7025
34345,58081,7669
34663,58449,8346
34985,58825,9040
35303,59200,9734
35613,59568,10416
35913,59925,11078
36198,60264,11704
36460,60581,12288
36708,60879,12828
36940,61155,13320
37146,61402,13759
37323,61615,14140
37479,61797,14465
37613,61946,14731
37720,62059,14934
37805,62145,15080
37866,62205,15173
37898,62237,15215
37909,62246,15214
37905,62230,15177
37877,62187,15103
37826,62121,14992
37760,62042,14851
37679,61950,14685
37586,61843,14491
37485,61724,14273
37382,61599,14045
37280,61476,13815
37174,61351,13584
37067,61223,13353
36956,61088,13121
36841,60948,12884
36731,60811,12646
36627,60680,12407
36524,60552,12166
36428,60428,11929
36340,60308,11701
36256,60190,11478
36168,60074,11260
36069,59955,11041
35965,59831,10821
35862,59705,10600
35760,59576,10383
35665,59453,10179
35582,59341,9991
35512,59246,9818
35452,59166,9667
35392,59096,9533
35333,59035,9420
35278,58986,9331
35233,58951,9264
35202,58931,9217
35188,58927,9193
35191,58938,9194
35204,58965,9222
35228,59005,9272
35262,59054,9343
35297,59103,9424
35328,59150,9509
35362,59196,9596
35402,59244,9690
35448,59297,9793
35504,59355,9903
35565,59416,10020
35625,59476,10138
35677,59533,10244
35720,59584,10333
35758,59630,10414
35799,59676,10494
35836,59718,10564
35869,59754,10623
35904,59790,10674
35936,59822,10713
35953,59841,10739
35953,59838,10743
35941,59818,10730
35930,59794,10711
35921,59772,10681
35907,59744,10632
35886,59710,10574
35859,59675,10515
35827,59639,10452
35782,59597,10374
35725,59544,10280
35669,59486,10177
35616,59424,10068
35560,59353,9950
35500,59276,9825
35433,59193,9694
35363,59107,9561
35295,59022,9427
35235,58946,9296
35182,58878,9170
35135,58813,9045
35093,58749,8917
35048,58684,8787
35001,58621,8659
34952,58558,8535
34905,58495,8415
34857,58433,8299
34800,58365,8184
34739,58296,8072
34685,58230,7962
34633,58167,7852
34574,58105,7737
34508,58040,7618
34440,57969,7493
34373,57894,7366
34307,57819,7241
34247,57752,7122
34198,57694,7013
34156,57640,6916
34111,57583,6824
34058,57518,6729
34005,57454,6632
33961,57400,6543
33924,57358,6464
33893,57329,6403
33875,57318,6370
33880,57334,6383
33913,57386,6457
33974,57473,6598
34071,57600,6808
34208,57769,7087
34379,57974,7439
34579,58211,7861
34807,58481,8346
35059,58782,8890
35334,59113,9490
35628,59467,10134
35930,59832,10803
36237,60206,11483
36549,60585,12162
36860,60960,12831
37159,61320,13478
37444,61660,14097
37714,61976,14676
37960,62262,15201
38179,62517,15665
38371,62744,16072
38537,62941,16422
38678,63105,16710
38798,63240,16936
38896,63344,17101
38960,63415,17207
38993,63458,17265
39001,63472,17278
38988,63456,17246
38960,63416,17173
38916,63354,17065
38856,63276,16929
38784,63186,16771
38703,63085,16596
38615,62975,16405
38521,62855,16197
38416,62724,15967
38302,62587,15723
38186,62448,15476
38067,62306,15232
37946,62164,14992
37826,62027,14753
37711,61895,14515
37601,61763,14272
37488,61624,14023
37379,61487,13774
37276,61355,13526
37177,61230,13278
37077,61105,13032
36980,60978,12791
36882,60853,12559
36777,60729,12336
36670,60608,12119
36568,60493,11917
36476,60391,11738
36398,60306,11584
36333,60235,11454
36281,60177,11340
36241,60129,11241
36211,60088,11161
36182,60053,11102
36155,60024,11061
36134,60008,11039
36123,60003,11037
36129,60010,11055
36154,60030,11094
36190,60060,11154
36226,60100,11230
36262,60146,11315
36304,60200,11406
36353,60262,11505
36404,60329,11609
36460,60397,11715
36518,60461,11825
36571,60518,11933
36617,60572,12030
36661,60622,12112
36699,60662,12181
36729,60690,12237
36757,60709,12283
36778,60721,12316
36784,60722,12330
36772,60712,12322
36744,60690,12295
36708,60657,12251
36672,60619,12201
36638,60582,12150
36608,60543,12090
36580,60501,12016
36546,60455,11932
36506,60404,11845
36462,60352,11758
36412,60298,11663
36357,60239,11554
36305,60179,11441
36258,60123,11331
36217,60073,11224
36179,60021,11118
36134,59960,11009
36078,59890,10892
36013,59817,10764
35946,59748,10630
35878,59677,10488
35814,59605,10345
35763,59538,10213
35724,59477,10098
35689,59420,9992
35656,59368,9892
35625,59316,9792
35590,59257,9687
35550,59194,9574
35502,59130,9453
35441,59062,9328
35376,58996,9205
35317,58933,9088
35255,58867,8974
35186,58797,8858
35116,58728,8739
35045,58657,8622
34970,58580,8501
34899,58502,8380
34839,58433,8262
34786,58370,8144
34736,58307,8034
34692,58252,7942
34656,58208,7870
34624,58176,7821
34605,58163,7800
34611,58179,7820
34652,58233,7900
34731,58329,8050
34846,58464,8269
34993,58638,8559
35167,58848,8920
35368,59093,9353
35596,59372,9857
35848,59682,10427
36124,60024,11054
36422,60388,11720
36733,60767,12409
37052,61158,13117
37366,61549,13826
37672,61935,14522
37972,62309,15189
38260,62662,15811
38529,62985,16379
38779,63280,16897
39014,63547,17362
39230,63781,17771
39415,63978,18118
39562,64138,18402
39677,64263,18625
39758,64353,18789
39809,64413,18896
39835,64446,18952
39841,64452,18956
39826,64435,18913
39790,64395,18827
39740,64335,18708
39679,64259,18565
39606,64168,18401
39516,64062,18213
39413,63941,18000
39301,63808,17765
39181,63668,17517
39054,63524,17262
38927,63377,17005
38806,63232,16749
38693,63090,16496
38581,62948,16245
38465,62805,15995
38348,62666,15747
38233,62525,15495
38117,62382,15241
38006,62241,14993
37899,62105,14753
37797,61977,14522
37699,61855,14295
37602,61734,14073
37508,61620,13864
37420,61517,13671
37339,61419,13487
37263,61318,13309
37188,61216,13141
37118,61126,12991
37056,61052,12864
36999,60991,12759
36954,60947,12678
36921,60918,12624
36899,60899,12595
36886,60889,12586
36881,60888,12598
36890,60902,12634
36909,60928,12688
36935,60962,12752
36970,61007,12831
37011,61060,12925
37058,61121,13031
37115,61193,13144
37169,61265,13256
37213,61327,13362
37252,61380,13466
37293,61429,13568
37335,61477,13663
37383,61526,13748
37435,61576,13821
37483,61618,13879
37523,61647,13922
37553,61664,13951
37572,61672,13963
37577,61669,13953
37569,61654,13922
37545,61626,13871
37503,61584,13804
37448,61533,13726
37391,61479,13640
37340,61426,13553
37291,61373,13467
37236,61310,13373
37170,61237,13261
37098,61155,13128
37025,61068,12981
36957,60981,12830
36904,60903,12685
36858,60832,12551
36808,60761,12418
36759,60693,12290
36707,60627,12163
36647,60556,12029
36582,60481,11891
36512,60401,11753
36441,60319,11615
36379,60246,11485
36324,60180,11357
36268,60115,11224
36212,60051,11088
36154,59985,10957
36093,59915,10830
36028,59841,10706
35965,59767,10585
35904,59695,10465
35845,59627,10347
35788,59559,10227
35732,59488,10106
35684,59423,9993
35645,59367,9892
35608,59318,9802
35566,59269,9722
35518,59216,9646
35468,59161,9566
35417,59103,9479
35372,59049,9390
35326,58997,9299
35274,58939,9202
35215,58878,9099
35152,58814,8997
35096,58754,8899
35048,58701,8807
35002,58650,8719
34955,58602,8635
34916,58566,8566
34893,58546,8522
34884,58544,8505
34895,58567,8526
34931,58616,8592
34990,58690,8712
35081,58799,8896
35213,58954,9152
35385,59154,9486
35592,59398,9898
35827,59680,10385
36081,59991,10930
36350,60321,11521
36636,60669,12153
36939,61033,12816
37254,61407,13500
37569,61780,14187
37874,62142,14858
38167,62493,15504
38449,62831,16117
38717,63148,16690
38965,63437,17214
39184,63693,17682
39374,63921,18089
39543,64123,18433
39683,64290,18713
39787,64410,18926
39852,64486,19072
39886,64526,19157
39897,64540,19189
39887,64528,19167
39852,64484,19094
39797,64417,18980
39730,64336,18835
39657,64246,18666
39576,64151,18479
39488,64051,18281
39394,63943,18068
39291,63823,17839
39182,63693,17600
39073,63559,17359
38957,63420,17114
38827,63270,16857
38693,63115,16589
38564,62962,16321
38440,62814,16059
38318,62670,15798
38199,62529,15536
38080,62389,15275
37955,62242,15014
37827,62093,14756
37699,61949,14507
37577,61810,14266
37459,61671,14030
37347,61531,13798
37244,61398,13577
37151,61277,13371
37066,61167,13181
36991,61071,13010
36929,60995,12866
36875,60932,12750
36829,60879,12655
36794,60836,12582
36768,60803,12531
36745,60783,12503
36730,60777,12499
36724,60782,12519
36728,60803,12563
36738,60838,12628
36761,60885,12713
36806,60946,12814
36869,61020,12929
36936,61099,13054
36996,61176,13179
37053,61252,13300
37115,61329,13420
37177,61401,13534
37234,61463,13638
37285,61509,13724
37324,61539,13793
37356,61566,13853
37383,61592,13907
37400,61607,13948
37403,61607,13970
37393,61595,13971
37378,61576,13952
37360,61551,13912
37343,61526,13858
37326,61500,13792
37308,61474,13719
37287,61446,13642
37258,61411,13555
37219,61364,13455
37175,61306,13341
37125,61240,13215
37071,61168,13085
37012,61090,12955
36950,61010,12828
36887,60931,12700
36819,60853,12570
36744,60773,12438
36662,60693,12299
36581,60615,12159
36512,60543,12025
36455,60477,11898
36405,60412,11772
36357,60347,11646
36309,60284,11517
36253,60224,11389
36188,60161,11266
36121,60092,11147
36058,60021,11028
35998,59946,10911
35943,59873,10802
35897,59806,10700
35859,59747,10607
35820,59688,10517
35772,59623,10419
35716,59554,10313
35652,59484,10201
35585,59422,10091
35525,59372,9991
35483,59336,9902
35448,59301,9821
35411,59255,9741
35372,59204,9660
35329,59150,9575
35281,59093,9487
35237,59039,9404
35202,58993,9334
35171,58955,9272
35139,58922,9213
35108,58891,9151
35073,58855,9081
35030,58810,9002
34978,58759,8921
34926,58708,8843
34880,58662,8765
34840,58620,8684
34807,58581,8601
34783,58547,8528
34762,58514,8464
34736,58481,8404
34710,58455,8357
34690,58437,8332
34684,58436,8341
34708,58466,8400
34772,58535,8520
34865,58639,8702
34979,58776,8946
35121,58952,9260
35298,59170,9649
35506,59425,10106
35736,59709,10616
35985,60018,11169
36256,60351,11759
36545,60697,12378
36839,61048,13010
37126,61391,13637
37401,61724,14245
37661,62045,14826
37907,62352,15372
38140,62641,15877
38353,62900,16328
38539,63122,16713
38703,63309,17039
38844,63464,17308
38951,63579,17512
39021,63654,17646
39060,63695,17721
39072,63709,17749
39060,63699,17736
39032,63669,17687
38992,63624,17608
38942,63562,17496
38882,63483,17355
38807,63382,17186
38715,63262,16995
38611,63132,16787
38501,62997,16566
38385,62856,16328
38265,62712,16078
38140,62570,15823
38006,62429,15560
37866,62283,15289
37733,62136,15018
37611,61996,14757
37497,61863,14503
37389,61730,14251
37284,61593,14000
37174,61451,13750
37063,61309,13504
36956,61171,13263
36846,61036,13025
36734,60903,12789
36624,60771,12555
36515,60641,12326
36407,60517,12105
36308,60405,11902
36224,60311,11728
36161,60238,11588
36112,60186,11479
36072,60147,11394
36041,60119,11332
36026,60107,11297
36032,60109,11289
