green_channel,red_channel,ir_channel
32333,41142,23791
32246,41062,23689
32157,40981,23583
32070,40903,23476
31988,40827,23371
31908,40754,23268
31827,40681,23164
31747,40610,23062
31669,40541,22964
31592,40474,22868
31519,40412,22776
31449,40353,22690
31382,40296,22611
31318,40239,22536
31256,40185,22462
31195,40133,22389
31130,40083,22315
31062,40032,22240
30993,39981,22165
30924,39928,22090
30857,39876,22021
30797,39827,21956
30741,39779,21890
30685,39730,21821
30627,39676,21750
30570,39623,21679
30514,39572,21608
30462,39524,21539
30415,39478,21472
30371,39437,21411
30330,39399,21354
30289,39359,21299
30247,39321,21247
30205,39288,21197
30163,39257,21146
30119,39225,21095
30077,39191,21046
30039,39158,21001
30004,39128,20956
29967,39099,20908
29927,39065,20854
29884,39027,20795
29841,38987,20734
29793,38945,20671
29738,38901,20605
29678,38853,20538
29613,38801,20469
29544,38746,20396
29471,38685,20317
29396,38621,20236
29323,38557,20156
29256,38496,20083
29201,38448,20026
29165,38418,19992
29161,38418,19993
29198,38462,20045
29288,38555,20165
29439,38700,20360
29655,38902,20633
29935,39162,20983
30272,39472,21401
30647,39814,21868
31043,40174,22362
31447,40540,22864
31847,40897,23357
32228,41234,23827
32583,41543,24265
32906,41822,24663
33192,42066,25014
33441,42275,25317
33652,42452,25576
33828,42597,25791
33967,42712,25964
34070,42799,26095
34142,42860,26191
34186,42898,26254
34209,42917,26289
34215,42920,26300
34206,42911,26291
34185,42890,26267
34154,42857,26228
34114,42814,26178
34067,42762,26121
34014,42706,26057
33962,42651,25989
33912,42597,25917
33862,42544,25845
33811,42492,25776
33760,42441,25710
33707,42391,25645
33655,42342,25578
33605,42296,25512
33558,42253,25448
33512,42212,25381
33465,42169,25310
33417,42122,25234
33364,42072,25155
33304,42017,25072
33233,41953,24981
33149,41881,24880
33060,41805,24775
32970,41731,24671
32879,41657,24564
32787,41580,24457
32697,41504,24352
32613,41435,24257
32535,41373,24171
32465,41315,24096
32407,41263,24033
32365,41219,23982
32339,41188,23944
32324,41169,23919
32319,41161,23909
32322,41162,23910
32336,41173,23924
32362,41194,23953
32397,41223,23993
32435,41260,24040
32476,41304,24090
32521,41351,24142
32566,41394,24193
32609,41434,24239
32649,41471,24282
32684,41504,24323
32713,41530,24359
32734,41549,24385
32749,41563,24401
32760,41572,24407
32761,41574,24402
32754,41565,24386
32739,41549,24362
32718,41529,24332
32689,41503,24297
32650,41470,24251
32601,41428,24193
32544,41379,24129
32481,41322,24059
32413,41258,23980
32339,41188,23892
32263,41115,23801
32186,41040,23707
32107,40963,23608
32026,40885,23506
31946,40811,23406
31867,40741,23309
31786,40674,23214
31703,40606,23121
31621,40537,23031
31542,40469,22939
31467,40403,22847
31392,40337,22757
31319,40272,22670
31249,40208,22583
31179,40145,22495
31108,40082,22406
31040,40019,22314
30973,39956,22222
30908,39894,22133
30844,39837,22051
30781,39782,21972
30716,39725,21895
30655,39671,21820
30598,39620,21749
30544,39575,21680
30490,39532,21612
30438,39492,21548
30393,39458,21490
30354,39427,21435
30316,39396,21380
30276,39364,21327
30233,39331,21275
30189,39296,21224
30141,39259,21173
30092,39219,21119
30044,39176,21063
29994,39131,21005
29939,39082,20941
29879,39030,20873
29819,38979,20804
29758,38929,20734
29698,38878,20664
29638,38829,20596
29581,38784,20531
29527,38740,20466
29473,38694,20400
29420,38647,20335
29368,38599,20269
29316,38552,20201
29264,38503,20133
29213,38452,20063
29160,38399,19993
29107,38346,19921
29053,38295,19846
28996,38245,19768
28935,38193,19687
28871,38140,19606
28806,38088,19524
28742,38035,19440
28678,37979,19359
28615,37925,19282
28556,37875,19213
28508,37835,19154
28476,37810,19112
28468,37808,19102
28491,37834,19136
28561,37905,19232
28696,38033,19411
28906,38230,19686
29190,38493,20055
29541,38816,20506
29945,39184,21020
30386,39584,21575
30845,39998,22149
31301,40406,22717
31740,40794,23261
32150,41156,23769
32527,41487,24237
32867,41781,24657
33164,42036,25026
33420,42254,25344
33635,42440,25612
33811,42593,25833
33950,42711,26010
34059,42799,26148
34142,42865,26254
34201,42912,26329
34236,42939,26377
34256,42949,26402
34263,42948,26407
34259,42938,26399
34244,42919,26380
34222,42890,26348
34193,42855,26307
34157,42814,26258
34113,42770,26204
34065,42725,26148
34015,42680,26090
33966,42637,26029
33919,42597,25967
33875,42560,25906
33831,42524,25848
33789,42487,25793
33752,42450,25741
33720,42414,25692
33691,42379,25644
33661,42345,25596
33628,42312,25544
33592,42281,25491
33551,42248,25436
33503,42209,25373
33448,42161,25301
33385,42104,25220
33315,42039,25133
33240,41968,25042
33163,41896,24949
33088,41827,24858
33021,41765,24774
32963,41712,24704
32914,41669,24644
32875,41633,24591
32845,41605,24549
32825,41589,24521
32815,41581,24506
32815,41580,24502
32824,41588,24507
32844,41603,24522
32870,41624,24545
32895,41647,24575
32921,41671,24612
32948,41697,24652
32973,41722,24688
32996,41744,24721
33017,41762,24749
33033,41777,24772
33044,41787,24787
33052,41795,24799
33058,41802,24808
33061,41806,24813
33059,41806,24808
33052,41801,24794
33037,41788,24769
33014,41766,24735
32983,41738,24693
32946,41706,24647
32904,41670,24598
32859,41628,24542
32809,41583,24480
32754,41536,24415
32694,41485,24347
32631,41429,24273
32564,41369,24191
32494,41307,24105
32421,41243,24017
32342,41175,23926
32260,41103,23830
32179,41030,23732
32100,40954,23629
32019,40875,23525
31936,40795,23421
31853,40716,23321
31771,40635,23224
31687,40554,23128
31603,40478,23031
31519,40405,22935
31438,40333,22838
31359,40264,22741
31283,40198,22650
31208,40134,22560
31134,40072,22469
31064,40012,22380
30997,39954,22292
30932,39899,22207
30867,39845,22126
30804,39793,22048
30745,39741,21970
30686,39690,21896
30626,39637,21822
30563,39584,21747
30499,39530,21666
30437,39475,21582
30378,39419,21499
30315,39362,21419
30251,39305,21344
30191,39252,21274
30136,39203,21210
30080,39156,21147
30023,39109,21082
29966,39064,21014
29912,39022,20946
29860,38980,20878
29806,38935,20807
29751,38888,20737
29699,38842,20673
29650,38798,20614
29603,38755,20557
29558,38711,20498
29516,38669,20440
29473,38627,20381
29428,38585,20321
29382,38541,20262
29339,38502,20207
29301,38468,20155
29263,38434,20104
29223,38401,20050
29182,38367,19996
29139,38331,19939
29092,38294,19880
29039,38255,19817
28982,38213,19750
28926,38169,19680
28869,38122,19608
28813,38071,19538
28755,38019,19471
28698,37967,19404
28641,37918,19337
28586,37873,19273
28538,37834,19218
28500,37808,19183
28480,37802,19177
28491,37825,19214
28549,37888,19309
28668,38004,19478
28858,38183,19734
29120,38426,20078
29449,38728,20502
29836,39079,20990
30265,39466,21525
30715,39868,22080
31165,40268,22636
31603,40653,23172
32015,41017,23677
32393,41351,24141
32732,41650,24560
33030,41911,24930
33287,42133,25252
33506,42320,25524
33690,42472,25750
33840,42594,25931
33955,42688,26073
34038,42757,26180
34093,42806,26256
34125,42834,26304
34139,42844,26326
34138,42838,26330
34126,42823,26318
34103,42800,26292
34070,42769,26253
34032,42731,26208
33991,42691,26159
33946,42651,26106
33897,42609,26049
33846,42562,25990
33796,42514,25930
33747,42465,25872
33699,42417,25816
33653,42368,25762
33608,42321,25708
33565,42278,25656
33522,42236,25603
33479,42191,25545
33435,42143,25482
33391,42095,25416
33346,42050,25349
33295,42005,25279
33236,41956,25202
33171,41900,25118
33100,41836,25027
33022,41765,24932
32937,41692,24831
32850,41619,24726
32767,41546,24622
32689,41472,24521
32614,41400,24424
32544,41332,24336
32484,41272,24261
32438,41224,24201
32404,41188,24157
32379,41167,24131
32367,41162,24123
32368,41169,24129
32379,41185,24149
32397,41205,24180
32423,41233,24220
32457,41268,24265
32498,41309,24314
32543,41354,24367
32588,41396,24418
32632,41433,24464
32669,41464,24504
32696,41490,24540
32714,41507,24566
32726,41515,24582
32730,41516,24586
32728,41511,24579
32716,41500,24565
32694,41483,24543
32664,41462,24513
32630,41435,24475
32595,41403,24431
32556,41366,24380
32510,41322,24319
32456,41273,24251
32396,41221,24179
32331,41165,24103
32261,41104,24020
32191,41039,23930
32121,40972,23835
32051,40905,23738
31982,40839,23640
31912,40772,23544
31843,40708,23451
31774,40647,23363
31705,40588,23279
31637,40527,23194
31569,40466,23110
31500,40409,23029
31430,40355,22951
31358,40300,22869
31284,40241,22784
31210,40179,22698
31136,40114,22612
31059,40043,22520
30979,39969,22424
30904,39899,22331
30835,39834,22243
30769,39772,22159
30704,39713,22080
30643,39656,22003
30587,39602,21928
30532,39551,21857
30477,39501,21791
30423,39453,21727
30371,39409,21666
30321,39369,21612
30272,39334,21560
30223,39299,21506
30174,39261,21449
30125,39223,21390
30075,39184,21327
30025,39142,21263
29974,39097,21195
29921,39050,21126
29866,39004,21056
29810,38960,20987
29753,38915,20916
29696,38869,20846
29642,38824,20780
29591,38778,20718
29539,38729,20654
29484,38677,20585
29427,38622,20512
29372,38567,20442
29315,38512,20374
29254,38456,20305
29188,38400,20233
29121,38343,20155
29052,38284,20074
28982,38226,19991
28913,38167,19908
28846,38108,19827
28783,38055,19753
28727,38010,19685
28680,37973,19627
28644,37947,19588
28631,37943,19580
28652,37970,19615
28717,38039,19705
28837,38159,19864
29018,38332,20101
29260,38562,20418
29561,38845,20805
29914,39169,21247
30301,39520,21727
30706,39883,22228
31111,40245,22728
31505,40596,23211
31878,40925,23668
32223,41226,24094
32534,41497,24479
32811,41737,24822
33050,41945,25121
33253,42117,25377
33420,42254,25589
33553,42361,25762
33654,42444,25897
33726,42503,25996
33773,42541,26062
33800,42565,26103
33812,42574,26122
33808,42569,26119
33787,42548,26095
33754,42517,26056
33714,42482,26007
33668,42443,25951
33618,42399,25890
33564,42351,25824
33509,42301,25754
33453,42250,25682
33399,42198,25610
33350,42150,25538
33304,42105,25468
33260,42062,25401
33216,42022,25337
33169,41983,25274
33118,41941,25209
33067,41894,25143
33011,41844,25070
32948,41787,24989
32876,41724,24900
32800,41656,24805
32721,41584,24704
32635,41507,24595
32546,41427,24482
32458,41346,24369
32371,41264,24259
32288,41185,24155
32210,41111,24057
32138,41046,23967
32073,40992,23887
32017,40947,23818
31973,40911,23761
31942,40883,23720
31927,40868,23695
31922,40865,23686
31928,40872,23692
31945,40891,23712
31975,40923,23745
32016,40964,23792
32061,41008,23848
32108,41053,23907
32155,41099,23968
32201,41145,24031
32244,41186,24088
32281,41220,24141
32313,41250,24187
32339,41273,24224
32357,41286,24250
32366,41291,24264
32373,41292,24269
32377,41288,24265
32374,41278,24250
32360,41263,24226
32337,41241,24196
32306,41213,24159
32270,41178,24113
32227,41138,24058
32176,41092,23996
32120,41043,23927
32058,40990,23851
31992,40930,23770
31919,40863,23680
31838,40789,23581
31753,40711,23475
31665,40631,23369
31577,40551,23264
31489,40474,23161
31405,40402,23060
31324,40332,22963
31249,40266,22871
31181,40201,22785
31119,40138,22703
31059,40080,22625
31002,40026,22550
30948,39977,22480
30894,39931,22413
30840,39884,22345
30785,39838,22278
30728,39793,22213
30669,39747,22147
30606,39697,22076
30537,39643,22000
30466,39584,21920
30391,39521,21837
30311,39455,21749
30229,39386,21655
30153,39318,21562
30081,39254,21471
30009,39189,21378
29939,39125,21285
29870,39065,21197
29807,39010,21112
29746,38959,21030
29688,38910,20951
29638,38864,20881
29596,38822,20821
29558,38782,20768
29520,38742,20718
29483,38706,20669
29448,38674,20623
29415,38648,20581
29385,38624,20544
29357,38602,20510
29329,38579,20478
29300,38555,20444
29268,38527,20403
29229,38494,20355
29179,38454,20296
29124,38411,20230
29065,38365,20159
29000,38314,20084
28931,38259,20006
28861,38203,19928
28792,38150,19854
28729,38102,19787
28674,38063,19727
28629,38033,19677
28602,38015,19647
28604,38018,19646
28644,38055,19692
28728,38137,19800
28872,38275,19985
29081,38474,20255
29352,38729,20607
29676,39033,21029
30042,39371,21500
30438,39729,22001
30847,40091,22514
31255,40446,23022
31649,40785,23509
32020,41103,23966
32360,41397,24388
32669,41666,24773
32941,41906,25115
33176,42114,25413
33377,42288,25665
33545,42431,25875
33685,42548,26046
33799,42639,26181
33888,42706,26283
33954,42752,26356
33998,42781,26405
34021,42793,26432
34027,42791,26443
34020,42780,26438
34004,42761,26420
33980,42736,26391
33950,42705,26354
33914,42672,26310
33872,42636,26261
33826,42596,26207
33775,42555,26150
33724,42514,26093
33676,42474,26038
33628,42432,25985
33582,42387,25930
33540,42343,25875
33501,42300,25820
33462,42259,25762
33424,42220,25703
33386,42181,25641
33349,42141,25577
33305,42098,25510
33255,42054,25439
33198,42010,25361
33137,41961,25278
33071,41910,25194
33002,41856,25108
32933,41797,25022
32866,41735,24936
32800,41672,24854
32738,41609,24780
32680,41548,24712
32626,41491,24648
32579,41441,24590
32543,41403,24546
32522,41378,24515
32514,41366,24495
32516,41366,24488
32526,41377,24494
32540,41394,24510
32560,41415,24532
32587,41439,24561
32618,41466,24598
32652,41494,24635
32684,41520,24671
32713,41547,24707
32741,41574,24740
32769,41599,24770
32791,41620,24797
32807,41636,24818
32818,41645,24832
32824,41651,24842
32823,41651,24844
32814,41642,24834
32797,41625,24813
32777,41605,24784
32754,41583,24750
32723,41558,24711
32684,41527,24666
32639,41487,24615
32590,41440,24557
32539,41388,24491
32481,41329,24417
32417,41266,24338
32351,41203,24259
32286,41140,24177
32222,41082,24093
32158,41027,24010
32095,40975,23927
32033,40925,23842
31971,40877,23760
31910,40831,23682
31848,40785,23607
31785,40736,23533
31723,40686,23462
31660,40637,23393
31594,40585,23322
31525,40528,23247
31456,40466,23169
31388,40403,23089
31318,40340,23009
31247,40277,22929
31175,40217,22849
31107,40157,22770
31043,40098,22691
30982,40041,22611
30924,39984,22533
30868,39930,22458
30816,39882,22390
30766,39837,22328
30719,39794,22269
30673,39752,22209
30628,39713,22149
30583,39677,22088
30540,39642,22029
30497,39607,21969
30456,39573,21909
30415,39537,21846
30370,39498,21779
30321,39455,21710
30269,39413,21642
30214,39368,21576
30158,39319,21514
30101,39269,21454
30048,39220,21396
29998,39174,21343
29953,39133,21295
29912,39094,21247
29875,39058,21199
29844,39025,21151
29816,38996,21107
29789,38968,21063
29761,38939,21017
29729,38909,20970
29691,38877,20920
29645,38839,20864
29594,38798,20801
29538,38756,20733
29476,38710,20664
29410,38658,20590
29343,38603,20511
29277,38549,20434
29215,38500,20365
29163,38462,20309
29127,38440,20275
29120,38441,20275
29152,38477,20324
29236,38555,20434
29378,38686,20618
29583,38875,20881
29848,39120,21221
30166,39411,21626
30525,39736,22082
30909,40084,22569
31303,40443,23069
31695,40799,23560
32074,41141,24033
32432,41459,24479
32763,41746,24889
33060,42002,25260
33320,42224,25589
33541,42414,25872
33727,42574,26114
33883,42706,26315
34010,42809,26479
34113,42890,26610
34191,42952,26708
34246,42996,26775
34279,43021,26817
34292,43030,26837
34291,43024,26840
34281,43007,26827
34261,42984,26802
34233,42958,26770
34200,42929,26729
34161,42896,26681
34116,42860,26627
34068,42823,26571
34020,42786,26514
33975,42745,26455
33934,42702,26396
33897,42657,26339
33858,42610,26285
33818,42562,26229
33776,42513,26170
33734,42466,26109
33689,42419,26047
33642,42372,25984
33591,42324,25916
33535,42272,25842
33471,42216,25760
33401,42155,25671
33326,42087,25579
33251,42018,25483
33177,41955,25384
33102,41895,25285
33026,41836,25190
32953,41779,25100
32888,41729,25021
32832,41685,24955
32787,41645,24902
32752,41609,24860
32728,41577,24828
32718,41555,24808
32720,41545,24804
32730,41548,24810
32748,41560,24823
32774,41580,24844
32807,41607,24874
32843,41639,24909
32880,41672,24945
32916,41707,24985
32952,41741,25027
32985,41772,25068
33012,41799,25105
33037,41823,25140
33059,41841,25170
33073,41853,25191
33076,41856,25201
33072,41854,25199
33061,41845,25185
33043,41826,25160
33014,41799,25125
32977,41763,25079
32935,41722,25025
32891,41676,24964
32840,41626,24898
32780,41572,24827
32711,41514,24752
32638,41454,24674
32565,41393,24591
32489,41329,24502
32410,41261,24407
32328,41189,24305
32244,41113,24199
32156,41035,24090
32064,40953,23978
31969,40868,23863
31875,40780,23749
31781,40691,23640
31688,40604,23533
31602,40522,23429
31523,40448,23330
31452,40383,23236
31384,40323,23147
31319,40266,23059
31258,40213,22975
31202,40163,22895
31148,40114,22818
31095,40067,22746
31044,40025,22677
30993,39985,22612
30942,39946,22549
30893,39908,22488
30842,39867,22428
30786,39822,22368
30728,39776,22306
30672,39730,22242
30615,39682,22177
30556,39631,22110
30497,39577,22042
30442,39524,21972
30388,39473,21902
30332,39422,21831
30275,39371,21759
30218,39322,21690
30165,39279,21627
30117,39238,21569
30072,39197,21513
30028,39158,21461
29987,39123,21413
29949,39092,21369
29912,39065,21329
29876,39042,21291
29844,39021,21253
29816,39002,21218
29790,38981,21184
29764,38958,21149
29735,38933,21112
29703,38908,21072
29667,38878,21028
29624,38842,20978
29571,38800,20919
29511,38754,20853
29448,38707,20778
29384,38655,20696
29317,38597,20610
29245,38534,20519
29171,38467,20428
29098,38401,20342
29033,38342,20270
28984,38296,20220
28962,38274,20203
28979,38293,20236
29049,38364,20334
29180,38491,20509
29377,38676,20766
29641,38919,21104
29964,39214,21514
30329,39547,21975
30721,39901,22465
31122,40262,22967
31521,40616,23464
31906,40955,23940
32266,41271,24385
32591,41556,24788
32878,41808,25145
33126,42023,25457
33337,42203,25724
33514,42353,25947
33658,42472,26129
33771,42562,26271
33856,42625,26381
33916,42663,26462
33951,42680,26513
33968,42681,26538
33971,42672,26539
33962,42655,26523
33941,42629,26491
33911,42596,26444
33875,42561,26387
33833,42523,26325
33785,42480,26261
33731,42433,26194
33674,42383,26124
33616,42331,26054
33557,42277,25984
33499,42223,25914
33444,42172,25844
33393,42125,25776
33346,42081,25710
33303,42041,25648
33260,42002,25587
33215,41960,25525
33168,41916,25461
33117,41869,25394
33062,41817,25320
33000,41760,25240
32934,41698,25154
32865,41633,25064
32792,41565,24969
32715,41498,24872
32640,41433,24777
32569,41369,24684
32500,41308,24596
32437,41253,24513
32380,41202,24437
32331,41157,24370
32292,41122,24317
32265,41098,24281
32248,41084,24261
32239,41079,24252
32239,41087,24256
32250,41106,24274
32272,41135,24307
32302,41170,24352
32340,41208,24403
32384,41249,24461
32431,41292,24522
32475,41333,24582
32517,41369,24636
32559,41400,24684
32596,41428,24727
32623,41452,24761
32641,41471,24788
32654,41485,24809
32664,41496,24820
32667,41501,24820
32664,41500,24810
32653,41489,24790
32632,41471,24761
32604,41445,24726
32565,41414,24686
32518,41377,24639
32467,41336,24582
32415,41294,24517
32360,41248,24449
32303,41198,24379
32242,41145,24304
32176,41089,24227
32107,41031,24148
32036,40967,24069
31962,40900,23988
31888,40834,23904
31813,40768,23819
31735,40699,23733
31654,40626,23642
31569,40551,23546
31482,40477,23446
31396,40404,23343
31313,40331,23236
31231,40257,23126
31151,40187,23017
31074,40122,22912
30996,40059,22815
30919,39996,22723
30845,39933,22635
30771,39868,22550
30693,39797,22462
30612,39722,22372
30532,39646,22281
30454,39572,22192
30379,39503,22102
30308,39437,22011
30243,39379,21924
30183,39327,21843
30126,39279,21766
30069,39233,21694
30014,39191,21627
29962,39153,21563
29916,39118,21503
29875,39084,21447
29838,39048,21392
29800,39010,21337
29762,38971,21283
29722,38933,21232
29679,38893,21180
29633,38849,21123
29582,38806,21063
29528,38763,21003
29473,38716,20942
29417,38665,20877
29359,38610,20809
29299,38553,20734
29236,38497,20655
29172,38441,20575
29107,38387,20496
29049,38340,20421
29002,38302,20360
28970,38279,20325
28964,38280,20327
29000,38320,20382
29090,38410,20506
29241,38557,20707
29452,38761,20985
29723,39020,21337
30050,39325,21750
30419,39661,22208
30810,40015,22692
31211,40372,23183
31606,40723,23667
31982,41059,24132
32331,41368,24566
32648,41645,24960
32928,41889,25308
33172,42099,25613
33379,42278,25875
33549,42423,26093
33684,42537,26267
33788,42624,26402
33865,42687,26504
33916,42727,26573
33943,42748,26613
33957,42756,26632
33958,42752,26634
33945,42737,26619
33917,42710,26588
33884,42678,26545
33848,42640,26494
33806,42598,26436
33757,42550,26373
33703,42499,26308
33649,42445,26238
33597,42390,26164
33544,42336,26089
33491,42286,26014
33438,42239,25943
33384,42194,25874
33333,42149,25806
33283,42102,25739
33230,42054,25671
33171,42002,25597
33107,41946,25518
33037,41884,25432
32962,41816,25338
32878,41740,25234
32786,41658,25121
32692,41572,25001
32599,41484,24882
32508,41397,24767
32418,41312,24653
32330,41232,24543
32248,41160,24442
32176,41098,24353
32113,41046,24276
32061,41002,24212
32023,40966,24163
31999,40942,24132
31987,40931,24118
31987,40931,24118
31999,40942,24130
32021,40959,24154
32049,40983,24187
32082,41012,24226
32120,41042,24269
32162,41075,24317
32208,41112,24369
32254,41153,24422
32298,41193,24470
32339,41229,24512
32373,41261,24546
32397,41285,24570
32411,41300,24582
32416,41304,24585
32411,41297,24577
32396,41280,24556
32372,41258,24526
32342,41230,24490
32305,41196,24446
32262,41155,24395
32215,41110,24337
32164,41063,24272
32106,41009,24200
32039,40948,24120
31964,40883,24034
31884,40815,23943
31803,40745,23850
31723,40674,23754
31645,40604,23657
31570,40533,23561
31497,40464,23468
31427,40398,23379
31358,40337,23292
31291,40279,23205
31224,40223,23116
31157,40166,23025
31089,40104,22932
31016,40036,22836
30941,39964,22737
30870,39896,22642
30804,39836,22553
30740,39779,22470
30678,39724,22393
30618,39672,22321
30561,39624,22255
30512,39577,22192
30466,39534,22132
30421,39495,22076
30376,39462,22022
30329,39431,21968
30281,39399,21913
30231,39362,21857
30181,39319,21799
30133,39275,21739
30086,39233,21681
30041,39190,21623
29996,39147,21563
29951,39103,21499
29901,39058,21434
29848,39011,21371
29793,38964,21308
29733,38913,21240
29668,38857,21164
29600,38796,21082
29531,38734,20996
29461,38672,20908
29389,38610,20816
29314,38549,20723
29238,38489,20633
29165,38429,20549
29096,38369,20465
29032,38312,20385
28976,38262,20314
28928,38219,20252
28885,38180,20196
28846,38144,20145
28811,38113,20099
28778,38086,20054
28745,38061,20010
28714,38037,19969
28687,38018,19933
28665,38007,19907
28656,38008,19901
28671,38030,19930
28723,38083,20006
28824,38176,20145
28986,38323,20360
29217,38527,20659
29511,38790,21037
29861,39102,21483
30255,39454,21978
30675,39833,22505
31105,40221,23044
31528,40601,23574
31931,40962,24077
32308,41295,24543
32654,41598,24966
32965,41867,25347
33238,42102,25684
33473,42303,25974
33670,42469,26217
33835,42607,26418
33968,42718,26580
34072,42803,26708
34150,42866,26805
34205,42910,26871
34241,42937,26915
34258,42948,26938
34260,42948,26943
34251,42941,26933
34235,42928,26910
34213,42910,26878
34183,42883,26841
34146,42849,26798
34104,42807,26748
34060,42763,26699
34019,42720,26652
33976,42678,26603
33933,42635,26551
33891,42593,26497
33850,42555,26445
33810,42519,26394
33770,42484,26346
33731,42449,26297
33688,42414,26246
33641,42378,26191
33593,42339,26133
33542,42296,26070
33485,42244,26000
33425,42183,25922
33363,42117,25837
33295,42048,25746
33225,41979,25649
33156,41912,25547
33089,41848,25446
33023,41788,25352
32960,41732,25269
32903,41680,25198
32852,41634,25138
32811,41596,25088
32780,41567,25048
32758,41549,25017
32747,41542,25000
32747,41546,24998
32757,41560,25011
32774,41581,25034
32798,41609,25065
32828,41641,25102
32861,41675,25145
32894,41709,25191
32927,41741,25236
32956,41771,25275
32980,41799,25306
32997,41821,25327
33009,41833,25340
33017,41834,25345
33021,41828,25344
33019,41816,25337
33007,41799,25324
32988,41778,25303
32963,41753,25275
32935,41726,25242
32904,41693,25203
32866,41655,25156
32824,41615,25100
32778,41576,25037
32726,41535,24971
32669,41488,24899
32606,41432,24819
32538,41370,24733
32465,41301,24644
32388,41231,24550
32308,41155,24450
32223,41075,24344
32137,40995,24233
32053,40916,24125
31971,40839,24020
31890,40767,23918
31811,40698,23820
31732,40631,23728
31656,40564,23637
31586,40500,23550
31519,40438,23464
31455,40377,23379
31392,40319,23294
31330,40264,23211
31265,40209,23130
31196,40151,23050
31128,40094,22971
31064,40037,22893
31003,39981,22819
30942,39922,22746
30881,39864,22675
30821,39813,22604
30763,39768,22535
30705,39723,22467
30647,39678,22400
30593,39634,22335
30544,39591,22271
30495,39549,22208
30448,39511,22146
30404,39476,22083
30360,39441,22019
30314,39406,21956
30264,39372,21895
30213,39337,21836
30160,39298,21776
30106,39254,21715
30049,39207,21653
29990,39154,21588
29928,39095,21519
29867,39033,21448
29804,38972,21376
29740,38914,21300
29674,38855,21222
29607,38797,21140
29540,38741,21058
29474,38687,20976
29407,38632,20894
29338,38571,20809
29268,38507,20722
29196,38442,20633
29122,38378,20543
29044,38311,20450
28965,38240,20354
28887,38166,20257
28810,38092,20161
28734,38020,20064
28662,37953,19971
28598,37893,19888
28550,37853,19827
28529,37841,19803
28546,37864,19831
28610,37929,19924
28736,38054,20093
28934,38245,20350
29209,38503,20699
29553,38822,21135
29952,39187,21639
30387,39583,22186
30838,39993,22752
31294,40403,23315
31739,40799,23858
32160,41166,24368
32541,41499,24832
32880,41795,25248
33172,42049,25610
33418,42261,25918
33619,42434,26174
33782,42572,26385
33912,42680,26556
34013,42763,26691
34087,42823,26789
34138,42862,26856
34168,42882,26896
34181,42889,26916
34182,42884,26919
34171,42867,26907
34149,42841,26878
34121,42811,26838
34087,42777,26789
34044,42740,26733
33994,42698,26670
33943,42656,26605
33895,42611,26540
33846,42562,26473
33797,42509,26405
33747,42458,26341
33698,42412,26281
33651,42369,26223
33606,42327,26165
33562,42286,26108
33518,42244,26051
33473,42200,25991
33423,42151,25926
33366,42098,25852
33304,42040,25769
33239,41978,25680
33170,41913,25587
33095,41844,25488
33013,41768,25385
32928,41689,25282
32845,41611,25179
32765,41535,25081
32689,41464,24989
32621,41401,24906
32563,41349,24833
32517,41307,24771
32483,41275,24723
32461,41253,24690
32454,41245,24672
32459,41250,24670
32476,41264,24682
32503,41288,24709
32536,41321,24751
32573,41359,24801
32612,41400,24852
32652,41441,24904
32691,41480,24955
32725,41512,25001
32753,41538,25040
32773,41559,25071
32787,41576,25097
32792,41589,25112
32788,41593,25112
32779,41587,25100
32763,41572,25081
32741,41550,25056
32712,41522,25020
32679,41490,24975
32641,41456,24924
32599,41420,24868
32552,41379,24807
32500,41333,24741
32444,41282,24672
32385,41229,24604
32324,41172,24532
32261,41113,24455
32196,41052,24374
32129,40989,24289
32058,40923,24202
31983,40855,24113
31905,40787,24020
31824,40717,23921
31742,40646,23818
31661,40574,23716
31579,40499,23615
31494,40423,23512
31409,40347,23407
31323,40271,23302
31238,40196,23194
31154,40121,23083
31070,40047,22971
30982,39972,22860
30894,39898,22753
30808,39827,22655
30727,39756,22562
30649,39684,22471
30576,39610,22382
30504,39535,22294
30430,39462,22206
30353,39392,22116
30276,39326,22028
30204,39264,21942
30134,39206,21860
30067,39151,21780
30002,39099,21704
29943,39053,21634
29886,39013,21566
29831,38973,21500
29781,38933,21435
29736,38895,21373
29692,38858,21314
29646,38817,21256
29598,38771,21198
29548,38725,21140
29497,38680,21080
29444,38634,21020
29389,38589,20957
29332,38542,20891
29273,38492,20819
29211,38435,20741
29146,38371,20659
29076,38305,20575
29005,38240,20488
28936,38178,20399
28870,38118,20309
28806,38060,20219
28743,38005,20131
28683,37953,20048
28627,37907,19973
28577,37867,19910
28538,37841,19865
28521,37834,19847
28531,37854,19869
28580,37907,19944
28678,38005,20083
28839,38154,20298
29064,38362,20595
29349,38626,20968
29688,38937,21406
30071,39285,21894
30483,39655,22411
30903,40032,22938
31314,40400,23454
31707,40746,23942
32072,41066,24394
32406,41356,24805
32705,41613,25172
32971,41837,25493
33201,42032,25770
33394,42193,26001
33546,42319,26184
33663,42413,26322
33750,42480,26425
33812,42525,26500
33849,42551,26547
33862,42560,26569
33859,42555,26571
33844,42540,26557
33816,42513,26524
33779,42477,26477
33736,42438,26421
33689,42399,26358
33636,42358,26291
33578,42310,26221
33519,42258,26150
33461,42203,26079
33405,42148,26009
33349,42093,25936
33292,42035,25863
33232,41974,25790
33168,41912,25716
33101,41846,25635
33033,41781,25546
32961,41717,25449
32883,41647,25344
32798,41569,25230
32703,41484,25107
32603,41393,24977
32498,41299,24843
32391,41201,24710
32287,41107,24580
32191,41020,24458
32102,40942,24344
32017,40868,24238
31936,40798,24138
31865,40735,24050
31804,40683,23978
31753,40642,23924
31713,40612,23884
31688,40596,23862
31678,40595,23857
31682,40605,23868
31698,40621,23890
31727,40645,23924
31766,40679,23967
31811,40719,24019
31860,40764,24079
31912,40811,24144
31967,40859,24209
32019,40905,24271
32066,40948,24327
32108,40986,24376
32144,41017,24415
32174,41041,24442
32194,41057,24460
32204,41061,24466
32202,41055,24460
32191,41041,24443
32172,41020,24416
32144,40992,24379
32106,40953,24332
32059,40906,24274
32004,40851,24207
31945,40791,24134
31882,40727,24058
31814,40662,23975
31742,40597,23885
31666,40529,23789
31584,40461,23688
31500,40390,23582
31413,40318,23472
31325,40248,23363
31239,40177,23254
31154,40105,23146
31066,40029,23038
30977,39951,22932
30889,39875,22832
30807,39803,22738
30730,39733,22649
30658,39664,22558
30587,39599,22466
30516,39537,22374
30447,39476,22286
30379,39417,22202
30310,39356,22118
30239,39293,22033
30170,39230,21948
30105,39171,21864
30041,39114,21781
29975,39058,21695
29906,39000,21605
29835,38940,21514
29765,38880,21424
29699,38823,21336
29635,38767,21251
29573,38710,21170
29516,38654,21091
29460,38597,21011
29406,38541,20933
29354,38486,20863
29302,38433,20801
29248,38382,20741
29194,38333,20679
29139,38289,20614
29086,38250,20548
29033,38210,20480
28978,38167,20410
28921,38123,20338
28860,38078,20266
28798,38029,20193
28737,37978,20119
28678,37926,20045
28621,37875,19972
28568,37827,19906
28519,37783,19848
28476,37744,19797
28441,37715,19755
28427,37705,19735
28439,37720,19751
28485,37770,19816
28580,37866,19944
28734,38014,20147
28952,38218,20431
29236,38478,20795
29578,38790,21229
29965,39140,21717
30382,39513,22239
30812,39897,22776
31239,40278,23310
31654,40646,23821
32046,40992,24300
32406,41305,24738
32724,41581,25129
33000,41820,25471
33235,42023,25766
33429,42195,26015
33588,42337,26221
33715,42451,26386
33817,42542,26515
33894,42611,26614
33946,42659,26684
33979,42687,26728
33996,42694,26746
33997,42683,26746
33980,42657,26729
33949,42622,26701
33911,42580,26661
33867,42536,26612
33818,42487,26552
33766,42433,26485
33713,42375,26414
33662,42320,26343
33612,42268,26272
33565,42217,26201
33520,42168,26131
33475,42122,26061
33428,42075,25993
33377,42028,25924
33322,41981,25853
33266,41933,25779
33207,41882,25701
33144,41826,25619
33077,41766,25532
33006,41700,25437
32928,41629,25337
32846,41555,25233
32759,41478,25125
32669,41400,25015
32581,41324,24905
32498,41251,24800
32424,41183,24706
32357,41123,24623
32302,41075,24557
32261,41039,24505
32229,41013,24469
32209,41000,24449
32204,40999,24446
32213,41010,24458
32233,41029,24484
32262,41056,24519
32299,41092,24563
32343,41134,24613
32388,41178,24665
32434,41222,24718
32480,41264,24770
32526,41306,24822
32566,41347,24873
32599,41380,24919
32624,41404,24955
32639,41418,24979
32645,41425,24991
32641,41426,24992
32631,41422,24984
32616,41414,24969
32598,41402,24948
32573,41384,24919
32541,41359,24879
32506,41330,24834
32467,41298,24785
32424,41261,24729
32379,41221,24668
32330,41180,24605
32279,41133,24539
32226,41080,24469
32170,41022,24395
32112,40963,24320
32052,40903,24243
31990,40841,24163
31927,40779,24081
31860,40715,23997
31790,40651,23912
31718,40587,23825
31645,40525,23737
31572,40463,23645
31497,40400,23552
31419,40334,23456
31339,40266,23359
31260,40198,23262
31183,40132,23165
31107,40065,23071
31033,40001,22980
30961,39939,22892
30888,39876,22805
30815,39810,22720
30744,39744,22637
30678,39681,22556
30612,39621,22478
30545,39561,22399
30478,39501,22319
30412,39438,22239
30349,39376,22160
30285,39314,22084
30219,39253,22007
30153,39192,21927
30088,39134,21846
30025,39079,21768
29962,39026,21689
29900,38970,21606
29839,38915,21523
29780,38863,21440
29719,38811,21359
29656,38756,21280
29594,38702,21203
29537,38653,21128
29483,38609,21057
29431,38569,20992
29380,38530,20930
29331,38488,20869
29283,38444,20805
29233,38397,20742
29178,38347,20678
29117,38294,20610
29056,38240,20541
28998,38190,20472
28941,38141,20402
28883,38091,20332
28824,38038,20263
28769,37986,20196
28721,37941,20142
28687,37913,20105
28675,37906,20098
28701,37934,20136
28776,38009,20240
28914,38142,20424
29120,38333,20694
29396,38586,21047
29734,38897,21477
30119,39253,21968
30533,39635,22496
30960,40026,23036
31387,40413,23571
31803,40788,24085
32195,41140,24568
32555,41460,25008
32879,41745,25399
33164,41994,25744
33409,42205,26045
33613,42378,26297
33779,42517,26504
33911,42626,26670
34014,42707,26800
34090,42764,26896
34142,42799,26964
34173,42816,27007
34185,42817,27023
34180,42802,27016
34161,42773,26990
34127,42734,26950
34083,42687,26897
34032,42637,26835
33976,42588,26769
33919,42540,26701
33862,42493,26632
33809,42447,26565
33762,42402,26499
33716,42357,26433
33670,42312,26366
33625,42267,26298
33582,42221,26230
33541,42177,26164
33499,42137,26100
33455,42096,26036
33412,42055,25972
33368,42013,25909
33318,41968,25843
33263,41917,25770
33200,41858,25688
33130,41793,25601
33055,41726,25510
32977,41656,25414
32896,41584,25313
32814,41513,25210
32737,41446,25112
32668,41383,25023
32604,41325,24944
32546,41274,24878
32498,41228,24824
32459,41192,24781
32429,41167,24753
32410,41154,24739
32399,41150,24732
32394,41155,24734
32400,41168,24744
32416,41188,24765
32440,41210,24790
32467,41233,24818
32498,41261,24852
32533,41293,24892
32568,41323,24933
32601,41346,24971
32633,41365,25003
32661,41381,25026
32683,41394,25043
32698,41401,25051
32705,41400,25049
32702,41394,25036
32690,41385,25017
32671,41374,24993
32644,41356,24962
32607,41331,24922
32564,41297,24873
32515,41255,24818
32460,41206,24753
32399,41156,24679
32337,41101,24597
32271,41039,24509
32199,40969,24419
32119,40895,24326
32035,40817,24228
31951,40737,24126
31867,40658,24026
31783,40582,23929
31700,40508,23830
31617,40435,23730
31537,40364,23631
31460,40295,23534
31384,40226,23437
31307,40157,23341
31231,40089,23244
31157,40022,23148
31086,39959,23054
31015,39896,22961
30942,39834,22870
30872,39774,22783
30804,39715,22697
30737,39657,22612
30670,39598,22529
30603,39541,22449
30536,39483,22370
30468,39423,22291
30398,39361,22211
30326,39298,22128
30252,39235,22042
30175,39174,21957
30100,39114,21875
30029,39056,21795
29960,38998,21716
29894,38942,21640
29831,38890,21566
29771,38839,21494
29715,38788,21425
29665,38741,21360
29625,38700,21301
29589,38665,21249
29555,38633,21198
29519,38601,21148
29485,38570,21099
29452,38539,21052
29419,38507,21006
29382,38475,20959
29345,38444,20909
29304,38415,20860
29259,38382,20808
29207,38342,20750
29149,38296,20684
29087,38244,20612
29018,38186,20535
28944,38122,20452
28867,38055,20364
28791,37988,20274
28719,37923,20186
28653,37863,20104
28595,37810,20033
28551,37772,19982
28533,37758,19967
28555,37783,20003
28628,37856,20104
28764,37984,20282
28971,38175,20547
29250,38428,20902
29592,38738,21331
29984,39089,21816
30409,39469,22340
30851,39860,22882
31289,40246,23420
31705,40613,23936
32090,40954,24418
32441,41266,24859
32754,41545,25252
33026,41785,25595
33255,41985,25885
33444,42147,26126
33596,42274,26322
33715,42371,26474
33805,42442,26588
33869,42492,26669
33910,42525,26722
33930,42540,26747
33929,42535,26746
33910,42512,26719
33880,42479,26677
33843,42440,26623
33797,42395,26561
33746,42345,26493
33696,42292,26421
33647,42240,26350
33597,42190,26280
33543,42142,26211
33487,42094,26141
33433,42047,26072
33382,41999,26004
33330,41950,25935
33276,41899,25866
33222,41849,25797
33169,41800,25725
33110,41748,25647
33041,41692,25563
32968,41630,25471
32892,41563,25374
32811,41487,25271
32721,41402,25159
32625,41310,25039
32527,41216,24914
32428,41123,24789
32330,41032,24666
32236,40947,24549
32150,40870,24443
32072,40804,24352
32007,40748,24275
31955,40703,24211
31918,40673,24163
31894,40659,24133
31882,40657,24121
31884,40667,24125
31899,40686,24143
31926,40715,24177
31964,40751,24223
32010,40791,24279
32060,40839,24340
32112,40892,24405
32162,40944,24469
32208,40988,24528
32251,41024,24580
32289,41054,24625
32322,41077,24662
32347,41094,24692
32365,41105,24713
32376,41112,24723
32379,41114,24724
32374,41110,24716
32360,41098,24698
32339,41078,24669
32312,41053,24632
32278,41022,24587
32235,40983,24534
32183,40937,24474
32127,40885,24408
32067,40829,24335
32003,40770,24258
31937,40708,24177
31868,40644,24095
31796,40582,24009
31723,40520,23919
31648,40453,23824
31572,40382,23724
31492,40308,23620
31410,40235,23515
31328,40161,23411
31244,40087,23309
31160,40015,23209
31079,39946,23112
30997,39878,23016
30916,39809,22923
30836,39741,22832
30761,39674,22744
30687,39610,22659
30613,39549,22575
30537,39489,22491
30465,39430,22407
30397,39375,22327
30333,39321,22249
30270,39266,22170
30208,39212,22090
30151,39161,22011
30099,39115,21936
30049,39070,21864
29999,39025,21792
29948,38980,21718
29895,38936,21644
29838,38888,21571
29778,38838,21501
29718,38786,21429
29655,38732,21355
29591,38674,21279
29525,38612,21203
29456,38547,21121
29387,38481,21035
29320,38417,20947
29251,38353,20861
29179,38287,20772
29104,38218,20680
29030,38151,20589
28961,38088,20501
28895,38029,20418
28831,37975,20338
28772,37924,20263
28716,37874,20193
28666,37831,20135
28630,37801,20096
28617,37792,20084
28635,37815,20111
28697,37879,20193
28816,37993,20346
28996,38165,20578
29238,38396,20891
29541,38682,21282
29897,39014,21739
30292,39377,22239
30707,39751,22759
31125,40125,23279
31534,40488,23786
31924,40831,24266
32284,41148,24709
32606,41433,25109
32891,41687,25466
33140,41908,25777
33351,42093,26039
33528,42245,26254
33672,42364,26426
33785,42456,26560
33869,42524,26660
33927,42571,26730
33965,42601,26775
33986,42616,26799
33992,42616,26805
33987,42607,26797
33970,42590,26778
33943,42565,26746
33906,42530,26704
33862,42487,26655
33814,42441,26599
33762,42395,26536
33708,42347,26467
33651,42296,26396
33594,42246,26326
33540,42196,26258
33490,42148,26193
33442,42103,26131
33395,42056,26071
33349,42007,26009
33301,41956,25943
33249,41903,25870
33192,41848,25792
33124,41789,25709
33046,41727,25619
32963,41662,25525
32878,41594,25426
32792,41522,25323
32707,41447,25216
32624,41371,25111
32545,41295,25011
32471,41222,24915
32404,41156,24825
32347,41102,24745
32300,41060,24682
32266,41030,24635
32243,41014,24604
32235,41012,24591
32241,41020,24592
32254,41038,24607
32275,41062,24636
32307,41093,24677
32349,41132,24728
32394,41174,24784
32436,41216,24840
32479,41256,24896
32521,41292,24947
32560,41323,24993
32594,41350,25032
32624,41375,25066
32650,41397,25094
32669,41411,25112
32678,41417,25118
32677,41416,25114
32669,41410,25102
32653,41398,25080
32628,41381,25049
32595,41358,25012
32559,41330,24970
32518,41296,24921
32470,41257,24867
32418,41212,24807
32363,41162,24743
32306,41111,24676
32249,41061,24611
32192,41014,24547
32135,40966,24479
32078,40920,24410
32020,40872,24338
31962,40818,24262
31902,40759,24180
31841,40700,24093
31784,40644,24008
31729,40590,23926
31674,40536,23846
31616,40485,23768
31558,40435,23693
31498,40386,23621
31438,40338,23549
31377,40290,23478
31315,40244,23410
31252,40197,23342
31188,40147,23275
31126,40095,23206
31067,40044,23137
31009,39994,23068
30948,39942,22997
30886,39887,22925
30825,39835,22853
30760,39780,22779
30692,39721,22703
30624,39660,22627
30560,39601,22551
30501,39546,22474
30446,39495,22400
30395,39447,22327
30345,39399,22256
30297,39352,22185
30249,39304,22119
30202,39258,22058
30156,39213,21997
30114,39171,21937
30077,39132,21878
30041,39095,21827
30005,39063,21784
29970,39036,21744
29936,39009,21703
29900,38981,21660
29865,38954,21616
29829,38924,21571
29788,38890,21522
29739,38849,21468
29684,38804,21409
29628,38757,21345
29570,38709,21279
29508,38657,21210
29448,38605,21143
29395,38560,21086
29359,38530,21050
29345,38519,21043
29365,38539,21078
29432,38606,21171
29558,38729,21336
29748,38910,21580
30000,39147,21899
30307,39433,22282
30655,39754,22712
31027,40097,23173
31411,40447,23646
31790,40791,24115
32154,41121,24568
32497,41431,24996
32817,41715,25389
33104,41965,25740
33355,42180,26049
33574,42360,26319
33760,42508,26552
33914,42631,26749
34041,42733,26909
34145,42815,27035
34226,42875,27128
34282,42914,27194
34319,42935,27238
34339,42943,27264
34341,42937,27270
34330,42923,27260
34309,42903,27239
34279,42877,27210
34244,42848,27177
34206,42814,27136
34169,42780,27087
34136,42748,27035
34105,42716,26983
34073,42681,26933
34040,42644,26884
34006,42610,26835
33974,42584,26790
33944,42560,26750
33915,42533,26709
33882,42501,26664
33846,42466,26614
33807,42430,26561
33764,42390,26504
33715,42344,26444
33661,42293,26377
33600,42236,26301
33534,42178,26222
33465,42119,26141
33393,42057,26053
33320,41991,25960
33249,41927,25867
33184,41865,25779
33123,41809,25697
33068,41759,25623
33019,41717,25559
32981,41685,25507
32955,41663,25467
32941,41652,25441
32935,41648,25427
32937,41651,25422
32945,41658,25426
32960,41669,25439
32982,41685,25461
33006,41708,25491
33032,41735,25528
33056,41762,25568
33081,41787,25607
33104,41810,25641
33126,41831,25670
33146,41851,25694
33162,41865,25713
33174,41870,25725
33181,41867,25729
33183,41860,25729
33177,41849,25721
33164,41834,25704
33143,41815,25677
33116,41791,25640
33082,41763,25596
33040,41730,25545
32990,41689,25485
32933,41641,25415
32871,41585,25339
32807,41525,25258
32739,41463,25173
32664,41398,25084
32583,41328,24988
32501,41253,24890
32423,41175,24790
32345,41094,24690
32264,41014,24589
32182,40934,24486
32099,40855,24380
32014,40776,24272
31931,40698,24164
31850,40622,24060
31768,40547,23958
31686,40473,23858
31605,40403,23759
31524,40336,23663
31443,40268,23570
31365,40202,23480
31290,40139,23391
31218,40078,23305
31148,40017,23222
31080,39959,23141
31016,39902,23061
30955,39846,22982
30894,39790,22904
30832,39732,22825
30768,39673,22742
30707,39616,22659
30651,39563,22582
30599,39518,22512
30550,39479,22449
30504,39444,22393
30463,39413,22342
30428,39384,22293
30395,39356,22242
30362,39324,22193
30328,39291,22143
30296,39258,22095
30265,39227,22049
30231,39194,22004
30192,39159,21956
30148,39118,21905
30101,39075,21851
30053,39034,21795
30003,38992,21736
29951,38947,21674
29899,38900,21611
29849,38855,21546
29799,38811,21479
29746,38765,21408
29692,38717,21338
29638,38669,21273
29580,38619,21206
29514,38562,21132
29445,38502,21054
29379,38443,20976
29315,38387,20899
29256,38337,20831
29206,38299,20779
29173,38280,20752
29171,38290,20765
29211,38339,20832
29306,38436,20966
29464,38590,21174
29689,38804,21465
29979,39074,21838
30322,39390,22276
30701,39735,22754
31098,40093,23250
31497,40454,23746
31888,40807,24231
32260,41140,24690
32604,41445,25115
32915,41714,25497
33191,41948,25833
33434,42148,26127
33640,42313,26376
33807,42445,26577
33935,42547,26736
34032,42626,26864
34103,42686,26964
34154,42728,27037
34186,42753,27086
34205,42765,27114
34211,42761,27121
34202,42744,27111
34181,42718,27089
34149,42686,27052
34106,42645,27001
34059,42599,26940
34012,42552,26875
33965,42507,26810
33917,42462,26747
33869,42416,26684
33823,42370,26622
33778,42325,26562
33736,42283,26507
33697,42243,26457
33658,42203,26408
33618,42164,26357
33579,42125,26300
33538,42087,26238
33493,42045,26172
33442,41997,26101
33385,41945,26024
33324,41890,25942
33260,41831,25855
33192,41767,25765
33119,41701,25672
33044,41636,25579
32973,41578,25489
32905,41527,25406
32841,41480,25329
32782,41436,25259
32732,41399,25200
32695,41370,25152
32667,41350,25117
32648,41340,25095
32638,41340,25084
32638,41344,25080
32648,41351,25088
32663,41362,25108
32683,41376,25137
32707,41395,25172
32737,41419,25213
32772,41445,25258
32809,41471,25303
32843,41495,25345
32872,41518,25384
32899,41541,25421
32924,41564,25450
32944,41586,25469
32956,41602,25477
32961,41610,25477
32962,41611,25470
32957,41603,25456
32942,41585,25434
32920,41561,25403
32892,41533,25364
32858,41501,25316
32817,41463,25261
32770,41421,25201
32718,41374,25137
32661,41325,25071
32601,41277,25001
32539,41229,24928
32474,41176,24852
32406,41115,24771
32337,41050,24683
32266,40985,24591
32191,40918,24498
32108,40847,24401
32023,40774,24302
31940,40698,24202
31859,40623,24100
31778,40548,23998
31697,40475,23900
31619,40407,23808
31547,40343,23721
31478,40283,23638
31413,40226,23560
31350,40173,23484
31290,40123,23410
31230,40075,23337
31172,40026,23264
31116,39977,23190
31061,39929,23118
31007,39881,23049
30953,39832,22983
30896,39779,22919
30836,39722,22854
30777,39665,22789
30716,39610,22722
30654,39559,22650
30593,39509,22576
30529,39456,22501
30462,39398,22424
30394,39340,22346
30327,39282,22271
30264,39227,22196
30206,39175,22122
30152,39125,22051
30100,39080,21984
30054,39040,21921
30010,39003,21859
29967,38966,21796
29922,38928,21734
29879,38891,21674
29834,38853,21610
29785,38810,21542
29731,38765,21472
29677,38720,21406
29625,38677,21342
29575,38634,21281
29529,38593,21226
29494,38559,21184
29474,38540,21162
29478,38542,21170
29513,38575,21220
29589,38649,21326
29717,38773,21500
29904,38952,21746
30148,39182,22057
30442,39455,22425
30777,39764,22840
31138,40094,23286
31506,40431,23744
31870,40760,24195
32222,41072,24629
32554,41360,25035
32858,41621,25408
33132,41855,25745
33375,42059,26044
33582,42235,26305
33755,42383,26527
33901,42505,26711
34017,42604,26858
34103,42677,26971
34164,42727,27050
34202,42758,27101
34221,42775,27129
34225,42778,27137
34217,42765,27126
34197,42740,27101
34166,42708,27066
34128,42673,27022
34084,42634,26971
34035,42590,26913
33982,42544,26855
33929,42498,26797
33879,42451,26737
33828,42401,26672
33776,42349,26602
33727,42299,26533
33685,42252,26470
33645,42208,26409
33603,42165,26348
33557,42122,26286
33506,42079,26222
33451,42034,26154
33393,41987,26082
33332,41934,26002
33265,41874,25911
33194,41810,25812
33121,41743,25708
33044,41670,25604
32965,41594,25499
32888,41522,25399
32816,41457,25306
32749,41396,25223
32692,41341,25152
32643,41297,25093
32602,41262,25045
32571,41238,25010
32552,41224,24992
32546,41219,24986
32550,41220,24993
32564,41229,25011
32589,41250,25040
32623,41282,25080
32661,41322,25125
32702,41367,25175
32746,41413,25228
32791,41457,25284
32836,41499,25340
32879,41537,25391
32921,41570,25435
32959,41598,25471
32988,41621,25499
33004,41636,25515
33006,41640,25518
32996,41634,25510
32977,41622,25491
32951,41604,25464
32916,41579,25428
32876,41547,25383
32835,41514,25332
32792,41480,25278
32742,41440,25216
32687,41392,25148
32629,41340,25075
32568,41287,24998
32506,41233,24921
32445,41177,24848
32385,41119,24772
32326,41057,24693
32264,40999,24614
32203,40946,24535
32143,40893,24454
32082,40838,24372
32024,40784,24295
31970,40734,24222
31914,40683,24152
31858,40631,24084
31803,40579,24017
31748,40528,23952
31691,40477,23887
31632,40428,23820
31574,40377,23750
31515,40325,23677
31457,40275,23606
31400,40228,23538
31343,40182,23473
31284,40133,23407
31225,40082,23339
31167,40030,23271
31105,39980,23201
31043,39930,23129
30983,39881,23057
30928,39836,22990
30877,39793,22925
30827,39750,22860
30778,39707,22795
30732,39666,22732
30690,39632,22674
30650,39602,22622
30612,39574,22575
30578,39547,22532
30548,39523,22491
30521,39501,22454
30492,39481,22420
30460,39459,22386
30424,39433,22350
30388,39404,22313
30354,39372,22274
30313,39337,22227
30263,39296,22169
30209,39250,22104
30155,39202,22034
30098,39152,21961
30038,39101,21887
29979,39051,21816
29926,39006,21752
29881,38967,21697
29848,38939,21661
29840,38932,21656
29866,38960,21692
29939,39029,21783
30065,39146,21940
30249,39315,22169
30486,39532,22467
30771,39795,22826
31094,40094,23231
31440,40416,23666
31800,40748,24115
32161,41079,24564
32510,41398,25002
32839,41697,25416
33146,41970,25799
33429,42215,26150
33682,42433,26464
33903,42622,26737
34093,42784,26971
34255,42920,27172
34389,43031,27340
34495,43116,27473
34576,43178,27573
34637,43221,27647
34681,43248,27701
34707,43263,27739
34716,43266,27758
34712,43257,27756
34701,43239,27740
34681,43214,27716
34653,43186,27685
34621,43155,27648
34588,43123,27607
34553,43091,27562
34515,43058,27513
34473,43023,27462
34430,42986,27409
34390,42951,27354
34354,42916,27301
34321,42882,27250
34288,42850,27201
34254,42819,27156
34222,42789,27114
34186,42756,27071
34145,42719,27024
34101,42678,26973
34058,42635,26916
34010,42592,26852
33958,42543,26781
33900,42485,26703
33838,42420,26620
33776,42355,26536
33715,42295,26455
33656,42237,26380
33600,42183,26310
33548,42134,26246
33502,42095,26193
33465,42068,26153
33438,42049,26120
33421,42036,26092
33414,42030,26072
33419,42033,26062
33430,42043,26064
33446,42057,26077
33465,42075,26099
33489,42098,26132
33515,42125,26171
33542,42151,26211
33566,42176,26247
33588,42199,26280
33609,42219,26309
33626,42235,26334
33640,42244,26353
33649,42249,26366
33655,42250,26373
33657,42245,26369
33651,42233,26354
33637,42215,26335
33617,42195,26310
33592,42170,26278
33562,42142,26239
33526,42110,26195
33484,42071,26144
33436,42028,26088
33384,41981,26026
33330,41932,25958
33275,41882,25886
33220,41833,25811
33167,41785,25737
33113,41738,25664
33058,41688,25591
33001,41634,25520
32943,41579,25450
32882,41524,25378
32821,41470,25306
32760,41417,25236
32697,41366,25166
32634,41314,25091
32569,41260,25011
32503,41203,24929
32441,41148,24850
32384,41096,24774
32327,41041,24695
32266,40985,24613
32204,40932,24532
32140,40879,24451
32076,40822,24369
32010,40760,24284
31944,40697,24200
31881,40637,24120
31818,40578,24042
31756,40518,23964
31696,40461,23887
31638,40408,23811
31580,40356,23734
31521,40305,23654
31463,40257,23577
31409,40214,23506
31354,40172,23436
31296,40126,23367
31237,40078,23299
31179,40029,23233
31124,39981,23169
31073,39934,23106
31023,39886,23042
30973,39839,22979
30922,39792,22915
30870,39746,22852
30816,39697,22790
30762,39645,22728
30708,39593,22668
30652,39543,22610
30595,39495,22551
30541,39450,22492
30492,39407,22432
30447,39367,22369
30402,39328,22303
30356,39287,22237
30308,39244,22169
30258,39200,22102
30206,39156,22034
30152,39107,21963
30094,39054,21889
30035,39003,21819
29978,38957,21756
29928,38919,21703
29894,38898,21669
29890,38905,21674
29926,38949,21731
30011,39036,21851
30155,39173,22043
30364,39365,22313
30635,39610,22655
30953,39897,23054
31305,40213,23495
31679,40549,23961
32062,40890,24435
32435,41224,24899
32790,41540,25341
33119,41833,25752
33419,42098,26125
33688,42332,26456
33927,42537,26748
34131,42712,27002
34300,42856,27219
34440,42969,27400
34550,43057,27544
34632,43122,27653
34689,43165,27729
34724,43186,27779
34740,43191,27807
34738,43184,27813
34722,43163,27800
34693,43130,27769
34656,43088,27726
34613,43042,27676
34566,42993,27620
34516,42942,27556
34466,42893,27486
34418,42846,27415
34373,42802,27346
34327,42758,27279
34282,42715,27214
34237,42674,27152
34195,42633,27090
34157,42593,27031
34121,42555,26973
34087,42519,26916
34049,42483,26863
34007,42444,26810
33957,42399,26754
33901,42348,26691
33839,42290,26618
33773,42228,26537
33702,42163,26448
33626,42093,26351
33547,42023,26252
33468,41956,26156
33394,41889,26062
33327,41825,25971
33267,41767,25888
33217,41718,25814
33176,41678,25751
33145,41646,25701
33121,41623,25665
33103,41608,25645
33093,41603,25639
33094,41606,25647
33104,41619,25665
33124,41641,25693
33150,41670,25727
33181,41704,25767
33212,41743,25812
33245,41782,25858
33277,41820,25901
33306,41851,25937
33333,41879,25966
33360,41904,25993
33383,41922,26017
33397,41930,26031
33403,41929,26037
33402,41922,26035
33395,41906,26024
33376,41882,26003
33346,41849,25969
33307,41811,25924
33261,41767,25869
33204,41714,25805
33138,41653,25733
33066,41588,25656
32991,41521,25575
32910,41449,25486
32826,41373,25387
32740,41297,25285
32655,41223,25182
32568,41149,25078
32481,41074,24972
32397,40999,24865
32319,40925,24762
32246,40853,24662
32174,40784,24564
32098,40715,24464
32021,40648,24363
31946,40583,24267
31871,40520,24175
31798,40458,24087
31726,40397,23998
31659,40340,23913
31596,40286,23834
31539,40239,23762
31488,40197,23697
31440,40158,23636
31393,40122,23578
31346,40088,23524
31296,40054,23470
31244,40019,23415
31190,39981,23355
31137,39939,23292
31087,39895,23228
31035,39845,23163
30978,39790,23095
30913,39729,23021
30843,39668,22941
30774,39607,22858
30707,39546,22775
30643,39487,22691
30585,39432,22613
30532,39381,22540
30478,39332,22470
30425,39287,22405
30376,39247,22345
30334,39210,22290
30294,39175,22238
30258,39141,22189
30224,39109,22140
30192,39076,22093
30157,39043,22045
30115,39007,21997
30065,38966,21943
30008,38921,21882
29947,38874,21816
29885,38826,21749
29824,38777,21679
29763,38728,21608
29706,38681,21537
29655,38639,21474
29617,38606,21425
29596,38589,21399
29598,38594,21406
29632,38629,21460
29713,38709,21573
29852,38841,21757
30053,39028,22017
30310,39265,22350
30617,39545,22743
30963,39859,23181
31330,40195,23644
31704,40538,24112
32072,40879,24571
32425,41205,25012
32753,41505,25428
33052,41772,25809
33318,42006,26148
33552,42210,26443
33753,42385,26696
33921,42529,26908
34061,42645,27080
34173,42737,27215
34258,42806,27316
34317,42853,27389
34353,42881,27438
34371,42894,27466
34376,42897,27478
34370,42888,27474
34354,42872,27455
34331,42850,27424
34300,42819,27383
34262,42781,27335
34220,42737,27281
34174,42690,27222
34124,42643,27159
34073,42596,27093
34021,42550,27026
33967,42504,26960
33912,42459,26894
33858,42416,26827
33805,42374,26761
33748,42328,26694
33689,42277,26621
33627,42222,26542
33561,42163,26457
33488,42098,26367
33408,42026,26270
33320,41946,26164
33224,41862,26049
33126,41780,25932
33029,41701,25817
32937,41623,25706
32856,41550,25604
32789,41485,25512
32734,41428,25432
32687,41383,25363
32652,41347,25307
32627,41318,25262
32608,41298,25230
32597,41285,25211
32595,41284,25207
32604,41294,25217
32623,41316,25239
32653,41347,25273
32691,41387,25318
32736,41433,25374
32784,41481,25437
32829,41530,25503
32871,41575,25563
32909,41616,25615
32943,41651,25662
32973,41682,25702
32995,41705,25731
33009,41717,25749
33016,41720,25758
33019,41713,25757
33015,41701,25747
33001,41683,25730
32976,41656,25703
32941,41620,25666
32899,41580,25619
32853,41537,25563
32806,41493,25499
32759,41450,25432
32712,41410,25366
32664,41371,25301
32611,41329,25235
32556,41285,25164
32499,41239,25089
32438,41192,25013
32373,41143,24936
32305,41089,24856
32234,41028,24775
32164,40963,24695
32093,40896,24616
32023,40826,24534
31955,40758,24452
31889,40695,24372
31824,40639,24295
31762,40586,24221
31702,40534,24151
31645,40484,24085
31590,40436,24021
31536,40393,23959
31482,40351,23897
31425,40307,23832
31368,40259,23761
31309,40209,23685
31247,40156,23606
31180,40099,23526
31107,40038,23444
31032,39976,23363
30959,39915,23282
30887,39853,23201
30818,39792,23119
30756,39736,23041
30701,39685,22967
30652,39639,22900
30607,39600,22839
30564,39565,22785
30523,39533,22734
30484,39507,22688
30448,39485,22646
30413,39467,22605
30377,39448,22564
30340,39430,22524
30304,39410,22486
30265,39388,22448
30219,39359,22405
30169,39323,22357
30115,39282,22305
30058,39237,22250
29999,39188,22189
29936,39136,22122
29874,39087,22055
29821,39044,21995
29779,39013,21951
29754,38997,21930
29757,39006,21943
29798,39049,22001
29884,39134,22118
30022,39268,22303
30213,39452,22554
30454,39681,22867
30737,39948,23233
31051,40240,23638
31382,40546,24062
31720,40853,24491
32056,41154,24914
32385,41447,25323
32698,41723,25709
32989,41975,26064
33255,42199,26383
33494,42395,26662
33699,42565,26903
33872,42706,27110
34018,42824,27285
34142,42920,27429
34242,42997,27544
34316,43053,27631
34365,43088,27691
34395,43107,27730
34408,43114,27751
34408,43109,27756
34394,43093,27742
34371,43066,27712
34343,43033,27671
34309,42996,27624
34269,42956,27573
34222,42909,27514
34173,42859,27451
34122,42810,27387
34069,42761,27320
34015,42711,27249
33961,42662,27178
33910,42616,27112
33861,42573,27050
33813,42529,26986
33767,42483,26920
33721,42436,26854
33671,42388,26786
33618,42336,26714
33558,42281,26636
33494,42226,26553
33425,42171,26464
33351,42110,26372
33273,42046,26277
33197,41980,26185
33126,41916,26097
33058,41854,26016
32992,41794,25940
32932,41741,25871
32883,41697,25811
32844,41664,25764
32812,41641,25730
32791,41627,25708
32784,41625,25699
32787,41632,25702
32797,41644,25714
32813,41659,25732
32835,41676,25757
32861,41695,25788
32891,41715,25821
32920,41736,25853
32952,41759,25886
32982,41782,25919
33007,41803,25947
33028,41818,25969
33045,41830,25986
33060,41840,25998
33067,41846,26006
33067,41849,26007
33060,41848,25999
33049,41843,25984
33032,41832,25964
33008,41817,25937
32978,41796,25903
32942,41767,25862
32900,41734,25813
32852,41696,25759
32800,41651,25701
32747,41601,25637
32690,41546,25568
32628,41487,25494
32563,41428,25415
32497,41368,25333
32426,41305,25249
32353,41242,25167
32283,41180,25087
32216,41119,25003
32150,41060,24917
32085,41004,24832
32020,40947,24748
31955,40889,24663
31888,40831,24580
31824,40774,24500
31761,40718,24421
31700,40663,24341
31637,40608,24258
31572,40553,24175
31507,40499,24096
31445,40449,24022
31384,40399,23949
31325,40348,23880
31264,40297,23813
31203,40245,23745
31143,40194,23675
31081,40141,23602
31014,40083,23527
30946,40021,23447
30878,39958,23365
30813,39898,23284
30749,39840,23206
30686,39781,23127
30626,39726,23048
30569,39675,22972
30512,39624,22897
30455,39574,22824
30402,39528,22752
30354,39487,22685
30306,39449,22625
30258,39411,22569
30211,39372,22516
30169,39339,22467
30132,39310,22424
30099,39283,22381
30066,39256,22338
30036,39230,22295
30006,39206,22255
29974,39177,22212
29936,39141,22163
29890,39098,22110
29839,39051,22051
29778,38996,21983
29709,38936,21903
29635,38877,21821
29560,38820,21740
29488,38763,21661
29421,38706,21585
29363,38651,21516
29318,38607,21462
29295,38584,21435
29302,38589,21446
29350,38634,21510
29449,38727,21642
29611,38879,21854
29839,39094,22148
30129,39365,22516
30470,39683,22946
30845,40034,23420
31239,40399,23914
31639,40762,24409
32031,41113,24891
32406,41443,25351
32754,41747,25781
33074,42024,26174
33360,42270,26526
33609,42482,26832
33822,42659,27094
34002,42806,27314
34152,42927,27495
34274,43027,27642
34368,43102,27758
34437,43154,27846
34486,43188,27909
34518,43209,27950
34532,43217,27969
34529,43211,27970
34513,43195,27959
34492,43170,27936
34463,43136,27902
34424,43095,27857
34382,43051,27806
34342,43008,27752
34301,42964,27697
34255,42917,27637
34205,42873,27575
34157,42829,27514
34111,42786,27454
34066,42743,27393
34020,42703,27332
33974,42664,27271
33930,42625,27212
33885,42587,27152
33836,42547,27088
33785,42505,27022
33730,42459,26955
33674,42410,26884
33616,42355,26803
33554,42295,26713
33491,42232,26620
33428,42169,26528
33363,42105,26438
33298,42043,26350
33236,41985,26272
33180,41935,26203
33127,41888,26141
33078,41844,26085
33036,41808,26037
33003,41780,26000
32981,41760,25973
32967,41748,25957
32960,41740,25951
32960,41739,25955
32970,41746,25968
32986,41761,25987
33008,41781,26007
33034,41804,26031
33063,41829,26060
33091,41852,26091
33116,41872,26118
33138,41888,26143
33157,41902,26166
33169,41912,26186
33173,41919,26201
33172,41922,26207
33166,41921,26205
33150,41913,26192
33127,41897,26166
33100,41874,26128
33066,41842,26080
33028,41805,26026
32986,41763,25967
32940,41719,25906
32887,41672,25845
32831,41624,25781
32773,41572,25711
32712,41516,25637
32649,41457,25559
32585,41397,25481
32522,41336,25401
32457,41276,25321
32388,41217,25237
32317,41158,25151
32244,41100,25064
32172,41042,24979
32100,40983,24896
32031,40924,24815
31963,40865,24736
31900,40807,24659
31839,40754,24582
31781,40704,24506
31722,40651,24427
31660,40593,24344
31599,40538,24263
31537,40485,24187
31470,40429,24108
31399,40368,24024
31327,40308,23941
31256,40248,23860
31185,40184,23777
31112,40117,23693
31037,40048,23606
30960,39980,23517
30883,39910,23429
30804,39839,23340
30725,39768,23251
30646,39697,23162
30570,39632,23077
30499,39572,22996
30434,39517,22920
30374,39465,22847
30317,39418,22778
30265,39373,22711
30216,39330,22645
30167,39286,22580
30116,39237,22511
30064,39187,22441
30012,39139,22369
29960,39093,22297
29908,39047,22225
29854,38999,22154
29801,38951,22087
29748,38906,22027
29699,38862,21968
29649,38819,21908
29600,38777,21847
29552,38737,21789
29503,38695,21730
29452,38652,21668
29398,38607,21602
29346,38561,21538
29294,38514,21473
29240,38464,21405
29184,38413,21333
29127,38363,21260
29070,38312,21188
29009,38261,21119
28950,38215,21055
28899,38176,20999
28861,38148,20958
28840,38134,20941
28846,38143,20957
28891,38186,21021
28988,38274,21149
29146,38418,21352
29371,38625,21640
29661,38893,22010
30004,39212,22450
30390,39569,22942
30800,39947,23462
31218,40329,23987
31629,40699,24497
32023,41046,24979
32394,41366,25427
32733,41654,25834
33034,41907,26197
33295,42126,26513
33515,42313,26783
33699,42470,27008
33850,42598,27193
33965,42698,27340
34048,42769,27452
34103,42818,27532
34137,42848,27582
34156,42863,27609
34162,42864,27616
34153,42849,27606
34133,42821,27582
34102,42783,27548
34059,42738,27502
34008,42685,27446
33954,42630,27382
33902,42575,27314
33850,42521,27244
33797,42469,27173
33744,42420,27102
33693,42374,27033
33644,42332,26967
33599,42296,26905
33554,42262,26847
33508,42228,26789
33460,42189,26730
33409,42146,26669
33356,42100,26605
33299,42050,26539
33237,41995,26466
33172,41937,26388
33099,41873,26303
33021,41803,26208
32939,41727,26107
32860,41650,26004
32783,41576,25901
32708,41505,25804
32636,41437,25712
32572,41376,25627
32514,41321,25548
32465,41276,25480
32422,41240,25426
32389,41213,25387
32370,41197,25364
32362,41190,25358
32362,41193,25364
32371,41204,25382
32388,41223,25410
32415,41250,25446
32448,41284,25489
32482,41320,25535
32518,41358,25583
32554,41395,25630
32588,41428,25672
32618,41455,25705
32642,41474,25729
32664,41490,25750
32680,41500,25768
32689,41504,25776
32690,41503,25776
32686,41497,25769
32675,41486,25753
32656,41469,25727
32627,41444,25691
32589,41410,25646
32544,41372,25595
32494,41329,25537
32438,41282,25472
32377,41233,25402
32312,41182,25327
32246,41127,25248
32177,41066,25166
32106,41003,25081
32034,40941,24994
31963,40876,24905
31889,40805,24813
31812,40730,24719
31735,40654,24624
31658,40581,24529
31579,40512,24436
31498,40442,24342
31418,40372,24249
31342,40308,24157
31269,40247,24069
31197,40188,23980
31128,40129,23888
31063,40074,23797
31000,40021,23712
30938,39966,23634
30879,39912,23559
30823,39861,23488
30770,39813,23419
30716,39763,23349
30658,39713,23281
30601,39665,23213
30545,39619,23147
30490,39575,23082
30433,39530,23015
30374,39485,22945
30317,39440,22878
30263,39396,22812
30207,39349,22743
30150,39299,22672
30092,39248,22600
30035,39197,22527
29979,39148,22458
29923,39103,22392
29869,39059,22328
29820,39015,22267
29774,38971,22208
29731,38932,22153
29689,38893,22100
29646,38852,22044
29599,38808,21984
29550,38761,21920
29495,38710,21852
29433,38653,21780
29367,38593,21705
29298,38528,21626
29226,38457,21541
29149,38384,21450
29073,38312,21357
29001,38247,21267
28934,38190,21183
28875,38142,21108
28827,38105,21046
28793,38082,21006
28784,38081,20998
28807,38110,21035
28874,38178,21128
28994,38298,21290
29178,38476,21529
29430,38712,21847
29742,39000,22237
30101,39328,22682
30490,39682,23162
30894,40049,23662
31300,40413,24165
31695,40764,24652
32068,41090,25109
32413,41388,25531
32722,41655,25914
32993,41890,26252
33226,42092,26544
33427,42263,26794
33596,42405,27002
33733,42517,27169
33838,42602,27297
33916,42665,27393
33972,42707,27462
34009,42731,27506
34029,42738,27528
34031,42732,27532
34019,42716,27522
33995,42692,27500
33961,42662,27463
33920,42624,27411
33871,42577,27348
33818,42526,27278
33763,42472,27206
33706,42419,27134
33649,42366,27059
33595,42314,26982
33542,42264,26908
33489,42214,26838
33437,42165,26772
33387,42116,26706
33339,42067,26638
33289,42022,26568
33235,41975,26495
33175,41922,26417
33109,41861,26333
33037,41795,26246
32960,41725,26154
32880,41654,26059
32800,41582,25962
32719,41511,25863
32641,41443,25766
32568,41381,25675
32499,41324,25589
32433,41271,25509
32372,41225,25437
32324,41190,25375
32286,41163,25325
32257,41139,25286
32240,41122,25261
32236,41116,25251
32243,41120,25256
32258,41130,25272
32279,41146,25300
32306,41170,25337
32338,41199,25380
32371,41231,25427
32406,41263,25474
32442,41293,25519
32474,41319,25561
32501,41341,25597
32525,41358,25625
32544,41372,25645
32555,41380,25658
32561,41382,25664
32561,41379,25661
32553,41373,25649
32539,41361,25632
32519,41344,25608
32491,41322,25572
32460,41294,25527
32426,41262,25477
32389,41226,25424
32347,41185,25363
32298,41140,25294
32244,41093,25223
32184,41042,25149
32122,40989,25073
32058,40935,24996
31994,40883,24921
31932,40834,24847
31871,40787,24772
31811,40736,24692
31750,40680,24610
31686,40621,24528
31619,40561,24447
31549,40499,24366
31477,40437,24285
31406,40377,24204
31338,40318,24121
31268,40258,24039
31194,40194,23954
31118,40131,23867
31043,40068,23779
30965,40003,23689
30885,39936,23600
30809,39868,23511
30734,39800,23421
30660,39735,23331
30588,39674,23243
30518,39615,23158
30452,39557,23078
30389,39503,23006
30332,39452,22939
30281,39403,22872
30237,39358,22805
30198,39319,22740
30159,39285,22677
30119,39251,22618
30079,39214,22564
30037,39177,22512
29993,39144,22461
29948,39111,22410
29902,39075,22357
29853,39035,22301
29804,38993,22243
29756,38953,22185
29705,38911,22128
29652,38867,22070
29596,38822,22012
29541,38778,21952
29488,38733,21891
29441,38689,21832
29402,38649,21777
29367,38616,21728
29332,38587,21681
29298,38559,21638
29268,38532,21597
29238,38504,21557
29205,38474,21515
29168,38442,21472
29126,38406,21421
29078,38365,21359
29024,38318,21286
28965,38266,21208
28905,38210,21131
28844,38153,21054
28784,38097,20979
28729,38046,20913
28684,38006,20864
28657,37984,20841
28658,37993,20856
28698,38042,20924
28790,38138,21060
28948,38291,21276
29176,38507,21578
29475,38784,21956
29832,39112,22401
30231,39477,22896
30655,39862,23420
31084,40251,23948
31504,40634,24467
31909,40998,24965
32285,41332,25428
32629,41630,25849
32937,41894,26226
33208,42123,26558
33443,42317,26848
33641,42479,27093
33805,42612,27295
33937,42720,27460
34041,42805,27595
34117,42868,27700
34170,42912,27776
34206,42942,27828
34226,42960,27861
34231,42963,27876
34223,42952,27873
34205,42933,27854
34180,42909,27825
34149,42881,27785
34115,42849,27739
34080,42813,27689
34043,42775,27638
34002,42735,27585
33959,42693,27532
33916,42650,27477
33875,42608,27420
33836,42568,27363
33797,42527,27309
33760,42487,27257
33724,42449,27207
33686,42410,27157
33647,42369,27105
33607,42326,27048
33562,42282,26987
33511,42236,26922
33454,42185,26852
33395,42131,26775
33333,42074,26695
33267,42016,26613
33202,41961,26531
33139,41911,26453
33079,41864,26380
33023,41821,26312
32971,41784,26248
32925,41751,26189
32888,41722,26137
32857,41697,26096
32832,41678,26065
32815,41662,26043
32806,41651,26031
32804,41647,26028
32808,41650,26032
32816,41655,26041
32829,41666,26058
32847,41680,26081
32868,41696,26107
32891,41712,26135
32913,41727,26165
32935,41740,26195
32953,41751,26224
32967,41759,26248
32979,41765,26264
32987,41773,26274
32987,41780,26276
32976,41783,26270
32958,41781,26254
32933,41771,26231
32901,41749,26200
32863,41718,26157
32818,41680,26103
32766,41635,26041
32708,41583,25972
32645,41524,25896
32577,41460,25813
32504,41393,25726
32428,41322,25635
32349,41246,25539
32271,41170,25439
32194,41096,25337
32114,41025,25236
32035,40956,25133
31959,40888,25033
31888,40823,24937
31822,40761,24844
31757,40701,24752
31694,40641,24661
31629,40580,24572
31558,40517,24482
31486,40453,24391
31414,40391,24301
31341,40328,24212
31268,40266,24124
31193,40203,24039
31120,40138,23957
31048,40072,23877
30978,40007,23796
30908,39942,23710
30834,39876,23620
30759,39809,23530
30684,39743,23440
30607,39675,23348
30528,39604,23251
30450,39534,23156
30374,39468,23067
30300,39406,22982
30229,39347,22903
30165,39293,22829
30111,39246,22764
30065,39208,22706
30027,39175,22651
29992,39145,22597
29957,39117,22544
29921,39092,22495
29885,39066,22446
29850,39035,22395
29812,38995,22338
29771,38950,22277
29726,38904,22215
29676,38859,22151
29622,38812,22087
29569,38763,22023
29518,38718,21960
29465,38674,21897
29410,38629,21835
29356,38584,21773
29306,38543,21713
29261,38504,21655
29216,38466,21596
29172,38428,21535
29127,38391,21478
29081,38354,21424
29033,38314,21369
28982,38273,21314
28932,38232,21257
28882,38190,21198
28829,38143,21134
28768,38090,21061
28701,38031,20980
28628,37967,20893
28549,37897,20801
28468,37824,20706
28391,37756,20618
28325,37700,20542
28275,37662,20489
28255,37652,20475
28278,37682,20515
28358,37765,20628
28505,37910,20827
28729,38122,21121
29030,38398,21507
29395,38730,21969
29810,39101,22486
30255,39497,23034
30711,39900,23591
31161,40295,24138
31592,40673,24660
31991,41024,25148
32350,41344,25595
32668,41627,25993
32945,41872,26338
33184,42081,26635
33383,42254,26885
33543,42395,27089
33670,42504,27250
33771,42586,27373
33847,42646,27465
33900,42684,27527
33931,42701,27562
33945,42699,27575
33945,42683,27571
33928,42658,27553
33896,42624,27524
33856,42585,27483
33811,42544,27431
33762,42499,27371
33711,42451,27307
33659,42401,27241
33605,42348,27169
33551,42295,27097
33497,42244,27029
33444,42194,26965
33391,42144,26902
33343,42095,26837
33299,42050,26771
33256,42008,26703
33213,41965,26633
33167,41918,26563
33121,41867,26492
33073,41814,26420
33023,41758,26345
32967,41700,26262
32901,41637,26174
32826,41569,26080
32745,41499,25984
32664,41430,25887
32586,41362,25791
32516,41297,25702
32455,41236,25620
32401,41180,25545
32352,41133,25480
32310,41094,25425
32278,41065,25382
32255,41045,25349
32240,41034,25325
32235,41030,25316
32242,41034,25322
32259,41045,25341
32281,41062,25369
32308,41085,25403
32340,41115,25443
32376,41149,25488
32413,41181,25533
32449,41208,25574
32483,41232,25614
32512,41256,25651
32532,41277,25678
32543,41291,25695
32550,41300,25704
32553,41304,25707
32552,41301,25705
32546,41293,25696
32535,41282,25679
32517,41267,25652
32492,41245,25616
32457,41216,25572
32415,41180,25520
32369,41139,25462
32319,41096,25398
32265,41050,25328
32207,40998,25254
32144,40943,25176
32077,40886,25095
32005,40826,25008
31928,40764,24917
31848,40699,24823
31769,40631,24729
31691,40560,24633
31614,40488,24536
31534,40417,24440
31450,40344,24344
31364,40270,24247
31278,40195,24151
31193,40122,24057
31110,40050,23963
31029,39979,23868
30953,39911,23773
30877,39845,23680
30800,39778,23587
30722,39711,23493
30647,39644,23398
30574,39575,23303
30504,39504,23207
30435,39430,23109
30363,39357,23012
30292,39289,22919
30223,39226,22833
30154,39167,22751
30082,39109,22669
30013,39050,22590
29949,38992,22513
29886,38936,22436
29823,38882,22360
29763,38831,22288
29705,38783,22215
29646,38736,22142
29587,38689,22075
29531,38641,22013
29477,38591,21952
29425,38540,21890
29375,38489,21826
29326,38441,21762
29278,38394,21696
29231,38347,21629
29184,38302,21563
29135,38260,21500
29084,38222,21437
29033,38183,21371
28982,38141,21303
28931,38099,21236
28880,38059,21172
28828,38019,21110
28773,37978,21047
28715,37937,20981
28658,37895,20915
28602,37852,20852
28546,37808,20791
28495,37769,20735
28459,37743,20693
28445,37736,20678
28459,37755,20701
28512,37808,20776
28616,37906,20915
28779,38057,21130
29010,38265,21425
29306,38530,21795
29656,38844,22230
30047,39191,22710
30464,39561,23220
30890,39939,23741
31305,40307,24251
31698,40654,24734
32064,40975,25182
32396,41266,25589
32689,41524,25950
32943,41747,26261
33159,41937,26524
33336,42093,26741
33477,42217,26913
33586,42310,27045
33666,42379,27144
33722,42424,27215
33760,42449,27257
33782,42458,27279
33788,42455,27285
33780,42441,27274
33756,42415,27246
33720,42378,27206
33678,42333,27156
33631,42283,27098
33580,42230,27032
33527,42177,26962
33473,42126,26891
33418,42077,26821
33361,42029,26750
33303,41981,26677
33248,41933,26605
33195,41884,26536
33139,41832,26467
33082,41777,26395
33022,41720,26319
32961,41662,26241
32897,41602,26157
32828,41536,26063
32749,41465,25960
32664,41389,25855
32579,41311,25748
32495,41232,25636
32412,41151,25521
32334,41074,25411
32260,41006,25309
32191,40943,25216
32124,40881,25132
32063,40824,25056
32013,40776,24995
31973,40740,24948
31943,40717,24916
31924,40704,24898
31919,40701,24894
31925,40710,24902
31938,40725,24920
31956,40745,24949
31981,40770,24986
32011,40800,25029
32044,40835,25077
32082,40875,25129
32126,40921,25186
32174,40969,25244
32219,41010,25298
32257,41041,25342
32289,41065,25375
32316,41084,25398
32338,41097,25411
32349,41102,25413
32350,41099,25403
32341,41088,25385
32321,41069,25359
32291,41043,25323
32254,41009,25277
32210,40969,25222
32159,40922,25159
32099,40867,25087
32035,40805,25008
31969,40739,24921
31899,40668,24828
31825,40596,24729
31749,40525,24628
31670,40454,24527
31586,40380,24429
31498,40307,24336
31413,40238,24247
31334,40176,24160
31262,40116,24071
31195,40058,23987
31132,40004,23907
31072,39956,23829
31014,39911,23750
30955,39866,23673
30896,39819,23597
30836,39771,23521
30776,39720,23445
30717,39667,23369
30658,39612,23295
30596,39554,23218
30530,39493,23139
30459,39432,23059
30386,39369,22978
30312,39301,22895
30237,39233,22809
30163,39167,22725
30091,39105,22643
30020,39043,22562
29951,38983,22480
29887,38929,22400
29829,38881,22327
29774,38838,22260
29724,38795,22196
29675,38753,22134
29628,38711,22072
29577,38670,22009
29522,38628,21946
29468,38588,21885
29418,38549,21826
29367,38512,21768
29318,38476,21709
29272,38441,21652
29230,38405,21596
29186,38365,21539
29143,38321,21483
29104,38276,21427
29065,38232,21371
29024,38187,21316
28982,38144,21261
28940,38105,21206
28897,38067,21149
28853,38028,21091
28807,37988,21034
28758,37946,20975
28706,37900,20913
28651,37851,20849
28596,37803,20781
28540,37753,20711
28483,37702,20639
28428,37656,20569
28379,37618,20508
28339,37590,20461
28313,37572,20433
28306,37572,20432
28332,37602,20475
28405,37675,20577
28535,37802,20750
28728,37987,21002
28988,38232,21336
29315,38535,21749
29699,38887,22229
30124,39271,22753
30569,39670,23299
31015,40069,23846
31449,40453,24378
31859,40813,24880
32236,41142,25343
32574,41436,25759
32873,41694,26125
33134,41914,26441
33355,42099,26709
33535,42251,26933
33679,42371,27115
33795,42463,27257
33886,42532,27364
33950,42581,27444
33991,42610,27496
34013,42622,27525
34021,42622,27535
34015,42612,27530
34000,42594,27511
33976,42570,27479
33948,42541,27438
33912,42508,27391
33872,42474,27341
33829,42439,27289
33785,42398,27236
33741,42352,27182
33698,42310,27129
33658,42271,27080
33622,42235,27035
33587,42201,26993
33552,42169,26951
33518,42137,26909
33485,42106,26868
33448,42074,26824
33407,42039,26773
33362,42001,26715
33317,41960,26652
33269,41915,26584
33213,41864,26507
33150,41804,26420
33081,41738,26327
33014,41673,26233
32949,41610,26144
32886,41549,26060
32821,41490,25980
32760,41434,25906
32709,41385,25840
32666,41345,25786
32631,41315,25743
32603,41293,25708
32584,41278,25682
32573,41271,25670
32569,41272,25669
32570,41278,25675
32574,41286,25687
32583,41296,25706
32599,41309,25729
32617,41323,25755
32632,41339,25782
32648,41355,25811
32666,41373,25841
32683,41390,25870
32697,41405,25893
32709,41418,25907
32719,41428,25915
32724,41429,25914
32721,41421,25904
32711,41409,25889
32693,41396,25866
32668,41377,25835
32638,41352,25798
32601,41316,25755
32556,41272,25704
32506,41221,25642
32452,41167,25571
32393,41112,25493
32327,41053,25408
32258,40992,25318
32189,40932,25231
32122,40873,25147
32053,40814,25063
31982,40755,24979
31910,40696,24893
31840,40635,24806
31772,40574,24718
31702,40509,24627
31630,40441,24534
31561,40375,24440
31493,40311,24349
31426,40247,24262
31360,40183,24176
31294,40120,24093
31228,40057,24014
31160,39996,23935
31088,39935,23853
31012,39873,23770
30936,39811,23688
30865,39753,23608
30796,39700,23532
30729,39649,23458
30664,39598,23386
30602,39546,23315
30543,39495,23247
30490,39449,23182
30441,39408,23117
30393,39370,23054
30345,39333,22991
30297,39294,22929
30248,39254,22869
30199,39215,22811
30152,39176,22755
30106,39134,22698
30060,39088,22638
30011,39039,22575
29958,38991,22509
29905,38945,22443
29855,38904,22380
29811,38865,22322
29769,38825,22264
29728,38784,22205
29688,38744,22148
29648,38704,22093
29608,38664,22041
29566,38626,21994
29525,38588,21951
29484,38548,21909
29442,38506,21862
29398,38464,21806
29351,38423,21745
29301,38383,21681
29245,38338,21612
29186,38289,21537
29122,38239,21458
29056,38188,21380
28990,38136,21304
28925,38081,21229
28862,38024,21153
28803,37971,21082
28751,37929,21025
28713,37901,20987
28700,37897,20979
28723,37929,21015
28795,38005,21113
28927,38132,21285
29125,38315,21537
29389,38557,21870
29711,38853,22273
30078,39188,22729
30470,39546,23217
30874,39910,23717
31273,40268,24208
31656,40609,24678
32015,40924,25117
32344,41208,25519
32637,41460,25878
32894,41679,26192
33116,41864,26462
33302,42015,26687
33452,42134,26870
33571,42225,27016
33667,42294,27132
33737,42340,27220
33783,42366,27280
33809,42376,27314
33822,42373,27329
33820,42361,27329
33803,42340,27314
33776,42313,27283
33745,42283,27242
33711,42249,27195
33670,42209,27144
33622,42160,27091
33574,42106,27037
33529,42054,26979
33484,42003,26918
33438,41956,26856
33392,41911,26793
33343,41864,26730
33295,41817,26669
33251,41776,26613
33211,41739,26560
33172,41704,26507
33132,41666,26452
33089,41623,26390
33038,41573,26321
32979,41516,26243
32912,41452,26157
32841,41384,26064
32767,41314,25967
32688,41243,25868
32608,41172,25768
32529,41103,25670
32457,41040,25580
32393,40985,25501
32337,40934,25433
32291,40890,25376
32254,40854,25330
32226,40827,25296
32205,40811,25273
32192,40803,25261
32190,40806,25259
32202,40821,25268
32224,40845,25287
32251,40875,25314
32282,40907,25348
32315,40940,25389
32350,40972,25434
32385,41000,25480
32418,41023,25519
32446,41041,25551
32469,41056,25575
32486,41066,25590
32495,41071,25597
32498,41068,25594
32491,41059,25583
32474,41046,25564
32450,41028,25537
32417,41001,25503
32375,40967,25461
32327,40927,25412
32272,40881,25354
32210,40827,25284
32143,40765,25206
32074,40699,25124
32004,40631,25038
31932,40562,24949
31861,40494,24860
31791,40428,24771
31721,40364,24679
31647,40299,24587
31570,40232,24495
31491,40162,24403
31412,40091,24309
31334,40020,24214
31258,39951,24117
31182,39882,24016
31106,39814,23915
31030,39745,23815
30956,39677,23717
30883,39610,23619
30812,39543,23522
30745,39479,23428
30681,39420,23342
30617,39364,23261
30550,39306,23183
30483,39247,23107
30421,39191,23037
30366,39138,22972
30311,39087,22907
30256,39038,22841
30202,38992,22776
30147,38944,22711
30087,38892,22644
30022,38835,22573
29956,38779,22500
29895,38726,22427
29835,38673,22352
29774,38617,22277
29715,38562,22203
29656,38504,22127
29595,38447,22050
29529,38390,21971
29460,38331,21890
29393,38272,21809
29327,38214,21732
29261,38161,21659
29198,38111,21588
29141,38061,21515
29087,38014,21444
29035,37968,21376
28985,37923,21311
28937,37879,21246
28892,37839,21182
28847,37801,21118
28802,37762,21056
28756,37721,20995
28711,37681,20934
28669,37644,20875
28632,37611,20823
28601,37587,20782
28585,37579,20765
28594,37597,20784
28639,37646,20852
28734,37739,20977
28887,37882,21171
29103,38076,21442
29377,38322,21787
29707,38618,22199
30080,38952,22663
30478,39310,23157
30885,39675,23658
31288,40035,24153
31673,40377,24627
32032,40695,25069
32359,40984,25471
32651,41240,25830
32907,41462,26147
33124,41651,26418
33302,41809,26642
33447,41934,26824
33562,42032,26970
33646,42103,27080
33702,42151,27157
33732,42176,27203
33743,42183,27225
33736,42174,27225
33715,42152,27207
33684,42121,27174
33648,42085,27132
33605,42045,27079
33558,41999,27014
33507,41948,26942
33453,41892,26866
33394,41834,26790
33331,41777,26714
33268,41718,26638
33209,41659,26563
33153,41602,26491
33100,41547,26420
33047,41494,26351
32997,41442,26284
32947,41389,26216
32894,41336,26144
32839,41282,26064
32780,41227,25979
32718,41170,25890
32648,41108,25797
32572,41043,25699
32493,40976,25597
32414,40910,25495
32333,40844,25395
32255,40779,25300
32186,40720,25212
32126,40670,25132
32072,40626,25064
32022,40588,25008
31979,40555,24965
31947,40531,24932
31930,40517,24910
31929,40516,24905
31939,40526,24915
31957,40542,24937
31984,40563,24970
32017,40590,25016
32054,40621,25068
32092,40657,25120
32131,40695,25171
32169,40735,25221
32204,40774,25266
32235,40805,25306
32260,40829,25340
32280,40845,25366
32293,40854,25384
32300,40857,25393
32302,40855,25391
32301,40852,25379
32297,40848,25362
32287,40839,25341
32271,40823,25314
32249,40800,25279
32223,40773,25241
32194,40742,25200
32156,40706,25150
32109,40666,25092
32056,40622,25029
31995,40573,24963
31928,40518,24889
31857,40457,24808
31785,40394,24723
31713,40328,24636
31640,40259,24549
31565,40187,24457
31486,40110,24359
31405,40034,24259
31324,39960,24159
31241,39891,24061
31158,39824,23965
31081,39761,23874
31011,39701,23789
30947,39644,23707
30886,39590,23630
30831,39542,23561
30783,39503,23500
30739,39471,23444
30697,39440,23392
30657,39409,23340
30617,39379,23289
30578,39349,23241
30541,39319,23192
30502,39290,23141
30460,39260,23088
30416,39226,23035
30372,39189,22981
30325,39148,22923
30274,39104,22862
30218,39055,22801
30162,39006,22738
30107,38957,22673
30051,38907,22608
29994,38855,22542
29938,38805,22476
29886,38757,22412
29836,38713,22351
29788,38671,22292
29741,38629,22231
29696,38586,22171
29651,38540,22113
29605,38493,22054
29558,38446,21991
29511,38402,21925
29463,38359,21860
29413,38316,21797
29363,38273,21732
29311,38230,21667
29259,38189,21605
29209,38152,21547
29161,38115,21493
29113,38078,21443
29069,38044,21401
29034,38019,21369
29014,38008,21356
29022,38022,21376
29069,38071,21441
29164,38163,21565
29311,38304,21758
29516,38497,22022
29781,38742,22355
30098,39032,22746
30453,39354,23181
30832,39696,23644
31219,40044,24119
31600,40386,24588
31965,40714,25036
32307,41022,25456
32620,41304,25842
32901,41554,26190
33149,41772,26499
33363,41958,26768
33544,42110,26997
33696,42232,27187
33818,42328,27340
33914,42400,27461
33983,42453,27552
34031,42485,27613
34064,42500,27651
34085,42501,27669
34091,42491,27668
34081,42470,27650
34060,42442,27618
34035,42412,27580
34004,42382,27540
33965,42347,27494
33922,42309,27441
33878,42272,27386
33838,42236,27332
33801,42201,27275
33764,42166,27217
33725,42132,27164
33685,42098,27116
33645,42062,27072
33606,42024,27028
33567,41988,26984
33526,41952,26938
33479,41911,26886
33427,41864,26829
33370,41811,26767
33313,41756,26699
33251,41698,26626
33183,41637,26544
33110,41572,26455
33037,41505,26360
32965,41439,26266
32899,41379,26175
32840,41326,26090
32787,41277,26013
32742,41235,25947
32706,41202,25895
32677,41175,25855
32654,41153,25824
32638,41138,25804
32630,41130,25797
32631,41129,25801
32639,41136,25813
32658,41149,25831
32685,41170,25857
32715,41195,25888
32746,41220,25923
32778,41245,25959
32815,41273,25998
32852,41302,26036
32886,41328,26070
32916,41354,26098
32942,41378,26124
32959,41397,26144
32967,41409,26150
32967,41413,26143
32961,41410,26131
32948,41400,26114
32929,41383,26090
32905,41360,26057
32874,41332,26018
32839,41301,25973
32797,41265,25921
32748,41222,25861
32691,41172,25795
32630,41115,25723
32566,41054,25645
32500,40988,25561
32432,40921,25476
32365,40855,25393
32300,40791,25311
32236,40731,25228
32172,40673,25148
32108,40617,25069
32041,40559,24990
31973,40500,24911
31908,40440,24832
31845,40383,24753
31779,40326,24671
31713,40269,24587
31649,40216,24507
31584,40163,24431
31520,40109,24358
31458,40057,24285
31398,40009,24212
31338,39960,24140
31277,39908,24068
31215,39852,23994
31153,39794,23920
31089,39734,23843
31024,39672,23766
30961,39612,23688
30897,39552,23610
30832,39493,23530
30767,39437,23449
30707,39386,23372
30651,39337,23301
30596,39291,23234
30544,39247,23168
30496,39207,23106
30453,39170,23048
30408,39132,22990
30359,39091,22929
30309,39049,22869
30260,39008,22811
30210,38967,22755
30158,38928,22698
30108,38886,22641
30060,38838,22581
30010,38786,22518
29957,38733,22453
29899,38681,22384
29837,38627,22310
29773,38574,22229
29711,38521,22145
29648,38467,22060
29581,38409,21972
29510,38348,21882
29437,38285,21791
29365,38220,21701
29294,38154,21611
29228,38090,21523
29167,38032,21440
29106,37980,21361
29045,37932,21287
28993,37893,21228
28960,37869,21194
28950,37868,21194
28972,37895,21235
29039,37962,21332
29166,38083,21500
29359,38265,21750
29618,38507,22080
29936,38802,22480
30303,39140,22939
30706,39508,23438
31122,39884,23954
31535,40255,24468
31937,40616,24965
32318,40956,25431
32671,41265,25859
32987,41536,26243
33263,41772,26581
33500,41975,26873
33697,42145,27120
33858,42287,27325
33987,42400,27489
34091,42488,27618
34170,42551,27713
34224,42594,27780
34255,42617,27822
34267,42623,27840
34264,42615,27839
34249,42593,27823
34225,42560,27795
34192,42520,27755
34153,42480,27708
34114,42442,27658
34076,42403,27606
34039,42365,27552
34002,42327,27496
33964,42292,27443
33926,42259,27395
33889,42227,27349
33854,42196,27302
33823,42166,27256
33793,42136,27212
33763,42103,27167
33730,42068,27120
33696,42034,27074
33659,42001,27026
33616,41963,26971
33566,41920,26907
33511,41872,26839
33450,41819,26766
33387,41762,26688
33321,41700,26607
33256,41631,26521
33192,41560,26434
33129,41492,26350
33069,41430,26271
33015,41376,26201
32968,41331,26138
32927,41293,26083
32893,41263,26039
32868,41240,26009
32852,41227,25992
32844,41224,25988
32845,41230,25996
32855,41244,26014
32873,41265,26037
32895,41292,26064
32922,41323,26095
32952,41356,26131
32984,41388,26168
33017,41419,26204
33045,41444,26237
33065,41461,26262
33076,41467,26276
33079,41465,26279
33075,41457,26275
33056,41437,26259
33023,41405,26231
32981,41363,26192
32932,41313,26145
32877,41259,26089
32816,41201,26019
32751,41138,25940
32684,41069,25852
32611,40995,25757
32534,40918,25660
32454,40843,25563
32372,40769,25467
32289,40697,25370
32210,40627,25272
32138,40563,25175
32068,40502,25080
31998,40441,24986
31931,40381,24895
31866,40323,24807
31801,40265,24722
31734,40207,24639
31670,40151,24560
31611,40099,24485
31553,40048,24410
31494,39997,24335
31435,39950,24261
31382,39906,24189
31330,39860,24117
31275,39812,24046
31219,39763,23974
31163,39714,23904
31106,39662,23834
31047,39609,23764
30989,39555,23693
30929,39500,23620
30866,39445,23547
30802,39389,23472
30734,39331,23395
30665,39270,23316
30596,39209,23234
30527,39146,23150
30456,39082,23066
30382,39018,22980
30309,38955,22894
30240,38895,22811
30174,38837,22731
30109,38780,22654
30047,38727,22581
29991,38678,22516
29940,38633,22454
29894,38591,22393
29850,38553,22334
29813,38519,22278
29781,38486,22226
29747,38452,22170
29710,38416,22109
29670,38377,22047
29626,38339,21987
29574,38298,21926
29517,38252,21862
29457,38204,21795
29396,38152,21722
29331,38096,21645
29261,38032,21566
29192,37968,21486
29126,37911,21412
29071,37867,21354
29037,37841,21318
29032,37839,21316
29067,37872,21364
29155,37954,21484
29307,38094,21685
29528,38299,21973
29818,38564,22341
30167,38882,22777
30556,39238,23263
30967,39615,23777
31383,39993,24297
31790,40358,24802
32178,40703,25277
32540,41024,25716
32867,41313,26111
33155,41567,26457
33404,41784,26752
33616,41964,27001
33792,42110,27209
33931,42224,27379
34034,42311,27513
34108,42375,27613
34157,42419,27683
34183,42441,27725
34189,42443,27742
34180,42428,27737
34157,42402,27715
34124,42368,27678
34084,42328,27627
34038,42282,27568
33986,42236,27506
33935,42191,27445
33886,42146,27382
33834,42098,27317
33780,42050,27252
33725,42004,27185
33671,41957,27117
33618,41908,27048
33566,41859,26980
33517,41814,26916
33469,41771,26854
33420,41728,26791
33370,41680,26722
33318,41626,26649
33262,41565,26570
33200,41499,26484
33134,41430,26392
33064,41361,26295
32991,41292,26194
32917,41223,26093
32842,41155,25994
32767,41089,25899
32693,41027,25809
32626,40971,25725
32566,40923,25650
32514,40881,25585
32472,40848,25533
32440,40824,25498
32419,40808,25476
32408,40801,25466
32407,40802,25468
32414,40812,25480
32433,40828,25503
32461,40851,25533
32494,40879,25570
32530,40909,25611
32568,40940,25654
32604,40968,25697
32636,40993,25738
32663,41014,25772
32682,41033,25800
32695,41049,25820
32705,41058,25831
32707,41061,25833
32700,41059,25828
32684,41051,25816
32663,41036,25795
32636,41014,25762
32603,40985,25720
32565,40953,25670
32525,40916,25613
32481,40872,25552
32431,40821,25486
32378,40766,25416
32323,40710,25342
32263,40653,25264
32198,40595,25184
32131,40536,25101
32062,40475,25014
31991,40411,24925
31916,40343,24835
31836,40274,24740
31755,40205,24640
31673,40135,24541
31590,40062,24443
31508,39987,24342
31426,39908,24239
31346,39828,24138
31267,39749,24041
31188,39674,23947
31110,39603,23854
31035,39538,23760
30964,39477,23669
30894,39419,23581
30824,39364,23494
30756,39310,23411
30694,39259,23333
30640,39213,23265
30591,39170,23202
30548,39129,23139
30506,39092,23079
30463,39056,23022
30418,39017,22964
30371,38976,22903
30324,38934,22841
30276,38891,22780
30223,38844,22717
30167,38793,22649
30111,38737,22577
30056,38679,22506
30001,38621,22437
29943,38564,22368
29883,38509,22295
29821,38455,22220
29756,38402,22144
29687,38347,22066
29618,38292,21986
29552,38237,21905
29488,38183,21823
29429,38134,21746
29374,38090,21676
29322,38050,21611
29276,38017,21553
29236,37992,21502
29206,37975,21462
29193,37969,21441
29202,37984,21448
29244,38027,21498
29324,38109,21603
29455,38234,21773
29644,38409,22019
29897,38641,22346
30209,38924,22744
30568,39248,23196
30958,39598,23683
31366,39961,24187
31776,40323,24690
32174,40670,25173
32549,40993,25626
32896,41293,26046
33209,41567,26429
33484,41808,26767
33720,42013,27058
33920,42186,27308
34088,42331,27518
34225,42447,27688
34331,42535,27818
34409,42597,27912
34463,42636,27978
34496,42657,28021
34509,42661,28039
34507,42652,28037
34493,42635,28020
34468,42609,27992
34434,42575,27956
34390,42536,27911
34341,42493,27861
34286,42448,27807
34232,42401,27747
34177,42350,27683
34120,42295,27617
34061,42240,27550
34004,42187,27481
33951,42138,27414
33903,42095,27350
33859,42059,27291
33818,42026,27233
33778,41994,27176
33736,41959,27115
33692,41919,27052
33644,41874,26983
33593,41824,26907
33535,41767,26824
33470,41703,26737
33400,41634,26646
33328,41563,26552
33253,41490,26457
33180,41420,26360
33113,41358,26269
33053,41303,26191
33003,41259,26125
32962,41223,26071
32930,41195,26027
32908,41174,25995
32896,41160,25977
32894,41154,25972
32904,41161,25981
32927,41183,26000
32959,41213,26030
32994,41247,26067
33032,41282,26108
33071,41319,26150
33112,41357,26194
33151,41396,26239
33188,41432,26283
33221,41463,26323
33251,41489,26358
33274,41508,26385
33288,41519,26406
33294,41526,26417
33292,41529,26420
33284,41526,26414
33268,41514,26400
33246,41495,26374
33219,41471,26337
33188,41443,26292
33151,41413,26242
33108,41376,26188
33060,41330,26126
33008,41279,26058
32952,41225,25990
32892,41168,25921
32826,41109,25846
32758,41048,25765
32688,40985,25681
32619,40923,25595
32549,40862,25511
32480,40801,25427
32411,40741,25345
32345,40683,25267
32278,40629,25193
32211,40576,25120
32145,40523,25046
32081,40471,24974
32022,40421,24904
31967,40371,24833
31913,40321,24762
31858,40270,24693
31803,40222,24624
31747,40176,24553
31693,40128,24482
31643,40082,24413
31593,40038,24345
31539,39991,24276
31485,39939,24205
31431,39887,24135
31374,39837,24066
31317,39788,23995
31263,39739,23924
31209,39690,23857
31157,39642,23791
31103,39593,23725
31048,39543,23653
30992,39493,23579
30937,39443,23505
30881,39393,23434
30825,39342,23364
30769,39290,23294
30714,39237,23227
30656,39185,23159
30598,39134,23091
30544,39087,23028
30493,39041,22969
30443,38993,22908
30395,38948,22845
30349,38907,22785
30304,38869,22727
30258,38829,22667
30209,38786,22604
30158,38742,22536
30108,38697,22468
30056,38652,22401
30006,38608,22336
29959,38566,22274
29916,38530,22217
29878,38501,22173
29852,38484,22148
29846,38484,22151
29871,38513,22195
29940,38582,22294
30066,38699,22461
30252,38870,22702
30501,39098,23019
30805,39378,23404
31155,39698,23841
31536,40045,24311
31931,40403,24794
32324,40758,25277
32702,41099,25743
33056,41416,26183
33384,41707,26591
33681,41970,26960
33946,42202,27287
34179,42405,27573
34378,42576,27818
34544,42715,28025
34680,42824,28194
34788,42908,28326
34874,42971,28426
34939,43016,28499
34985,43047,28550
35012,43067,28583
35024,43078,28599
35021,43074,28600
35006,43060,28586
34985,43039,28562
34957,43013,28530
34924,42984,28493
34888,42953,28453
34853,42922,28410
34819,42891,28366
34782,42858,28323
34743,42826,28281
34706,42795,28239
34670,42765,28195
34634,42733,28149
34593,42697,28105
34551,42658,28057
34510,42617,28002
34471,42571,27944
34432,42525,27885
34389,42480,27823
34337,42430,27754
34277,42379,27679
34213,42326,27600
34145,42267,27515
34075,42204,27424
34005,42140,27334
33939,42077,27244
33876,42015,27157
33819,41958,27077
33769,41910,27007
33727,41871,26945
33693,41838,26892
33661,41811,26848
33635,41789,26815
33614,41772,26792
33602,41762,26778
33601,41762,26775
33609,41770,26781
33626,41784,26793
33650,41802,26815
33679,41825,26847
33709,41851,26883
33739,41881,26921
33771,41913,26960
33801,41944,26998
33828,41969,27029
33849,41988,27052
33865,42002,27068
33876,42010,27077
33881,42011,27078
33880,42005,27073
33872,41992,27060
33855,41972,27041
33829,41944,27014
33793,41910,26977
33748,41869,26928
33695,41820,26869
33633,41767,26803
33567,41711,26729
33496,41650,26647
33420,41583,26557
33338,41511,26463
33255,41440,26368
33173,41371,26273
33093,41300,26178
33013,41225,26082
32934,41147,25985
32857,41070,25887
32779,40994,25788
32702,40923,25691
32629,40854,25597
32558,40791,25505
32486,40732,25414
32413,40674,25327
32341,40616,25240
32272,40557,25155
32204,40500,25072
32138,40443,24990
32074,40387,24905
32012,40332,24820
31952,40277,24738
31893,40221,24660
31834,40166,24586
31774,40113,24514
31714,40060,24439
31654,40008,24364
31594,39958,24290
31535,39908,24216
31476,39856,24142
31413,39801,24070
31347,39745,24004
31282,39688,23939
31219,39632,23875
31157,39577,23810
31095,39522,23744
31033,39465,23676
30974,39410,23610
30922,39362,23546
30877,39318,23482
30834,39278,23416
30789,39237,23349
30747,39197,23282
30707,39160,23219
30669,39123,23160
30630,39083,23103
30591,39042,23050
30550,39002,22998
30506,38962,22946
30455,38922,22890
30402,38881,22829
30350,38840,22763
30297,38795,22696
30240,38751,22627
30182,38706,22558
30124,38659,22487
30065,38609,22416
30005,38558,22343
29947,38508,22275
29895,38466,22215
29853,38436,22172
29833,38425,22155
29849,38446,22182
29915,38512,22268
30039,38631,22428
30231,38809,22670
30492,39049,22996
30813,39342,23398
31183,39679,23859
31584,40042,24358
31998,40417,24873
32410,40792,25389
32809,41154,25887
33182,41491,26352
33524,41796,26775
33832,42066,27154
34102,42300,27485
34334,42498,27769
34528,42664,28008
34686,42798,28206
34812,42903,28364
34908,42981,28484
34977,43036,28570
35024,43071,28628
35051,43088,28664
35059,43087,28677
35051,43072,28669
35030,43049,28642
35000,43020,28602
34962,42986,28553
34917,42947,28501
34868,42903,28445
34814,42854,28386
34761,42801,28324
34708,42747,28262
34656,42694,28198
34608,42643,28136
34562,42596,28078
34521,42553,28025
34486,42514,27978
34455,42480,27933
34423,42446,27888
34389,42410,27839
34352,42371,27786
34309,42331,27729
34259,42288,27663
34204,42239,27586
34143,42184,27499
34073,42123,27402
33994,42057,27298
33911,41988,27191
33827,41919,27084
33746,41849,26980
33668,41779,26885
33599,41714,26801
33541,41657,26726
33494,41612,26664
33457,41578,26616
33429,41552,26580
33411,41536,26556
33404,41531,26546
33409,41536,26551
33426,41554,26568
33450,41581,26592
33482,41612,26622
33521,41648,26662
33565,41686,26709
33611,41726,26763
33656,41764,26816
33698,41798,26865
33733,41828,26906
33758,41853,26938
33777,41872,26961
33788,41883,26975
33791,41884,26979
33781,41874,26970
33761,41855,26949
33733,41828,26918
33697,41794,26876
33651,41752,26823
33597,41703,26761
33539,41653,26695
33476,41599,26626
33409,41542,26551
33342,41482,26473
33276,41419,26391
33207,41354,26308
33134,41284,26222
33061,41211,26133
32990,41141,26042
32921,41076,25951
32855,41012,25860
32789,40949,25771
32723,40887,25685
32658,40828,25601
32596,40771,25522
32536,40717,25446
32478,40666,25372
32421,40614,25296
32361,40560,25218
32300,40505,25140
32239,40451,25063
32178,40394,24988
32112,40337,24912
32043,40278,24832
31976,40219,24749
31910,40159,24665
31842,40100,24581
31773,40041,24497
31707,39983,24415
31642,39924,24336
31578,39864,24257
31513,39804,24178
31448,39745,24098
31381,39688,24016
31317,39635,23938
31257,39589,23866
31198,39546,23800
31141,39503,23737
31088,39460,23676
31039,39419,23620
30990,39380,23564
30941,39341,23507
30895,39305,23448
30853,39271,23393
30811,39236,23341
30766,39194,23285
30715,39148,23224
30661,39101,23158
30604,39054,23091
30543,39001,23022
30479,38946,22949
30416,38891,22873
30356,38837,22795
30296,38782,22721
30239,38729,22654
30192,38682,22597
30160,38649,22558
30148,38637,22545
30164,38655,22567
30215,38708,22635
30312,38804,22763
30466,38954,22962
30684,39161,23239
30958,39420,23590
31281,39720,24000
31642,40052,24449
32025,40399,24920
32412,40747,25398
32794,41087,25868
33162,41411,26317
33506,41713,26737
33819,41991,27120
34097,42240,27461
34339,42457,27757
34543,42640,28008
34714,42791,28220
34856,42914,28395
34973,43013,28537
35063,43086,28645
35126,43134,28722
35167,43164,28774
35190,43181,28806
35198,43184,28817
35193,43172,28809
35177,43147,28787
35152,43116,28754
35120,43082,28714
35082,43045,28666
35040,43005,28607
34995,42962,28540
34951,42920,28475
34906,42882,28414
34862,42844,28354
34819,42803,28294
34781,42762,28238
34744,42722,28188
34707,42681,28139
34670,42640,28090
34632,42601,28040
34592,42562,27987
34544,42520,27928
34492,42473,27863
34436,42422,27790
34376,42365,27708
34312,42303,27616
34244,42236,27520
34172,42165,27422
34097,42091,27324
34020,42021,27230
33945,41958,27143
33876,41902,27063
33816,41854,26990
33765,41813,26929
33725,41781,26879
33693,41755,26841
33671,41736,26815
33658,41727,26805
33658,41728,26809
33666,41736,26823
33680,41749,26843
33699,41767,26867
33722,41789,26896
33747,41814,26929
33773,41842,26964
33803,41870,27002
33836,41899,27042
33869,41926,27080
33898,41947,27110
33919,41961,27132
33935,41970,27147
33945,41976,27154
33944,41973,27149
33932,41959,27133
33914,41938,27110
33889,41913,27077
33853,41881,27033
33809,41841,26978
33760,41802,26918
33710,41763,26853
33659,41720,26786
33604,41671,26716
33548,41621,26645
33489,41570,26576
33429,41516,26503
33368,41460,26425
33303,41402,26344
33236,41342,26260
33166,41280,26172
33094,41214,26083
33022,41147,25995
32949,41082,25909
32872,41018,25822
32792,40952,25734
32712,40885,25644
32638,40817,25555
32570,40750,25468
32506,40685,25382
32443,40623,25298
32379,40565,25216
32314,40508,25136
32251,40452,25057
32189,40397,24977
32130,40345,24900
32073,40297,24827
32016,40250,24757
31958,40205,24687
31903,40164,24620
31852,40127,24557
31805,40091,24497
31761,40058,24441
31720,40028,24392
31680,39999,24345
31641,39968,24299
31603,39935,24251
31566,39899,24200
31529,39862,24148
31489,39823,24093
31447,39782,24035
31400,39739,23975
31354,39697,23918
31309,39652,23861
31265,39605,23802
31222,39559,23746
31182,39520,23696
31144,39487,23650
31106,39456,23607
31066,39424,23565
31027,39394,23524
30990,39366,23481
30953,39337,23435
30916,39307,23386
30881,39278,23334
30844,39247,23280
30800,39210,23223
30752,39168,23164
30703,39124,23102
30652,39077,23037
30598,39027,22970
30544,38977,22906
30491,38931,22847
30442,38892,22797
30403,38864,22762
30388,38857,22751
30406,38881,22781
30464,38943,22864
30572,39049,23009
30742,39210,23228
30977,39429,23530
31270,39700,23904
31612,40013,24334
31991,40357,24805
32390,40718,25298
32795,41082,25796
33192,41436,26280
33571,41772,26739
33923,42084,27168
34246,42366,27563
34536,42617,27917
34791,42839,28229
35012,43034,28502
35198,43201,28739
35353,43339,28937
35478,43451,29098
35578,43539,29228
35655,43606,29329
35707,43653,29405
35738,43681,29456
35754,43695,29483
35760,43695,29493
35754,43683,29489
35738,43661,29471
35714,43634,29443
35686,43607,29411
35655,43577,29378
35624,43548,29341
35592,43520,29298
35561,43493,29251
35537,43464,29202
35518,43435,29157
35498,43406,29119
35481,43382,29085
35467,43362,29056
35455,43345,29033
35441,43330,29012
35421,43313,28988
35397,43293,28959
35370,43270,28927
35338,43243,28888
35299,43209,28839
35252,43171,28781
35201,43130,28720
35148,43082,28655
35090,43024,28582
35028,42962,28504
34965,42901,28426
34899,42845,28352
34833,42794,28280
34773,42745,28211
34724,42703,28147
34686,42666,28094
34657,42636,28052
34637,42611,28018
34625,42597,27996
34621,42592,27985
34624,42596,27986
34630,42607,27996
34642,42623,28012
34660,42647,28036
34685,42674,28062
34712,42701,28086
34741,42725,28111
34770,42746,28139
34795,42764,28166
34814,42778,28187
34827,42787,28199
34833,42790,28204
34830,42785,28199
34818,42773,28185
34796,42756,28163
34766,42731,28136
34729,42700,28101
34688,42664,28058
34641,42620,28007
34589,42573,27948
34532,42522,27886
34470,42468,27818
34407,42412,27747
34344,42355,27674
34281,42299,27599
34217,42244,27521
34150,42187,27440
34081,42128,27355
34014,42068,27268
33946,42006,27179
33875,41942,27087
33804,41878,26993
33732,41815,26899
33659,41750,26806
33586,41682,26713
33516,41615,26623
33449,41551,26536
33381,41490,26451
33313,41429,26370
33249,41369,26293
33190,41312,26218
33133,41256,26146
33077,41201,26076
33019,41149,26006
32962,41101,25937
32906,41053,25870
32852,41004,25803
32796,40954,25733
32737,40906,25663
32677,40859,25593
32618,40810,25523
32558,40758,25449
32498,40704,25371
32437,40649,25293
32375,40592,25215
32312,40535,25136
32250,40481,25059
32192,40429,24987
32136,40381,24922
32081,40335,24862
32028,40290,24805
31980,40248,24751
31934,40209,24700
31891,40171,24648
31851,40136,24595
31814,40104,24544
31777,40072,24494
31738,40040,24444
31697,40005,24392
31657,39967,24339
31615,39925,24283
31570,39881,24226
31524,39837,24170
31478,39796,24116
31433,39755,24063
31390,39714,24011
31349,39677,23959
31308,39641,23905
31263,39603,23846
31216,39562,23784
31172,39523,23725
31130,39484,23665
31085,39442,23602
31034,39398,23538
30981,39353,23474
30928,39304,23404
30870,39252,23331
30808,39197,23257
30744,39141,23182
30678,39088,23107
30613,39036,23033
30551,38986,22963
30497,38941,22904
30459,38911,22863
30449,38907,22855
30480,38939,22896
30561,39014,23003
30701,39141,23188
30906,39329,23456
31175,39578,23806
31502,39880,24223
31874,40221,24688
32272,40587,25183
32682,40963,25690
33088,41330,26188
33476,41677,26665
33841,42000,27114
34174,42299,27527
34472,42566,27897
34732,42797,28220
34955,42993,28499
35148,43158,28739
35312,43293,28941
35443,43401,29101
35544,43484,29222
35618,43545,29312
35669,43583,29374
35696,43598,29410
35705,43596,29424
35701,43584,29423
35688,43566,29409
35665,43541,29381
35634,43510,29344
35598,43479,29302
35560,43447,29256
35521,43415,29208
35482,43383,29163
35446,43352,29120
35416,43322,29079
35393,43295,29039
35375,43273,29002
35360,43253,28969
35343,43232,28937
35326,43214,28906
35309,43198,28879
35289,43183,28853
35263,43165,28821
35230,43138,28780
35189,43101,28732
35142,43055,28675
35089,43001,28608
35023,42938,28528
34947,42867,28434
34865,42789,28332
34778,42707,28228
34690,42623,28122
34604,42541,28016
34523,42466,27915
34453,42402,27824
34392,42349,27744
34339,42306,27675
34296,42272,27618
34268,42250,27577
34255,42239,27553
34253,42237,27546
34260,42243,27553
34275,42256,27572
34298,42275,27601
34323,42299,27638
34346,42324,27679
34369,42349,27721
34393,42373,27762
34418,42395,27800
34443,42415,27832
34466,42432,27858
34483,42445,27875
34492,42453,27882
34492,42457,27882
34485,42456,27873
34471,42447,27854
34454,42430,27825
34430,42405,27787
34399,42374,27738
34360,42338,27681
34316,42298,27618
34266,42255,27554
34210,42207,27489
34151,42155,27419
34088,42098,27344
34024,42039,27268
33956,41978,27190
33883,41912,27107
33808,41843,27017
33730,41773,26923
33650,41702,26828
33569,41630,26730
33486,41558,26628
33403,41485,26523
33317,41410,26418
33231,41337,26316
33150,41265,26216
33077,41195,26122
33009,41129,26033
32943,41065,25947
32876,41003,25864
32810,40947,25789
32748,40898,25720
32686,40852,25653
32626,40806,25587
32571,40761,25521
32516,40717,25454
32461,40671,25385
32406,40622,25315
32351,40570,25244
32298,40516,25170
32245,40460,25095
32191,40403,25019
32133,40344,24943
32072,40287,24868
32013,40235,24795
31955,40186,24727
31899,40137,24660
31844,40088,24594
31792,40040,24529
31740,39992,24466
31689,39947,24405
31640,39906,24346
31590,39864,24286
31537,39821,24222
31482,39777,24156
31425,39730,24090
31369,39680,24027
31314,39631,23966
31261,39583,23902
31209,39536,23837
31157,39492,23774
31103,39446,23711
31046,39397,23645
30986,39346,23575
30929,39292,23501
30873,39237,23427
30818,39183,23353
30760,39130,23278
30699,39077,23200
30638,39025,23123
30578,38975,23049
30519,38928,22979
30463,38887,22915
30413,38855,22858
30373,38826,22810
30345,38804,22775
30334,38796,22762
30351,38814,22787
30413,38872,22870
30527,38978,23019
30698,39136,23241
30929,39349,23538
31219,39615,23908
31558,39926,24337
31933,40266,24808
32330,40623,25302
32734,40985,25800
33129,41339,26284
33503,41676,26742
33848,41985,27165
34159,42264,27543
34434,42510,27876
34671,42721,28164
34870,42898,28409
35034,43040,28613
35170,43152,28779
35279,43241,28912
35360,43308,29011
35415,43354,29080
35450,43381,29122
35466,43390,29144
35464,43385,29148
35446,43366,29132
35414,43337,29101
35375,43302,29062
35330,43260,29013
35279,43211,28954
35225,43156,28886
35171,43104,28814
35119,43055,28745
35067,43006,28675
35016,42956,28607
34967,42908,28545
34920,42863,28488
34870,42817,28429
34820,42770,28367
34773,42724,28304
34725,42679,28242
34672,42632,28177
34613,42577,28106
34551,42517,28026
34487,42453,27937
34419,42386,27838
34342,42314,27731
34260,42237,27619
34177,42158,27506
34090,42079,27393
34005,42006,27283
33926,41937,27180
33856,41873,27086
33795,41817,27007
33745,41773,26942
33707,41739,26890
33681,41717,26853
33668,41708,26835
33666,41713,26835
33677,41731,26851
33700,41759,26878
33734,41796,26917
33776,41839,26969
33822,41883,27027
33869,41925,27085
33916,41965,27141
33959,42001,27194
33992,42030,27240
34015,42054,27279
34030,42072,27310
34037,42080,27331
34035,42078,27342
34027,42068,27340
34015,42052,27325
33999,42032,27300
33975,42008,27268
33946,41982,27229
33914,41955,27182
33875,41924,27128
33830,41886,27070
33781,41842,27006
33728,41792,26935
33669,41734,26860
33607,41672,26783
33541,41608,26702
33468,41542,26615
33389,41473,26525
33306,41404,26435
33222,41335,26342
33139,41264,26246
33058,41191,26149
32977,41114,26048
32896,41037,25947
32815,40960,25844
32733,40884,25744
32654,40811,25645
32578,40741,25546
32504,40670,25449
32432,40600,25357
32362,40533,25269
32292,40469,25183
32224,40408,25100
32159,40350,25019
32096,40295,24941
32038,40245,24868
31984,40200,24799
31932,40154,24731
31881,40107,24659
31831,40059,24587
31780,40014,24516
31726,39966,24446
31668,39915,24374
31608,39863,24300
31545,39812,24227
31482,39761,24155
31419,39710,24083
31361,39660,24013
31308,39614,23949
31258,39573,23887
31208,39532,23826
31154,39489,23764
31098,39445,23704
31043,39399,23645
30989,39354,23585
30936,39311,23526
30885,39269,23468
30837,39229,23411
30791,39191,23355
30748,39152,23300
30708,39117,23248
30675,39086,23200
30649,39060,23156
30626,39037,23116
30602,39013,23077
30577,38989,23041
30546,38962,23002
30511,38932,22961
30472,38900,22918
30433,38868,22875
30395,38837,22832
30358,38806,22788
30320,38772,22741
30280,38736,22688
30239,38697,22631
30193,38653,22570
30139,38604,22504
30078,38553,22434
30013,38501,22359
29945,38449,22279
29875,38394,22195
29803,38335,22109
29732,38277,22024
29666,38223,21948
29611,38179,21888
29578,38151,21858
29582,38154,21873
29641,38206,21953
29764,38317,22115
29964,38500,22370
30241,38756,22718
30590,39076,23154
30999,39449,23662
31450,39859,24217
31920,40285,24792
32390,40710,25369
32848,41121,25932
33283,41507,26467
33683,41862,26956
34043,42182,27397
34363,42470,27789
34641,42721,28129
34878,42934,28418
35076,43108,28657
35237,43246,28852
35363,43351,29006
35458,43429,29125
35527,43482,29214
35576,43512,29276
35605,43525,29313
35616,43527,29330
35614,43518,29330
35601,43504,29318
35578,43483,29296
35545,43455,29266
35509,43423,29226
35472,43388,29179
35436,43354,29130
35399,43321,29081
35364,43288,29034
35331,43257,28988
35300,43229,28945
35269,43198,28902
35239,43163,28857
35208,43128,28813
35176,43095,28770
35142,43060,28727
35109,43023,28680
35076,42984,28630
35037,42943,28577
34990,42896,28515
34935,42843,28445
34874,42782,28370
34808,42714,28289
34735,42642,28203
34658,42568,28111
34577,42494,28017
34494,42420,27922
34409,42346,27825
34325,42276,27731
34248,42215,27644
34182,42165,27568
34126,42124,27502
34080,42090,27445
34045,42064,27399
34025,42045,27367
34015,42036,27348
34014,42034,27340
34020,42037,27342
34031,42046,27354
34046,42058,27372
34065,42076,27395
34089,42099,27423
34115,42124,27454
34141,42151,27484
34166,42175,27512
34187,42194,27538
34200,42206,27557
34209,42212,27568
34212,42213,27571
34208,42206,27565
34197,42191,27551
34178,42171,27531
34154,42147,27504
34123,42117,27466
34081,42077,27413
34029,42030,27343
33972,41980,27265
33911,41927,27181
33845,41867,27093
33773,41800,27002
33696,41731,26910
33616,41659,26818
33535,41586,26723
33452,41511,26625
33368,41436,26525
33285,41362,26427
33203,41290,26330
33120,41219,26230
33038,41151,26131
32960,41086,26034
32884,41022,25939
32808,40957,25845
32736,40895,25753
32669,40838,25668
32603,40781,25585
32534,40720,25502
32463,40656,25418
32394,40592,25333
32327,40527,25248
32259,40462,25164
32191,40397,25080
32125,40335,24998
32059,40276,24916
31995,40218,24836
31932,40159,24754
31869,40101,24670
31807,40046,24587
31745,39994,24506
31678,39943,24426
31606,39889,24344
31533,39832,24262
31459,39773,24177
31384,39708,24089
31310,39639,23999
31240,39570,23909
31172,39502,23821
31104,39434,23734
31033,39365,23646
30962,39296,23558
30891,39231,23474
30823,39171,23395
30759,39114,23318
30697,39060,23242
30643,39012,23175
30597,38971,23116
30555,38934,23061
30513,38896,23007
30471,38859,22954
30430,38824,22902
30389,38787,22849
30345,38747,22791
30294,38703,22728
30238,38654,22660
30177,38601,22588
30113,38545,22515
30046,38487,22442
29981,38430,22366
29917,38374,22286
29855,38319,22206
29794,38266,22127
29733,38217,22051
29674,38170,21977
29619,38125,21905
29566,38080,21834
29515,38035,21765
29464,37990,21698
29408,37943,21629
29349,37894,21555
29285,37842,21480
29218,37787,21402
29150,37731,21322
29085,37676,21242
29025,37624,21168
28975,37581,21107
28941,37552,21066
28935,37550,21060
28972,37589,21108
29065,37681,21227
29225,37834,21431
29462,38053,21732
29778,38340,22132
30167,38690,22621
30616,39096,23180
31105,39536,23785
31607,39987,24406
32101,40429,25018
32573,40852,25603
33011,41243,26146
33406,41597,26638
33753,41908,27075
34054,42174,27455
34311,42400,27778
34527,42585,28045
34705,42736,28260
34848,42855,28428
34961,42945,28556
35044,43009,28647
35098,43051,28708
35132,43074,28746
35147,43081,28764
35143,43075,28762
35123,43057,28743
35092,43031,28711
35054,42997,28671
35011,42958,28627
34963,42917,28578
34914,42873,28524
34863,42824,28466
34808,42772,28404
34752,42719,28337
34694,42667,28269
34636,42617,28200
34576,42567,28131
34516,42516,28058
34457,42466,27983
34399,42416,27907
34344,42363,27831
34289,42309,27754
34231,42255,27678
34170,42200,27600
34104,42137,27519
34034,42068,27431
33961,41996,27335
33884,41921,27232
33801,41844,27122
33715,41764,27008
33626,41682,26893
33539,41603,26784
33456,41530,26686
33379,41464,26594
33311,41403,26509
33254,41351,26432
33206,41310,26367
33167,41277,26317
33136,41252,26282
33119,41242,26264
33116,41245,26261
33125,41257,26273
33143,41274,26299
33170,41298,26335
33204,41327,26377
33244,41361,26423
33287,41400,26472
33329,41440,26520
33369,41476,26566
33403,41508,26611
33430,41535,26651
33450,41557,26680
33463,41571,26699
33470,41578,26707
33466,41577,26705
33449,41564,26687
33421,41537,26654
33384,41499,26610
33337,41453,26554
33278,41400,26484
33208,41337,26402
33130,41266,26311
33047,41187,26212
32961,41103,26105
32871,41017,25991
32780,40930,25871
32683,40841,25747
32582,40748,25621
32476,40652,25491
32368,40551,25357
32259,40450,25221
32149,40349,25087
32041,40252,24957
31938,40158,24830
31842,40070,24708
31752,39987,24594
31667,39912,24489
31588,39841,24392
31513,39777,24301
31444,39717,24215
31379,39662,24132
31317,39607,24049
31259,39553,23969
31204,39501,23892
31148,39451,23814
31091,39399,23737
31033,39349,23664
30973,39301,23595
30912,39253,23528
30847,39205,23458
30780,39156,23386
30711,39102,23314
30640,39042,23240
30567,38980,23160
30495,38917,23072
30423,38855,22983
30356,38794,22898
30291,38734,22816
30229,38674,22737
30172,38618,22664
30119,38568,22596
30067,38521,22532
30017,38477,22470
29972,38436,22412
29932,38399,22357
29893,38365,22303
29855,38336,22252
29821,38311,22205
29786,38286,22162
29749,38258,22117
29712,38229,22072
29679,38204,22031
29650,38179,21993
29617,38149,21953
29578,38115,21906
29535,38077,21853
29489,38035,21796
29430,37987,21732
29360,37928,21658
29282,37860,21573
29200,37790,21481
29115,37718,21386
29026,37644,21289
28934,37570,21188
28842,37496,21083
28751,37422,20977
28665,37347,20873
28592,37279,20780
28539,37226,20708
28510,37200,20672
28520,37209,20687
28580,37265,20767
28703,37379,20928
28902,37564,21185
29183,37821,21542
29540,38148,21993
29959,38531,22523
30428,38954,23109
30925,39399,23721
31425,39847,24333
31910,40282,24924
32365,40690,25480
32779,41059,25986
33145,41383,26433
33465,41661,26822
33736,41895,27155
33959,42086,27433
34137,42239,27657
34278,42360,27831
34383,42454,27963
34457,42521,28054
34504,42562,28110
34529,42580,28138
34535,42582,28145
34523,42570,28133
34495,42544,28102
34453,42506,28056
34401,42459,27995
34344,42407,27925
34288,42352,27850
34230,42291,27770
34168,42228,27687
34103,42165,27601
34037,42102,27515
33973,42039,27432
33913,41979,27352
33856,41924,27272
33800,41875,27192
33744,41828,27113
33688,41781,27036
33629,41733,26959
33570,41682,26879
33511,41629,26796
33447,41572,26710
33374,41507,26616
33292,41431,26511
33201,41347,26393
33104,41255,26268
33000,41159,26138
32892,41060,26006
32788,40964,25876
32691,40875,25753
32604,40791,25640
32525,40715,25536
32457,40650,25446
32399,40597,25372
32352,40555,25316
32318,40525,25280
32299,40510,25263
32297,40511,25269
32311,40528,25294
32338,40556,25333
32376,40591,25381
32423,40632,25439
32477,40681,25506
32534,40735,25575
32593,40792,25644
32650,40847,25710
32702,40898,25772
32748,40940,25827
32786,40973,25874
32817,40998,25910
32841,41016,25935
32857,41026,25945
32863,41026,25944
32861,41017,25933
32851,41002,25913
32833,40981,25883
32807,40954,25844
32776,40920,25797
32737,40880,25741
32686,40832,25674
32625,40778,25598
32555,40719,25518
32479,40657,25433
32399,40590,25341
32315,40517,25242
32232,40440,25140
32151,40362,25035
32067,40281,24926
31980,40200,24815
31893,40119,24702
31807,40037,24589
31720,39956,24473
31633,39879,24356
31548,39807,24244
31467,39738,24138
31387,39667,24039
31309,39594,23943
31232,39523,23847
31159,39456,23755
31092,39397,23668
31029,39343,23587
30968,39294,23510
30910,39250,23438
30856,39209,23371
30802,39166,23305
30746,39119,23240
30689,39071,23176
30634,39024,23115
30577,38975,23055
30517,38922,22989
30456,38865,22915
30392,38805,22837
30325,38745,22756
30257,38684,22672
30189,38622,22588
30120,38561,22504
30051,38501,22422
29983,38444,22342
29915,38389,22264
29850,38337,22192
29789,38289,22125
29733,38246,22060
29681,38204,21996
29634,38165,21934
29590,38128,21874
29547,38090,21817
29503,38051,21765
29458,38012,21712
29413,37974,21658
29370,37936,21603
29328,37900,21548
29283,37862,21492
29235,37821,21434
29187,37780,21376
29139,37740,21316
29089,37699,21254
29040,37658,21189
28993,37617,21125
28942,37574,21061
28886,37527,20992
28824,37475,20918
28759,37422,20843
28693,37367,20769
28627,37309,20694
28562,37253,20617
28499,37200,20544
28441,37153,20477
28388,37113,20417
28347,37082,20367
28327,37069,20342
28341,37087,20361
28404,37148,20446
28532,37267,20614
28741,37459,20881
29040,37732,21256
29422,38081,21736
29872,38491,22302
30373,38946,22927
30899,39423,23582
31427,39901,24235
31940,40361,24864
32422,40793,25453
32864,41186,25992
33258,41533,26472
33602,41835,26893
33899,42093,27256
34150,42311,27560
34357,42491,27810
34521,42634,28010
34650,42743,28164
34750,42824,28279
34825,42880,28364
34877,42913,28421
34905,42928,28452
34916,42929,28464
34914,42919,28460
34896,42896,28439
34867,42862,28404
34831,42820,28361
34788,42772,28312
34738,42720,28254
34685,42666,28189
34632,42613,28123
34579,42563,28060
34527,42518,27997
34476,42475,27936
34431,42437,27879
34391,42403,27828
34351,42369,27777
34310,42335,27723
34271,42301,27669
34232,42266,27613
34189,42223,27553
34137,42173,27489
34080,42120,27420
34019,42064,27344
33951,42006,27260
33878,41943,27167
33802,41876,27068
33725,41804,26962
33646,41730,26856
33565,41657,26753
33486,41585,26656
33411,41517,26567
33341,41456,26487
33278,41402,26421
33226,41359,26371
33190,41325,26336
33168,41302,26312
33158,41293,26299
33162,41299,26300
33175,41315,26310
33197,41335,26329
33228,41358,26355
33268,41387,26390
33313,41423,26431
33357,41460,26475
33395,41495,26520
33430,41525,26562
33461,41551,26598
33486,41573,26625
33502,41589,26642
33506,41597,26648
33501,41593,26645
33489,41579,26633
33472,41560,26613
33449,41535,26586
33420,41504,26549
33385,41468,26504
33345,41430,26451
33301,41388,26392
33248,41340,26321
33188,41285,26241
33123,41225,26154
33053,41162,26066
32979,41099,25976
32901,41037,25882
32819,40970,25784
32733,40899,25685
32646,40826,25585
32561,40752,25486
32477,40676,25389
32394,40597,25293
32310,40518,25194
32227,40440,25091
32144,40362,24987
32060,40282,24883
31974,40204,24775
31885,40128,24666
31793,40055,24556
31699,39983,24445
31606,39910,24335
31518,39838,24229
31434,39762,24122
31348,39685,24011
31261,39605,23895
31175,39522,23782
31086,39438,23672
30994,39352,23563
30901,39266,23454
30810,39180,23344
30720,39094,23231
30631,39010,23117
30544,38928,23009
30458,38849,22904
30371,38774,22801
30285,38702,22701
30204,38631,22606
30129,38564,22517
30059,38501,22430
29993,38442,22347
29932,38385,22265
29876,38331,22190
29821,38282,22119
29765,38236,22048
29709,38192,21977
29653,38151,21908
29597,38109,21841
29540,38067,21773
29483,38025,21706
29429,37981,21641
29377,37934,21576
29325,37885,21510
29271,37837,21442
29217,37790,21375
29166,37742,21312
29115,37694,21249
29064,37647,21186
29014,37600,21123
28965,37555,21060
28913,37509,20996
28861,37459,20930
28807,37406,20862
28750,37350,20791
28688,37292,20718
28621,37227,20638
28550,37156,20551
28474,37084,20457
28395,37014,20360
28315,36943,20262
28235,36873,20161
28157,36807,20061
28081,36743,19968
28013,36688,19886
27960,36647,19827
27935,36633,19808
27954,36658,19846
28032,36738,19958
28186,36886,20161
28430,37113,20472
28770,37426,20899
29199,37818,21432
29702,38273,22052
30252,38771,22731
30823,39288,23435
31391,39800,24130
31932,40285,24790
32431,40729,25400
32877,41124,25947
33264,41467,26428
33594,41756,26840
33870,41993,27183
34096,42184,27463
34274,42333,27683
34410,42445,27850
34509,42524,27970
34573,42572,28051
34609,42596,28101
34622,42601,28124
34618,42593,28123
34604,42576,28105
34579,42549,28071
34545,42516,28020
34506,42478,27958
34463,42437,27892
34415,42388,27819
34358,42333,27739
34295,42275,27656
34229,42214,27573
34160,42149,27488
34088,42083,27401
34019,42023,27317
33951,41966,27237
33886,41909,27159
33826,41856,27081
33769,41805,27002
33709,41752,26922
33645,41693,26841
33579,41631,26761
33510,41565,26678
33437,41494,26586
33359,41417,26486
33278,41334,26379
33191,41248,26266
33100,41159,26148
33003,41066,26027
32903,40972,25906
32802,40881,25789
32703,40797,25677
32612,40721,25574
32530,40653,25480
32464,40593,25399
32414,40544,25334
32380,40511,25287
32362,40495,25261
32357,40493,25253
32365,40504,25260
32383,40525,25281
32409,40552,25316
32442,40587,25363
32483,40630,25416
32528,40675,25471
32577,40720,25526
32625,40764,25580
32667,40804,25630
32703,40834,25672
32731,40854,25703
32746,40864,25722
32750,40865,25729
32744,40857,25723
32727,40838,25703
32703,40809,25672
32673,40772,25630
32635,40728,25579
