green_channel,red_channel,ir_channel
14381,5159,46645
14280,5107,46503
14187,5061,46371
14107,5022,46252
14040,4989,46148
13987,4961,46064
13944,4940,45995
13910,4924,45937
13884,4913,45888
13866,4905,45849
13855,4900,45818
13846,4897,45789
13834,4893,45759
13818,4884,45722
13798,4871,45681
13772,4856,45637
13741,4840,45588
13708,4823,45531
13673,4803,45464
13632,4779,45389
13577,4749,45303
13510,4712,45208
13432,4672,45111
13347,4629,45012
13259,4586,44911
13174,4543,44815
13102,4506,44727
13045,4478,44649
12999,4458,44579
12959,4444,44516
12926,4432,44460
12896,4419,44405
12862,4403,44347
12826,4385,44285
12784,4365,44221
12737,4343,44154
12687,4318,44082
12632,4292,44005
12572,4263,43922
12505,4229,43829
12431,4194,43727
12357,4158,43620
12286,4125,43516
12220,4095,43415
12155,4067,43318
12094,4038,43229
12044,4013,43159
12015,4000,43121
12015,4005,43134
12055,4029,43210
12145,4077,43361
12287,4152,43593
12487,4252,43909
12742,4377,44308
13052,4531,44784
13413,4712,45330
13816,4917,45935
14245,5140,46582
14685,5372,47253
15124,5605,47928
15554,5834,48590
15971,6054,49227
16365,6260,49824
16724,6445,50370
17043,6610,50854
17322,6754,51272
17558,6875,51621
17753,6975,51903
17910,7055,52123
18036,7120,52288
18135,7171,52407
18209,7209,52485
18260,7233,52528
18288,7244,52541
18290,7242,52529
18268,7229,52494
18231,7207,52439
18185,7180,52370
18139,7150,52295
18101,7123,52220
18077,7103,52154
18063,7088,52094
18056,7075,52038
18053,7063,51984
18054,7052,51932
18053,7043,51882
18046,7032,51831
18034,7019,51774
18018,7004,51711
17994,6984,51641
17956,6957,51557
17902,6923,51457
17836,6882,51341
17764,6837,51216
17690,6791,51087
17618,6742,50956
17554,6693,50829
17500,6649,50716
17456,6612,50621
17421,6583,50543
17394,6561,50481
17375,6544,50438
17362,6533,50414
17355,6526,50405
17346,6520,50406
17337,6516,50413
17334,6515,50430
17338,6518,50453
17347,6524,50477
17362,6532,50502
17384,6541,50526
17412,6552,50550
17441,6564,50568
17467,6576,50578
17490,6583,50577
17509,6587,50568
17520,6587,50553
17522,6582,50531
17514,6570,50496
17499,6551,50449
17477,6527,50392
17445,6500,50326
17400,6465,50248
17344,6423,50156
17278,6378,50048
17202,6331,49923
17115,6281,49786
17017,6226,49637
16908,6166,49476
16792,6102,49307
16673,6037,49133
16552,5970,48956
16434,5905,48781
16322,5842,48611
16221,5783,48454
16135,5730,48317
16063,5686,48198
15999,5645,48088
15943,5608,47983
15894,5576,47888
15849,5548,47803
15808,5522,47724
15769,5496,47650
15728,5468,47580
15681,5438,47509
15628,5404,47431
15574,5368,47347
15518,5331,47259
15454,5290,47165
15381,5246,47063
15301,5202,46957
15218,5160,46852
15138,5119,46746
15062,5079,46639
14991,5039,46536
14925,5001,46439
14866,4965,46347
14815,4933,46260
14775,4908,46182
14743,4888,46116
14718,4871,46059
14702,4855,46010
14693,4841,45968
14684,4827,45930
14670,4814,45892
14649,4798,45850
14622,4779,45804
14593,4758,45752
14559,4735,45694
14519,4709,45627
14471,4681,45551
14419,4651,45468
14364,4620,45384
14311,4589,45302
14263,4560,45224
14219,4532,45150
14177,4503,45076
14135,4474,45000
14094,4447,44925
14055,4424,44852
14015,4400,44776
13970,4374,44692
13918,4345,44601
13861,4312,44506
13797,4277,44408
13730,4244,44311
13667,4213,44222
13619,4188,44149
13591,4173,44107
13594,4175,44116
13637,4200,44193
13727,4251,44345
13873,4329,44583
14081,4436,44912
14354,4572,45332
14684,4737,45837
15066,4929,46418
15491,5144,47058
15947,5376,47736
16415,5617,48431
16878,5856,49120
17325,6087,49781
17744,6303,50397
18127,6499,50957
18465,6673,51454
18760,6826,51883
19010,6955,52242
19212,7060,52533
19370,7141,52762
19494,7203,52939
19589,7248,53066
19658,7279,53150
19706,7299,53202
19736,7313,53228
19755,7320,53236
19764,7320,53227
19765,7312,53202
19761,7302,53169
19754,7289,53131
19738,7271,53086
19713,7247,53029
19680,7220,52963
19638,7189,52889
19585,7152,52802
19519,7108,52696
19443,7058,52575
19353,7002,52439
19249,6941,52284
19132,6872,52110
19009,6800,51920
18882,6725,51720
18754,6650,51517
18628,6577,51316
18509,6506,51124
18398,6438,50940
18296,6376,50770
18206,6321,50619
18132,6275,50494
18079,6242,50396
18049,6221,50328
18036,6210,50287
18037,6208,50269
18049,6213,50270
18068,6221,50283
18088,6230,50299
18106,6238,50316
18116,6240,50330
18117,6236,50337
18109,6230,50338
18099,6220,50335
18090,6209,50327
18080,6197,50314
18065,6185,50297
18047,6171,50274
18027,6157,50247
18006,6142,50214
17983,6124,50175
17955,6104,50128
17922,6084,50069
17885,6061,49998
17841,6034,49913
17792,6003,49819
17740,5971,49722
17688,5940,49626
17636,5908,49532
17581,5877,49438
17520,5843,49341
17458,5805,49237
17397,5766,49132
17339,5729,49028
17276,5692,48920
17208,5655,48805
17138,5618,48690
17072,5582,48577
17009,5549,48469
16951,5518,48370
16899,5489,48280
16854,5462,48199
16810,5437,48125
16768,5412,48056
16730,5388,47989
16689,5361,47917
16640,5330,47840
16584,5295,47759
16520,5257,47672
16449,5216,47576
16373,5175,47475
16292,5133,47369
16209,5092,47262
16124,5051,47152
16036,5009,47037
15950,4968,46923
15873,4932,46814
15806,4901,46714
15743,4873,46624
15688,4847,46545
15641,4823,46477
15602,4804,46420
15572,4789,46373
15548,4777,46333
15533,4765,46302
15524,4753,46274
15521,4743,46247
15520,4735,46222
15517,4729,46198
15510,4723,46169
15495,4715,46134
15469,4706,46091
15434,4692,46040
15386,4673,45979
15328,4646,45907
15268,4616,45829
15205,4585,45745
15137,4551,45652
15062,4515,45551
14984,4476,45441
14903,4437,45327
14825,4398,45211
14750,4361,45099
14677,4325,44989
14602,4288,44882
14526,4250,44775
14450,4211,44666
14374,4174,44559
14298,4136,44456
14226,4101,44359
14166,4071,44273
14120,4046,44198
14083,4026,44136
14056,4011,44087
14042,4002,44057
14047,4005,44059
14078,4024,44106
14144,4060,44211
14253,4117,44384
14414,4200,44638
14632,4311,44982
14908,4451,45411
15234,4619,45919
15606,4812,46497
16013,5026,47126
16446,5253,47783
16888,5487,48449
17325,5718,49106
17747,5939,49733
18144,6146,50318
18507,6337,50854
18832,6510,51333
19116,6662,51748
19358,6793,52097
19558,6901,52382
19717,6986,52605
19839,7049,52772
19930,7093,52893
19993,7121,52974
20032,7138,53023
20053,7145,53043
20057,7145,53035
20050,7137,53006
20034,7122,52961
20010,7101,52904
19976,7076,52841
19934,7050,52776
19887,7022,52709
19834,6994,52637
19781,6967,52560
19730,6940,52478
19679,6912,52389
19626,6880,52291
19570,6846,52184
19510,6808,52071
19448,6768,51952
19388,6728,51829
19328,6687,51699
19260,6642,51560
19181,6594,51411
19093,6544,51257
19004,6494,51111
18917,6447,50973
18832,6403,50844
18750,6362,50729
18679,6326,50630
18622,6298,50549
18579,6277,50489
18550,6263,50449
18533,6255,50427
18525,6255,50420
18526,6260,50428
18537,6270,50449
18551,6281,50477
18566,6291,50505
18580,6299,50530
18596,6306,50550
18613,6313,50572
18628,6318,50591
18636,6320,50602
18639,6316,50605
18639,6310,50600
18638,6305,50588
18634,6299,50571
18625,6291,50545
18613,6282,50510
18597,6271,50467
18575,6260,50415
18545,6248,50354
18504,6231,50282
18454,6207,50198
18394,6176,50103
18326,6140,49999
18251,6102,49887
18168,6060,49767
18074,6011,49637
17969,5955,49498
17857,5897,49352
17740,5836,49198
17617,5774,49038
17488,5712,48878
17361,5651,48720
17239,5591,48567
17130,5535,48422
17036,5485,48290
16958,5443,48173
16892,5406,48068
16836,5373,47974
16790,5345,47892
16748,5321,47817
16710,5301,47746
16676,5284,47681
16645,5267,47625
16611,5250,47576
16575,5234,47529
16544,5220,47483
16519,5208,47441
16498,5196,47399
16476,5183,47352
16453,5170,47301
16430,5156,47251
16406,5141,47204
16378,5125,47157
16344,5108,47105
16308,5089,47045
16272,5070,46984
16237,5054,46926
16203,5038,46869
16170,5022,46811
16138,5005,46753
16110,4988,46698
16086,4971,46646
16063,4954,46596
16037,4937,46546
16011,4922,46497
15989,4907,46453
15970,4892,46414
15952,4880,46377
15939,4873,46342
15933,4872,46316
15934,4876,46296
15935,4879,46275
15933,4880,46249
15932,4880,46219
15933,4879,46187
15931,4875,46148
15920,4866,46102
15900,4853,46047
15869,4834,45980
15824,4809,45897
15767,4778,45802
15704,4744,45698
15638,4709,45588
15572,4675,45475
15509,4644,45363
15449,4615,45258
15388,4585,45163
15329,4553,45077
15275,4526,45000
15230,4505,44943
15198,4492,44914
15186,4487,44923
15203,4498,44982
15261,4532,45108
15367,4593,45315
15529,4686,45605
15749,4809,45976
16024,4957,46420
16343,5128,46927
16695,5318,47485
17074,5523,48079
17469,5735,48692
17868,5944,49303
18254,6146,49894
18614,6337,50449
18940,6512,50956
19230,6666,51407
19486,6798,51798
19709,6915,52135
19900,7018,52418
20060,7104,52648
20195,7174,52833
20308,7230,52978
20398,7277,53087
20468,7313,53161
20519,7340,53205
20553,7359,53225
20574,7371,53227
20581,7375,53215
20576,7371,53189
20559,7359,53145
20526,7334,53080
20476,7299,52994
20408,7254,52887
20318,7199,52757
20204,7133,52603
20068,7056,52425
19915,6969,52225
19749,6874,52006
19570,6773,51771
19390,6670,51529
19219,6573,51288
19065,6484,51060
18931,6407,50853
18818,6342,50673
18724,6291,50518
18653,6253,50389
18603,6226,50286
18569,6208,50209
18550,6196,50152
18539,6189,50110
18530,6186,50079
18525,6185,50059
18526,6187,50053
18532,6193,50059
18543,6200,50072
18559,6210,50089
18582,6221,50114
18613,6233,50145
18647,6245,50180
18681,6259,50216
18714,6271,50251
18750,6282,50288
18791,6296,50330
18840,6316,50377
18895,6340,50428
18950,6368,50483
19006,6396,50537
19058,6420,50583
19103,6440,50617
19143,6459,50639
19174,6474,50645
19190,6481,50631
19190,6478,50596
19171,6465,50541
19130,6441,50461
19069,6408,50361
18993,6365,50247
18908,6315,50122
18812,6260,49989
18708,6203,49849
18594,6141,49699
18473,6074,49540
18349,6007,49379
18233,5947,49227
18135,5897,49094
18059,5858,48984
18008,5832,48900
17983,5818,48843
17984,5814,48807
18002,5816,48787
18031,5824,48778
18066,5836,48776
18103,5849,48776
18133,5858,48774
18147,5860,48764
18143,5854,48741
18119,5839,48702
18079,5816,48647
18024,5789,48576
17959,5758,48492
17889,5723,48399
17815,5684,48299
17737,5642,48194
17661,5602,48089
17591,5563,47985
17527,5524,47885
17470,5485,47794
17426,5454,47719
17396,5433,47662
17379,5422,47622
17376,5419,47600
17385,5424,47594
17405,5435,47598
17432,5446,47606
17463,5460,47619
17498,5475,47634
17532,5489,47646
17561,5500,47653
17584,5507,47655
17601,5512,47651
17612,5515,47639
17616,5514,47621
17615,5510,47598
17612,5506,47575
17607,5502,47553
17602,5495,47528
17595,5489,47500
17588,5483,47471
17582,5478,47440
17576,5474,47406
17568,5470,47368
17557,5465,47328
17543,5458,47287
17523,5448,47242
17498,5435,47189
17468,5417,47129
17434,5396,47065
17397,5372,46996
17357,5347,46922
17319,5322,46846
17284,5298,46769
17252,5276,46696
17220,5259,46629
17186,5245,46567
17152,5233,46504
17117,5222,46439
17082,5211,46376
17052,5202,46325
17033,5196,46291
17029,5197,46285
17051,5212,46321
17106,5244,46414
17199,5295,46572
17336,5370,46805
17525,5473,47120
17763,5603,47515
18046,5758,47983
18364,5934,48510
18708,6125,49078
19067,6323,49672
19434,6526,50275
19799,6729,50875
20151,6927,51454
20482,7115,52000
20792,7292,52506
21082,7455,52970
21355,7606,53391
21607,7744,53766
21828,7865,54088
22015,7970,54358
22174,8059,54580
22310,8136,54758
22424,8200,54896
22512,8248,54995
22575,8282,55058
22613,8301,55087
22627,8309,55086
22621,8308,55058
22596,8293,55005
22549,8265,54928
22486,8227,54833
22413,8183,54730
22336,8138,54626
22256,8093,54520
22183,8050,54418
22124,8013,54327
22079,7980,54245
22041,7952,54166
22003,7925,54083
21959,7897,53992
21907,7864,53888
21841,7827,53767
21762,7787,53632
21674,7743,53490
21579,7696,53343
21479,7649,53195
21384,7604,53053
21298,7563,52925
21225,7525,52813
21165,7493,52722
21120,7468,52656
21093,7451,52620
21087,7445,52615
21103,7451,52637
21137,7469,52682
21185,7497,52745
21243,7532,52822
21308,7569,52907
21372,7606,52993
21427,7640,53073
21473,7669,53142
21512,7692,53201
21544,7711,53245
21563,7726,53271
21561,7732,53272
21535,7723,53247
21487,7702,53195
21414,7667,53116
21316,7618,53009
21194,7554,52879
21054,7479,52728
20901,7396,52563
20739,7308,52389
20572,7218,52209
20404,7128,52026
20236,7039,51841
20072,6953,51656
19914,6871,51473
19765,6795,51297
19624,6726,51130
19496,6663,50971
19382,6603,50820
19275,6546,50675
19171,6490,50533
19073,6436,50394
18980,6385,50260
18890,6339,50131
18803,6297,50006
18720,6256,49887
18643,6218,49775
18567,6180,49670
18491,6143,49565
18413,6104,49457
18336,6061,49348
18259,6016,49242
18179,5969,49134
18094,5923,49022
18004,5878,48907
17911,5834,48795
17821,5793,48689
17735,5755,48592
17653,5716,48503
17575,5680,48421
17507,5648,48342
17448,5620,48268
17395,5594,48199
17348,5570,48134
17304,5546,48069
17262,5523,48003
17217,5500,47935
17168,5475,47869
17116,5449,47800
17064,5422,47727
17008,5394,47651
16946,5366,47576
16884,5338,47502
16820,5310,47427
16754,5277,47348
16684,5242,47261
16610,5204,47166
16530,5163,47064
16444,5120,46958
16355,5075,46848
16259,5028,46734
16159,4981,46618
16058,4934,46501
15961,4888,46384
15864,4842,46264
15765,4797,46145
15666,4755,46028
15567,4713,45911
15466,4670,45797
15365,4628,45684
15267,4585,45571
15171,4544,45456
15076,4504,45341
14983,4466,45223
14891,4426,45101
14800,4383,44978
14707,4338,44854
14610,4292,44731
14515,4247,44611
14428,4206,44500
14355,4173,44410
14304,4152,44354
14284,4146,44341
14303,4160,44382
14367,4196,44486
14480,4260,44667
14645,4353,44933
14866,4475,45286
15139,4625,45721
15459,4801,46230
15821,4999,46802
16215,5213,47420
16631,5435,48066
17057,5663,48721
17480,5890,49371
17892,6111,49999
18285,6321,50596
18655,6519,51151
18998,6701,51660
19313,6867,52119
19599,7016,52525
19854,7150,52878
20072,7267,53179
20255,7369,53425
20404,7453,53620
20518,7518,53768
20601,7563,53869
20657,7590,53930
20691,7603,53953
20704,7605,53945
20699,7601,53911
20680,7592,53859
20652,7577,53793
20612,7556,53716
20560,7524,53626
20495,7483,53521
20420,7436,53399
20334,7384,53261
20237,7327,53108
20132,7266,52946
20024,7206,52779
19917,7148,52610
19814,7092,52439
19711,7035,52266
19610,6978,52091
19511,6919,51919
19410,6860,51751
19309,6803,51589
19214,6750,51436
19123,6698,51293
19031,6642,51155
18936,6586,51026
18844,6537,50911
18755,6496,50814
18670,6459,50733
18591,6425,50666
18517,6393,50608
18445,6361,50553
18370,6324,50498
18293,6285,50438
18210,6243,50373
18120,6198,50296
18019,6147,50205
17908,6091,50102
17789,6032,49989
17671,5976,49874
17562,5926,49765
17466,5884,49666
17388,5850,49583
17327,5824,49520
17281,5806,49471
17250,5794,49434
17231,5785,49407
17220,5780,49384
17215,5778,49362
17212,5775,49339
17207,5770,49309
17194,5759,49268
17169,5740,49213
17131,5714,49144
17077,5679,49054
17006,5635,48941
16916,5584,48807
16810,5529,48660
16695,5472,48507
16580,5415,48352
16469,5358,48199
16365,5306,48052
16270,5260,47916
16188,5218,47791
16117,5183,47682
16062,5157,47593
16022,5140,47526
15999,5130,47477
15993,5128,47445
16005,5134,47431
16032,5147,47433
16068,5164,47445
16107,5182,47461
16145,5199,47477
16181,5215,47490
16211,5229,47494
16237,5241,47492
16261,5251,47484
16282,5256,47471
16299,5257,47452
16312,5256,47431
16320,5253,47407
16324,5250,47381
16326,5246,47352
16326,5240,47322
16319,5232,47285
16307,5221,47240
16288,5208,47193
16263,5193,47148
16235,5177,47102
16202,5161,47053
16167,5144,47003
16134,5126,46953
16100,5108,46902
16062,5087,46849
16023,5066,46796
15986,5047,46744
15950,5033,46693
15914,5016,46638
15879,4999,46581
15849,4985,46526
15822,4973,46473
15792,4962,46418
15761,4950,46358
15731,4938,46295
15699,4924,46226
15659,4905,46148
15613,4877,46065
15563,4845,45979
15510,4811,45893
15455,4776,45811
15404,4747,45739
15365,4726,45690
15346,4717,45671
15352,4722,45694
15393,4747,45775
15477,4795,45923
15610,4869,46149
15797,4970,46457
16040,5098,46848
16334,5253,47317
16671,5434,47851
17038,5633,48432
17432,5848,49049
17846,6074,49686
18266,6303,50326
18675,6527,50951
19067,6742,51548
19443,6949,52111
19798,7146,52632
20123,7327,53101
20410,7486,53511
20657,7620,53857
20864,7730,54142
21026,7818,54364
21144,7883,54525
21222,7926,54630
21268,7950,54683
21286,7959,54694
21281,7955,54669
21254,7939,54618
21208,7912,54543
21152,7877,54450
21091,7840,54351
21028,7805,54255
20965,7771,54162
20904,7737,54074
20848,7704,53990
20799,7675,53908
20751,7649,53826
20699,7622,53735
20641,7592,53634
20580,7557,53521
20514,7517,53395
20441,7470,53255
20358,7415,53103
20268,7353,52939
20169,7288,52770
20069,7227,52605
19974,7171,52452
19886,7120,52312
19808,7074,52185
19743,7035,52072
19692,7006,51980
19658,6987,51911
19641,6980,51870
19644,6984,51860
19664,6996,51880
19700,7017,51924
19750,7048,51985
19812,7086,52061
19881,7126,52147
19948,7164,52235
20011,7199,52318
20066,7227,52396
20112,7250,52462
20145,7264,52513
20165,7269,52544
20170,7265,52553
20160,7254,52541
20136,7236,52511
20100,7215,52462
20051,7192,52397
19992,7165,52316
19926,7133,52224
19861,7101,52127
19804,7070,52035
19760,7044,51953
19730,7025,51882
19711,7011,51822
19701,7003,51773
19697,7000,51732
19697,6999,51696
19700,6998,51662
19701,6996,51629
19700,6991,51590
19692,6981,51541
19674,6967,51482
19646,6948,51415
19607,6924,51343
19561,6896,51268
19514,6867,51192
19466,6839,51116
19418,6812,51044
19375,6788,50976
19341,6768,50915
19314,6751,50859
19289,6734,50806
19267,6716,50752
19252,6700,50698
19247,6691,50648
19249,6685,50604
19249,6680,50563
19249,6675,50524
19252,6672,50492
19258,6669,50462
19266,6668,50440
19280,6673,50427
19299,6683,50424
19323,6698,50433
19351,6714,50448
19378,6730,50462
19401,6744,50469
19417,6755,50468
19425,6761,50459
19420,6759,50438
19401,6747,50400
19367,6723,50344
19320,6691,50273
19256,6652,50192
19180,6609,50101
19099,6566,50004
19021,6528,49908
18949,6495,49820
18887,6467,49741
18835,6442,49669
18792,6418,49602
18750,6396,49538
18707,6373,49473
18662,6349,49409
18620,6323,49343
18576,6297,49275
18528,6270,49207
18474,6243,49135
18418,6214,49056
18362,6183,48973
18307,6153,48891
18256,6125,48809
18208,6100,48729
18169,6080,48657
18140,6068,48603
18127,6065,48575
18137,6077,48587
18179,6108,48655
18263,6161,48796
18399,6237,49019
18593,6340,49332
18848,6475,49741
19165,6645,50246
19543,6851,50839
19971,7090,51504
20432,7354,52222
20916,7634,52971
21409,7921,53732
21897,8207,54484
22364,8483,55206
22799,8742,55879
23196,8981,56494
23554,9197,57046
23874,9386,57534
24153,9549,57954
24392,9687,58311
24595,9805,58607
24763,9904,58847
24897,9984,59030
25003,10046,59166
25086,10093,59262
25151,10127,59328
25202,10152,59372
25243,10172,59401
25278,10189,59419
25310,10204,59431
25341,10220,59441
25371,10239,59457
25403,10260,59478
25436,10283,59502
25467,10307,59529
25494,10328,59555
25509,10343,59572
25506,10346,59569
25483,10336,59540
25434,10310,59478
25355,10266,59383
25251,10205,59251
25128,10130,59089
24993,10049,58908
24852,9965,58717
24711,9881,58525
24581,9799,58340
24464,9725,58171
24359,9662,58022
24267,9609,57897
24190,9565,57797
24133,9535,57723
24099,9519,57679
24086,9517,57662
24086,9522,57668
24094,9531,57687
24102,9537,57709
24107,9541,57730
24110,9543,57750
24112,9545,57767
24111,9546,57780
24105,9547,57789
24098,9548,57797
24090,9549,57804
24080,9549,57806
24066,9545,57802
24049,9536,57793
24029,9524,57777
24002,9508,57749
23961,9487,57707
23903,9459,57649
23823,9421,57567
23720,9370,57455
23598,9309,57318
23466,9242,57166
23328,9171,57007
23185,9097,56841
23041,9021,56668
22902,8946,56494
22775,8875,56328
22661,8812,56172
22564,8756,56031
22485,8710,55909
22423,8672,55805
22372,8641,55716
22331,8616,55638
22300,8595,55570
22275,8579,55509
22250,8565,55453
22221,8552,55396
22184,8533,55333
22135,8506,55253
22069,8468,55154
21988,8422,55041
21895,8368,54915
21791,8308,54780
21679,8245,54641
21562,8181,54502
21444,8118,54363
21331,8057,54226
21226,8001,54095
21134,7951,53979
21057,7909,53879
20994,7875,53793
20941,7848,53714
20899,7826,53645
20868,7810,53589
20846,7798,53546
20828,7790,53513
20811,7784,53485
20797,7777,53457
20782,7768,53425
20763,7755,53387
20738,7737,53343
20708,7717,53295
20676,7698,53242
20643,7679,53184
20608,7658,53123
20571,7637,53062
20538,7617,53001
20513,7601,52946
20491,7589,52896
20469,7579,52851
20448,7568,52809
20427,7555,52769
20401,7541,52730
20368,7526,52687
20329,7507,52631
20283,7485,52559
20230,7460,52474
20169,7431,52378
20098,7394,52273
20019,7350,52160
19934,7304,52043
19848,7258,51925
19762,7211,51806
19675,7164,51686
19588,7118,51567
19505,7074,51454
19435,7036,51359
19389,7011,51296
19375,7003,51276
19403,7019,51314
19484,7065,51429
19628,7147,51634
19836,7268,51940
20108,7428,52346
20440,7626,52848
20827,7855,53435
21263,8111,54095
21736,8387,54808
22231,8676,55553
22734,8973,56309
23230,9269,57062
23709,9557,57790
24163,9830,58477
24587,10086,59111
24974,10322,59686
25322,10534,60199
25627,10719,60647
25892,10877,61030
26118,11011,61354
26305,11120,61618
26452,11206,61827
26562,11270,61985
26639,11316,62096
26686,11346,62169
26713,11362,62213
26726,11369,62237
26731,11372,62242
26729,11371,62233
26719,11367,62210
26703,11360,62178
26680,11350,62137
26653,11336,62091
26623,11320,62039
26586,11299,61983
26538,11269,61916
26475,11229,61835
26401,11182,61740
26313,11129,61628
26210,11068,61493
26091,10997,61334
25961,10917,61157
25819,10829,60965
25663,10731,60757
25494,10625,60531
25317,10516,60298
25140,10411,60072
24970,10314,59860
24807,10227,59661
24654,10147,59477
24513,10076,59312
24390,10015,59169
24287,9962,59052
24203,9916,58960
24136,9879,58894
24083,9851,58849
24044,9832,58820
24015,9818,58805
23995,9810,58800
23983,9803,58799
23974,9797,58795
23961,9792,58788
23942,9787,58779
23913,9778,58761
23876,9767,58731
23833,9753,58692
23782,9734,58645
23716,9704,58581
23633,9662,58499
23535,9609,58400
23425,9549,58288
23308,9486,58159
23188,9422,58017
23071,9359,57870
22963,9297,57723
22860,9235,57574
22757,9172,57425
22653,9110,57275
22550,9049,57123
22446,8987,56972
22342,8926,56817
22239,8865,56659
22135,8803,56504
22029,8742,56354
21922,8681,56205
21813,8619,56053
21704,8558,55899
21598,8500,55747
21496,8446,55601
21398,8394,55460
21302,8344,55325
21213,8297,55200
21129,8251,55086
21046,8206,54974
20962,8160,54859
20882,8115,54742
20805,8071,54624
20731,8030,54511
20658,7990,54404
20587,7951,54303
20520,7914,54207
20459,7882,54115
20403,7852,54030
20350,7823,53950
20300,7795,53873
20248,7768,53796
20189,7736,53716
20119,7699,53628
20038,7658,53528
19944,7611,53413
19840,7556,53288
19732,7499,53159
19629,7443,53032
19533,7391,52912
19442,7343,52797
19358,7301,52688
19284,7265,52590
19225,7237,52508
19182,7217,52442
19155,7201,52389
19136,7186,52346
19116,7168,52305
19090,7148,52261
19058,7127,52211
19022,7106,52154
18983,7084,52090
18940,7060,52016
18895,7033,51935
18843,7004,51846
18781,6971,51747
18709,6933,51640
18631,6891,51527
18553,6849,51416
18478,6809,51309
18411,6773,51206
18351,6740,51111
18300,6711,51022
18261,6689,50942
18233,6673,50872
18215,6662,50813
18204,6654,50764
18198,6650,50720
18197,6649,50685
18204,6651,50663
18225,6660,50661
18271,6683,50692
18348,6723,50770
18457,6785,50907
18606,6869,51116
18803,6981,51406
19054,7124,51783
19355,7297,52248
19703,7497,52794
20092,7722,53408
20512,7967,54074
20951,8226,54774
21396,8491,55483
21835,8753,56180
22260,9007,56849
22668,9250,57485
23055,9481,58083
23417,9694,58632
23750,9890,59131
24052,10069,59576
24320,10228,59965
24553,10367,60298
24753,10487,60577
24920,10588,60804
25056,10670,60982
25157,10731,61113
25220,10771,61196
25246,10790,61232
25239,10787,61228
25204,10765,61187
25147,10730,61118
25075,10688,61030
24989,10639,60930
24895,10585,60822
24798,10530,60710
24700,10476,60595
24604,10424,60477
24511,10371,60354
24416,10314,60227
24318,10253,60093
24210,10185,59947
24084,10110,59782
23938,10026,59590
23773,9932,59373
23593,9829,59138
23403,9720,58890
23208,9609,58632
23014,9499,58371
22829,9394,58122
22662,9300,57897
22519,9220,57702
22400,9153,57538
22304,9098,57404
22229,9054,57302
22173,9022,57229
22132,8999,57182
22101,8984,57153
22076,8977,57137
22058,8977,57133
22043,8980,57137
22028,8983,57144
22008,8982,57150
21982,8977,57151
21950,8966,57146
21909,8948,57132
21857,8923,57105
21798,8895,57064
21735,8865,57008
21665,8832,56940
21591,8794,56860
21513,8755,56770
21432,8713,56675
21347,8670,56577
21262,8627,56477
21181,8584,56381
21104,8541,56284
21028,8500,56184
20955,8459,56085
20883,8419,55985
20807,8378,55882
20727,8335,55773
20646,8291,55656
20561,8246,55530
20469,8196,55394
20371,8141,55251
20267,8082,55105
20156,8022,54956
20039,7958,54805
19921,7894,54654
19804,7830,54505
19692,7768,54361
19584,7709,54219
19482,7653,54080
19384,7598,53945
19294,7546,53817
19216,7500,53697
19151,7463,53590
19094,7432,53494
19040,7404,53406
18984,7376,53322
18926,7346,53237
18863,7314,53145
18794,7279,53043
18715,7237,52930
18624,7189,52806
18527,7136,52673
18429,7081,52538
18333,7028,52403
18241,6976,52271
18153,6925,52144
18071,6875,52023
17996,6832,51912
17928,6794,51814
17864,6762,51727
17804,6732,51646
17746,6704,51569
17692,6680,51494
17642,6659,51420
17590,6637,51345
17537,6611,51267
17483,6583,51189
17429,6555,51111
17371,6525,51030
17309,6493,50944
17248,6460,50856
17185,6423,50766
17116,6384,50669
17041,6341,50564
16961,6297,50455
16878,6252,50342
16789,6204,50225
16694,6154,50106
16597,6102,49986
16500,6050,49868
16405,6001,49754
16316,5955,49647
16235,5915,49549
16168,5879,49459
16116,5849,49377
16077,5827,49302
16045,5811,49232
16018,5798,49165
15995,5788,49101
15972,5776,49040
15945,5760,48978
15911,5740,48910
15871,5715,48836
15829,5690,48762
15786,5667,48689
15747,5647,48622
15718,5632,48571
15709,5626,48551
15725,5636,48579
15775,5665,48665
15868,5718,48821
16013,5801,49063
16219,5918,49401
16483,6069,49834
16806,6252,50352
17185,6465,50947
17607,6702,51603
18053,6952,52295
18505,7206,52999
18950,7458,53697
19379,7702,54371
19784,7935,55005
20159,8152,55584
20503,8351,56106
20811,8530,56567
21080,8687,56965
21308,8820,57300
21494,8928,57571
21639,9013,57781
21747,9078,57932
21820,9122,58030
21860,9146,58081
21869,9150,58087
21851,9134,58051
21809,9101,57980
21747,9054,57887
21668,9000,57777
21574,8942,57654
21474,8884,57522
21373,8826,57390
21276,8771,57260
21183,8720,57135
21095,8673,57013
21011,8629,56894
20928,8585,56777
20841,8539,56658
20748,8488,56527
20650,8432,56380
20547,8373,56221
20436,8311,56049
20313,8244,55865
20175,8168,55669
20027,8085,55464
19873,7997,55254
19717,7910,55046
19562,7824,54842
19413,7742,54646
19273,7665,54466
19145,7596,54308
19029,7534,54170
18926,7479,54054
18839,7435,53964
18775,7406,53902
18738,7392,53871
18729,7394,53868
18746,7409,53890
18783,7434,53936
18834,7465,53998
18893,7498,54070
18953,7531,54143
19012,7560,54213
19063,7585,54274
19102,7604,54321
19125,7613,54349
19129,7612,54356
19113,7601,54337
19075,7580,54290
19016,7548,54216
18939,7506,54116
18845,7454,53994
18739,7396,53855
18622,7335,53703
18500,7274,53547
18380,7213,53389
18265,7153,53231
18156,7095,53075
18054,7042,52921
17957,6991,52772
17863,6942,52628
17771,6893,52492
17682,6845,52364
17592,6796,52237
17501,6744,52108
17408,6690,51977
17313,6637,51847
17218,6585,51717
17125,6535,51587
17033,6487,51457
16939,6439,51324
16840,6389,51187
16735,6334,51044
16624,6276,50895
16507,6217,50744
16387,6159,50596
16269,6102,50454
16157,6048,50323
16056,5998,50203
15967,5955,50097
15897,5921,50008
15849,5896,49939
15820,5880,49888
15805,5871,49849
15804,5870,49823
15810,5874,49804
15821,5881,49789
15832,5890,49774
15842,5899,49762
15849,5906,49751
15848,5907,49735
15837,5903,49711
15817,5893,49680
15791,5880,49640
15760,5865,49592
15723,5847,49535
15685,5827,49470
15649,5806,49405
15614,5785,49343
15582,5766,49286
15554,5749,49236
15535,5736,49193
15520,5726,49156
15507,5716,49123
15493,5707,49091
15474,5697,49054
15447,5685,49011
15410,5669,48960
15364,5648,48900
15308,5622,48826
15243,5592,48741
15176,5558,48649
15112,5523,48558
15051,5492,48471
14994,5464,48384
14942,5435,48298
14893,5408,48213
14848,5384,48129
14809,5363,48047
14776,5345,47967
14746,5328,47891
14714,5309,47817
14678,5290,47744
14638,5270,47677
14600,5253,47623
14569,5241,47589
14555,5240,47587
14564,5252,47630
14604,5280,47730
14687,5332,47903
14819,5411,48158
15005,5518,48499
15247,5655,48920
15545,5819,49415
15888,6008,49974
16263,6216,50585
16657,6437,51227
17064,6665,51879
17473,6893,52519
17867,7113,53132
18233,7317,53702
18569,7502,54221
18874,7666,54681
19145,7813,55080
19379,7941,55419
19573,8047,55694
19722,8129,55908
19828,8188,56065
19894,8225,56169
19921,8240,56220
19912,8237,56221
19876,8219,56182
19819,8190,56111
19747,8152,56016
19664,8106,55904
19575,8057,55780
19484,8005,55647
19389,7953,55508
19292,7903,55365
19195,7851,55221
19096,7795,55072
18997,7734,54919
18896,7672,54760
18793,7610,54591
18683,7548,54414
18568,7483,54231
18450,7416,54044
18327,7347,53851
18196,7274,53651
18057,7197,53443
17914,7120,53233
17771,7044,53031
17633,6973,52840
17510,6906,52669
17411,6851,52526
17341,6811,52422
17300,6789,52358
17289,6782,52328
17308,6793,52335
17352,6820,52374
17413,6857,52439
17483,6898,52522
17556,6939,52614
17628,6978,52708
17695,7013,52795
17751,7043,52868
17792,7065,52924
17815,7076,52959
17818,7073,52972
17802,7060,52964
17764,7037,52936
17708,7006,52889
17643,6971,52829
17575,6936,52761
17505,6899,52686
17431,6861,52601
17357,6822,52508
17290,6785,52410
17229,6748,52311
17170,6714,52213
17115,6681,52114
17063,6649,52016
17014,6617,51921
16964,6584,51828
16909,6550,51732
16851,6514,51631
16789,6479,51529
16722,6443,51426
16650,6404,51319
16574,6364,51207
16493,6322,51089
16405,6280,50965
16311,6233,50836
16213,6184,50703
16116,6135,50570
16023,6089,50438
15933,6044,50309
15850,6000,50183
15771,5958,50064
15695,5918,49955
15627,5882,49859
15570,5850,49776
15523,5824,49699
15483,5802,49630
15451,5785,49569
15425,5771,49517
15403,5757,49468
15385,5743,49420
15366,5730,49373
15340,5714,49324
15305,5695,49271
15262,5672,49211
15214,5646,49144
15162,5619,49071
15102,5589,48990
15034,5557,48902
14964,5525,48810
14895,5493,48716
14824,5461,48621
14752,5426,48525
14681,5388,48428
14608,5351,48332
14537,5312,48238
14469,5273,48146
14407,5236,48056
14348,5202,47971
14287,5170,47888
14225,5141,47807
14164,5112,47728
14107,5085,47652
14050,5058,47576
13992,5030,47498
13928,5001,47411
13856,4969,47313
13773,4933,47202
13674,4888,47073
13560,4832,46926
13435,4770,46768
13305,4705,46602
13173,4641,46434
13043,4578,46269
12917,4517,46108
12800,4462,45957
12700,4414,45825
12621,4377,45719
12569,4354,45645
12556,4348,45620
12592,4365,45658
12680,4410,45773
12823,4486,45974
13025,4592,46267
13288,4728,46651
13610,4893,47124
13985,5087,47678
14404,5304,48300
14854,5539,48973
15322,5787,49677
15794,6042,50392
16261,6295,51099
16713,6540,51783
17139,6774,52428
17535,6989,53018
17890,7183,53541
18199,7351,53992
18460,7492,54370
18675,7610,54676
18845,7705,54919
18978,7777,55105
19073,7828,55236
19134,7860,55317
19165,7877,55354
19175,7880,55354
19167,7872,55327
19145,7857,55279
19116,7836,55219
19084,7815,55154
19048,7794,55086
19006,7770,55010
18959,7744,54927
18909,7717,54841
18858,7687,54752
18803,7654,54657
18744,7619,54554
18682,7585,54443
18617,7549,54322
18544,7506,54189
18463,7456,54044
18377,7404,53889
18286,7349,53729
18192,7293,53569
18098,7237,53415
18007,7185,53268
17917,7135,53129
17832,7088,53001
17751,7045,52887
17678,7005,52785
17614,6969,52697
17558,6939,52622
17513,6914,52563
17476,6894,52521
17449,6879,52496
17436,6873,52489
17441,6879,52505
17466,6898,52546
17510,6925,52604
17569,6958,52674
17638,6992,52751
17709,7025,52831
17773,7056,52907
17831,7085,52976
17883,7114,53037
17928,7139,53085
17958,7158,53117
17972,7166,53131
17967,7162,53124
17939,7146,53093
17891,7117,53033
17826,7076,52947
17746,7027,52839
17652,6974,52715
17544,6916,52577
17431,6855,52427
17314,6792,52269
17192,6729,52106
17066,6665,51941
16942,6601,51776
16825,6539,51617
16717,6483,51460
16614,6430,51306
16513,6377,51155
16413,6324,51009
16311,6273,50866
16210,6223,50726
16117,6176,50599
16034,6134,50488
15958,6096,50390
15886,6061,50295
15818,6028,50202
15752,5996,50112
15688,5965,50024
15623,5933,49934
15554,5897,49838
15480,5855,49734
15401,5810,49621
15318,5763,49501
15229,5715,49375
15134,5662,49241
15030,5607,49101
14922,5551,48958
14812,5496,48814
14707,5445,48674
14610,5397,48546
14520,5353,48431
14439,5313,48327
14366,5277,48233
14298,5244,48144
14232,5214,48056
14165,5183,47969
14103,5153,47887
14049,5127,47812
14004,5106,47746
13967,5089,47690
13937,5075,47646
13914,5065,47611
13899,5058,47582
13892,5056,47559
13886,5054,47538
13874,5050,47508
13855,5041,47470
13830,5026,47424
13799,5010,47371
13764,4991,47312
13727,4970,47251
13691,4947,47185
13653,4924,47114
13609,4899,47035
13561,4872,46948
13511,4844,46856
13460,4817,46761
13407,4789,46661
13350,4761,46556
13289,4732,46448
13225,4704,46344
13164,4678,46253
13110,4655,46183
13070,4639,46138
13048,4631,46127
13051,4638,46160
13095,4665,46251
13192,4717,46411
13347,4798,46651
13565,4914,46980
13850,5065,47402
14200,5249,47913
14603,5461,48500
15052,5694,49147
15531,5944,49840
16026,6205,50558
16521,6468,51280
17008,6726,51988
17474,6974,52671
17911,7210,53313
18310,7428,53900
18668,7627,54422
18986,7804,54875
19261,7957,55262
19485,8082,55576
19658,8177,55820
19783,8243,56002
19860,8283,56128
19895,8300,56205
19899,8299,56241
19883,8288,56249
19853,8272,56235
19812,8250,56198
19765,8225,56140
19715,8198,56065
19665,8168,55978
19619,8138,55883
19575,8110,55786
19529,8082,55684
19474,8051,55575
19406,8014,55454
19323,7971,55323
19226,7919,55182
19114,7859,55026
18989,7788,54852
18853,7712,54662
18709,7632,54464
18562,7552,54262
18416,7472,54057
18280,7395,53859
18157,7322,53672
18046,7257,53500
17943,7198,53345
17853,7144,53210
17777,7100,53097
17712,7066,53008
17658,7040,52940
17616,7020,52890
17582,7006,52855
17553,6996,52832
17530,6990,52815
17513,6986,52801
17497,6981,52789
17483,6973,52778
17471,6964,52765
17457,6954,52747
17436,6941,52725
17407,6923,52694
17368,6900,52651
17320,6875,52596
17265,6846,52533
17205,6816,52466
17143,6785,52397
17080,6752,52326
17012,6716,52249
16940,6678,52165
16868,6640,52074
16792,6601,51976
16709,6559,51868
16620,6513,51751
16528,6465,51625
16433,6416,51493
16332,6366,51353
16227,6314,51205
16122,6263,51055
16024,6214,50909
15932,6168,50771
15844,6124,50637
15761,6081,50511
15689,6041,50396
15626,6006,50293
15571,5976,50198
15525,5951,50113
15490,5930,50039
15465,5913,49974
15446,5899,49917
15435,5890,49865
15433,5885,49818
15443,5884,49774
15458,5885,49732
15474,5887,49689
15487,5886,49646
15498,5884,49604
15504,5882,49558
15493,5873,49501
15454,5854,49431
15389,5822,49344
15309,5781,49251
15223,5738,49161
15134,5695,49078
15044,5652,49000
14954,5611,48924
14871,5574,48855
14801,5545,48797
14745,5524,48752
14699,5506,48714
14658,5489,48674
14621,5469,48627
14590,5453,48578
14571,5443,48538
14566,5441,48511
14572,5442,48494
14584,5445,48480
14599,5450,48467
14619,5457,48458
14646,5465,48450
14675,5475,48438
14702,5485,48422
14719,5491,48395
14721,5490,48352
14708,5483,48292
14677,5468,48219
14627,5441,48135
14554,5402,48036
14464,5355,47926
14366,5303,47810
14259,5249,47691
14145,5191,47567
14028,5132,47441
13916,5074,47316
13811,5020,47191
13713,4969,47064
13621,4920,46935
13540,4876,46808
13469,4837,46687
13407,4804,46573
13354,4776,46472
13313,4753,46389
13287,4738,46337
13280,4734,46327
13306,4749,46372
13378,4789,46483
13501,4856,46668
13683,4956,46938
13930,5091,47299
14242,5262,47751
14616,5463,48285
15040,5687,48890
15505,5929,49556
15994,6185,50267
16492,6448,50996
16985,6712,51724
17461,6972,52436
17912,7221,53117
18328,7450,53751
18701,7656,54325
19036,7840,54833
19336,8002,55277
19596,8143,55655
19814,8266,55967
19992,8366,56212
20132,8444,56394
20236,8500,56520
20306,8537,56597
20344,8555,56630
20351,8558,56627
20330,8546,56593
20288,8521,56535
20230,8489,56460
20162,8451,56374
20090,8408,56278
20020,8363,56176
19954,8320,56075
19894,8280,55981
19839,8244,55890
19786,8210,55800
19734,8179,55710
19684,8150,55617
19626,8118,55516
19558,8080,55402
19482,8037,55272
19396,7987,55125
19302,7931,54964
19201,7871,54792
19092,7812,54618
18979,7752,54447
18870,7692,54285
18768,7637,54135
18677,7589,54001
18595,7545,53883
18524,7506,53781
18467,7472,53700
18422,7444,53643
18389,7421,53610
18364,7402,53592
18342,7386,53585
18325,7374,53584
18310,7367,53587
18296,7363,53595
18289,7363,53609
18292,7367,53629
18302,7377,53652
18317,7390,53677
18335,7402,53698
18351,7415,53712
18362,7425,53716
18367,7433,53711
18365,7438,53698
18357,7440,53675
18347,7438,53644
18340,7433,53608
18332,7426,53569
18319,7414,53522
18298,7397,53465
18271,7377,53398
18236,7356,53324
18190,7331,53242
18132,7301,53150
18063,7265,53049
17984,7222,52939
17896,7173,52821
17804,7120,52694
17708,7063,52559
17610,7006,52417
17506,6947,52268
17394,6885,52111
17275,6820,51950
17151,6751,51787
17025,6681,51624
16900,6611,51462
16776,6543,51303
16655,6480,51150
16540,6424,51009
16439,6377,50882
16355,6340,50770
16288,6310,50674
16236,6285,50593
16202,6264,50526
16181,6248,50473
16164,6236,50428
16145,6225,50383
16122,6214,50332
16098,6199,50276
16068,6181,50216
16032,6161,50153
15991,6139,50088
15945,6115,50021
15892,6088,49949
15832,6059,49872
15766,6027,49794
15697,5994,49711
15624,5958,49621
15546,5919,49525
15463,5878,49426
15377,5836,49326
15286,5792,49224
15195,5747,49123
15108,5703,49026
15026,5662,48933
14948,5623,48842
14877,5588,48755
14814,5556,48671
14757,5526,48594
14704,5500,48524
14653,5475,48459
14606,5451,48393
14559,5428,48322
14505,5404,48242
14440,5374,48150
14363,5336,48047
14276,5292,47934
14179,5244,47813
14074,5190,47682
13963,5132,47548
13851,5072,47412
13740,5014,47277
13630,4959,47141
13523,4906,47006
13422,4859,46876
13330,4819,46758
13251,4784,46651
13182,4752,46553
13123,4722,46464
13069,4694,46381
13015,4667,46299
12960,4641,46212
12902,4616,46117
12840,4588,46021
12775,4558,45927
12710,4526,45841
12651,4497,45775
12614,4480,45745
12614,4482,45767
12663,4510,45860
12770,4568,46038
12940,4662,46311
13176,4793,46685
13476,4959,47160
13836,5155,47724
14245,5376,48360
14692,5618,49049
15164,5874,49772
15647,6136,50506
16131,6398,51233
16606,6653,51936
17059,6896,52601
17475,7122,53213
17847,7325,53759
18173,7502,54235
18452,7653,54639
18678,7775,54966
18853,7867,55216
18979,7932,55395
19057,7976,55507
19091,7996,55558
19085,7995,55556
19052,7977,55514
18995,7946,55441
18919,7902,55340
18832,7850,55221
18742,7797,55093
18655,7748,54966
18571,7703,54844
18490,7662,54728
18415,7624,54625
18343,7590,54532
18274,7556,54443
18209,7521,54352
18144,7485,54255
18075,7447,54146
17995,7402,54019
17899,7346,53868
17784,7279,53694
17649,7205,53502
17499,7128,53298
17344,7049,53088
17193,6972,52877
17050,6898,52672
16915,6830,52479
16791,6769,52308
16684,6716,52166
16598,6674,52054
16533,6642,51971
16487,6619,51912
16459,6606,51878
16440,6598,51860
16424,6591,51853
16411,6585,51854
16403,6582,51862
16394,6581,51871
16383,6577,51878
16370,6570,51881
16355,6560,51881
16339,6549,51878
16322,6539,51872
16307,6530,51862
16299,6523,51851
16296,6518,51838
16297,6516,51824
16301,6519,51812
16306,6524,51800
16306,6528,51784
16296,6526,51760
16276,6518,51724
16246,6501,51671
16200,6476,51599
16138,6443,51506
16058,6401,51392
15959,6348,51255
15840,6283,51096
15707,6212,50922
15565,6139,50742
15415,6064,50556
15262,5990,50367
15115,5918,50180
14978,5852,50003
14857,5790,49843
14755,5736,49702
14669,5690,49580
14597,5652,49475
14531,5622,49381
14470,5594,49294
14413,5567,49214
14360,5541,49141
14313,5517,49073
14272,5497,49013
14236,5481,48959
14205,5466,48908
14174,5448,48855
14145,5427,48800
14115,5404,48745
14080,5381,48691
14040,5358,48636
14000,5337,48579
13962,5321,48523
13925,5306,48469
13889,5293,48415
13854,5279,48361
13824,5263,48310
13799,5251,48261
13778,5242,48213
13756,5233,48165
13735,5223,48120
13715,5212,48078
13699,5199,48038
13686,5187,48000
13680,5177,47966
13680,5173,47938
13683,5174,47916
13688,5175,47901
13694,5178,47892
13702,5181,47883
13706,5184,47869
13708,5184,47850
13707,5183,47826
13700,5178,47796
13682,5170,47757
13654,5156,47710
13621,5140,47658
13588,5125,47604
13554,5109,47547
13521,5092,47490
13490,5074,47434
13459,5058,47380
13429,5044,47332
13399,5032,47287
13368,5020,47241
13336,5005,47191
13301,4984,47134
13264,4961,47069
13225,4935,46994
13185,4908,46910
13139,4877,46817
13084,4844,46717
13023,4812,46616
12959,4781,46518
12900,4752,46429
12851,4729,46360
12821,4714,46319
12818,4716,46323
12849,4736,46390
12924,4779,46530
13052,4848,46753
13236,4946,47065
13480,5077,47469
13781,5242,47958
14137,5435,48522
14538,5652,49145
14974,5887,49811
15432,6134,50506
15896,6387,51210
16354,6639,51900
16795,6881,52559
17209,7107,53168
17585,7311,53716
17916,7492,54197
18201,7649,54609
18434,7779,54945
18613,7878,55205
18739,7946,55391
18820,7986,55508
18862,8003,55565
18871,8002,55571
18852,7987,55536
18815,7962,55474
18765,7930,55396
18705,7894,55305
18643,7857,55207
18587,7823,55111
18538,7793,55022
18491,7763,54936
18443,7734,54849
18396,7705,54761
18344,7676,54666
18282,7644,54557
18210,7605,54434
18126,7558,54296
18027,7502,54141
17907,7434,53965
17769,7357,53770
17619,7272,53563
17458,7183,53347
17287,7090,53123
17114,7000,52899
16950,6916,52686
16803,6838,52492
16678,6770,52323
16577,6715,52185
16506,6675,52088
16466,6651,52031
16453,6643,52011
16465,6651,52027
16502,6673,52073
16556,6706,52143
16623,6744,52227
16700,6784,52320
16780,6823,52416
16853,6860,52508
16911,6892,52585
16953,6918,52645
16977,6936,52689
16983,6944,52719
16975,6945,52732
16959,6939,52730
16939,6928,52715
16915,6912,52688
16885,6893,52653
16853,6873,52611
16818,6854,52564
16781,6833,52509
16740,6812,52447
16694,6787,52376
16641,6755,52294
16578,6717,52198
16503,6676,52087
16415,6632,51962
16317,6583,51824
16211,6529,51677
16103,6471,51523
15996,6412,51369
15895,6357,51217
15802,6307,51072
15717,6260,50936
15640,6218,50810
15569,6178,50694
15501,6140,50586
15435,6104,50483
15371,6070,50386
15309,6039,50294
15248,6012,50206
15189,5986,50117
15131,5958,50026
15070,5925,49932
15002,5889,49835
14929,5850,49735
14857,5811,49636
14785,5770,49538
14714,5731,49445
14646,5696,49357
14582,5663,49270
14524,5632,49185
14472,5601,49107
14426,5572,49038
14384,5546,48976
14344,5523,48920
14306,5504,48869
14275,5487,48821
14245,5472,48775
14213,5459,48727
14181,5444,48680
14150,5431,48637
14124,5422,48601
14105,5415,48569
14091,5405,48541
14079,5395,48515
14069,5386,48491
14059,5379,48469
14047,5372,48446
14034,5365,48419
14018,5358,48385
13998,5348,48349
13969,5333,48309
13931,5312,48263
13881,5286,48205
13820,5256,48133
13747,5220,48047
13661,5179,47943
13563,5134,47822
13451,5082,47683
13330,5024,47532
13204,4963,47373
13077,4901,47210
12953,4839,47048
12840,4782,46895
12742,4734,46757
12656,4693,46636
12584,4660,46537
12534,4636,46468
12514,4627,46439
12530,4636,46460
12590,4668,46543
12702,4725,46699
12868,4811,46937
13089,4926,47259
13364,5072,47667
13693,5246,48158
14066,5444,48722
14471,5661,49341
14896,5889,49994
15331,6121,50664
15764,6354,51335
16184,6582,51987
16582,6796,52600
16952,6994,53165
17288,7178,53678
17585,7344,54137
17841,7488,54538
18062,7611,54881
18251,7716,55167
18411,7804,55401
18544,7878,55590
18652,7935,55734
18732,7976,55837
18785,8002,55899
18812,8015,55924
18815,8016,55914
18797,8004,55875
18764,7982,55813
18717,7953,55736
18657,7918,55640
18584,7878,55529
18501,7834,55408
18408,7786,55276
18305,7732,55133
18190,7671,54978
18061,7603,54806
17918,7525,54616
17766,7440,54408
17605,7348,54188
17438,7251,53956
17268,7152,53716
17101,7058,53476
16945,6971,53246
16805,6893,53034
16684,6824,52846
16580,6766,52685
16494,6716,52550
16426,6676,52440
16376,6646,52357
16343,6628,52299
16323,6618,52265
16316,6617,52254
16317,6623,52261
16326,6636,52282
16343,6653,52318
16368,6672,52365
16400,6693,52419
16436,6712,52474
16473,6729,52529
16511,6746,52582
16548,6762,52633
16579,6777,52677
16603,6790,52709
16618,6798,52727
16621,6801,52731
16614,6798,52723
16600,6789,52699
16581,6775,52664
16553,6755,52620
16516,6732,52566
16472,6706,52499
16424,6677,52425
16370,6645,52343
16309,6610,52249
16242,6573,52141
16170,6534,52025
16095,6497,51907
16020,6460,51792
15953,6425,51683
15897,6394,51582
15851,6367,51493
15811,6344,51414
15777,6324,51343
15747,6305,51277
15721,6288,51216
15692,6274,51154
15660,6259,51089
15622,6240,51022
15581,6217,50955
15534,6190,50885
15482,6161,50809
15428,6131,50729
15375,6101,50649
15325,6074,50570
15282,6051,50495
15248,6032,50425
15223,6015,50363
15197,5999,50307
15168,5983,50256
15143,5967,50208
15120,5953,50162
15098,5940,50120
15076,5931,50082
15057,5924,50053
15045,5919,50031
15039,5916,50012
15038,5911,49989
15039,5905,49962
15040,5896,49932
15036,5886,49898
15023,5876,49861
15000,5863,49817
14965,5847,49766
14918,5827,49708
14861,5804,49643
14796,5774,49569
14725,5739,49486
14645,5699,49392
14557,5652,49286
14460,5600,49170
14357,5544,49046
14255,5489,48918
14157,5439,48790
14068,5394,48667
13989,5353,48551
13921,5316,48443
13861,5284,48346
13807,5257,48257
13754,5232,48169
13702,5205,48080
13651,5177,47990
13599,5149,47900
13547,5120,47810
13494,5090,47723
13446,5063,47646
13409,5043,47587
13390,5032,47551
13393,5030,47550
13427,5043,47594
13500,5080,47697
13620,5144,47868
13790,5238,48120
14015,5366,48462
14300,5526,48897
14640,5712,49414
15026,5922,50004
15452,6152,50654
15909,6396,51345
16385,6649,52060
16865,6909,52781
17339,7170,53492
17800,7425,54177
18243,7671,54826
18660,7904,55431
19046,8119,55985
19395,8313,56484
19704,8484,56925
19968,8628,57303
20182,8748,57618
20350,8842,57869
20479,8912,58060
20574,8961,58197
20636,8991,58281
20664,9002,58316
20664,8996,58308
20641,8980,58270
20599,8958,58214
20546,8926,58146
20490,8890,58073
20438,8858,58000
20396,8833,57933
20360,8813,57875
20326,8796,57821
20298,8782,57768
20277,8773,57716
20258,8764,57663
20238,8754,57606
20214,8740,57542
20180,8719,57465
20130,8688,57367
20061,8645,57248
19972,8590,57108
19861,8522,56945
19727,8441,56757
19576,8353,56554
19412,8261,56347
19244,8168,56145
19079,8080,55956
18926,8002,55787
18788,7934,55640
18665,7875,55513
18559,7824,55408
18469,7781,55327
18395,7747,55270
18340,7723,55233
18304,7709,55211
18285,7702,55201
18280,7704,55202
18287,7714,55215
18305,7731,55237
18333,7753,55266
18365,7777,55298
18397,7797,55328
18421,7808,55349
18433,7809,55357
18433,7803,55350
18421,7790,55325
18394,7769,55282
18351,7743,55219
18290,7709,55137
18209,7666,55036
18112,7615,54917
18006,7558,54782
17893,7497,54635
17771,7430,54476
17641,7359,54306
17508,7289,54132
17373,7219,53956
17236,7149,53780
17104,7080,53606
16984,7018,53442
16881,6966,53295
16791,6921,53167
16714,6883,53057
16652,6853,52964
16601,6827,52883
16555,6804,52811
16514,6783,52742
16476,6764,52676
16432,6746,52606
16379,6722,52530
16317,6690,52448
16252,6654,52361
16185,6615,52270
16114,6572,52174
16038,6525,52072
15959,6475,51963
15877,6425,51850
15794,6374,51736
15709,6325,51624
15619,6278,51511
15529,6234,51398
15440,6195,51287
15356,6158,51179
15277,6123,51077
15204,6092,50984
15143,6062,50900
15094,6035,50823
15051,6010,50751
15012,5987,50684
14980,5967,50626
14952,5953,50576
14924,5942,50531
14894,5932,50485
14860,5919,50438
14824,5903,50392
14788,5885,50343
14750,5862,50284
14704,5836,50215
14650,5808,50135
14584,5775,50046
14507,5734,49946
14420,5687,49832
14322,5635,49705
14214,5581,49570
14100,5524,49426
13981,5465,49276
13864,5406,49124
13751,5346,48978
13647,5287,48838
13553,5235,48706
13470,5190,48582
13395,5152,48467
13327,5122,48361
13266,5096,48269
13220,5075,48194
13192,5062,48143
13187,5058,48123
13211,5070,48148
13271,5103,48228
13372,5162,48375
13519,5245,48600
13719,5358,48910
13977,5501,49310
14295,5673,49794
14663,5873,50350
15068,6093,50967
15502,6328,51633
15955,6574,52329
16413,6826,53033
16862,7074,53722
17295,7314,54379
17706,7539,54993
18087,7747,55557
18434,7936,56062
18745,8107,56506
19022,8261,56890
19267,8394,57217
19475,8506,57485
19644,8596,57698
19779,8667,57862
19885,8722,57983
19965,8762,58069
20021,8792,58124
20053,8808,58151
20062,8811,58151
20049,8799,58126
20018,8777,58082
19976,8751,58028
19931,8722,57970
19885,8692,57912
19837,8662,57851
19787,8634,57786
19735,8605,57714
19680,8573,57634
19623,8538,57544
19564,8501,57445
19501,8461,57337
19436,8421,57221
19371,8380,57098
19305,8336,56962
19237,8289,56819
19162,8240,56676
19083,8192,56535
19003,8143,56398
18928,8097,56270
18859,8056,56154
18796,8019,56047
18737,7985,55948
18684,7957,55861
18639,7935,55794
18606,7919,55747
18584,7906,55716
18569,7899,55701
18563,7897,55701
18561,7898,55709
18563,7900,55724
18567,7903,55742
18574,7907,55763
18578,7909,55779
18576,7906,55784
18572,7900,55779
18561,7890,55761
18537,7874,55727
18501,7850,55675
18457,7820,55611
18404,7786,55536
18341,7748,55447
18269,7705,55344
18196,7659,55230
18122,7614,55109
18047,7567,54985
17972,7521,54862
17902,7477,54744
17834,7435,54627
17762,7392,54512
17687,7349,54398
17611,7306,54282
17531,7261,54159
17444,7213,54032
17351,7162,53898
17247,7108,53757
17133,7048,53605
17010,6980,53443
16880,6909,53273
16746,6836,53098
16610,6762,52922
16479,6689,52749
16358,6618,52586
16245,6551,52436
16136,6491,52296
16037,6437,52166
15950,6392,52045
15877,6356,51935
15815,6327,51838
15771,6306,51758
15743,6293,51697
15726,6286,51649
15710,6281,51605
15688,6274,51561
15660,6264,51516
15624,6252,51467
15578,6233,51409
15520,6205,51344
15457,6171,51273
15390,6134,51197
15316,6093,51114
15241,6051,51029
15169,6011,50943
15100,5975,50856
15033,5938,50768
14970,5902,50682
14908,5868,50601
14843,5833,50519
14768,5795,50431
14685,5754,50337
14599,5712,50236
14515,5672,50132
14436,5635,50029
14364,5602,49932
14302,5573,49842
14253,5547,49759
14214,5524,49681
14182,5505,49607
14154,5488,49536
14124,5469,49465
14089,5448,49394
14048,5423,49321
14004,5401,49249
13956,5379,49175
13899,5353,49093
13832,5322,49002
13757,5290,48907
13678,5255,48805
13598,5220,48695
13516,5184,48583
13436,5150,48479
13366,5121,48392
13314,5101,48332
13290,5092,48313
13304,5100,48349
13361,5132,48451
13464,5191,48630
13623,5283,48899
13846,5411,49263
14132,5574,49724
14481,5771,50273
14883,5996,50899
15328,6244,51581
15800,6507,52295
16289,6778,53021
16781,7052,53745
17261,7321,54449
17718,7575,55115
18144,7810,55730
18528,8020,56284
18861,8201,56764
19141,8352,57163
19364,8472,57481
19530,8564,57723
19646,8632,57897
19722,8678,58015
19767,8704,58086
19788,8714,58115
19787,8712,58110
19769,8701,58079
19743,8684,58029
19715,8664,57969
19688,8644,57906
19664,8627,57844
19642,8609,57781
19618,8589,57721
19586,8569,57664
19542,8545,57603
19484,8516,57529
19409,8478,57434
19321,8431,57319
19219,8374,57181
19101,8307,57021
18968,8230,56837
18825,8145,56635
18676,8055,56424
18527,7965,56208
18381,7877,55991
18242,7794,55778
18111,7718,55580
17989,7650,55404
17879,7588,55250
17786,7535,55119
17712,7495,55014
17657,7469,54938
17623,7455,54892
17610,7452,54873
17613,7460,54878
17631,7477,54905
17665,7502,54949
17710,7530,55001
17760,7558,55058
17809,7583,55115
17850,7605,55167
17879,7623,55210
17896,7633,55244
17905,7637,55265
17903,7633,55273
17889,7622,55265
17864,7608,55244
17828,7588,55207
17781,7563,55152
17727,7533,55077
17668,7498,54987
17604,7459,54887
17534,7417,54778
17457,7372,54661
17374,7327,54542
17291,7282,54424
17208,7235,54306
17127,7187,54185
17051,7141,54065
16981,7101,53949
16915,7064,53835
16852,7029,53723
16792,6995,53616
16731,6962,53515
16667,6926,53412
16598,6885,53307
16529,6841,53202
16460,6798,53097
16390,6757,52991
16314,6717,52884
16236,6677,52776
16155,6637,52668
16069,6596,52557
15979,6552,52444
15891,6509,52331
15813,6469,52222
15747,6435,52122
15691,6405,52032
15647,6380,51955
15615,6360,51893
15596,6347,51844
15592,6343,51808
15601,6347,51784
15618,6355,51768
15641,6365,51760
15670,6379,51761
15704,6397,51771
15742,6417,51785
15778,6436,51800
15808,6451,51810
15829,6460,51810
15837,6462,51799
15833,6458,51778
15815,6451,51749
15786,6440,51711
15753,6424,51664
15719,6402,51610
15681,6376,51545
15639,6346,51472
15591,6315,51393
15541,6283,51314
15490,6252,51235
15437,6221,51161
15384,6192,51087
15331,6161,51011
15275,6131,50932
15217,6100,50850
15156,6069,50764
15087,6033,50672
15014,5995,50574
14935,5954,50470
14854,5912,50358
14774,5870,50242
14698,5830,50128
14626,5793,50019
14559,5759,49915
14499,5726,49815
14443,5695,49723
14387,5666,49639
14332,5641,49563
14282,5622,49501
14246,5611,49461
14230,5609,49448
14237,5618,49471
14277,5643,49547
14357,5689,49688
14483,5760,49904
14653,5856,50193
14868,5978,50557
15129,6122,50992
15431,6289,51492
15768,6475,52049
16133,6679,52645
16513,6895,53265
16899,7114,53890
17283,7334,54505
17661,7551,55098
18024,7760,55657
18363,7955,56173
18672,8131,56637
18947,8286,57041
19188,8418,57382
19389,8529,57662
19553,8619,57883
19681,8688,58050
19778,8739,58166
19848,8775,58238
19895,8797,58272
19918,8808,58276
19921,8808,58254
19907,8797,58211
19879,8778,58152
19842,8753,58085
19796,8724,58010
19740,8690,57925
19674,8651,57825
19596,8606,57709
19503,8554,57578
19395,8492,57428
19272,8421,57257
19137,8341,57065
18994,8257,56860
18849,8168,56643
18699,8075,56416
18540,7980,56180
18378,7888,55945
18223,7801,55720
18081,7724,55514
17954,7657,55331
17844,7597,55175
17757,7548,55050
17697,7513,54961
17668,7494,54910
17663,7486,54889
17678,7489,54891
17704,7501,54915
17733,7517,54953
17758,7530,54994
17778,7541,55029
17792,7551,55062
17802,7560,55095
17807,7565,55126
17807,7566,55149
17808,7567,55166
17813,7568,55179
17815,7566,55187
17813,7562,55185
17808,7555,55174
17798,7547,55157
17782,7537,55136
17759,7524,55107
17733,7509,55072
17703,7493,55028
17670,7476,54978
17633,7455,54921
17593,7431,54855
17549,7404,54779
17503,7374,54693
17457,7342,54598
17412,7311,54501
17370,7283,54405
17331,7258,54311
17296,7236,54223
17267,7217,54142
17244,7200,54066
17225,7185,53993
17209,7170,53923
17190,7157,53858
17166,7143,53795
17137,7127,53733
17105,7109,53671
17070,7089,53608
17030,7067,53541
16982,7040,53468
16929,7010,53393
16871,6980,53317
16807,6949,53238
16742,6917,53154
16680,6886,53070
16625,6856,52989
16576,6829,52910
16530,6802,52833
16487,6773,52759
16441,6743,52689
16394,6714,52623
16348,6688,52560
16307,6664,52498
16268,6642,52435
16230,6620,52368
16193,6600,52301
16159,6583,52238
16128,6569,52177
16101,6556,52121
16077,6544,52072
16055,6532,52028
16032,6520,51989
16007,6508,51952
15980,6495,51916
15952,6478,51879
15923,6460,51841
15895,6440,51801
15872,6423,51764
15853,6410,51728
15835,6397,51692
15819,6385,51655
15806,6376,51614
15791,6366,51565
15768,6351,51508
15736,6330,51438
15693,6304,51357
15638,6273,51265
15574,6239,51163
15505,6205,51056
15433,6171,50949
15363,6137,50848
15302,6106,50758
15257,6079,50684
15227,6061,50625
15216,6054,50589
15232,6059,50583
15276,6082,50614
15352,6124,50693
15462,6187,50832
15614,6273,51039
15816,6385,51320
16068,6524,51679
16368,6693,52115
16711,6886,52623
17090,7101,53192
17499,7335,53810
17932,7584,54461
18380,7842,55132
18831,8102,55808
19277,8361,56471
19706,8612,57109
20113,8849,57711
20492,9067,58268
20836,9263,58771
21140,9438,59211
21398,9588,59585
21617,9716,59896
21800,9824,60150
21953,9915,60354
22079,9989,60511
22181,10047,60623
22265,10094,60700
22337,10131,60748
22396,10159,60772
22446,10181,60778
22488,10197,60770
22520,10208,60752
22538,10213,60726
22541,10208,60691
22527,10189,60640
22494,10159,60569
22436,10119,60477
22354,10063,60358
22244,9991,60207
22108,9904,60021
21947,9805,59804
21766,9693,59562
21569,9571,59300
21362,9444,59027
21153,9319,58751
20947,9199,58480
20751,9085,58219
20574,8980,57979
20423,8890,57771
20297,8817,57599
20194,8760,57465
20115,8714,57366
20061,8680,57297
20024,8656,57253
19999,8643,57231
19985,8636,57225
19981,8634,57232
19979,8637,57246
19972,8641,57261
19959,8642,57270
19935,8636,57270
19902,8623,57261
19860,8603,57243
19807,8575,57210
19746,8540,57163
19679,8501,57101
19603,8458,57023
19516,8412,56931
19424,8364,56831
19330,8317,56725
19234,8267,56612
19133,8214,56488
19033,8161,56360
18939,8112,56235
18850,8061,56112
18766,8009,55991
18689,7959,55875
18616,7913,55761
18535,7867,55641
18447,7819,55514
18359,7769,55385
18271,7721,55256
18180,7672,55125
18084,7621,54991
17985,7568,54857
17886,7514,54722
17786,7458,54584
17688,7405,54452
17598,7356,54329
17515,7311,54215
17437,7272,54106
17362,7237,53999
17290,7206,53897
17226,7176,53802
17172,7149,53716
17127,7126,53641
17088,7107,53575
17055,7093,53516
17024,7080,53463
16994,7066,53413
16963,7050,53360
16926,7028,53301
16882,7003,53233
16835,6975,53159
16784,6944,53080
16730,6908,52998
16668,6869,52911
16600,6828,52824
16530,6788,52738
16460,6751,52654
16390,6716,52570
16320,6683,52483
16253,6651,52392
16189,6620,52298
16128,6588,52207
16070,6558,52121
16020,6532,52046
15982,6511,51986
15956,6498,51942
15942,6490,51913
15936,6485,51894
15937,6483,51879
15946,6486,51870
15960,6491,51863
15969,6494,51852
15969,6492,51829
15960,6482,51794
15942,6466,51749
15914,6444,51693
15874,6416,51626
15821,6383,51547
15754,6346,51454
15674,6304,51346
15584,6258,51226
15488,6211,51098
15388,6162,50966
15283,6111,50832
15180,6060,50697
15081,6009,50563
14990,5963,50438
14913,5924,50331
14861,5899,50251
14843,5893,50217
14867,5910,50246
14944,5955,50353
15082,6033,50551
15286,6149,50849
15558,6304,51252
15893,6496,51755
16287,6720,52352
16732,6973,53030
17215,7250,53770
17721,7541,54545
18236,7836,55331
18745,8130,56102
19234,8414,56843
19695,8682,57535
20115,8926,58163
20485,9142,58719
20799,9325,59201
21062,9477,59604
21275,9600,59928
21441,9693,60179
21562,9759,60362
21643,9802,60484
21691,9827,60552
21713,9836,60577
21713,9834,60570
21701,9825,60545
21687,9816,60513
21675,9810,60481
21670,9809,60457
21677,9813,60444
21695,9823,60443
21723,9837,60446
21754,9850,60452
21783,9862,60459
21805,9870,60463
21818,9872,60459
21814,9867,60437
21793,9851,60389
21752,9823,60313
21690,9782,60207
21602,9727,60070
21490,9658,59903
21358,9576,59708
21212,9485,59490
21056,9386,59255
20894,9282,59014
20732,9180,58778
20577,9086,58553
20436,9002,58348
20315,8930,58169
20221,8874,58024
20152,8833,57916
20107,8807,57844
20087,8797,57808
20092,8802,57803
20114,8818,57825
20149,8839,57862
20189,8861,57907
20227,8884,57959
20262,8908,58012
20290,8926,58060
20307,8937,58093
20314,8942,58111
20309,8941,58115
20292,8932,58103
20264,8915,58075
20229,8895,58036
20191,8872,57989
20153,8849,57935
20117,8829,57877
20085,8813,57818
20052,8798,57756
20017,8781,57688
19982,8763,57616
19949,8742,57543
19912,8716,57466
19865,8683,57379
19809,8644,57281
19747,8603,57174
19681,8559,57062
19609,8512,56943
19527,8463,56817
19441,8413,56686
19354,8365,56553
19264,8317,56414
19170,8269,56271
19075,8219,56127
18978,8167,55985
18881,8113,55849
18789,8061,55718
18707,8012,55594
18636,7967,55478
18574,7929,55375
18526,7899,55291
18490,7879,55222
18468,7867,55167
18459,7863,55127
18461,7864,55099
18466,7867,55076
18470,7867,55049
18467,7864,55015
18453,7856,54973
18424,7839,54922
18381,7813,54859
18327,7777,54784
18262,7736,54696
18185,7690,54597
18103,7640,54489
18020,7588,54377
17936,7540,54264
17851,7496,54153
17770,7456,54043
17697,7418,53940
17635,7385,53849
17583,7357,53768
17539,7332,53694
17504,7311,53626
17475,7293,53563
17451,7275,53499
17429,7257,53433
17404,7239,53370
17374,7220,53309
17336,7198,53243
17289,7171,53172
17234,7140,53096
17172,7108,53016
17108,7073,52930
17041,7034,52838
16969,6993,52740
16891,6948,52637
16809,6902,52531
16725,6854,52422
16642,6808,52313
16560,6764,52204
16477,6721,52091
16391,6676,51971
16305,6631,51846
16222,6587,51720
16143,6544,51593
16070,6505,51469
16008,6471,51355
15959,6445,51255
15921,6422,51169
15896,6407,51101
15894,6406,51063
15920,6422,51073
15980,6458,51143
16082,6519,51288
16240,6612,51519
16462,6742,51844
16747,6907,52267
17092,7105,52787
17491,7332,53388
17929,7583,54051
18387,7847,54757
18855,8118,55487
19322,8392,56220
19777,8662,56935
20211,8922,57615
20618,9164,58248
20996,9384,58828
21340,9581,59350
21649,9758,59813
21925,9918,60219
22168,10061,60571
22376,10185,60869
22550,10289,61114
22689,10371,61309
22800,10435,61458
22888,10484,61566
22955,10520,61636
22998,10543,61673
23021,10555,61678
23024,10552,61654
23012,10539,61606
22989,10521,61544
22959,10496,61470
22921,10464,61386
22876,10427,61296
22823,10387,61204
22765,10347,61109
22701,10305,61010
22632,10261,60906
22556,10213,60795
22472,10160,60673
22377,10102,60533
22269,10038,60374
22145,9966,60193
22003,9884,59987
21851,9796,59761
21696,9703,59526
21546,9610,59292
21399,9518,59066
21256,9430,58855
21126,9352,58663
21015,9289,58499
20925,9239,58368
20854,9199,58270
20802,9168,58201
20764,9145,58157
20739,9129,58130
20721,9118,58113
20707,9109,58103
20694,9101,58094
20679,9091,58077
20661,9079,58049
20633,9062,58011
20594,9040,57965
20550,9014,57913
20508,8987,57860
20464,8959,57807
20417,8931,57753
20368,8903,57696
20321,8873,57636
20279,8845,57575
20243,8819,57517
20212,8798,57463
20182,8781,57407
20153,8766,57349
20124,8751,57287
20092,8734,57215
20055,8712,57133
20015,8688,57040
19972,8663,56938
19920,8631,56826
19858,8591,56704
19786,8546,56575
19710,8498,56442
19633,8448,56311
19560,8400,56187
19493,8355,56069
19433,8316,55959
19378,8282,55859
19329,8252,55770
19286,8224,55687
19245,8194,55605
19204,8161,55523
19161,8129,55442
19113,8098,55360
19062,8065,55274
19011,8032,55188
18959,7999,55102
18904,7968,55016
18845,7937,54927
18785,7905,54838
18724,7875,54750
18664,7844,54662
18605,7813,54573
18549,7782,54486
18496,7753,54406
18446,7723,54330
18393,7691,54251
18336,7656,54171
18277,7624,54089
18216,7594,54003
18150,7559,53912
18080,7518,53818
18011,7478,53723
17946,7442,53632
17888,7409,53549
17841,7380,53476
17810,7357,53414
17790,7341,53362
17777,7329,53317
17766,7321,53277
17759,7317,53242
17755,7315,53212
17750,7313,53183
17743,7309,53150
17730,7302,53113
17707,7289,53068
17670,7268,53011
17618,7237,52939
17547,7198,52850
17460,7151,52742
17360,7098,52617
17252,7039,52479
17135,6977,52335
17009,6912,52183
16875,6847,52026
16742,6782,51868
16610,6714,51712
16480,6645,51557
16355,6575,51405
16234,6509,51256
16117,6446,51108
16001,6386,50959
15887,6326,50811
15777,6267,50668
15672,6210,50529
15573,6155,50390
15479,6105,50255
15391,6060,50128
15308,6019,50012
15230,5981,49909
15165,5950,49829
15119,5932,49782
15101,5928,49780
15116,5943,49834
15174,5983,49959
15287,6052,50167
15463,6154,50469
15705,6291,50868
16012,6462,51362
16377,6666,51938
16790,6898,52584
17237,7154,53281
17708,7428,54007
18189,7708,54744
18664,7986,55471
19120,8250,56164
19542,8494,56804
19920,8713,57380
20249,8904,57885
20529,9066,58316
20764,9204,58677
20959,9319,58971
21116,9410,59203
21236,9478,59375
21323,9526,59494
21380,9555,59565
21408,9566,59595
21411,9560,59587
21394,9541,59548
21360,9513,59483
21314,9477,59393
21257,9434,59286
21190,9389,59170
21114,9341,59048
21025,9288,58920
20927,9229,58786
20828,9169,58649
20731,9111,58508
20634,9052,58361
20535,8994,58207
20432,8935,58046
20327,8873,57876
20216,8804,57698
20100,8731,57515
19979,8657,57330
19860,8584,57145
19746,8513,56962
19638,8446,56782
19534,8382,56610
19434,8321,56449
19343,8262,56301
19263,8209,56168
19192,8164,56053
19129,8125,55954
19073,8092,55870
19026,8069,55802
18988,8050,55746
18957,8033,55700
18936,8020,55668
18930,8014,55655
18937,8016,55658
18955,8025,55669
18986,8037,55687
19028,8053,55715
19076,8075,55749
19123,8100,55786
19163,8123,55817
19195,8143,55842
19219,8156,55857
19224,8160,55854
19206,8153,55827
19168,8133,55773
19112,8100,55694
19035,8055,55586
18940,8001,55452
18827,7939,55298
18701,7868,55130
18569,7792,54949
18437,7716,54760
18310,7641,54574
18190,7569,54398
18082,7506,54234
17986,7453,54081
17905,7408,53942
17837,7367,53819
17775,7330,53707
17716,7295,53600
17658,7261,53495
17597,7226,53394
17529,7186,53294
17453,7145,53194
17371,7103,53093
17284,7060,52988
17190,7012,52877
17094,6960,52759
16997,6908,52639
16897,6852,52514
16791,6793,52385
16685,6735,52253
16579,6677,52117
16471,6620,51983
16365,6565,51854
16269,6517,51735
16191,6479,51628
16130,6450,51534
16081,6428,51453
16043,6410,51385
16013,6393,51328
15986,6374,51274
15955,6355,51218
15915,6334,51159
15865,6311,51095
15802,6285,51023
15728,6253,50941
15642,6213,50851
15544,6166,50753
15439,6113,50647
15330,6058,50538
15218,6003,50426
15104,5948,50310
14992,5892,50190
14884,5839,50073
14786,5792,49960
14701,5749,49852
14630,5713,49751
14574,5683,49662
14531,5658,49586
14500,5640,49524
14480,5629,49471
14467,5622,49426
14460,5617,49387
14456,5612,49351
14454,5608,49318
14454,5604,49287
14453,5598,49256
14447,5585,49220
14433,5567,49176
14410,5548,49126
14378,5530,49071
14340,5512,49009
14298,5494,48941
14252,5474,48867
14201,5452,48788
14145,5424,48702
14084,5391,48606
14021,5357,48503
13955,5322,48393
13882,5284,48276
13804,5243,48152
13724,5199,48026
13645,5154,47902
13571,5112,47783
13506,5077,47675
13454,5050,47587
13423,5037,47535
13422,5039,47531
13461,5062,47588
13549,5111,47723
13695,5193,47949
13904,5307,48273
14175,5454,48696
14504,5632,49210
14885,5839,49805
15309,6068,50465
15764,6312,51169
16236,6568,51898
16713,6828,52628
17179,7083,53340
17622,7328,54014
18033,7555,54638
18405,7760,55200
18731,7941,55690
19009,8098,56106
19239,8227,56445
19422,8326,56706
19557,8394,56895
19644,8436,57018
19687,8455,57078
19690,8457,57083
19663,8441,57046
19617,8413,56977
19559,8377,56883
19492,8335,56771
19417,8290,56646
19341,8244,56514
19266,8199,56381
19191,8154,56247
19114,8108,56115
19032,8062,55985
18943,8014,55850
18845,7960,55705
18737,7900,55548
18618,7833,55380
18486,7756,55198
18337,7667,54993
18173,7568,54764
17992,7464,54517
17799,7356,54256
17601,7247,53986
17404,7139,53714
17217,7036,53449
17046,6944,53201
16894,6862,52981
16766,6794,52795
16665,6743,52650
16594,6710,52547
16550,6694,52488
16534,6693,52468
16542,6702,52482
16571,6723,52524
16617,6752,52588
16676,6788,52668
16743,6826,52757
16812,6861,52846
16877,6891,52931
16934,6918,53005
16976,6937,53059
16998,6942,53090
17000,6934,53096
16982,6916,53082
16946,6892,53044
16891,6861,52981
16825,6825,52900
16756,6788,52812
16689,6753,52722
16626,6720,52632
16573,6689,52542
16527,6662,52457
16484,6641,52378
16441,6620,52302
16396,6597,52228
16350,6572,52158
16304,6546,52087
16254,6518,52009
16196,6485,51920
16127,6444,51817
16047,6397,51699
15949,6345,51562
15840,6289,51409
15728,6229,51245
15616,6168,51075
15506,6108,50908
15403,6052,50752
15307,6001,50608
15219,5953,50478
15144,5912,50363
15083,5878,50267
15035,5850,50192
14998,5828,50133
14969,5813,50082
14950,5801,50037
14937,5793,49993
14922,5786,49946
14902,5778,49895
14875,5766,49837
14839,5748,49772
14793,5722,49699
14732,5687,49615
14653,5644,49517
14559,5594,49402
14452,5540,49271
14331,5479,49128
14205,5415,48979
14083,5353,48833
13972,5296,48699
13874,5247,48578
13795,5208,48472
13732,5178,48381
13687,5155,48308
13659,5140,48254
13644,5132,48214
13636,5128,48181
13628,5126,48154
13614,5123,48127
13593,5117,48095
13561,5106,48051
13516,5087,47993
13459,5058,47921
13390,5022,47834
13311,4979,47732
13220,4934,47616
13117,4887,47487
13006,4833,47347
12890,4774,47202
12773,4712,47053
12660,4652,46909
12553,4597,46770
12454,4546,46638
12363,4498,46511
12282,4454,46391
12211,4416,46278
12148,4383,46175
12089,4354,46080
12032,4326,45989
11973,4300,45902
11913,4275,45815
11851,4249,45731
11792,4228,45656
11743,4212,45598
11707,4203,45566
11694,4205,45570
11714,4223,45627
11781,4263,45755
11903,4329,45966
12089,4424,46265
12335,4548,46653
12634,4699,47122
12973,4873,47661
13343,5064,48256
13739,5269,48890
14150,5481,49541
14563,5694,50189
14965,5902,50814
15346,6101,51408
15703,6289,51961
16029,6462,52462
16318,6617,52902
16569,6752,53284
16782,6870,53610
16957,6967,53878
17095,7043,54086
17196,7097,54238
17263,7132,54340
17298,7148,54394
17304,7147,54403
17287,7133,54372
17248,7107,54305
17188,7071,54208
17109,7026,54088
17015,6973,53951
16908,6916,53799
16796,6856,53635
16680,6795,53462
16562,6731,53283
16441,6666,53095
16313,6599,52901
16177,6528,52701
16035,6453,52495
15889,6376,52282
15739,6295,52058
15584,6211,51824
15425,6125,51587
15263,6039,51351
15102,5954,51119
14946,5873,50894
14800,5798,50685
14673,5732,50499
14568,5676,50341
14482,5631,50211
14415,5597,50114
14368,5573,50046
14335,5558,50002
14315,5549,49979
14304,5546,49973
14301,5548,49977
14301,5552,49985
14296,5553,49995
14284,5551,50004
14265,5543,50006
14239,5532,49999
14209,5518,49984
14172,5502,49962
14131,5485,49930
14084,5464,49885
14031,5439,49828
13973,5412,49761
13912,5383,49688
13848,5352,49609
13781,5320,49527
13713,5286,49440
13643,5247,49348
13566,5204,49248
13484,5157,49139
13395,5110,49022
13299,5061,48897
13198,5013,48764
13095,4964,48628
12989,4915,48487
12881,4864,48342
12771,4810,48193
12658,4753,48041
12542,4698,47890
12425,4646,47740
12308,4594,47591
12197,4543,47447
12090,4496,47308
11986,4451,47171
11887,4407,47038
11790,4361,46902
11690,4313,46762
11586,4263,46621
11480,4213,46477
11371,4162,46330
11263,4111,46182
11156,4059,46038
11051,4007,45900
10949,3957,45768
10850,3910,45643
10756,3868,45524
10671,3832,45416
10599,3801,45321
10539,3774,45240
10489,3750,45168
10443,3727,45104
10393,3704,45039
10338,3680,44971
10278,3654,44902
10219,3630,44832
10157,3605,44759
10089,3576,44683
10020,3542,44603
9951,3507,44519
9882,3471,44432
9809,3436,44342
9737,3403,44251
9667,3371,44162
9597,3343,44075
9523,3315,43988
9446,3284,43899
9369,3252,43805
9295,3220,43709
9224,3189,43613
9154,3159,43517
9085,3131,43424
9018,3103,43335
8953,3074,43251
8894,3044,43173
8842,3014,43098
8792,2986,43026
8742,2958,42953
8688,2931,42875
8627,2903,42789
8556,2874,42695
8478,2844,42595
8396,2813,42487
8308,2780,42373
8217,2745,42256
8124,2709,42137
8033,2671,42020
7944,2633,41907
7861,2597,41800
7789,2564,41708
7735,2539,41646
7710,2528,41625
7725,2534,41657
7785,2564,41750
7895,2619,41920
8061,2702,42178
8287,2812,42528
8575,2949,42972
8920,3113,43503
9313,3303,44111
9741,3511,44777
10192,3733,45478
10654,3961,46194
11113,4187,46903
11555,4405,47587
11970,4611,48228
12348,4800,48815
12687,4969,49342
12983,5117,49805
13236,5244,50195
13449,5350,50514
13626,5436,50766
13770,5506,50959
13887,5562,51103
13978,5604,51206
14044,5632,51270
14084,5648,51299
14099,5652,51292
14089,5646,51250
14056,5628,51178
14004,5602,51084
13936,5567,50975
13854,5528,50852
13761,5483,50718
13659,5433,50575
13551,5381,50423
13439,5326,50263
13321,5268,50096
13197,5205,49922
13068,5139,49741
12932,5070,49553
12788,4998,49355
12642,4924,49145
12493,4848,48927
12342,4772,48707
12192,4696,48490
12049,4622,48281
11913,4554,48087
11786,4492,47906
11673,4438,47741
11578,4393,47597
11498,4356,47474
11435,4326,47373
11385,4301,47292
11342,4281,47231
11306,4266,47187
11273,4256,47157
11246,4248,47139
11224,4242,47131
11205,4234,47128
11182,4223,47122
11155,4210,47112
11129,4198,47105
11110,4188,47100
11093,4179,47095
11077,4171,47084
11063,4167,47072
11052,4166,47062
11043,4166,47050
11036,4166,47031
11029,4165,47007
11019,4163,46976
11002,4156,46938
10976,4145,46894
10945,4129,46844
10907,4110,46783
10859,4085,46706
10799,4052,46610
10729,4016,46498
10650,3975,46375
10565,3933,46244
10479,3891,46108
10393,3848,45970
10309,3806,45834
10228,3767,45701
10152,3730,45575
10081,3694,45457
10014,3661,45346
9951,3631,45244
9897,3606,45154
9852,3587,45075
9810,3571,45000
9768,3555,44924
9724,3536,44850
9681,3516,44779
9633,3493,44703
9579,3467,44618
9519,3439,44526
9451,3406,44431
9372,3368,44330
9281,3327,44219
9184,3283,44097
9081,3239,43966
8973,3194,43830
8862,3149,43695
8756,3105,43565
8660,3064,43443
8579,3028,43333
8511,2998,43236
8456,2972,43156
8414,2950,43094
8385,2933,43046
8365,2921,43008
8351,2912,42972
8338,2904,42935
8325,2893,42897
8314,2881,42858
8301,2871,42820
8286,2864,42783
8268,2857,42745
8247,2848,42701
8225,2840,42652
8199,2832,42600
8169,2821,42541
8136,2806,42477
8102,2791,42415
8067,2777,42357
8035,2764,42303
8009,2752,42255
7986,2741,42213
7964,2731,42173
7944,2721,42130
7923,2708,42083
7898,2692,42030
7866,2673,41973
7826,2650,41910
7780,2627,41839
7733,2604,41761
7686,2582,41679
7642,2561,41596
7599,2543,41514
7558,2526,41434
7515,2510,41358
7474,2495,41286
7440,2484,41224
7417,2479,41180
7412,2479,41165
7432,2490,41194
7490,2518,41282
7599,2569,41445
7764,2646,41693
7988,2750,42033
8271,2883,42467
8612,3045,42992
9010,3234,43598
9457,3446,44267
9941,3673,44984
10445,3911,45726
10949,4153,46470
11441,4393,47197
11910,4622,47889
12347,4835,48529
12744,5029,49104
13095,5200,49610
13398,5349,50045
13651,5474,50409
13852,5571,50698
14004,5642,50912
14110,5690,51058
14176,5719,51143
14202,5729,51171
14193,5722,51151
14151,5698,51089
14082,5660,50995
13992,5612,50876
13889,5558,50737
13780,5500,50585
13672,5443,50427
13567,5389,50270
13468,5339,50118
13376,5296,49973
13289,5256,49834
13207,5218,49702
13128,5178,49573
13053,5140,49444
12978,5100,49314
12901,5059,49179
12817,5015,49034
12724,4966,48876
12617,4910,48703
12497,4848,48520
12369,4784,48331
12236,4719,48144
12104,4655,47965
11981,4597,47799
11876,4547,47651
11788,4506,47524
11714,4472,47416
11652,4444,47327
11602,4422,47259
11564,4404,47209
11535,4389,47176
11513,4379,47158
11497,4372,47152
11488,4367,47155
11485,4365,47161
11490,4365,47169
11500,4368,47180
11510,4369,47190
11518,4370,47198
11522,4373,47205
11523,4375,47211
11522,4376,47212
11521,4374,47206
11521,4372,47192
11519,4368,47172
11513,4364,47143
11506,4360,47108
11501,4357,47070
11495,4353,47025
11480,4342,46970
11454,4325,46905
11418,4303,46829
11371,4277,46742
11312,4247,46645
11242,4211,46536
11162,4172,46416
11074,4130,46286
10975,4084,46147
10868,4036,46006
10762,3989,45867
10663,3943,45732
10571,3898,45599
10483,3854,45471
10401,3815,45352
10329,3778,45243
10264,3746,45140
10203,3716,45041
10148,3689,44949
10095,3663,44860
10040,3638,44770
9983,3610,44678
9926,3581,44588
9863,3549,44498
9798,3516,44405
9732,3483,44311
9668,3450,44217
9606,3419,44125
9547,3390,44036
9487,3363,43950
9427,3339,43868
9367,3316,43790
9306,3294,43714
9245,3270,43638
9183,3244,43562
9122,3218,43487
9062,3193,43411
9004,3168,43337
8952,3143,43269
8909,3121,43209
8873,3104,43156
8847,3091,43107
8826,3082,43060
8807,3075,43015
8785,3067,42971
8760,3059,42926
8734,3049,42877
8706,3038,42827
8675,3026,42777
8639,3010,42728
8596,2989,42671
8549,2964,42605
8495,2936,42530
8434,2908,42448
8367,2879,42357
8291,2847,42258
8206,2811,42153
8119,2774,42047
8033,2733,41942
7948,2691,41834
7866,2648,41726
7785,2606,41618
7704,2567,41508
7626,2532,41395
7553,2499,41283
7484,2470,41176
7417,2442,41077
7353,2413,40982
7295,2384,40893
7242,2357,40816
7197,2336,40755
7166,2323,40719
7157,2323,40719
7180,2336,40768
7242,2366,40879
7352,2418,41063
7521,2497,41337
7756,2606,41709
8057,2747,42178
8422,2919,42735
8846,3119,43370
9315,3341,44066
9812,3575,44801
10320,3815,45550
10828,4057,46293
11325,4295,47015
11801,4527,47703
12255,4752,48350
12686,4966,48949
13087,5162,49490
13452,5340,49966
13774,5498,50373
14052,5634,50710
14283,5744,50978
14466,5829,51179
14603,5890,51319
14696,5931,51403
14747,5953,51436
14760,5956,51422
14744,5944,51374
14704,5922,51299
14646,5892,51203
14577,5856,51090
14501,5816,50970
14421,5774,50848
14336,5731,50722
14248,5685,50588
14159,5639,50452
14074,5592,50311
13990,5543,50164
13903,5491,50006
13812,5436,49841
13719,5384,49674
13625,5332,49502
13526,5278,49325
13424,5223,49148
13324,5170,48978
13227,5120,48815
13133,5071,48664
13049,5026,48528
12976,4987,48414
12917,4955,48322
12871,4933,48251
12835,4917,48199
12808,4903,48163
12791,4894,48141
12782,4889,48130
12775,4887,48130
12766,4887,48132
12757,4886,48133
12749,4882,48134
12740,4876,48133
12727,4867,48125
12707,4855,48110
12680,4842,48086
12647,4826,48055
12607,4807,48018
12564,4786,47974
12521,4764,47926
12477,4741,47873
12431,4716,47814
12377,4687,47744
12318,4653,47664
12253,4618,47576
12183,4583,47479
12106,4548,47373
12027,4511,47263
11949,4474,47154
11871,4437,47042
11790,4399,46924
11706,4359,46803
11625,4320,46685
11546,4282,46568
11467,4244,46449
11387,4206,46329
11305,4166,46206
11219,4124,46080
11129,4078,45953
11036,4030,45823
10941,3982,45688
10844,3932,45548
10744,3880,45405
10640,3827,45260
10534,3774,45114
10423,3720,44967
10307,3667,44817
10193,3616,44670
10083,3566,44526
9975,3519,44388
9871,3476,44258
9780,3440,44140
9704,3411,44035
9639,3386,43942
9582,3362,43858
9534,3341,43784
9492,3319,43717
9452,3298,43655
9414,3279,43596
9379,3264,43537
9342,3247,43476
9302,3226,43410
9258,3202,43340
9207,3175,43265
9149,3144,43185
9083,3111,43098
9008,3077,43009
8926,3042,42916
8840,3005,42819
8754,2968,42718
8669,2930,42617
8582,2893,42517
8493,2856,42417
8406,2820,42317
8324,2788,42221
8247,2759,42131
8173,2730,42048
8102,2701,41970
8041,2674,41898
7990,2649,41832
7945,2626,41768
7905,2605,41705
7870,2585,41645
7837,2569,41590
7803,2554,41534
7762,2538,41473
7715,2517,41405
7657,2490,41326
7587,2458,41236
7507,2423,41136
7422,2386,41028
7337,2351,40919
7251,2316,40807
7163,2280,40690
7070,2242,40568
6973,2201,40444
6877,2159,40321
6786,2119,40207
6708,2085,40112
6652,2062,40043
6625,2054,40009
6634,2061,40024
6687,2087,40104
6791,2136,40264
6952,2211,40515
7176,2313,40865
7463,2447,41312
7809,2611,41851
8207,2800,42466
8646,3007,43143
9115,3228,43865
9595,3454,44605
10071,3681,45338
10529,3901,46040
10958,4112,46695
11346,4305,47288
11688,4475,47811
11984,4618,48257
12236,4735,48627
12441,4830,48923
12601,4904,49148
12720,4958,49304
12800,4991,49399
12843,5007,49437
12852,5009,49426
12829,4999,49376
12778,4974,49291
12706,4936,49180
12617,4887,49050
12513,4828,48903
12397,4765,48743
12275,4701,48575
12152,4637,48404
12029,4574,48231
11903,4513,48055
11773,4455,47876
11642,4396,47697
11514,4337,47519
11391,4279,47337
11270,4219,47152
11149,4157,46963
11027,4094,46773
10901,4030,46583
10772,3968,46395
10644,3910,46213
10526,3857,46047
10422,3811,45901
10330,3772,45777
10253,3740,45673
10192,3716,45589
10145,3698,45523
10113,3684,45478
10096,3675,45455
10092,3673,45452
10097,3674,45464
10110,3679,45490
10132,3691,45530
10163,3709,45583
10202,3731,45647
10248,3755,45720
10297,3781,45801
10346,3808,45883
10391,3833,45960
10432,3857,46029
10464,3875,46086
10483,3886,46126
10490,3890,46149
10486,3886,46153
10473,3876,46140
10450,3862,46108
10415,3844,46057
10372,3823,45992
10322,3798,45918
10264,3769,45831
10198,3735,45731
10125,3698,45618
10045,3658,45494
9960,3616,45361
9870,3573,45226
9779,3532,45097
9692,3495,44978
9615,3465,44872
9550,3440,44776
9497,3419,44691
9452,3399,44615
9412,3378,44543
9372,3356,44472
9328,3335,44402
9284,3316,44334
9237,3299,44263
9185,3281,44186
9126,3257,44103
9061,3228,44013
8986,3195,43917
8900,3159,43812
8805,3121,43698
8709,3081,43579
8615,3040,43461
8522,2998,43341
8428,2954,43222
8337,2912,43110
8257,2878,43012
8190,2852,42925
8138,2830,42851
8102,2813,42790
8079,2801,42741
8069,2796,42705
8070,2794,42679
8080,2795,42662
8093,2796,42648
8105,2796,42635
8111,2795,42620
8112,2795,42602
8109,2794,42582
8100,2789,42555
8081,2781,42520
8048,2769,42475
8002,2753,42420
7949,2734,42359
7890,2710,42295
7824,2682,42224
7748,2651,42144
7660,2615,42054
7565,2575,41956
7466,2532,41846
7364,2487,41726
7257,2440,41597
7148,2389,41462
7037,2336,41319
6923,2283,41173
6813,2234,41028
6712,2191,40892
6620,2153,40769
6541,2122,40665
6476,2096,40578
6424,2074,40504
6386,2055,40446
6361,2041,40408
6356,2038,40402
6379,2050,40438
6438,2076,40525
6536,2121,40676
6682,2188,40901
6878,2279,41206
7121,2393,41585
7408,2529,42035
7737,2686,42549
8102,2859,43116
8494,3043,43724
8904,3234,44358
9324,3430,45002
9744,3624,45637
10149,3812,46246
10532,3990,46816
10885,4156,47336
11201,4306,47798
11478,4436,48195
11715,4548,48525
11912,4642,48789
12064,4717,48988
12175,4770,49126
12251,4804,49212
12295,4823,49257
12309,4829,49262
12296,4819,49230
12259,4797,49164
12198,4766,49070
12118,4728,48952
12025,4685,48813
11920,4635,48656
11803,4579,48481
11672,4515,48288
11530,4447,48080
11382,4376,47864
11228,4304,47639
11069,4227,47405
10905,4144,47164
10737,4059,46920
10566,3974,46674
10396,3891,46429
10234,3811,46191
10083,3738,45967
9946,3674,45762
9828,3619,45585
9734,3575,45438
9663,3542,45323
9610,3519,45241
9572,3504,45188
9548,3496,45161
9539,3498,45158
9545,3507,45174
9562,3518,45201
9585,3529,45236
9610,3539,45278
9635,3549,45323
9662,3558,45367
9687,3567,45408
9709,3576,45444
9727,3583,45475
9736,3589,45497
9737,3593,45509
9732,3595,45513
9724,3593,45510
9713,3589,45498
9702,3585,45477
9695,3579,45450
9687,3572,45419
9672,3562,45381
9648,3550,45339
9614,3535,45289
9571,3516,45227
9520,3492,45151
9463,3467,45063
9400,3439,44966
9331,3408,44861
9259,3374,44751
9188,3338,44643
9115,3303,44534
9038,3266,44419
8956,3229,44299
8868,3190,44177
8780,3151,44054
8695,3112,43933
8615,3075,43813
8537,3036,43699
8459,2997,43591
8384,2961,43487
8319,2930,43390
8266,2905,43300
8223,2887,43219
8187,2870,43143
8153,2850,43073
8122,2832,43011
8091,2816,42955
8056,2801,42899
8017,2784,42841
7973,2764,42779
7923,2741,42710
7865,2715,42632
7799,2686,42548
7728,2654,42457
7652,2620,42361
7576,2587,42262
7501,2556,42167
7433,2529,42079
7375,2504,42000
7326,2480,41931
7287,2459,41871
7260,2444,41820
7240,2434,41777
7223,2428,41738
7210,2422,41699
7202,2417,41662
7197,2414,41629
7190,2411,41600
7181,2409,41572
7171,2405,41544
7161,2402,41517
7152,2398,41490
7139,2395,41463
7120,2391,41437
7099,2384,41409
7078,2373,41375
7057,2360,41334
7033,2346,41283
7003,2330,41222
6967,2311,41148
6925,2289,41067
6877,2266,40982
6825,2241,40896
6771,2214,40810
6719,2189,40728
6674,2168,40658
6644,2154,40615
6642,2151,40617
6681,2166,40680
6772,2205,40819
6921,2272,41043
7132,2371,41363
7412,2504,41786
7759,2669,42309
8164,2861,42921
8618,3077,43607
9107,3309,44345
9616,3551,45110
10131,3798,45880
10638,4043,46638
11127,4279,47365
11589,4500,48046
12014,4704,48671
12398,4891,49234
12737,5057,49729
13030,5199,50151
13281,5318,50500
13491,5416,50783
13666,5497,51007
13810,5563,51175
13924,5616,51298
14013,5656,51384
14074,5686,51436
14111,5703,51454
14128,5710,51441
14132,5713,51406
14125,5712,51356
14108,5705,51293
14080,5690,51218
14045,5671,51135
14007,5648,51046
13962,5621,50949
13910,5590,50841
13850,5558,50727
13779,5524,50608
13699,5486,50483
13611,5447,50352
13523,5403,50217
13435,5355,50078
13348,5305,49937
13261,5256,49794
13176,5210,49649
13092,5166,49508
13012,5125,49376
12938,5090,49259
12875,5059,49155
12825,5030,49064
12787,5009,48991
12761,4995,48940
12748,4988,48914
12749,4986,48913
12763,4990,48933
12790,5001,48972
12833,5019,49029
12890,5046,49103
12959,5082,49186
13034,5120,49272
13109,5157,49359
13182,5193,49446
13247,5227,49525
13301,5255,49592
13344,5277,49645
13374,5294,49682
13392,5303,49703
13398,5305,49707
13391,5301,49694
13374,5292,49662
13347,5274,49611
13308,5249,49542
13256,5218,49461
13194,5185,49369
13132,5151,49273
13073,5119,49175
13015,5088,49076
12958,5057,48974
12898,5028,48871
12838,4999,48768
12779,4971,48668
12725,4945,48573
12678,4922,48485
12640,4901,48404
12605,4881,48330
12567,4860,48258
12525,4841,48184
12481,4822,48108
12435,4802,48029
12384,4778,47944
12330,4751,47855
12270,4721,47764
12207,4689,47673
12140,4656,47580
12068,4621,47484
11994,4585,47388
11921,4549,47291
11850,4512,47194
11781,4476,47099
11715,4444,47009
11651,4414,46926
11593,4388,46845
11543,4365,46770
11502,4347,46704
11467,4331,46646
11434,4313,46591
11400,4295,46541
11367,4281,46496
11336,4268,46455
11311,4256,46415
11292,4246,46379
11280,4238,46349
11269,4228,46320
11255,4221,46290
11241,4214,46259
11226,4208,46225
11207,4199,46185
11184,4187,46140
11156,4173,46090
11120,4156,46032
11072,4134,45966
11015,4109,45894
10960,4084,45819
10912,4061,45744
10873,4038,45676
10841,4020,45614
10811,4005,45553
10783,3991,45489
10753,3973,45424
10722,3953,45354
10689,3932,45278
10647,3907,45195
10592,3880,45105
10531,3852,45013
10470,3826,44924
10414,3802,44846
10371,3782,44786
10352,3773,44760
10366,3783,44788
10426,3816,44885
10543,3875,45064
10727,3966,45340
10983,4091,45719
11307,4251,46197
11693,4444,46770
12136,4667,47425
12625,4913,48146
13144,5177,48910
13678,5451,49697
14211,5726,50484
14729,5994,51246
15218,6247,51964
15673,6483,52630
16087,6698,53237
16454,6889,53778
16773,7054,54245
17043,7191,54635
17266,7303,54951
17447,7394,55202
17591,7469,55397
17705,7529,55543
17792,7576,55645
17852,7606,55706
17887,7622,55730
17901,7627,55727
17898,7626,55707
17879,7619,55668
17850,7607,55613
17816,7592,55546
17775,7573,55473
17729,7549,55395
17679,7520,55312
17627,7489,55227
17578,7461,55145
17530,7433,55061
17479,7402,54970
17425,7369,54871
17364,7333,54762
17294,7291,54641
17215,7242,54510
17129,7191,54371
17037,7138,54223
16937,7083,54066
16832,7025,53906
16727,6969,53752
16625,6916,53606
16527,6867,53471
16439,6825,53353
16364,6788,53253
16299,6757,53174
16243,6731,53114
16201,6713,53075
16176,6706,53055
16162,6706,53052
16160,6710,53062
16171,6716,53084
16193,6726,53119
16219,6739,53159
16247,6752,53200
16272,6766,53243
16293,6780,53285
16310,6791,53318
16318,6796,53336
16313,6792,53336
16295,6781,53319
16266,6763,53285
16224,6739,53234
16171,6710,53171
16107,6676,53100
16035,6635,53019
15953,6591,52926
15863,6545,52819
15768,6499,52700
15673,6456,52573
15582,6415,52443
15496,6371,52307
15405,6324,52164
15307,6271,52012
15204,6214,51854
15094,6154,51694
14979,6094,51537
14865,6037,51384
14758,5985,51240
14658,5937,51104
14567,5892,50976
14484,5852,50851
14409,5815,50733
14342,5782,50625
14280,5751,50528
14216,5720,50435
14150,5687,50339
14084,5652,50246
14021,5618,50158
13957,5584,50072
13889,5548,49983
13816,5508,49887
13736,5465,49785
13646,5417,49673
13547,5366,49552
13443,5313,49425
13339,5263,49298
13237,5216,49174
13140,5175,49057
13049,5138,48944
12962,5103,48836
12885,5068,48733
12822,5035,48639
12772,5008,48557
12731,4987,48486
12696,4970,48424
12664,4954,48371
12631,4938,48324
12593,4921,48278
12551,4899,48227
12505,4873,48170
12452,4844,48106
12390,4811,48035
12320,4775,47956
12244,4737,47867
12167,4701,47773
12089,4668,47677
12014,4635,47582
11939,4598,47485
11860,4559,47381
11776,4517,47269
11688,4474,47151
11596,4431,47031
11498,4388,46910
11403,4344,46792
11312,4300,46675
11224,4257,46559
11135,4216,46444
11044,4175,46327
10952,4134,46207
10859,4092,46089
10767,4051,45978
10680,4011,45880
10605,3978,45807
10553,3959,45772
10536,3959,45790
10567,3984,45879
10662,4038,46058
10826,4125,46336
11064,4248,46716
11370,4406,47197
11739,4596,47768
12160,4813,48412
12618,5049,49108
13100,5297,49839
13591,5551,50587
14077,5806,51332
14546,6054,52052
14989,6287,52729
15404,6505,53351
15784,6704,53911
16120,6880,54399
16409,7031,54813
16654,7157,55156
16854,7259,55434
17010,7341,55648
17125,7402,55803
17207,7445,55904
17260,7472,55957
17280,7480,55966
17269,7473,55939
17235,7455,55883
17185,7429,55806
17123,7395,55715
17056,7358,55616
16990,7320,55516
16925,7282,55419
16860,7246,55325
16798,7210,55232
16732,7174,55135
16655,7135,55025
16569,7094,54898
16474,7048,54754
16370,6996,54597
16255,6938,54427
16131,6871,54240
15997,6796,54038
15857,6719,53829
15714,6640,53619
15569,6559,53406
15425,6480,53199
15288,6405,53006
15164,6337,52832
15053,6274,52678
14960,6221,52549
14882,6181,52450
14823,6152,52381
14781,6133,52340
14758,6123,52323
14753,6124,52329
14761,6135,52350
14778,6151,52380
14800,6166,52415
14825,6180,52451
14851,6194,52484
14874,6205,52512
14892,6212,52533
14900,6214,52545
14895,6207,52545
14878,6192,52530
14853,6172,52503
14817,6149,52464
14768,6124,52412
14707,6094,52345
14638,6060,52267
14564,6024,52177
14485,5988,52076
14401,5950,51965
14312,5911,51848
14222,5870,51727
14129,5822,51599
14035,5771,51462
13943,5720,51319
13851,5670,51173
13758,5621,51021
13666,5574,50869
13576,5528,50722
13490,5485,50584
13406,5446,50454
13323,5410,50335
13240,5374,50223
13154,5332,50108
13066,5285,49988
12975,5235,49865
12878,5182,49736
12775,5126,49600
12665,5067,49456
12551,5008,49308
12436,4952,49160
12321,4895,49013
12209,4839,48871
12109,4790,48741
12022,4748,48625
11943,4713,48519
11873,4683,48422
11817,4659,48338
11774,4641,48264
11738,4625,48198
11706,4610,48138
11678,4597,48082
11653,4585,48027
11623,4571,47972
11588,4555,47917
11549,4537,47861
11508,4516,47801
11463,4492,47736
11415,4466,47668
11365,4440,47603
11313,4412,47537
11258,4382,47465
11197,4350,47385
11129,4318,47299
11055,4285,47209
10978,4250,47117
10902,4216,47025
10827,4182,46935
10751,4150,46846
10678,4121,46755
10609,4093,46666
10543,4066,46580
10480,4039,46500
10423,4012,46422
10372,3986,46343
10326,3961,46261
10280,3934,46178
10228,3907,46093
10172,3879,46005
10109,3851,45915
10038,3819,45818
9957,3783,45714
9875,3745,45605
9794,3708,45498
9714,3672,45394
9639,3638,45299
9574,3607,45221
9527,3585,45171
9510,3577,45161
9531,3590,45211
9602,3628,45337
9731,3698,45549
9924,3799,45853
10183,3932,46256
10502,4094,46753
10877,4283,47335
11302,4496,47987
11768,4729,48693
12261,4980,49435
12767,5241,50191
13272,5503,50937
13763,5758,51658
14229,5999,52337
14657,6222,52959
15034,6420,53510
15358,6590,53983
15626,6733,54376
15836,6847,54689
15989,6932,54923
16088,6990,55083
16144,7023,55178
16163,7032,55212
16151,7022,55195
16121,6999,55142
16080,6970,55066
16031,6936,54974
15980,6903,54874
15935,6874,54778
15897,6852,54689
15867,6834,54608
15839,6819,54532
15809,6806,54457
15775,6792,54380
15735,6773,54298
15686,6747,54204
15621,6712,54092
15540,6670,53961
15446,6620,53811
15342,6561,53642
15224,6496,53460
15093,6426,53270
14954,6353,53075
14812,6279,52877
14675,6209,52684
14549,6145,52503
14433,6086,52338
14330,6031,52193
14250,5987,52074
14195,5956,51986
14160,5937,51926
14142,5929,51895
14137,5929,51888
14145,5935,51899
14162,5946,51924
14181,5959,51957
14200,5972,51995
14219,5983,52037
14236,5993,52078
14251,6000,52119
14265,6006,52157
14276,6009,52190
14283,6011,52214
14287,6011,52228
14285,6010,52232
14272,6004,52221
14247,5991,52191
14214,5974,52143
14172,5954,52079
14119,5928,51997
14050,5895,51896
13967,5853,51777
13872,5805,51643
13764,5750,51496
13646,5689,51339
13522,5626,51175
13398,5563,51009
13277,5503,50846
13161,5443,50685
13045,5383,50524
12929,5322,50363
12815,5265,50204
12704,5209,50049
12597,5155,49899
12491,5106,49755
12389,5060,49617
12290,5015,49485
12193,4970,49357
12097,4926,49229
12003,4881,49102
11912,4836,48980
11825,4792,48866
11743,4751,48759
11665,4715,48655
11594,4683,48557
11531,4651,48463
11470,4619,48372
11412,4588,48283
11357,4556,48198
11301,4526,48116
11240,4497,48036
11171,4468,47953
11095,4434,47865
11015,4397,47773
10932,4357,47678
10849,4316,47580
10769,4278,47478
10691,4241,47374
10611,4204,47270
10534,4166,47165
10464,4131,47067
10398,4099,46977
10332,4067,46892
10267,4034,46809
10206,4004,46732
10152,3981,46660
10097,3962,46592
10040,3942,46526
9982,3920,46459
9921,3894,46388
9856,3866,46311
9788,3838,46231
9719,3811,46148
9647,3781,46059
9571,3748,45962
9493,3711,45856
9411,3671,45740
9323,3626,45617
9226,3577,45485
9123,3525,45350
9015,3474,45211
8905,3423,45070
8796,3372,44928
8692,3322,44792
8597,3277,44666
8515,3240,44553
8450,3212,44455
8409,3194,44382
8392,3186,44344
8401,3192,44350
8442,3215,44414
8529,3259,44549
8674,3331,44764
8880,3433,45068
9146,3564,45465
9469,3723,45953
9846,3910,46524
10266,4120,47164
10714,4344,47852
11178,4578,48571
11647,4817,49299
12109,5054,50013
12550,5281,50695
12961,5492,51329
13332,5682,51903
13659,5850,52406
13936,5995,52834
14163,6116,53186
14344,6212,53468
14489,6286,53683
14600,6341,53836
14679,6379,53934
14726,6402,53984
14743,6408,53990
14734,6398,53957
14706,6378,53895
14664,6350,53810
14607,6317,53707
14542,6281,53590
14475,6243,53469
14409,6204,53348
14342,6165,53229
14273,6126,53113
14202,6087,52996
14125,6046,52870
14037,6003,52731
13940,5958,52580
13839,5912,52419
13733,5861,52250
13624,5808,52076
13513,5753,51899
13404,5698,51722
13300,5644,51547
13201,5590,51375
13105,5536,51214
13017,5486,51071
12942,5443,50948
12879,5407,50847
12829,5380,50770
12795,5362,50719
12778,5351,50688
12774,5347,50676
12782,5350,50683
12802,5359,50708
12832,5373,50742
12869,5388,50783
12910,5402,50831
12951,5417,50886
12987,5433,50939
13018,5449,50986
13048,5464,51027
13074,5478,51065
13093,5487,51092
13103,5490,51105
13109,5491,51106
13109,5490,51098
13099,5484,51079
13078,5473,51047
13051,5460,51004
13017,5444,50948
12973,5423,50877
12922,5398,50791
12865,5370,50696
12806,5339,50594
12739,5304,50484
12665,5266,50367
12587,5224,50241
12504,5179,50110
12417,5132,49976
12329,5088,49846
12238,5044,49715
12145,4998,49583
12053,4952,49452
11963,4909,49325
11875,4867,49201
11790,4827,49078
11714,4789,48961
11645,4754,48852
11580,4719,48751
11519,4683,48655
11460,4650,48561
11400,4619,48472
11338,4592,48387
11274,4564,48298
11206,4533,48206
11140,4504,48113
11071,4477,48019
11000,4447,47921
10926,4413,47818
10853,4379,47715
10781,4344,47611
10707,4307,47507
10632,4269,47404
10561,4233,47307
10497,4201,47218
10437,4172,47132
10385,4146,47051
10345,4124,46980
10318,4105,46918
10298,4091,46867
10284,4081,46828
10274,4073,46798
10265,4066,46773
10252,4060,46748
10235,4053,46720
10214,4042,46689
10190,4028,46652
10162,4013,46610
10132,3999,46563
10098,3985,46510
10057,3967,46450
10010,3945,46381
9963,3924,46311
9916,3907,46243
9865,3887,46178
9813,3867,46109
9764,3847,46038
9723,3829,45966
9687,3809,45894
9651,3788,45821
9615,3767,45747
9576,3746,45670
9526,3724,45587
9468,3698,45496
9405,3669,45400
9336,3637,45300
9263,3602,45197
9192,3567,45102
9133,3535,45027
9092,3512,44986
9078,3504,44992
9103,3518,45059
9181,3560,45204
9324,3634,45441
9537,3742,45779
9821,3888,46224
10180,4074,46774
10606,4293,47417
11083,4538,48134
11591,4799,48903
12112,5068,49697
12635,5340,50493
13148,5606,51267
13637,5859,52003
14092,6094,52681
14502,6306,53287
14866,6496,53817
15184,6661,54272
15455,6802,54653
15679,6917,54957
15859,7009,55191
15997,7080,55366
16097,7130,55489
16164,7161,55566
16200,7176,55607
16213,7180,55618
16211,7180,55607
16204,7176,55584
16198,7170,55554
16192,7164,55520
16183,7155,55481
16171,7145,55433
16154,7131,55375
16126,7112,55307
16086,7088,55226
16038,7060,55134
15983,7025,55029
15915,6982,54909
15830,6931,54772
15730,6873,54615
15619,6810,54442
15499,6743,54255
15371,6672,54057
15242,6599,53853
15116,6530,53652
14995,6463,53460
14881,6402,53281
14779,6348,53122
14697,6302,52989
14636,6267,52885
14592,6244,52807
14567,6233,52758
14562,6233,52738
14577,6242,52745
14602,6258,52772
14633,6277,52811
14670,6299,52858
14710,6322,52909
14746,6343,52958
14776,6358,53001
14800,6365,53034
14817,6368,53059
14829,6369,53074
14835,6369,53079
14835,6367,53075
14832,6364,53063
14821,6359,53044
14801,6349,53015
14776,6337,52974
14745,6323,52922
14708,6305,52860
14669,6284,52790
14630,6263,52715
14594,6241,52639
14561,6218,52561
14528,6192,52481
14498,6168,52402
14469,6145,52322
14441,6124,52243
14412,6106,52166
14382,6089,52089
14350,6071,52009
14311,6050,51924
14263,6026,51832
14207,5998,51735
14142,5966,51633
14068,5929,51524
13984,5885,51405
13889,5837,51277
13787,5786,51143
13684,5731,51006
13583,5676,50868
13485,5623,50733
13391,5575,50601
13304,5531,50472
13221,5488,50351
13141,5444,50237
13065,5401,50128
12990,5360,50024
12921,5324,49928
12860,5293,49841
12807,5268,49761
12760,5246,49687
12721,5228,49617
12684,5213,49552
12643,5195,49486
12597,5173,49419
12550,5149,49352
12503,5124,49286
12452,5100,49217
12394,5074,49144
12336,5047,49068
12282,5019,48989
12230,4990,48909
12180,4961,48830
12134,4933,48758
12089,4907,48686
12041,4881,48612
11990,4855,48533
11936,4827,48450
11876,4797,48364
11810,4766,48274
11738,4735,48181
11662,4703,48087
11589,4672,47992
11521,4644,47900
11459,4616,47814
11406,4592,47734
11362,4572,47659
11324,4555,47589
11292,4541,47523
11262,4528,47459
11230,4512,47389
11197,4495,47314
11160,4476,47238
11117,4452,47162
11065,4424,47079
11007,4392,46987
10948,4357,46893
10890,4325,46802
10838,4298,46720
10799,4280,46655
10782,4272,46624
10793,4278,46639
10838,4302,46709
10930,4350,46852
11081,4429,47088
11300,4544,47428
11589,4694,47870
11947,4877,48409
12370,5094,49042
12850,5344,49758
13373,5619,50537
13924,5909,51351
14485,6207,52174
15041,6504,52984
15576,6791,53757
16079,7061,54480
16539,7311,55143
16951,7537,55741
17310,7736,56263
17614,7907,56705
17870,8047,57069
18079,8160,57361
18241,8245,57581
18353,8305,57735
18426,8345,57833
18471,8368,57887
18493,8376,57904
18493,8371,57890
18475,8358,57852
18447,8338,57798
18416,8315,57734
18382,8292,57669
18348,8268,57606
18316,8245,57546
18286,8225,57491
18260,8210,57440
18236,8195,57388
18209,8177,57327
18174,8154,57255
18130,8126,57171
18075,8095,57074
18004,8057,56955
17914,8010,56808
17808,7952,56638
17685,7884,56450
17547,7806,56248
17400,7723,56037
17255,7642,55831
17119,7566,55639
16992,7495,55464
16876,7434,55312
16780,7385,55188
16708,7352,55094
16660,7333,55027
16633,7324,54987
16627,7324,54972
16637,7331,54976
16660,7341,54995
16690,7357,55025
16723,7376,55063
16756,7395,55105
16784,7411,55146
16802,7424,55179
16809,7431,55198
16802,7431,55200
16786,7424,55186
16760,7411,55158
16724,7392,55115
16679,7365,55058
16624,7331,54987
16562,7290,54905
16491,7247,54811
16411,7204,54708
16327,7160,54598
16244,7115,54483
16161,7071,54362
16079,7027,54236
15998,6983,54109
15919,6939,53986
15841,6895,53867
15766,6853,53749
15695,6813,53633
15630,6777,53522
15565,6741,53410
15498,6703,53293
15428,6664,53170
15355,6624,53046
15275,6582,52923
15185,6539,52797
15088,6491,52661
14987,6439,52521
14884,6384,52380
14779,6326,52239
14673,6267,52099
14568,6213,51962
14469,6163,51834
14379,6116,51713
14300,6073,51601
14234,6037,51500
14175,6009,51410
14120,5983,51325
14067,5958,51244
14014,5932,51166
13963,5905,51090
13913,5876,51011
13864,5844,50930
13809,5811,50846
13747,5775,50759
13679,5738,50669
13607,5699,50576
13527,5657,50480
13444,5614,50384
13361,5573,50285
13280,5536,50188
13202,5503,50092
13125,5471,49995
13053,5439,49898
12988,5407,49805
12931,5378,49716
12873,5349,49627
12812,5318,49539
12754,5289,49454
12699,5262,49371
12643,5235,49288
12588,5205,49204
12536,5175,49119
12485,5146,49037
12436,5120,48961
12388,5096,48887
12342,5073,48817
12295,5047,48750
12244,5020,48684
12190,4992,48615
12130,4960,48539
12056,4922,48445
11969,4879,48333
11873,4833,48207
11767,4785,48067
11652,4732,47914
11529,4675,47748
11404,4615,47575
11280,4556,47404
11160,4498,47243
11051,4446,47101
10962,4405,46983
10899,4377,46901
10868,4367,46864
10877,4376,46884
10936,4409,46977
11056,4469,47160
11243,4560,47441
11492,4685,47825
11805,4846,48309
12182,5042,48887
12615,5269,49546
13091,5518,50266
13593,5785,51026
14107,6061,51803
14615,6336,52571
15104,6601,53311
15559,6849,54004
15971,7077,54634
16333,7278,55189
16646,7449,55668
16914,7592,56075
17138,7709,56408
17322,7803,56669
17468,7875,56866
17582,7930,57011
17668,7972,57114
17727,8000,57178
17763,8016,57206
17779,8023,57207
17776,8020,57184
17755,8009,57139
17719,7993,57077
17672,7968,57004
17613,7935,56921
17542,7896,56826
17461,7853,56720
17372,7805,56604
17275,7753,56477
17169,7692,56334
17055,7624,56178
16932,7548,56008
16802,7467,55824
16667,7384,55627
16528,7299,55422
16384,7215,55212
16238,7133,55000
16094,7055,54789
15957,6982,54581
15830,6914,54382
15714,6854,54200
15609,6802,54038
15516,6756,53898
15437,6716,53778
15372,6682,53677
15317,6654,53594
15270,6631,53527
15229,6609,53470
15191,6588,53421
15156,6569,53379
15123,6551,53345
15091,6534,53316
15061,6519,53293
15036,6505,53274
15016,6493,53259
14999,6484,53248
14980,6474,53236
14955,6462,53217
14929,6449,53195
14900,6436,53170
14863,6422,53135
14820,6404,53090
14775,6381,53036
14722,6351,52968
14655,6315,52882
14574,6271,52776
14481,6223,52654
14379,6170,52518
14269,6111,52370
14156,6051,52214
14043,5992,52054
13933,5936,51891
13825,5879,51730
13721,5824,51572
13623,5771,51417
13526,5719,51267
13431,5669,51123
13342,5621,50987
13262,5577,50861
13190,5535,50743
13121,5495,50631
13053,5458,50524
12985,5424,50422
12915,5391,50323
12844,5358,50225
12771,5325,50127
12698,5290,50031
12623,5254,49933
12550,5215,49830
12476,5175,49725
12400,5135,49617
12322,5095,49509
12239,5053,49400
12153,5012,49292
12059,4970,49182
11962,4925,49070
11866,4877,48958
11777,4832,48850
11695,4792,48751
11620,4756,48656
11552,4721,48567
11493,4690,48487
11446,4666,48418
11409,4648,48354
11376,4634,48297
11350,4624,48250
11329,4615,48208
11311,4605,48168
11292,4594,48126
11271,4580,48080
11244,4560,48026
11208,4536,47960
11160,4509,47882
11097,4479,47791
11019,4444,47685
10925,4401,47567
10820,4354,47442
10709,4305,47312
10598,4255,47177
10492,4205,47043
10395,4160,46917
10311,4121,46804
10241,4088,46705
10179,4056,46613
10128,4025,46526
10088,3998,46444
10052,3973,46364
10015,3950,46285
9975,3928,46207
9930,3905,46127
9880,3879,46043
9824,3851,45954
9762,3820,45862
9695,3784,45768
9629,3748,45675
9574,3715,45590
9531,3690,45523
9509,3677,45485
9514,3681,45490
9557,3706,45555
9651,3758,45697
9805,3842,45931
10025,3958,46266
10315,4107,46703
10676,4291,47241
11102,4508,47871
11582,4752,48575
12100,5019,49334
12641,5299,50128
13188,5583,50929
13722,5862,51714
14231,6130,52462
14706,6379,53154
15138,6605,53777
15522,6805,54325
15855,6979,54798
16139,7130,55197
16374,7258,55522
16562,7363,55779
16706,7443,55972
16807,7499,56105
16866,7532,56181
16888,7541,56204
16880,7531,56186
16844,7506,56133
16784,7469,56050
16706,7420,55939
16616,7364,55809
16515,7302,55663
16400,7234,55500
16275,7163,55325
16146,7090,55144
16020,7019,54960
15898,6950,54774
15779,6885,54592
15664,6820,54413
15548,6756,54232
15433,6691,54049
15321,6627,53868
15210,6564,53688
15098,6501,53506
14986,6440,53326
14876,6381,53150
14770,6323,52983
14669,6271,52825
14579,6223,52682
14501,6184,52560
14440,6156,52464
14396,6138,52398
14371,6127,52355
14363,6124,52337
14370,6128,52340
14389,6138,52359
14420,6152,52391
14459,6172,52434
14503,6195,52489
14546,6220,52550
14585,6241,52607
14621,6260,52660
14654,6274,52708
14680,6284,52744
14695,6288,52765
14696,6285,52770
14685,6279,52758
14663,6268,52730
14630,6250,52686
14588,6227,52630
14540,6199,52564
14487,6167,52488
14427,6133,52401
14359,6095,52307
14283,6054,52205
14201,6011,52093
14115,5968,51969
14026,5924,51837
13935,5880,51699
13843,5836,51557
13750,5793,51415
13660,5751,51276
13575,5707,51139
13492,5660,51002
13410,5613,50863
13329,5569,50727
13252,5524,50593
13172,5476,50459
13087,5427,50325
12993,5376,50194
12892,5323,50062
12787,5272,49930
12683,5222,49801
12581,5172,49675
12484,5124,49553
12394,5078,49432
12313,5035,49320
12239,4996,49222
12173,4962,49133
12113,4933,49052
12063,4909,48982
12021,4891,48924
11988,4875,48872
11963,4861,48827
11945,4849,48789
11933,4841,48759
11927,4839,48736
11926,4840,48718
11930,4844,48703
11935,4851,48689
11943,4858,48677
11948,4865,48660
11942,4866,48634
11921,4859,48597
11889,4844,48547
11845,4820,48482
11785,4788,48398
11708,4750,48298
11618,4706,48188
11527,4661,48076
11437,4617,47964
11347,4576,47853
11258,4537,47740
11173,4498,47626
11093,4462,47517
11019,4430,47414
10949,4399,47315
10882,4368,47220
10817,4335,47133
10754,4302,47052
10691,4267,46972
10627,4234,46890
10561,4201,46803
10495,4169,46708
10428,4135,46607
10362,4100,46504
10298,4067,46398
10239,4036,46294
10185,4008,46194
10138,3985,46106
10103,3969,46038
10084,3962,45997
10090,3965,45996
10128,3986,46048
10202,4028,46164
10319,4091,46351
10486,4178,46618
10708,4292,46974
10986,4435,47419
11313,4602,47941
11682,4790,48529
12086,5000,49171
12515,5228,49851
12957,5463,50549
13400,5699,51246
13837,5930,51923
14258,6152,52565
14652,6359,53159
15014,6551,53698
15339,6723,54180
15622,6874,54598
15864,7003,54951
16062,7109,55240
16217,7192,55465
16330,7251,55623
16403,7286,55714
16437,7298,55746
16436,7289,55725
16399,7261,55657
16331,7219,55547
16237,7165,55403
16119,7101,55232
15982,7027,55039
15828,6943,54829
15665,6855,54608
15500,6768,54386
15339,6684,54169
15185,6602,53956
15037,6520,53748
14896,6442,53546
14761,6369,53351
14628,6300,53161
14499,6233,52973
14377,6170,52789
14262,6112,52612
14153,6060,52442
14050,6010,52279
13953,5960,52123
13862,5914,51977
13780,5870,51844
13705,5828,51726
13636,5789,51624
13577,5756,51543
13533,5733,51486
13504,5717,51452
13490,5708,51441
13491,5707,51447
13504,5712,51467
13526,5721,51499
13552,5737,51538
13578,5754,51579
13603,5770,51621
13627,5783,51662
13645,5793,51695
13654,5799,51718
13656,5803,51733
13653,5804,51741
13643,5802,51741
13626,5795,51726
13598,5781,51698
13564,5762,51660
13525,5744,51613
13483,5725,51559
13442,5706,51500
13403,5687,51437
13364,5666,51369
13325,5643,51293
13280,5616,51211
13228,5586,51121
13166,5552,51019
13094,5512,50901
13006,5468,50768
12904,5417,50618
12789,5359,50452
12665,5293,50276
12536,5226,50097
12406,5162,49919
12279,5101,49748
12159,5044,49586
12051,4993,49438
11957,4948,49306
11873,4908,49185
11799,4872,49074
11739,4842,48974
11687,4816,48886
11640,4791,48804
11599,4768,48729
11566,4747,48666
11540,4731,48611
11516,4717,48558
11492,4702,48505
11468,4687,48454
11441,4670,48402
11409,4651,48347
11372,4630,48286
11332,4609,48219
11291,4584,48146
11249,4558,48070
11208,4535,47997
11170,4516,47931
11138,4502,47874
11112,4490,47823
11096,4480,47780
11085,4474,47745
11074,4471,47714
11058,4468,47681
11041,4464,47646
11029,4460,47611
11019,4459,47576
11006,4456,47543
10990,4449,47508
10969,4439,47467
10946,4424,47421
10917,4406,47373
10880,4386,47324
10842,4366,47272
10803,4347,47215
10760,4327,47152
10712,4307,47084
10660,4288,47013
10611,4269,46940
10567,4249,46864
10527,4228,46788
10488,4207,46714
10451,4185,46644
10416,4162,46576
10387,4143,46515
10370,4130,46470
10367,4125,46443
10382,4130,46445
10424,4151,46491
10504,4192,46596
10627,4256,46774
10802,4348,47036
11043,4471,47394
11349,4628,47851
11720,4817,48403
12152,5035,49043
12637,5280,49758
13160,5546,50529
13709,5829,51335
14267,6124,52157
14822,6419,52972
15355,6704,53753
15855,6972,54480
16313,7219,55143
16720,7441,55731
17070,7633,56235
17360,7792,56651
17592,7918,56985
17768,8013,57239
17887,8077,57414
17952,8109,57516
17969,8114,57554
17949,8099,57539
17901,8070,57483
17834,8029,57390
17755,7982,57276
17674,7935,57152
17599,7892,57032
17536,7856,56923
17488,7828,56827
17453,7806,56743
17427,7788,56668
17406,7771,56600
17387,7753,56536
17363,7731,56466
17330,7704,56382
17283,7670,56281
17218,7631,56162
17137,7587,56019
17040,7534,55855
16929,7474,55678
16810,7410,55493
16689,7346,55307
16569,7284,55126
16454,7221,54953
16348,7161,54796
16253,7108,54661
16171,7065,54550
16108,7034,54468
16064,7013,54413
16040,7003,54383
16034,7004,54375
16045,7014,54388
16072,7031,54417
16112,7051,54458
16157,7073,54505
16205,7095,54554
16248,7115,54601
16286,7132,54640
16318,7145,54672
16346,7157,54701
16369,7166,54727
16381,7170,54743
16379,7167,54749
16366,7161,54744
16344,7153,54728
16314,7142,54695
16275,7126,54647
16227,7105,54584
16173,7078,54508
16112,7046,54418
16045,7010,54317
15973,6967,54203
15894,6920,54078
15811,6871,53946
15728,6819,53810
15646,6768,53670
15565,6719,53531
15486,6671,53394
15411,6628,53263
15341,6591,53144
15277,6560,53038
15221,6535,52943
15174,6514,52853
15134,6496,52770
15096,6480,52692
15060,6464,52619
15024,6447,52546
14987,6425,52472
14948,6401,52396
14907,6375,52319
14859,6345,52240
14801,6311,52158
14736,6275,52068
14667,6238,51972
14595,6199,51875
14516,6160,51776
14430,6118,51672
14344,6076,51564
14265,6033,51457
14195,5992,51357
14130,5957,51265
14071,5926,51180
14022,5900,51102
13982,5878,51034
13949,5859,50973
13918,5842,50916
13886,5824,50861
13855,5809,50806
13828,5798,50756
13804,5789,50712
13782,5779,50671
13760,5766,50632
13735,5751,50590
13704,5734,50545
13670,5716,50501
13636,5700,50458
13600,5683,50407
13563,5665,50347
13522,5646,50279
13480,5625,50207
13435,5600,50128
13389,5573,50049
13345,5545,49972
13303,5518,49899
13260,5493,49825
13215,5469,49746
13165,5444,49661
13111,5416,49571
13051,5383,49476
12986,5347,49378
12915,5311,49280
12843,5276,49185
12776,5243,49095
12725,5216,49022
12697,5202,48979
12699,5207,48980
12738,5232,49043
12827,5282,49179
12973,5363,49401
13182,5478,49720
13459,5628,50145
13801,5812,50668
14202,6027,51281
14654,6274,51976
15150,6546,52733
15671,6836,53524
16200,7131,54325
16723,7421,55110
17224,7697,55856
17688,7954,56549
18106,8188,57177
18472,8396,57730
18784,8575,58204
19046,8724,58605
19265,8848,58936
19447,8949,59201
19594,9030,59406
19709,9094,59560
19796,9141,59672
19855,9174,59743
19886,9194,59778
19893,9201,59779
19880,9196,59750
19850,9178,59696
19806,9150,59623
19752,9115,59540
19691,9076,59448
19626,9034,59349
19561,8993,59245
19492,8953,59138
19417,8909,59027
19337,8862,58910
19256,8813,58786
19170,8760,58652
19072,8702,58500
18959,8635,58324
18836,8563,58129
18704,8485,57919
18564,8402,57697
18420,8317,57472
18279,8236,57253
18150,8163,57052
18037,8100,56876
17943,8047,56728
17868,8005,56607
17814,7973,56515
17777,7954,56449
17754,7944,56406
17742,7940,56385
17742,7941,56384
17753,7946,56397
17774,7957,56423
17800,7972,56457
17828,7991,56498
17856,8010,56542
17879,8025,56578
17896,8036,56603
17904,8039,56614
17900,8033,56608
17881,8016,56581
17847,7992,56540
17799,7962,56487
17738,7926,56421
17667,7887,56343
17594,7846,56258
17516,7803,56167
17438,7761,56067
17363,7720,55959
17289,7680,55848
17215,7639,55733
17138,7598,55617
17060,7557,55504
16985,7516,55395
16910,7473,55287
16833,7430,55177
16755,7390,55068
16683,7353,54962
16613,7317,54856
16542,7279,54746
16467,7235,54626
16386,7186,54495
16296,7134,54356
16198,7080,54211
16094,7023,54066
15985,6962,53921
15874,6901,53771
15763,6841,53619
15656,6787,53470
15556,6735,53329
15464,6687,53196
15382,6644,53074
15312,6607,52968
15252,6574,52873
15198,6544,52786
15149,6520,52707
15104,6497,52636
15056,6474,52570
15006,6447,52502
14955,6418,52430
14901,6387,52355
14842,6355,52275
14778,6323,52192
14711,6289,52104
14640,6252,52010
14562,6211,51910
14480,6165,51804
14397,6119,51695
14317,6075,51588
14239,6032,51485
14162,5992,51384
14088,5955,51286
14016,5920,51190
13948,5887,51095
13886,5855,51001
13830,5826,50917
13779,5800,50841
13730,5776,50771
13685,5755,50706
13649,5740,50648
13618,5726,50594
13584,5709,50537
13544,5690,50474
13501,5668,50406
13452,5642,50333
13394,5613,50250
13323,5581,50155
13241,5542,50048
13150,5497,49927
13050,5447,49795
12947,5396,49659
12848,5346,49526
12758,5298,49399
12679,5257,49284
12617,5226,49187
12578,5207,49121
12563,5202,49095
12582,5215,49125
12650,5252,49232
12777,5320,49432
12970,5423,49735
13229,5561,50140
13552,5735,50644
13934,5942,51240
14366,6180,51913
14834,6438,52640
15320,6709,53401
15812,6983,54174
16297,7254,54935
16767,7516,55663
17212,7766,56342
17621,7998,56958
17989,8205,57504
18311,8384,57976
18585,8535,58376
18807,8660,58703
18980,8757,58957
19109,8826,59140
19200,8871,59261
19254,8896,59328
19277,8903,59346
19272,8894,59324
19246,8874,59268
19204,8846,59189
19144,8809,59094
19074,8766,58988
19002,8721,58875
18928,8675,58758
18850,8624,58638
18766,8571,58516
18676,8514,58388
18576,8452,58248
18467,8387,58097
18351,8324,57934
18232,8259,57759
18109,8191,57571
17981,8118,57371
17846,8041,57159
17707,7962,56942
17568,7885,56729
17426,7809,56519
17288,7735,56316
17160,7666,56129
17043,7603,55962
16940,7544,55815
16853,7493,55689
16783,7452,55586
16727,7421,55504
16681,7399,55438
16646,7383,55387
16619,7371,55350
16603,7363,55327
16597,7360,55318
16603,7363,55322
16614,7372,55336
16627,7385,55352
16638,7397,55369
16651,7410,55388
16666,7423,55409
16675,7432,55424
16672,7436,55429
16658,7432,55422
16633,7421,55399
16598,7403,55360
16553,7377,55304
16499,7344,55233
16437,7304,55147
16366,7260,55048
16291,7212,54939
16211,7165,54824
16129,7118,54706
16048,7071,54586
15969,7024,54466
15892,6979,54349
15812,6935,54232
15730,6889,54113
15647,6843,53990
15562,6795,53866
15476,6746,53737
15390,6698,53607
15306,6650,53480
15224,6602,53358
15141,6557,53237
15052,6512,53116
14959,6466,52993
14864,6422,52875
14770,6382,52761
14681,6344,52651
14597,6307,52542
14515,6269,52436
14435,6232,52335
14356,6193,52235
14281,6154,52135
14211,6118,52040
14141,6084,51946
14068,6046,51850
13990,6007,51754
13911,5968,51659
13832,5927,51561
13755,5885,51458
13684,5845,51359
13620,5810,51270
13562,5778,51187
13505,5746,51105
13451,5717,51028
13403,5689,50961
13360,5663,50905
13324,5641,50860
13293,5624,50819
13261,5609,50777
13226,5594,50732
13186,5578,50684
13143,5561,50633
13096,5540,50578
13043,5512,50513
12984,5479,50439
12921,5446,50357
12852,5411,50268
12777,5375,50173
12696,5339,50074
12612,5303,49972
12526,5265,49868
12446,5227,49765
12372,5193,49669
12308,5163,49582
12255,5137,49500
12209,5114,49422
12166,5091,49346
12126,5068,49273
12084,5043,49197
12034,5013,49110
11972,4977,49012
11902,4938,48907
11824,4900,48796
11738,4861,48679
11643,4820,48559
11543,4776,48440
11444,4734,48331
11357,4699,48249
11297,4676,48214
11276,4673,48238
11304,4693,48333
11386,4741,48512
11536,4823,48793
11760,4946,49181
12056,5108,49671
12417,5304,50252
12835,5530,50908
13295,5779,51621
13781,6042,52370
14281,6310,53136
14780,6577,53894
15265,6837,54622
15723,7084,55304
16147,7313,55925
16530,7519,56479
16862,7697,56954
17139,7847,57347
17361,7967,57659
17531,8055,57891
17650,8112,58045
17719,8141,58128
17739,8146,58150
17722,8132,58123
17677,8108,58057
17611,8073,57961
17535,8032,57848
17456,7988,57729
17376,7946,57608
17295,7903,57483
17217,7860,57358
17146,7821,57235
17080,7784,57114
17015,7747,56988
16946,7707,56854
16870,7662,56712
16785,7613,56558
16687,7555,56387
16573,7487,56197
16446,7410,55992
16309,7328,55775
16163,7242,55551
16013,7157,55330
15867,7073,55119
15730,6994,54922
15606,6922,54742
15499,6862,54584
15410,6815,54454
15337,6779,54351
15280,6754,54275
15241,6740,54225
15219,6734,54197
15210,6732,54183
15213,6735,54182
15229,6742,54197
15255,6753,54227
15290,6767,54268
15331,6785,54315
15372,6806,54368
15410,6829,54424
15449,6851,54480
15490,6871,54533
15531,6891,54581
15567,6909,54621
15592,6922,54650
15604,6931,54663
15603,6934,54661
15587,6929,54640
15557,6914,54598
15516,6892,54536
15466,6867,54458
15404,6837,54367
15335,6801,54263
15259,6760,54145
15176,6716,54016
15087,6668,53884
14997,6618,53752
14910,6569,53623
14824,6522,53496
14735,6473,53366
14641,6423,53235
14550,6374,53106
14462,6327,52980
14376,6280,52857
14292,6235,52735
14211,6191,52615
14132,6145,52496
14054,6099,52379
13978,6055,52267
13904,6012,52157
13833,5974,52051
13767,5941,51948
13703,5913,51848
13641,5888,51749
13575,5862,51653
13506,5831,51558
13434,5797,51463
13362,5761,51367
13286,5723,51270
13201,5680,51170
13108,5633,51065
13010,5588,50956
12912,5545,50843
12816,5500,50727
12724,5456,50609
12639,5412,50495
12563,5370,50390
12498,5331,50296
12443,5299,50212
12398,5274,50140
12360,5254,50079
12328,5237,50027
12302,5224,49985
12278,5215,49948
12250,5206,49912
12215,5192,49870
12174,5174,49823
12130,5152,49770
12081,5125,49706
12024,5093,49631
11958,5056,49550
11887,5018,49465
11813,4980,49374
11739,4943,49277
11665,4905,49174
11592,4868,49065
11516,4830,48955
11437,4792,48843
11353,4749,48731
11268,4707,48622
11184,4666,48517
11108,4629,48417
11040,4598,48324
10979,4572,48239
10925,4550,48161
10878,4531,48093
10837,4515,48036
10807,4505,47994
10796,4502,47971
10806,4509,47979
10846,4533,48033
10927,4578,48153
11052,4646,48347
11230,4741,48625
11469,4868,48994
11771,5029,49461
12138,5222,50023
12560,5443,50669
13025,5687,51377
13517,5946,52125
14023,6213,52894
14529,6481,53662
15017,6743,54401
15476,6992,55094
15898,7222,55731
16277,7431,56301
16609,7613,56797
16884,7765,57209
17098,7884,57535
17258,7970,57780
17368,8026,57953
17435,8056,58057
17465,8065,58103
17468,8060,58101
17444,8044,58059
17396,8017,57986
17329,7983,57888
17252,7943,57771
17168,7895,57641
17076,7842,57500
16976,7788,57350
16870,7732,57191
16758,7672,57022
16637,7606,56841
16506,7534,56646
16364,7455,56436
16211,7370,56213
16053,7280,55980
15895,7190,55746
15739,7103,55513
15583,7020,55285
15428,6938,55062
15281,6859,54849
15148,6787,54652
15032,6724,54473
14932,6668,54312
14849,6621,54178
14787,6585,54073
14740,6558,53993
14703,6538,53933
14680,6527,53894
14674,6524,53879
14681,6530,53883
14695,6537,53899
14712,6544,53922
14731,6549,53951
14749,6554,53981
14763,6559,54009
14776,6566,54038
14791,6574,54069
14811,6583,54101
14834,6594,54134
14853,6606,54164
14864,6616,54188
14865,6620,54200
14857,6618,54200
14839,6610,54190
14816,6599,54170
14786,6582,54135
14748,6558,54084
14702,6531,54021
14649,6503,53946
14590,6470,53857
14526,6433,53755
14457,6394,53643
14379,6353,53521
14292,6307,53387
14192,6257,53242
14080,6199,53086
13952,6133,52918
13809,6061,52739
13655,5985,52551
13499,5908,52360
13350,5831,52170
13215,5761,51991
13102,5701,51831
13014,5654,51693
12945,5615,51574
12886,5581,51471
12836,5554,51386
12795,5535,51314
12760,5517,51247
12728,5499,51181
12696,5478,51115
12660,5455,51050
12616,5431,50982
12562,5403,50908
12502,5372,50829
12439,5340,50746
12368,5306,50654
12289,5269,50557
12202,5227,50455
12111,5182,50348
12021,5134,50242
11936,5089,50136
11856,5047,50033
11781,5008,49933
11717,4973,49838
11668,4944,49752
11633,4922,49679
11603,4904,49614
11575,4889,49555
11545,4875,49500
11517,4863,49446
11489,4851,49391
11457,4834,49335
11423,4813,49278
11386,4792,49220
11345,4771,49161
11298,4748,49098
11243,4723,49026
11179,4694,48949
11109,4664,48863
11036,4632,48771
10964,4598,48673
10892,4562,48572
10820,4522,48466
10750,4482,48357
10678,4443,48248
10608,4407,48142
10540,4372,48038
10479,4341,47939
10429,4315,47853
10397,4299,47792
10390,4294,47766
10415,4306,47787
10482,4340,47871
10598,4401,48036
10766,4491,48291
10993,4614,48642
11287,4771,49094
11649,4962,49643
12071,5183,50276
12542,5431,50979
13044,5698,51733
13565,5976,52515
14091,6256,53302
14610,6531,54073
15107,6793,54811
15568,7039,55497
15986,7262,56117
16354,7460,56661
16671,7632,57126
16934,7774,57507
17141,7886,57803
17293,7967,58019
17394,8021,58159
17452,8052,58233
17474,8062,58252
17469,8059,58229
17447,8047,58178
17411,8025,58108
17363,7994,58023
17307,7957,57925
17243,7915,57821
17175,7870,57710
17110,7828,57596
17047,7788,57482
16982,7751,57368
16910,7712,57246
16832,7670,57112
16748,7625,56969
16658,7574,56816
16557,7515,56651
16449,7449,56472
16337,7379,56280
16219,7304,56080
16098,7226,55874
15975,7151,55670
15853,7077,55473
15731,7006,55285
15612,6941,55110
15500,6885,54950
15397,6833,54807
15301,6787,54684
15214,6745,54581
15140,6709,54496
15077,6679,54427
15021,6653,54369
14975,6631,54321
14939,6613,54285
14912,6600,54263
14891,6594,54250
14876,6592,54242
14870,6594,54241
14879,6600,54254
14898,6612,54279
14918,6625,54308
14936,6637,54335
14953,6647,54358
14969,6655,54372
14979,6662,54375
14982,6665,54370
14973,6661,54352
14949,6649,54316
14913,6626,54261
14866,6594,54193
14804,6555,54108
14729,6509,54004
14645,6460,53883
14557,6411,53755
14469,6360,53624
14384,6308,53491
14296,6256,53358
14206,6206,53226
14117,6161,53097
14029,6117,52965
13942,6075,52830
13856,6032,52694
13770,5990,52555
13679,5944,52410
13582,5894,52259
13485,5843,52108
13390,5792,51963
13300,5741,51822
13212,5692,51688
13129,5648,51563
13053,5608,51447
12981,5570,51338
12909,5535,51241
12841,5503,51157
12778,5473,51082
12717,5444,51010
12656,5418,50942
12599,5392,50873
12545,5365,50802
12491,5338,50727
12436,5311,50651
12382,5284,50575
12330,5260,50500
12283,5237,50426
12242,5218,50358
12208,5203,50298
12181,5190,50244
12161,5181,50196
12148,5177,50155
12142,5176,50118
12138,5173,50084
12132,5166,50052
12126,5159,50022
12117,5150,49992
12097,5137,49957
12065,5119,49914
12026,5099,49862
11980,5077,49801
11926,5052,49730
11868,5023,49656
11813,4994,49582
11760,4966,49508
11705,4939,49429
11649,4913,49344
11596,4886,49254
11545,4858,49165
11492,4829,49075
11434,4799,48984
11375,4768,48895
11316,4737,48807
11257,4706,48717
11200,4676,48630
11152,4651,48550
11116,4631,48487
11097,4621,48453
11107,4626,48466
11155,4652,48539
11251,4703,48688
11408,4788,48930
11636,4910,49279
11938,5072,49741
12308,5272,50307
12742,5506,50967
13232,5769,51704
13764,6055,52500
14321,6352,53331
14880,6649,54165
15426,6941,54973
15945,7219,55736
16422,7477,56439
16851,7711,57072
17226,7917,57630
17549,8095,58109
17818,8244,58506
18035,8367,58822
18204,8462,59063
18333,8531,59237
18424,8577,59351
18478,8602,59412
18500,8610,59428
18495,8606,59408
18470,8591,59361
18431,8570,59295
18386,8547,59219
18335,8520,59137
18280,8487,59046
18222,8448,58945
18162,8410,58840
18100,8371,58733
18032,8329,58619
17960,8283,58499
17885,8234,58372
17801,8181,58237
17704,8123,58085
17591,8057,57915
17464,7985,57725
17324,7906,57518
