green_channel,red_channel,ir_channel
14973,38514,56957
14964,38512,56951
14959,38509,56942
14960,38505,56930
14966,38501,56917
14978,38500,56900
14994,38498,56880
15003,38493,56855
15005,38486,56826
15000,38474,56796
14988,38460,56767
14974,38447,56740
14957,38436,56717
14940,38428,56701
14925,38425,56691
14913,38425,56685
14905,38425,56680
14898,38422,56669
14886,38412,56649
14867,38397,56622
14846,38379,56589
14826,38363,56554
14808,38347,56518
14789,38327,56482
14768,38303,56453
14748,38281,56426
14729,38257,56398
14709,38231,56367
14690,38208,56340
14675,38189,56315
14657,38171,56289
14635,38153,56261
14611,38135,56240
14589,38119,56229
14567,38105,56219
14548,38089,56206
14534,38078,56194
14525,38073,56183
14516,38070,56175
14508,38067,56164
14502,38062,56147
14504,38061,56131
14509,38066,56114
14510,38069,56092
14509,38070,56068
14503,38070,56045
14491,38066,56022
14475,38057,55999
14457,38048,55978
14437,38035,55956
14412,38019,55934
14392,38002,55917
14379,37992,55903
14373,37989,55896
14378,37992,55898
14394,37996,55907
14417,38006,55925
14443,38025,55952
14469,38053,55984
14502,38086,56024
14544,38122,56076
14591,38162,56135
14641,38208,56201
14693,38263,56273
14750,38323,56348
14807,38382,56429
14862,38437,56519
14921,38491,56619
14983,38546,56724
15040,38600,56824
15090,38650,56918
15141,38699,57005
15193,38747,57089
15238,38792,57170
15276,38832,57244
15311,38868,57305
15342,38901,57352
15366,38927,57388
15385,38951,57424
15403,38978,57462
15418,39000,57497
15429,39015,57527
15436,39024,57554
15442,39029,57576
15447,39028,57590
15448,39021,57594
15442,39009,57589
15432,38994,57578
15422,38982,57566
15415,38971,57554
15409,38961,57543
15410,38952,57535
15419,38947,57531
15429,38943,57531
15437,38941,57532
15439,38938,57527
15435,38932,57513
15426,38920,57485
15413,38903,57451
15398,38886,57419
15377,38867,57389
15351,38842,57357
15320,38815,57324
15285,38790,57291
15248,38767,57260
15213,38745,57231
15179,38723,57206
15145,38701,57187
15114,38677,57171
15092,38653,57157
15080,38633,57148
15077,38618,57140
15079,38608,57132
15081,38602,57123
15082,38601,57116
15082,38602,57115
15080,38598,57120
15080,38594,57127
15081,38592,57136
15083,38591,57147
15086,38590,57159
15094,38588,57171
15106,38591,57180
15123,38599,57188
15143,38609,57194
15158,38617,57197
15166,38621,57193
15165,38623,57182
15161,38622,57163
15156,38616,57143
15146,38605,57123
15129,38590,57103
15105,38568,57078
15077,38542,57048
15054,38520,57016
15037,38502,56983
15019,38483,56956
15000,38465,56936
14979,38448,56917
14952,38430,56893
14919,38407,56864
14881,38380,56833
14836,38354,56801
14791,38326,56765
14750,38297,56723
14719,38269,56681
14697,38245,56644
14680,38225,56615
14669,38211,56593
14661,38202,56573
14654,38191,56549
14646,38177,56518
14638,38161,56485
14631,38150,56457
14626,38144,56436
14620,38143,56419
14605,38140,56397
14583,38129,56368
14558,38112,56338
14532,38092,56307
14504,38067,56272
14475,38037,56240
14444,38009,56213
14411,37985,56189
14381,37967,56170
14355,37958,56157
14329,37953,56146
14306,37946,56136
14285,37936,56124
14263,37923,56108
14241,37910,56091
14224,37899,56076
14212,37889,56060
14200,37880,56042
14186,37873,56021
14174,37867,55995
14159,37856,55966
14139,37839,55931
14115,37821,55891
14090,37807,55852
14065,37793,55819
14038,37772,55791
14009,37748,55771
13980,37728,55756
13952,37714,55746
13937,37710,55744
13939,37719,55761
13957,37740,55795
13991,37771,55840
14038,37807,55897
14096,37850,55967
14159,37902,56050
14221,37960,56148
14285,38023,56253
14350,38085,56357
14413,38142,56462
14478,38202,56571
14544,38262,56683
14606,38317,56792
14662,38369,56895
14716,38425,56994
14774,38487,57093
14830,38548,57189
14877,38601,57276
14915,38645,57352
14946,38682,57417
14971,38712,57473
14995,38734,57520
15015,38750,57560
15027,38758,57595
15027,38757,57624
15022,38753,57646
15019,38748,57658
15014,38744,57663
15006,38741,57663
14997,38739,57656
14985,38736,57646
14970,38734,57636
14953,38729,57625
14932,38721,57612
14908,38713,57596
14888,38704,57578
14876,38697,57564
14870,38693,57557
14870,38688,57554
14873,38679,57549
14877,38667,57539
14880,38654,57521
14878,38637,57497
14874,38622,57470
14866,38609,57438
14860,38595,57400
14855,38583,57365
14846,38572,57333
14831,38555,57301
14811,38537,57271
14790,38524,57249
14770,38517,57230
14756,38508,57210
14748,38501,57191
14745,38495,57175
14744,38491,57163
14743,38487,57154
14743,38485,57152
14737,38485,57158
14727,38486,57169
14718,38490,57181
14713,38495,57195
14710,38499,57206
14712,38501,57210
14721,38505,57210
14736,38508,57208
14752,38505,57203
14762,38499,57198
14768,38495,57199
14771,38495,57202
14771,38494,57199
14771,38491,57192
14772,38485,57181
14772,38483,57166
14773,38486,57153
14775,38492,57145
14779,38499,57138
14779,38505,57128
14776,38503,57112
14766,38492,57093
14752,38477,57071
14740,38462,57050
14727,38447,57030
14708,38433,57007
14685,38417,56982
14664,38398,56956
14645,38380,56928
14627,38363,56896
14612,38348,56867
14597,38336,56839
14582,38324,56810
14567,38307,56776
14548,38286,56734
14526,38260,56691
14502,38233,56656
14479,38211,56629
14461,38197,56611
14448,38188,56599
14435,38179,56585
14422,38167,56566
14414,38158,56539
14410,38156,56509
14403,38156,56479
14390,38154,56453
14376,38148,56435
14363,38135,56427
14354,38117,56417
14349,38098,56402
14347,38080,56388
14347,38066,56374
14347,38058,56361
14345,38051,56348
14342,38043,56331
14336,38031,56308
14323,38011,56281
14311,37990,56252
14302,37974,56229
14290,37960,56210
14273,37948,56189
14256,37939,56160
14242,37932,56130
14228,37929,56106
14211,37929,56081
14193,37927,56052
14174,37917,56023
14153,37900,55995
14135,37880,55971
14126,37866,55955
14122,37862,55951
14120,37869,55963
14121,37882,55987
14125,37898,56020
14138,37918,56061
14161,37939,56106
14195,37965,56159
14240,38003,56226
14295,38056,56317
14359,38122,56433
14429,38198,56563
14508,38280,56697
14592,38367,56832
14677,38455,56963
14757,38540,57093
14830,38618,57219
14896,38686,57331
14958,38744,57426
15016,38792,57506
15065,38831,57578
15105,38863,57640
15138,38887,57694
15163,38902,57736
15185,38918,57769
15205,38937,57796
15219,38953,57819
15226,38966,57832
15229,38974,57838
15233,38974,57838
15234,38963,57832
15227,38945,57823
15214,38921,57811
15199,38899,57797
15183,38879,57784
15160,38856,57771
15135,38837,57757
15113,38825,57743
15096,38819,57730
15083,38819,57715
15075,38824,57700
15071,38831,57683
15070,38836,57658
15072,38833,57627
15073,38821,57590
15066,38804,57554
15049,38784,57522
15024,38763,57492
14994,38741,57461
14967,38720,57433
14947,38704,57410
14932,38690,57388
14914,38672,57368
14896,38653,57352
14880,38636,57336
14872,38623,57319
14871,38614,57304
14867,38606,57291
14860,38597,57277
14857,38593,57266
14860,38592,57261
14867,38595,57260
14875,38603,57260
14887,38613,57261
14903,38618,57263
14924,38622,57268
14945,38631,57277
14959,38640,57288
14964,38642,57300
14962,38641,57306
14959,38638,57308
14952,38635,57311
14945,38631,57314
14938,38628,57312
14933,38630,57308
14931,38635,57305
14928,38639,57301
14922,38639,57294
14912,38630,57282
14900,38618,57263
14882,38603,57239
14854,38578,57211
14821,38546,57181
14791,38514,57150
14764,38482,57115
14733,38449,57073
14703,38421,57030
14681,38400,56990
14665,38382,56956
14644,38365,56926
14622,38349,56903
14604,38337,56887
14591,38332,56877
14583,38330,56865
14580,38331,56850
14575,38335,56836
14569,38336,56821
14566,38336,56807
14559,38336,56793
14547,38332,56776
14528,38322,56758
14507,38309,56737
14487,38296,56714
14466,38285,56687
14441,38271,56651
14414,38250,56610
14384,38221,56566
14354,38186,56519
14324,38147,56467
14298,38108,56418
14273,38072,56380
14245,38037,56350
14215,38003,56323
14187,37976,56304
14164,37958,56291
14151,37946,56276
14147,37940,56259
14147,37934,56240
14148,37930,56220
14153,37925,56200
14151,37917,56177
14136,37903,56147
14116,37886,56115
14092,37867,56083
14061,37845,56046
14028,37820,56005
13999,37797,55962
13976,37781,55920
13956,37773,55880
13939,37766,55845
13926,37759,55814
13915,37747,55780
13902,37726,55742
13888,37703,55705
13875,37686,55676
13861,37672,55653
13842,37657,55633
13823,37641,55619
13812,37629,55615
13813,37626,55622
13823,37635,55639
13843,37656,55671
13869,37690,55719
13895,37731,55783
13920,37778,55861
13953,37832,55951
14001,37891,56048
14060,37954,56151
14123,38016,56259
14190,38083,56371
14260,38153,56487
14330,38219,56604
14398,38279,56718
14462,38335,56823
14519,38384,56917
14572,38427,57003
14625,38472,57086
14673,38521,57167
14715,38564,57236
14747,38600,57292
14772,38634,57339
14797,38665,57378
14819,38693,57415
14837,38719,57449
14852,38738,57475
14866,38748,57489
14878,38751,57491
14885,38747,57486
14882,38736,57478
14864,38719,57464
14838,38696,57445
14809,38669,57423
14779,38639,57399
14754,38610,57375
14733,38585,57353
14715,38566,57334
14702,38554,57314
14691,38544,57291
14678,38532,57262
14664,38514,57223
14648,38490,57183
14628,38465,57151
14606,38445,57127
14588,38427,57100
14575,38410,57069
14567,38400,57041
14565,38399,57022
14569,38400,57005
14577,38398,56984
14587,38390,56962
14590,38377,56939
14586,38358,56912
14584,38341,56888
14586,38334,56875
14582,38332,56868
14569,38328,56864
14555,38323,56858
14540,38313,56847
14523,38295,56837
14509,38280,56831
14500,38273,56831
14495,38276,56837
14493,38284,56842
14492,38294,56845
14494,38305,56849
14505,38317,56854
14520,38324,56856
14529,38323,56855
14532,38314,56852
14532,38304,56848
14525,38294,56840
14511,38286,56826
14496,38283,56811
14482,38280,56797
14466,38270,56781
14451,38252,56761
14438,38227,56737
14425,38200,56711
14405,38176,56686
14377,38159,56662
14353,38154,56638
14339,38155,56615
14335,38151,56594
14333,38144,56576
14332,38138,56563
14333,38131,56557
14328,38115,56550
14314,38094,56539
14297,38074,56524
14282,38059,56506
14272,38048,56488
14264,38039,56470
14250,38025,56450
14233,38007,56424
14218,37992,56390
14206,37982,56356
14190,37975,56324
14169,37963,56294
14148,37946,56263
14133,37931,56232
14127,37921,56205
14128,37917,56181
14128,37914,56159
14122,37911,56142
14118,37911,56129
14121,37910,56115
14125,37906,56097
14123,37899,56074
14117,37890,56046
14112,37878,56020
14105,37863,55998
14091,37844,55973
14065,37823,55943
14028,37799,55912
13990,37773,55887
13958,37752,55863
13936,37734,55836
13918,37713,55808
13901,37688,55781
13887,37669,55755
13876,37657,55729
13862,37639,55698
13843,37616,55661
13825,37592,55620
13806,37571,55578
13787,37555,55537
13767,37541,55498
13747,37528,55465
13729,37521,55440
13719,37523,55428
13723,37536,55435
13741,37561,55462
13767,37594,55504
13799,37632,55560
13837,37678,55631
13880,37732,55713
13926,37789,55797
13980,37848,55886
14044,37912,55981
14114,37978,56083
14184,38042,56186
14250,38107,56288
14312,38169,56391
14364,38224,56493
14410,38276,56590
14447,38324,56680
14479,38367,56762
14509,38402,56838
14538,38428,56906
14566,38446,56969
14593,38462,57025
14616,38476,57065
14636,38483,57094
14655,38485,57116
14673,38487,57129
14688,38489,57135
14701,38493,57134
14709,38501,57125
14708,38504,57107
14691,38496,57077
14664,38479,57034
14638,38458,56988
14614,38435,56948
14590,38406,56910
14563,38371,56869
14534,38338,56828
14508,38313,56793
14483,38295,56761
14460,38275,56731
14437,38252,56703
14417,38229,56679
14399,38207,56655
14376,38187,56620
14344,38164,56575
14309,38139,56524
14276,38113,56475
14246,38087,56430
14219,38065,56393
14197,38047,56366
14183,38029,56345
14172,38013,56331
14160,38003,56321
14147,37993,56309
14132,37983,56298
14120,37978,56292
14114,37983,56293
14115,37992,56305
14120,38003,56321
14130,38014,56331
14141,38020,56333
14148,38019,56330
14146,38016,56326
14143,38011,56320
14143,38003,56318
14149,38001,56320
14159,38006,56320
14166,38013,56317
14169,38016,56312
14165,38016,56306
14157,38016,56302
14152,38016,56298
14151,38016,56293
14152,38016,56288
14151,38016,56281
14146,38010,56268
14142,38002,56252
14140,37997,56236
14137,37994,56218
14134,37989,56202
14130,37982,56193
14128,37974,56185
14128,37965,56170
14123,37955,56148
14110,37941,56124
14093,37922,56098
14074,37900,56067
14057,37876,56034
14038,37853,56002
14012,37832,55969
13982,37810,55933
13956,37786,55897
13932,37763,55864
13912,37747,55838
13898,37738,55819
13894,37734,55803
13900,37732,55791
13910,37730,55776
13919,37729,55756
13927,37728,55736
13933,37727,55721
13931,37723,55706
13923,37717,55686
13914,37712,55664
13904,37711,55643
13891,37714,55623
13875,37712,55603
13858,37702,55581
13842,37683,55555
13823,37659,55525
13804,37633,55491
13783,37603,55453
13754,37568,55414
13718,37536,55374
13685,37511,55337
13662,37489,55304
13644,37467,55274
13630,37446,55245
13621,37427,55218
13621,37420,55199
13629,37426,55193
13640,37437,55194
13650,37450,55199
13658,37466,55213
13670,37488,55237
13687,37515,55274
13708,37550,55323
13736,37589,55385
13776,37632,55458
13826,37679,55542
13880,37733,55636
13932,37788,55740
13979,37838,55848
14027,37890,55955
14078,37942,56056
14131,37996,56156
14185,38056,56260
14239,38116,56362
14291,38171,56459
14340,38218,56546
14385,38261,56621
14427,38303,56685
14466,38346,56742
14503,38389,56794
14540,38430,56842
14572,38462,56885
14594,38484,56918
14604,38494,56937
14604,38492,56945
14598,38483,56948
14590,38475,56948
14580,38460,56941
14565,38437,56923
14540,38413,56899
14512,38392,56874
14490,38372,56850
14474,38354,56825
14464,38338,56797
14460,38320,56768
14456,38297,56740
14442,38271,56709
14419,38242,56675
14393,38213,56641
14369,38187,56605
14351,38166,56567
14342,38153,56535
14337,38146,56511
14334,38138,56491
14334,38132,56467
14336,38128,56443
14333,38123,56427
14324,38115,56412
14310,38104,56390
14297,38092,56368
14285,38083,56351
14271,38072,56332
14251,38059,56305
14230,38048,56275
14208,38038,56249
14183,38028,56225
14164,38021,56204
14156,38012,56187
14155,38002,56176
14154,37996,56172
14149,37991,56169
14140,37987,56171
14133,37988,56181
14129,37990,56188
14124,37994,56186
14122,37999,56181
14125,37999,56173
14125,37990,56161
14118,37977,56148
14108,37966,56136
14098,37956,56121
14089,37942,56108
14082,37926,56102
14079,37915,56100
14078,37908,56095
14073,37902,56091
14064,37899,56087
14054,37901,56080
14046,37906,56070
14038,37907,56057
14031,37901,56043
14019,37886,56024
13998,37866,55998
13969,37846,55967
13936,37825,55932
13904,37805,55897
13875,37783,55860
13847,37755,55818
13819,37724,55774
13791,37695,55732
13769,37673,55693
13754,37659,55663
13744,37651,55640
13730,37643,55617
13711,37632,55594
13695,37618,55576
13689,37609,55565
13686,37606,55558
13679,37605,55548
13671,37600,55531
13666,37588,55507
13660,37575,55481
13651,37559,55456
13640,37542,55432
13632,37524,55415
13621,37503,55398
13605,37483,55376
13591,37467,55347
13579,37456,55315
13566,37444,55283
13555,37429,55253
13541,37413,55223
13521,37398,55195
13501,37385,55169
13487,37376,55148
13479,37371,55136
13475,37366,55128
13476,37358,55119
13482,37351,55108
13493,37351,55098
13507,37357,55091
13523,37370,55091
13544,37387,55101
13568,37404,55125
13597,37429,55160
13636,37467,55204
13678,37507,55260
13721,37544,55332
13767,37581,55419
13814,37622,55517
13866,37671,55618
13924,37728,55726
13982,37787,55837
14038,37844,55946
14090,37902,56054
14143,37960,56156
14201,38017,56254
14259,38076,56350
14312,38134,56442
14360,38188,56529
14406,38239,56608
14448,38284,56677
14482,38324,56736
14509,38362,56790
14531,38398,56839
14548,38425,56877
14565,38444,56904
14586,38460,56925
14608,38473,56940
14624,38477,56946
14636,38473,56947
14641,38461,56942
14640,38443,56929
14636,38420,56908
14628,38394,56886
14620,38370,56863
14611,38350,56840
14597,38334,56815
14579,38317,56786
14558,38301,56758
14535,38289,56736
14515,38277,56720
14498,38265,56705
14478,38252,56689
14458,38242,56672
14442,38232,56653
14428,38223,56629
14419,38216,56608
14414,38208,56591
14406,38197,56578
14395,38188,56564
14381,38179,56547
14368,38172,56530
14359,38171,56514
14351,38169,56498
14339,38158,56482
14328,38141,56465
14323,38124,56449
14321,38109,56434
14314,38097,56417
14304,38083,56398
14297,38074,56383
14297,38076,56378
14302,38087,56376
14305,38101,56377
14308,38116,56380
14315,38128,56385
14323,38130,56385
14324,38124,56376
14319,38119,56368
14314,38116,56366
14310,38110,56365
14308,38099,56363
14311,38090,56357
14317,38085,56349
14323,38083,56342
14333,38086,56340
14351,38093,56342
14367,38099,56343
14373,38098,56334
14368,38088,56314
14355,38075,56289
14335,38060,56259
14314,38043,56228
14295,38030,56200
14278,38023,56178
14265,38015,56160
14255,38003,56146
14245,37993,56133
14232,37989,56121
14221,37988,56111
14214,37985,56095
14204,37973,56073
14192,37958,56052
14180,37945,56033
14167,37933,56014
14150,37917,55989
14130,37899,55963
14115,37882,55939
14109,37864,55916
14109,37847,55891
14111,37836,55867
14108,37832,55840
14108,37828,55813
14111,37823,55792
14111,37821,55776
14111,37821,55759
14111,37820,55741
14107,37816,55727
14094,37808,55715
14075,37795,55701
14049,37774,55680
14022,37752,55651
14000,37734,55623
13988,37721,55601
13984,37712,55584
13985,37713,55571
13986,37721,55557
13986,37722,55538
13985,37711,55516
13982,37693,55494
13973,37669,55467
13957,37644,55438
13940,37622,55415
13924,37605,55399
13904,37592,55388
13882,37576,55373
13864,37557,55353
13854,37541,55331
13847,37527,55308
13837,37512,55277
13820,37494,55244
13804,37474,55215
13791,37462,55193
13778,37462,55179
13771,37470,55174
13773,37481,55180
13783,37498,55200
13798,37523,55231
13821,37553,55271
13855,37586,55318
13901,37625,55379
13951,37671,55458
14000,37721,55549
14047,37774,55651
14099,37826,55760
14155,37877,55871
14220,37935,55986
14291,38001,56109
14361,38071,56232
14427,38137,56346
14488,38197,56450
14543,38250,56549
14596,38302,56640
14649,38354,56722
14699,38400,56795
14746,38438,56860
14787,38472,56917
14822,38505,56963
14849,38532,56995
14867,38550,57013
14881,38560,57025
14891,38563,57035
14895,38565,57046
14892,38566,57052
14878,38559,57051
14856,38540,57041
14828,38513,57023
14796,38482,56996
14761,38446,56959
14730,38410,56920
14707,38379,56886
14695,38354,56856
14688,38333,56831
14682,38320,56810
14678,38314,56789
14672,38308,56763
14662,38300,56736
14656,38295,56711
14648,38286,56685
14634,38276,56662
14618,38265,56644
14606,38256,56631
14599,38252,56626
14590,38246,56623
14583,38237,56619
14577,38225,56606
14570,38217,56587
14567,38214,56568
14566,38211,56551
14561,38204,56534
14553,38197,56518
14549,38196,56503
14554,38204,56492
14566,38217,56484
14581,38228,56481
14593,38235,56480
14597,38240,56481
14596,38240,56480
14594,38237,56476
14591,38235,56475
14585,38232,56479
14578,38228,56481
14575,38230,56482
14577,38236,56486
14579,38238,56490
14577,38232,56492
14571,38224,56492
14563,38220,56492
14551,38217,56489
14541,38214,56483
14533,38210,56473
14523,38201,56457
14510,38190,56440
14498,38180,56424
14484,38170,56407
14462,38153,56388
14435,38130,56362
14413,38105,56333
14395,38077,56302
14374,38044,56268
14347,38010,56232
14315,37977,56192
14282,37940,56150
14252,37907,56108
14227,37884,56069
14208,37872,56037
14192,37868,56017
14177,37865,56003
14162,37860,55984
14148,37854,55964
14134,37845,55948
14117,37831,55929
14091,37811,55901
14061,37784,55868
14034,37751,55841
14013,37721,55817
13993,37694,55791
13972,37672,55764
13952,37651,55735
13935,37629,55703
13924,37609,55671
13922,37593,55646
13919,37581,55627
13910,37568,55605
13896,37555,55582
13879,37541,55559
13856,37523,55533
13828,37500,55502
13798,37473,55468
13771,37449,55433
13750,37429,55403
13728,37409,55378
13705,37391,55357
13687,37378,55338
13678,37369,55321
13673,37363,55305
13667,37360,55281
13657,37354,55249
13645,37344,55214
13630,37328,55180
13608,37310,55146
13581,37293,55116
13557,37277,55093
13541,37262,55074
13528,37250,55061
13514,37245,55054
13498,37243,55047
13483,37237,55033
13468,37226,55012
13451,37210,54988
13431,37194,54966
13411,37183,54952
13403,37185,54956
13411,37199,54981
13433,37224,55019
13465,37260,55065
13503,37302,55121
13545,37345,55191
13592,37392,55274
13645,37445,55365
13706,37500,55459
13765,37552,55554
13819,37602,55651
13880,37660,55755
13946,37720,55861
14006,37777,55963
14057,37834,56061
14110,37893,56156
14166,37949,56245
14215,37994,56324
14256,38034,56394
14296,38072,56457
14335,38107,56515
14364,38131,56562
14380,38144,56593
14382,38148,56613
14377,38149,56625
14369,38145,56628
14358,38134,56624
14345,38120,56618
14331,38110,56613
14323,38101,56603
14318,38088,56584
14311,38072,56560
14303,38060,56536
14294,38052,56515
14284,38046,56493
14271,38039,56465
14253,38027,56428
14231,38012,56390
14210,37993,56352
14189,37968,56314
14168,37942,56277
14148,37921,56243
14134,37904,56210
14121,37890,56178
14103,37877,56143
14083,37862,56103
14068,37845,56065
14055,37828,56034
14044,37813,56002
14033,37801,55968
14021,37787,55934
14014,37776,55910
14007,37768,55897
13996,37759,55885
13983,37751,55878
13971,37746,55877
13957,37739,55877
13946,37729,55871
13943,37720,55868
13945,37720,55874
13948,37726,55890
13950,37731,55909
13950,37730,55926
13949,37728,55937
13949,37724,55940
13952,37717,55940
13959,37713,55942
13964,37715,55947
13967,37724,55955
13973,37741,55967
13982,37762,55979
13989,37779,55982
13993,37791,55981
13997,37797,55981
14001,37800,55979
14005,37802,55973
14006,37800,55962
14000,37792,55945
13993,37779,55926
13986,37766,55904
13981,37759,55883
13977,37756,55866
13976,37754,55849
13972,37752,55825
13964,37746,55800
13954,37734,55778
13945,37719,55759
13937,37706,55740
13926,37696,55722
13909,37684,55708
13890,37673,55694
13874,37662,55675
13866,37649,55651
13861,37631,55622
13851,37606,55588
13839,37581,55556
13825,37556,55523
13812,37534,55488
13797,37519,55456
13782,37506,55427
13771,37493,55403
13761,37483,55382
13748,37473,55363
13734,37463,55344
13718,37456,55323
13698,37448,55299
13679,37438,55273
13667,37425,55249
13663,37415,55229
13663,37411,55211
13663,37408,55189
13660,37403,55166
13655,37396,55148
13645,37384,55131
13632,37368,55110
13620,37354,55091
13610,37351,55078
13601,37356,55073
13589,37358,55065
13577,37354,55051
13562,37342,55036
13549,37327,55018
13539,37312,54993
13528,37299,54964
13516,37287,54937
13505,37273,54912
13495,37260,54888
13491,37254,54872
13496,37259,54868
13506,37272,54871
13523,37291,54882
13548,37317,54910
13579,37348,54958
13615,37381,55020
13653,37418,55093
13692,37462,55178
13736,37520,55278
13788,37589,55386
13844,37659,55498
13906,37724,55610
13975,37787,55724
14045,37849,55840
14112,37905,55949
14174,37957,56049
14234,38009,56142
14292,38064,56226
14343,38110,56298
14383,38145,56357
14418,38177,56413
14449,38207,56466
14470,38228,56507
14482,38236,56537
14489,38242,56564
14497,38250,56587
14499,38251,56598
14494,38245,56592
14490,38238,56579
14487,38230,56564
14480,38214,56548
14468,38192,56529
14450,38172,56506
14430,38155,56476
14410,38137,56446
14395,38120,56418
14386,38108,56393
14380,38101,56370
14374,38093,56348
14367,38082,56327
14356,38068,56305
14344,38050,56279
14331,38026,56248
14315,37999,56215
14296,37979,56185
14275,37965,56155
14251,37945,56120
14223,37920,56085
14190,37898,56058
14164,37887,56036
14147,37879,56014
14135,37870,55996
14128,37869,55986
14129,37870,55981
14134,37865,55971
14141,37860,55958
14148,37861,55948
14154,37861,55941
14159,37859,55941
14168,37862,55944
14178,37872,55947
14186,37884,55953
14194,37900,55963
14206,37919,55974
14216,37936,55986
14222,37945,55996
14226,37946,55997
14232,37942,55989
14243,37943,55985
14253,37944,55987
14253,37942,55985
14249,37937,55979
14244,37931,55974
14235,37918,55968
14219,37899,55961
14199,37884,55954
14179,37873,55947
14162,37868,55941
14147,37863,55935
14137,37855,55927
14135,37850,55918
14139,37853,55907
14150,37863,55896
14162,37872,55886
14173,37874,55870
14181,37868,55848
14180,37854,55823
14169,37839,55796
14156,37821,55764
14147,37797,55729
14137,37776,55702
14126,37760,55681
14114,37743,55657
14101,37721,55628
14086,37698,55599
14069,37683,55575
14055,37675,55551
14044,37666,55526
14034,37651,55503
14020,37639,55486
14005,37632,55473
13997,37625,55463
13997,37619,55458
14000,37614,55456
13997,37604,55447
13984,37584,55429
13962,37559,55401
13940,37540,55369
13928,37529,55341
13922,37527,55317
13916,37529,55297
13907,37528,55277
13893,37519,55251
13876,37508,55221
13863,37498,55193
13853,37488,55171
13836,37471,55148
13812,37449,55125
13790,37428,55102
13776,37412,55079
13763,37395,55050
13750,37377,55019
13744,37365,54996
13739,37358,54980
13728,37349,54961
13715,37337,54938
13703,37325,54917
13689,37314,54904
13677,37304,54893
13673,37302,54882
13674,37307,54877
13675,37316,54878
13673,37330,54885
13677,37350,54901
13695,37376,54929
13722,37403,54966
13749,37428,55011
13776,37454,55066
13810,37484,55135
13855,37523,55222
13906,37576,55323
13963,37638,55434
14024,37707,55556
14088,37775,55683
14161,37844,55806
14244,37917,55931
14327,37991,56059
14402,38061,56182
14466,38121,56290
14520,38172,56386
14571,38222,56473
14619,38269,56550
14663,38314,56614
14703,38355,56668
14734,38388,56711
14753,38414,56745
14764,38432,56769
14769,38445,56789
14771,38451,56805
14772,38448,56814
14772,38435,56818
14766,38419,56819
14755,38406,56817
14743,38394,56810
14730,38378,56795
14716,38365,56778
14703,38350,56759
14689,38327,56733
14671,38303,56703
14649,38288,56676
14631,38277,56655
14621,38265,56634
14617,38251,56615
14616,38242,56597
14616,38238,56579
14617,38237,56561
14618,38238,56545
14617,38238,56529
14606,38230,56514
14585,38216,56495
14565,38201,56472
14547,38188,56449
14528,38173,56429
14508,38158,56409
14496,38146,56394
14494,38141,56386
14498,38141,56380
14504,38144,56372
14512,38147,56362
14521,38148,56355
14526,38146,56347
14526,38140,56336
14524,38129,56328
14517,38113,56322
14502,38095,56316
14486,38080,56313
14480,38072,56317
14477,38070,56326
14476,38074,56338
14478,38084,56353
14481,38097,56365
14485,38105,56367
14488,38107,56363
14482,38105,56357
14469,38102,56346
14449,38097,56330
14423,38078,56310
14390,38044,56286
14344,38000,56254
14280,37948,56214
14200,37889,56166
14103,37823,56107
13994,37750,56041
13882,37673,55969
13774,37591,55892
13670,37511,55820
13574,37441,55757
13488,37384,55700
13407,37336,55650
13333,37294,55612
13264,37256,55580
13201,37217,55547
13145,37174,55509
13097,37131,55468
13054,37091,55423
13014,37058,55380
12978,37030,55344
12950,37007,55315
12927,36992,55288
12905,36979,55257
12884,36962,55223
12867,36942,55194
12854,36929,55170
12843,36924,55149
12832,36923,55126
12826,36921,55099
12821,36918,55075
12817,36917,55056
12813,36917,55039
12810,36916,55024
12804,36913,55012
12799,36909,55002
12799,36907,54992
12803,36907,54981
12810,36908,54966
12819,36911,54947
12831,36912,54927
12843,36909,54912
12855,36906,54899
12866,36903,54884
12877,36902,54869
12885,36902,54859
12894,36903,54852
12904,36902,54840
12913,36902,54823
12921,36910,54808
12934,36924,54796
12950,36934,54783
12961,36940,54770
12964,36944,54763
12957,36942,54756
12943,36929,54744
12929,36912,54727
12919,36900,54708
12914,36892,54689
12914,36884,54673
12915,36877,54658
12914,36875,54647
12915,36877,54639
12917,36882,54631
12916,36890,54619
12908,36888,54601
12893,36874,54574
12877,36853,54544
12858,36834,54513
12841,36819,54486
12825,36803,54468
12811,36788,54456
12804,36780,54451
12809,36784,54458
12824,36798,54477
12842,36820,54506
12865,36852,54546
12899,36893,54608
12945,36939,54691
13001,36989,54787
13067,37049,54893
13145,37123,55014
13231,37210,55147
13320,37306,55286
13406,37403,55428
13489,37495,55570
13564,37581,55710
13637,37661,55847
13707,37738,55983
13770,37810,56113
13825,37872,56233
13872,37921,56342
13917,37962,56439
13959,37995,56522
13992,38018,56586
14021,38036,56632
14046,38056,56668
14065,38071,56696
14084,38081,56715
14102,38087,56726
14115,38091,56729
14121,38088,56723
14121,38083,56712
14123,38081,56704
14129,38080,56702
14136,38081,56702
14141,38083,56697
14139,38079,56686
14134,38071,56674
14129,38065,56663
14125,38064,56656
14128,38067,56654
14136,38073,56652
14145,38078,56646
14156,38081,56638
14169,38086,56635
14178,38089,56631
14180,38087,56619
14180,38081,56601
14177,38073,56583
14173,38067,56569
14166,38062,56559
14156,38052,56553
14142,38041,56548
14123,38028,56541
14099,38011,56531
14079,37992,56519
14067,37978,56506
14060,37970,56491
14054,37965,56473
14043,37957,56453
14034,37948,56433
14031,37942,56416
14035,37942,56405
14039,37949,56400
14045,37958,56395
14055,37967,56391
14065,37976,56392
14074,37986,56396
14081,37992,56400
14081,37992,56399
14072,37985,56393
14061,37975,56387
14053,37966,56386
14051,37960,56391
14051,37958,56401
14054,37959,56410
14058,37961,56413
14061,37965,56415
14063,37975,56422
14059,37985,56429
14052,37994,56432
14049,38001,56430
14051,38004,56419
14054,38003,56402
14049,37998,56383
14040,37989,56363
14029,37972,56340
14012,37950,56312
13992,37927,56285
13969,37908,56261
13941,37893,56236
13918,37880,56212
13908,37870,56189
13908,37865,56168
13909,37859,56147
13907,37856,56129
13899,37853,56109
13887,37846,56088
13875,37833,56070
13862,37813,56050
13847,37788,56022
13828,37760,55991
13810,37734,55960
13796,37712,55929
13781,37693,55895
13765,37674,55862
13745,37656,55828
13726,37640,55795
13709,37625,55767
13696,37609,55739
13687,37598,55713
13677,37589,55694
13663,37580,55682
13646,37572,55667
13625,37558,55646
13602,37536,55621
13575,37508,55589
13549,37476,55551
13527,37443,55516
13505,37414,55482
13482,37389,55451
13460,37370,55426
13442,37362,55410
13429,37362,55396
13419,37363,55378
13412,37364,55358
13408,37367,55341
13406,37369,55330
13403,37366,55319
13396,37358,55304
13386,37346,55289
13374,37331,55271
13359,37312,55244
13344,37293,55212
13332,37277,55179
13322,37267,55149
13315,37260,55123
13309,37253,55101
13305,37252,55086
13302,37254,55078
13299,37254,55074
13297,37247,55067
13297,37238,55055
13296,37231,55043
13295,37230,55028
13297,37237,55011
13301,37244,54995
13304,37247,54981
13305,37244,54961
13310,37235,54937
13311,37224,54910
13302,37212,54880
13283,37197,54846
13259,37176,54815
13234,37157,54795
13211,37144,54787
13199,37141,54789
13202,37149,54801
13215,37163,54820
13236,37183,54845
13268,37209,54886
13309,37243,54943
13357,37283,55014
13414,37330,55098
13479,37389,55199
13551,37463,55315
13632,37547,55438
13721,37635,55568
13808,37723,55708
13888,37813,55852
13965,37901,55992
14042,37983,56128
14113,38056,56257
14170,38118,56374
14215,38168,56473
14253,38209,56559
14289,38247,56638
14320,38283,56710
14344,38313,56770
14358,38332,56822
14360,38338,56859
14358,38337,56882
14358,38336,56900
14360,38337,56915
14366,38334,56922
14372,38331,56923
14375,38329,56921
14372,38325,56914
14368,38319,56905
14372,38318,56903
14383,38320,56907
14394,38321,56911
14405,38327,56912
14415,38334,56912
14418,38333,56908
14413,38326,56896
14404,38317,56878
14394,38306,56858
14383,38294,56837
14366,38280,56815
14346,38266,56792
14322,38249,56769
14297,38227,56744
14278,38207,56721
14265,38195,56702
14252,38186,56685
14232,38167,56658
14208,38141,56624
14186,38116,56594
14172,38102,56572
14164,38097,56554
14160,38095,56537
14164,38094,56525
14169,38094,56520
14170,38094,56516
14169,38091,56510
14167,38085,56505
14168,38076,56505
14170,38064,56504
14172,38052,56502
14170,38044,56501
14163,38040,56505
14159,38043,56510
14160,38054,56514
14168,38071,56521
14174,38085,56531
14174,38092,56536
14167,38091,56537
14158,38083,56534
14148,38074,56531
14141,38068,56528
14135,38062,56520
14132,38057,56507
14129,38052,56491
14126,38043,56474
14126,38032,56458
14126,38022,56444
14120,38011,56431
14109,37998,56415
14095,37986,56395
14083,37974,56372
14074,37959,56346
14058,37937,56316
14036,37912,56282
14014,37884,56249
13989,37854,56217
13958,37824,56182
13927,37797,56143
13903,37772,56103
13881,37751,56067
13861,37733,56039
13842,37715,56017
13823,37696,55996
13800,37673,55972
13773,37647,55944
13750,37625,55915
13735,37608,55891
13722,37589,55867
13710,37572,55840
13700,37561,55813
13691,37550,55789
13685,37539,55766
13681,37530,55744
13678,37521,55723
13672,37513,55699
13662,37507,55676
13649,37498,55654
13633,37489,55635
13615,37475,55618
13595,37457,55600
13574,37440,55579
13557,37429,55558
13546,37423,55536
13536,37420,55514
13523,37414,55488
13508,37403,55461
13490,37388,55435
13465,37371,55411
13436,37353,55382
13409,37337,55349
13387,37323,55316
13368,37310,55282
13354,37299,55250
13342,37290,55224
13332,37280,55199
13325,37274,55180
13321,37271,55167
13318,37267,55160
13314,37263,55153
13306,37256,55146
13297,37246,55142
13288,37234,55135
13276,37219,55118
13263,37204,55095
13254,37195,55077
13245,37187,55057
13232,37176,55029
13217,37157,54995
13203,37133,54959
13192,37111,54919
13181,37090,54878
13164,37068,54841
13143,37052,54813
13124,37039,54795
13109,37028,54789
13104,37025,54800
13115,37030,54821
13139,37043,54852
13170,37067,54893
13208,37100,54942
13251,37140,54999
13296,37187,55069
13343,37237,55150
13393,37290,55246
13450,37352,55357
13513,37420,55475
13579,37487,55594
13643,37551,55711
13703,37609,55824
13764,37665,55934
13824,37721,56040
13873,37773,56138
13916,37816,56224
13956,37852,56300
13989,37883,56367
14010,37910,56426
14025,37935,56475
14038,37954,56514
14046,37971,56545
14053,37986,56568
14062,38001,56584
14068,38013,56591
14070,38021,56586
14068,38023,56579
14062,38021,56571
14053,38010,56557
14043,37988,56537
14029,37961,56511
14016,37936,56483
14007,37914,56457
13999,37892,56429
13991,37877,56401
13985,37873,56380
13983,37877,56367
13987,37883,56360
13994,37890,56355
13997,37895,56349
13989,37895,56339
13975,37889,56325
13960,37877,56310
13945,37862,56292
13925,37843,56267
13904,37823,56237
13886,37806,56206
13872,37794,56177
13860,37780,56148
13848,37763,56120
13833,37750,56102
13815,37739,56092
13795,37731,56086
13783,37726,56083
13783,37725,56082
13787,37726,56083
13794,37732,56086
13808,37742,56092
13819,37749,56095
13830,37749,56094
13847,37752,56094
13869,37761,56097
13893,37775,56099
13913,37786,56100
13928,37790,56102
13938,37789,56105
13945,37785,56108
13947,37782,56109
13941,37781,56111
13926,37777,56117
13903,37769,56125
13880,37756,56127
13863,37742,56121
13853,37733,56110
13850,37729,56099
13845,37726,56085
13833,37720,56068
13817,37713,56052
13800,37705,56040
13779,37691,56027
13752,37674,56005
13722,37655,55972
13691,37633,55930
13668,37609,55890
13657,37587,55859
13653,37570,55836
13652,37562,55818
13652,37555,55798
13649,37543,55775
13643,37531,55753
13636,37522,55732
13626,37511,55710
13611,37495,55684
13593,37474,55656
13577,37452,55630
13563,37437,55609
13550,37430,55590
13534,37425,55570
13515,37414,55548
13495,37396,55526
13472,37378,55504
13448,37363,55479
13421,37345,55447
13391,37319,55413
13364,37291,55383
13346,37272,55360
13336,37262,55346
13335,37255,55334
13341,37249,55319
13355,37246,55301
13369,37245,55276
13377,37243,55243
13383,37240,55207
13383,37235,55177
13376,37227,55153
13361,37212,55128
13343,37194,55101
13327,37178,55079
13311,37165,55064
13291,37150,55050
13264,37131,55034
13238,37112,55014
13212,37093,54992
13185,37078,54972
13158,37062,54953
13132,37045,54931
13112,37033,54908
13103,37026,54889
13103,37023,54881
13109,37031,54891
13123,37050,54918
13140,37074,54960
13163,37106,55011
13197,37149,55076
13239,37199,55157
13288,37260,55250
13347,37329,55354
13413,37402,55466
13482,37475,55579
13550,37546,55687
13617,37613,55791
13683,37672,55895
13744,37725,55996
13800,37778,56094
13857,37831,56192
13916,37881,56288
13968,37926,56376
14012,37963,56451
14048,37997,56508
14073,38023,56554
14087,38037,56589
14096,38043,56617
14104,38047,56637
14107,38044,56646
14105,38035,56645
14097,38025,56635
14086,38015,56615
14075,38002,56589
14065,37987,56557
14055,37973,56521
14045,37959,56483
14033,37947,56450
14017,37941,56424
14002,37941,56409
13991,37941,56402
13979,37937,56391
13965,37927,56372
13946,37908,56349
13923,37888,56326
13899,37869,56297
13876,37851,56263
13854,37839,56232
13833,37826,56203
13815,37808,56172
13799,37790,56145
13789,37775,56127
13784,37762,56113
13783,37746,56098
13789,37727,56080
13797,37710,56065
13802,37697,56047
13805,37688,56028
13807,37683,56012
13806,37682,55994
13796,37678,55972
13778,37672,55952
13755,37666,55938
13733,37661,55933
13711,37652,55932
13696,37643,55936
13690,37638,55946
13690,37636,55961
13694,37637,55974
13702,37641,55981
13713,37649,55989
13728,37661,55995
13740,37670,56000
13750,37672,56005
13760,37674,56010
13771,37676,56011
13786,37679,56009
13800,37683,56007
13805,37688,56001
13801,37690,55993
13791,37688,55978
13776,37686,55960
13762,37684,55944
13753,37681,55926
13749,37671,55903
13746,37656,55879
13740,37637,55856
13729,37615,55833
13715,37596,55808
13701,37583,55786
13685,37572,55772
13666,37560,55761
13653,37552,55746
13648,37549,55729
13646,37551,55713
13647,37554,55697
13647,37553,55680
13648,37549,55666
13653,37542,55652
13657,37534,55635
13653,37523,55617
13642,37510,55599
13628,37494,55579
13614,37475,55554
13597,37451,55530
13583,37428,55508
13577,37414,55492
13576,37405,55477
13575,37395,55463
13571,37384,55447
13566,37376,55431
13552,37369,55411
13530,37355,55386
13506,37338,55354
13486,37326,55323
13473,37317,55294
13463,37303,55263
13454,37287,55228
13447,37274,55197
13440,37264,55172
13429,37251,55150
13418,37237,55131
13409,37225,55112
13402,37215,55092
13392,37208,55076
13375,37205,55062
13355,37201,55046
13337,37196,55025
13319,37187,55003
13304,37174,54981
13294,37157,54965
13287,37141,54955
13279,37126,54945
13276,37113,54941
13277,37109,54949
13281,37120,54970
13291,37145,55007
13309,37184,55065
13333,37231,55139
13360,37279,55225
13394,37328,55323
13442,37385,55431
13500,37450,55546
13559,37513,55656
13618,37571,55764
13674,37626,55870
13724,37676,55972
13771,37726,56068
13825,37779,56158
13885,37830,56247
13942,37878,56333
13990,37921,56410
14030,37953,56476
14063,37972,56535
14088,37984,56587
14106,37997,56632
14123,38015,56676
14144,38036,56717
14162,38056,56748
14172,38071,56774
14183,38084,56797
14196,38094,56816
14202,38100,56826
14204,38107,56831
14212,38121,56833
14226,38133,56829
14234,38134,56819
14229,38125,56802
14218,38114,56784
14205,38104,56770
14187,38094,56757
14169,38084,56745
14156,38076,56735
14143,38066,56727
14127,38053,56717
14114,38043,56705
14106,38033,56689
14097,38016,56665
14085,37992,56633
14073,37967,56597
14065,37946,56563
14062,37929,56533
14059,37919,56507
14058,37918,56482
14056,37918,56457
14052,37913,56434
14046,37907,56415
14038,37905,56404
14031,37901,56391
14024,37890,56377
14012,37869,56363
13995,37847,56352
13977,37832,56346
13966,37826,56348
13965,37829,56359
13967,37841,56378
13970,37857,56397
13971,37875,56412
13971,37888,56420
13970,37890,56421
13968,37885,56420
13960,37877,56416
13952,37867,56406
13950,37856,56393
13953,37848,56383
13959,37841,56374
13971,37836,56368
13982,37834,56363
13990,37838,56354
13996,37843,56344
13995,37844,56339
13983,37839,56336
13966,37831,56336
13952,37825,56340
13944,37823,56345
13938,37825,56346
13929,37826,56339
13917,37821,56321
13902,37809,56292
13886,37791,56254
13870,37773,56216
13857,37761,56185
13843,37751,56164
13830,37740,56144
13818,37730,56122
13801,37717,56101
13781,37702,56080
13766,37690,56058
13757,37677,56032
13741,37659,56000
13715,37638,55966
13689,37618,55930
13664,37599,55890
13639,37584,55848
13613,37569,55807
13585,37552,55772
13559,37535,55742
13542,37521,55717
13534,37508,55696
13529,37500,55681
13523,37496,55667
13519,37490,55653
13519,37481,55642
13520,37470,55631
13518,37454,55616
13517,37436,55599
13519,37425,55585
13520,37422,55571
13512,37418,55550
13493,37410,55525
13465,37399,55498
13433,37384,55472
13401,37366,55449
13373,37351,55428
13354,37339,55411
13339,37324,55394
13325,37303,55369
13312,37281,55332
13301,37260,55293
13297,37241,55255
13300,37227,55221
13303,37217,55193
13301,37209,55173
13290,37198,55156
13269,37186,55134
13252,37178,55114
13246,37178,55102
13251,37189,55096
13265,37205,55098
13283,37224,55113
13304,37246,55145
13332,37271,55190
13368,37300,55247
13409,37336,55318
13456,37380,55400
13510,37430,55492
13572,37484,55595
13641,37548,55709
13715,37620,55835
13793,37694,55966
13871,37767,56099
13944,37836,56229
14009,37896,56355
14068,37953,56475
14127,38011,56593
14186,38067,56708
14245,38123,56815
14301,38179,56908
14352,38230,56987
14396,38275,57054
14427,38313,57111
14448,38339,57154
14464,38355,57186
14478,38366,57209
14488,38373,57220
14493,38375,57221
14497,38374,57216
14502,38375,57211
14502,38378,57207
14496,38373,57200
14484,38358,57189
14472,38344,57177
14463,38336,57164
14452,38323,57152
14435,38302,57141
14419,38286,57134
14402,38274,57124
14384,38259,57106
14367,38239,57082
14354,38218,57059
14343,38198,57032
14332,38180,57001
14315,38163,56968
14290,38147,56935
14258,38125,56901
14225,38099,56870
14195,38074,56842
14165,38050,56810
14136,38024,56776
14110,38001,56746
14084,37980,56722
14060,37963,56695
14037,37944,56663
14015,37924,56634
13999,37906,56611
13989,37893,56595
13987,37885,56583
13987,37881,56574
13983,37878,56563
13979,37875,56555
13976,37878,56554
13976,37892,56560
13982,37916,56571
13992,37940,56585
14003,37962,56601
14014,37975,56612
14025,37980,56613
14038,37986,56611
14050,37991,56607
14056,37992,56597
14058,37994,56584
14058,37992,56569
14053,37983,56554
14043,37967,56541
14032,37944,56530
14024,37925,56521
14016,37907,56511
14000,37887,56500
13979,37872,56490
13958,37862,56483
13943,37853,56477
13936,37849,56466
13940,37848,56448
13952,37847,56428
13962,37846,56407
13963,37842,56381
13964,37834,56351
13967,37826,56321
13965,37818,56293
13960,37809,56268
13950,37798,56245
13934,37788,56224
13912,37776,56202
13888,37759,56177
13862,37742,56152
13834,37725,56125
13797,37705,56099
13755,37684,56071
13715,37662,56042
13679,37638,56013
13643,37611,55984
13611,37581,55949
13585,37546,55905
13567,37514,55858
13559,37491,55816
13560,37479,55782
13565,37476,55755
13575,37475,55737
13587,37473,55726
13597,37474,55719
13598,37473,55707
13591,37469,55688
13574,37460,55664
13549,37444,55634
13519,37420,55601
13481,37392,55568
13442,37362,55533
13414,37336,55500
13391,37318,55468
13370,37303,55435
13355,37294,55402
13345,37288,55369
13336,37276,55341
13324,37256,55315
13310,37234,55288
13302,37213,55264
13297,37197,55248
13287,37181,55235
13274,37161,55216
13264,37146,55193
13255,37133,55170
13242,37117,55144
13226,37105,55114
13206,37097,55086
13186,37091,55066
13172,37088,55058
13166,37094,55066
13170,37107,55093
13183,37126,55137
13206,37152,55196
13242,37186,55267
13288,37229,55346
13339,37280,55431
13398,37337,55525
13465,37405,55629
13540,37477,55741
13611,37548,55861
13677,37618,55987
13741,37692,56117
13807,37767,56248
13871,37839,56372
13933,37902,56482
13995,37957,56575
14051,38002,56651
14100,38037,56713
14140,38067,56767
14170,38091,56817
14191,38107,56858
14205,38117,56887
14218,38129,56911
14234,38144,56937
14251,38157,56960
14267,38164,56977
14281,38167,56987
14293,38170,56991
14303,38173,56990
14311,38176,56982
14320,38179,56965
14328,38180,56941
14330,38172,56915
14332,38162,56889
14337,38153,56865
14338,38145,56841
14335,38138,56817
14331,38130,56794
14327,38120,56770
14320,38110,56747
14308,38098,56727
14292,38083,56705
14268,38063,56683
14239,38041,56663
14211,38021,56645
14187,38001,56621
14173,37984,56595
14162,37974,56572
14148,37967,56550
14127,37961,56524
14104,37952,56494
14081,37936,56464
14059,37917,56437
14044,37906,56416
14037,37906,56405
14035,37913,56396
14037,37921,56388
14044,37926,56385
14058,37931,56385
14076,37937,56385
14092,37939,56386
14106,37943,56393
14121,37957,56407
14137,37976,56425
14150,37991,56441
14158,38003,56452
14159,38011,56457
14152,38018,56458
14143,38021,56454
14136,38018,56448
14130,38009,56448
14123,37997,56446
14117,37983,56437
14117,37970,56426
14118,37960,56415
14116,37953,56402
14109,37947,56390
14102,37942,56379
14095,37936,56371
14081,37924,56364
14059,37910,56352
14039,37896,56333
14021,37879,56305
13999,37856,56268
13975,37828,56226
13956,37800,56180
13941,37778,56136
13924,37755,56094
13904,37728,56053
13882,37705,56018
13859,37685,55989
13836,37663,55966
13818,37645,55949
13803,37630,55931
13785,37615,55911
13769,37597,55885
13754,37579,55853
13738,37558,55823
13720,37536,55796
13702,37513,55767
13691,37490,55737
13682,37474,55708
13672,37467,55683
13660,37459,55660
13646,37443,55636
13634,37429,55615
13625,37425,55593
13616,37426,55571
13610,37426,55553
13602,37422,55536
13589,37411,55519
13576,37400,55508
13564,37396,55500
13551,37395,55489
13541,37393,55475
13539,37394,55460
13542,37392,55446
13541,37384,55431
13533,37373,55412
13518,37355,55387
13503,37330,55358
13485,37304,55330
13468,37285,55307
13457,37274,55293
13457,37272,55292
13470,37276,55305
13488,37288,55328
13510,37308,55358
13535,37336,55398
13559,37372,55451
13584,37414,55516
13621,37460,55595
13672,37516,55690
13734,37582,55797
13806,37655,55913
13883,37730,56037
13955,37802,56159
14020,37873,56277
14084,37938,56392
14148,37998,56501
14213,38058,56601
14276,38113,56694
14337,38163,56780
14390,38210,56857
14432,38246,56922
14465,38273,56978
14495,38301,57029
14522,38331,57070
14543,38356,57098
14558,38368,57114
14560,38368,57119
14547,38360,57119
14527,38351,57117
14510,38341,57111
14496,38329,57099
14480,38310,57081
14467,38291,57064
14458,38273,57050
14446,38251,57035
14432,38229,57012
14419,38207,56983
14405,38186,56952
14384,38167,56917
14355,38147,56874
14325,38126,56831
14302,38102,56791
14289,38078,56751
14281,38060,56714
14272,38049,56679
14267,38045,56645
14261,38037,56610
14249,38022,56573
14232,38007,56537
14218,37995,56505
14209,37987,56481
14201,37981,56467
14189,37975,56453
14173,37967,56435
14156,37962,56418
14145,37962,56411
14141,37964,56411
14142,37965,56404
14148,37964,56391
14158,37967,56389
14168,37973,56400
14170,37977,56411
14167,37980,56417
14167,37989,56426
14169,37997,56438
14171,37999,56449
14175,37993,56455
14180,37981,56457
14183,37968,56454
14188,37960,56449
14198,37960,56446
14204,37963,56444
14200,37961,56441
14194,37955,56437
14196,37951,56434
14194,37948,56429
14178,37940,56416
14155,37929,56396
14137,37916,56375
14118,37901,56354
14094,37882,56330
14063,37860,56302
14032,37835,56273
14002,37805,56237
13964,37768,56188
13918,37723,56130
13866,37673,56076
13815,37625,56028
13767,37586,55981
13725,37550,55934
13690,37515,55889
13664,37487,55849
13646,37472,55814
13630,37463,55783
13613,37457,55758
13598,37458,55739
13586,37463,55726
13579,37469,55719
13578,37472,55712
13575,37468,55701
13570,37459,55690
13567,37449,55680
13565,37438,55665
13560,37424,55647
13553,37412,55623
13547,37405,55598
13545,37402,55574
13546,37399,55551
13546,37398,55530
13545,37399,55514
13546,37400,55509
13551,37405,55509
13563,37410,55509
13579,37416,55510
13602,37430,55515
13630,37450,55518
13651,37467,55515
13662,37473,55509
13665,37470,55498
13661,37462,55479
13651,37448,55456
13637,37429,55433
13624,37414,55413
13612,37406,55395
13599,37396,55374
13589,37387,55351
13583,37385,55335
13576,37388,55328
13575,37394,55330
13586,37406,55342
13604,37425,55368
13624,37450,55411
13652,37481,55469
13697,37524,55543
13759,37579,55633
13833,37641,55736
13910,37708,55843
13997,37783,55957
14090,37860,56081
14181,37936,56211
14266,38011,56341
14345,38087,56470
14413,38157,56598
14468,38216,56721
14514,38266,56835
14556,38316,56939
14600,38371,57035
14649,38425,57121
14697,38472,57199
14738,38508,57269
14771,38532,57330
14797,38544,57378
14813,38549,57415
14824,38553,57444
14837,38561,57473
14854,38573,57501
14871,38587,57525
14890,38602,57545
14911,38615,57558
14930,38624,57563
14950,38632,57564
14970,38638,57566
14983,38641,57569
14985,38639,57570
14980,38631,57565
14973,38621,57556
14963,38614,57547
14952,38609,57542
14944,38607,57541
14943,38607,57538
14944,38604,57525
14942,38594,57504
14939,38581,57478
14936,38569,57449
14931,38558,57419
14921,38545,57386
14905,38524,57353
14888,38497,57323
14873,38471,57297
14864,38452,57274
14860,38439,57255
14859,38429,57239
14861,38425,57223
14864,38426,57208
14863,38428,57198
14858,38426,57190
14855,38424,57183
14854,38426,57179
14854,38432,57184
14857,38441,57199
14860,38450,57211
14861,38458,57213
14865,38466,57211
14871,38472,57208
14875,38474,57203
14878,38471,57199
14879,38462,57198
14875,38451,57198
14870,38445,57197
14869,38448,57201
14874,38461,57211
14880,38471,57219
14881,38471,57222
14878,38465,57221
14877,38460,57218
14879,38453,57214
14879,38446,57211
14876,38438,57215
14870,38432,57219
14861,38425,57215
14852,38419,57201
14846,38413,57186
14839,38406,57172
14829,38398,57151
14821,38390,57121
14819,38387,57084
14821,38385,57046
14820,38378,57007
14816,38363,56966
14816,38347,56934
14816,38335,56916
14807,38321,56899
14793,38303,56873
14782,38284,56839
14770,38267,56802
14752,38248,56762
14735,38226,56724
14720,38207,56695
14703,38192,56675
14678,38174,56655
14649,38152,56633
14618,38128,56608
14587,38102,56580
14554,38074,56551
14528,38047,56524
14512,38022,56500
14501,38000,56482
14489,37985,56465
14476,37976,56445
14462,37969,56425
14445,37962,56405
14432,37958,56383
14423,37955,56353
14412,37945,56317
14395,37924,56278
14377,37900,56241
14359,37885,56212
14351,37877,56192
14356,37871,56179
14366,37864,56164
14377,37860,56147
14388,37861,56130
14396,37865,56115
14399,37871,56097
14400,37872,56077
14397,37863,56054
14387,37848,56029
14372,37828,56007
14357,37811,55991
14347,37797,55976
14342,37784,55962
14335,37773,55953
14319,37760,55945
14299,37748,55942
14279,37745,55950
14269,37758,55971
14274,37786,56005
14294,37827,56051
14327,37878,56110
14369,37933,56184
14418,37994,56273
14472,38057,56374
14532,38118,56485
14595,38176,56605
14662,38234,56730
14736,38296,56859
14810,38366,56993
14883,38441,57126
14958,38517,57258
15037,38597,57388
15112,38673,57510
15179,38737,57616
15239,38792,57709
15296,38841,57796
15345,38882,57874
15385,38914,57939
15425,38945,57999
15464,38976,58057
15496,39003,58109
15523,39025,58150
15544,39041,58176
15558,39047,58190
15563,39047,58196
15560,39041,58199
15550,39026,58200
15531,39004,58194
15513,38981,58182
15504,38966,58169
15503,38962,58157
15503,38964,58148
15503,38965,58139
15501,38961,58130
15496,38956,58117
15485,38947,58099
15471,38933,58076
15457,38919,58053
15442,38911,58032
15427,38905,58013
15412,38896,57995
15400,38887,57979
15393,38882,57967
15388,38875,57956
15381,38861,57942
15371,38838,57924
15359,38807,57900
15344,38771,57865
15326,38737,57824
15307,38706,57789
15287,38680,57760
15265,38657,57735
15241,38637,57712
15216,38622,57691
15190,38615,57670
15163,38610,57647
15136,38602,57623
15111,38593,57599
15091,38579,57574
15072,38562,57550
15049,38545,57529
15028,38528,57511
15011,38508,57495
14999,38487,57482
14991,38469,57474
14991,38463,57474
15000,38468,57486
15012,38478,57502
15025,38490,57513
15039,38497,57515
15049,38496,57512
15053,38496,57511
15056,38501,57516
15062,38506,57517
15064,38507,57507
15058,38505,57487
15048,38500,57467
15036,38491,57447
15018,38476,57419
14996,38454,57381
14974,38428,57344
14951,38399,57314
14927,38372,57284
14907,38353,57255
14894,38341,57232
14886,38332,57214
14874,38321,57198
14857,38308,57179
14843,38291,57152
14836,38273,57121
14828,38257,57090
14815,38244,57061
14798,38231,57035
14780,38211,57013
14764,38189,56992
14752,38172,56967
14743,38158,56942
14732,38144,56915
14716,38131,56885
14698,38116,56850
14682,38095,56812
14663,38070,56774
14637,38047,56738
14607,38024,56708
14578,37999,56684
14552,37977,56661
14531,37963,56635
14511,37950,56606
14491,37933,56576
14474,37917,56553
14461,37906,56533
14452,37896,56510
14444,37885,56483
14439,37878,56457
14433,37873,56430
14424,37861,56397
14414,37843,56367
14399,37824,56342
14376,37802,56318
14347,37777,56293
14315,37749,56263
14278,37717,56230
14241,37687,56199
14207,37664,56172
14172,37644,56144
14135,37621,56113
14104,37596,56085
14080,37577,56064
14061,37565,56045
14045,37557,56026
14028,37541,56001
14006,37518,55970
13986,37490,55938
13970,37461,55908
13960,37432,55880
13955,37410,55854
13953,37402,55830
13953,37404,55810
13954,37407,55793
13949,37404,55772
13938,37392,55743
13930,37375,55712
13925,37358,55677
13916,37347,55642
13899,37331,55605
13876,37307,55567
13853,37284,55531
13833,37271,55498
13814,37264,55472
13799,37259,55459
13791,37261,55458
13794,37276,55467
13805,37294,55483
13822,37314,55512
13843,37342,55559
13874,37382,55622
13918,37432,55703
13977,37490,55803
14048,37553,55915
14123,37619,56030
14202,37685,56148
14281,37750,56268
14353,37815,56390
14418,37883,56514
14484,37953,56637
14560,38025,56764
14637,38095,56893
14705,38161,57014
14767,38224,57128
14827,38284,57237
14878,38338,57333
14915,38384,57414
14941,38422,57479
14959,38450,57536
14968,38474,57586
14970,38498,57623
14971,38516,57644
14972,38519,57653
14973,38509,57653
14975,38494,57647
14975,38479,57639
14971,38463,57630
14958,38445,57617
14937,38424,57598
14914,38401,57574
14892,38380,57545
14869,38360,57515
14849,38339,57486
14836,38322,57458
14822,38303,57428
14805,38281,57394
14787,38260,57360
14771,38238,57326
14755,38216,57291
14741,38200,57260
14727,38189,57235
14714,38180,57210
14702,38173,57181
14690,38166,57151
14676,38153,57123
14658,38136,57096
14642,38117,57068
14632,38095,57039
14622,38072,57013
14609,38053,56989
14590,38038,56969
14570,38029,56958
14550,38023,56947
14524,38014,56927
14495,38003,56904
14469,37992,56885
14447,37979,56866
14426,37965,56847
14408,37952,56830
14391,37940,56821
14376,37932,56821
14366,37925,56828
14358,37916,56838
14355,37910,56849
14352,37909,56857
14348,37912,56867
14350,37918,56879
14355,37919,56887
14358,37912,56885
14356,37897,56875
14347,37881,56859
14330,37864,56837
14311,37843,56806
14299,37821,56769
14288,37802,56733
14270,37786,56699
14250,37771,56667
14234,37761,56644
14225,37754,56628
14220,37749,56609
14214,37743,56585
14203,37733,56560
14190,37721,56532
14177,37706,56501
14166,37689,56471
14152,37668,56444
14137,37648,56419
14128,37632,56393
14124,37617,56364
14114,37599,56332
14093,37579,56294
14068,37558,56255
14041,37537,56221
14011,37512,56186
13979,37484,56145
13952,37458,56106
13933,37437,56075
13921,37419,56049
13910,37405,56020
13902,37397,55990
13891,37392,55962
13873,37381,55934
13849,37362,55903
13817,37335,55866
13781,37303,55827
13747,37269,55793
13719,37241,55763
13696,37220,55734
13678,37208,55712
13666,37205,55700
13655,37206,55687
13639,37200,55665
13623,37187,55637
13612,37172,55607
13608,37161,55575
13604,37151,55547
13597,37141,55528
13588,37131,55512
13581,37120,55493
13579,37108,55471
13574,37093,55448
13560,37079,55424
13541,37064,55397
13521,37044,55368
13502,37021,55341
13484,36997,55319
13459,36974,55294
13427,36950,55266
13395,36929,55239
13367,36911,55215
13342,36891,55192
13321,36870,55167
13307,36851,55133
13296,36831,55092
13287,36808,55054
13282,36792,55020
13281,36788,54991
13283,36789,54964
13282,36787,54933
13279,36784,54904
13276,36781,54887
13276,36780,54886
13277,36786,54897
13283,36796,54918
13297,36808,54951
13318,36818,54994
13342,36830,55050
13370,36858,55122
13406,36904,55209
13447,36957,55310
13494,37017,55421
13555,37082,55538
13627,37152,55661
13701,37224,55786
13773,37293,55905
13840,37358,56018
13901,37421,56125
13957,37484,56225
14012,37543,56318
14068,37596,56404
14124,37644,56483
14172,37681,56557
14208,37711,56624
14239,37740,56682
14264,37765,56724
14281,37782,56747
14290,37794,56757
14289,37800,56760
14279,37800,56758
14264,37790,56748
14247,37773,56732
14228,37752,56715
14213,37729,56698
14205,37707,56677
14199,37689,56652
14189,37675,56623
14177,37659,56587
14165,37638,56546
14153,37616,56506
14139,37601,56470
14121,37589,56435
14098,37577,56403
14075,37567,56377
14052,37557,56353
14027,37542,56324
14001,37519,56289
13974,37491,56252
13949,37462,56217
13924,37432,56182
13896,37399,56145
13864,37368,56109
13837,37342,56075
13818,37317,56042
13804,37295,56014
13796,37282,55993
13798,37275,55975
13807,37268,55959
13816,37261,55948
13821,37256,55939
13819,37251,55928
13813,37248,55919
13803,37246,55917
13792,37245,55917
13786,37247,55918
13785,37248,55922
13785,37248,55928
13786,37254,55938
13793,37263,55949
13807,37269,55957
13817,37268,55962
13816,37260,55960
13806,37249,55948
13792,37239,55934
13778,37228,55923
13765,37216,55911
13752,37204,55894
13740,37195,55879
13728,37185,55867
13714,37174,55854
13699,37163,55833
13681,37149,55803
13659,37128,55769
13634,37104,55737
13612,37080,55708
13595,37057,55683
13581,37034,55664
13569,37013,55645
13558,36996,55617
13549,36978,55585
13538,36959,55554
13522,36939,55523
13497,36918,55489
13471,36895,55451
13451,36877,55418
13439,36867,55392
13431,36863,55368
13422,36859,55342
13409,36849,55315
13393,36835,55293
13373,36820,55271
13354,36802,55250
13339,36779,55227
13326,36755,55203
13312,36734,55178
13297,36710,55148
13281,36686,55114
13268,36665,55082
13259,36648,55053
13254,36638,55026
13254,36637,55001
13258,36642,54983
13262,36649,54970
13269,36654,54952
13276,36654,54930
13276,36649,54907
13269,36637,54881
13262,36619,54853
13256,36603,54824
13248,36591,54792
13235,36576,54763
13219,36559,54736
13202,36541,54711
13188,36525,54688
13172,36510,54667
13153,36499,54648
13135,36493,54628
13118,36491,54604
13099,36489,54581
13077,36483,54562
13053,36475,54549
13032,36467,54542
13022,36461,54537
13028,36465,54541
13043,36477,54559
13063,36494,54590
13092,36515,54634
13130,36544,54696
13177,36584,54773
13228,36633,54861
13282,36688,54953
13345,36751,55053
13415,36822,55162
13485,36896,55271
13551,36963,55379
13609,37021,55487
13662,37072,55593
13715,37121,55696
13768,37169,55795
13825,37219,55895
13882,37274,55997
13934,37330,56092
13978,37375,56170
14016,37408,56233
14051,37434,56283
14082,37452,56317
14112,37464,56341
14139,37471,56365
14153,37474,56387
14152,37474,56403
14145,37471,56410
14141,37468,56408
14143,37462,56394
14144,37451,56368
14136,37436,56337
14120,37420,56304
14103,37402,56269
14083,37384,56236
14061,37369,56209
14036,37353,56183
14012,37332,56152
13990,37310,56122
13969,37289,56091
13953,37270,56059
13939,37251,56026
13922,37230,55988
13903,37209,55945
13881,37188,55904
13853,37164,55868
13823,37138,55831
13798,37114,55793
13780,37090,55754
13761,37065,55712
13741,37041,55669
13727,37019,55630
13716,37001,55598
13704,36990,55575
13696,36985,55564
13698,36988,55563
13708,36997,55570
13717,37006,55580
13726,37012,55587
13743,37023,55590
13766,37036,55591
13782,37047,55590
13787,37057,55585
13787,37064,55579
13780,37070,55576
13770,37072,55578
13763,37069,55582
13762,37064,55589
13758,37060,55600
13751,37057,55611
13747,37054,55619
13744,37047,55625
13739,37039,55628
13735,37031,55626
13738,37027,55617
13749,37025,55603
13759,37020,55583
13763,37006,55556
13762,36987,55532
13759,36973,55512
13755,36965,55491
13753,36959,55469
13751,36950,55448
13744,36938,55429
13730,36923,55409
13712,36905,55382
13691,36886,55352
13668,36867,55324
13644,36852,55296
13627,36839,55265
13614,36827,55234
13596,36813,55203
13576,36797,55166
13560,36779,55128
13546,36764,55092
13526,36747,55055
13501,36727,55019
13479,36706,54987
13467,36692,54961
13463,36685,54939
13457,36680,54917
13445,36678,54895
13433,36675,54875
13422,36666,54854
13410,36653,54830
13396,36641,54812
13389,36632,54802
13388,36622,54794
13389,36609,54787
13387,36598,54778
13385,36589,54764
13387,36577,54742
13388,36562,54713
13382,36548,54678
13370,36535,54643
13354,36522,54613
13333,36510,54585
13312,36501,54556
13295,36495,54530
13276,36486,54508
13249,36467,54482
13219,36441,54450
13194,36418,54423
13174,36401,54402
13156,36385,54382
13140,36368,54360
13131,36356,54347
13130,36353,54350
13135,36359,54367
13151,36377,54403
13183,36409,54458
13229,36452,54531
13284,36503,54616
13346,36560,54709
13414,36623,54808
13487,36692,54916
13564,36767,55030
13643,36842,55147
13720,36920,55270
13799,37006,55399
13880,37093,55527
13961,37172,55649
14036,37246,55765
14103,37310,55877
14162,37365,55981
14214,37414,56080
14263,37458,56168
14310,37494,56241
14350,37525,56302
14382,37552,56352
14405,37574,56392
14418,37583,56418
14425,37583,56429
14427,37585,56432
14427,37587,56436
14424,37582,56441
14421,37577,56446
14421,37577,56448
14420,37578,56450
14417,37575,56450
14415,37570,56444
14410,37562,56431
14407,37555,56416
14406,37552,56404
14406,37550,56394
14406,37547,56379
14407,37537,56357
14409,37523,56333
14405,37508,56311
14391,37494,56289
14374,37480,56261
14356,37459,56225
14333,37436,56182
14311,37415,56137
14294,37398,56097
14282,37382,56066
14268,37367,56037
14253,37355,56005
14241,37345,55975
14235,37334,55950
14232,37323,55931
14232,37315,55917
14233,37307,55904
14232,37299,55893
14227,37294,55890
14226,37293,55896
14227,37295,55905
14229,37297,55911
14231,37301,55918
14238,37306,55927
14245,37305,55934
14244,37298,55938
14238,37291,55939
14234,37285,55937
14228,37280,55934
14217,37277,55935
14208,37276,55939
14205,37279,55945
14203,37285,55951
14203,37290,55956
14209,37299,55965
14216,37310,55969
14219,37313,55963
14219,37305,55950
14219,37293,55932
14220,37280,55910
14217,37263,55884
14211,37244,55859
14203,37222,55833
14188,37197,55805
14166,37172,55779
14144,37152,55756
14127,37138,55738
14113,37129,55724
14103,37122,55711
14092,37118,55696
14079,37109,55673
14066,37092,55636
14053,37065,55591
14035,37034,55546
14014,37007,55505
13989,36982,55466
13967,36958,55425
13955,36940,55384
13948,36925,55344
13938,36912,55307
13924,36897,55275
13905,36880,55250
13877,36867,55229
13847,36855,55206
13815,36840,55181
13786,36825,55160
13766,36815,55144
13760,36806,55132
13760,36795,55124
13760,36787,55121
13759,36784,55119
13757,36781,55111
13753,36772,55100
13748,36762,55087
13739,36751,55071
13728,36741,55048
13716,36732,55019
13704,36723,54982
13688,36712,54937
13667,36695,54892
13647,36673,54852
13638,36647,54816
13637,36619,54781
13634,36592,54745
13623,36570,54710
13610,36553,54675
13601,36542,54641
13595,36532,54609
13588,36524,54589
13581,36526,54588
13584,36541,54610
13595,36560,54648
13614,36588,54701
13641,36630,54772
13683,36685,54860
13740,36747,54964
13808,36814,55081
13884,36887,55207
13965,36962,55340
14046,37039,55477
14127,37115,55614
14206,37190,55753
14283,37263,55891
14356,37332,56022
14421,37396,56145
14478,37452,56259
14530,37503,56364
14581,37553,56463
14628,37599,56556
14668,37639,56633
14700,37671,56691
14728,37697,56731
14747,37718,56759
14752,37734,56777
14745,37744,56788
14732,37747,56792
14720,37746,56791
14706,37740,56787
14685,37722,56776
14656,37694,56759
14623,37663,56739
14588,37633,56719
14553,37604,56698
14517,37578,56673
14479,37550,56643
14447,37520,56610
14423,37491,56577
14401,37469,56552
14386,37454,56535
14375,37442,56521
14367,37426,56505
14362,37410,56484
14357,37393,56454
14344,37370,56417
14321,37340,56373
14292,37305,56325
14262,37271,56278
14228,37237,56233
14186,37201,56188
14140,37163,56144
14095,37127,56104
14050,37092,56068
14008,37058,56031
13975,37024,55995
13951,37002,55963
13934,36990,55933
13921,36980,55901
13911,36968,55870
13900,36960,55848
13889,36952,55834
13882,36942,55825
13877,36937,55822
13870,36941,55824
13862,36947,55830
13859,36953,55838
13861,36960,55849
13864,36967,55860
13867,36973,55865
13870,36974,55864
13871,36968,55859
13869,36957,55852
13858,36942,55841
13835,36925,55827
13807,36909,55809
13782,36898,55791
13758,36886,55770
13734,36868,55742
13712,36852,55713
13694,36843,55689
13685,36841,55669
13683,36837,55653
13682,36831,55645
13678,36824,55642
13668,36817,55634
13658,36807,55618
13649,36792,55591
13636,36773,55561
13622,36755,55528
13615,36738,55492
13611,36719,55455
13600,36696,55414
13576,36672,55373
13545,36647,55331
13518,36623,55292
13497,36598,55253
13474,36570,55215
13446,36544,55182
13418,36521,55150
13396,36502,55121
13382,36486,55101
13368,36477,55084
13351,36470,55067
13330,36461,55049
13307,36449,55031
13284,36437,55014
13265,36422,54996
13249,36405,54976
13236,36390,54952
13226,36378,54926
13216,36365,54896
13205,36349,54867
13200,36335,54841
13203,36324,54817
13204,36310,54792
13197,36295,54765
13190,36278,54739
13186,36259,54713
13179,36241,54685
13166,36228,54652
13153,36216,54620
13142,36202,54590
13131,36190,54562
13117,36180,54536
13096,36168,54511
13069,36154,54484
13044,36136,54457
13018,36113,54431
12986,36089,54404
12953,36065,54379
12921,36038,54354
12893,36012,54327
12874,35995,54300
12867,35989,54280
12865,35985,54270
12866,35987,54269
12872,35996,54283
12884,36010,54312
12906,36034,54359
12940,36073,54426
12984,36126,54515
13035,36190,54626
13095,36264,54749
13163,36341,54877
13237,36415,55006
13316,36491,55139
13394,36569,55276
13473,36646,55418
13556,36729,55560
13643,36819,55701
13727,36906,55834
13801,36980,55955
13866,37045,56063
13930,37105,56160
13995,37157,56241
14048,37198,56308
14084,37233,56366
14109,37259,56415
14127,37271,56455
14137,37272,56485
14146,37271,56512
14154,37276,56535
14161,37280,56548
14170,37277,56546
14177,37272,56534
14180,37269,56514
14177,37263,56485
14165,37250,56451
14145,37232,56416
14121,37208,56386
14100,37187,56361
14084,37170,56338
14072,37152,56312
14058,37135,56284
14036,37121,56254
14001,37105,56219
13958,37080,56183
13909,37049,56147
13861,37016,56105
13822,36987,56064
13792,36963,56031
13769,36942,56004
13750,36922,55975
13738,36903,55944
13729,36886,55916
13715,36868,55889
13698,36848,55860
13681,36827,55830
13663,36802,55798
13652,36777,55765
13651,36761,55741
13656,36754,55726
13665,36758,55718
13676,36769,55715
13679,36781,55717
13671,36790,55724
13659,36792,55730
13646,36785,55734
13632,36780,55742
13624,36783,55752
13617,36787,55759
13612,36791,55764
13613,36796,55768
13618,36799,55774
13622,36803,55782
13625,36805,55785
13628,36799,55784
13625,36789,55780
13615,36775,55774
13604,36761,55768
13596,36746,55758
13592,36728,55739
13590,36709,55716
13586,36691,55691
13575,36673,55669
13555,36652,55651
13526,36631,55628
13494,36611,55597
13464,36594,55558
13438,36582,55521
13416,36571,55486
13398,36558,55449
13386,36544,55411
13379,36536,55380
13375,36534,55355
13373,36532,55333
13374,36529,55314
13371,36521,55293
13358,36507,55267
13341,36489,55240
13325,36472,55215
13310,36459,55195
13294,36449,55182
13278,36438,55176
13259,36423,55169
13241,36404,55156
13224,36379,55134
13208,36354,55108
13192,36331,55080
13175,36307,55048
13157,36287,55014
13135,36272,54982
13110,36257,54953
13087,36241,54922
13068,36224,54886
13054,36207,54849
13045,36191,54815
13034,36176,54783
13021,36158,54756
13010,36142,54736
12997,36126,54715
12979,36106,54690
12960,36087,54666
12942,36070,54644
12920,36053,54624
12895,36037,54600
12873,36020,54569
12861,36007,54534
12853,35998,54500
12840,35989,54469
12825,35979,54442
12812,35968,54420
12805,35965,54402
12806,35973,54392
12819,35989,54396
12841,36012,54415
12870,36043,54448
12907,36078,54492
12948,36117,54550
12992,36164,54622
13044,36223,54711
13100,36288,54816
13162,36357,54930
13230,36431,55051
13303,36509,55180
13377,36589,55316
13454,36668,55453
13539,36744,55588
13625,36818,55720
13702,36892,55848
13770,36959,55969
13827,37014,56080
13874,37057,56176
13915,37091,56253
13953,37120,56315
13989,37149,56370
14024,37179,56417
14056,37204,56451
14080,37222,56472
14100,37236,56482
14120,37243,56481
14131,37245,56474
14131,37246,56465
14125,37247,56458
14117,37251,56454
14113,37254,56449
14112,37252,56439
14110,37244,56427
14100,37235,56410
14084,37224,56391
14066,37212,56368
14046,37198,56340
14023,37180,56304
14002,37162,56263
13985,37143,56223
13967,37121,56185
13952,37100,56149
13939,37076,56113
13925,37053,56078
13915,37039,56044
13907,37029,56015
13894,37013,55987
13877,36993,55961
13856,36977,55944
13835,36968,55934
13820,36960,55925
13815,36956,55917
13815,36958,55911
13817,36961,55905
13820,36960,55898
13822,36960,55891
13822,36960,55884
13819,36956,55875
13816,36954,55868
13822,36960,55869
13837,36969,55877
13853,36981,55889
13865,36997,55903
13878,37014,55922
13893,37029,55940
13904,37042,55952
13914,37050,55963
13922,37050,55978
13928,37045,55993
13933,37038,56002
13942,37031,56006
13949,37025,56008
13950,37020,56007
13952,37014,56000
13950,37011,55988
13940,37009,55972
13928,37005,55955
13917,37000,55941
13908,36995,55922
13895,36984,55898
13878,36967,55874
13861,36949,55850
13845,36930,55822
13834,36913,55792
13823,36899,55763
13804,36885,55731
13781,36870,55699
13756,36854,55671
13732,36835,55643
13709,36814,55614
13688,36797,55594
13669,36784,55578
13655,36770,55558
13649,36753,55535
13650,36740,55509
13654,36731,55480
13656,36718,55446
13651,36704,55409
13638,36693,55376
13628,36686,55346
13623,36674,55318
13621,36665,55293
13622,36664,55271
13624,36668,55248
13623,36668,55223
13624,36661,55202
13624,36651,55187
13622,36640,55171
13616,36629,55149
13604,36613,55121
13588,36593,55089
13567,36570,55059
13539,36548,55034
13513,36530,55012
13492,36516,54994
13477,36501,54977
13464,36483,54954
13445,36459,54924
13427,36432,54889
13417,36409,54853
13412,36393,54820
13411,36388,54794
13414,36390,54775
13414,36394,54762
13410,36397,54753
13408,36402,54754
13411,36414,54769
13419,36427,54790
13431,36443,54819
13456,36471,54865
13492,36515,54935
13532,36569,55019
13581,36628,55110
13644,36690,55213
13721,36761,55332
13807,36839,55462
13893,36920,55598
13978,37000,55742
14062,37080,55888
14145,37157,56030
14229,37232,56166
14314,37306,56295
14398,37377,56414
14481,37439,56519
14555,37495,56614
14615,37548,56705
14667,37597,56789
14717,37642,56867
14763,37680,56936
14802,37711,56992
14833,37735,57035
14860,37756,57067
14888,37777,57091
14910,37795,57111
14918,37800,57126
14915,37797,57132
14909,37794,57130
14901,37789,57126
14891,37780,57117
14879,37767,57105
14868,37756,57099
14855,37745,57096
14834,37730,57083
14806,37708,57058
14780,37686,57031
14761,37670,57007
14746,37655,56981
14737,37633,56950
14733,37611,56914
14734,37595,56878
14741,37585,56846
14750,37577,56815
14751,37566,56780
14743,37550,56746
14729,37531,56720
14713,37515,56701
14701,37503,56686
14691,37498,56671
14676,37492,56652
14657,37484,56629
14640,37479,56606
14627,37481,56583
14616,37479,56564
14600,37469,56550
14583,37457,56539
14565,37444,56527
14548,37434,56518
14541,37428,56517
14540,37426,56522
14546,37428,56531
14559,37436,56546
14579,37455,56569
14599,37481,56597
14614,37500,56619
14621,37507,56632
14623,37506,56640
14622,37504,56641
14624,37501,56639
14632,37498,56637
14638,37496,56637
14638,37496,56639
14639,37499,56638
14643,37498,56636
14642,37494,56634
14631,37486,56622
14614,37472,56599
14593,37452,56572
14569,37430,56547
14548,37411,56526
14530,37392,56502
14516,37373,56470
14508,37353,56439
14499,37331,56409
14484,37308,56372
14468,37286,56333
14452,37263,56298
14433,37237,56264
14410,37206,56226
14384,37173,56185
14354,37141,56142
14323,37113,56098
14295,37094,56057
14276,37085,56027
14264,37078,56004
14256,37071,55981
14246,37063,55959
14229,37049,55934
14205,37027,55904
14183,37002,55875
14165,36980,55849
14145,36960,55826
14122,36940,55805
14099,36919,55783
14077,36898,55757
14052,36876,55730
14025,36854,55700
14001,36832,55663
13981,36807,55623
13959,36780,55583
13935,36756,55548
13914,36736,55517
13896,36723,55489
13884,36719,55467
13877,36721,55448
13875,36722,55426
13873,36724,55399
13871,36724,55369
13865,36715,55338
13852,36698,55303
13836,36677,55264
13813,36648,55224
13783,36616,55187
13751,36583,55152
13726,36550,55120
13708,36526,55094
13699,36516,55079
13698,36515,55075
13706,36518,55085
13715,36526,55111
13729,36543,55154
13750,36570,55219
13778,36611,55304
13820,36665,55400
13885,36728,55506
13967,36805,55622
14057,36893,55745
14147,36984,55878
14236,37078,56025
14324,37169,56180
14414,37258,56342
14508,37344,56501
14603,37428,56653
14698,37512,56797
14784,37591,56935
14856,37664,57063
14914,37732,57178
14961,37790,57278
15005,37841,57363
15047,37887,57438
15085,37926,57504
15116,37957,57557
15140,37982,57602
15155,37999,57639
15158,38009,57668
15156,38016,57694
15153,38020,57719
15147,38022,57737
15141,38020,57738
15139,38011,57724
15134,37998,57704
15125,37988,57689
15115,37980,57678
15103,37970,57672
15095,37962,57670
15093,37960,57672
15098,37960,57675
15109,37963,57677
15123,37968,57677
15130,37970,57669
15133,37967,57646
15137,37958,57615
15137,37944,57581
15124,37922,57543
15100,37895,57507
15072,37871,57475
15043,37851,57445
15013,37832,57415
14978,37814,57386
14943,37797,57357
14917,37782,57331
14899,37769,57308
14882,37755,57283
14865,37737,57258
14848,37718,57238
14835,37700,57226
14826,37684,57217
14823,37674,57208
14824,37670,57204
14823,37667,57205
14818,37664,57206
14814,37661,57206
14814,37657,57206
14822,37655,57213
14835,37661,57230
14854,37675,57253
14874,37690,57274
14887,37700,57287
14891,37706,57289
14883,37706,57282
14867,37703,57269
14852,37702,57252
14842,37705,57236
14839,37709,57224
14840,37714,57214
14841,37714,57202
14834,37705,57188
14818,37688,57173
14797,37667,57159
14776,37643,57141
14754,37619,57118
14732,37593,57089
14710,37565,57056
14685,37537,57017
14655,37509,56978
14621,37485,56944
14587,37465,56918
14556,37447,56897
14529,37431,56878
14509,37415,56858
14500,37401,56839
14492,37386,56816
14484,37368,56785
14478,37348,56750
14470,37329,56712
14460,37309,56668
14453,37287,56624
14447,37264,56584
14432,37237,56548
14408,37206,56516
14383,37180,56490
14364,37163,56467
14346,37153,56448
14327,37146,56429
14304,37137,56404
14280,37120,56370
14255,37099,56328
14230,37077,56288
14205,37057,56256
14181,37041,56236
14159,37027,56223
14133,37010,56208
14108,36995,56189
14090,36984,56165
14076,36977,56137
14062,36965,56109
14050,36949,56077
14038,36932,56045
14027,36913,56013
14014,36890,55978
14002,36868,55942
13988,36848,55912
13972,36831,55885
13952,36815,55858
13927,36796,55829
13899,36779,55799
13871,36761,55765
13838,36738,55725
13802,36713,55680
13762,36685,55635
13722,36652,55588
13687,36620,55539
13657,36588,55490
13625,36553,55441
13595,36519,55397
13575,36496,55367
13564,36482,55348
13557,36474,55338
13550,36473,55342
13545,36480,55360
13549,36498,55390
13566,36525,55429
13594,36564,55484
13631,36613,55562
13675,36668,55664
13726,36730,55781
13785,36796,55908
13854,36868,56050
13933,36949,56200
14019,37034,56352
14103,37116,56504
14188,37197,56653
14278,37278,56803
14373,37357,56956
14468,37433,57104
14559,37503,57244
14637,37566,57374
14702,37627,57496
14759,37687,57605
14811,37740,57696
14860,37786,57772
14905,37820,57834
14940,37843,57884
14958,37855,57921
14965,37861,57952
14963,37862,57974
14953,37860,57985
14942,37858,57989
14930,37856,57988
14913,37856,57981
14900,37853,57964
14892,37846,57945
14887,37839,57932
14883,37839,57923
14878,37842,57918
14871,37842,57918
14855,37837,57915
14834,37826,57906
14816,37809,57897
14800,37794,57886
14788,37780,57866
14778,37763,57841
14766,37748,57816
14750,37737,57789
14728,37725,57761
14700,37710,57735
14669,37692,57710
14639,37670,57683
14613,37643,57653
14589,37614,57621
14565,37581,57584
14536,37542,57543
14504,37506,57499
14474,37478,57457
14447,37459,57426
14425,37449,57403
14412,37445,57382
14406,37443,57364
14407,37446,57354
14412,37453,57351
14420,37463,57350
14430,37477,57354
14442,37488,57362
14450,37493,57370
14450,37494,57378
14445,37494,57390
14435,37494,57406
14423,37493,57418
14413,37490,57420
14409,37488,57416
14410,37485,57411
14412,37480,57407
14411,37470,57404
14402,37456,57401
14387,37442,57394
14368,37431,57382
14348,37421,57363
14327,37411,57339
14306,37398,57312
14281,37381,57281
14256,37361,57247
14233,37343,57216
14213,37325,57189
14195,37305,57161
14178,37281,57125
14160,37253,57086
14139,37223,57049
14111,37193,57012
14078,37163,56971
14046,37134,56930
14019,37108,56892
13993,37083,56860
13967,37059,56829
13946,37036,56798
13930,37015,56769
13916,36993,56737
13905,36971,56702
13894,36949,56666
13881,36928,56632
13866,36907,56598
13849,36889,56561
13829,36874,56530
13806,36861,56503
13787,36850,56477
13773,36841,56455
13757,36833,56435
13744,36829,56418
13740,36827,56402
13743,36827,56386
13747,36821,56362
13745,36808,56333
13737,36789,56304
13726,36765,56272
13714,36745,56242
13703,36734,56222
13693,36728,56207
13683,36726,56194
13672,36726,56180
13659,36718,56163
13642,36702,56139
13621,36684,56109
13601,36667,56077
13583,36651,56038
13566,36629,55993
13548,36603,55946
13527,36577,55898
13505,36549,55849
13482,36521,55800
13463,36497,55755
13446,36477,55715
13423,36456,55676
13392,36432,55641
13358,36410,55609
13327,36392,55582
13304,36377,55558
13286,36361,55536
13273,36348,55522
13263,36340,55517
13258,36336,55516
13257,36332,55516
13262,36332,55519
13280,36341,55536
13304,36363,55567
13331,36395,55612
13366,36439,55676
13411,36495,55757
13464,36560,55853
13524,36629,55965
13589,36696,56087
13661,36768,56220
13745,36847,56362
13841,36935,56506
13938,37029,56653
14030,37119,56801
14114,37203,56947
14196,37289,57091
14280,37375,57230
14367,37459,57360
14450,37536,57482
14526,37605,57598
14593,37664,57706
14646,37713,57796
14689,37751,57871
14725,37782,57931
14755,37807,57978
14780,37827,58018
14802,37844,58048
14819,37855,58070
14831,37860,58085
14834,37859,58095
14825,37851,58097
14806,37841,58088
14779,37826,58067
14745,37801,58033
14711,37767,57985
14678,37730,57931
14641,37694,57881
14601,37660,57835
14565,37630,57792
14540,37612,57759
14530,37601,57736
14529,37594,57712
14537,37592,57683
14551,37590,57653
14559,37582,57622
14552,37565,57589
14534,37539,57557
14514,37512,57528
14494,37485,57503
14468,37461,57481
14442,37445,57462
14423,37438,57446
14409,37433,57426
14399,37425,57402
14396,37419,57382
14399,37420,57365
14407,37427,57351
14418,37439,57345
14425,37447,57346
14424,37448,57352
14415,37444,57365
14398,37438,57378
14384,37434,57386
14382,37432,57386
14389,37432,57383
14398,37434,57387
14407,37440,57398
14418,37448,57410
14430,37456,57422
14440,37465,57436
14450,37473,57451
14461,37482,57463
14468,37493,57469
14469,37500,57467
14467,37500,57458
14458,37494,57446
14445,37477,57428
14430,37453,57410
14412,37426,57388
14392,37401,57358
14373,37380,57325
14358,37365,57291
14345,37353,57257
14335,37340,57223
14323,37326,57190
14306,37311,57155
14286,37293,57120
14264,37269,57088
14237,37242,57057
14209,37216,57026
14188,37192,56994
14177,37175,56964
14176,37163,56936
14176,37152,56907
14174,37145,56879
14170,37140,56854
14162,37134,56830
14152,37128,56809
14140,37120,56791
14126,37107,56772
14113,37091,56753
14110,37079,56736
14116,37071,56721
14114,37061,56704
14099,37049,56677
14074,37032,56642
14043,37006,56603
14012,36976,56561
13986,36950,56515
13962,36927,56473
13937,36906,56443
13916,36887,56421
13900,36868,56398
13890,36854,56379
13882,36843,56365
13870,36828,56345
13854,36810,56313
13840,36795,56277
13830,36785,56245
13815,36776,56215
13797,36765,56184
13782,36753,56153
13771,36739,56124
13757,36721,56091
13737,36695,56047
13714,36663,55995
13694,36630,55946
13671,36598,55903
13641,36570,55868
13612,36546,55840
13594,36530,55822
13581,36520,55810
13574,36515,55804
13577,36519,55813
13589,36535,55842
13609,36565,55887
13643,36610,55949
13693,36670,56027
13756,36743,56117
13828,36825,56219
13906,36910,56332
13987,36995,56455
14068,37075,56581
14147,37152,56708
14228,37231,56842
14317,37318,56988
14403,37407,57143
14479,37488,57298
14548,37560,57445
14615,37626,57580
14679,37685,57701
14741,37737,57809
14800,37787,57905
14848,37830,57994
14882,37861,58073
14906,37883,58136
14923,37899,58181
14935,37912,58211
14944,37922,58231
14948,37927,58240
14943,37928,58242
14925,37917,58236
14893,37895,58219
14859,37867,58192
14828,37840,58163
14803,37818,58133
14781,37799,58101
14762,37775,58069
14747,37750,58036
14735,37729,58004
14731,37718,57979
14731,37713,57961
14729,37711,57944
14724,37709,57925
14716,37701,57904
14703,37686,57876
14685,37666,57839
14667,37644,57799
14645,37619,57757
14613,37590,57712
14576,37558,57666
14538,37527,57622
14504,37500,57579
14476,37476,57538
14451,37448,57492
14428,37417,57443
14408,37391,57396
14391,37369,57354
14378,37351,57322
14365,37337,57300
14348,37328,57285
14339,37327,57276
14338,37328,57276
14339,37335,57284
14345,37350,57301
14359,37367,57327
14378,37383,57359
14401,37399,57393
14431,37419,57424
14466,37441,57451
14496,37459,57470
14517,37471,57480
14534,37476,57482
14544,37476,57475
14543,37470,57458
14534,37459,57438
14522,37445,57418
14509,37433,57405
14490,37426,57399
14465,37417,57393
14438,37404,57382
14420,37392,57369
14408,37378,57348
14399,37361,57321
14387,37345,57291
14372,37331,57256
14354,37321,57224
14333,37312,57195
14312,37299,57165
14289,37284,57136
14264,37265,57107
14243,37249,57079
14231,37234,57051
14230,37218,57025
14233,37202,57002
14230,37190,56983
14220,37182,56963
14207,37171,56935
14189,37153,56898
14164,37126,56854
14130,37091,56807
14093,37054,56763
14055,37018,56718
14020,36983,56671
13991,36955,56624
13970,36933,56581
13950,36914,56543
13929,36893,56507
13911,36876,56472
13899,36862,56442
13892,36851,56416
13886,36841,56391
13878,36830,56369
13868,36823,56355
13856,36819,56338
13846,36812,56316
13839,36800,56291
13833,36786,56261
13824,36771,56222
13808,36753,56176
13781,36727,56131
13740,36696,56090
13692,36663,56051
13642,36627,56008
13595,36594,55969
13556,36569,55937
13524,36552,55911
13504,36538,55887
13494,36525,55866
13486,36508,55841
13481,36488,55812
13479,36470,55784
13479,36461,55765
13477,36460,55752
13470,36460,55739
13462,36455,55724
13454,36443,55704
13444,36430,55682
13432,36422,55666
13419,36419,55658
13413,36423,55662
13418,36440,55685
13438,36473,55726
13472,36518,55783
13516,36571,55861
13560,36632,55953
13606,36697,56059
13656,36766,56179
13714,36837,56316
13781,36907,56461
13852,36976,56605
13933,37050,56748
14024,37133,56897
14117,37223,57050
14206,37310,57203
14295,37392,57355
14387,37473,57502
14481,37554,57638
14573,37627,57759
14659,37694,57867
14733,37755,57963
14793,37804,58037
14837,37839,58091
14871,37865,58132
14892,37882,58160
14898,37885,58178
14888,37877,58192
14871,37866,58202
14853,37856,58201
14837,37842,58187
14824,37826,58162
14820,37815,58139
14822,37810,58128
14823,37805,58123
14821,37793,58116
14814,37775,58104
14802,37751,58085
14791,37729,58063
14780,37714,58043
14765,37701,58021
14749,37688,57999
14734,37676,57981
14717,37669,57965
14693,37660,57948
14665,37645,57921
14637,37628,57886
14613,37615,57855
14587,37605,57823
14560,37591,57786
14533,37569,57748
14509,37541,57711
14491,37511,57673
14477,37484,57633
14460,37463,57597
14444,37448,57566
14430,37441,57541
14419,37441,57526
14412,37439,57518
14407,37428,57511
14406,37416,57503
14410,37408,57496
14418,37409,57494
14423,37413,57495
14419,37412,57495
14407,37410,57493
14393,37408,57489
14382,37407,57482
14378,37409,57470
14380,37409,57460
14381,37410,57459
14379,37408,57466
14370,37401,57476
14354,37390,57484
14335,37375,57487
14315,37361,57486
14300,37348,57479
14291,37336,57467
14285,37321,57451
14278,37310,57431
14273,37305,57408
14272,37304,57384
14270,37303,57361
14271,37302,57335
14274,37298,57310
14274,37289,57282
14263,37274,57250
14237,37252,57216
14201,37223,57181
14165,37193,57143
14129,37164,57105
14094,37141,57070
14067,37126,57042
14049,37118,57020
14036,37117,57001
14027,37111,56978
14014,37094,56947
13995,37068,56905
13973,37039,56856
13950,37009,56807
13931,36985,56764
13910,36961,56724
13887,36936,56682
13864,36913,56639
13837,36888,56596
13801,36859,56552
13761,36827,56508
13723,36794,56466
13690,36765,56431
13661,36744,56402
13639,36730,56377
13626,36721,56354
13625,36714,56330
13629,36705,56305
13628,36694,56282
13615,36677,56258
13596,36655,56231
13579,36632,56199
13565,36611,56160
13551,36590,56117
13533,36565,56073
13507,36534,56033
13479,36503,55998
13449,36474,55965
13419,36445,55932
13391,36420,55899
13363,36397,55867
13333,36379,55836
13305,36361,55807
13281,36340,55774
13260,36316,55733
13238,36289,55688
13212,36263,55645
13185,36239,55605
13164,36217,55570
13150,36197,55537
13140,36176,55500
13129,36153,55459
13113,36133,55419
13091,36115,55386
13069,36097,55362
13052,36078,55341
13035,36063,55321
13021,36055,55306
13017,36058,55302
13031,36070,55314
13056,36091,55344
13084,36117,55391
13113,36149,55458
13145,36196,55542
13185,36255,55639
13239,36324,55750
13310,36405,55874
13398,36498,56011
13497,36594,56158
13593,36686,56312
13687,36774,56471
13783,36860,56633
13877,36946,56793
13971,37032,56950
14064,37116,57104
14150,37194,57247
14227,37262,57380
14295,37322,57505
14358,37380,57620
14420,37436,57722
14474,37487,57808
14511,37529,57878
14535,37559,57934
14552,37584,57978
14563,37606,58009
14568,37621,58026
14569,37625,58032
14564,37628,58034
14559,37629,58034
14552,37627,58031
14542,37625,58029
14529,37624,58024
14512,37614,58003
14491,37592,57966
14469,37566,57932
14445,37545,57905
14417,37526,57875
14395,37509,57839
14383,37496,57806
14380,37488,57782
14378,37481,57766
14372,37474,57752
14361,37463,57734
14344,37443,57712
14322,37415,57686
14299,37382,57651
14278,37349,57612
14255,37319,57573
14230,37293,57533
14198,37267,57497
14160,37243,57465
14121,37215,57431
14084,37185,57396
14049,37160,57363
14022,37142,57336
13998,37126,57308
13972,37107,57280
13946,37089,57258
13925,37075,57243
13916,37066,57231
13919,37065,57224
13934,37077,57223
13960,37098,57230
13989,37121,57243
14013,37145,57256
14028,37165,57267
14036,37183,57278
14044,37196,57291
14049,37203,57302
14052,37204,57310
14059,37199,57313
14063,37190,57310
14060,37176,57300
14053,37159,57291
14045,37147,57285
14035,37137,57277
14016,37119,57264
13989,37099,57246
13963,37081,57224
13939,37061,57197
13921,37040,57168
13913,37026,57143
13907,37015,57118
13897,36998,57088
13879,36973,57056
13856,36947,57021
13831,36927,56985
13801,36910,56955
13768,36891,56928
13738,36871,56899
13715,36852,56868
13697,36835,56832
13684,36819,56792
13674,36805,56756
13661,36793,56722
13645,36780,56685
13625,36763,56645
13601,36744,56606
13582,36727,56567
13565,36711,56527
13542,36692,56487
13513,36673,56456
13480,36652,56425
13449,36629,56384
13422,36604,56339
13394,36575,56292
13364,36539,56244
13332,36499,56194
13298,36461,56148
13267,36430,56108
13242,36402,56075
13217,36375,56046
13188,36352,56020
13159,36328,55995
13133,36304,55970
13111,36280,55940
13092,36259,55904
13073,36246,55867
13053,36240,55835
13036,36231,55801
13020,36214,55764
13005,36193,55732
12988,36172,55704
12968,36144,55675
12952,36117,55644
12944,36099,55616
12939,36088,55596
12933,36077,55576
12930,36066,55554
12930,36059,55532
12930,36056,55511
12928,36057,55492
12926,36062,55472
12919,36062,55450
12900,36050,55423
12873,36030,55395
12847,36012,55373
12821,35996,55356
12791,35975,55337
12761,35954,55310
12737,35940,55285
12723,35936,55267
12713,35936,55250
12709,35941,55238
12716,35954,55245
12735,35976,55270
12769,36009,55313
12824,36061,55380
12895,36125,55471
12967,36194,55582
13042,36270,55706
13126,36350,55839
13213,36430,55985
13300,36511,56143
13387,36592,56305
13468,36670,56460
13543,36742,56607
13613,36807,56743
13676,36865,56868
13736,36925,56989
13796,36988,57105
13856,37048,57210
13912,37100,57312
13963,37146,57409
14010,37185,57490
14054,37221,57552
14092,37252,57600
14122,37282,57649
14148,37316,57695
14172,37347,57732
14193,37370,57758
14207,37385,57778
14212,37395,57792
14209,37401,57798
14204,37403,57795
14196,37399,57782
14182,37391,57759
14160,37373,57727
14130,37349,57691
14097,37321,57652
14070,37292,57605
14046,37261,57553
14023,37226,57499
14003,37189,57445
13987,37150,57390
13966,37111,57340
13931,37076,57296
13891,37044,57252
13851,37011,57204
13816,36978,57152
13787,36946,57103
13759,36918,57062
13729,36890,57025
13698,36860,56989
13668,36831,56957
13641,36808,56933
13619,36793,56917
13608,36790,56904
13614,36799,56896
13631,36815,56893
13652,36833,56893
13677,36850,56893
13701,36860,56896
13719,36864,56903
13730,36866,56910
13735,36865,56914
13734,36863,56920
13733,36869,56934
13733,36881,56951
13730,36891,56967
13723,36898,56982
13720,36903,56991
13717,36903,56994
13710,36899,56992
13702,36893,56993
13701,36892,56994
13701,36893,56993
13697,36890,56992
13686,36886,56987
13678,36884,56970
13674,36878,56940
13673,36871,56903
13678,36864,56870
13688,36858,56847
13695,36852,56826
13694,36842,56804
13684,36829,56783
13668,36810,56759
13648,36783,56734
13621,36751,56706
13588,36714,56670
13549,36673,56626
13507,36631,56576
13471,36595,56523
13440,36564,56469
13414,36535,56412
13394,36508,56356
13377,36484,56307
13357,36461,56262
13339,36440,56213
13323,36422,56163
13307,36405,56121
13291,36394,56084
13275,36384,56049
13254,36369,56013
13230,36352,55979
13202,36334,55953
13170,36312,55935
13138,36286,55916
13111,36261,55891
13089,36240,55863
13066,36219,55834
13038,36194,55803
13010,36166,55774
12985,36136,55745
12966,36111,55714
12958,36090,55682
12953,36074,55654
12946,36067,55633
12937,36065,55617
12922,36059,55597
12904,36051,55573
12891,36046,55550
12884,36038,55526
12873,36025,55495
12851,36002,55457
12825,35969,55416
12798,35932,55376
12772,35895,55336
12749,35864,55296
12735,35844,55258
12729,35836,55224
12722,35832,55190
12713,35825,55151
12702,35812,55110
12684,35793,55069
12662,35772,55029
12642,35751,54993
12624,35730,54959
12601,35708,54924
12580,35684,54887
12558,35665,54854
12534,35651,54828
12512,35640,54808
12495,35629,54795
12486,35629,54793
12489,35647,54809
12506,35677,54844
12542,35720,54898
12596,35776,54975
12659,35834,55067
12721,35890,55170
12779,35952,55286
12839,36023,55414
12898,36093,55550
12958,36168,55695
13026,36249,55849
13096,36331,56003
13164,36406,56151
13237,36475,56295
13318,36545,56438
13404,36622,56580
13487,36698,56720
13562,36767,56853
13630,36829,56974
13692,36879,57081
13744,36921,57171
13785,36957,57249
13812,36985,57316
13830,37002,57367
13844,37012,57396
13858,37019,57408
13863,37019,57409
13856,37015,57402
13839,37008,57393
13819,36997,57386
13801,36989,57379
13785,36983,57365
13764,36974,57343
13738,36958,57321
13708,36935,57292
13677,36911,57255
13650,36888,57217
13629,36870,57183
13614,36860,57149
13602,36855,57108
13588,36845,57057
13570,36826,57000
13541,36796,56943
13495,36758,56888
13445,36714,56832
13398,36669,56774
13353,36625,56709
13301,36578,56639
13244,36529,56567
13189,36487,56499
13139,36449,56434
13090,36409,56369
13037,36365,56308
12984,36317,56255
12937,36272,56210
12897,36231,56175
12862,36202,56153
12833,36184,56140
12810,36175,56129
12790,36169,56115
12778,36166,56094
12775,36165,56076
12777,36164,56070
12777,36159,56072
12773,36148,56076
12769,36137,56083
12764,36132,56097
12757,36131,56112
12747,36135,56123
12741,36141,56126
12742,36142,56123
12748,36140,56117
12751,36132,56109
12748,36118,56104
12742,36104,56099
12733,36089,56090
12719,36070,56076
12702,36051,56059
12678,36028,56038
12648,36000,56011
12618,35975,55980
12584,35951,55949
12542,35926,55917
12497,35902,55880
12455,35880,55837
12417,35859,55785
12379,35835,55724
12342,35808,55669
12315,35790,55624
12294,35781,55582
12271,35771,55543
12249,35759,55508
12234,35749,55473
12222,35736,55434
12207,35716,55393
12192,35692,55353
12182,35669,55313
12175,35641,55273
12169,35609,55232
12161,35576,55193
12155,35544,55153
12151,35515,55113
12145,35484,55073
12137,35448,55031
12125,35413,54982
12103,35375,54929
12072,35332,54874
12037,35293,54826
12003,35265,54789
11970,35248,54756
11943,35233,54721
11920,35218,54691
11899,35209,54671
11882,35202,54657
11875,35195,54640
11872,35186,54619
11864,35172,54594
11852,35152,54563
11836,35129,54525
11819,35107,54488
11802,35091,54455
11785,35079,54425
11763,35070,54401
11736,35064,54378
11706,35057,54351
11678,35049,54319
11656,35040,54283
11644,35029,54249
11636,35014,54216
11628,34995,54179
11621,34971,54139
11611,34948,54105
11595,34925,54077
11575,34902,54050
11554,34881,54019
11529,34861,53987
11506,34849,53955
11490,34844,53924
11473,34838,53893
11453,34827,53860
11436,34820,53830
11424,34816,53808
11411,34812,53794
11394,34809,53790
11378,34805,53793
11377,34800,53801
11390,34802,53824
11416,34816,53871
11456,34848,53942
11503,34895,54033
11555,34954,54140
11615,35024,54264
11684,35102,54409
11763,35191,54571
11853,35291,54745
11950,35396,54927
12050,35503,55116
12151,35611,55303
12249,35716,55480
12342,35817,55647
12431,35909,55802
12518,35998,55944
12602,36081,56081
12675,36153,56209
12731,36211,56326
12780,36260,56431
12823,36302,56522
12853,36338,56599
12875,36369,56662
12891,36398,56715
12897,36420,56754
12898,36435,56775
12892,36440,56784
12880,36444,56784
12868,36445,56779
12855,36438,56770
12838,36421,56749
12811,36395,56712
12783,36361,56674
12758,36330,56640
12739,36304,56605
12728,36278,56566
12718,36252,56526
12701,36224,56485
12679,36192,56448
12658,36164,56414
12640,36141,56377
12625,36122,56339
12607,36104,56303
12583,36091,56268
12562,36082,56236
12546,36070,56204
12531,36057,56172
12515,36047,56145
12501,36040,56123
12484,36028,56099
12470,36015,56071
12461,36002,56040
12452,35987,56007
12442,35970,55972
12432,35951,55943
12424,35931,55924
12420,35918,55915
12420,35913,55912
12421,35912,55915
12426,35919,55926
12435,35937,55943
12441,35954,55964
12445,35961,55988
12454,35966,56014
12469,35973,56042
12478,35974,56068
12479,35972,56088
12480,35969,56101
12482,35964,56107
12482,35960,56108
12477,35960,56106
12468,35965,56108
12457,35970,56105
12444,35967,56092
12431,35954,56073
12420,35942,56051
12410,35930,56026
12406,35916,56001
12399,35900,55978
12387,35882,55951
12374,35859,55918
12355,35833,55878
12327,35804,55833
12297,35778,55792
12266,35758,55758
12231,35738,55722
12195,35711,55680
12161,35678,55637
12125,35643,55594
12089,35609,55548
12063,35576,55501
12047,35551,55457
12028,35538,55416
11999,35521,55376
11960,35496,55337
11914,35471,55301
11868,35451,55267
11830,35431,55238
11798,35409,55208
11772,35388,55177
11755,35369,55149
11741,35354,55120
11732,35347,55094
11727,35345,55075
11723,35343,55059
11719,35339,55041
11710,35333,55022
11693,35321,55001
11671,35303,54972
11643,35282,54932
11614,35261,54891
11587,35238,54849
11558,35211,54797
11527,35179,54742
11498,35145,54691
11471,35111,54643
11440,35077,54593
11412,35045,54545
11395,35022,54508
11386,35009,54481
11376,34998,54452
11360,34980,54418
11341,34957,54386
11324,34933,54356
11308,34909,54320
11293,34886,54285
11286,34868,54265
11291,34863,54265
11310,34874,54284
11343,34895,54321
11387,34927,54382
11441,34976,54469
11502,35035,54570
11569,35102,54688
11646,35179,54821
11727,35263,54964
11808,35354,55118
11891,35456,55287
11974,35561,55461
12062,35661,55632
12161,35753,55796
12260,35837,55955
12346,35914,56108
12420,35985,56253
12487,36045,56380
12549,36099,56486
12613,36154,56572
12680,36212,56650
12742,36265,56725
12790,36305,56791
12823,36330,56843
12847,36348,56880
12867,36365,56902
12883,36379,56915
12883,36383,56917
12868,36379,56910
12851,36371,56899
12831,36357,56883
12802,36333,56861
12766,36305,56834
12736,36278,56801
12718,36254,56766
12707,36235,56730
12698,36220,56691
12687,36206,56648
12678,36193,56604
12667,36179,56557
12652,36162,56513
12634,36146,56473
12611,36128,56436
12586,36106,56392
12559,36078,56340
12528,36046,56287
12493,36008,56236
12455,35964,56183
12420,35924,56128
12389,35894,56078
12360,35865,56038
12334,35839,56005
12310,35821,55972
12288,35806,55937
12265,35787,55906
12246,35771,55882
12238,35763,55867
12245,35764,55858
12259,35772,55859
12272,35787,55871
12280,35799,55885
12283,35802,55898
12286,35806,55910
12294,35812,55920
12310,35818,55932
12330,35829,55954
12347,35845,55983
12354,35859,56014
12357,35872,56038
12365,35889,56058
12374,35909,56074
12379,35925,56087
12384,35933,56095
12391,35933,56095
12396,35929,56089
12396,35916,56076
12389,35899,56053
12380,35884,56026
12369,35871,55999
12352,35857,55972
12330,35838,55942
12309,35815,55905
12289,35791,55862
12268,35770,55823
12251,35752,55792
12238,35740,55770
12225,35726,55748
12210,35710,55720
12191,35692,55692
12166,35673,55664
12139,35659,55632
12114,35647,55596
12085,35633,55556
12055,35617,55517
12030,35598,55475
12008,35581,55431
11989,35562,55382
11969,35537,55326
11949,35504,55263
11933,35468,55202
11919,35432,55147
11908,35406,55100
11897,35385,55065
11881,35363,55036
11864,35338,55011
11845,35311,54983
11820,35287,54955
11791,35264,54934
11764,35244,54919
11747,35234,54905
11738,35231,54891
11732,35234,54878
11737,35244,54870
11752,35259,54861
11769,35273,54852
11781,35280,54843
11788,35279,54829
11785,35270,54807
11770,35254,54778
11745,35232,54744
11714,35206,54704
11683,35180,54659
11653,35150,54611
11626,35118,54561
11602,35085,54512
11571,35048,54463
11528,35011,54419
11483,34977,54384
11442,34946,54358
11411,34927,54341
11401,34923,54337
11413,34936,54352
11441,34965,54393
11481,35013,54461
11536,35072,54554
11607,35139,54672
11689,35218,54809
11780,35309,54955
11879,35406,55113
11985,35506,55291
12100,35613,55486
12217,35729,55688
12336,35848,55888
12454,35968,56078
12569,36084,56252
12682,36190,56412
12782,36286,56564
12862,36370,56704
12929,36445,56831
12987,36508,56948
13031,36562,57053
13071,36606,57143
13110,36639,57219
13143,36663,57279
13165,36681,57326
13181,36691,57362
13196,36694,57390
13208,36690,57407
13219,36683,57417
13228,36676,57422
13236,36671,57422
13247,36669,57417
13253,36665,57408
13254,36662,57397
13252,36657,57380
13246,36643,57356
13237,36625,57325
13225,36609,57291
13207,36595,57257
13183,36582,57230
13158,36571,57208
13136,36560,57188
13107,36548,57167
13072,36534,57141
13041,36519,57109
13020,36507,57073
13010,36495,57036
13003,36480,56996
12991,36462,56955
12975,36439,56915
12954,36407,56874
12932,36374,56836
12911,36345,56804
12889,36320,56775
12870,36303,56746
12861,36295,56717
12861,36297,56692
12873,36310,56673
12895,36327,56660
12917,36344,56659
12938,36367,56674
12952,36388,56697
12955,36397,56715
12950,36397,56724
12945,36395,56722
12938,36395,56709
12926,36392,56690
12913,36386,56673
12902,36386,56666
12895,36388,56667
12886,36386,56665
12873,36379,56656
12865,36371,56650
12863,36369,56648
12865,36373,56643
12864,36377,56636
12860,36374,56627
12850,36367,56614
12834,36356,56595
12816,36343,56574
12798,36329,56557
12777,36312,56536
12757,36292,56511
12737,36274,56488
12715,36256,56468
12693,36236,56452
12671,36215,56442
12650,36195,56432
12635,36178,56420
12627,36161,56402
12622,36144,56380
12619,36131,56356
12617,36121,56340
12615,36113,56333
12616,36107,56330
12619,36105,56320
12619,36101,56304
12615,36097,56284
12609,36090,56258
12601,36080,56226
12591,36068,56191
12578,36053,56154
12563,36036,56118
12544,36019,56081
12526,36002,56043
12511,35982,56003
12494,35958,55963
12474,35936,55925
12453,35919,55894
12429,35899,55863
12400,35876,55826
12369,35860,55789
12344,35850,55753
12322,35835,55713
12305,35814,55671
12296,35796,55632
12289,35786,55600
12284,35779,55573
12281,35770,55552
12278,35764,55533
12268,35755,55507
12248,35739,55471
12223,35716,55435
12201,35693,55400
12184,35671,55359
12169,35650,55315
12151,35633,55274
12128,35625,55239
12102,35618,55206
12073,35608,55179
12048,35597,55158
12033,35590,55148
12030,35590,55157
12040,35597,55185
12067,35620,55234
12109,35660,55311
12158,35712,55406
12214,35772,55516
12278,35841,55648
12351,35923,55800
12434,36014,55964
12525,36110,56138
12620,36208,56314
12714,36307,56484
12811,36404,56642
12916,36501,56791
13026,36603,56945
13133,36702,57104
13234,36792,57255
13331,36875,57392
13421,36949,57516
13494,37015,57624
13551,37068,57720
13597,37105,57805
13637,37133,57879
13668,37153,57942
13686,37161,57995
13693,37161,58032
13696,37157,58050
13701,37151,58053
13702,37144,58050
13702,37141,58047
13699,37138,58042
13689,37133,58029
13679,37126,58008
13672,37115,57983
13658,37100,57960
13637,37087,57939
13616,37075,57919
13598,37063,57902
13587,37058,57888
13584,37061,57871
13581,37061,57852
13576,37058,57837
13566,37049,57820
13552,37034,57796
13541,37017,57770
13528,36996,57738
13508,36971,57695
13485,36941,57647
13454,36908,57598
13415,36875,57548
13378,36845,57506
13346,36822,57477
13318,36803,57450
13302,36789,57424
13295,36777,57404
13288,36766,57386
13287,36761,57367
13296,36762,57354
13310,36770,57345
13322,36783,57340
13335,36796,57341
13348,36811,57353
13355,36821,57369
13359,36828,57384
13363,36831,57398
13370,36833,57409
13379,36832,57416
13385,36824,57417
13385,36816,57417
13387,36815,57416
13395,36819,57415
13401,36823,57412
13406,36830,57407
13413,36834,57403
13416,36828,57394
13411,36817,57380
13403,36806,57370
13392,36790,57364
13379,36773,57350
13363,36756,57324
13344,36735,57290
13326,36708,57258
13312,36686,57231
13303,36675,57201
13297,36672,57173
13291,36669,57154
13283,36661,57136
13272,36649,57114
13258,36638,57092
13242,36628,57072
13222,36612,57049
13197,36584,57022
13171,36549,56990
13145,36518,56958
13126,36492,56924
13117,36468,56884
13113,36446,56843
13106,36423,56804
13099,36397,56763
13095,36379,56727
13088,36368,56697
13072,36355,56669
13050,36342,56642
13030,36330,56620
13012,36317,56603
13001,36304,56585
13001,36296,56565
13008,36296,56547
13016,36303,56530
13023,36307,56508
13028,36308,56481
13033,36308,56457
13037,36306,56435
13037,36299,56412
13027,36285,56384
13008,36259,56351
12983,36227,56319
12957,36193,56289
12926,36159,56254
12896,36127,56216
12874,36103,56179
12860,36092,56142
12847,36082,56108
12829,36069,56076
12805,36058,56046
12781,36050,56018
12762,36038,55987
12745,36021,55952
12728,36004,55915
12708,35985,55881
12691,35965,55849
12680,35946,55818
12669,35926,55791
12650,35905,55769
12630,35883,55744
12612,35861,55718
12599,35847,55704
12594,35848,55702
12601,35860,55708
12617,35883,55724
12642,35919,55759
12677,35966,55816
12727,36022,55890
12786,36089,55982
12848,36159,56091
12910,36226,56214
12969,36293,56342
13030,36364,56476
13100,36442,56618
13180,36525,56765
13271,36612,56917
13370,36706,57077
13474,36805,57243
13578,36901,57409
13680,36991,57572
13776,37076,57731
13864,37156,57881
13946,37232,58019
14023,37304,58144
14095,37365,58254
14155,37417,58350
14201,37460,58431
14236,37496,58496
14259,37530,58547
14271,37553,58580
14271,37562,58592
14257,37559,58587
14233,37545,58575
14204,37523,58561
14178,37503,58545
14165,37488,58528
14161,37477,58510
14153,37465,58488
14138,37445,58461
14123,37419,58431
14106,37388,58400
14086,37355,58372
14071,37327,58345
14067,37308,58322
14065,37290,58298
14058,37270,58266
14051,37246,58231
14045,37222,58195
14035,37202,58162
14015,37180,58133
13989,37155,58100
13964,37132,58067
13938,37113,58042
13908,37100,58022
13878,37090,58002
13857,37086,57986
13840,37085,57972
13827,37082,57954
13817,37076,57930
13807,37065,57900
13804,37051,57867
13806,37040,57839
13811,37034,57822
13819,37033,57818
13834,37033,57822
13857,37037,57833
13884,37045,57851
13905,37055,57873
13916,37062,57895
13920,37066,57913
13926,37071,57926
13935,37084,57941
13944,37105,57961
13955,37126,57978
13966,37138,57984
13974,37147,57977
13980,37155,57965
13986,37161,57951
13992,37166,57940
13994,37174,57936
13991,37181,57936
13988,37181,57932
13985,37176,57924
13980,37169,57907
13970,37158,57882
13956,37147,57855
13935,37132,57823
13903,37108,57784
13862,37079,57740
13826,37050,57699
13799,37025,57666
13775,36999,57639
13751,36967,57617
13731,36938,57599
13717,36916,57584
13701,36894,57565
13677,36866,57532
13643,36831,57489
13609,36793,57445
13584,36759,57404
13564,36733,57365
13545,36708,57327
13524,36684,57283
13500,36661,57236
13471,36638,57193
13442,36617,57151
13417,36601,57116
13391,36587,57089
13360,36570,57060
13332,36551,57023
13314,36532,56984
13297,36513,56948
13282,36492,56915
13275,36475,56886
13272,36465,56859
13264,36452,56833
13253,36435,56804
13243,36418,56766
13237,36400,56723
13225,36379,56680
13199,36358,56638
13171,36340,56598
13146,36323,56562
13121,36308,56535
13102,36294,56513
13095,36282,56495
13093,36274,56478
13091,36273,56461
13091,36271,56438
13085,36263,56408
13073,36255,56378
13060,36246,56352
13049,36238,56328
13043,36239,56314
13044,36246,56313
13054,36251,56316
13073,36261,56326
13107,36281,56357
13149,36311,56409
13193,36346,56473
13239,36384,56553
13291,36431,56651
13349,36488,56763
13418,36556,56893
13500,36640,57042
13593,36738,57206
13692,36836,57370
13791,36931,57532
13885,37028,57696
13974,37127,57863
14055,37223,58031
14122,37308,58189
14181,37379,58325
14241,37442,58444
14301,37502,58548
14358,37553,58636
14407,37592,58707
14444,37617,58761
14475,37631,58801
14503,37643,58836
14528,37660,58872
14548,37676,58905
14558,37686,58926
14554,37690,58934
14543,37687,58935
14531,37679,58928
14519,37670,58913
14507,37660,58894
14494,37651,58875
14477,37639,58854
14459,37622,58825
14442,37600,58791
14429,37580,58760
14418,37562,58730
14408,37542,58693
14397,37520,58642
14385,37496,58587
14363,37468,58531
14335,37436,58471
14307,37404,58411
14280,37376,58362
14251,37351,58325
14221,37326,58299
14199,37306,58276
14191,37298,58258
14196,37299,58244
14206,37305,58230
14213,37312,58218
14217,37317,58211
14216,37313,58205
14208,37304,58199
14198,37297,58199
14190,37296,58204
14182,37297,58206
14174,37298,58209
14172,37300,58218
14179,37305,58233
14192,37316,58249
14206,37326,58261
14213,37329,58264
14215,37329,58261
14217,37328,58260
14217,37325,58260
14210,37321,58255
14201,37314,58246
14192,37302,58236
14181,37283,58227
14174,37266,58217
14167,37253,58209
14159,37245,58206
14152,37243,58201
14150,37250,58192
14154,37256,58176
14151,37251,58149
14143,37241,58115
14138,37235,58085
14133,37230,58061
14119,37223,58033
14098,37212,57999
14081,37201,57968
14071,37190,57943
14061,37175,57920
14044,37157,57896
14021,37133,57877
13990,37104,57852
13958,37069,57816
13929,37037,57775
13907,37020,57741
13892,37013,57712
13879,37006,57677
13868,36999,57639
13861,36992,57605
13856,36980,57572
13854,36959,57534
13847,36932,57494
13833,36902,57454
13816,36875,57416
13800,36854,57382
13783,36837,57351
13765,36822,57328
13746,36812,57308
13725,36801,57281
13707,36790,57247
13690,36777,57215
13668,36760,57185
13647,36737,57153
13628,36714,57120
13613,36693,57087
13605,36677,57054
13596,36660,57022
13584,36640,56989
13579,36618,56956
13576,36599,56927
13567,36581,56905
13551,36562,56885
13529,36541,56861
13505,36526,56835
13480,36516,56811
13453,36507,56790
13430,36502,56768
13410,36497,56746
13386,36486,56715
13360,36469,56673
13339,36456,56628
13323,36448,56586
13314,36440,56548
13308,36429,56512
13301,36413,56485
13290,36393,56466
13281,36376,56452
13285,36369,56444
13305,36371,56449
13328,36381,56471
13349,36399,56508
13381,36428,56561
13431,36470,56636
13497,36530,56733
13571,36608,56845
13651,36696,56974
13734,36786,57119
13819,36876,57274
13909,36971,57436
14007,37074,57607
14110,37180,57786
14211,37281,57967
14310,37375,58147
14410,37471,58322
14509,37568,58491
14603,37659,58653
14688,37748,58807
14765,37837,58948
14834,37914,59070
14892,37974,59168
14944,38028,59247
14991,38073,59313
15027,38100,59367
15046,38112,59411
15052,38113,59443
15053,38112,59463
15056,38117,59477
15060,38124,59491
15060,38128,59508
15049,38125,59518
15032,38114,59513
15016,38097,59499
14996,38076,59482
14974,38050,59459
14949,38015,59424
14923,37975,59380
14898,37938,59334
14879,37906,59295
14869,37881,59261
14867,37864,59232
14866,37855,59212
14862,37848,59195
14857,37844,59180
14852,37840,59166
14840,37835,59145
14821,37825,59117
14793,37808,59085
14760,37783,59048
14731,37759,59010
14709,37738,58981
14694,37718,58955
14681,37697,58923
14672,37677,58889
14669,37667,58862
14674,37669,58841
14683,37677,58824
14689,37686,58816
14693,37693,58812
14695,37695,58806
14697,37696,58801
14702,37696,58801
14712,37694,58799
14726,37690,58793
14735,37686,58791
14731,37679,58796
14714,37670,58803
14698,37665,58810
14691,37666,58820
14689,37670,58831
14690,37673,58838
14693,37671,58840
14688,37664,58835
14676,37657,58826
14662,37649,58815
14652,37643,58803
14644,37642,58791
14635,37641,58777
14626,37638,58767
14616,37632,58755
14609,37622,58739
14607,37604,58716
14609,37585,58691
14612,37568,58665
14617,37553,58638
14622,37543,58612
14627,37539,58586
14632,37535,58560
14631,37528,58530
14618,37517,58493
14598,37500,58448
14575,37476,58399
14546,37446,58348
14511,37409,58295
14477,37374,58241
14451,37345,58193
14430,37323,58150
14408,37302,58106
14381,37279,58057
14350,37256,58009
14318,37233,57966
14288,37207,57924
14261,37174,57879
14231,37130,57835
14202,37086,57788
14179,37049,57743
14158,37022,57706
14136,37002,57672
14115,36986,57634
14097,36977,57602
14078,36972,57575
14053,36963,57546
14023,36944,57512
13995,36919,57474
13971,36891,57434
13945,36860,57393
13922,36833,57352
13905,36815,57312
13890,36800,57273
13876,36785,57237
13856,36768,57204
13834,36747,57172
13816,36723,57136
13799,36696,57099
13781,36672,57066
13759,36655,57041
13731,36637,57018
13703,36616,56993
13682,36597,56966
13666,36582,56936
13653,36563,56901
13633,36537,56861
13604,36505,56817
13567,36465,56766
13532,36421,56707
13508,36382,56652
13489,36346,56601
13464,36310,56552
13436,36276,56509
13412,36249,56474
13392,36231,56446
13375,36221,56428
13362,36217,56416
13357,36219,56419
13362,36235,56445
13388,36268,56495
13432,36317,56567
13487,36376,56655
13550,36442,56760
13622,36516,56885
13704,36599,57024
13793,36689,57174
13885,36784,57333
13982,36886,57500
14084,36989,57668
14186,37090,57839
14291,37193,58015
14397,37298,58191
14496,37402,58365
14584,37502,58537
14659,37591,58697
14724,37665,58840
14779,37728,58971
14830,37784,59089
14882,37836,59190
14937,37882,59276
14988,37922,59351
15028,37949,59409
15058,37963,59444
15086,37969,59464
15112,37974,59479
15130,37976,59484
15138,37975,59477
15146,37974,59461
15155,37974,59442
15155,37967,59422
15143,37953,59397
15124,37935,59367
15097,37914,59336
15062,37893,59311
15025,37873,59290
14984,37847,59265
14941,37813,59229
14900,37773,59185
14857,37734,59142
14819,37703,59106
14789,37681,59074
14763,37655,59035
14735,37622,58991
14708,37592,58954
14690,37571,58922
14679,37555,58889
14669,37539,58852
14660,37523,58819
14652,37507,58788
14646,37490,58754
14642,37479,58720
14633,37476,58692
14622,37476,58667
14611,37474,58651
14604,37480,58649
14599,37491,58656
14596,37501,58663
14598,37510,58664
14607,37516,58663
14613,37519,58666
14615,37521,58670
14621,37526,58681
14629,37537,58700
14637,37551,58724
14646,37564,58746
14656,37574,58765
14668,37586,58784
14680,37596,58801
14688,37597,58814
14688,37591,58820
14683,37579,58819
14670,37562,58805
14654,37541,58781
14639,37522,58760
14629,37506,58746
14621,37494,58731
14611,37478,58708
14596,37456,58679
14578,37436,58648
14556,37420,58612
14533,37406,58575
14511,37390,58536
14484,37368,58489
14458,37343,58441
14433,37320,58397
14405,37296,58353
14377,37266,58312
14349,37235,58272
14323,37208,58227
14305,37183,58179
14286,37161,58134
14266,37145,58095
14248,37131,58065
14232,37117,58042
14214,37102,58020
14197,37090,57995
14189,37079,57967
14186,37067,57939
14181,37053,57907
14170,37038,57874
14146,37019,57841
14114,36994,57806
14086,36967,57767
14069,36940,57727
14057,36918,57687
14045,36903,57643
14032,36891,57600
14018,36877,57567
14002,36861,57540
13985,36844,57512
13966,36828,57486
13946,36816,57459
13927,36805,57426
13912,36795,57394
13899,36784,57365
13883,36769,57335
13864,36748,57303
13845,36718,57271
13823,36685,57236
13799,36653,57195
13774,36625,57153
13751,36600,57120
13728,36574,57089
13704,36545,57051
13683,36520,57011
13669,36503,56979
13659,36498,56958
13650,36496,56946
13645,36493,56943
13650,36495,56952
13669,36509,56974
13701,36537,57010
13746,36578,57067
13797,36627,57148
13851,36685,57250
13910,36752,57369
13982,36826,57498
14063,36900,57635
14147,36978,57779
14235,37064,57932
14333,37160,58095
14440,37263,58267
14547,37364,58439
14648,37461,58601
14746,37559,58758
14843,37651,58909
14927,37729,59046
14995,37795,59169
15056,37856,59282
15114,37912,59385
15155,37960,59473
15175,37995,59544
15183,38020,59600
15188,38036,59644
15193,38044,59680
15198,38050,59704
15200,38057,59716
15202,38067,59719
15208,38078,59721
15216,38088,59719
15226,38093,59708
15238,38091,59686
15243,38081,59654
15238,38066,59624
15234,38056,59603
15237,38050,59590
15234,38042,59573
15216,38027,59551
15192,38007,59525
15169,37984,59493
15141,37954,59449
15103,37918,59391
15065,37880,59329
15033,37838,59268
15004,37795,59210
14973,37758,59155
14944,37722,59098
14919,37687,59044
14894,37654,58997
14866,37624,58955
14839,37598,58915
14817,37578,58881
14806,37562,58855
14800,37549,58835
14792,37537,58816
14784,37531,58799
14782,37533,58791
14786,37538,58793
14790,37545,58798
14797,37555,58805
14808,37566,58814
14816,37572,58824
14819,37573,58835
14820,37573,58850
14822,37577,58869
14825,37586,58887
14832,37602,58900
14840,37618,58912
14844,37627,58921
14840,37624,58920
14831,37614,58907
14821,37601,58888
14808,37584,58866
14797,37569,58842
14791,37558,58818
14787,37549,58799
14783,37545,58786
14777,37542,58779
14767,37535,58769
14754,37525,58755
14735,37508,58735
14711,37484,58706
14691,37460,58672
14671,37434,58636
14647,37406,58596
14625,37381,58558
14606,37363,58526
14587,37348,58494
14567,37335,58459
14547,37320,58420
14524,37306,58381
14503,37290,58342
14483,37271,58301
14455,37253,58259
14423,37232,58212
14393,37204,58158
14361,37174,58104
14333,37144,58053
14310,37117,58009
14288,37096,57969
14268,37077,57930
14251,37055,57885
14235,37032,57837
14218,37013,57793
14203,36997,57751
14193,36980,57709
14186,36958,57666
14173,36929,57621
14156,36896,57572
14140,36865,57528
14123,36837,57487
14102,36813,57448
14081,36792,57412
14057,36776,57379
14028,36763,57349
13994,36745,57317
13960,36717,57285
13931,36687,57250
13911,36663,57213
13899,36643,57180
13889,36629,57158
13874,36620,57143
13856,36611,57129
13838,36604,57111
13827,36602,57087
13820,36599,57062
13814,36590,57038
13807,36572,57010
13790,36543,56974
13767,36507,56938
13749,36477,56906
13741,36459,56876
13742,36454,56857
13750,36462,56852
13764,36482,56856
13782,36509,56875
13802,36538,56913
13830,36580,56978
13873,36638,57074
13934,36706,57198
14009,36782,57339
14096,36865,57493
14195,36958,57660
14302,37062,57837
14410,37171,58016
14518,37281,58193
14629,37391,58365
14741,37498,58538
14850,37600,58711
14954,37696,58877
15052,37785,59031
15145,37867,59172
15234,37945,59305
15313,38017,59433
15374,38081,59551
15417,38133,59657
15443,38175,59754
15456,38210,59839
15465,38241,59913
15475,38269,59982
15485,38292,60039
15498,38308,60078
15518,38322,60106
15541,38338,60125
15562,38354,60140
15578,38364,60149
15590,38367,60146
15605,38365,60131
15623,38358,60112
15633,38345,60091
15625,38321,60062
15603,38287,60024
15577,38249,59981
15553,38209,59941
15532,38175,59904
15513,38149,59868
15490,38129,59837
15465,38116,59814
15444,38108,59793
15429,38098,59765
15412,38083,59732
15398,38071,59698
15392,38062,59664
15382,38052,59626
15367,38039,59587
15354,38028,59553
15341,38020,59527
15328,38011,59506
15313,37996,59482
15299,37980,59454
15289,37968,59424
15286,37960,59398
15288,37953,59379
15292,37946,59370
15292,37939,59365
15286,37935,59359
15278,37937,59361
15269,37942,59372
15261,37951,59386
15259,37960,59399
15260,37964,59412
15259,37963,59423
15256,37966,59436
15258,37973,59449
15266,37975,59459
15279,37973,59463
15292,37970,59460
15303,37968,59451
15315,37967,59442
15330,37969,59434
15340,37972,59423
15341,37971,59406
15339,37968,59387
15337,37966,59373
15333,37966,59358
15328,37968,59339
15319,37962,59316
15305,37943,59283
15282,37914,59243
15247,37877,59198
15205,37837,59153
15165,37802,59114
15131,37773,59075
15100,37747,59030
15072,37721,58984
15050,37692,58937
15029,37665,58892
15004,37641,58846
14973,37616,58798
14942,37596,58755
14911,37579,58715
14881,37561,58670
14856,37541,58626
14835,37521,58584
14816,37505,58544
14795,37488,58504
14775,37463,58465
14761,37440,58429
14758,37423,58392
14759,37403,58352
14753,37380,58311
14741,37359,58267
14726,37338,58225
14708,37316,58188
14683,37296,58148
14655,37274,58104
14626,37247,58058
14601,37218,58009
14580,37189,57963
14557,37160,57924
14530,37133,57888
14504,37109,57849
14487,37091,57811
14478,37078,57780
14470,37067,57756
14454,37047,57729
14432,37020,57702
14412,36996,57678
14396,36978,57653
14387,36966,57632
14383,36960,57617
14375,36953,57605
14361,36939,57590
14345,36918,57566
14327,36895,57535
14300,36866,57503
14264,36831,57466
14227,36797,57422
14196,36767,57379
14175,36743,57335
14157,36721,57292
14139,36699,57252
14121,36680,57215
14105,36663,57179
14087,36648,57148
14072,36635,57125
14057,36627,57111
14046,36623,57111
14046,36631,57123
14062,36653,57150
14099,36691,57199
14153,36748,57267
14219,36815,57353
14290,36885,57452
14366,36960,57564
14450,37044,57694
14547,37135,57841
14652,37231,58006
14757,37335,58188
14857,37443,58375
14954,37548,58560
15047,37646,58742
15132,37739,58923
15212,37832,59103
15293,37924,59275
15374,38012,59434
15451,38095,59582
15520,38170,59719
15580,38233,59843
15634,38288,59950
15682,38333,60040
15725,38370,60117
15757,38396,60184
15777,38414,60233
15791,38428,60268
15800,38442,60296
15803,38453,60315
15810,38462,60323
15824,38474,60327
15838,38488,60324
15846,38494,60310
15843,38489,60283
15841,38480,60248
15842,38470,60214
15836,38453,60181
15825,38433,60156
15815,38416,60140
15803,38402,60124
15788,38388,60103
15766,38364,60070
15737,38328,60028
15705,38284,59982
15674,38242,59934
15647,38204,59882
15621,38167,59828
15592,38131,59775
15563,38102,59725
15534,38081,59684
15501,38060,59646
15469,38035,59607
15436,38003,59574
15405,37974,59549
15379,37952,59531
15355,37934,59516
15339,37922,59502
15340,37921,59490
15355,37924,59478
15372,37928,59465
15387,37936,59456
15405,37951,59453
15426,37971,59453
15443,37989,59451
15447,37998,59447
15443,37997,59447
15434,37991,59445
15424,37983,59442
15419,37975,59439
15407,37968,59437
15387,37962,59438
15371,37960,59443
15363,37960,59446
15357,37958,59445
15343,37954,59434
15323,37945,59410
15304,37928,59375
15289,37903,59338
15284,37882,59307
15285,37867,59282
15284,37853,59263
15276,37836,59247
15263,37817,59229
15252,37798,59206
15245,37778,59177
15232,37753,59139
15206,37725,59092
15174,37695,59039
15140,37665,58986
15104,37636,58933
15066,37610,58880
15029,37582,58824
14997,37548,58766
14968,37510,58708
14937,37470,58649
14904,37428,58593
14877,37393,58543
14855,37366,58501
14834,37343,58467
14808,37322,58437
14783,37302,58408
14758,37276,58374
14729,37243,58332
14698,37203,58287
14673,37167,58240
14652,37137,58195
14630,37112,58148
14605,37084,58095
14580,37051,58042
14556,37018,57988
14533,36991,57938
14516,36972,57897
14504,36963,57862
14491,36955,57826
14473,36948,57795
14448,36940,57766
14417,36927,57735
14385,36907,57703
14355,36880,57665
14326,36849,57623
14301,36821,57584
14278,36795,57543
14251,36766,57501
14220,36738,57458
14193,36711,57410
14169,36681,57355
14148,36654,57303
14133,36632,57259
14121,36612,57220
14104,36591,57185
14078,36566,57152
14046,36541,57118
14015,36518,57082
13989,36492,57040
13965,36463,56991
13946,36436,56943
13932,36418,56903
13916,36407,56868
13895,36392,56833
13869,36368,56793
13842,36336,56752
13816,36303,56712
13793,36275,56669
13770,36249,56624
13747,36224,56583
13725,36204,56553
13706,36193,56536
13699,36192,56531
13707,36204,56537
13726,36229,56562
13757,36268,56614
13798,36319,56690
13851,36378,56789
13914,36443,56906
13987,36518,57039
14070,36605,57186
14161,36698,57346
14261,36797,57519
14366,36903,57699
14472,37009,57876
14573,37110,58046
14671,37204,58213
14763,37294,58378
14852,37382,58540
14939,37469,58697
15024,37552,58845
15104,37631,58984
15178,37705,59117
15245,37774,59241
15306,37839,59351
15356,37895,59440
15391,37937,59506
15412,37963,59553
15424,37981,59590
15436,37994,59614
15449,37998,59622
15453,37989,59618
15437,37963,59604
15406,37926,59581
15365,37889,59551
15321,37852,59509
15281,37817,59461
15250,37793,59415
15230,37777,59372
15218,37763,59332
15207,37754,59299
15196,37745,59269
15177,37730,59234
15149,37705,59191
15114,37669,59145
15080,37630,59099
15050,37588,59051
15019,37542,59001
14991,37502,58950
14965,37470,58903
14933,37440,58858
14897,37408,58808
14862,37377,58752
14837,37352,58700
14818,37333,58659
14798,37321,58628
14787,37318,58609
14787,37321,58600
14788,37323,58593
14786,37325,58585
14783,37326,58581
14783,37329,58584
14783,37328,58592
14779,37322,58600
14776,37318,58608
14778,37323,58617
14785,37334,58626
14797,37346,58636
14807,37356,58648
14809,37363,58656
14806,37364,58656
14810,37360,58653
14815,37356,58647
14823,37360,58642
14832,37365,58642
14835,37367,58642
14834,37371,58644
14832,37378,58650
14834,37386,58657
14838,37394,58656
14838,37397,58643
14834,37393,58622
14825,37383,58599
14817,37370,58574
14812,37354,58548
14807,37334,58519
14798,37308,58482
14789,37281,58440
14778,37256,58399
14760,37234,58355
14736,37211,58307
14707,37184,58256
14676,37152,58204
14643,37117,58153
14608,37076,58110
14572,37035,58070
14543,36999,58032
14520,36969,57999
14503,36945,57970
14489,36924,57941
14475,36903,57908
14456,36881,57875
