green_channel,red_channel,ir_channel,Anomaly_ch0,Anomaly_ch1,Anomaly_ch2
14381,5159,46645,0,0,0
14280,5107,46503,0,0,0
14187,5061,46371,0,0,0
14107,5022,46252,0,0,0
14040,4989,46148,0,0,0
13987,4961,46064,0,0,0
13944,4940,45995,0,0,0
13910,4924,45937,0,0,0
13884,4913,45888,0,0,0
13866,4905,45849,0,0,0
13855,4900,45818,0,0,0
13846,4897,45789,0,0,0
13834,4893,45759,0,0,0
13818,4884,45722,0,0,0
13798,4871,45681,0,0,0
13772,4856,45637,0,0,0
13741,4840,45588,0,0,0
13708,4823,45531,0,0,0
13673,4803,45464,0,0,0
13632,4779,45389,0,0,0
13577,4749,45303,0,0,0
13510,4712,45208,0,0,0
13432,4672,45111,0,0,0
13347,4629,45012,0,0,0
13259,4586,44911,0,0,0
13174,4543,44815,0,0,0
13102,4506,44727,0,0,0
13045,4478,44649,0,0,0
12999,4458,44579,0,0,0
12959,4444,44516,0,0,0
12926,4432,44460,0,0,0
12896,4419,44405,0,0,0
12862,4403,44347,0,0,0
12826,4385,44285,0,0,0
12784,4365,44221,0,0,0
12737,4343,44154,0,0,0
12687,4318,44082,0,0,0
12632,4292,44005,0,0,0
12572,4263,43922,0,0,0
12505,4229,43829,0,0,0
12431,4194,43727,0,0,0
12357,4158,43620,0,0,0
12286,4125,43516,0,0,0
12220,4095,43415,0,0,0
12155,4067,43318,0,0,0
12094,4038,43229,0,0,0
12044,4013,43159,0,0,0
12015,4000,43121,0,0,0
12015,4005,43134,0,0,0
12055,4029,43210,0,0,0
12145,4077,43361,0,0,0
12287,4152,43593,0,0,0
12487,4252,43909,0,0,0
12742,4377,44308,0,0,0
13052,4531,44784,0,0,0
13413,4712,45330,0,0,0
13816,4917,45935,0,0,0
14245,5140,46582,0,0,0
14685,5372,47253,0,0,0
15124,5605,47928,0,0,0
15554,5834,48590,0,0,0
15971,6054,49227,0,0,0
16365,6260,49824,0,0,0
16724,6445,50370,0,0,0
17043,6610,50854,0,0,0
17322,6754,51272,0,0,0
17558,6875,51621,0,0,0
17753,6975,51903,0,0,0
17910,7055,52123,0,0,0
18036,7120,52288,0,0,0
18135,7171,52407,0,0,0
18209,7209,52485,0,0,0
18260,7233,52528,0,0,0
18288,7244,52541,0,0,0
18290,7242,52529,0,0,0
18268,7229,52494,0,0,0
18231,7207,52439,0,0,0
18185,7180,52370,0,0,0
18139,7150,52295,0,0,0
18101,7123,52220,0,0,0
18077,7103,52154,0,0,0
18063,7088,52094,0,0,0
18056,7075,52038,0,0,0
18053,7063,51984,0,0,0
18054,7052,51932,0,0,0
18053,7043,51882,0,0,0
18046,7032,51831,0,0,0
18034,7019,51774,0,0,0
18018,7004,51711,0,0,0
17994,6984,51641,0,0,0
17956,6957,51557,0,0,0
17902,6923,51457,0,0,0
17836,6882,51341,0,0,0
17764,6837,51216,0,0,0
17690,6791,51087,0,0,0
17618,6742,50956,0,0,0
17554,6693,50829,0,0,0
17500,6649,50716,0,0,0
17456,6612,50621,0,0,0
17421,6583,50543,0,0,0
17394,6561,50481,0,0,0
17375,6544,50438,0,0,0
17362,6533,50414,0,0,0
17355,6526,50405,0,0,0
17346,6520,50406,0,0,0
17337,6516,50413,0,0,0
17334,6515,50430,0,0,0
17338,6518,50453,0,0,0
17347,6524,50477,0,0,0
17362,6532,50502,0,0,0
17384,6541,50526,0,0,0
17412,6552,50550,0,0,0
17441,6564,50568,0,0,0
17467,6576,50578,0,0,0
17490,6583,50577,0,0,0
17509,6587,50568,0,0,0
17520,6587,50553,0,0,0
17522,6582,50531,0,0,0
17514,6570,50496,0,0,0
17499,6551,50449,0,0,0
17477,6527,50392,0,0,0
17445,6500,50326,0,0,0
17400,6465,50248,0,0,0
17344,6423,50156,0,0,0
17278,6378,50048,0,0,0
17202,6331,49923,0,0,0
17115,6281,49786,0,0,0
17017,6226,49637,0,0,0
16908,6166,49476,0,0,0
16792,6102,49307,0,0,0
16673,6037,49133,0,0,0
16552,5970,48956,0,0,0
16434,5905,48781,0,0,0
16322,5842,48611,0,0,0
16221,5783,48454,0,0,0
16135,5730,48317,0,0,0
16063,5686,48198,0,0,0
15999,5645,48088,0,0,0
15943,5608,47983,0,0,0
15894,5576,47888,0,0,0
15849,5548,47803,0,0,0
15808,5522,47724,0,0,0
15769,5496,47650,0,0,0
15728,5468,47580,0,0,0
15681,5438,47509,0,0,0
15628,5404,47431,0,0,0
15574,5368,47347,0,0,0
15518,5331,47259,0,0,0
15454,5290,47165,0,0,0
15381,5246,47063,0,0,0
15301,5202,46957,0,0,0
15218,5160,46852,0,0,0
15138,5119,46746,0,0,0
15062,5079,46639,0,0,0
14991,5039,46536,0,0,0
14925,5001,46439,0,0,0
14866,4965,46347,0,0,0
14815,4933,46260,0,0,0
14775,4908,46182,0,0,0
14743,4888,46116,0,0,0
14718,4871,46059,0,0,0
14702,4855,46010,0,0,0
14693,4841,45968,0,0,0
14684,4827,45930,0,0,0
14670,4814,45892,0,0,0
14649,4798,45850,0,0,0
14622,4779,45804,0,0,0
14593,4758,45752,0,0,0
14559,4735,45694,0,0,0
14519,4709,45627,0,0,0
14471,4681,45551,0,0,0
14419,4651,45468,0,0,0
14364,4620,45384,0,0,0
14311,4589,45302,0,0,0
14263,4560,45224,0,0,0
14219,4532,45150,0,0,0
14177,4503,45076,0,0,0
14135,4474,45000,0,0,0
14094,4447,44925,0,0,0
14055,4424,44852,0,0,0
14015,4400,44776,0,0,0
13970,4374,44692,0,0,0
13918,4345,44601,0,0,0
13861,4312,44506,0,0,0
13797,4277,44408,0,0,0
13730,4244,44311,0,0,0
13667,4213,44222,0,0,0
13619,4188,44149,0,0,0
13591,4173,44107,0,0,0
13594,4175,44116,0,0,0
13637,4200,44193,0,0,0
13727,4251,44345,0,0,0
13873,4329,44583,0,0,0
14081,4436,44912,0,0,0
14354,4572,45332,0,0,0
14684,4737,45837,0,0,0
15066,4929,46418,0,0,0
15491,5144,47058,0,0,0
15947,5376,47736,0,0,0
16415,5617,48431,0,0,0
16878,5856,49120,0,0,0
17325,6087,49781,0,0,0
17744,6303,50397,0,0,0
18127,6499,50957,0,0,0
18465,6673,51454,0,0,0
18760,6826,51883,0,0,0
19010,6955,52242,0,0,0
19212,7060,52533,0,0,0
19370,7141,52762,0,0,0
19494,7203,52939,0,0,0
19589,7248,53066,0,0,0
19658,7279,53150,0,0,0
19706,7299,53202,0,0,0
19736,7313,53228,0,0,0
19755,7320,53236,0,0,0
19764,7320,53227,0,0,0
19765,7312,53202,0,0,0
19761,7302,53169,0,0,0
19754,7289,53131,0,0,0
19738,7271,53086,0,0,0
19713,7247,53029,0,0,0
19680,7220,52963,0,0,0
19638,7189,52889,0,0,0
19585,7152,52802,0,0,0
19519,7108,52696,0,0,0
19443,7058,52575,0,0,0
19353,7002,52439,0,0,0
19249,6941,52284,0,0,0
19132,6872,52110,0,0,0
19009,6800,51920,0,0,0
18882,6725,51720,0,0,0
18754,6650,51517,0,0,0
18628,6577,51316,0,0,0
18509,6506,51124,0,0,0
18398,6438,50940,0,0,0
18296,6376,50770,0,0,0
18206,6321,50619,0,0,0
18132,6275,50494,0,0,0
18079,6242,50396,0,0,0
18049,6221,50328,0,0,0
18036,6210,50287,0,0,0
18037,6208,50269,0,0,0
18049,6213,50270,0,0,0
18068,6221,50283,0,0,0
18088,6230,50299,0,0,0
18106,6238,50316,0,0,0
18116,6240,50330,0,0,0
18117,6236,50337,0,0,0
18109,6230,50338,0,0,0
18099,6220,50335,0,0,0
18090,6209,50327,0,0,0
18080,6197,50314,0,0,0
18065,6185,50297,0,0,0
18047,6171,50274,0,0,0
18027,6157,50247,0,0,0
18006,6142,50214,0,0,0
17983,6124,50175,0,0,0
17955,6104,50128,0,0,0
17922,6084,50069,0,0,0
17885,6061,49998,0,0,0
17841,6034,49913,0,0,0
17792,6003,49819,0,0,0
17740,5971,49722,0,0,0
17688,5940,49626,0,0,0
17636,5908,49532,0,0,0
17581,5877,49438,0,0,0
17520,5843,49341,0,0,0
17458,5805,49237,0,0,0
17397,5766,49132,0,0,0
17339,5729,49028,0,0,0
17276,5692,48920,0,0,0
17208,5655,48805,0,0,0
17138,5618,48690,0,0,0
17072,5582,48577,0,0,0
17009,5549,48469,0,0,0
16951,5518,48370,0,0,0
16899,5489,48280,0,0,0
16854,5462,48199,0,0,0
16810,5437,48125,0,0,0
16768,5412,48056,0,0,0
16730,5388,47989,0,0,0
16689,5361,47917,0,0,0
16640,5330,47840,0,0,0
16584,5295,47759,0,0,0
16520,5257,47672,0,0,0
16449,5216,47576,0,0,0
16373,5175,47475,0,0,0
16292,5133,47369,0,0,0
16209,5092,47262,0,0,0
16124,5051,47152,0,0,0
16036,5009,47037,0,0,0
15950,4968,46923,0,0,0
15873,4932,46814,0,0,0
15806,4901,46714,0,0,0
15743,4873,46624,0,0,0
15688,4847,46545,0,0,0
15641,4823,46477,0,0,0
15602,4804,46420,0,0,0
15572,4789,46373,0,0,0
15548,4777,46333,0,0,0
15533,4765,46302,0,0,0
15524,4753,46274,0,0,0
15521,4743,46247,0,0,0
15520,4735,46222,0,0,0
15517,4729,46198,0,0,0
15510,4723,46169,0,0,0
15495,4715,46134,0,0,0
15469,4706,46091,0,0,0
15434,4692,46040,0,0,0
15386,4673,45979,0,0,0
15328,4646,45907,0,0,0
15268,4616,45829,0,0,0
15205,4585,45745,0,0,0
15137,4551,45652,0,0,0
15062,4515,45551,0,0,0
14984,4476,45441,0,0,0
14903,4437,45327,0,0,0
14825,4398,45211,0,0,0
14750,4361,45099,0,0,0
14677,4325,44989,0,0,0
14602,4288,44882,0,0,0
14526,4250,44775,0,0,0
14450,4211,44666,0,0,0
14374,4174,44559,0,0,0
14298,4136,44456,0,0,0
14226,4101,44359,0,0,0
14166,4071,44273,0,0,0
14120,4046,44198,0,0,0
14083,4026,44136,0,0,0
14056,4011,44087,0,0,0
14042,4002,44057,0,0,0
14047,4005,44059,0,0,0
14078,4024,44106,0,0,0
14144,4060,44211,0,0,0
14253,4117,44384,0,0,0
14414,4200,44638,0,0,0
14632,4311,44982,0,0,0
14908,4451,45411,0,0,0
15234,4619,45919,0,0,0
15606,4812,46497,0,0,0
16013,5026,47126,0,0,0
16446,5253,47783,0,0,0
16888,5487,48449,0,0,0
17325,5718,49106,0,0,0
17747,5939,49733,0,0,0
18144,6146,50318,0,0,0
18507,6337,50854,0,0,0
18832,6510,51333,0,0,0
19116,6662,51748,0,0,0
19358,6793,52097,0,0,0
19558,6901,52382,0,0,0
19717,6986,52605,0,0,0
19839,7049,52772,0,0,0
19930,7093,52893,0,0,0
19993,7121,52974,0,0,0
20032,7138,53023,0,0,0
20053,7145,53043,0,0,0
20057,7145,53035,0,0,0
20050,7137,53006,0,0,0
20034,7122,52961,0,0,0
20010,7101,52904,0,0,0
19976,7076,52841,0,0,0
19934,7050,52776,0,0,0
19887,7022,52709,0,0,0
19834,6994,52637,0,0,0
19781,6967,52560,0,0,0
19730,6940,52478,0,0,0
19679,6912,52389,0,0,0
19626,6880,52291,0,0,0
19570,6846,52184,0,0,0
19510,6808,52071,0,0,0
19448,6768,51952,0,0,0
19388,6728,51829,0,0,0
19328,6687,51699,0,0,0
19260,6642,51560,0,0,0
19181,6594,51411,0,0,0
19093,6544,51257,0,0,0
19004,6494,51111,0,0,0
18917,6447,50973,0,0,0
18832,6403,50844,0,0,0
18750,6362,50729,0,0,0
18679,6326,50630,0,0,0
18622,6298,50549,0,0,0
18579,6277,50489,0,0,0
18550,6263,50449,0,0,0
18533,6255,50427,0,0,0
18525,6255,50420,0,0,0
18526,6260,50428,0,0,0
18537,6270,50449,0,0,0
18551,6281,50477,0,0,0
18566,6291,50505,0,0,0
18580,6299,50530,0,0,0
18596,6306,50550,0,0,0
18613,6313,50572,0,0,0
18628,6318,50591,0,0,0
18636,6320,50602,0,0,0
18639,6316,50605,0,0,0
18639,6310,50600,0,0,0
18638,6305,50588,0,0,0
18634,6299,50571,0,0,0
18625,6291,50545,0,0,0
18613,6282,50510,0,0,0
18597,6271,50467,0,0,0
18575,6260,50415,0,0,0
18545,6248,50354,0,0,0
18504,6231,50282,0,0,0
18454,6207,50198,0,0,0
18394,6176,50103,0,0,0
18326,6140,49999,0,0,0
18251,6102,49887,0,0,0
18168,6060,49767,0,0,0
18074,6011,49637,0,0,0
17969,5955,49498,0,0,0
17857,5897,49352,0,0,0
17740,5836,49198,0,0,0
17617,5774,49038,0,0,0
17488,5712,48878,0,0,0
17361,5651,48720,0,0,0
17239,5591,48567,0,0,0
17130,5535,48422,0,0,0
17036,5485,48290,0,0,0
16958,5443,48173,0,0,0
16892,5406,48068,0,0,0
16836,5373,47974,0,0,0
16790,5345,47892,0,0,0
16748,5321,47817,0,0,0
16710,5301,47746,0,0,0
16676,5284,47681,0,0,0
16645,5267,47625,0,0,0
16611,5250,47576,0,0,0
16575,5234,47529,0,0,0
16544,5220,47483,0,0,0
16519,5208,47441,0,0,0
16498,5196,47399,0,0,0
16476,5183,47352,0,0,0
16453,5170,47301,0,0,0
16430,5156,47251,0,0,0
16406,5141,47204,0,0,0
16378,5125,47157,0,0,0
16344,5108,47105,0,0,0
16308,5089,47045,0,0,0
16272,5070,46984,0,0,0
16237,5054,46926,0,0,0
16203,5038,46869,0,0,0
16170,5022,46811,0,0,0
16138,5005,46753,0,0,0
16110,4988,46698,0,0,0
16086,4971,46646,0,0,0
16063,4954,46596,0,0,0
16037,4937,46546,0,0,0
16011,4922,46497,0,0,0
15989,4907,46453,0,0,0
15970,4892,46414,0,0,0
15952,4880,46377,0,0,0
15939,4873,46342,0,0,0
15933,4872,46316,0,0,0
15934,4876,46296,0,0,0
15935,4879,46275,0,0,0
15933,4880,46249,0,0,0
15932,4880,46219,0,0,0
15933,4879,46187,0,0,0
15931,4875,46148,0,0,0
15920,4866,46102,0,0,0
15900,4853,46047,0,0,0
15869,4834,45980,0,0,0
15824,4809,45897,0,0,0
15767,4778,45802,0,0,0
15704,4744,45698,0,0,0
15638,4709,45588,0,0,0
15572,4675,45475,0,0,0
15509,4644,45363,0,0,0
15449,4615,45258,0,0,0
15388,4585,45163,0,0,0
15329,4553,45077,0,0,0
15275,4526,45000,0,0,0
15230,4505,44943,0,0,0
15198,4492,44914,0,0,0
15186,4487,44923,0,0,0
15203,4498,44982,0,0,0
15261,4532,45108,0,0,0
15367,4593,45315,0,0,0
15529,4686,45605,0,0,0
15749,4809,45976,0,0,0
16024,4957,46420,0,0,0
16343,5128,46927,0,0,0
16695,5318,47485,0,0,0
17074,5523,48079,0,0,0
17469,5735,48692,0,0,0
17868,5944,49303,0,0,0
18254,6146,49894,0,0,0
18614,6337,50449,0,0,0
18940,6512,50956,0,0,0
19230,6666,51407,0,0,0
19486,6798,51798,0,0,0
19709,6915,52135,0,0,0
19900,7018,52418,0,0,0
20060,7104,52648,0,0,0
20195,7174,52833,0,0,0
20308,7230,52978,0,0,0
20398,7277,53087,0,0,0
20468,7313,53161,0,0,0
20519,7340,53205,0,0,0
20553,7359,53225,0,0,0
20574,7371,53227,0,0,0
20581,7375,53215,0,0,0
20576,7371,53189,0,0,0
20559,7359,53145,0,0,0
20526,7334,53080,0,0,0
20476,7299,52994,0,0,0
20408,7254,52887,0,0,0
20318,7199,52757,0,0,0
20204,7133,52603,0,0,0
20068,7056,52425,0,0,0
19915,6969,52225,0,0,0
19749,6874,52006,0,0,0
19570,6773,51771,0,0,0
19390,6670,51529,0,0,0
19219,6573,51288,0,0,0
19065,6484,51060,0,0,0
18931,6407,50853,0,0,0
18818,6342,50673,0,0,0
18724,6291,50518,0,0,0
18653,6253,50389,0,0,0
18603,6226,50286,0,0,0
18569,6208,50209,0,0,0
18550,6196,50152,0,0,0
18539,6189,50110,0,0,0
18530,6186,50079,0,0,0
18525,6185,50059,0,0,0
18526,6187,50053,0,0,0
18532,6193,50059,0,0,0
18543,6200,50072,0,0,0
18559,6210,50089,0,0,0
18582,6221,50114,0,0,0
18613,6233,50145,0,0,0
18647,6245,50180,0,0,0
18681,6259,50216,0,0,0
18714,6271,50251,0,0,0
18750,6282,50288,0,0,0
18791,6296,50330,0,0,0
18840,6316,50377,0,0,0
18895,6340,50428,0,0,0
18950,6368,50483,0,0,0
19006,6396,50537,0,0,0
19058,6420,50583,0,0,0
19103,6440,50617,0,0,0
19143,6459,50639,0,0,0
19174,6474,50645,0,0,0
19190,6481,50631,0,0,0
19190,6478,50596,0,0,0
19171,6465,50541,0,0,0
19130,6441,50461,0,0,0
19069,6408,50361,0,0,0
18993,6365,50247,0,0,0
18908,6315,50122,0,0,0
18812,6260,49989,0,0,0
18708,6203,49849,0,0,0
18594,6141,49699,0,0,0
18473,6074,49540,0,0,0
18349,6007,49379,0,0,0
18233,5947,49227,0,0,0
18135,5897,49094,0,0,0
18059,5858,48984,0,0,0
18008,5832,48900,0,0,0
17983,5818,48843,0,0,0
17984,5814,48807,0,0,0
18002,5816,48787,0,0,0
18031,5824,48778,0,0,0
18066,5836,48776,0,0,0
18103,5849,48776,0,0,0
18133,5858,48774,0,0,0
18147,5860,48764,0,0,0
18143,5854,48741,0,0,0
18119,5839,48702,0,0,0
18079,5816,48647,0,0,0
18024,5789,48576,0,0,0
17959,5758,48492,0,0,0
17889,5723,48399,0,0,0
17815,5684,48299,0,0,0
17737,5642,48194,0,0,0
17661,5602,48089,0,0,0
17591,5563,47985,0,0,0
17527,5524,47885,0,0,0
17470,5485,47794,0,0,0
17426,5454,47719,0,0,0
17396,5433,47662,0,0,0
17379,5422,47622,0,0,0
17376,5419,47600,0,0,0
17385,5424,47594,0,0,0
17405,5435,47598,0,0,0
17432,5446,47606,0,0,0
17463,5460,47619,0,0,0
17498,5475,47634,0,0,0
17532,5489,47646,0,0,0
17561,5500,47653,0,0,0
17584,5507,47655,0,0,0
17601,5512,47651,0,0,0
17612,5515,47639,0,0,0
17616,5514,47621,0,0,0
17615,5510,47598,0,0,0
17612,5506,47575,0,0,0
17607,5502,47553,0,0,0
17602,5495,47528,0,0,0
17595,5489,47500,0,0,0
17588,5483,47471,0,0,0
17582,5478,47440,0,0,0
17576,5474,47406,0,0,0
17568,5470,47368,0,0,0
17557,5465,47328,0,0,0
17543,5458,47287,0,0,0
17523,5448,47242,0,0,0
17498,5435,47189,0,0,0
17468,5417,47129,0,0,0
17434,5396,47065,0,0,0
17397,5372,46996,0,0,0
17357,5347,46922,0,0,0
17319,5322,46846,0,0,0
17284,5298,46769,0,0,0
17252,5276,46696,0,0,0
17220,5259,46629,0,0,0
17186,5245,46567,0,0,0
17152,5233,46504,0,0,0
17117,5222,46439,0,0,0
17082,5211,46376,0,0,0
17052,5202,46325,0,0,0
17033,5196,46291,0,0,0
17029,5197,46285,0,0,0
17051,5212,46321,0,0,0
17106,5244,46414,0,0,0
17199,5295,46572,0,0,0
17336,5370,46805,0,0,0
17525,5473,47120,0,0,0
17763,5603,47515,0,0,0
18046,5758,47983,0,0,0
18364,5934,48510,0,0,0
18708,6125,49078,0,0,0
19067,6323,49672,0,0,0
19434,6526,50275,0,0,0
19799,6729,50875,0,0,0
20151,6927,51454,0,0,0
20482,7115,52000,0,0,0
20792,7292,52506,0,0,0
21082,7455,52970,0,0,0
21355,7606,53391,0,0,0
21607,7744,53766,0,0,0
21828,7865,54088,0,0,0
22015,7970,54358,0,0,0
22174,8059,54580,0,0,0
22310,8136,54758,0,0,0
22424,8200,54896,0,0,0
22512,8248,54995,0,0,0
22575,8282,55058,0,0,0
22613,8301,55087,0,0,0
22627,8309,55086,0,0,0
22621,8308,55058,0,0,0
22596,8293,55005,0,0,0
22549,8265,54928,0,0,0
22486,8227,54833,0,0,0
22413,8183,54730,0,0,0
22336,8138,54626,0,0,0
22256,8093,54520,0,0,0
22183,8050,54418,0,0,0
22124,8013,54327,0,0,0
22079,7980,54245,0,0,0
22041,7952,54166,0,0,0
22003,7925,54083,0,0,0
21959,7897,53992,0,0,0
21907,7864,53888,0,0,0
21841,7827,53767,0,0,0
21762,7787,53632,0,0,0
21674,7743,53490,0,0,0
21579,7696,53343,0,0,0
21479,7649,53195,0,0,0
21384,7604,53053,0,0,0
21298,7563,52925,0,0,0
21225,7525,52813,0,0,0
21165,7493,52722,0,0,0
21120,7468,52656,0,0,0
21093,7451,52620,0,0,0
21087,7445,52615,0,0,0
21103,7451,52637,0,0,0
21137,7469,52682,0,0,0
21185,7497,52745,0,0,0
21243,7532,52822,0,0,0
21308,7569,52907,0,0,0
21372,7606,52993,0,0,0
21427,7640,53073,0,0,0
21473,7669,53142,0,0,0
21512,7692,53201,0,0,0
21544,7711,53245,0,0,0
21563,7726,53271,0,0,0
21561,7732,53272,0,0,0
21535,7723,53247,0,0,0
21487,7702,53195,0,0,0
21414,7667,53116,0,0,0
21316,7618,53009,0,0,0
21194,7554,52879,0,0,0
21054,7479,52728,0,0,0
20901,7396,52563,0,0,0
20739,7308,52389,0,0,0
20572,7218,52209,0,0,0
20404,7128,52026,0,0,0
20236,7039,51841,0,0,0
20072,6953,51656,0,0,0
19914,6871,51473,0,0,0
19765,6795,51297,0,0,0
19624,6726,51130,0,0,0
19496,6663,50971,0,0,0
19382,6603,50820,0,0,0
19275,6546,50675,0,0,0
19171,6490,50533,0,0,0
19073,6436,50394,0,0,0
18980,6385,50260,0,0,0
18890,6339,50131,0,0,0
18803,6297,50006,0,0,0
18720,6256,49887,0,0,0
18643,6218,49775,0,0,0
18567,6180,49670,0,0,0
18491,6143,49565,0,0,0
18413,6104,49457,0,0,0
18336,6061,49348,0,0,0
18259,6016,49242,0,0,0
18179,5969,49134,0,0,0
18094,5923,49022,0,0,0
18004,5878,48907,0,0,0
17911,5834,48795,0,0,0
17821,5793,48689,0,0,0
17735,5755,48592,0,0,0
17653,5716,48503,0,0,0
17575,5680,48421,0,0,0
17507,5648,48342,0,0,0
17448,5620,48268,0,0,0
17395,5594,48199,0,0,0
17348,5570,48134,0,0,0
17304,5546,48069,0,0,0
17262,5523,48003,0,0,0
17217,5500,47935,0,0,0
17168,5475,47869,0,0,0
17116,5449,47800,0,0,0
17064,5422,47727,0,0,0
17008,5394,47651,0,0,0
16946,5366,47576,0,0,0
16884,5338,47502,0,0,0
16820,5310,47427,0,0,0
16754,5277,47348,0,0,0
16684,5242,47261,0,0,0
16610,5204,47166,0,0,0
16530,5163,47064,0,0,0
16444,5120,46958,0,0,0
16355,5075,46848,0,0,0
16259,5028,46734,0,0,0
16159,4981,46618,0,0,0
16058,4934,46501,0,0,0
15961,4888,46384,0,0,0
15864,4842,46264,0,0,0
15765,4797,46145,0,0,0
15666,4755,46028,0,0,0
15567,4713,45911,0,0,0
15466,4670,45797,0,0,0
15365,4628,45684,0,0,0
15267,4585,45571,0,0,0
15171,4544,45456,0,0,0
15076,4504,45341,0,0,0
14983,4466,45223,0,0,0
14891,4426,45101,0,0,0
14800,4383,44978,0,0,0
14707,4338,44854,0,0,0
14610,4292,44731,0,0,0
14515,4247,44611,0,0,0
14428,4206,44500,0,0,0
14355,4173,44410,0,0,0
14304,4152,44354,0,0,0
14284,4146,44341,0,0,0
14303,4160,44382,0,0,0
14367,4196,44486,0,0,0
14480,4260,44667,0,0,0
14645,4353,44933,0,0,0
14866,4475,45286,0,0,0
15139,4625,45721,0,0,0
15459,4801,46230,0,0,0
15821,4999,46802,0,0,0
16215,5213,47420,0,0,0
16631,5435,48066,0,0,0
17057,5663,48721,0,0,0
17480,5890,49371,0,0,0
17892,6111,49999,0,0,0
18285,6321,50596,0,0,0
18655,6519,51151,0,0,0
18998,6701,51660,0,0,0
19313,6867,52119,0,0,0
19599,7016,52525,0,0,0
19854,7150,52878,0,0,0
20072,7267,53179,0,0,0
20255,7369,53425,0,0,0
20404,7453,53620,0,0,0
20518,7518,53768,0,0,0
20601,7563,53869,0,0,0
20657,7590,53930,0,0,0
20691,7603,53953,0,0,0
20704,7605,53945,0,0,0
20699,7601,53911,0,0,0
20680,7592,53859,0,0,0
20652,7577,53793,0,0,0
20612,7556,53716,0,0,0
20560,7524,53626,0,0,0
20495,7483,53521,0,0,0
20420,7436,53399,0,0,0
20334,7384,53261,0,0,0
20237,7327,53108,0,0,0
20132,7266,52946,0,0,0
20024,7206,52779,0,0,0
19917,7148,52610,0,0,0
19814,7092,52439,0,0,0
19711,7035,52266,0,0,0
19610,6978,52091,0,0,0
19511,6919,51919,0,0,0
19410,6860,51751,0,0,0
19309,6803,51589,0,0,0
19214,6750,51436,0,0,0
19123,6698,51293,0,0,0
19031,6642,51155,0,0,0
18936,6586,51026,0,0,0
18844,6537,50911,0,0,0
18755,6496,50814,0,0,0
18670,6459,50733,0,0,0
18591,6425,50666,0,0,0
18517,6393,50608,0,0,0
18445,6361,50553,0,0,0
18370,6324,50498,0,0,0
18293,6285,50438,0,0,0
18210,6243,50373,0,0,0
18120,6198,50296,0,0,0
18019,6147,50205,0,0,0
17908,6091,50102,0,0,0
17789,6032,49989,0,0,0
17671,5976,49874,0,0,0
17562,5926,49765,0,0,0
17466,5884,49666,0,0,0
17388,5850,49583,0,0,0
17327,5824,49520,0,0,0
17281,5806,49471,0,0,0
17250,5794,49434,0,0,0
17231,5785,49407,0,0,0
17220,5780,49384,0,0,0
17215,5778,49362,0,0,0
17212,5775,49339,0,0,0
17207,5770,49309,0,0,0
17194,5759,49268,0,0,0
17169,5740,49213,0,0,0
17131,5714,49144,0,0,0
17077,5679,49054,0,0,0
17006,5635,48941,0,0,0
16916,5584,48807,0,0,0
16810,5529,48660,0,0,0
16695,5472,48507,0,0,0
16580,5415,48352,0,0,0
16469,5358,48199,0,0,0
16365,5306,48052,0,0,0
16270,5260,47916,0,0,0
16188,5218,47791,0,0,0
16117,5183,47682,0,0,0
16062,5157,47593,0,0,0
16022,5140,47526,0,0,0
15999,5130,47477,0,0,0
15993,5128,47445,0,0,0
16005,5134,47431,0,0,0
16032,5147,47433,0,0,0
16068,5164,47445,0,0,0
16107,5182,47461,0,0,0
16145,5199,47477,0,0,0
16181,5215,47490,0,0,0
16211,5229,47494,0,0,0
16237,5241,47492,0,0,0
16261,5251,47484,0,0,0
16282,5256,47471,0,0,0
16299,5257,47452,0,0,0
16312,5256,47431,0,0,0
16320,5253,47407,0,0,0
16324,5250,47381,0,0,0
16326,5246,47352,0,0,0
16326,5240,47322,0,0,0
16319,5232,47285,0,0,0
16307,5221,47240,0,0,0
16288,5208,47193,0,0,0
16263,5193,47148,0,0,0
16235,5177,47102,0,0,0
16202,5161,47053,0,0,0
16167,5144,47003,0,0,0
16134,5126,46953,0,0,0
16100,5108,46902,0,0,0
16062,5087,46849,0,0,0
16023,5066,46796,0,0,0
15986,5047,46744,0,0,0
15950,5033,46693,0,0,0
15914,5016,46638,0,0,0
15879,4999,46581,0,0,0
15849,4985,46526,0,0,0
15822,4973,46473,0,0,0
15792,4962,46418,0,0,0
15761,4950,46358,0,0,0
15731,4938,46295,0,0,0
15699,4924,46226,0,0,0
15659,4905,46148,0,0,0
15613,4877,46065,0,0,0
15563,4845,45979,0,0,0
15510,4811,45893,0,0,0
15455,4776,45811,0,0,0
15404,4747,45739,0,0,0
15365,4726,45690,0,0,0
15346,4717,45671,0,0,0
15352,4722,45694,0,0,0
15393,4747,45775,0,0,0
15477,4795,45923,0,0,0
15610,4869,46149,0,0,0
15797,4970,46457,0,0,0
16040,5098,46848,0,0,0
16334,5253,47317,0,0,0
16671,5434,47851,0,0,0
17038,5633,48432,0,0,0
17432,5848,49049,0,0,0
17846,6074,49686,0,0,0
18266,6303,50326,0,0,0
18675,6527,50951,0,0,0
19067,6742,51548,0,0,0
19443,6949,52111,0,0,0
19798,7146,52632,0,0,0
20123,7327,53101,0,0,0
20410,7486,53511,0,0,0
20657,7620,53857,0,0,0
20864,7730,54142,0,0,0
21026,7818,54364,0,0,0
21144,7883,54525,0,0,0
21222,7926,54630,0,0,0
21268,7950,54683,0,0,0
21286,7959,54694,0,0,0
21281,7955,54669,0,0,0
21254,7939,54618,0,0,0
21208,7912,54543,0,0,0
21152,7877,54450,0,0,0
21091,7840,54351,0,0,0
21028,7805,54255,0,0,0
20965,7771,54162,0,0,0
20904,7737,54074,0,0,0
20848,7704,53990,0,0,0
20799,7675,53908,0,0,0
20751,7649,53826,0,0,0
20699,7622,53735,0,0,0
20641,7592,53634,0,0,0
20580,7557,53521,0,0,0
20514,7517,53395,0,0,0
20441,7470,53255,0,0,0
20358,7415,53103,0,0,0
20268,7353,52939,0,0,0
20169,7288,52770,0,0,0
20069,7227,52605,0,0,0
19974,7171,52452,0,0,0
19886,7120,52312,0,0,0
19808,7074,52185,0,0,0
19743,7035,52072,0,0,0
19692,7006,51980,0,0,0
19658,6987,51911,0,0,0
19641,6980,51870,0,0,0
19644,6984,51860,0,0,0
19664,6996,51880,0,0,0
19700,7017,51924,0,0,0
19750,7048,51985,0,0,0
19812,7086,52061,0,0,0
19881,7126,52147,0,0,0
19948,7164,52235,0,0,0
20011,7199,52318,0,0,0
20066,7227,52396,0,0,0
20112,7250,52462,0,0,0
20145,7264,52513,0,0,0
20165,7269,52544,0,0,0
20170,7265,52553,0,0,0
20160,7254,52541,0,0,0
20136,7236,52511,0,0,0
20100,7215,52462,0,0,0
20051,7192,52397,0,0,0
19992,7165,52316,0,0,0
19926,7133,52224,0,0,0
19861,7101,52127,0,0,0
19804,7070,52035,0,0,0
19760,7044,51953,0,0,0
19730,7025,51882,0,0,0
19711,7011,51822,0,0,0
19701,7003,51773,0,0,0
19697,7000,51732,0,0,0
19697,6999,51696,0,0,0
19700,6998,51662,0,0,0
19701,6996,51629,0,0,0
19700,6991,51590,0,0,0
19692,6981,51541,0,0,0
19674,6967,51482,0,0,0
19646,6948,51415,0,0,0
19607,6924,51343,0,0,0
19561,6896,51268,0,0,0
19514,6867,51192,0,0,0
19466,6839,51116,0,0,0
19418,6812,51044,0,0,0
19375,6788,50976,0,0,0
19341,6768,50915,0,0,0
19314,6751,50859,0,0,0
19289,6734,50806,0,0,0
19267,6716,50752,0,0,0
19252,6700,50698,0,0,0
19247,6691,50648,0,0,0
19249,6685,50604,0,0,0
19249,6680,50563,0,0,0
19249,6675,50524,0,0,0
19252,6672,50492,0,0,0
19258,6669,50462,0,0,0
19266,6668,50440,0,0,0
19280,6673,50427,0,0,0
19299,6683,50424,0,0,0
19323,6698,50433,0,0,0
19351,6714,50448,0,0,0
19378,6730,50462,0,0,0
19401,6744,50469,0,0,0
19417,6755,50468,0,0,0
19425,6761,50459,0,0,0
19420,6759,50438,0,0,0
19401,6747,50400,0,0,0
19367,6723,50344,0,0,0
19320,6691,50273,0,0,0
19256,6652,50192,0,0,0
19180,6609,50101,0,0,0
19099,6566,50004,0,0,0
19021,6528,49908,0,0,0
18949,6495,49820,0,0,0
18887,6467,49741,0,0,0
18835,6442,49669,0,0,0
18792,6418,49602,0,0,0
18750,6396,49538,0,0,0
18707,6373,49473,0,0,0
18662,6349,49409,0,0,0
18620,6323,49343,0,0,0
18576,6297,49275,0,0,0
18528,6270,49207,0,0,0
18474,6243,49135,0,0,0
18418,6214,49056,0,0,0
18362,6183,48973,0,0,0
18307,6153,48891,0,0,0
18256,6125,48809,0,0,0
18208,6100,48729,0,0,0
18169,6080,48657,0,0,0
18140,6068,48603,0,0,0
18127,6065,48575,0,0,0
18137,6077,48587,0,0,0
18179,6108,48655,0,0,0
18263,6161,48796,0,0,0
18399,6237,49019,0,0,0
18593,6340,49332,0,0,0
18848,6475,49741,0,0,0
19165,6645,50246,0,0,0
19543,6851,50839,0,0,0
19971,7090,51504,0,0,0
20432,7354,52222,0,0,0
20916,7634,52971,0,0,0
21409,7921,53732,0,0,0
21897,8207,54484,0,0,0
22364,8483,55206,0,0,0
22799,8742,55879,0,0,0
23196,8981,56494,0,0,0
23554,9197,57046,0,0,0
23874,9386,57534,0,0,0
24153,9549,57954,0,0,0
24392,9687,58311,0,0,0
24595,9805,58607,0,0,0
24763,9904,58847,0,0,0
24897,9984,59030,0,0,0
25003,10046,59166,0,0,0
25086,10093,59262,0,0,0
25151,10127,59328,0,0,0
25202,10152,59372,0,0,0
25243,10172,59401,0,0,0
25278,10189,59419,0,0,0
25310,10204,59431,0,0,0
25341,10220,59441,0,0,0
25371,10239,59457,0,0,0
25403,10260,59478,0,0,0
25436,10283,59502,0,0,0
25467,10307,59529,0,0,0
25494,10328,59555,0,0,0
25509,10343,59572,0,0,0
25506,10346,59569,0,0,0
25483,10336,59540,0,0,0
25434,10310,59478,0,0,0
25355,10266,59383,0,0,0
25251,10205,59251,0,0,0
25128,10130,59089,0,0,0
24993,10049,58908,0,0,0
24852,9965,58717,0,0,0
24711,9881,58525,0,0,0
24581,9799,58340,0,0,0
24464,9725,58171,0,0,0
24359,9662,58022,0,0,0
24267,9609,57897,0,0,0
24190,9565,57797,0,0,0
24133,9535,57723,0,0,0
24099,9519,57679,0,0,0
24086,9517,57662,0,0,0
24086,9522,57668,0,0,0
24094,9531,57687,0,0,0
24102,9537,57709,0,0,0
24107,9541,57730,0,0,0
24110,9543,57750,0,0,0
24112,9545,57767,0,0,0
24111,9546,57780,0,0,0
24105,9547,57789,0,0,0
24098,9548,57797,0,0,0
24090,9549,57804,0,0,0
24080,9549,57806,0,0,0
24066,9545,57802,0,0,0
24049,9536,57793,0,0,0
24029,9524,57777,0,0,0
24002,9508,57749,0,0,0
23961,9487,57707,0,0,0
23903,9459,57649,0,0,0
23823,9421,57567,0,0,0
23720,9370,57455,0,0,0
23598,9309,57318,0,0,0
23466,9242,57166,0,0,0
23328,9171,57007,0,0,0
23185,9097,56841,0,0,0
23041,9021,56668,0,0,0
22902,8946,56494,0,0,0
22775,8875,56328,0,0,0
22661,8812,56172,0,0,0
22564,8756,56031,0,0,0
22485,8710,55909,0,0,0
22423,8672,55805,0,0,0
22372,8641,55716,0,0,0
22331,8616,55638,0,0,0
22300,8595,55570,0,0,0
22275,8579,55509,0,0,0
22250,8565,55453,0,0,0
22221,8552,55396,0,0,0
22184,8533,55333,0,0,0
22135,8506,55253,0,0,0
22069,8468,55154,0,0,0
21988,8422,55041,0,0,0
21895,8368,54915,0,0,0
21791,8308,54780,0,0,0
21679,8245,54641,0,0,0
21562,8181,54502,0,0,0
21444,8118,54363,0,0,0
21331,8057,54226,0,0,0
21226,8001,54095,0,0,0
21134,7951,53979,0,0,0
21057,7909,53879,0,0,0
20994,7875,53793,0,0,0
20941,7848,53714,0,0,0
20899,7826,53645,0,0,0
20868,7810,53589,0,0,0
20846,7798,53546,0,0,0
20828,7790,53513,0,0,0
20811,7784,53485,0,0,0
20797,7777,53457,0,0,0
20782,7768,53425,0,0,0
20763,7755,53387,0,0,0
20738,7737,53343,0,0,0
20708,7717,53295,0,0,0
20676,7698,53242,0,0,0
20643,7679,53184,0,0,0
20608,7658,53123,0,0,0
20571,7637,53062,0,0,0
20538,7617,53001,0,0,0
20513,7601,52946,0,0,0
20491,7589,52896,0,0,0
20469,7579,52851,0,0,0
20448,7568,52809,0,0,0
20427,7555,52769,0,0,0
20401,7541,52730,0,0,0
20368,7526,52687,0,0,0
20329,7507,52631,0,0,0
20283,7485,52559,0,0,0
20230,7460,52474,0,0,0
20169,7431,52378,0,0,0
20098,7394,52273,0,0,0
20019,7350,52160,0,0,0
19934,7304,52043,0,0,0
19848,7258,51925,0,0,0
19762,7211,51806,0,0,0
19675,7164,51686,0,0,0
19588,7118,51567,0,0,0
19505,7074,51454,0,0,0
19435,7036,51359,0,0,0
19389,7011,51296,0,0,0
19375,7003,51276,0,0,0
19403,7019,51314,0,0,0
19484,7065,51429,0,0,0
19628,7147,51634,0,0,0
19836,7268,51940,0,0,0
20108,7428,52346,0,0,0
20440,7626,52848,0,0,0
20827,7855,53435,0,0,0
21263,8111,54095,0,0,0
21736,8387,54808,0,0,0
22231,8676,55553,0,0,0
22734,8973,56309,0,0,0
23230,9269,57062,0,0,0
23709,9557,57790,0,0,0
24163,9830,58477,0,0,0
24587,10086,59111,0,0,0
24974,10322,59686,0,0,0
25322,10534,60199,0,0,0
25627,10719,60647,0,0,0
25892,10877,61030,0,0,0
26118,11011,61354,0,0,0
26305,11120,61618,0,0,0
26452,11206,61827,0,0,0
26562,11270,61985,0,0,0
26639,11316,62096,0,0,0
26686,11346,62169,0,0,0
26713,11362,62213,0,0,0
26726,11369,62237,0,0,0
26731,11372,62242,0,0,0
26729,11371,62233,0,0,0
26719,11367,62210,0,0,0
26703,11360,62178,0,0,0
26680,11350,62137,0,0,0
26653,11336,62091,0,0,0
26623,11320,62039,0,0,0
26586,11299,61983,0,0,0
26538,11269,61916,0,0,0
26475,11229,61835,0,0,0
26401,11182,61740,0,0,0
26313,11129,61628,0,0,0
26210,11068,61493,0,0,0
26091,10997,61334,0,0,0
25961,10917,61157,0,0,0
25819,10829,60965,0,0,0
25663,10731,60757,0,0,0
25494,10625,60531,0,0,0
25317,10516,60298,0,0,0
25140,10411,60072,0,0,0
24970,10314,59860,0,0,0
24807,10227,59661,0,0,0
24654,10147,59477,0,0,0
24513,10076,59312,0,0,0
24390,10015,59169,0,0,0
24287,9962,59052,0,0,0
24203,9916,58960,0,0,0
24136,9879,58894,0,0,0
24083,9851,58849,0,0,0
24044,9832,58820,0,0,0
24015,9818,58805,0,0,0
23995,9810,58800,0,0,0
23983,9803,58799,0,0,0
23974,9797,58795,0,0,0
23961,9792,58788,0,0,0
23942,9787,58779,0,0,0
23913,9778,58761,0,0,0
23876,9767,58731,0,0,0
23833,9753,58692,0,0,0
23782,9734,58645,0,0,0
23716,9704,58581,0,0,0
23633,9662,58499,0,0,0
23535,9609,58400,0,0,0
23425,9549,58288,0,0,0
23308,9486,58159,0,0,0
23188,9422,58017,0,0,0
23071,9359,57870,0,0,0
22963,9297,57723,0,0,0
22860,9235,57574,0,0,0
22757,9172,57425,0,0,0
22653,9110,57275,0,0,0
22550,9049,57123,0,0,0
22446,8987,56972,0,0,0
22342,8926,56817,0,0,0
22239,8865,56659,0,0,0
22135,8803,56504,0,0,0
22029,8742,56354,0,0,0
21922,8681,56205,0,0,0
21813,8619,56053,0,0,0
21704,8558,55899,0,0,0
21598,8500,55747,0,0,0
21496,8446,55601,0,0,0
21398,8394,55460,0,0,0
21302,8344,55325,0,0,0
21213,8297,55200,0,0,0
21129,8251,55086,0,0,0
21046,8206,54974,0,0,0
20962,8160,54859,0,0,0
20882,8115,54742,0,0,0
20805,8071,54624,0,0,0
20731,8030,54511,0,0,0
20658,7990,54404,0,0,0
20587,7951,54303,0,0,0
20520,7914,54207,0,0,0
20459,7882,54115,0,0,0
20403,7852,54030,0,0,0
20350,7823,53950,0,0,0
20300,7795,53873,0,0,0
20248,7768,53796,0,0,0
20189,7736,53716,0,0,0
20119,7699,53628,0,0,0
20038,7658,53528,0,0,0
19944,7611,53413,0,0,0
19840,7556,53288,0,0,0
19732,7499,53159,0,0,0
19629,7443,53032,0,0,0
19533,7391,52912,0,0,0
19442,7343,52797,0,0,0
19358,7301,52688,0,0,0
19284,7265,52590,0,0,0
19225,7237,52508,0,0,0
19182,7217,52442,0,0,0
19155,7201,52389,0,0,0
19136,7186,52346,0,0,0
19116,7168,52305,0,0,0
19090,7148,52261,0,0,0
19058,7127,52211,0,0,0
19022,7106,52154,0,0,0
18983,7084,52090,0,0,0
18940,7060,52016,0,0,0
18895,7033,51935,0,0,0
18843,7004,51846,0,0,0
18781,6971,51747,0,0,0
18709,6933,51640,0,0,0
18631,6891,51527,0,0,0
18553,6849,51416,0,0,0
18478,6809,51309,0,0,0
18411,6773,51206,0,0,0
18351,6740,51111,0,0,0
18300,6711,51022,0,0,0
18261,6689,50942,0,0,0
18233,6673,50872,0,0,0
18215,6662,50813,0,0,0
18204,6654,50764,0,0,0
18198,6650,50720,0,0,0
18197,6649,50685,0,0,0
18204,6651,50663,0,0,0
18225,6660,50661,0,0,0
18271,6683,50692,0,0,0
18348,6723,50770,0,0,0
18457,6785,50907,0,0,0
18606,6869,51116,0,0,0
18803,6981,51406,0,0,0
19054,7124,51783,0,0,0
19355,7297,52248,0,0,0
19703,7497,52794,0,0,0
20092,7722,53408,0,0,0
20512,7967,54074,0,0,0
20951,8226,54774,0,0,0
21396,8491,55483,0,0,0
21835,8753,56180,0,0,0
22260,9007,56849,0,0,0
22668,9250,57485,0,0,0
23055,9481,58083,0,0,0
23417,9694,58632,0,0,0
23750,9890,59131,0,0,0
24052,10069,59576,0,0,0
24320,10228,59965,0,0,0
24553,10367,60298,0,0,0
24753,10487,60577,0,0,0
24920,10588,60804,0,0,0
25056,10670,60982,0,0,0
25157,10731,61113,0,0,0
25220,10771,61196,0,0,0
25246,10790,61232,0,0,0
25239,10787,61228,0,0,0
25204,10765,61187,0,0,0
25147,10730,61118,0,0,0
25075,10688,61030,0,0,0
24989,10639,60930,0,0,0
24895,10585,60822,0,0,0
24798,10530,60710,0,0,0
24700,10476,60595,0,0,0
24604,10424,60477,0,0,0
24511,10371,60354,0,0,0
24416,10314,60227,0,0,0
24318,10253,60093,0,0,0
24210,10185,59947,0,0,0
24084,10110,59782,0,0,0
23938,10026,59590,0,0,0
23773,9932,59373,0,0,0
23593,9829,59138,0,0,0
23403,9720,58890,0,0,0
23208,9609,58632,0,0,0
23014,9499,58371,0,0,0
22829,9394,58122,0,0,0
22662,9300,57897,0,0,0
22519,9220,57702,0,0,0
22400,9153,57538,0,0,0
22304,9098,57404,0,0,0
22229,9054,57302,0,0,0
22173,9022,57229,0,0,0
22132,8999,57182,0,0,0
22101,8984,57153,0,0,0
22076,8977,57137,0,0,0
22058,8977,57133,0,0,0
22043,8980,57137,0,0,0
22028,8983,57144,0,0,0
22008,8982,57150,0,0,0
21982,8977,57151,0,0,0
21950,8966,57146,0,0,0
21909,8948,57132,0,0,0
21857,8923,57105,0,0,0
21798,8895,57064,0,0,0
21735,8865,57008,0,0,0
21665,8832,56940,0,0,0
21591,8794,56860,0,0,0
21513,8755,56770,0,0,0
21432,8713,56675,0,0,0
21347,8670,56577,0,0,0
21262,8627,56477,0,0,0
21181,8584,56381,0,0,0
21104,8541,56284,0,0,0
21028,8500,56184,0,0,0
20955,8459,56085,0,0,0
20883,8419,55985,0,0,0
20807,8378,55882,0,0,0
20727,8335,55773,0,0,0
20646,8291,55656,0,0,0
20561,8246,55530,0,0,0
20469,8196,55394,0,0,0
20371,8141,55251,0,0,0
20267,8082,55105,0,0,0
20156,8022,54956,0,0,0
20039,7958,54805,0,0,0
19921,7894,54654,0,0,0
19804,7830,54505,0,0,0
19692,7768,54361,0,0,0
19584,7709,54219,0,0,0
19482,7653,54080,0,0,0
19384,7598,53945,0,0,0
19294,7546,53817,0,0,0
19216,7500,53697,0,0,0
19151,7463,53590,0,0,0
19094,7432,53494,0,0,0
19040,7404,53406,0,0,0
18984,7376,53322,0,0,0
18926,7346,53237,0,0,0
18863,7314,53145,0,0,0
18794,7279,53043,0,0,0
18715,7237,52930,0,0,0
18624,7189,52806,0,0,0
18527,7136,52673,0,0,0
18429,7081,52538,0,0,0
18333,7028,52403,0,0,0
18241,6976,52271,0,0,0
18153,6925,52144,0,0,0
18071,6875,52023,0,0,0
17996,6832,51912,0,0,0
17928,6794,51814,0,0,0
17864,6762,51727,0,0,0
17804,6732,51646,0,0,0
17746,6704,51569,0,0,0
17692,6680,51494,0,0,0
17642,6659,51420,0,0,0
17590,6637,51345,0,0,0
17537,6611,51267,0,0,0
17483,6583,51189,0,0,0
17429,6555,51111,0,0,0
17371,6525,51030,0,0,0
17309,6493,50944,0,0,0
17248,6460,50856,0,0,0
17185,6423,50766,0,0,0
17116,6384,50669,0,0,0
17041,6341,50564,0,0,0
16961,6297,50455,0,0,0
16878,6252,50342,0,0,0
16789,6204,50225,0,0,0
16694,6154,50106,0,0,0
16597,6102,49986,0,0,0
16500,6050,49868,0,0,0
16405,6001,49754,0,0,0
16316,5955,49647,0,0,0
16235,5915,49549,0,0,0
16168,5879,49459,0,0,0
16116,5849,49377,0,0,0
16077,5827,49302,0,0,0
16045,5811,49232,0,0,0
16018,5798,49165,0,0,0
15995,5788,49101,0,0,0
15972,5776,49040,0,0,0
15945,5760,48978,0,0,0
15911,5740,48910,0,0,0
15871,5715,48836,0,0,0
15829,5690,48762,0,0,0
15786,5667,48689,0,0,0
15747,5647,48622,0,0,0
15718,5632,48571,0,0,0
15709,5626,48551,0,0,0
15725,5636,48579,0,0,0
15775,5665,48665,0,0,0
15868,5718,48821,0,0,0
16013,5801,49063,0,0,0
16219,5918,49401,0,0,0
16483,6069,49834,0,0,0
16806,6252,50352,0,0,0
17185,6465,50947,0,0,0
17607,6702,51603,0,0,0
18053,6952,52295,0,0,0
18505,7206,52999,0,0,0
18950,7458,53697,0,0,0
19379,7702,54371,0,0,0
19784,7935,55005,0,0,0
20159,8152,55584,0,0,0
20503,8351,56106,0,0,0
20811,8530,56567,0,0,0
21080,8687,56965,0,0,0
21308,8820,57300,0,0,0
21494,8928,57571,0,0,0
21639,9013,57781,0,0,0
21747,9078,57932,0,0,0
21820,9122,58030,0,0,0
21860,9146,58081,0,0,0
21869,9150,58087,0,0,0
21851,9134,58051,0,0,0
21809,9101,57980,0,0,0
21747,9054,57887,0,0,0
21668,9000,57777,0,0,0
21574,8942,57654,0,0,0
21474,8884,57522,0,0,0
21373,8826,57390,0,0,0
21276,8771,57260,0,0,0
21183,8720,57135,0,0,0
21095,8673,57013,0,0,0
21011,8629,56894,0,0,0
20928,8585,56777,0,0,0
20841,8539,56658,0,0,0
20748,8488,56527,0,0,0
20650,8432,56380,0,0,0
20547,8373,56221,0,0,0
20436,8311,56049,0,0,0
20313,8244,55865,0,0,0
20175,8168,55669,0,0,0
20027,8085,55464,0,0,0
19873,7997,55254,0,0,0
19717,7910,55046,0,0,0
19562,7824,54842,0,0,0
19413,7742,54646,0,0,0
19273,7665,54466,0,0,0
19145,7596,54308,0,0,0
19029,7534,54170,0,0,0
18926,7479,54054,0,0,0
18839,7435,53964,0,0,0
18775,7406,53902,0,0,0
18738,7392,53871,0,0,0
18729,7394,53868,0,0,0
18746,7409,53890,0,0,0
18783,7434,53936,0,0,0
18834,7465,53998,0,0,0
18893,7498,54070,0,0,0
18953,7531,54143,0,0,0
19012,7560,54213,0,0,0
19063,7585,54274,0,0,0
19102,7604,54321,0,0,0
19125,7613,54349,0,0,0
19129,7612,54356,0,0,0
19113,7601,54337,0,0,0
19075,7580,54290,0,0,0
19016,7548,54216,0,0,0
18939,7506,54116,0,0,0
18845,7454,53994,0,0,0
18739,7396,53855,0,0,0
18622,7335,53703,0,0,0
18500,7274,53547,0,0,0
18380,7213,53389,0,0,0
18265,7153,53231,0,0,0
18156,7095,53075,0,0,0
18054,7042,52921,0,0,0
17957,6991,52772,0,0,0
17863,6942,52628,0,0,0
17771,6893,52492,0,0,0
17682,6845,52364,0,0,0
17592,6796,52237,0,0,0
17501,6744,52108,0,0,0
17408,6690,51977,0,0,0
17313,6637,51847,0,0,0
17218,6585,51717,0,0,0
17125,6535,51587,0,0,0
17033,6487,51457,0,0,0
16939,6439,51324,0,0,0
16840,6389,51187,0,0,0
16735,6334,51044,0,0,0
16624,6276,50895,0,0,0
16507,6217,50744,0,0,0
16387,6159,50596,0,0,0
16269,6102,50454,0,0,0
16157,6048,50323,0,0,0
16056,5998,50203,0,0,0
15967,5955,50097,0,0,0
15897,5921,50008,0,0,0
15849,5896,49939,0,0,0
15820,5880,49888,0,0,0
15805,5871,49849,0,0,0
15804,5870,49823,0,0,0
15810,5874,49804,0,0,0
15821,5881,49789,0,0,0
15832,5890,49774,0,0,0
15842,5899,49762,0,0,0
15849,5906,49751,0,0,0
15848,5907,49735,0,0,0
15837,5903,49711,0,0,0
15817,5893,49680,0,0,0
15791,5880,49640,0,0,0
15760,5865,49592,0,0,0
15723,5847,49535,0,0,0
15685,5827,49470,0,0,0
15649,5806,49405,0,0,0
15614,5785,49343,0,0,0
15582,5766,49286,0,0,0
15554,5749,49236,0,0,0
15535,5736,49193,0,0,0
15520,5726,49156,0,0,0
15507,5716,49123,0,0,0
15493,5707,49091,0,0,0
15474,5697,49054,0,0,0
15447,5685,49011,0,0,0
15410,5669,48960,0,0,0
15364,5648,48900,0,0,0
15308,5622,48826,0,0,0
15243,5592,48741,0,0,0
15176,5558,48649,0,0,0
15112,5523,48558,0,0,0
15051,5492,48471,0,0,0
14994,5464,48384,0,0,0
14942,5435,48298,0,0,0
14893,5408,48213,0,0,0
14848,5384,48129,0,0,0
14809,5363,48047,0,0,0
14776,5345,47967,0,0,0
14746,5328,47891,0,0,0
14714,5309,47817,0,0,0
14678,5290,47744,0,0,0
14638,5270,47677,0,0,0
14600,5253,47623,0,0,0
14569,5241,47589,0,0,0
14555,5240,47587,0,0,0
14564,5252,47630,0,0,0
14604,5280,47730,0,0,0
14687,5332,47903,0,0,0
14819,5411,48158,0,0,0
15005,5518,48499,0,0,0
15247,5655,48920,0,0,0
15545,5819,49415,0,0,0
15888,6008,49974,0,0,0
16263,6216,50585,0,0,0
16657,6437,51227,0,0,0
17064,6665,51879,0,0,0
17473,6893,52519,0,0,0
17867,7113,53132,0,0,0
18233,7317,53702,0,0,0
18569,7502,54221,0,0,0
18874,7666,54681,0,0,0
19145,7813,55080,0,0,0
19379,7941,55419,0,0,0
19573,8047,55694,0,0,0
19722,8129,55908,0,0,0
19828,8188,56065,0,0,0
19894,8225,56169,0,0,0
19921,8240,56220,0,0,0
19912,8237,56221,0,0,0
19876,8219,56182,0,0,0
19819,8190,56111,0,0,0
19747,8152,56016,0,0,0
19664,8106,55904,0,0,0
19575,8057,55780,0,0,0
19484,8005,55647,0,0,0
19389,7953,55508,0,0,0
19292,7903,55365,0,0,0
19195,7851,55221,0,0,0
19096,7795,55072,0,0,0
18997,7734,54919,0,0,0
18896,7672,54760,0,0,0
18793,7610,54591,0,0,0
18683,7548,54414,0,0,0
18568,7483,54231,0,0,0
18450,7416,54044,0,0,0
18327,7347,53851,0,0,0
18196,7274,53651,0,0,0
18057,7197,53443,0,0,0
17914,7120,53233,0,0,0
17771,7044,53031,0,0,0
17633,6973,52840,0,0,0
17510,6906,52669,0,0,0
17411,6851,52526,0,0,0
17341,6811,52422,0,0,0
17300,6789,52358,0,0,0
17289,6782,52328,0,0,0
17308,6793,52335,0,0,0
17352,6820,52374,0,0,0
17413,6857,52439,0,0,0
17483,6898,52522,0,0,0
17556,6939,52614,0,0,0
17628,6978,52708,0,0,0
17695,7013,52795,0,0,0
17751,7043,52868,0,0,0
17792,7065,52924,0,0,0
17815,7076,52959,0,0,0
17818,7073,52972,0,0,0
17802,7060,52964,0,0,0
17764,7037,52936,0,0,0
17708,7006,52889,0,0,0
17643,6971,52829,0,0,0
17575,6936,52761,0,0,0
17505,6899,52686,0,0,0
17431,6861,52601,0,0,0
17357,6822,52508,0,0,0
17290,6785,52410,0,0,0
17229,6748,52311,0,0,0
17170,6714,52213,0,0,0
17115,6681,52114,0,0,0
17063,6649,52016,0,0,0
17014,6617,51921,0,0,0
16964,6584,51828,0,0,0
16909,6550,51732,0,0,0
16851,6514,51631,0,0,0
16789,6479,51529,0,0,0
16722,6443,51426,0,0,0
16650,6404,51319,0,0,0
16574,6364,51207,0,0,0
16493,6322,51089,0,0,0
16405,6280,50965,0,0,0
16311,6233,50836,0,0,0
16213,6184,50703,0,0,0
16116,6135,50570,0,0,0
16023,6089,50438,0,0,0
15933,6044,50309,0,0,0
15850,6000,50183,0,0,0
15771,5958,50064,0,0,0
15695,5918,49955,0,0,0
15627,5882,49859,0,0,0
15570,5850,49776,0,0,0
15523,5824,49699,0,0,0
15483,5802,49630,0,0,0
15451,5785,49569,0,0,0
15425,5771,49517,0,0,0
15403,5757,49468,0,0,0
15385,5743,49420,0,0,0
15366,5730,49373,0,0,0
15340,5714,49324,0,0,0
15305,5695,49271,0,0,0
15262,5672,49211,0,0,0
15214,5646,49144,0,0,0
15162,5619,49071,0,0,0
15102,5589,48990,0,0,0
15034,5557,48902,0,0,0
14964,5525,48810,0,0,0
14895,5493,48716,0,0,0
14824,5461,48621,0,0,0
14752,5426,48525,0,0,0
14681,5388,48428,0,0,0
14608,5351,48332,0,0,0
14537,5312,48238,0,0,0
14469,5273,48146,0,0,0
14407,5236,48056,0,0,0
14348,5202,47971,0,0,0
14287,5170,47888,0,0,0
14225,5141,47807,0,0,0
14164,5112,47728,0,0,0
14107,5085,47652,0,0,0
14050,5058,47576,0,0,0
13992,5030,47498,0,0,0
13928,5001,47411,0,0,0
13856,4969,47313,0,0,0
13773,4933,47202,0,0,0
13674,4888,47073,0,0,0
13560,4832,46926,0,0,0
13435,4770,46768,0,0,0
13305,4705,46602,0,0,0
13173,4641,46434,0,0,0
13043,4578,46269,0,0,0
12917,4517,46108,0,0,0
12800,4462,45957,0,0,0
12700,4414,45825,0,0,0
12621,4377,45719,0,0,0
12569,4354,45645,0,0,0
12556,4348,45620,0,0,0
12592,4365,45658,0,0,0
12680,4410,45773,0,0,0
12823,4486,45974,0,0,0
13025,4592,46267,0,0,0
13288,4728,46651,0,0,0
13610,4893,47124,0,0,0
13985,5087,47678,0,0,0
14404,5304,48300,0,0,0
14854,5539,48973,0,0,0
15322,5787,49677,0,0,0
15794,6042,50392,0,0,0
16261,6295,51099,0,0,0
16713,6540,51783,0,0,0
17139,6774,52428,0,0,0
17535,6989,53018,0,0,0
17890,7183,53541,0,0,0
18199,7351,53992,0,0,0
18460,7492,54370,0,0,0
18675,7610,54676,0,0,0
18845,7705,54919,0,0,0
18978,7777,55105,0,0,0
19073,7828,55236,0,0,0
19134,7860,55317,0,0,0
19165,7877,55354,0,0,0
19175,7880,55354,0,0,0
19167,7872,55327,0,0,0
19145,7857,55279,0,0,0
19116,7836,55219,0,0,0
19084,7815,55154,0,0,0
19048,7794,55086,0,0,0
19006,7770,55010,0,0,0
18959,7744,54927,0,0,0
18909,7717,54841,0,0,0
18858,7687,54752,0,0,0
18803,7654,54657,0,0,0
18744,7619,54554,0,0,0
18682,7585,54443,0,0,0
18617,7549,54322,0,0,0
18544,7506,54189,0,0,0
18463,7456,54044,0,0,0
18377,7404,53889,0,0,0
18286,7349,53729,0,0,0
18192,7293,53569,0,0,0
18098,7237,53415,0,0,0
18007,7185,53268,0,0,0
17917,7135,53129,0,0,0
17832,7088,53001,0,0,0
17751,7045,52887,0,0,0
17678,7005,52785,0,0,0
17614,6969,52697,0,0,0
17558,6939,52622,0,0,0
17513,6914,52563,0,0,0
17476,6894,52521,0,0,0
17449,6879,52496,0,0,0
17436,6873,52489,0,0,0
17441,6879,52505,0,0,0
17466,6898,52546,0,0,0
17510,6925,52604,0,0,0
17569,6958,52674,0,0,0
17638,6992,52751,0,0,0
17709,7025,52831,0,0,0
17773,7056,52907,0,0,0
17831,7085,52976,0,0,0
17883,7114,53037,0,0,0
17928,7139,53085,0,0,0
17958,7158,53117,0,0,0
17972,7166,53131,0,0,0
17967,7162,53124,0,0,0
17939,7146,53093,0,0,0
17891,7117,53033,0,0,0
17826,7076,52947,0,0,0
17746,7027,52839,0,0,0
17652,6974,52715,0,0,0
17544,6916,52577,0,0,0
17431,6855,52427,0,0,0
17314,6792,52269,0,0,0
17192,6729,52106,0,0,0
17066,6665,51941,0,0,0
16942,6601,51776,0,0,0
16825,6539,51617,0,0,0
16717,6483,51460,0,0,0
16614,6430,51306,0,0,0
16513,6377,51155,0,0,0
16413,6324,51009,0,0,0
16311,6273,50866,0,0,0
16210,6223,50726,0,0,0
16117,6176,50599,0,0,0
16034,6134,50488,0,0,0
15958,6096,50390,0,0,0
15886,6061,50295,0,0,0
15818,6028,50202,0,0,0
15752,5996,50112,0,0,0
15688,5965,50024,0,0,0
15623,5933,49934,0,0,0
15554,5897,49838,0,0,0
15480,5855,49734,0,0,0
15401,5810,49621,0,0,0
15318,5763,49501,0,0,0
15229,5715,49375,0,0,0
15134,5662,49241,0,0,0
15030,5607,49101,0,0,0
14922,5551,48958,0,0,0
14812,5496,48814,0,0,0
14707,5445,48674,0,0,0
14610,5397,48546,0,0,0
14520,5353,48431,0,0,0
14439,5313,48327,0,0,0
14366,5277,48233,0,0,0
14298,5244,48144,0,0,0
14232,5214,48056,0,0,0
14165,5183,47969,0,0,0
14103,5153,47887,0,0,0
14049,5127,47812,0,0,0
14004,5106,47746,0,0,0
13967,5089,47690,0,0,0
13937,5075,47646,0,0,0
13914,5065,47611,0,0,0
13899,5058,47582,0,0,0
13892,5056,47559,0,0,0
13886,5054,47538,0,0,0
13874,5050,47508,0,0,0
13855,5041,47470,0,0,0
13830,5026,47424,0,0,0
13799,5010,47371,0,0,0
13764,4991,47312,0,0,0
13727,4970,47251,0,0,0
13691,4947,47185,0,0,0
13653,4924,47114,0,0,0
13609,4899,47035,0,0,0
13561,4872,46948,0,0,0
13511,4844,46856,0,0,0
13460,4817,46761,0,0,0
13407,4789,46661,0,0,0
13350,4761,46556,0,0,0
13289,4732,46448,0,0,0
13225,4704,46344,0,0,0
13164,4678,46253,0,0,0
13110,4655,46183,0,0,0
13070,4639,46138,0,0,0
13048,4631,46127,0,0,0
13051,4638,46160,0,0,0
13095,4665,46251,0,0,0
13192,4717,46411,0,0,0
13347,4798,46651,0,0,0
13565,4914,46980,0,0,0
13850,5065,47402,0,0,0
14200,5249,47913,0,0,0
14603,5461,48500,0,0,0
15052,5694,49147,0,0,0
15531,5944,49840,0,0,0
16026,6205,50558,0,0,0
16521,6468,51280,0,0,0
17008,6726,51988,0,0,0
17474,6974,52671,0,0,0
17911,7210,53313,0,0,0
18310,7428,53900,0,0,0
18668,7627,54422,0,0,0
18986,7804,54875,0,0,0
19261,7957,55262,0,0,0
19485,8082,55576,0,0,0
19658,8177,55820,0,0,0
19783,8243,56002,0,0,0
19860,8283,56128,0,0,0
19895,8300,56205,0,0,0
19899,8299,56241,0,0,0
19883,8288,56249,0,0,0
19853,8272,56235,0,0,0
19812,8250,56198,0,0,0
19765,8225,56140,0,0,0
19715,8198,56065,0,0,0
19665,8168,55978,0,0,0
19619,8138,55883,0,0,0
19575,8110,55786,0,0,0
19529,8082,55684,0,0,0
19474,8051,55575,0,0,0
19406,8014,55454,0,0,0
19323,7971,55323,0,0,0
19226,7919,55182,0,0,0
19114,7859,55026,0,0,0
18989,7788,54852,0,0,0
18853,7712,54662,0,0,0
18709,7632,54464,0,0,0
18562,7552,54262,0,0,0
18416,7472,54057,0,0,0
18280,7395,53859,0,0,0
18157,7322,53672,0,0,0
18046,7257,53500,0,0,0
17943,7198,53345,0,0,0
17853,7144,53210,0,0,0
17777,7100,53097,0,0,0
17712,7066,53008,0,0,0
17658,7040,52940,0,0,0
17616,7020,52890,0,0,0
17582,7006,52855,0,0,0
17553,6996,52832,0,0,0
17530,6990,52815,0,0,0
17513,6986,52801,0,0,0
17497,6981,52789,0,0,0
17483,6973,52778,0,0,0
17471,6964,52765,0,0,0
17457,6954,52747,0,0,0
17436,6941,52725,0,0,0
17407,6923,52694,0,0,0
17368,6900,52651,0,0,0
17320,6875,52596,0,0,0
17265,6846,52533,0,0,0
17205,6816,52466,0,0,0
17143,6785,52397,0,0,0
17080,6752,52326,0,0,0
17012,6716,52249,0,0,0
16940,6678,52165,0,0,0
16868,6640,52074,0,0,0
16792,6601,51976,0,0,0
16709,6559,51868,0,0,0
16620,6513,51751,0,0,0
16528,6465,51625,0,0,0
16433,6416,51493,0,0,0
16332,6366,51353,0,0,0
16227,6314,51205,0,0,0
16122,6263,51055,0,0,0
16024,6214,50909,0,0,0
15932,6168,50771,0,0,0
15844,6124,50637,0,0,0
15761,6081,50511,0,0,0
15689,6041,50396,0,0,0
15626,6006,50293,0,0,0
15571,5976,50198,0,0,0
15525,5951,50113,0,0,0
15490,5930,50039,0,0,0
15465,5913,49974,0,0,0
15446,5899,49917,0,0,0
15435,5890,49865,0,0,0
15433,5885,49818,0,0,0
15443,5884,49774,0,0,0
15458,5885,49732,0,0,0
15474,5887,49689,0,0,0
15487,5886,49646,0,0,0
15498,5884,49604,0,0,0
15504,5882,49558,0,0,0
15493,5873,49501,0,0,0
15454,5854,49431,0,0,0
15389,5822,49344,0,0,0
15309,5781,49251,0,0,0
15223,5738,49161,0,0,0
15134,5695,49078,0,0,0
15044,5652,49000,0,0,0
14954,5611,48924,0,0,0
14871,5574,48855,0,0,0
14801,5545,48797,0,0,0
14745,5524,48752,0,0,0
14699,5506,48714,0,0,0
14658,5489,48674,0,0,0
14621,5469,48627,0,0,0
14590,5453,48578,0,0,0
14571,5443,48538,0,0,0
14566,5441,48511,0,0,0
14572,5442,48494,0,0,0
14584,5445,48480,0,0,0
14599,5450,48467,0,0,0
14619,5457,48458,0,0,0
14646,5465,48450,0,0,0
14675,5475,48438,0,0,0
14702,5485,48422,0,0,0
14719,5491,48395,0,0,0
14721,5490,48352,0,0,0
14708,5483,48292,0,0,0
14677,5468,48219,0,0,0
14627,5441,48135,0,0,0
14554,5402,48036,0,0,0
14464,5355,47926,0,0,0
14366,5303,47810,0,0,0
14259,5249,47691,0,0,0
14145,5191,47567,0,0,0
14028,5132,47441,0,0,0
13916,5074,47316,0,0,0
13811,5020,47191,0,0,0
13713,4969,47064,0,0,0
13621,4920,46935,0,0,0
13540,4876,46808,0,0,0
13469,4837,46687,0,0,0
13407,4804,46573,0,0,0
13354,4776,46472,0,0,0
13313,4753,46389,0,0,0
13287,4738,46337,0,0,0
13280,4734,46327,0,0,0
13306,4749,46372,0,0,0
13378,4789,46483,0,0,0
13501,4856,46668,0,0,0
13683,4956,46938,0,0,0
13930,5091,47299,0,0,0
14242,5262,47751,0,0,0
14616,5463,48285,0,0,0
15040,5687,48890,0,0,0
15505,5929,49556,0,0,0
15994,6185,50267,0,0,0
16492,6448,50996,0,0,0
16985,6712,51724,0,0,0
17461,6972,52436,0,0,0
17912,7221,53117,0,0,0
18328,7450,53751,0,0,0
18701,7656,54325,0,0,0
19036,7840,54833,0,0,0
19336,8002,55277,0,0,0
19596,8143,55655,0,0,0
19814,8266,55967,0,0,0
19992,8366,56212,0,0,0
20132,8444,56394,0,0,0
20236,8500,56520,0,0,0
20306,8537,56597,0,0,0
20344,8555,56630,0,0,0
20351,8558,56627,0,0,0
20330,8546,56593,0,0,0
20288,8521,56535,0,0,0
20230,8489,56460,0,0,0
20162,8451,56374,0,0,0
20090,8408,56278,0,0,0
20020,8363,56176,0,0,0
19954,8320,56075,0,0,0
19894,8280,55981,0,0,0
19839,8244,55890,0,0,0
19786,8210,55800,0,0,0
19734,8179,55710,0,0,0
19684,8150,55617,0,0,0
19626,8118,55516,0,0,0
19558,8080,55402,0,0,0
19482,8037,55272,0,0,0
19396,7987,55125,0,0,0
19302,7931,54964,0,0,0
19201,7871,54792,0,0,0
19092,7812,54618,0,0,0
18979,7752,54447,0,0,0
18870,7692,54285,0,0,0
18768,7637,54135,0,0,0
18677,7589,54001,0,0,0
18595,7545,53883,0,0,0
18524,7506,53781,0,0,0
18467,7472,53700,0,0,0
18422,7444,53643,0,0,0
18389,7421,53610,0,0,0
18364,7402,53592,0,0,0
18342,7386,53585,0,0,0
18325,7374,53584,0,0,0
18310,7367,53587,0,0,0
18296,7363,53595,0,0,0
18289,7363,53609,0,0,0
18292,7367,53629,0,0,0
18302,7377,53652,0,0,0
18317,7390,53677,0,0,0
18335,7402,53698,0,0,0
18351,7415,53712,0,0,0
18362,7425,53716,0,0,0
18367,7433,53711,0,0,0
18365,7438,53698,0,0,0
18357,7440,53675,0,0,0
18347,7438,53644,0,0,0
18340,7433,53608,0,0,0
18332,7426,53569,0,0,0
18319,7414,53522,0,0,0
18298,7397,53465,0,0,0
18271,7377,53398,0,0,0
18236,7356,53324,0,0,0
18190,7331,53242,0,0,0
18132,7301,53150,0,0,0
18063,7265,53049,0,0,0
17984,7222,52939,0,0,0
17896,7173,52821,0,0,0
17804,7120,52694,0,0,0
17708,7063,52559,0,0,0
17610,7006,52417,0,0,0
17506,6947,52268,0,0,0
17394,6885,52111,0,0,0
17275,6820,51950,0,0,0
17151,6751,51787,0,0,0
17025,6681,51624,0,0,0
16900,6611,51462,0,0,0
16776,6543,51303,0,0,0
16655,6480,51150,0,0,0
16540,6424,51009,0,0,0
16439,6377,50882,0,0,0
16355,6340,50770,0,0,0
16288,6310,50674,0,0,0
16236,6285,50593,0,0,0
16202,6264,50526,0,0,0
16181,6248,50473,0,0,0
16164,6236,50428,0,0,0
16145,6225,50383,0,0,0
16122,6214,50332,0,0,0
16098,6199,50276,0,0,0
16068,6181,50216,0,0,0
16032,6161,50153,0,0,0
15991,6139,50088,0,0,0
15945,6115,50021,0,0,0
15892,6088,49949,0,0,0
15832,6059,49872,0,0,0
15766,6027,49794,0,0,0
15697,5994,49711,0,0,0
15624,5958,49621,0,0,0
15546,5919,49525,0,0,0
15463,5878,49426,0,0,0
15377,5836,49326,0,0,0
15286,5792,49224,0,0,0
15195,5747,49123,0,0,0
15108,5703,49026,0,0,0
15026,5662,48933,0,0,0
14948,5623,48842,0,0,0
14877,5588,48755,0,0,0
14814,5556,48671,0,0,0
14757,5526,48594,0,0,0
14704,5500,48524,0,0,0
14653,5475,48459,0,0,0
14606,5451,48393,0,0,0
14559,5428,48322,0,0,0
14505,5404,48242,0,0,0
14440,5374,48150,0,0,0
14363,5336,48047,0,0,0
14276,5292,47934,0,0,0
14179,5244,47813,0,0,0
14074,5190,47682,0,0,0
13963,5132,47548,0,0,0
13851,5072,47412,0,0,0
13740,5014,47277,0,0,0
13630,4959,47141,0,0,0
13523,4906,47006,0,0,0
13422,4859,46876,0,0,0
13330,4819,46758,0,0,0
13251,4784,46651,0,0,0
13182,4752,46553,0,0,0
13123,4722,46464,0,0,0
13069,4694,46381,0,0,0
13015,4667,46299,0,0,0
12960,4641,46212,0,0,0
12902,4616,46117,0,0,0
12840,4588,46021,0,0,0
12775,4558,45927,0,0,0
12710,4526,45841,0,0,0
12651,4497,45775,0,0,0
12614,4480,45745,0,0,0
12614,4482,45767,0,0,0
12663,4510,45860,0,0,0
12770,4568,46038,0,0,0
12940,4662,46311,0,0,0
13176,4793,46685,0,0,0
13476,4959,47160,0,0,0
13836,5155,47724,0,0,0
14245,5376,48360,0,0,0
14692,5618,49049,0,0,0
15164,5874,49772,0,0,0
15647,6136,50506,0,0,0
16131,6398,51233,0,0,0
16606,6653,51936,0,0,0
17059,6896,52601,0,0,0
17475,7122,53213,0,0,0
17847,7325,53759,0,0,0
18173,7502,54235,0,0,0
18452,7653,54639,0,0,0
18678,7775,54966,0,0,0
18853,7867,55216,0,0,0
18979,7932,55395,0,0,0
19057,7976,55507,0,0,0
19091,7996,55558,0,0,0
19085,7995,55556,0,0,0
19052,7977,55514,0,0,0
18995,7946,55441,0,0,0
18919,7902,55340,0,0,0
18832,7850,55221,0,0,0
18742,7797,55093,0,0,0
18655,7748,54966,0,0,0
18571,7703,54844,0,0,0
18490,7662,54728,0,0,0
18415,7624,54625,0,0,0
18343,7590,54532,0,0,0
18274,7556,54443,0,0,0
18209,7521,54352,0,0,0
18144,7485,54255,0,0,0
18075,7447,54146,0,0,0
17995,7402,54019,0,0,0
17899,7346,53868,0,0,0
17784,7279,53694,0,0,0
17649,7205,53502,0,0,0
17499,7128,53298,0,0,0
17344,7049,53088,0,0,0
17193,6972,52877,0,0,0
17050,6898,52672,0,0,0
16915,6830,52479,0,0,0
16791,6769,52308,0,0,0
16684,6716,52166,0,0,0
16598,6674,52054,0,0,0
16533,6642,51971,0,0,0
16487,6619,51912,0,0,0
16459,6606,51878,0,0,0
16440,6598,51860,0,0,0
16424,6591,51853,0,0,0
16411,6585,51854,0,0,0
16403,6582,51862,0,0,0
16394,6581,51871,0,0,0
16383,6577,51878,0,0,0
16370,6570,51881,0,0,0
16355,6560,51881,0,0,0
16339,6549,51878,0,0,0
16322,6539,51872,0,0,0
16307,6530,51862,0,0,0
16299,6523,51851,0,0,0
16296,6518,51838,0,0,0
16297,6516,51824,0,0,0
16301,6519,51812,0,0,0
16306,6524,51800,0,0,0
16306,6528,51784,0,0,0
16296,6526,51760,0,0,0
16276,6518,51724,0,0,0
16246,6501,51671,0,0,0
16200,6476,51599,0,0,0
16138,6443,51506,0,0,0
16058,6401,51392,0,0,0
15959,6348,51255,0,0,0
15840,6283,51096,0,0,0
15707,6212,50922,0,0,0
15565,6139,50742,0,0,0
15415,6064,50556,0,0,0
15262,5990,50367,0,0,0
15115,5918,50180,0,0,0
14978,5852,50003,0,0,0
14857,5790,49843,0,0,0
14755,5736,49702,0,0,0
14669,5690,49580,0,0,0
14597,5652,49475,0,0,0
14531,5622,49381,0,0,0
14470,5594,49294,0,0,0
14413,5567,49214,0,0,0
14360,5541,49141,0,0,0
14313,5517,49073,0,0,0
14272,5497,49013,0,0,0
14236,5481,48959,0,0,0
14205,5466,48908,0,0,0
14174,5448,48855,0,0,0
14145,5427,48800,0,0,0
14115,5404,48745,0,0,0
14080,5381,48691,0,0,0
14040,5358,48636,0,0,0
14000,5337,48579,0,0,0
13962,5321,48523,0,0,0
13925,5306,48469,0,0,0
13889,5293,48415,0,0,0
13854,5279,48361,0,0,0
13824,5263,48310,0,0,0
13799,5251,48261,0,0,0
13778,5242,48213,0,0,0
13756,5233,48165,0,0,0
13735,5223,48120,0,0,0
13715,5212,48078,0,0,0
13699,5199,48038,0,0,0
13686,5187,48000,0,0,0
13680,5177,47966,0,0,0
13680,5173,47938,0,0,0
13683,5174,47916,0,0,0
13688,5175,47901,0,0,0
13694,5178,47892,0,0,0
13702,5181,47883,0,0,0
13706,5184,47869,0,0,0
13708,5184,47850,0,0,0
13707,5183,47826,0,0,0
13700,5178,47796,0,0,0
13682,5170,47757,0,0,0
13654,5156,47710,0,0,0
13621,5140,47658,0,0,0
13588,5125,47604,0,0,0
13554,5109,47547,0,0,0
13521,5092,47490,0,0,0
13490,5074,47434,0,0,0
13459,5058,47380,0,0,0
13429,5044,47332,0,0,0
13399,5032,47287,0,0,0
13368,5020,47241,0,0,0
13336,5005,47191,0,0,0
13301,4984,47134,0,0,0
13264,4961,47069,0,0,0
13225,4935,46994,0,0,0
13185,4908,46910,0,0,0
13139,4877,46817,0,0,0
13084,4844,46717,0,0,0
13023,4812,46616,0,0,0
12959,4781,46518,0,0,0
12900,4752,46429,0,0,0
12851,4729,46360,0,0,0
12821,4714,46319,0,0,0
12818,4716,46323,0,0,0
12849,4736,46390,0,0,0
12924,4779,46530,0,0,0
13052,4848,46753,0,0,0
13236,4946,47065,0,0,0
13480,5077,47469,0,0,0
13781,5242,47958,0,0,0
14137,5435,48522,0,0,0
14538,5652,49145,0,0,0
14974,5887,49811,0,0,0
15432,6134,50506,0,0,0
15896,6387,51210,0,0,0
16354,6639,51900,0,0,0
16795,6881,52559,0,0,0
17209,7107,53168,0,0,0
17585,7311,53716,0,0,0
17916,7492,54197,0,0,0
18201,7649,54609,0,0,0
18434,7779,54945,0,0,0
18613,7878,55205,0,0,0
18739,7946,55391,0,0,0
18820,7986,55508,0,0,0
18862,8003,55565,0,0,0
18871,8002,55571,0,0,0
18852,7987,55536,0,0,0
18815,7962,55474,0,0,0
18765,7930,55396,0,0,0
18705,7894,55305,0,0,0
18643,7857,55207,0,0,0
18587,7823,55111,0,0,0
18538,7793,55022,0,0,0
18491,7763,54936,0,0,0
18443,7734,54849,0,0,0
18396,7705,54761,0,0,0
18344,7676,54666,0,0,0
18282,7644,54557,0,0,0
18210,7605,54434,0,0,0
18126,7558,54296,0,0,0
18027,7502,54141,0,0,0
17907,7434,53965,0,0,0
17769,7357,53770,0,0,0
17619,7272,53563,0,0,0
17458,7183,53347,0,0,0
17287,7090,53123,0,0,0
17114,7000,52899,0,0,0
16950,6916,52686,0,0,0
16803,6838,52492,0,0,0
16678,6770,52323,0,0,0
16577,6715,52185,0,0,0
16506,6675,52088,0,0,0
16466,6651,52031,0,0,0
16453,6643,52011,0,0,0
16465,6651,52027,0,0,0
16502,6673,52073,0,0,0
16556,6706,52143,0,0,0
16623,6744,52227,0,0,0
16700,6784,52320,0,0,0
16780,6823,52416,0,0,0
16853,6860,52508,0,0,0
16911,6892,52585,0,0,0
16953,6918,52645,0,0,0
16977,6936,52689,0,0,0
16983,6944,52719,0,0,0
16975,6945,52732,0,0,0
16959,6939,52730,0,0,0
16939,6928,52715,0,0,0
16915,6912,52688,0,0,0
16885,6893,52653,0,0,0
16853,6873,52611,0,0,0
16818,6854,52564,0,0,0
16781,6833,52509,0,0,0
16740,6812,52447,0,0,0
16694,6787,52376,0,0,0
16641,6755,52294,0,0,0
16578,6717,52198,0,0,0
16503,6676,52087,0,0,0
16415,6632,51962,0,0,0
16317,6583,51824,0,0,0
16211,6529,51677,0,0,0
16103,6471,51523,0,0,0
15996,6412,51369,0,0,0
15895,6357,51217,0,0,0
15802,6307,51072,0,0,0
15717,6260,50936,0,0,0
15640,6218,50810,0,0,0
15569,6178,50694,0,0,0
15501,6140,50586,0,0,0
15435,6104,50483,0,0,0
15371,6070,50386,0,0,0
15309,6039,50294,0,0,0
15248,6012,50206,0,0,0
15189,5986,50117,0,0,0
15131,5958,50026,0,0,0
15070,5925,49932,0,0,0
15002,5889,49835,0,0,0
14929,5850,49735,0,0,0
14857,5811,49636,0,0,0
14785,5770,49538,0,0,0
14714,5731,49445,0,0,0
14646,5696,49357,0,0,0
14582,5663,49270,0,0,0
14524,5632,49185,0,0,0
14472,5601,49107,0,0,0
14426,5572,49038,0,0,0
14384,5546,48976,0,0,0
14344,5523,48920,0,0,0
14306,5504,48869,0,0,0
14275,5487,48821,0,0,0
14245,5472,48775,0,0,0
14213,5459,48727,0,0,0
14181,5444,48680,0,0,0
14150,5431,48637,0,0,0
14124,5422,48601,0,0,0
14105,5415,48569,0,0,0
14091,5405,48541,0,0,0
14079,5395,48515,0,0,0
14069,5386,48491,0,0,0
14059,5379,48469,0,0,0
14047,5372,48446,0,0,0
14034,5365,48419,0,0,0
14018,5358,48385,0,0,0
13998,5348,48349,0,0,0
13969,5333,48309,0,0,0
13931,5312,48263,0,0,0
13881,5286,48205,0,0,0
13820,5256,48133,0,0,0
13747,5220,48047,0,0,0
13661,5179,47943,0,0,0
13563,5134,47822,0,0,0
13451,5082,47683,0,0,0
13330,5024,47532,0,0,0
13204,4963,47373,0,0,0
13077,4901,47210,0,0,0
12953,4839,47048,0,0,0
12840,4782,46895,0,0,0
12742,4734,46757,0,0,0
12656,4693,46636,0,0,0
12584,4660,46537,0,0,0
12534,4636,46468,0,0,0
12514,4627,46439,0,0,0
12530,4636,46460,0,0,0
12590,4668,46543,0,0,0
12702,4725,46699,0,0,0
12868,4811,46937,0,0,0
13089,4926,47259,0,0,0
13364,5072,47667,0,0,0
13693,5246,48158,0,0,0
14066,5444,48722,0,0,0
14471,5661,49341,0,0,0
14896,5889,49994,0,0,0
15331,6121,50664,0,0,0
15764,6354,51335,0,0,0
16184,6582,51987,0,0,0
16582,6796,52600,0,0,0
16952,6994,53165,0,0,0
17288,7178,53678,0,0,0
17585,7344,54137,0,0,0
17841,7488,54538,0,0,0
18062,7611,54881,0,0,0
18251,7716,55167,0,0,0
18411,7804,55401,0,0,0
18544,7878,55590,0,0,0
18652,7935,55734,0,0,0
18732,7976,55837,0,0,0
18785,8002,55899,0,0,0
18812,8015,55924,0,0,0
18815,8016,55914,0,0,0
18797,8004,55875,0,0,0
18764,7982,55813,0,0,0
18717,7953,55736,0,0,0
18657,7918,55640,0,0,0
18584,7878,55529,0,0,0
18501,7834,55408,0,0,0
18408,7786,55276,0,0,0
18305,7732,55133,0,0,0
18190,7671,54978,0,0,0
18061,7603,54806,0,0,0
17918,7525,54616,0,0,0
17766,7440,54408,0,0,0
17605,7348,54188,0,0,0
17438,7251,53956,0,0,0
17268,7152,53716,0,0,0
17101,7058,53476,0,0,0
16945,6971,53246,0,0,0
16805,6893,53034,0,0,0
16684,6824,52846,0,0,0
16580,6766,52685,0,0,0
16494,6716,52550,0,0,0
16426,6676,52440,0,0,0
16376,6646,52357,0,0,0
16343,6628,52299,0,0,0
16323,6618,52265,0,0,0
16316,6617,52254,0,0,0
16317,6623,52261,0,0,0
16326,6636,52282,0,0,0
16343,6653,52318,0,0,0
16368,6672,52365,0,0,0
16400,6693,52419,0,0,0
16436,6712,52474,0,0,0
16473,6729,52529,0,0,0
16511,6746,52582,0,0,0
16548,6762,52633,0,0,0
16579,6777,52677,0,0,0
16603,6790,52709,0,0,0
16618,6798,52727,0,0,0
16621,6801,52731,0,0,0
16614,6798,52723,0,0,0
16600,6789,52699,0,0,0
16581,6775,52664,0,0,0
16553,6755,52620,0,0,0
16516,6732,52566,0,0,0
16472,6706,52499,0,0,0
16424,6677,52425,0,0,0
16370,6645,52343,0,0,0
16309,6610,52249,0,0,0
16242,6573,52141,0,0,0
16170,6534,52025,0,0,0
16095,6497,51907,0,0,0
16020,6460,51792,0,0,0
15953,6425,51683,0,0,0
15897,6394,51582,0,0,0
15851,6367,51493,0,0,0
15811,6344,51414,0,0,0
15777,6324,51343,0,0,0
15747,6305,51277,0,0,0
15721,6288,51216,0,0,0
15692,6274,51154,0,0,0
15660,6259,51089,0,0,0
15622,6240,51022,0,0,0
15581,6217,50955,0,0,0
15534,6190,50885,0,0,0
15482,6161,50809,0,0,0
15428,6131,50729,0,0,0
15375,6101,50649,0,0,0
15325,6074,50570,0,0,0
15282,6051,50495,0,0,0
15248,6032,50425,0,0,0
15223,6015,50363,0,0,0
15197,5999,50307,0,0,0
15168,5983,50256,0,0,0
15143,5967,50208,0,0,0
15120,5953,50162,0,0,0
15098,5940,50120,0,0,0
15076,5931,50082,0,0,0
15057,5924,50053,0,0,0
15045,5919,50031,0,0,0
15039,5916,50012,0,0,0
15038,5911,49989,0,0,0
15039,5905,49962,0,0,0
15040,5896,49932,0,0,0
15036,5886,49898,0,0,0
15023,5876,49861,0,0,0
15000,5863,49817,0,0,0
14965,5847,49766,0,0,0
14918,5827,49708,0,0,0
14861,5804,49643,0,0,0
14796,5774,49569,0,0,0
14725,5739,49486,0,0,0
14645,5699,49392,0,0,0
14557,5652,49286,0,0,0
14460,5600,49170,0,0,0
14357,5544,49046,0,0,0
14255,5489,48918,0,0,0
14157,5439,48790,0,0,0
14068,5394,48667,0,0,0
13989,5353,48551,0,0,0
13921,5316,48443,0,0,0
13861,5284,48346,0,0,0
13807,5257,48257,0,0,0
13754,5232,48169,0,0,0
13702,5205,48080,0,0,0
13651,5177,47990,0,0,0
13599,5149,47900,0,0,0
13547,5120,47810,0,0,0
13494,5090,47723,0,0,0
13446,5063,47646,0,0,0
13409,5043,47587,0,0,0
13390,5032,47551,0,0,0
13393,5030,47550,0,0,0
13427,5043,47594,0,0,0
13500,5080,47697,0,0,0
13620,5144,47868,0,0,0
13790,5238,48120,0,0,0
14015,5366,48462,0,0,0
14300,5526,48897,0,0,0
14640,5712,49414,0,0,0
15026,5922,50004,0,0,0
15452,6152,50654,0,0,0
15909,6396,51345,0,0,0
16385,6649,52060,0,0,0
16865,6909,52781,0,0,0
17339,7170,53492,0,0,0
17800,7425,54177,0,0,0
18243,7671,54826,0,0,0
18660,7904,55431,0,0,0
19046,8119,55985,0,0,0
19395,8313,56484,0,0,0
19704,8484,56925,0,0,0
19968,8628,57303,0,0,0
20182,8748,57618,0,0,0
20350,8842,57869,0,0,0
20479,8912,58060,0,0,0
20574,8961,58197,0,0,0
20636,8991,58281,0,0,0
20664,9002,58316,0,0,0
20664,8996,58308,0,0,0
20641,8980,58270,0,0,0
20599,8958,58214,0,0,0
20546,8926,58146,0,0,0
20490,8890,58073,0,0,0
20438,8858,58000,0,0,0
20396,8833,57933,0,0,0
20360,8813,57875,0,0,0
20326,8796,57821,0,0,0
20298,8782,57768,0,0,0
20277,8773,57716,0,0,0
20258,8764,57663,0,0,0
20238,8754,57606,0,0,0
20214,8740,57542,0,0,0
20180,8719,57465,0,0,0
20130,8688,57367,0,0,0
20061,8645,57248,0,0,0
19972,8590,57108,0,0,0
19861,8522,56945,0,0,0
19727,8441,56757,0,0,0
19576,8353,56554,0,0,0
19412,8261,56347,0,0,0
19244,8168,56145,0,0,0
19079,8080,55956,0,0,0
18926,8002,55787,0,0,0
18788,7934,55640,0,0,0
18665,7875,55513,0,0,0
18559,7824,55408,0,0,0
18469,7781,55327,0,0,0
18395,7747,55270,0,0,0
18340,7723,55233,0,0,0
18304,7709,55211,0,0,0
18285,7702,55201,0,0,0
18280,7704,55202,0,0,0
18287,7714,55215,0,0,0
18305,7731,55237,0,0,0
18333,7753,55266,0,0,0
18365,7777,55298,0,0,0
18397,7797,55328,0,0,0
18421,7808,55349,0,0,0
18433,7809,55357,0,0,0
18433,7803,55350,0,0,0
18421,7790,55325,0,0,0
18394,7769,55282,0,0,0
18351,7743,55219,0,0,0
18290,7709,55137,0,0,0
18209,7666,55036,0,0,0
18112,7615,54917,0,0,0
18006,7558,54782,0,0,0
17893,7497,54635,0,0,0
17771,7430,54476,0,0,0
17641,7359,54306,0,0,0
17508,7289,54132,0,0,0
17373,7219,53956,0,0,0
17236,7149,53780,0,0,0
17104,7080,53606,0,0,0
16984,7018,53442,0,0,0
16881,6966,53295,0,0,0
16791,6921,53167,0,0,0
16714,6883,53057,0,0,0
16652,6853,52964,0,0,0
16601,6827,52883,0,0,0
16555,6804,52811,0,0,0
16514,6783,52742,0,0,0
16476,6764,52676,0,0,0
16432,6746,52606,0,0,0
16379,6722,52530,0,0,0
16317,6690,52448,0,0,0
16252,6654,52361,0,0,0
16185,6615,52270,0,0,0
16114,6572,52174,0,0,0
16038,6525,52072,0,0,0
15959,6475,51963,0,0,0
15877,6425,51850,0,0,0
15794,6374,51736,0,0,0
15709,6325,51624,0,0,0
15619,6278,51511,0,0,0
15529,6234,51398,0,0,0
15440,6195,51287,0,0,0
15356,6158,51179,0,0,0
15277,6123,51077,0,0,0
15204,6092,50984,0,0,0
15143,6062,50900,0,0,0
15094,6035,50823,0,0,0
15051,6010,50751,0,0,0
15012,5987,50684,0,0,0
14980,5967,50626,0,0,0
14952,5953,50576,0,0,0
14924,5942,50531,0,0,0
14894,5932,50485,0,0,0
14860,5919,50438,0,0,0
14824,5903,50392,0,0,0
14788,5885,50343,0,0,0
14750,5862,50284,0,0,0
14704,5836,50215,0,0,0
14650,5808,50135,0,0,0
14584,5775,50046,0,0,0
14507,5734,49946,0,0,0
14420,5687,49832,0,0,0
14322,5635,49705,0,0,0
14214,5581,49570,0,0,0
14100,5524,49426,0,0,0
13981,5465,49276,0,0,0
13864,5406,49124,0,0,0
13751,5346,48978,0,0,0
13647,5287,48838,0,0,0
13553,5235,48706,0,0,0
13470,5190,48582,0,0,0
13395,5152,48467,0,0,0
13327,5122,48361,0,0,0
13266,5096,48269,0,0,0
13220,5075,48194,0,0,0
13192,5062,48143,0,0,0
13187,5058,48123,0,0,0
13211,5070,48148,0,0,0
13271,5103,48228,0,0,0
13372,5162,48375,0,0,0
13519,5245,48600,0,0,0
13719,5358,48910,0,0,0
13977,5501,49310,0,0,0
14295,5673,49794,0,0,0
14663,5873,50350,0,0,0
15068,6093,50967,0,0,0
15502,6328,51633,0,0,0
15955,6574,52329,0,0,0
16413,6826,53033,0,0,0
16862,7074,53722,0,0,0
17295,7314,54379,0,0,0
17706,7539,54993,0,0,0
18087,7747,55557,0,0,0
18434,7936,56062,0,0,0
18745,8107,56506,0,0,0
19022,8261,56890,0,0,0
19267,8394,57217,0,0,0
19475,8506,57485,0,0,0
19644,8596,57698,0,0,0
19779,8667,57862,0,0,0
19885,8722,57983,0,0,0
19965,8762,58069,0,0,0
20021,8792,58124,0,0,0
20053,8808,58151,0,0,0
20062,8811,58151,0,0,0
20049,8799,58126,0,0,0
20018,8777,58082,0,0,0
19976,8751,58028,0,0,0
19931,8722,57970,0,0,0
19885,8692,57912,0,0,0
19837,8662,57851,0,0,0
19787,8634,57786,0,0,0
19735,8605,57714,0,0,0
19680,8573,57634,0,0,0
19623,8538,57544,0,0,0
19564,8501,57445,0,0,0
19501,8461,57337,0,0,0
19436,8421,57221,0,0,0
19371,8380,57098,0,0,0
19305,8336,56962,0,0,0
19237,8289,56819,0,0,0
19162,8240,56676,0,0,0
19083,8192,56535,0,0,0
19003,8143,56398,0,0,0
18928,8097,56270,0,0,0
18859,8056,56154,0,0,0
18796,8019,56047,0,0,0
18737,7985,55948,0,0,0
18684,7957,55861,0,0,0
18639,7935,55794,0,0,0
18606,7919,55747,0,0,0
18584,7906,55716,0,0,0
18569,7899,55701,0,0,0
18563,7897,55701,0,0,0
18561,7898,55709,0,0,0
18563,7900,55724,0,0,0
18567,7903,55742,0,0,0
18574,7907,55763,0,0,0
18578,7909,55779,0,0,0
18576,7906,55784,0,0,0
18572,7900,55779,0,0,0
18561,7890,55761,0,0,0
18537,7874,55727,0,0,0
18501,7850,55675,0,0,0
18457,7820,55611,0,0,0
18404,7786,55536,0,0,0
18341,7748,55447,0,0,0
18269,7705,55344,0,0,0
18196,7659,55230,0,0,0
18122,7614,55109,0,0,0
18047,7567,54985,0,0,0
17972,7521,54862,0,0,0
17902,7477,54744,0,0,0
17834,7435,54627,0,0,0
17762,7392,54512,0,0,0
17687,7349,54398,0,0,0
17611,7306,54282,0,0,0
17531,7261,54159,0,0,0
17444,7213,54032,0,0,0
17351,7162,53898,0,0,0
17247,7108,53757,0,0,0
17133,7048,53605,0,0,0
17010,6980,53443,0,0,0
16880,6909,53273,0,0,0
16746,6836,53098,0,0,0
16610,6762,52922,0,0,0
16479,6689,52749,0,0,0
16358,6618,52586,0,0,0
16245,6551,52436,0,0,0
16136,6491,52296,0,0,0
16037,6437,52166,0,0,0
15950,6392,52045,0,0,0
15877,6356,51935,0,0,0
15815,6327,51838,0,0,0
15771,6306,51758,0,0,0
15743,6293,51697,0,0,0
15726,6286,51649,0,0,0
15710,6281,51605,0,0,0
15688,6274,51561,0,0,0
15660,6264,51516,0,0,0
15624,6252,51467,0,0,0
15578,6233,51409,0,0,0
15520,6205,51344,0,0,0
15457,6171,51273,0,0,0
15390,6134,51197,0,0,0
15316,6093,51114,0,0,0
15241,6051,51029,0,0,0
15169,6011,50943,0,0,0
15100,5975,50856,0,0,0
15033,5938,50768,0,0,0
14970,5902,50682,0,0,0
14908,5868,50601,0,0,0
14843,5833,50519,0,0,0
14768,5795,50431,0,0,0
14685,5754,50337,0,0,0
14599,5712,50236,0,0,0
14515,5672,50132,0,0,0
14436,5635,50029,0,0,0
14364,5602,49932,0,0,0
14302,5573,49842,0,0,0
14253,5547,49759,0,0,0
14214,5524,49681,0,0,0
14182,5505,49607,0,0,0
14154,5488,49536,0,0,0
14124,5469,49465,0,0,0
14089,5448,49394,0,0,0
14048,5423,49321,0,0,0
14004,5401,49249,0,0,0
13956,5379,49175,0,0,0
13899,5353,49093,0,0,0
13832,5322,49002,0,0,0
13757,5290,48907,0,0,0
13678,5255,48805,0,0,0
13598,5220,48695,0,0,0
13516,5184,48583,0,0,0
13436,5150,48479,0,0,0
13366,5121,48392,0,0,0
13314,5101,48332,0,0,0
13290,5092,48313,0,0,0
13304,5100,48349,0,0,0
13361,5132,48451,0,0,0
13464,5191,48630,0,0,0
13623,5283,48899,0,0,0
13846,5411,49263,0,0,0
14132,5574,49724,0,0,0
14481,5771,50273,0,0,0
14883,5996,50899,0,0,0
15328,6244,51581,0,0,0
15800,6507,52295,0,0,0
16289,6778,53021,0,0,0
16781,7052,53745,0,0,0
17261,7321,54449,0,0,0
17718,7575,55115,0,0,0
18144,7810,55730,0,0,0
18528,8020,56284,0,0,0
18861,8201,56764,0,0,0
19141,8352,57163,0,0,0
19364,8472,57481,0,0,0
19530,8564,57723,0,0,0
19646,8632,57897,0,0,0
19722,8678,58015,0,0,0
19767,8704,58086,0,0,0
19788,8714,58115,0,0,0
19787,8712,58110,0,0,0
19769,8701,58079,0,0,0
19743,8684,58029,0,0,0
19715,8664,57969,0,0,0
19688,8644,57906,0,0,0
19664,8627,57844,0,0,0
19642,8609,57781,0,0,0
19618,8589,57721,0,0,0
19586,8569,57664,0,0,0
19542,8545,57603,0,0,0
19484,8516,57529,0,0,0
19409,8478,57434,0,0,0
19321,8431,57319,0,0,0
19219,8374,57181,0,0,0
19101,8307,57021,0,0,0
18968,8230,56837,0,0,0
18825,8145,56635,0,0,0
18676,8055,56424,0,0,0
18527,7965,56208,0,0,0
18381,7877,55991,0,0,0
18242,7794,55778,0,0,0
18111,7718,55580,0,0,0
17989,7650,55404,0,0,0
17879,7588,55250,0,0,0
17786,7535,55119,0,0,0
17712,7495,55014,0,0,0
17657,7469,54938,0,0,0
17623,7455,54892,0,0,0
17610,7452,54873,0,0,0
17613,7460,54878,0,0,0
17631,7477,54905,0,0,0
17665,7502,54949,0,0,0
17710,7530,55001,0,0,0
17760,7558,55058,0,0,0
17809,7583,55115,0,0,0
17850,7605,55167,0,0,0
17879,7623,55210,0,0,0
17896,7633,55244,0,0,0
17905,7637,55265,0,0,0
17903,7633,55273,0,0,0
17889,7622,55265,0,0,0
17864,7608,55244,0,0,0
17828,7588,55207,0,0,0
17781,7563,55152,0,0,0
17727,7533,55077,0,0,0
17668,7498,54987,0,0,0
17604,7459,54887,0,0,0
17534,7417,54778,0,0,0
17457,7372,54661,0,0,0
17374,7327,54542,0,0,0
17291,7282,54424,0,0,0
17208,7235,54306,0,0,0
17127,7187,54185,0,0,0
17051,7141,54065,0,0,0
16981,7101,53949,0,0,0
16915,7064,53835,0,0,0
16852,7029,53723,0,0,0
16792,6995,53616,0,0,0
16731,6962,53515,0,0,0
16667,6926,53412,0,0,0
16598,6885,53307,0,0,0
16529,6841,53202,0,0,0
16460,6798,53097,0,0,0
16390,6757,52991,0,0,0
16314,6717,52884,0,0,0
16236,6677,52776,0,0,0
16155,6637,52668,0,0,0
16069,6596,52557,0,0,0
15979,6552,52444,0,0,0
15891,6509,52331,0,0,0
15813,6469,52222,0,0,0
15747,6435,52122,0,0,0
15691,6405,52032,0,0,0
15647,6380,51955,0,0,0
15615,6360,51893,0,0,0
15596,6347,51844,0,0,0
15592,6343,51808,0,0,0
15601,6347,51784,0,0,0
15618,6355,51768,0,0,0
15641,6365,51760,0,0,0
15670,6379,51761,0,0,0
15704,6397,51771,0,0,0
15742,6417,51785,0,0,0
15778,6436,51800,0,0,0
15808,6451,51810,0,0,0
15829,6460,51810,0,0,0
15837,6462,51799,0,0,0
15833,6458,51778,0,0,0
15815,6451,51749,0,0,0
15786,6440,51711,0,0,0
15753,6424,51664,0,0,0
15719,6402,51610,0,0,0
15681,6376,51545,0,0,0
15639,6346,51472,0,0,0
15591,6315,51393,0,0,0
15541,6283,51314,0,0,0
15490,6252,51235,0,0,0
15437,6221,51161,0,0,0
15384,6192,51087,0,0,0
15331,6161,51011,0,0,0
15275,6131,50932,0,0,0
15217,6100,50850,0,0,0
15156,6069,50764,0,0,0
15087,6033,50672,0,0,0
15014,5995,50574,0,0,0
14935,5954,50470,0,0,0
14854,5912,50358,0,0,0
14774,5870,50242,0,0,0
14698,5830,50128,0,0,0
14626,5793,50019,0,0,0
14559,5759,49915,0,0,0
14499,5726,49815,0,0,0
14443,5695,49723,0,0,0
14387,5666,49639,0,0,0
14332,5641,49563,0,0,0
14282,5622,49501,0,0,0
14246,5611,49461,0,0,0
14230,5609,49448,0,0,0
14237,5618,49471,0,0,0
14277,5643,49547,0,0,0
14357,5689,49688,0,0,0
14483,5760,49904,0,0,0
14653,5856,50193,0,0,0
14868,5978,50557,0,0,0
15129,6122,50992,0,0,0
15431,6289,51492,0,0,0
15768,6475,52049,0,0,0
16133,6679,52645,0,0,0
16513,6895,53265,0,0,0
16899,7114,53890,0,0,0
17283,7334,54505,0,0,0
17661,7551,55098,0,0,0
18024,7760,55657,0,0,0
18363,7955,56173,0,0,0
18672,8131,56637,0,0,0
18947,8286,57041,0,0,0
19188,8418,57382,0,0,0
19389,8529,57662,0,0,0
19553,8619,57883,0,0,0
19681,8688,58050,0,0,0
19778,8739,58166,0,0,0
19848,8775,58238,0,0,0
19895,8797,58272,0,0,0
19918,8808,58276,0,0,0
19921,8808,58254,0,0,0
19907,8797,58211,0,0,0
19879,8778,58152,0,0,0
19842,8753,58085,0,0,0
19796,8724,58010,0,0,0
19740,8690,57925,0,0,0
19674,8651,57825,0,0,0
19596,8606,57709,0,0,0
19503,8554,57578,0,0,0
19395,8492,57428,0,0,0
19272,8421,57257,0,0,0
19137,8341,57065,0,0,0
18994,8257,56860,0,0,0
18849,8168,56643,0,0,0
18699,8075,56416,0,0,0
18540,7980,56180,0,0,0
18378,7888,55945,0,0,0
18223,7801,55720,0,0,0
18081,7724,55514,0,0,0
17954,7657,55331,0,0,0
17844,7597,55175,0,0,0
17757,7548,55050,0,0,0
17697,7513,54961,0,0,0
17668,7494,54910,0,0,0
17663,7486,54889,0,0,0
17678,7489,54891,0,0,0
17704,7501,54915,0,0,0
17733,7517,54953,0,0,0
17758,7530,54994,0,0,0
17778,7541,55029,0,0,0
17792,7551,55062,0,0,0
17802,7560,55095,0,0,0
17807,7565,55126,0,0,0
17807,7566,55149,0,0,0
17808,7567,55166,0,0,0
17813,7568,55179,0,0,0
17815,7566,55187,0,0,0
17813,7562,55185,0,0,0
17808,7555,55174,0,0,0
17798,7547,55157,0,0,0
17782,7537,55136,0,0,0
17759,7524,55107,0,0,0
17733,7509,55072,0,0,0
17703,7493,55028,0,0,0
17670,7476,54978,0,0,0
17633,7455,54921,0,0,0
17593,7431,54855,0,0,0
17549,7404,54779,0,0,0
17503,7374,54693,0,0,0
17457,7342,54598,0,0,0
17412,7311,54501,0,0,0
17370,7283,54405,0,0,0
17331,7258,54311,0,0,0
17296,7236,54223,0,0,0
17267,7217,54142,0,0,0
17244,7200,54066,0,0,0
17225,7185,53993,0,0,0
17209,7170,53923,0,0,0
17190,7157,53858,0,0,0
17166,7143,53795,0,0,0
17137,7127,53733,0,0,0
17105,7109,53671,0,0,0
17070,7089,53608,0,0,0
17030,7067,53541,0,0,0
16982,7040,53468,0,0,0
16929,7010,53393,0,0,0
16871,6980,53317,0,0,0
16807,6949,53238,0,0,0
16742,6917,53154,0,0,0
16680,6886,53070,0,0,0
16625,6856,52989,0,0,0
16576,6829,52910,0,0,0
16530,6802,52833,0,0,0
16487,6773,52759,0,0,0
16441,6743,52689,0,0,0
16394,6714,52623,0,0,0
16348,6688,52560,0,0,0
16307,6664,52498,0,0,0
16268,6642,52435,0,0,0
16230,6620,52368,0,0,0
16193,6600,52301,0,0,0
16159,6583,52238,0,0,0
16128,6569,52177,0,0,0
16101,6556,52121,0,0,0
16077,6544,52072,0,0,0
16055,6532,52028,0,0,0
16032,6520,51989,0,0,0
16007,6508,51952,0,0,0
15980,6495,51916,0,0,0
15952,6478,51879,0,0,0
15923,6460,51841,0,0,0
15895,6440,51801,0,0,0
15872,6423,51764,0,0,0
15853,6410,51728,0,0,0
15835,6397,51692,0,0,0
15819,6385,51655,0,0,0
15806,6376,51614,0,0,0
15791,6366,51565,0,0,0
15768,6351,51508,0,0,0
15736,6330,51438,0,0,0
15693,6304,51357,0,0,0
15638,6273,51265,0,0,0
15574,6239,51163,0,0,0
15505,6205,51056,0,0,0
15433,6171,50949,0,0,0
15363,6137,50848,0,0,0
15302,6106,50758,0,0,0
15257,6079,50684,0,0,0
15227,6061,50625,0,0,0
15216,6054,50589,0,0,0
15232,6059,50583,0,0,0
15276,6082,50614,0,0,0
15352,6124,50693,0,0,0
15462,6187,50832,0,0,0
15614,6273,51039,0,0,0
15816,6385,51320,0,0,0
16068,6524,51679,0,0,0
16368,6693,52115,0,0,0
16711,6886,52623,0,0,0
17090,7101,53192,0,0,0
17499,7335,53810,0,0,0
17932,7584,54461,0,0,0
18380,7842,55132,0,0,0
18831,8102,55808,0,0,0
19277,8361,56471,0,0,0
19706,8612,57109,0,0,0
20113,8849,57711,0,0,0
20492,9067,58268,0,0,0
20836,9263,58771,0,0,0
21140,9438,59211,0,0,0
21398,9588,59585,0,0,0
21617,9716,59896,0,0,0
21800,9824,60150,0,0,0
21953,9915,60354,0,0,0
22079,9989,60511,0,0,0
22181,10047,60623,0,0,0
22265,10094,60700,0,0,0
22337,10131,60748,0,0,0
22396,10159,60772,0,0,0
22446,10181,60778,0,0,0
22488,10197,60770,0,0,0
22520,10208,60752,0,0,0
22538,10213,60726,0,0,0
22541,10208,60691,0,0,0
22527,10189,60640,0,0,0
22494,10159,60569,0,0,0
22436,10119,60477,0,0,0
22354,10063,60358,0,0,0
22244,9991,60207,0,0,0
22108,9904,60021,0,0,0
21947,9805,59804,0,0,0
21766,9693,59562,0,0,0
21569,9571,59300,0,0,0
21362,9444,59027,0,0,0
21153,9319,58751,0,0,0
20947,9199,58480,0,0,0
20751,9085,58219,0,0,0
20574,8980,57979,0,0,0
20423,8890,57771,0,0,0
20297,8817,57599,0,0,0
20194,8760,57465,0,0,0
20115,8714,57366,0,0,0
20061,8680,57297,0,0,0
20024,8656,57253,0,0,0
19999,8643,57231,0,0,0
19985,8636,57225,0,0,0
19981,8634,57232,0,0,0
19979,8637,57246,0,0,0
19972,8641,57261,0,0,0
19959,8642,57270,0,0,0
19935,8636,57270,0,0,0
19902,8623,57261,0,0,0
19860,8603,57243,0,0,0
19807,8575,57210,0,0,0
19746,8540,57163,0,0,0
19679,8501,57101,0,0,0
19603,8458,57023,0,0,0
19516,8412,56931,0,0,0
19424,8364,56831,0,0,0
19330,8317,56725,0,0,0
19234,8267,56612,0,0,0
19133,8214,56488,0,0,0
19033,8161,56360,0,0,0
18939,8112,56235,0,0,0
18850,8061,56112,0,0,0
18766,8009,55991,0,0,0
18689,7959,55875,0,0,0
18616,7913,55761,0,0,0
18535,7867,55641,0,0,0
18447,7819,55514,0,0,0
18359,7769,55385,0,0,0
18271,7721,55256,0,0,0
18180,7672,55125,0,0,0
18084,7621,54991,0,0,0
17985,7568,54857,0,0,0
17886,7514,54722,0,0,0
17786,7458,54584,0,0,0
17688,7405,54452,0,0,0
17598,7356,54329,0,0,0
17515,7311,54215,0,0,0
17437,7272,54106,0,0,0
17362,7237,53999,0,0,0
17290,7206,53897,0,0,0
17226,7176,53802,0,0,0
17172,7149,53716,0,0,0
17127,7126,53641,0,0,0
17088,7107,53575,0,0,0
17055,7093,53516,0,0,0
17024,7080,53463,0,0,0
16994,7066,53413,0,0,0
16963,7050,53360,0,0,0
16926,7028,53301,0,0,0
16882,7003,53233,0,0,0
16835,6975,53159,0,0,0
16784,6944,53080,0,0,0
16730,6908,52998,0,0,0
16668,6869,52911,0,0,0
16600,6828,52824,0,0,0
16530,6788,52738,0,0,0
16460,6751,52654,0,0,0
16390,6716,52570,0,0,0
16320,6683,52483,0,0,0
16253,6651,52392,0,0,0
16189,6620,52298,0,0,0
16128,6588,52207,0,0,0
16070,6558,52121,0,0,0
16020,6532,52046,0,0,0
15982,6511,51986,0,0,0
15956,6498,51942,0,0,0
15942,6490,51913,0,0,0
15936,6485,51894,0,0,0
15937,6483,51879,0,0,0
15946,6486,51870,0,0,0
15960,6491,51863,0,0,0
15969,6494,51852,0,0,0
15969,6492,51829,0,0,0
15960,6482,51794,0,0,0
15942,6466,51749,0,0,0
15914,6444,51693,0,0,0
15874,6416,51626,0,0,0
15821,6383,51547,0,0,0
15754,6346,51454,0,0,0
15674,6304,51346,0,0,0
15584,6258,51226,0,0,0
15488,6211,51098,0,0,0
15388,6162,50966,0,0,0
15283,6111,50832,0,0,0
15180,6060,50697,0,0,0
15081,6009,50563,0,0,0
14990,5963,50438,0,0,0
14913,5924,50331,0,0,0
14861,5899,50251,0,0,0
14843,5893,50217,0,0,0
14867,5910,50246,0,0,0
14944,5955,50353,0,0,0
15082,6033,50551,0,0,0
15286,6149,50849,0,0,0
15558,6304,51252,0,0,0
15893,6496,51755,0,0,0
16287,6720,52352,0,0,0
16732,6973,53030,0,0,0
17215,7250,53770,0,0,0
17721,7541,54545,0,0,0
18236,7836,55331,0,0,0
18745,8130,56102,0,0,0
19234,8414,56843,0,0,0
19695,8682,57535,0,0,0
20115,8926,58163,0,0,0
20485,9142,58719,0,0,0
20799,9325,59201,0,0,0
21062,9477,59604,0,0,0
21275,9600,59928,0,0,0
21441,9693,60179,0,0,0
21562,9759,60362,0,0,0
21643,9802,60484,0,0,0
21691,9827,60552,0,0,0
21713,9836,60577,0,0,0
21713,9834,60570,0,0,0
21701,9825,60545,0,0,0
21687,9816,60513,0,0,0
21675,9810,60481,0,0,0
21670,9809,60457,0,0,0
21677,9813,60444,0,0,0
21695,9823,60443,0,0,0
21723,9837,60446,0,0,0
21754,9850,60452,0,0,0
21783,9862,60459,0,0,0
21805,9870,60463,0,0,0
21818,9872,60459,0,0,0
21814,9867,60437,0,0,0
21793,9851,60389,0,0,0
21752,9823,60313,0,0,0
21690,9782,60207,0,0,0
21602,9727,60070,0,0,0
21490,9658,59903,0,0,0
21358,9576,59708,0,0,0
21212,9485,59490,0,0,0
21056,9386,59255,0,0,0
20894,9282,59014,0,0,0
20732,9180,58778,0,0,0
20577,9086,58553,0,0,0
20436,9002,58348,0,0,0
20315,8930,58169,0,0,0
20221,8874,58024,0,0,0
20152,8833,57916,0,0,0
20107,8807,57844,0,0,0
20087,8797,57808,0,0,0
20092,8802,57803,0,0,0
20114,8818,57825,0,0,0
20149,8839,57862,0,0,0
20189,8861,57907,0,0,0
20227,8884,57959,0,0,0
20262,8908,58012,0,0,0
20290,8926,58060,0,0,0
20307,8937,58093,0,0,0
20314,8942,58111,0,0,0
20309,8941,58115,0,0,0
20292,8932,58103,0,0,0
20264,8915,58075,0,0,0
20229,8895,58036,0,0,0
20191,8872,57989,0,0,0
20153,8849,57935,0,0,0
20117,8829,57877,0,0,0
20085,8813,57818,0,0,0
20052,8798,57756,0,0,0
20017,8781,57688,0,0,0
19982,8763,57616,0,0,0
19949,8742,57543,0,0,0
19912,8716,57466,0,0,0
19865,8683,57379,0,0,0
19809,8644,57281,0,0,0
19747,8603,57174,0,0,0
19681,8559,57062,0,0,0
19609,8512,56943,0,0,0
19527,8463,56817,0,0,0
19441,8413,56686,0,0,0
19354,8365,56553,0,0,0
19264,8317,56414,0,0,0
19170,8269,56271,0,0,0
19075,8219,56127,0,0,0
18978,8167,55985,0,0,0
18881,8113,55849,0,0,0
18789,8061,55718,0,0,0
18707,8012,55594,0,0,0
18636,7967,55478,0,0,0
18574,7929,55375,0,0,0
18526,7899,55291,0,0,0
18490,7879,55222,0,0,0
18468,7867,55167,0,0,0
18459,7863,55127,0,0,0
18461,7864,55099,0,0,0
18466,7867,55076,0,0,0
18470,7867,55049,0,0,0
18467,7864,55015,0,0,0
18453,7856,54973,0,0,0
18424,7839,54922,0,0,0
18381,7813,54859,0,0,0
18327,7777,54784,0,0,0
18262,7736,54696,0,0,0
18185,7690,54597,0,0,0
18103,7640,54489,0,0,0
18020,7588,54377,0,0,0
17936,7540,54264,0,0,0
17851,7496,54153,0,0,0
17770,7456,54043,0,0,0
17697,7418,53940,0,0,0
17635,7385,53849,0,0,0
17583,7357,53768,0,0,0
17539,7332,53694,0,0,0
17504,7311,53626,0,0,0
17475,7293,53563,0,0,0
17451,7275,53499,0,0,0
17429,7257,53433,0,0,0
17404,7239,53370,0,0,0
17374,7220,53309,0,0,0
17336,7198,53243,0,0,0
17289,7171,53172,0,0,0
17234,7140,53096,0,0,0
17172,7108,53016,0,0,0
17108,7073,52930,0,0,0
17041,7034,52838,0,0,0
16969,6993,52740,0,0,0
16891,6948,52637,0,0,0
16809,6902,52531,0,0,0
16725,6854,52422,0,0,0
16642,6808,52313,0,0,0
16560,6764,52204,0,0,0
16477,6721,52091,0,0,0
16391,6676,51971,0,0,0
16305,6631,51846,0,0,0
16222,6587,51720,0,0,0
16143,6544,51593,0,0,0
16070,6505,51469,0,0,0
16008,6471,51355,0,0,0
15959,6445,51255,0,0,0
15921,6422,51169,0,0,0
15896,6407,51101,0,0,0
15894,6406,51063,0,0,0
15920,6422,51073,0,0,0
15980,6458,51143,0,0,0
16082,6519,51288,0,0,0
16240,6612,51519,0,0,0
16462,6742,51844,0,0,0
16747,6907,52267,0,0,0
17092,7105,52787,0,0,0
17491,7332,53388,0,0,0
17929,7583,54051,0,0,0
18387,7847,54757,0,0,0
18855,8118,55487,0,0,0
19322,8392,56220,0,0,0
19777,8662,56935,0,0,0
20211,8922,57615,0,0,0
20618,9164,58248,0,0,0
20996,9384,58828,0,0,0
21340,9581,59350,0,0,0
21649,9758,59813,0,0,0
21925,9918,60219,0,0,0
22168,10061,60571,0,0,0
22376,10185,60869,0,0,0
22550,10289,61114,0,0,0
22689,10371,61309,0,0,0
22800,10435,61458,0,0,0
22888,10484,61566,0,0,0
22955,10520,61636,0,0,0
22998,10543,61673,0,0,0
23021,10555,61678,0,0,0
23024,10552,61654,0,0,0
23012,10539,61606,0,0,0
22989,10521,61544,0,0,0
22959,10496,61470,0,0,0
22921,10464,61386,0,0,0
22876,10427,61296,0,0,0
22823,10387,61204,0,0,0
22765,10347,61109,0,0,0
22701,10305,61010,0,0,0
22632,10261,60906,0,0,0
22556,10213,60795,0,0,0
22472,10160,60673,0,0,0
22377,10102,60533,0,0,0
22269,10038,60374,0,0,0
22145,9966,60193,0,0,0
22003,9884,59987,0,0,0
21851,9796,59761,0,0,0
21696,9703,59526,0,0,0
21546,9610,59292,0,0,0
21399,9518,59066,0,0,0
21256,9430,58855,0,0,0
21126,9352,58663,0,0,0
21015,9289,58499,0,0,0
20925,9239,58368,0,0,0
20854,9199,58270,0,0,0
20802,9168,58201,0,0,0
20764,9145,58157,0,0,0
20739,9129,58130,0,0,0
20721,9118,58113,0,0,0
20707,9109,58103,0,0,0
20694,9101,58094,0,0,0
20679,9091,58077,0,0,0
20661,9079,58049,0,0,0
20633,9062,58011,0,0,0
20594,9040,57965,0,0,0
20550,9014,57913,0,0,0
20508,8987,57860,0,0,0
20464,8959,57807,0,0,0
20417,8931,57753,0,0,0
20368,8903,57696,0,0,0
20321,8873,57636,0,0,0
20279,8845,57575,0,0,0
20243,8819,57517,0,0,0
20212,8798,57463,0,0,0
20182,8781,57407,0,0,0
20153,8766,57349,0,0,0
20124,8751,57287,0,0,0
20092,8734,57215,0,0,0
20055,8712,57133,0,0,0
20015,8688,57040,0,0,0
19972,8663,56938,0,0,0
19920,8631,56826,0,0,0
19858,8591,56704,0,0,0
19786,8546,56575,0,0,0
19710,8498,56442,0,0,0
19633,8448,56311,0,0,0
19560,8400,56187,0,0,0
19493,8355,56069,0,0,0
19433,8316,55959,0,0,0
19378,8282,55859,0,0,0
19329,8252,55770,0,0,0
19286,8224,55687,0,0,0
19245,8194,55605,0,0,0
19204,8161,55523,0,0,0
19161,8129,55442,0,0,0
19113,8098,55360,0,0,0
19062,8065,55274,0,0,0
19011,8032,55188,0,0,0
18959,7999,55102,0,0,0
18904,7968,55016,0,0,0
18845,7937,54927,0,0,0
18785,7905,54838,0,0,0
18724,7875,54750,0,0,0
18664,7844,54662,0,0,0
18605,7813,54573,0,0,0
18549,7782,54486,0,0,0
18496,7753,54406,0,0,0
18446,7723,54330,0,0,0
18393,7691,54251,0,0,0
18336,7656,54171,0,0,0
18277,7624,54089,0,0,0
18216,7594,54003,0,0,0
18150,7559,53912,0,0,0
18080,7518,53818,0,0,0
18011,7478,53723,0,0,0
17946,7442,53632,0,0,0
17888,7409,53549,0,0,0
17841,7380,53476,0,0,0
17810,7357,53414,0,0,0
17790,7341,53362,0,0,0
17777,7329,53317,0,0,0
17766,7321,53277,0,0,0
17759,7317,53242,0,0,0
17755,7315,53212,0,0,0
17750,7313,53183,0,0,0
17743,7309,53150,0,0,0
17730,7302,53113,0,0,0
17707,7289,53068,0,0,0
17670,7268,53011,0,0,0
17618,7237,52939,0,0,0
17547,7198,52850,0,0,0
17460,7151,52742,0,0,0
17360,7098,52617,0,0,0
17252,7039,52479,0,0,0
17135,6977,52335,0,0,0
17009,6912,52183,0,0,0
16875,6847,52026,0,0,0
16742,6782,51868,0,0,0
16610,6714,51712,0,0,0
16480,6645,51557,0,0,0
16355,6575,51405,0,0,0
16234,6509,51256,0,0,0
16117,6446,51108,0,0,0
16001,6386,50959,0,0,0
15887,6326,50811,0,0,0
15777,6267,50668,0,0,0
15672,6210,50529,0,0,0
15573,6155,50390,0,0,0
15479,6105,50255,0,0,0
15391,6060,50128,0,0,0
15308,6019,50012,0,0,0
15230,5981,49909,0,0,0
15165,5950,49829,0,0,0
15119,5932,49782,0,0,0
15101,5928,49780,0,0,0
15116,5943,49834,0,0,0
15174,5983,49959,0,0,0
15287,6052,50167,0,0,0
15463,6154,50469,0,0,0
15705,6291,50868,0,0,0
16012,6462,51362,0,0,0
16377,6666,51938,0,0,0
16790,6898,52584,0,0,0
17237,7154,53281,0,0,0
17708,7428,54007,0,0,0
18189,7708,54744,0,0,0
18664,7986,55471,0,0,0
19120,8250,56164,0,0,0
19542,8494,56804,0,0,0
19920,8713,57380,0,0,0
20249,8904,57885,0,0,0
20529,9066,58316,0,0,0
20764,9204,58677,0,0,0
20959,9319,58971,0,0,0
21116,9410,59203,0,0,0
21236,9478,59375,0,0,0
21323,9526,59494,0,0,0
21380,9555,59565,0,0,0
21408,9566,59595,0,0,0
21411,9560,59587,0,0,0
21394,9541,59548,0,0,0
21360,9513,59483,0,0,0
21314,9477,59393,0,0,0
21257,9434,59286,0,0,0
21190,9389,59170,0,0,0
21114,9341,59048,0,0,0
21025,9288,58920,0,0,0
20927,9229,58786,0,0,0
20828,9169,58649,0,0,0
20731,9111,58508,0,0,0
20634,9052,58361,0,0,0
20535,8994,58207,0,0,0
20432,8935,58046,0,0,0
20327,8873,57876,0,0,0
20216,8804,57698,0,0,0
20100,8731,57515,0,0,0
19979,8657,57330,0,0,0
19860,8584,57145,0,0,0
19746,8513,56962,0,0,0
19638,8446,56782,0,0,0
19534,8382,56610,0,0,0
19434,8321,56449,0,0,0
19343,8262,56301,0,0,0
19263,8209,56168,0,0,0
19192,8164,56053,0,0,0
19129,8125,55954,0,0,0
19073,8092,55870,0,0,0
19026,8069,55802,0,0,0
18988,8050,55746,0,0,0
18957,8033,55700,0,0,0
18936,8020,55668,0,0,0
18930,8014,55655,0,0,0
18937,8016,55658,0,0,0
18955,8025,55669,0,0,0
18986,8037,55687,0,0,0
19028,8053,55715,0,0,0
19076,8075,55749,0,0,0
19123,8100,55786,0,0,0
19163,8123,55817,0,0,0
19195,8143,55842,0,0,0
19219,8156,55857,0,0,0
19224,8160,55854,0,0,0
19206,8153,55827,0,0,0
19168,8133,55773,0,0,0
19112,8100,55694,0,0,0
19035,8055,55586,0,0,0
18940,8001,55452,0,0,0
18827,7939,55298,0,0,0
18701,7868,55130,0,0,0
18569,7792,54949,0,0,0
18437,7716,54760,0,0,0
18310,7641,54574,0,0,0
18190,7569,54398,0,0,0
18082,7506,54234,0,0,0
17986,7453,54081,0,0,0
17905,7408,53942,0,0,0
17837,7367,53819,0,0,0
17775,7330,53707,0,0,0
17716,7295,53600,0,0,0
17658,7261,53495,0,0,0
17597,7226,53394,0,0,0
17529,7186,53294,0,0,0
17453,7145,53194,0,0,0
17371,7103,53093,0,0,0
17284,7060,52988,0,0,0
17190,7012,52877,0,0,0
17094,6960,52759,0,0,0
16997,6908,52639,0,0,0
16897,6852,52514,0,0,0
16791,6793,52385,0,0,0
16685,6735,52253,0,0,0
16579,6677,52117,0,0,0
16471,6620,51983,0,0,0
16365,6565,51854,0,0,0
16269,6517,51735,0,0,0
16191,6479,51628,0,0,0
16130,6450,51534,0,0,0
16081,6428,51453,0,0,0
16043,6410,51385,0,0,0
16013,6393,51328,0,0,0
15986,6374,51274,0,0,0
15955,6355,51218,0,0,0
15915,6334,51159,0,0,0
15865,6311,51095,0,0,0
15802,6285,51023,0,0,0
15728,6253,50941,0,0,0
15642,6213,50851,0,0,0
15544,6166,50753,0,0,0
15439,6113,50647,0,0,0
15330,6058,50538,0,0,0
15218,6003,50426,0,0,0
15104,5948,50310,0,0,0
14992,5892,50190,0,0,0
14884,5839,50073,0,0,0
14786,5792,49960,0,0,0
14701,5749,49852,0,0,0
14630,5713,49751,0,0,0
14574,5683,49662,0,0,0
14531,5658,49586,0,0,0
14500,5640,49524,0,0,0
14480,5629,49471,0,0,0
14467,5622,49426,0,0,0
14460,5617,49387,0,0,0
14456,5612,49351,0,0,0
14454,5608,49318,0,0,0
14454,5604,49287,0,0,0
14453,5598,49256,0,0,0
14447,5585,49220,0,0,0
14433,5567,49176,0,0,0
14410,5548,49126,0,0,0
14378,5530,49071,0,0,0
14340,5512,49009,0,0,0
14298,5494,48941,0,0,0
14252,5474,48867,0,0,0
14201,5452,48788,0,0,0
14145,5424,48702,0,0,0
14084,5391,48606,0,0,0
14021,5357,48503,0,0,0
13955,5322,48393,0,0,0
13882,5284,48276,0,0,0
13804,5243,48152,0,0,0
13724,5199,48026,0,0,0
13645,5154,47902,0,0,0
13571,5112,47783,0,0,0
13506,5077,47675,0,0,0
13454,5050,47587,0,0,0
13423,5037,47535,0,0,0
13422,5039,47531,0,0,0
13461,5062,47588,0,0,0
13549,5111,47723,0,0,0
13695,5193,47949,0,0,0
13904,5307,48273,0,0,0
14175,5454,48696,0,0,0
14504,5632,49210,0,0,0
14885,5839,49805,0,0,0
15309,6068,50465,0,0,0
15764,6312,51169,0,0,0
16236,6568,51898,0,0,0
16713,6828,52628,0,0,0
17179,7083,53340,0,0,0
17622,7328,54014,0,0,0
18033,7555,54638,0,0,0
18405,7760,55200,0,0,0
18731,7941,55690,0,0,0
19009,8098,56106,0,0,0
19239,8227,56445,0,0,0
19422,8326,56706,0,0,0
19557,8394,56895,0,0,0
19644,8436,57018,0,0,0
19687,8455,57078,0,0,0
19690,8457,57083,0,0,0
19663,8441,57046,0,0,0
19617,8413,56977,0,0,0
19559,8377,56883,0,0,0
19492,8335,56771,0,0,0
19417,8290,56646,0,0,0
19341,8244,56514,0,0,0
19266,8199,56381,0,0,0
19191,8154,56247,0,0,0
19114,8108,56115,0,0,0
19032,8062,55985,0,0,0
18943,8014,55850,0,0,0
18845,7960,55705,0,0,0
18737,7900,55548,0,0,0
18618,7833,55380,0,0,0
18486,7756,55198,0,0,0
18337,7667,54993,0,0,0
18173,7568,54764,0,0,0
17992,7464,54517,0,0,0
17799,7356,54256,0,0,0
17601,7247,53986,0,0,0
17404,7139,53714,0,0,0
17217,7036,53449,0,0,0
17046,6944,53201,0,0,0
16894,6862,52981,0,0,0
16766,6794,52795,0,0,0
16665,6743,52650,0,0,0
16594,6710,52547,0,0,0
16550,6694,52488,0,0,0
16534,6693,52468,0,0,0
16542,6702,52482,0,0,0
16571,6723,52524,0,0,0
16617,6752,52588,0,0,0
16676,6788,52668,0,0,0
16743,6826,52757,0,0,0
16812,6861,52846,0,0,0
16877,6891,52931,0,0,0
16934,6918,53005,0,0,0
16976,6937,53059,0,0,0
16998,6942,53090,0,0,0
17000,6934,53096,0,0,0
16982,6916,53082,0,0,0
16946,6892,53044,0,0,0
16891,6861,52981,0,0,0
16825,6825,52900,0,0,0
16756,6788,52812,0,0,0
16689,6753,52722,0,0,0
16626,6720,52632,0,0,0
16573,6689,52542,0,0,0
16527,6662,52457,0,0,0
16484,6641,52378,0,0,0
16441,6620,52302,0,0,0
16396,6597,52228,0,0,0
16350,6572,52158,0,0,0
16304,6546,52087,0,0,0
16254,6518,52009,0,0,0
16196,6485,51920,0,0,0
16127,6444,51817,0,0,0
16047,6397,51699,0,0,0
15949,6345,51562,0,0,0
15840,6289,51409,0,0,0
15728,6229,51245,0,0,0
15616,6168,51075,0,0,0
15506,6108,50908,0,0,0
15403,6052,50752,0,0,0
15307,6001,50608,0,0,0
15219,5953,50478,0,0,0
15144,5912,50363,0,0,0
15083,5878,50267,0,0,0
15035,5850,50192,0,0,0
14998,5828,50133,0,0,0
14969,5813,50082,0,0,0
14950,5801,50037,0,0,0
14937,5793,49993,0,0,0
14922,5786,49946,0,0,0
14902,5778,49895,0,0,0
14875,5766,49837,0,0,0
14839,5748,49772,0,0,0
14793,5722,49699,0,0,0
14732,5687,49615,0,0,0
14653,5644,49517,0,0,0
14559,5594,49402,0,0,0
14452,5540,49271,0,0,0
14331,5479,49128,0,0,0
14205,5415,48979,0,0,0
14083,5353,48833,0,0,0
13972,5296,48699,0,0,0
13874,5247,48578,0,0,0
13795,5208,48472,0,0,0
13732,5178,48381,0,0,0
13687,5155,48308,0,0,0
13659,5140,48254,0,0,0
13644,5132,48214,0,0,0
13636,5128,48181,0,0,0
13628,5126,48154,0,0,0
13614,5123,48127,0,0,0
13593,5117,48095,0,0,0
13561,5106,48051,0,0,0
13516,5087,47993,0,0,0
13459,5058,47921,0,0,0
13390,5022,47834,0,0,0
13311,4979,47732,0,0,0
13220,4934,47616,0,0,0
13117,4887,47487,0,0,0
13006,4833,47347,0,0,0
12890,4774,47202,0,0,0
12773,4712,47053,0,0,0
12660,4652,46909,0,0,0
12553,4597,46770,0,0,0
12454,4546,46638,0,0,0
12363,4498,46511,0,0,0
12282,4454,46391,0,0,0
12211,4416,46278,0,0,0
12148,4383,46175,0,0,0
12089,4354,46080,0,0,0
12032,4326,45989,0,0,0
11973,4300,45902,0,0,0
11913,4275,45815,0,0,0
11851,4249,45731,0,0,0
11792,4228,45656,0,0,0
11743,4212,45598,0,0,0
11707,4203,45566,0,0,0
11694,4205,45570,0,0,0
11714,4223,45627,0,0,0
11781,4263,45755,0,0,0
11903,4329,45966,0,0,0
12089,4424,46265,0,0,0
12335,4548,46653,0,0,0
12634,4699,47122,0,0,0
12973,4873,47661,0,0,0
13343,5064,48256,0,0,0
13739,5269,48890,0,0,0
14150,5481,49541,0,0,0
14563,5694,50189,0,0,0
14965,5902,50814,0,0,0
15346,6101,51408,0,0,0
15703,6289,51961,0,0,0
16029,6462,52462,0,0,0
16318,6617,52902,0,0,0
16569,6752,53284,0,0,0
16782,6870,53610,0,0,0
16957,6967,53878,0,0,0
17095,7043,54086,0,0,0
17196,7097,54238,0,0,0
17263,7132,54340,0,0,0
17298,7148,54394,0,0,0
17304,7147,54403,0,0,0
17287,7133,54372,0,0,0
17248,7107,54305,0,0,0
17188,7071,54208,0,0,0
17109,7026,54088,0,0,0
17015,6973,53951,0,0,0
16908,6916,53799,0,0,0
16796,6856,53635,0,0,0
16680,6795,53462,0,0,0
16562,6731,53283,0,0,0
16441,6666,53095,0,0,0
16313,6599,52901,0,0,0
16177,6528,52701,0,0,0
16035,6453,52495,0,0,0
15889,6376,52282,0,0,0
15739,6295,52058,0,0,0
15584,6211,51824,0,0,0
15425,6125,51587,0,0,0
15263,6039,51351,0,0,0
15102,5954,51119,0,0,0
14946,5873,50894,0,0,0
14800,5798,50685,0,0,0
14673,5732,50499,0,0,0
14568,5676,50341,0,0,0
14482,5631,50211,0,0,0
14415,5597,50114,0,0,0
14368,5573,50046,0,0,0
14335,5558,50002,0,0,0
14315,5549,49979,0,0,0
14304,5546,49973,0,0,0
14301,5548,49977,0,0,0
14301,5552,49985,0,0,0
14296,5553,49995,0,0,0
14284,5551,50004,0,0,0
14265,5543,50006,0,0,0
14239,5532,49999,0,0,0
14209,5518,49984,0,0,0
14172,5502,49962,0,0,0
14131,5485,49930,0,0,0
14084,5464,49885,0,0,0
14031,5439,49828,0,0,0
13973,5412,49761,0,0,0
13912,5383,49688,0,0,0
13848,5352,49609,0,0,0
13781,5320,49527,0,0,0
13713,5286,49440,0,0,0
13643,5247,49348,0,0,0
13566,5204,49248,0,0,0
13484,5157,49139,0,0,0
13395,5110,49022,0,0,0
13299,5061,48897,0,0,0
13198,5013,48764,0,0,0
13095,4964,48628,0,0,0
12989,4915,48487,0,0,0
12881,4864,48342,0,0,0
12771,4810,48193,0,0,0
12658,4753,48041,0,0,0
12542,4698,47890,0,0,0
12425,4646,47740,0,0,0
12308,4594,47591,0,0,0
12197,4543,47447,0,0,0
12090,4496,47308,0,0,0
11986,4451,47171,0,0,0
11887,4407,47038,0,0,0
11790,4361,46902,0,0,0
11690,4313,46762,0,0,0
11586,4263,46621,0,0,0
11480,4213,46477,0,0,0
11371,4162,46330,0,0,0
11263,4111,46182,0,0,0
11156,4059,46038,0,0,0
11051,4007,45900,0,0,0
10949,3957,45768,0,0,0
10850,3910,45643,0,0,0
10756,3868,45524,0,0,0
10671,3832,45416,0,0,0
10599,3801,45321,0,0,0
10539,3774,45240,0,0,0
10489,3750,45168,0,0,0
10443,3727,45104,0,0,0
10393,3704,45039,0,0,0
10338,3680,44971,0,0,0
10278,3654,44902,0,0,0
10219,3630,44832,0,0,0
10157,3605,44759,0,0,0
10089,3576,44683,0,0,0
10020,3542,44603,0,0,0
9951,3507,44519,0,0,0
9882,3471,44432,0,0,0
9809,3436,44342,0,0,0
9737,3403,44251,0,0,0
9667,3371,44162,0,0,0
9597,3343,44075,0,0,0
9523,3315,43988,0,0,0
9446,3284,43899,0,0,0
9369,3252,43805,0,0,0
9295,3220,43709,0,0,0
9224,3189,43613,0,0,0
9154,3159,43517,0,0,0
9085,3131,43424,0,0,0
9018,3103,43335,0,0,0
8953,3074,43251,0,0,0
8894,3044,43173,0,0,0
8842,3014,43098,0,0,0
8792,2986,43026,0,0,0
8742,2958,42953,0,0,0
8688,2931,42875,0,0,0
8627,2903,42789,0,0,0
8556,2874,42695,0,0,0
8478,2844,42595,0,0,0
8396,2813,42487,0,0,0
8308,2780,42373,0,0,0
8217,2745,42256,0,0,0
8124,2709,42137,0,0,0
8033,2671,42020,0,0,0
7944,2633,41907,0,0,0
7861,2597,41800,0,0,0
7789,2564,41708,0,0,0
7735,2539,41646,0,0,0
7710,2528,41625,0,0,0
7725,2534,41657,0,0,0
7785,2564,41750,0,0,0
7895,2619,41920,0,0,0
8061,2702,42178,0,0,0
8287,2812,42528,0,0,0
8575,2949,42972,0,0,0
8920,3113,43503,0,0,0
9313,3303,44111,0,0,0
9741,3511,44777,0,0,0
10192,3733,45478,0,0,0
10654,3961,46194,0,0,0
11113,4187,46903,0,0,0
11555,4405,47587,0,0,0
11970,4611,48228,0,0,0
12348,4800,48815,0,0,0
12687,4969,49342,0,0,0
12983,5117,49805,0,0,0
13236,5244,50195,0,0,0
13449,5350,50514,0,0,0
13626,5436,50766,0,0,0
13770,5506,50959,0,0,0
13887,5562,51103,0,0,0
13978,5604,51206,0,0,0
14044,5632,51270,0,0,0
14084,5648,51299,0,0,0
14099,5652,51292,0,0,0
14089,5646,51250,0,0,0
14056,5628,51178,0,0,0
14004,5602,51084,0,0,0
13936,5567,50975,0,0,0
13854,5528,50852,0,0,0
13761,5483,50718,0,0,0
13659,5433,50575,0,0,0
13551,5381,50423,0,0,0
13439,5326,50263,0,0,0
13321,5268,50096,0,0,0
13197,5205,49922,0,0,0
13068,5139,49741,0,0,0
12932,5070,49553,0,0,0
12788,4998,49355,0,0,0
12642,4924,49145,0,0,0
12493,4848,48927,0,0,0
12342,4772,48707,0,0,0
12192,4696,48490,0,0,0
12049,4622,48281,0,0,0
11913,4554,48087,0,0,0
11786,4492,47906,0,0,0
11673,4438,47741,0,0,0
11578,4393,47597,0,0,0
11498,4356,47474,0,0,0
11435,4326,47373,0,0,0
11385,4301,47292,0,0,0
11342,4281,47231,0,0,0
11306,4266,47187,0,0,0
11273,4256,47157,0,0,0
11246,4248,47139,0,0,0
11224,4242,47131,0,0,0
11205,4234,47128,0,0,0
11182,4223,47122,0,0,0
11155,4210,47112,0,0,0
11129,4198,47105,0,0,0
11110,4188,47100,0,0,0
11093,4179,47095,0,0,0
11077,4171,47084,0,0,0
11063,4167,47072,0,0,0
11052,4166,47062,0,0,0
11043,4166,47050,0,0,0
11036,4166,47031,0,0,0
11029,4165,47007,0,0,0
11019,4163,46976,0,0,0
11002,4156,46938,0,0,0
10976,4145,46894,0,0,0
10945,4129,46844,0,0,0
10907,4110,46783,0,0,0
10859,4085,46706,0,0,0
10799,4052,46610,0,0,0
10729,4016,46498,0,0,0
10650,3975,46375,0,0,0
10565,3933,46244,0,0,0
10479,3891,46108,0,0,0
10393,3848,45970,0,0,0
10309,3806,45834,0,0,0
10228,3767,45701,0,0,0
10152,3730,45575,0,0,0
10081,3694,45457,0,0,0
10014,3661,45346,0,0,0
9951,3631,45244,0,0,0
9897,3606,45154,0,0,0
9852,3587,45075,0,0,0
9810,3571,45000,0,0,0
9768,3555,44924,0,0,0
9724,3536,44850,0,0,0
9681,3516,44779,0,0,0
9633,3493,44703,0,0,0
9579,3467,44618,0,0,0
9519,3439,44526,0,0,0
9451,3406,44431,0,0,0
9372,3368,44330,0,0,0
9281,3327,44219,0,0,0
9184,3283,44097,0,0,0
9081,3239,43966,0,0,0
8973,3194,43830,0,0,0
8862,3149,43695,0,0,0
8756,3105,43565,0,0,0
8660,3064,43443,0,0,0
8579,3028,43333,0,0,0
8511,2998,43236,0,0,0
8456,2972,43156,0,0,0
8414,2950,43094,0,0,0
8385,2933,43046,0,0,0
8365,2921,43008,0,0,0
8351,2912,42972,0,0,0
8338,2904,42935,0,0,0
8325,2893,42897,0,0,0
8314,2881,42858,0,0,0
8301,2871,42820,0,0,0
8286,2864,42783,0,0,0
8268,2857,42745,0,0,0
8247,2848,42701,0,0,0
8225,2840,42652,0,0,0
8199,2832,42600,0,0,0
8169,2821,42541,0,0,0
8136,2806,42477,0,0,0
8102,2791,42415,0,0,0
8067,2777,42357,0,0,0
8035,2764,42303,0,0,0
8009,2752,42255,0,0,0
7986,2741,42213,0,0,0
7964,2731,42173,0,0,0
7944,2721,42130,0,0,0
7923,2708,42083,0,0,0
7898,2692,42030,0,0,0
7866,2673,41973,0,0,0
7826,2650,41910,0,0,0
7780,2627,41839,0,0,0
7733,2604,41761,0,0,0
7686,2582,41679,0,0,0
7642,2561,41596,0,0,0
7599,2543,41514,0,0,0
7558,2526,41434,0,0,0
7515,2510,41358,0,0,0
7474,2495,41286,0,0,0
7440,2484,41224,0,0,0
7417,2479,41180,0,0,0
7412,2479,41165,0,0,0
7432,2490,41194,0,0,0
7490,2518,41282,0,0,0
7599,2569,41445,0,0,0
7764,2646,41693,0,0,0
7988,2750,42033,0,0,0
8271,2883,42467,0,0,0
8612,3045,42992,0,0,0
9010,3234,43598,0,0,0
9457,3446,44267,0,0,0
9941,3673,44984,0,0,0
10445,3911,45726,0,0,0
10949,4153,46470,0,0,0
11441,4393,47197,0,0,0
11910,4622,47889,0,0,0
12347,4835,48529,0,0,0
12744,5029,49104,0,0,0
13095,5200,49610,0,0,0
13398,5349,50045,0,0,0
13651,5474,50409,0,0,0
13852,5571,50698,0,0,0
14004,5642,50912,0,0,0
14110,5690,51058,0,0,0
14176,5719,51143,0,0,0
14202,5729,51171,0,0,0
14193,5722,51151,0,0,0
14151,5698,51089,0,0,0
14082,5660,50995,0,0,0
13992,5612,50876,0,0,0
13889,5558,50737,0,0,0
13780,5500,50585,0,0,0
13672,5443,50427,0,0,0
13567,5389,50270,0,0,0
13468,5339,50118,0,0,0
13376,5296,49973,0,0,0
13289,5256,49834,0,0,0
13207,5218,49702,0,0,0
13128,5178,49573,0,0,0
13053,5140,49444,0,0,0
12978,5100,49314,0,0,0
12901,5059,49179,0,0,0
12817,5015,49034,0,0,0
12724,4966,48876,0,0,0
12617,4910,48703,0,0,0
12497,4848,48520,0,0,0
12369,4784,48331,0,0,0
12236,4719,48144,0,0,0
12104,4655,47965,0,0,0
11981,4597,47799,0,0,0
11876,4547,47651,0,0,0
11788,4506,47524,0,0,0
11714,4472,47416,0,0,0
11652,4444,47327,0,0,0
11602,4422,47259,0,0,0
11564,4404,47209,0,0,0
11535,4389,47176,0,0,0
11513,4379,47158,0,0,0
11497,4372,47152,0,0,0
11488,4367,47155,0,0,0
11485,4365,47161,0,0,0
11490,4365,47169,0,0,0
11500,4368,47180,0,0,0
11510,4369,47190,0,0,0
11518,4370,47198,0,0,0
11522,4373,47205,0,0,0
11523,4375,47211,0,0,0
11522,4376,47212,0,0,0
11521,4374,47206,0,0,0
11521,4372,47192,0,0,0
11519,4368,47172,0,0,0
11513,4364,47143,0,0,0
11506,4360,47108,0,0,0
11501,4357,47070,0,0,0
11495,4353,47025,0,0,0
11480,4342,46970,0,0,0
11454,4325,46905,0,0,0
11418,4303,46829,0,0,0
11371,4277,46742,0,0,0
11312,4247,46645,0,0,0
11242,4211,46536,0,0,0
11162,4172,46416,0,0,0
11074,4130,46286,0,0,0
10975,4084,46147,0,0,0
10868,4036,46006,0,0,0
10762,3989,45867,0,0,0
10663,3943,45732,0,0,0
10571,3898,45599,0,0,0
10483,3854,45471,0,0,0
10401,3815,45352,0,0,0
10329,3778,45243,0,0,0
10264,3746,45140,0,0,0
10203,3716,45041,0,0,0
10148,3689,44949,0,0,0
10095,3663,44860,0,0,0
10040,3638,44770,0,0,0
9983,3610,44678,0,0,0
9926,3581,44588,0,0,0
9863,3549,44498,0,0,0
9798,3516,44405,0,0,0
9732,3483,44311,0,0,0
9668,3450,44217,0,0,0
9606,3419,44125,0,0,0
9547,3390,44036,0,0,0
9487,3363,43950,0,0,0
9427,3339,43868,0,0,0
9367,3316,43790,0,0,0
9306,3294,43714,0,0,0
9245,3270,43638,0,0,0
9183,3244,43562,0,0,0
9122,3218,43487,0,0,0
9062,3193,43411,0,0,0
9004,3168,43337,0,0,0
8952,3143,43269,0,0,0
8909,3121,43209,0,0,0
8873,3104,43156,0,0,0
8847,3091,43107,0,0,0
8826,3082,43060,0,0,0
8807,3075,43015,0,0,0
8785,3067,42971,0,0,0
8760,3059,42926,0,0,0
8734,3049,42877,0,0,0
8706,3038,42827,0,0,0
8675,3026,42777,0,0,0
8639,3010,42728,0,0,0
8596,2989,42671,0,0,0
8549,2964,42605,0,0,0
8495,2936,42530,0,0,0
8434,2908,42448,0,0,0
8367,2879,42357,0,0,0
8291,2847,42258,0,0,0
8206,2811,42153,0,0,0
8119,2774,42047,0,0,0
8033,2733,41942,0,0,0
7948,2691,41834,0,0,0
7866,2648,41726,0,0,0
7785,2606,41618,0,0,0
7704,2567,41508,0,0,0
7626,2532,41395,0,0,0
7553,2499,41283,0,0,0
7484,2470,41176,0,0,0
7417,2442,41077,0,0,0
7353,2413,40982,0,0,0
7295,2384,40893,0,0,0
7242,2357,40816,0,0,0
7197,2336,40755,0,0,0
7166,2323,40719,0,0,0
7157,2323,40719,0,0,0
7180,2336,40768,0,0,0
7242,2366,40879,0,0,0
7352,2418,41063,0,0,0
7521,2497,41337,0,0,0
7756,2606,41709,0,0,0
8057,2747,42178,0,0,0
8422,2919,42735,0,0,0
8846,3119,43370,0,0,0
9315,3341,44066,0,0,0
9812,3575,44801,0,0,0
10320,3815,45550,0,0,0
10828,4057,46293,0,0,0
11325,4295,47015,0,0,0
11801,4527,47703,0,0,0
12255,4752,48350,0,0,0
12686,4966,48949,0,0,0
13087,5162,49490,0,0,0
13452,5340,49966,0,0,0
13774,5498,50373,0,0,0
14052,5634,50710,0,0,0
14283,5744,50978,0,0,0
14466,5829,51179,0,0,0
14603,5890,51319,0,0,0
14696,5931,51403,0,0,0
14747,5953,51436,0,0,0
14760,5956,51422,0,0,0
14744,5944,51374,0,0,0
14704,5922,51299,0,0,0
14646,5892,51203,0,0,0
14577,5856,51090,0,0,0
14501,5816,50970,0,0,0
14421,5774,50848,0,0,0
14336,5731,50722,0,0,0
14248,5685,50588,0,0,0
14159,5639,50452,0,0,0
14074,5592,50311,0,0,0
13990,5543,50164,0,0,0
13903,5491,50006,0,0,0
13812,5436,49841,0,0,0
13719,5384,49674,0,0,0
13625,5332,49502,0,0,0
13526,5278,49325,0,0,0
13424,5223,49148,0,0,0
13324,5170,48978,0,0,0
13227,5120,48815,0,0,0
13133,5071,48664,0,0,0
13049,5026,48528,0,0,0
12976,4987,48414,0,0,0
12917,4955,48322,0,0,0
12871,4933,48251,0,0,0
12835,4917,48199,0,0,0
12808,4903,48163,0,0,0
12791,4894,48141,0,0,0
12782,4889,48130,0,0,0
12775,4887,48130,0,0,0
12766,4887,48132,0,0,0
12757,4886,48133,0,0,0
12749,4882,48134,0,0,0
12740,4876,48133,0,0,0
12727,4867,48125,0,0,0
12707,4855,48110,0,0,0
12680,4842,48086,0,0,0
12647,4826,48055,0,0,0
12607,4807,48018,0,0,0
12564,4786,47974,0,0,0
12521,4764,47926,0,0,0
12477,4741,47873,0,0,0
12431,4716,47814,0,0,0
12377,4687,47744,0,0,0
12318,4653,47664,0,0,0
12253,4618,47576,0,0,0
12183,4583,47479,0,0,0
12106,4548,47373,0,0,0
12027,4511,47263,0,0,0
11949,4474,47154,0,0,0
11871,4437,47042,0,0,0
11790,4399,46924,0,0,0
11706,4359,46803,0,0,0
11625,4320,46685,0,0,0
11546,4282,46568,0,0,0
11467,4244,46449,0,0,0
11387,4206,46329,0,0,0
11305,4166,46206,0,0,0
11219,4124,46080,0,0,0
11129,4078,45953,0,0,0
11036,4030,45823,0,0,0
10941,3982,45688,0,0,0
10844,3932,45548,0,0,0
10744,3880,45405,0,0,0
10640,3827,45260,0,0,0
10534,3774,45114,0,0,0
10423,3720,44967,0,0,0
10307,3667,44817,0,0,0
10193,3616,44670,0,0,0
10083,3566,44526,0,0,0
9975,3519,44388,0,0,0
9871,3476,44258,0,0,0
9780,3440,44140,0,0,0
9704,3411,44035,0,0,0
9639,3386,43942,0,0,0
9582,3362,43858,0,0,0
9534,3341,43784,0,0,0
9492,3319,43717,0,0,0
9452,3298,43655,0,0,0
9414,3279,43596,0,0,0
9379,3264,43537,0,0,0
9342,3247,43476,0,0,0
9302,3226,43410,0,0,0
9258,3202,43340,0,0,0
9207,3175,43265,0,0,0
9149,3144,43185,0,0,0
9083,3111,43098,0,0,0
9008,3077,43009,0,0,0
8926,3042,42916,0,0,0
8840,3005,42819,0,0,0
8754,2968,42718,0,0,0
8669,2930,42617,0,0,0
8582,2893,42517,0,0,0
8493,2856,42417,0,0,0
8406,2820,42317,0,0,0
8324,2788,42221,0,0,0
8247,2759,42131,0,0,0
8173,2730,42048,0,0,0
8102,2701,41970,0,0,0
8041,2674,41898,0,0,0
7990,2649,41832,0,0,0
7945,2626,41768,0,0,0
7905,2605,41705,0,0,0
7870,2585,41645,0,0,0
7837,2569,41590,0,0,0
7803,2554,41534,0,0,0
7762,2538,41473,0,0,0
7715,2517,41405,0,0,0
7657,2490,41326,0,0,0
7587,2458,41236,0,0,0
7507,2423,41136,0,0,0
7422,2386,41028,0,0,0
7337,2351,40919,0,0,0
7251,2316,40807,0,0,0
7163,2280,40690,0,0,0
7070,2242,40568,0,0,0
6973,2201,40444,0,0,0
6877,2159,40321,0,0,0
6786,2119,40207,0,0,0
6708,2085,40112,0,0,0
6652,2062,40043,0,0,0
6625,2054,40009,0,0,0
6634,2061,40024,0,0,0
6687,2087,40104,0,0,0
6791,2136,40264,0,0,0
6952,2211,40515,0,0,0
7176,2313,40865,0,0,0
7463,2447,41312,0,0,0
7809,2611,41851,0,0,0
8207,2800,42466,0,0,0
8646,3007,43143,0,0,0
9115,3228,43865,0,0,0
9595,3454,44605,0,0,0
10071,3681,45338,0,0,0
10529,3901,46040,0,0,0
10958,4112,46695,0,0,0
11346,4305,47288,0,0,0
11688,4475,47811,0,0,0
11984,4618,48257,0,0,0
12236,4735,48627,0,0,0
12441,4830,48923,0,0,0
12601,4904,49148,0,0,0
12720,4958,49304,0,0,0
12800,4991,49399,0,0,0
12843,5007,49437,0,0,0
12852,5009,49426,0,0,0
12829,4999,49376,0,0,0
12778,4974,49291,0,0,0
12706,4936,49180,0,0,0
12617,4887,49050,0,0,0
12513,4828,48903,0,0,0
12397,4765,48743,0,0,0
12275,4701,48575,0,0,0
12152,4637,48404,0,0,0
12029,4574,48231,0,0,0
11903,4513,48055,0,0,0
11773,4455,47876,0,0,0
11642,4396,47697,0,0,0
11514,4337,47519,0,0,0
11391,4279,47337,0,0,0
11270,4219,47152,0,0,0
11149,4157,46963,0,0,0
11027,4094,46773,0,0,0
10901,4030,46583,0,0,0
10772,3968,46395,0,0,0
10644,3910,46213,0,0,0
10526,3857,46047,0,0,0
10422,3811,45901,0,0,0
10330,3772,45777,0,0,0
10253,3740,45673,0,0,0
10192,3716,45589,0,0,0
10145,3698,45523,0,0,0
10113,3684,45478,0,0,0
10096,3675,45455,0,0,0
10092,3673,45452,0,0,0
10097,3674,45464,0,0,0
10110,3679,45490,0,0,0
10132,3691,45530,0,0,0
10163,3709,45583,0,0,0
10202,3731,45647,0,0,0
10248,3755,45720,0,0,0
10297,3781,45801,0,0,0
10346,3808,45883,0,0,0
10391,3833,45960,0,0,0
10432,3857,46029,0,0,0
10464,3875,46086,0,0,0
10483,3886,46126,0,0,0
10490,3890,46149,0,0,0
10486,3886,46153,0,0,0
10473,3876,46140,0,0,0
10450,3862,46108,0,0,0
10415,3844,46057,0,0,0
10372,3823,45992,0,0,0
10322,3798,45918,0,0,0
10264,3769,45831,0,0,0
10198,3735,45731,0,0,0
10125,3698,45618,0,0,0
10045,3658,45494,0,0,0
9960,3616,45361,0,0,0
9870,3573,45226,0,0,0
9779,3532,45097,0,0,0
9692,3495,44978,0,0,0
9615,3465,44872,0,0,0
9550,3440,44776,0,0,0
9497,3419,44691,0,0,0
9452,3399,44615,0,0,0
9412,3378,44543,0,0,0
9372,3356,44472,0,0,0
9328,3335,44402,0,0,0
9284,3316,44334,0,0,0
9237,3299,44263,0,0,0
9185,3281,44186,0,0,0
9126,3257,44103,0,0,0
9061,3228,44013,0,0,0
8986,3195,43917,0,0,0
8900,3159,43812,0,0,0
8805,3121,43698,0,0,0
8709,3081,43579,0,0,0
8615,3040,43461,0,0,0
8522,2998,43341,0,0,0
8428,2954,43222,0,0,0
8337,2912,43110,0,0,0
8257,2878,43012,0,0,0
8190,2852,42925,0,0,0
8138,2830,42851,0,0,0
8102,2813,42790,0,0,0
8079,2801,42741,0,0,0
8069,2796,42705,0,0,0
8070,2794,42679,0,0,0
8080,2795,42662,0,0,0
8093,2796,42648,0,0,0
8105,2796,42635,0,0,0
8111,2795,42620,0,0,0
8112,2795,42602,0,0,0
8109,2794,42582,0,0,0
8100,2789,42555,0,0,0
8081,2781,42520,0,0,0
8048,2769,42475,0,0,0
8002,2753,42420,0,0,0
7949,2734,42359,0,0,0
7890,2710,42295,0,0,0
7824,2682,42224,0,0,0
7748,2651,42144,0,0,0
7660,2615,42054,0,0,0
7565,2575,41956,0,0,0
7466,2532,41846,0,0,0
7364,2487,41726,0,0,0
7257,2440,41597,0,0,0
7148,2389,41462,0,0,0
7037,2336,41319,0,0,0
6923,2283,41173,0,0,0
6813,2234,41028,0,0,0
6712,2191,40892,0,0,0
6620,2153,40769,0,0,0
6541,2122,40665,0,0,0
6476,2096,40578,0,0,0
6424,2074,40504,0,0,0
6386,2055,40446,0,0,0
6361,2041,40408,0,0,0
6356,2038,40402,0,0,0
6379,2050,40438,0,0,0
6438,2076,40525,0,0,0
6536,2121,40676,0,0,0
6682,2188,40901,0,0,0
6878,2279,41206,0,0,0
7121,2393,41585,0,0,0
7408,2529,42035,0,0,0
7737,2686,42549,0,0,0
8102,2859,43116,0,0,0
8494,3043,43724,0,0,0
8904,3234,44358,0,0,0
9324,3430,45002,0,0,0
9744,3624,45637,0,0,0
10149,3812,46246,0,0,0
10532,3990,46816,0,0,0
10885,4156,47336,0,0,0
11201,4306,47798,0,0,0
11478,4436,48195,0,0,0
11715,4548,48525,0,0,0
11912,4642,48789,0,0,0
12064,4717,48988,0,0,0
12175,4770,49126,0,0,0
12251,4804,49212,0,0,0
12295,4823,49257,0,0,0
12309,4829,49262,0,0,0
12296,4819,49230,0,0,0
12259,4797,49164,0,0,0
12198,4766,49070,0,0,0
12118,4728,48952,0,0,0
12025,4685,48813,0,0,0
11920,4635,48656,0,0,0
11803,4579,48481,0,0,0
11672,4515,48288,0,0,0
11530,4447,48080,0,0,0
11382,4376,47864,0,0,0
11228,4304,47639,0,0,0
11069,4227,47405,0,0,0
10905,4144,47164,0,0,0
10737,4059,46920,0,0,0
10566,3974,46674,0,0,0
10396,3891,46429,0,0,0
10234,3811,46191,0,0,0
10083,3738,45967,0,0,0
9946,3674,45762,0,0,0
9828,3619,45585,0,0,0
9734,3575,45438,0,0,0
9663,3542,45323,0,0,0
9610,3519,45241,0,0,0
9572,3504,45188,0,0,0
9548,3496,45161,0,0,0
9539,3498,45158,0,0,0
9545,3507,45174,0,0,0
9562,3518,45201,0,0,0
9585,3529,45236,0,0,0
9610,3539,45278,0,0,0
9635,3549,45323,0,0,0
9662,3558,45367,0,0,0
9687,3567,45408,0,0,0
9709,3576,45444,0,0,0
9727,3583,45475,0,0,0
9736,3589,45497,0,0,0
9737,3593,45509,0,0,0
9732,3595,45513,0,0,0
9724,3593,45510,0,0,0
9713,3589,45498,0,0,0
9702,3585,45477,0,0,0
9695,3579,45450,0,0,0
9687,3572,45419,0,0,0
9672,3562,45381,0,0,0
9648,3550,45339,0,0,0
9614,3535,45289,0,0,0
9571,3516,45227,0,0,0
9520,3492,45151,0,0,0
9463,3467,45063,0,0,0
9400,3439,44966,0,0,0
9331,3408,44861,0,0,0
9259,3374,44751,0,0,0
9188,3338,44643,0,0,0
9115,3303,44534,0,0,0
9038,3266,44419,0,0,0
8956,3229,44299,0,0,0
8868,3190,44177,0,0,0
8780,3151,44054,0,0,0
8695,3112,43933,0,0,0
8615,3075,43813,0,0,0
8537,3036,43699,0,0,0
8459,2997,43591,0,0,0
8384,2961,43487,0,0,0
8319,2930,43390,0,0,0
8266,2905,43300,0,0,0
8223,2887,43219,0,0,0
8187,2870,43143,0,0,0
8153,2850,43073,0,0,0
8122,2832,43011,0,0,0
8091,2816,42955,0,0,0
8056,2801,42899,0,0,0
8017,2784,42841,0,0,0
7973,2764,42779,0,0,0
7923,2741,42710,0,0,0
7865,2715,42632,0,0,0
7799,2686,42548,0,0,0
7728,2654,42457,0,0,0
7652,2620,42361,0,0,0
7576,2587,42262,0,0,0
7501,2556,42167,0,0,0
7433,2529,42079,0,0,0
7375,2504,42000,0,0,0
7326,2480,41931,0,0,0
7287,2459,41871,0,0,0
7260,2444,41820,0,0,0
7240,2434,41777,0,0,0
7223,2428,41738,0,0,0
7210,2422,41699,0,0,0
7202,2417,41662,0,0,0
7197,2414,41629,0,0,0
7190,2411,41600,0,0,0
7181,2409,41572,0,0,0
7171,2405,41544,0,0,0
7161,2402,41517,0,0,0
7152,2398,41490,0,0,0
7139,2395,41463,0,0,0
7120,2391,41437,0,0,0
7099,2384,41409,0,0,0
7078,2373,41375,0,0,0
7057,2360,41334,0,0,0
7033,2346,41283,0,0,0
7003,2330,41222,0,0,0
6967,2311,41148,0,0,0
6925,2289,41067,0,0,0
6877,2266,40982,0,0,0
6825,2241,40896,0,0,0
6771,2214,40810,0,0,0
6719,2189,40728,0,0,0
6674,2168,40658,0,0,0
6644,2154,40615,0,0,0
6642,2151,40617,0,0,0
6681,2166,40680,0,0,0
6772,2205,40819,0,0,0
6921,2272,41043,0,0,0
7132,2371,41363,0,0,0
7412,2504,41786,0,0,0
7759,2669,42309,0,0,0
8164,2861,42921,0,0,0
8618,3077,43607,0,0,0
9107,3309,44345,0,0,0
9616,3551,45110,0,0,0
10131,3798,45880,0,0,0
10638,4043,46638,0,0,0
11127,4279,47365,0,0,0
11589,4500,48046,0,0,0
12014,4704,48671,0,0,0
12398,4891,49234,0,0,0
12737,5057,49729,0,0,0
13030,5199,50151,0,0,0
13281,5318,50500,0,0,0
13491,5416,50783,0,0,0
13666,5497,51007,0,0,0
13810,5563,51175,0,0,0
13924,5616,51298,0,0,0
14013,5656,51384,0,0,0
14074,5686,51436,0,0,0
14111,5703,51454,0,0,0
14128,5710,51441,0,0,0
14132,5713,51406,0,0,0
14125,5712,51356,0,0,0
14108,5705,51293,0,0,0
14080,5690,51218,0,0,0
14045,5671,51135,0,0,0
14007,5648,51046,0,0,0
13962,5621,50949,0,0,0
13910,5590,50841,0,0,0
13850,5558,50727,0,0,0
13779,5524,50608,0,0,0
13699,5486,50483,0,0,0
13611,5447,50352,0,0,0
13523,5403,50217,0,0,0
13435,5355,50078,0,0,0
13348,5305,49937,0,0,0
13261,5256,49794,0,0,0
13176,5210,49649,0,0,0
13092,5166,49508,0,0,0
13012,5125,49376,0,0,0
12938,5090,49259,0,0,0
12875,5059,49155,0,0,0
12825,5030,49064,0,0,0
12787,5009,48991,0,0,0
12761,4995,48940,0,0,0
12748,4988,48914,0,0,0
12749,4986,48913,0,0,0
12763,4990,48933,0,0,0
12790,5001,48972,0,0,0
12833,5019,49029,0,0,0
12890,5046,49103,0,0,0
12959,5082,49186,0,0,0
13034,5120,49272,0,0,0
13109,5157,49359,0,0,0
13182,5193,49446,0,0,0
13247,5227,49525,0,0,0
13301,5255,49592,0,0,0
13344,5277,49645,0,0,0
13374,5294,49682,0,0,0
13392,5303,49703,0,0,0
13398,5305,49707,0,0,0
13391,5301,49694,0,0,0
13374,5292,49662,0,0,0
13347,5274,49611,0,0,0
13308,5249,49542,0,0,0
13256,5218,49461,0,0,0
13194,5185,49369,0,0,0
13132,5151,49273,0,0,0
13073,5119,49175,0,0,0
13015,5088,49076,0,0,0
12958,5057,48974,0,0,0
12898,5028,48871,0,0,0
12838,4999,48768,0,0,0
12779,4971,48668,0,0,0
12725,4945,48573,0,0,0
12678,4922,48485,0,0,0
12640,4901,48404,0,0,0
12605,4881,48330,0,0,0
12567,4860,48258,0,0,0
12525,4841,48184,0,0,0
12481,4822,48108,0,0,0
12435,4802,48029,0,0,0
12384,4778,47944,0,0,0
12330,4751,47855,0,0,0
12270,4721,47764,0,0,0
12207,4689,47673,0,0,0
12140,4656,47580,0,0,0
12068,4621,47484,0,0,0
11994,4585,47388,0,0,0
11921,4549,47291,0,0,0
11850,4512,47194,0,0,0
11781,4476,47099,0,0,0
11715,4444,47009,0,0,0
11651,4414,46926,0,0,0
11593,4388,46845,0,0,0
11543,4365,46770,0,0,0
11502,4347,46704,0,0,0
11467,4331,46646,0,0,0
11434,4313,46591,0,0,0
11400,4295,46541,0,0,0
11367,4281,46496,0,0,0
11336,4268,46455,0,0,0
11311,4256,46415,0,0,0
11292,4246,46379,0,0,0
11280,4238,46349,0,0,0
11269,4228,46320,0,0,0
11255,4221,46290,0,0,0
11241,4214,46259,0,0,0
11226,4208,46225,0,0,0
11207,4199,46185,0,0,0
11184,4187,46140,0,0,0
11156,4173,46090,0,0,0
11120,4156,46032,0,0,0
11072,4134,45966,0,0,0
11015,4109,45894,0,0,0
10960,4084,45819,0,0,0
10912,4061,45744,0,0,0
10873,4038,45676,0,0,0
10841,4020,45614,0,0,0
10811,4005,45553,0,0,0
10783,3991,45489,0,0,0
10753,3973,45424,0,0,0
10722,3953,45354,0,0,0
10689,3932,45278,0,0,0
10647,3907,45195,0,0,0
10592,3880,45105,0,0,0
10531,3852,45013,0,0,0
10470,3826,44924,0,0,0
10414,3802,44846,0,0,0
10371,3782,44786,0,0,0
10352,3773,44760,0,0,0
10366,3783,44788,0,0,0
10426,3816,44885,0,0,0
10543,3875,45064,0,0,0
10727,3966,45340,0,0,0
10983,4091,45719,0,0,0
11307,4251,46197,0,0,0
11693,4444,46770,0,0,0
12136,4667,47425,0,0,0
12625,4913,48146,0,0,0
13144,5177,48910,0,0,0
13678,5451,49697,0,0,0
14211,5726,50484,0,0,0
14729,5994,51246,0,0,0
15218,6247,51964,0,0,0
15673,6483,52630,0,0,0
16087,6698,53237,0,0,0
16454,6889,53778,0,0,0
16773,7054,54245,0,0,0
17043,7191,54635,0,0,0
17266,7303,54951,0,0,0
17447,7394,55202,0,0,0
17591,7469,55397,0,0,0
17705,7529,55543,0,0,0
17792,7576,55645,0,0,0
17852,7606,55706,0,0,0
17887,7622,55730,0,0,0
17901,7627,55727,0,0,0
17898,7626,55707,0,0,0
17879,7619,55668,0,0,0
17850,7607,55613,0,0,0
17816,7592,55546,0,0,0
17775,7573,55473,0,0,0
17729,7549,55395,0,0,0
17679,7520,55312,0,0,0
17627,7489,55227,0,0,0
17578,7461,55145,0,0,0
17530,7433,55061,0,0,0
17479,7402,54970,0,0,0
17425,7369,54871,0,0,0
17364,7333,54762,0,0,0
17294,7291,54641,0,0,0
17215,7242,54510,0,0,0
17129,7191,54371,0,0,0
17037,7138,54223,0,0,0
16937,7083,54066,0,0,0
16832,7025,53906,0,0,0
16727,6969,53752,0,0,0
16625,6916,53606,0,0,0
16527,6867,53471,0,0,0
16439,6825,53353,0,0,0
16364,6788,53253,0,0,0
16299,6757,53174,0,0,0
16243,6731,53114,0,0,0
16201,6713,53075,0,0,0
16176,6706,53055,0,0,0
16162,6706,53052,0,0,0
16160,6710,53062,0,0,0
16171,6716,53084,0,0,0
16193,6726,53119,0,0,0
16219,6739,53159,0,0,0
16247,6752,53200,0,0,0
16272,6766,53243,0,0,0
16293,6780,53285,0,0,0
16310,6791,53318,0,0,0
16318,6796,53336,0,0,0
16313,6792,53336,0,0,0
16295,6781,53319,0,0,0
16266,6763,53285,0,0,0
16224,6739,53234,0,0,0
16171,6710,53171,0,0,0
16107,6676,53100,0,0,0
16035,6635,53019,0,0,0
15953,6591,52926,0,0,0
15863,6545,52819,0,0,0
15768,6499,52700,0,0,0
15673,6456,52573,0,0,0
15582,6415,52443,0,0,0
15496,6371,52307,0,0,0
15405,6324,52164,0,0,0
15307,6271,52012,0,0,0
15204,6214,51854,0,0,0
15094,6154,51694,0,0,0
14979,6094,51537,0,0,0
14865,6037,51384,0,0,0
14758,5985,51240,0,0,0
14658,5937,51104,0,0,0
14567,5892,50976,0,0,0
14484,5852,50851,0,0,0
14409,5815,50733,0,0,0
14342,5782,50625,0,0,0
14280,5751,50528,0,0,0
14216,5720,50435,0,0,0
14150,5687,50339,0,0,0
14084,5652,50246,0,0,0
14021,5618,50158,0,0,0
13957,5584,50072,0,0,0
13889,5548,49983,0,0,0
13816,5508,49887,0,0,0
13736,5465,49785,0,0,0
13646,5417,49673,0,0,0
13547,5366,49552,0,0,0
13443,5313,49425,0,0,0
13339,5263,49298,0,0,0
13237,5216,49174,0,0,0
13140,5175,49057,0,0,0
13049,5138,48944,0,0,0
12962,5103,48836,0,0,0
12885,5068,48733,0,0,0
12822,5035,48639,0,0,0
12772,5008,48557,0,0,0
12731,4987,48486,0,0,0
12696,4970,48424,0,0,0
12664,4954,48371,0,0,0
12631,4938,48324,0,0,0
12593,4921,48278,0,0,0
12551,4899,48227,0,0,0
12505,4873,48170,0,0,0
12452,4844,48106,0,0,0
12390,4811,48035,0,0,0
12320,4775,47956,0,0,0
12244,4737,47867,0,0,0
12167,4701,47773,0,0,0
12089,4668,47677,0,0,0
12014,4635,47582,0,0,0
11939,4598,47485,0,0,0
11860,4559,47381,0,0,0
11776,4517,47269,0,0,0
11688,4474,47151,0,0,0
11596,4431,47031,0,0,0
11498,4388,46910,0,0,0
11403,4344,46792,0,0,0
11312,4300,46675,0,0,0
11224,4257,46559,0,0,0
11135,4216,46444,0,0,0
11044,4175,46327,0,0,0
10952,4134,46207,0,0,0
10859,4092,46089,0,0,0
10767,4051,45978,0,0,0
10680,4011,45880,0,0,0
10605,3978,45807,0,0,0
10553,3959,45772,0,0,0
10536,3959,45790,0,0,0
10567,3984,45879,0,0,0
10662,4038,46058,0,0,0
10826,4125,46336,0,0,0
11064,4248,46716,0,0,0
11370,4406,47197,0,0,0
11739,4596,47768,0,0,0
12160,4813,48412,0,0,0
12618,5049,49108,0,0,0
13100,5297,49839,0,0,0
13591,5551,50587,0,0,0
14077,5806,51332,0,0,0
14546,6054,52052,0,0,0
14989,6287,52729,0,0,0
15404,6505,53351,0,0,0
15784,6704,53911,0,0,0
16120,6880,54399,0,0,0
16409,7031,54813,0,0,0
16654,7157,55156,0,0,0
16854,7259,55434,0,0,0
17010,7341,55648,0,0,0
17125,7402,55803,0,0,0
17207,7445,55904,0,0,0
17260,7472,55957,0,0,0
17280,7480,55966,0,0,0
17269,7473,55939,0,0,0
17235,7455,55883,0,0,0
17185,7429,55806,0,0,0
17123,7395,55715,0,0,0
17056,7358,55616,0,0,0
16990,7320,55516,0,0,0
16925,7282,55419,0,0,0
16860,7246,55325,0,0,0
16798,7210,55232,0,0,0
16732,7174,55135,0,0,0
16655,7135,55025,0,0,0
16569,7094,54898,0,0,0
16474,7048,54754,0,0,0
16370,6996,54597,0,0,0
16255,6938,54427,0,0,0
16131,6871,54240,0,0,0
15997,6796,54038,0,0,0
15857,6719,53829,0,0,0
15714,6640,53619,0,0,0
15569,6559,53406,0,0,0
15425,6480,53199,0,0,0
15288,6405,53006,0,0,0
15164,6337,52832,0,0,0
15053,6274,52678,0,0,0
14960,6221,52549,0,0,0
14882,6181,52450,0,0,0
14823,6152,52381,0,0,0
14781,6133,52340,0,0,0
14758,6123,52323,0,0,0
14753,6124,52329,0,0,0
14761,6135,52350,0,0,0
14778,6151,52380,0,0,0
14800,6166,52415,0,0,0
14825,6180,52451,0,0,0
14851,6194,52484,0,0,0
14874,6205,52512,0,0,0
14892,6212,52533,0,0,0
14900,6214,52545,0,0,0
14895,6207,52545,0,0,0
14878,6192,52530,0,0,0
14853,6172,52503,0,0,0
14817,6149,52464,0,0,0
14768,6124,52412,0,0,0
14707,6094,52345,0,0,0
14638,6060,52267,0,0,0
14564,6024,52177,0,0,0
14485,5988,52076,0,0,0
14401,5950,51965,0,0,0
14312,5911,51848,0,0,0
14222,5870,51727,0,0,0
14129,5822,51599,0,0,0
14035,5771,51462,0,0,0
13943,5720,51319,0,0,0
13851,5670,51173,0,0,0
13758,5621,51021,0,0,0
13666,5574,50869,0,0,0
13576,5528,50722,0,0,0
13490,5485,50584,0,0,0
13406,5446,50454,0,0,0
13323,5410,50335,0,0,0
13240,5374,50223,0,0,0
13154,5332,50108,0,0,0
13066,5285,49988,0,0,0
12975,5235,49865,0,0,0
12878,5182,49736,0,0,0
12775,5126,49600,0,0,0
12665,5067,49456,0,0,0
12551,5008,49308,0,0,0
12436,4952,49160,0,0,0
12321,4895,49013,0,0,0
12209,4839,48871,0,0,0
12109,4790,48741,0,0,0
12022,4748,48625,0,0,0
11943,4713,48519,0,0,0
11873,4683,48422,0,0,0
11817,4659,48338,0,0,0
11774,4641,48264,0,0,0
11738,4625,48198,0,0,0
11706,4610,48138,0,0,0
11678,4597,48082,0,0,0
11653,4585,48027,0,0,0
11623,4571,47972,0,0,0
11588,4555,47917,0,0,0
11549,4537,47861,0,0,0
11508,4516,47801,0,0,0
11463,4492,47736,0,0,0
11415,4466,47668,0,0,0
11365,4440,47603,0,0,0
11313,4412,47537,0,0,0
11258,4382,47465,0,0,0
11197,4350,47385,0,0,0
11129,4318,47299,0,0,0
11055,4285,47209,0,0,0
10978,4250,47117,0,0,0
10902,4216,47025,0,0,0
10827,4182,46935,0,0,0
10751,4150,46846,0,0,0
10678,4121,46755,0,0,0
10609,4093,46666,0,0,0
10543,4066,46580,0,0,0
10480,4039,46500,0,0,0
10423,4012,46422,0,0,0
10372,3986,46343,0,0,0
10326,3961,46261,0,0,0
10280,3934,46178,0,0,0
10228,3907,46093,0,0,0
10172,3879,46005,0,0,0
10109,3851,45915,0,0,0
10038,3819,45818,0,0,0
9957,3783,45714,0,0,0
9875,3745,45605,0,0,0
9794,3708,45498,0,0,0
9714,3672,45394,0,0,0
9639,3638,45299,0,0,0
9574,3607,45221,0,0,0
9527,3585,45171,0,0,0
9510,3577,45161,0,0,0
9531,3590,45211,0,0,0
9602,3628,45337,0,0,0
9731,3698,45549,0,0,0
9924,3799,45853,0,0,0
10183,3932,46256,0,0,0
10502,4094,46753,0,0,0
10877,4283,47335,0,0,0
11302,4496,47987,0,0,0
11768,4729,48693,0,0,0
12261,4980,49435,0,0,0
12767,5241,50191,0,0,0
13272,5503,50937,0,0,0
13763,5758,51658,0,0,0
14229,5999,52337,0,0,0
14657,6222,52959,0,0,0
15034,6420,53510,0,0,0
15358,6590,53983,0,0,0
