green_channel,red_channel,ir_channel,Anomaly_ch0,Anomaly_ch1,Anomaly_ch2
22575,17617,29178,0,0,0
22567,17613,29166,0,0,0
22549,17607,29152,0,0,0
22528,17586,29122,0,0,0
22519,17567,29093,0,0,0
22513,17562,29080,0,0,0
22492,17556,29064,0,0,0
22461,17539,29035,0,0,0
22437,17519,29006,0,0,0
22413,17503,28982,0,0,0
22381,17484,28952,0,0,0
22357,17460,28912,0,0,0
22345,17442,28878,0,0,0
22327,17434,28854,0,0,0
22293,17420,28821,0,0,0
22259,17399,28775,0,0,0
22241,17384,28735,0,0,0
22223,17378,28708,0,0,0
22195,17364,28676,0,0,0
22171,17340,28636,0,0,0
22159,17321,28606,0,0,0
22142,17309,28586,0,0,0
22112,17291,28554,0,0,0
22087,17268,28509,0,0,0
22074,17255,28475,0,0,0
22057,17247,28450,0,0,0
22026,17230,28416,0,0,0
21997,17208,28376,0,0,0
21977,17195,28348,0,0,0
21951,17183,28326,0,0,0
21914,17155,28288,0,0,0
21883,17121,28242,0,0,0
21866,17103,28209,0,0,0
21842,17096,28183,0,0,0
21808,17082,28146,0,0,0
21780,17067,28111,0,0,0
21762,17064,28092,0,0,0
21735,17060,28076,0,0,0
21699,17043,28039,0,0,0
21678,17025,27998,0,0,0
21677,17020,27974,0,0,0
21672,17018,27959,0,0,0
21657,17005,27931,0,0,0
21645,16991,27899,0,0,0
21639,16986,27881,0,0,0
21625,16981,27863,0,0,0
21606,16965,27829,0,0,0
21597,16951,27794,0,0,0
21593,16952,27775,0,0,0
21578,16952,27755,0,0,0
21554,16936,27723,0,0,0
21538,16920,27697,0,0,0
21523,16911,27684,0,0,0
21498,16900,27666,0,0,0
21474,16885,27638,0,0,0
21462,16876,27619,0,0,0
21447,16876,27613,0,0,0
21415,16867,27595,0,0,0
21387,16845,27559,0,0,0
21379,16830,27529,0,0,0
21375,16826,27512,0,0,0
21357,16815,27489,0,0,0
21339,16795,27458,0,0,0
21334,16781,27435,0,0,0
21328,16774,27421,0,0,0
21310,16763,27399,0,0,0
21296,16747,27371,0,0,0
21290,16741,27352,0,0,0
21279,16740,27340,0,0,0
21257,16733,27316,0,0,0
21239,16720,27282,0,0,0
21233,16718,27261,0,0,0
21224,16722,27249,0,0,0
21208,16717,27226,0,0,0
21201,16708,27200,0,0,0
21205,16712,27192,0,0,0
21201,16719,27191,0,0,0
21182,16711,27171,0,0,0
21168,16695,27143,0,0,0
21166,16690,27130,0,0,0
21161,16688,27120,0,0,0
21148,16673,27094,0,0,0
21143,16658,27066,0,0,0
21147,16660,27061,0,0,0
21146,16668,27066,0,0,0
21145,16673,27064,0,0,0
21167,16689,27075,0,0,0
21211,16726,27117,0,0,0
21262,16772,27178,0,0,0
21324,16816,27243,0,0,0
21406,16867,27325,0,0,0
21503,16936,27438,0,0,0
21605,17011,27568,0,0,0
21716,17082,27702,0,0,0
21844,17161,27854,0,0,0
21979,17254,28032,0,0,0
22103,17344,28214,0,0,0
22226,17426,28387,0,0,0
22360,17514,28567,0,0,0
22490,17608,28757,0,0,0
22606,17697,28937,0,0,0
22723,17777,29099,0,0,0
22850,17860,29262,0,0,0
22967,17943,29426,0,0,0
23060,18011,29567,0,0,0
23142,18062,29682,0,0,0
23223,18109,29788,0,0,0
23286,18152,29887,0,0,0
23327,18182,29962,0,0,0
23365,18201,30016,0,0,0
23409,18222,30070,0,0,0
23442,18243,30123,0,0,0
23457,18250,30155,0,0,0
23468,18248,30170,0,0,0
23478,18246,30184,0,0,0
23475,18244,30194,0,0,0
23460,18232,30183,0,0,0
23451,18218,30165,0,0,0
23448,18217,30164,0,0,0
23433,18216,30165,0,0,0
23402,18199,30142,0,0,0
23373,18176,30103,0,0,0
23349,18161,30069,0,0,0
23318,18148,30037,0,0,0
23286,18126,29992,0,0,0
23267,18103,29949,0,0,0
23253,18090,29924,0,0,0
23223,18074,29901,0,0,0
23180,18045,29862,0,0,0
23147,18017,29825,0,0,0
23123,18002,29804,0,0,0
23094,17991,29786,0,0,0
23068,17973,29758,0,0,0
23058,17961,29737,0,0,0
23055,17960,29732,0,0,0
23045,17956,29723,0,0,0
23033,17943,29701,0,0,0
23033,17936,29685,0,0,0
23033,17934,29678,0,0,0
23020,17926,29661,0,0,0
23010,17912,29631,0,0,0
23013,17907,29609,0,0,0
23010,17911,29599,0,0,0
22990,17907,29579,0,0,0
22972,17893,29545,0,0,0
22968,17886,29520,0,0,0
22964,17888,29507,0,0,0
22950,17885,29488,0,0,0
22944,17879,29464,0,0,0
22947,17880,29454,0,0,0
22944,17883,29455,0,0,0
22930,17872,29445,0,0,0
22922,17855,29427,0,0,0
22928,17851,29421,0,0,0
22933,17854,29426,0,0,0
22932,17852,29422,0,0,0
22939,17849,29418,0,0,0
22956,17860,29431,0,0,0
22968,17873,29451,0,0,0
22970,17877,29457,0,0,0
22985,17882,29458,0,0,0
23017,17905,29478,0,0,0
23044,17932,29505,0,0,0
23056,17943,29519,0,0,0
23070,17947,29529,0,0,0
23091,17961,29553,0,0,0
23100,17973,29576,0,0,0
23100,17976,29582,0,0,0
23109,17982,29587,0,0,0
23124,18000,29608,0,0,0
23128,18017,29628,0,0,0
23125,18020,29628,0,0,0
23127,18020,29623,0,0,0
23130,18026,29627,0,0,0
23123,18028,29628,0,0,0
23114,18015,29614,0,0,0
23111,18004,29601,0,0,0
23105,18007,29599,0,0,0
23084,18004,29586,0,0,0
23063,17987,29555,0,0,0
23056,17971,29527,0,0,0
23047,17961,29509,0,0,0
23022,17945,29482,0,0,0
22997,17921,29445,0,0,0
22984,17907,29420,0,0,0
22969,17902,29407,0,0,0
22938,17886,29379,0,0,0
22908,17860,29337,0,0,0
22892,17845,29305,0,0,0
22876,17837,29284,0,0,0
22850,17821,29250,0,0,0
22831,17797,29209,0,0,0
22822,17780,29177,0,0,0
22804,17771,29149,0,0,0
22772,17754,29111,0,0,0
22748,17733,29067,0,0,0
22735,17723,29036,0,0,0
22715,17719,29013,0,0,0
22689,17709,28982,0,0,0
22670,17696,28948,0,0,0
22658,17690,28926,0,0,0
22636,17682,28907,0,0,0
22605,17660,28873,0,0,0
22584,17636,28837,0,0,0
22577,17626,28818,0,0,0
22566,17621,28805,0,0,0
22548,17606,28776,0,0,0
22536,17587,28744,0,0,0
22528,17578,28723,0,0,0
22510,17568,28699,0,0,0
22485,17546,28659,0,0,0
22470,17528,28619,0,0,0
22463,17526,28595,0,0,0
22448,17526,28572,0,0,0
22429,17515,28537,0,0,0
22417,17501,28500,0,0,0
22404,17494,28473,0,0,0
22380,17485,28442,0,0,0
22354,17464,28399,0,0,0
22344,17446,28364,0,0,0
22337,17440,28344,0,0,0
22314,17430,28321,0,0,0
22287,17411,28291,0,0,0
22270,17399,28268,0,0,0
22248,17396,28254,0,0,0
22209,17388,28233,0,0,0
22172,17372,28201,0,0,0
22155,17364,28178,0,0,0
22147,17363,28166,0,0,0
22127,17352,28144,0,0,0
22108,17332,28112,0,0,0
22100,17319,28089,0,0,0
22091,17312,28073,0,0,0
22070,17296,28043,0,0,0
22053,17276,28004,0,0,0
22045,17266,27979,0,0,0
22031,17263,27966,0,0,0
22002,17252,27942,0,0,0
21973,17236,27911,0,0,0
21956,17228,27890,0,0,0
21935,17222,27872,0,0,0
21908,17209,27840,0,0,0
21888,17197,27809,0,0,0
21881,17199,27798,0,0,0
21869,17200,27791,0,0,0
21845,17184,27765,0,0,0
21824,17161,27730,0,0,0
21811,17149,27710,0,0,0
21793,17140,27695,0,0,0
21769,17123,27667,0,0,0
21758,17108,27640,0,0,0
21757,17106,27630,0,0,0
21745,17103,27624,0,0,0
21723,17086,27601,0,0,0
21713,17071,27577,0,0,0
21714,17071,27566,0,0,0
21711,17069,27554,0,0,0
21705,17056,27531,0,0,0
21702,17042,27507,0,0,0
21690,17036,27491,0,0,0
21660,17023,27463,0,0,0
21627,16996,27415,0,0,0
21607,16974,27377,0,0,0
21589,16968,27357,0,0,0
21559,16957,27332,0,0,0
21533,16939,27298,0,0,0
21523,16931,27272,0,0,0
21510,16934,27258,0,0,0
21488,16934,27237,0,0,0
21479,16932,27214,0,0,0
21498,16943,27212,0,0,0
21528,16971,27240,0,0,0
21558,17001,27279,0,0,0
21607,17033,27327,0,0,0
21684,17083,27404,0,0,0
21772,17149,27509,0,0,0
21865,17213,27624,0,0,0
21977,17276,27751,0,0,0
22110,17354,27908,0,0,0
22244,17444,28088,0,0,0
22373,17528,28265,0,0,0
22508,17612,28441,0,0,0
22647,17705,28632,0,0,0
22772,17797,28825,0,0,0
22880,17874,28999,0,0,0
22992,17947,29164,0,0,0
23114,18033,29339,0,0,0
23232,18122,29514,0,0,0
23340,18197,29666,0,0,0
23449,18265,29805,0,0,0
23558,18340,29942,0,0,0
23646,18409,30066,0,0,0
23714,18455,30159,0,0,0
23779,18491,30237,0,0,0
23842,18533,30318,0,0,0
23888,18572,30391,0,0,0
23919,18593,30441,0,0,0
23944,18603,30479,0,0,0
23959,18616,30515,0,0,0
23953,18621,30534,0,0,0
23940,18609,30529,0,0,0
23937,18595,30523,0,0,0
23935,18589,30526,0,0,0
23916,18579,30519,0,0,0
23895,18561,30496,0,0,0
23881,18546,30478,0,0,0
23858,18535,30467,0,0,0
23818,18513,30439,0,0,0
23777,18480,30392,0,0,0
23751,18458,30351,0,0,0
23730,18451,30326,0,0,0
23702,18442,30296,0,0,0
23680,18425,30260,0,0,0
23673,18415,30234,0,0,0
23664,18410,30219,0,0,0
23647,18398,30195,0,0,0
23636,18379,30161,0,0,0
23637,18370,30138,0,0,0
23634,18369,30126,0,0,0
23623,18365,30105,0,0,0
23619,18358,30075,0,0,0
23621,18362,30057,0,0,0
23611,18370,30048,0,0,0
23588,18366,30027,0,0,0
23568,18353,29998,0,0,0
23554,18346,29982,0,0,0
23531,18339,29971,0,0,0
23497,18318,29946,0,0,0
23475,18295,29918,0,0,0
23467,18288,29905,0,0,0
23453,18284,29894,0,0,0
23430,18270,29869,0,0,0
23421,18258,29843,0,0,0
23427,18263,29836,0,0,0
23429,18272,29836,0,0,0
23430,18273,29831,0,0,0
23442,18272,29828,0,0,0
23459,18276,29841,0,0,0
23470,18280,29851,0,0,0
23479,18277,29846,0,0,0
23499,18281,29845,0,0,0
23523,18296,29863,0,0,0
23536,18307,29877,0,0,0
23543,18307,29877,0,0,0
23560,18308,29882,0,0,0
23578,18318,29900,0,0,0
23583,18326,29912,0,0,0
23587,18326,29913,0,0,0
23603,18334,29925,0,0,0
23617,18354,29951,0,0,0
23616,18367,29967,0,0,0
23613,18365,29967,0,0,0
23620,18364,29970,0,0,0
23623,18367,29982,0,0,0
23611,18358,29985,0,0,0
23599,18339,29975,0,0,0
23597,18327,29970,0,0,0
23588,18323,29971,0,0,0
23562,18309,29957,0,0,0
23534,18286,29928,0,0,0
23515,18270,29904,0,0,0
23493,18262,29888,0,0,0
23463,18248,29862,0,0,0
23438,18230,29829,0,0,0
23419,18221,29809,0,0,0
23395,18213,29792,0,0,0
23366,18195,29760,0,0,0
23348,18177,29720,0,0,0
23341,18171,29696,0,0,0
23322,18167,29679,0,0,0
23288,18147,29643,0,0,0
23253,18118,29598,0,0,0
23223,18100,29566,0,0,0
23189,18085,29536,0,0,0
23152,18059,29490,0,0,0
23120,18029,29438,0,0,0
23089,18005,29397,0,0,0
23051,17979,29356,0,0,0
23007,17943,29302,0,0,0
22973,17911,29250,0,0,0
22940,17895,29214,0,0,0
22894,17877,29178,0,0,0
22844,17845,29127,0,0,0
22807,17815,29077,0,0,0
22775,17796,29039,0,0,0
22734,17776,28997,0,0,0
22697,17749,28947,0,0,0
22671,17725,28906,0,0,0
22641,17708,28878,0,0,0
22595,17683,28842,0,0,0
22552,17649,28791,0,0,0
22529,17624,28751,0,0,0
22510,17614,28727,0,0,0
22479,17600,28696,0,0,0
22450,17578,28652,0,0,0
22432,17562,28616,0,0,0
22406,17551,28588,0,0,0
22368,17535,28555,0,0,0
22339,17514,28519,0,0,0
22326,17500,28497,0,0,0
22311,17492,28485,0,0,0
22283,17474,28457,0,0,0
22258,17450,28416,0,0,0
22245,17437,28384,0,0,0
22233,17433,28363,0,0,0
22215,17423,28334,0,0,0
22207,17413,28305,0,0,0
22206,17412,28291,0,0,0
22194,17412,28282,0,0,0
22171,17398,28255,0,0,0
22156,17381,28224,0,0,0
22157,17380,28213,0,0,0
22153,17387,28213,0,0,0
22137,17384,28196,0,0,0
22124,17374,28171,0,0,0
22117,17372,28156,0,0,0
22104,17367,28141,0,0,0
22086,17349,28107,0,0,0
22078,17333,28073,0,0,0
22077,17332,28056,0,0,0
22065,17332,28041,0,0,0
22045,17321,28014,0,0,0
22033,17309,27987,0,0,0
22021,17304,27970,0,0,0
22000,17297,27953,0,0,0
21977,17282,27921,0,0,0
21963,17267,27895,0,0,0
21951,17258,27886,0,0,0
21930,17244,27873,0,0,0
21909,17222,27847,0,0,0
21902,17208,27826,0,0,0
21891,17201,27813,0,0,0
21865,17191,27791,0,0,0
21843,17176,27756,0,0,0
21841,17170,27729,0,0,0
21842,17174,27716,0,0,0
21829,17170,27697,0,0,0
21813,17156,27667,0,0,0
21806,17146,27646,0,0,0
21795,17139,27634,0,0,0
21774,17127,27611,0,0,0
21761,17111,27579,0,0,0
21761,17106,27558,0,0,0
21755,17108,27550,0,0,0
21738,17105,27533,0,0,0
21726,17095,27507,0,0,0
21724,17092,27490,0,0,0
21717,17095,27481,0,0,0
21704,17092,27465,0,0,0
21703,17093,27450,0,0,0
21716,17108,27457,0,0,0
21724,17129,27474,0,0,0
21726,17139,27482,0,0,0
21745,17151,27494,0,0,0
21786,17184,27535,0,0,0
21835,17229,27597,0,0,0
21893,17276,27664,0,0,0
21980,17336,27753,0,0,0
22094,17418,27882,0,0,0
22212,17506,28033,0,0,0
22334,17586,28184,0,0,0
22471,17668,28343,0,0,0
22615,17763,28520,0,0,0
22753,17858,28705,0,0,0
22887,17943,28884,0,0,0
23027,18027,29067,0,0,0
23161,18118,29259,0,0,0
23273,18202,29439,0,0,0
23376,18270,29596,0,0,0
23482,18336,29747,0,0,0
23579,18405,29898,0,0,0
23655,18464,30032,0,0,0
23727,18512,30150,0,0,0
23808,18565,30267,0,0,0
23880,18623,30383,0,0,0
23930,18666,30475,0,0,0
23971,18690,30541,0,0,0
24015,18714,30600,0,0,0
24046,18737,30655,0,0,0
24052,18745,30687,0,0,0
24053,18741,30696,0,0,0
24062,18740,30703,0,0,0
24059,18739,30710,0,0,0
24038,18724,30698,0,0,0
24017,18699,30671,0,0,0
24003,18680,30649,0,0,0
23985,18668,30630,0,0,0
23959,18647,30600,0,0,0
23941,18623,30568,0,0,0
23929,18608,30552,0,0,0
23907,18597,30539,0,0,0
23872,18576,30507,0,0,0
23841,18553,30460,0,0,0
23821,18540,30424,0,0,0
23796,18530,30394,0,0,0
23764,18511,30352,0,0,0
23742,18493,30308,0,0,0
23728,18485,30278,0,0,0
23701,18475,30247,0,0,0
23665,18454,30201,0,0,0
23646,18435,30159,0,0,0
23642,18432,30140,0,0,0
23636,18432,30127,0,0,0
23624,18422,30100,0,0,0
23616,18412,30072,0,0,0
23606,18410,30056,0,0,0
23584,18403,30037,0,0,0
23557,18380,30001,0,0,0
23538,18361,29969,0,0,0
23524,18355,29955,0,0,0
23498,18346,29938,0,0,0
23469,18327,29908,0,0,0
23451,18311,29887,0,0,0
23430,18302,29877,0,0,0
23398,18287,29857,0,0,0
23374,18268,29826,0,0,0
23371,18259,29807,0,0,0
23373,18260,29807,0,0,0
23363,18255,29801,0,0,0
23355,18240,29781,0,0,0
23359,18231,29771,0,0,0
23362,18233,29772,0,0,0
23357,18230,29767,0,0,0
23355,18225,29755,0,0,0
23366,18233,29760,0,0,0
23376,18251,29783,0,0,0
23375,18262,29802,0,0,0
23375,18265,29814,0,0,0
23386,18273,29834,0,0,0
23392,18283,29857,0,0,0
23390,18279,29864,0,0,0
23394,18271,29867,0,0,0
23407,18276,29887,0,0,0
23414,18285,29910,0,0,0
23407,18282,29914,0,0,0
23404,18275,29910,0,0,0
23407,18279,29917,0,0,0
23399,18284,29923,0,0,0
23377,18274,29908,0,0,0
23363,18262,29891,0,0,0
23356,18260,29889,0,0,0
23340,18257,29888,0,0,0
23317,18242,29871,0,0,0
23301,18228,29850,0,0,0
23288,18224,29838,0,0,0
23268,18217,29823,0,0,0
23242,18195,29792,0,0,0
23222,18172,29757,0,0,0
23200,18158,29736,0,0,0
23163,18143,29709,0,0,0
23124,18119,29667,0,0,0
23100,18098,29624,0,0,0
23075,18084,29590,0,0,0
23040,18063,29551,0,0,0
23009,18034,29502,0,0,0
22993,18011,29464,0,0,0
22975,17998,29445,0,0,0
22940,17977,29417,0,0,0
22902,17949,29371,0,0,0
22876,17931,29326,0,0,0
22850,17920,29287,0,0,0
22809,17900,29237,0,0,0
22768,17870,29179,0,0,0
22739,17846,29136,0,0,0
22705,17828,29105,0,0,0
22661,17801,29063,0,0,0
22624,17769,29014,0,0,0
22602,17748,28974,0,0,0
22575,17733,28940,0,0,0
22537,17710,28895,0,0,0
22505,17682,28847,0,0,0
22486,17663,28817,0,0,0
22463,17650,28795,0,0,0
22431,17628,28761,0,0,0
22405,17604,28723,0,0,0
22390,17594,28700,0,0,0
22370,17590,28682,0,0,0
22346,17575,28650,0,0,0
22330,17560,28617,0,0,0
22320,17557,28598,0,0,0
22300,17553,28581,0,0,0
22268,17535,28547,0,0,0
22246,17511,28511,0,0,0
22230,17495,28487,0,0,0
22207,17481,28464,0,0,0
22182,17464,28430,0,0,0
22166,17453,28397,0,0,0
22152,17454,28380,0,0,0
22130,17451,28363,0,0,0
22106,17435,28332,0,0,0
22097,17421,28304,0,0,0
22092,17417,28287,0,0,0
22078,17410,28265,0,0,0
22065,17396,28233,0,0,0
22059,17388,28207,0,0,0
22049,17384,28193,0,0,0
22024,17372,28170,0,0,0
21999,17349,28134,0,0,0
21989,17333,28107,0,0,0
21980,17327,28097,0,0,0
21958,17319,28081,0,0,0
21938,17307,28057,0,0,0
21931,17301,28042,0,0,0
21921,17299,28032,0,0,0
21900,17288,28009,0,0,0
21881,17272,27976,0,0,0
21874,17266,27954,0,0,0
21866,17264,27942,0,0,0
21850,17255,27923,0,0,0
21843,17243,27899,0,0,0
21846,17242,27887,0,0,0
21842,17245,27883,0,0,0
21827,17238,27863,0,0,0
21816,17226,27834,0,0,0
21813,17221,27818,0,0,0
21803,17219,27808,0,0,0
21786,17210,27782,0,0,0
21781,17202,27751,0,0,0
21782,17208,27734,0,0,0
21769,17210,27718,0,0,0
21743,17194,27687,0,0,0
21721,17171,27653,0,0,0
21710,17162,27639,0,0,0
21705,17165,27637,0,0,0
21710,17170,27634,0,0,0
21739,17183,27646,0,0,0
21787,17217,27691,0,0,0
21838,17260,27759,0,0,0
21899,17300,27833,0,0,0
21980,17349,27925,0,0,0
22077,17414,28046,0,0,0
22180,17486,28180,0,0,0
22300,17558,28318,0,0,0
22443,17642,28478,0,0,0
22592,17743,28666,0,0,0
22734,17844,28859,0,0,0
22880,17939,29049,0,0,0
23038,18039,29253,0,0,0
23188,18147,29466,0,0,0
23317,18247,29665,0,0,0
23443,18332,29843,0,0,0
23574,18417,30021,0,0,0
23696,18504,30200,0,0,0
23795,18580,30356,0,0,0
23885,18644,30487,0,0,0
23975,18709,30615,0,0,0
24051,18770,30743,0,0,0
24109,18813,30851,0,0,0
24166,18844,30935,0,0,0
24227,18878,31014,0,0,0
24279,18915,31088,0,0,0
24314,18942,31140,0,0,0
24342,18958,31174,0,0,0
24366,18974,31206,0,0,0
24373,18983,31229,0,0,0
24363,18977,31227,0,0,0
24358,18967,31212,0,0,0
24363,18967,31208,0,0,0
24357,18969,31206,0,0,0
24335,18957,31186,0,0,0
24312,18938,31155,0,0,0
24292,18925,31132,0,0,0
24264,18910,31110,0,0,0
24233,18883,31072,0,0,0
24217,18860,31036,0,0,0
24211,18853,31016,0,0,0
24195,18847,30999,0,0,0
24170,18828,30969,0,0,0
24149,18806,30934,0,0,0
24133,18793,30907,0,0,0
24115,18782,30878,0,0,0
24097,18766,30839,0,0,0
24090,18756,30806,0,0,0
24085,18757,30789,0,0,0
24069,18754,30768,0,0,0
24052,18742,30737,0,0,0
24043,18734,30714,0,0,0
24032,18730,30703,0,0,0
24011,18719,30683,0,0,0
23995,18699,30650,0,0,0
23992,18689,30626,0,0,0
23989,18689,30614,0,0,0
23973,18683,30594,0,0,0
23959,18669,30563,0,0,0
23959,18663,30543,0,0,0
23955,18662,30532,0,0,0
23939,18654,30515,0,0,0
23931,18643,30492,0,0,0
23937,18644,30487,0,0,0
23941,18655,30495,0,0,0
23934,18659,30497,0,0,0
23934,18658,30493,0,0,0
23947,18666,30502,0,0,0
23955,18678,30520,0,0,0
23957,18680,30528,0,0,0
23968,18678,30531,0,0,0
23988,18690,30549,0,0,0
24001,18709,30577,0,0,0
24007,18719,30595,0,0,0
24024,18725,30611,0,0,0
24052,18740,30642,0,0,0
24067,18754,30672,0,0,0
24070,18756,30681,0,0,0
24080,18757,30682,0,0,0
24100,18768,30697,0,0,0
24116,18784,30718,0,0,0
24127,18792,30727,0,0,0
24140,18798,30732,0,0,0
24152,18807,30745,0,0,0
24148,18809,30751,0,0,0
24132,18795,30735,0,0,0
24121,18779,30716,0,0,0
24111,18773,30711,0,0,0
24092,18766,30707,0,0,0
24071,18753,30694,0,0,0
24057,18741,30682,0,0,0
24041,18735,30681,0,0,0
24012,18721,30668,0,0,0
23980,18696,30636,0,0,0
23962,18679,30606,0,0,0
23944,18670,30584,0,0,0
23910,18652,30551,0,0,0
23874,18624,30506,0,0,0
23851,18604,30470,0,0,0
23827,18596,30445,0,0,0
23792,18582,30410,0,0,0
23759,18558,30362,0,0,0
23738,18541,30323,0,0,0
23715,18530,30294,0,0,0
23684,18511,30257,0,0,0
23661,18487,30212,0,0,0
23650,18474,30180,0,0,0
23635,18468,30161,0,0,0
23607,18453,30132,0,0,0
23581,18428,30095,0,0,0
23561,18409,30066,0,0,0
23533,18392,30038,0,0,0
23497,18365,29996,0,0,0
23472,18340,29952,0,0,0
23457,18331,29925,0,0,0
23434,18324,29901,0,0,0
23397,18302,29858,0,0,0
23363,18270,29802,0,0,0
23337,18248,29758,0,0,0
23305,18232,29720,0,0,0
23268,18210,29672,0,0,0
23242,18188,29625,0,0,0
23223,18178,29591,0,0,0
23191,18166,29557,0,0,0
23153,18140,29505,0,0,0
23124,18114,29454,0,0,0
23102,18100,29423,0,0,0
23075,18088,29400,0,0,0
23051,18069,29369,0,0,0
23036,18051,29340,0,0,0
23022,18043,29324,0,0,0
23001,18034,29303,0,0,0
22982,18015,29269,0,0,0
22973,18000,29241,0,0,0
22962,17994,29226,0,0,0
22938,17985,29204,0,0,0
22916,17969,29171,0,0,0
22904,17956,29142,0,0,0
22887,17945,29121,0,0,0
22853,17926,29089,0,0,0
22822,17901,29048,0,0,0
22806,17888,29018,0,0,0
22792,17884,29000,0,0,0
22769,17874,28974,0,0,0
22751,17857,28940,0,0,0
22740,17848,28917,0,0,0
22725,17848,28904,0,0,0
22701,17840,28882,0,0,0
22683,17827,28853,0,0,0
22680,17824,28838,0,0,0
22674,17826,28830,0,0,0
22655,17818,28807,0,0,0
22638,17803,28777,0,0,0
22628,17793,28755,0,0,0
22612,17784,28735,0,0,0
22584,17765,28700,0,0,0
22563,17743,28662,0,0,0
22554,17735,28641,0,0,0
22540,17730,28625,0,0,0
22514,17714,28595,0,0,0
22491,17694,28559,0,0,0
22477,17683,28537,0,0,0
22462,17677,28522,0,0,0
22443,17666,28497,0,0,0
22434,17656,28474,0,0,0
22435,17659,28466,0,0,0
22423,17661,28456,0,0,0
22402,17649,28430,0,0,0
22391,17635,28399,0,0,0
22386,17630,28380,0,0,0
22370,17624,28361,0,0,0
22346,17610,28330,0,0,0
22324,17600,28303,0,0,0
22301,17600,28289,0,0,0
22269,17595,28269,0,0,0
22241,17578,28236,0,0,0
22233,17569,28214,0,0,0
22239,17575,28217,0,0,0
22247,17583,28231,0,0,0
22272,17596,28256,0,0,0
22326,17631,28311,0,0,0
22397,17688,28400,0,0,0
22476,17747,28504,0,0,0
22579,17811,28620,0,0,0
22712,17894,28771,0,0,0
22857,17995,28954,0,0,0
23002,18097,29147,0,0,0
23157,18196,29341,0,0,0
23326,18303,29550,0,0,0
23493,18419,29771,0,0,0
23652,18526,29986,0,0,0
23815,18630,30194,0,0,0
23980,18743,30415,0,0,0
24135,18859,30643,0,0,0
24274,18962,30856,0,0,0
24412,19054,31054,0,0,0
24550,19148,31254,0,0,0
24672,19236,31445,0,0,0
24776,19309,31611,0,0,0
24880,19377,31761,0,0,0
24983,19453,31913,0,0,0
25067,19520,32052,0,0,0
25130,19565,32156,0,0,0
25189,19598,32236,0,0,0
25248,19634,32312,0,0,0
25292,19664,32376,0,0,0
25323,19682,32417,0,0,0
25351,19698,32448,0,0,0
25377,19722,32484,0,0,0
25385,19738,32510,0,0,0
25382,19734,32511,0,0,0
25382,19726,32502,0,0,0
25383,19727,32499,0,0,0
25373,19722,32490,0,0,0
25358,19705,32468,0,0,0
25348,19690,32448,0,0,0
25335,19682,32441,0,0,0
25311,19669,32426,0,0,0
25289,19644,32396,0,0,0
25280,19628,32373,0,0,0
25274,19626,32363,0,0,0
25254,19620,32347,0,0,0
25233,19607,32320,0,0,0
25228,19602,32302,0,0,0
25224,19608,32294,0,0,0
25208,19608,32275,0,0,0
25196,19602,32248,0,0,0
25198,19603,32235,0,0,0
25199,19608,32234,0,0,0
25189,19604,32224,0,0,0
25180,19591,32204,0,0,0
25179,19583,32191,0,0,0
25173,19579,32182,0,0,0
25158,19567,32161,0,0,0
25151,19553,32138,0,0,0
25153,19551,32132,0,0,0
25147,19551,32133,0,0,0
25129,19538,32119,0,0,0
25114,19519,32095,0,0,0
25107,19512,32081,0,0,0
25095,19511,32074,0,0,0
25076,19501,32059,0,0,0
25067,19493,32045,0,0,0
25070,19500,32048,0,0,0
25067,19511,32055,0,0,0
25058,19512,32051,0,0,0
25059,19510,32049,0,0,0
25071,19517,32065,0,0,0
25078,19525,32085,0,0,0
25079,19526,32092,0,0,0
25086,19528,32099,0,0,0
25096,19539,32116,0,0,0
25095,19547,32130,0,0,0
25089,19544,32131,0,0,0
25096,19544,32138,0,0,0
25113,19557,32164,0,0,0
25122,19564,32183,0,0,0
25125,19558,32188,0,0,0
25135,19553,32195,0,0,0
25142,19555,32207,0,0,0
25134,19551,32208,0,0,0
25128,19542,32197,0,0,0
25133,19545,32198,0,0,0
25135,19558,32212,0,0,0
25121,19559,32218,0,0,0
25102,19544,32208,0,0,0
25092,19533,32204,0,0,0
25080,19527,32207,0,0,0
25057,19511,32200,0,0,0
25034,19486,32179,0,0,0
25020,19469,32164,0,0,0
25005,19459,32156,0,0,0
24982,19441,32133,0,0,0
24963,19420,32095,0,0,0
24950,19409,32065,0,0,0
24927,19400,32039,0,0,0
24888,19378,31998,0,0,0
24850,19347,31948,0,0,0
24822,19324,31909,0,0,0
24792,19308,31874,0,0,0
24754,19284,31827,0,0,0
24720,19259,31775,0,0,0
24693,19242,31734,0,0,0
24654,19225,31694,0,0,0
24604,19194,31640,0,0,0
24561,19160,31582,0,0,0
24529,19139,31540,0,0,0
24495,19121,31503,0,0,0
24457,19094,31452,0,0,0
24428,19066,31400,0,0,0
24404,19047,31362,0,0,0
24369,19026,31322,0,0,0
24328,18992,31264,0,0,0
24299,18961,31209,0,0,0
24275,18946,31174,0,0,0
24242,18932,31145,0,0,0
24208,18909,31105,0,0,0
24186,18890,31069,0,0,0
24165,18878,31042,0,0,0
24130,18860,31007,0,0,0
24092,18835,30962,0,0,0
24071,18817,30931,0,0,0
24057,18805,30915,0,0,0
24029,18783,30888,0,0,0
23998,18751,30842,0,0,0
23981,18727,30800,0,0,0
23962,18713,30768,0,0,0
23930,18692,30730,0,0,0
23900,18665,30683,0,0,0
23883,18648,30650,0,0,0
23866,18644,30632,0,0,0
23838,18634,30603,0,0,0
23811,18613,30560,0,0,0
23794,18599,30526,0,0,0
23773,18590,30500,0,0,0
23741,18572,30463,0,0,0
23713,18549,30419,0,0,0
23693,18533,30386,0,0,0
23668,18521,30359,0,0,0
23634,18499,30318,0,0,0
23608,18475,30271,0,0,0
23591,18462,30242,0,0,0
23570,18454,30222,0,0,0
23545,18439,30195,0,0,0
23531,18424,30166,0,0,0
23523,18419,30149,0,0,0
23502,18411,30133,0,0,0
23470,18390,30103,0,0,0
23452,18369,30069,0,0,0
23444,18363,30049,0,0,0
23426,18361,30029,0,0,0
23399,18350,29998,0,0,0
23377,18336,29965,0,0,0
23356,18327,29940,0,0,0
23325,18315,29909,0,0,0
23292,18290,29860,0,0,0
23270,18266,29814,0,0,0
23252,18253,29788,0,0,0
23223,18238,29763,0,0,0
23191,18213,29727,0,0,0
23170,18192,29695,0,0,0
23152,18180,29674,0,0,0
23122,18162,29645,0,0,0
23094,18135,29606,0,0,0
23080,18117,29579,0,0,0
23063,18110,29567,0,0,0
23030,18096,29546,0,0,0
23000,18073,29510,0,0,0
22986,18059,29480,0,0,0
22972,18053,29461,0,0,0
22945,18039,29430,0,0,0
22921,18019,29389,0,0,0
22908,18005,29359,0,0,0
22889,17995,29339,0,0,0
22858,17977,29309,0,0,0
22833,17955,29270,0,0,0
22822,17946,29242,0,0,0
22809,17947,29227,0,0,0
22792,17944,29208,0,0,0
22790,17942,29193,0,0,0
22808,17952,29202,0,0,0
22834,17974,29231,0,0,0
22868,17998,29268,0,0,0
22928,18034,29330,0,0,0
23017,18098,29433,0,0,0
23113,18179,29565,0,0,0
23212,18260,29703,0,0,0
23328,18346,29856,0,0,0
23467,18449,30040,0,0,0
23614,18559,30246,0,0,0
23765,18665,30454,0,0,0
23931,18774,30673,0,0,0
24106,18894,30914,0,0,0
24270,19012,31157,0,0,0
24425,19116,31382,0,0,0
24589,19220,31603,0,0,0
24757,19332,31833,0,0,0
24908,19439,32056,0,0,0
25046,19530,32258,0,0,0
25182,19614,32453,0,0,0
25305,19699,32643,0,0,0
25406,19772,32807,0,0,0
25498,19826,32941,0,0,0
25590,19878,33067,0,0,0
25672,19933,33192,0,0,0
25730,19972,33290,0,0,0
25775,19994,33358,0,0,0
25821,20016,33422,0,0,0
25857,20042,33485,0,0,0
25875,20061,33527,0,0,0
25890,20070,33545,0,0,0
25911,20081,33560,0,0,0
25919,20089,33572,0,0,0
25907,20083,33563,0,0,0
25896,20067,33539,0,0,0
25893,20055,33523,0,0,0
25884,20050,33515,0,0,0
25863,20038,33496,0,0,0
25847,20022,33469,0,0,0
25841,20011,33452,0,0,0
25829,20003,33439,0,0,0
25805,19983,33410,0,0,0
25788,19962,33377,0,0,0
25782,19953,33358,0,0,0
25767,19947,33346,0,0,0
25738,19931,33317,0,0,0
25713,19913,33284,0,0,0
25699,19910,33269,0,0,0
25679,19911,33261,0,0,0
25653,19900,33238,0,0,0
25641,19886,33213,0,0,0
25642,19885,33202,0,0,0
25635,19884,33193,0,0,0
25621,19868,33171,0,0,0
25613,19851,33149,0,0,0
25608,19843,33141,0,0,0
25592,19834,33133,0,0,0
25572,19817,33111,0,0,0
25558,19801,33089,0,0,0
25542,19793,33078,0,0,0
25513,19784,33063,0,0,0
25482,19767,33032,0,0,0
25466,19760,33007,0,0,0
25457,19764,32999,0,0,0
25442,19763,32989,0,0,0
25435,19754,32975,0,0,0
25447,19751,32970,0,0,0
25455,19754,32975,0,0,0
25449,19752,32971,0,0,0
25448,19742,32957,0,0,0
25461,19741,32955,0,0,0
25471,19750,32967,0,0,0
25465,19753,32972,0,0,0
25459,19749,32969,0,0,0
25466,19752,32976,0,0,0
25470,19762,32993,0,0,0
25464,19763,33001,0,0,0
25468,19758,33003,0,0,0
25488,19765,33018,0,0,0
25502,19778,33041,0,0,0
25503,19779,33053,0,0,0
25508,19771,33055,0,0,0
25519,19768,33066,0,0,0
25519,19765,33078,0,0,0
25506,19752,33075,0,0,0
25499,19741,33069,0,0,0
25504,19744,33078,0,0,0
25500,19748,33089,0,0,0
25481,19737,33080,0,0,0
25466,19723,33064,0,0,0
25460,19722,33061,0,0,0
25444,19725,33056,0,0,0
25416,19712,33028,0,0,0
25388,19693,32990,0,0,0
25360,19680,32962,0,0,0
25320,19663,32933,0,0,0
25273,19629,32885,0,0,0
25236,19595,32836,0,0,0
25207,19575,32802,0,0,0
25168,19556,32766,0,0,0
25125,19525,32718,0,0,0
25092,19492,32667,0,0,0
25058,19465,32623,0,0,0
25015,19434,32574,0,0,0
24978,19398,32516,0,0,0
24952,19371,32464,0,0,0
24921,19351,32423,0,0,0
24873,19322,32372,0,0,0
24820,19282,32306,0,0,0
24780,19251,32247,0,0,0
24742,19231,32197,0,0,0
24696,19206,32140,0,0,0
24659,19174,32075,0,0,0
24636,19147,32019,0,0,0
24606,19125,31971,0,0,0
24561,19095,31914,0,0,0
24523,19061,31851,0,0,0
24498,19035,31802,0,0,0
24466,19018,31768,0,0,0
24422,18994,31730,0,0,0
24383,18964,31686,0,0,0
24354,18937,31650,0,0,0
24322,18913,31620,0,0,0
24280,18882,31575,0,0,0
24243,18849,31524,0,0,0
24217,18830,31486,0,0,0
24184,18817,31453,0,0,0
24141,18793,31408,0,0,0
24102,18764,31359,0,0,0
24071,18743,31325,0,0,0
24032,18721,31293,0,0,0
23987,18689,31248,0,0,0
23959,18660,31204,0,0,0
23944,18646,31178,0,0,0
23920,18636,31155,0,0,0
23888,18617,31117,0,0,0
23860,18598,31076,0,0,0
23838,18589,31048,0,0,0
23812,18582,31024,0,0,0
23783,18567,30985,0,0,0
23761,18551,30944,0,0,0
23740,18538,30914,0,0,0
23705,18521,30878,0,0,0
23663,18493,30826,0,0,0
23634,18471,30781,0,0,0
23610,18462,30754,0,0,0
23579,18450,30725,0,0,0
23553,18431,30684,0,0,0
23540,18417,30649,0,0,0
23522,18406,30623,0,0,0
23493,18386,30586,0,0,0
23475,18361,30540,0,0,0
23473,18345,30506,0,0,0
23464,18340,30488,0,0,0
23437,18329,30465,0,0,0
23413,18311,30434,0,0,0
23402,18299,30411,0,0,0
23387,18291,30393,0,0,0
23357,18274,30361,0,0,0
23328,18252,30319,0,0,0
23304,18238,30286,0,0,0
23273,18228,30259,0,0,0
23230,18207,30220,0,0,0
23193,18181,30175,0,0,0
23166,18165,30145,0,0,0
23139,18155,30126,0,0,0
23104,18133,30097,0,0,0
23073,18106,30059,0,0,0
23050,18085,30031,0,0,0
23021,18067,30007,0,0,0
22988,18041,29967,0,0,0
22968,18016,29923,0,0,0
22957,18006,29895,0,0,0
22934,17998,29870,0,0,0
22896,17977,29829,0,0,0
22866,17951,29784,0,0,0
22846,17933,29752,0,0,0
22824,17918,29725,0,0,0
22802,17898,29688,0,0,0
22790,17881,29653,0,0,0
22785,17874,29636,0,0,0
22777,17869,29626,0,0,0
22776,17862,29615,0,0,0
22797,17868,29622,0,0,0
22832,17895,29663,0,0,0
22869,17928,29721,0,0,0
22921,17965,29791,0,0,0
23003,18019,29890,0,0,0
23105,18094,30024,0,0,0
23216,18179,30177,0,0,0
23348,18272,30344,0,0,0
23508,18385,30542,0,0,0
23677,18513,30765,0,0,0
23831,18634,30984,0,0,0
23982,18741,31190,0,0,0
24146,18849,31405,0,0,0
24309,18960,31631,0,0,0
24455,19058,31847,0,0,0
24594,19143,32047,0,0,0
24731,19231,32248,0,0,0
24855,19323,32447,0,0,0
24961,19402,32624,0,0,0
25064,19471,32777,0,0,0
25167,19543,32928,0,0,0
25254,19614,33071,0,0,0
25322,19668,33186,0,0,0
25381,19705,33275,0,0,0
25433,19737,33358,0,0,0
25468,19763,33429,0,0,0
25487,19772,33476,0,0,0
25507,19775,33510,0,0,0
25529,19787,33549,0,0,0
25533,19797,33579,0,0,0
25520,19791,33585,0,0,0
25509,19778,33578,0,0,0
25502,19772,33574,0,0,0
25486,19770,33568,0,0,0
25465,19758,33546,0,0,0
25451,19746,33521,0,0,0
25441,19741,33507,0,0,0
25417,19732,33488,0,0,0
25383,19706,33450,0,0,0
25357,19678,33406,0,0,0
25335,19660,33368,0,0,0
25304,19642,33329,0,0,0
25272,19619,33283,0,0,0
25250,19603,33245,0,0,0
25230,19598,33222,0,0,0
25198,19586,33192,0,0,0
25167,19562,33150,0,0,0
25151,19542,33117,0,0,0
25138,19531,33099,0,0,0
25114,19514,33077,0,0,0
25093,19492,33048,0,0,0
25085,19481,33028,0,0,0
25074,19478,33018,0,0,0
25048,19465,32996,0,0,0
25025,19443,32960,0,0,0
25014,19428,32934,0,0,0
25003,19421,32919,0,0,0
24981,19403,32897,0,0,0
24959,19377,32866,0,0,0
24944,19360,32841,0,0,0
24920,19350,32823,0,0,0
24884,19331,32791,0,0,0
24856,19309,32751,0,0,0
24844,19300,32730,0,0,0
24834,19301,32728,0,0,0
24823,19295,32723,0,0,0
24820,19288,32713,0,0,0
24827,19291,32717,0,0,0
24826,19294,32722,0,0,0
24815,19285,32710,0,0,0
24815,19276,32697,0,0,0
24828,19282,32703,0,0,0
24833,19294,32717,0,0,0
24828,19294,32719,0,0,0
24828,19292,32722,0,0,0
24836,19301,32740,0,0,0
24841,19314,32761,0,0,0
24846,19320,32768,0,0,0
24861,19326,32777,0,0,0
24882,19342,32801,0,0,0
24889,19356,32822,0,0,0
24887,19356,32827,0,0,0
24891,19357,32831,0,0,0
24895,19364,32842,0,0,0
24886,19364,32844,0,0,0
24871,19352,32830,0,0,0
24862,19341,32817,0,0,0
24848,19330,32809,0,0,0
24821,19310,32789,0,0,0
24798,19282,32755,0,0,0
24788,19261,32733,0,0,0
24776,19250,32723,0,0,0
24747,19231,32699,0,0,0
24715,19202,32657,0,0,0
24692,19179,32620,0,0,0
24663,19163,32591,0,0,0
24620,19139,32551,0,0,0
24579,19108,32500,0,0,0
24547,19084,32455,0,0,0
24509,19067,32418,0,0,0
24460,19040,32370,0,0,0
24415,19007,32312,0,0,0
24382,18982,32263,0,0,0
24346,18964,32220,0,0,0
24299,18938,32167,0,0,0
24253,18904,32107,0,0,0
24214,18879,32061,0,0,0
24170,18858,32021,0,0,0
24119,18826,31968,0,0,0
24076,18787,31909,0,0,0
24045,18759,31866,0,0,0
24013,18735,31832,0,0,0
23973,18703,31786,0,0,0
23940,18672,31736,0,0,0
23914,18655,31702,0,0,0
23883,18641,31671,0,0,0
23849,18617,31621,0,0,0
23827,18594,31569,0,0,0
23811,18585,31533,0,0,0
23784,18575,31501,0,0,0
23751,18553,31453,0,0,0
23723,18528,31400,0,0,0
23696,18509,31358,0,0,0
23660,18490,31315,0,0,0
23622,18463,31261,0,0,0
23596,18440,31214,0,0,0
23574,18428,31186,0,0,0
23541,18412,31154,0,0,0
23506,18388,31114,0,0,0
23484,18368,31083,0,0,0
23460,18354,31062,0,0,0
23425,18334,31033,0,0,0
23397,18307,30993,0,0,0
23385,18292,30961,0,0,0
23374,18287,30942,0,0,0
23350,18276,30914,0,0,0
23327,18255,30873,0,0,0
23314,18239,30840,0,0,0
23298,18231,30818,0,0,0
23274,18217,30789,0,0,0
23259,18199,30752,0,0,0
23257,18190,30729,0,0,0
23248,18186,30716,0,0,0
23223,18173,30693,0,0,0
23197,18156,30660,0,0,0
23179,18145,30635,0,0,0
23159,18136,30615,0,0,0
23135,18119,30585,0,0,0
23118,18100,30552,0,0,0
23109,18094,30535,0,0,0
23092,18092,30524,0,0,0
23066,18080,30495,0,0,0
23045,18063,30457,0,0,0
23031,18053,30428,0,0,0
23011,18043,30402,0,0,0
22986,18021,30365,0,0,0
22972,18002,30331,0,0,0
22966,18000,30315,0,0,0
22947,17998,30299,0,0,0
22917,17983,30268,0,0,0
22893,17963,30231,0,0,0
22875,17952,30205,0,0,0
22850,17940,30181,0,0,0
22823,17918,30145,0,0,0
22803,17899,30112,0,0,0
22782,17890,30097,0,0,0
22748,17879,30082,0,0,0
22716,17862,30053,0,0,0
22705,17853,30028,0,0,0
22708,17859,30018,0,0,0
22716,17869,30017,0,0,0
22743,17882,30027,0,0,0
22800,17914,30069,0,0,0
22869,17965,30147,0,0,0
22938,18021,30239,0,0,0
23022,18078,30342,0,0,0
23136,18155,30476,0,0,0
23265,18252,30646,0,0,0
23400,18354,30830,0,0,0
23551,18457,31026,0,0,0
23721,18570,31247,0,0,0
23892,18691,31483,0,0,0
24054,18805,31709,0,0,0
24215,18912,31925,0,0,0
24380,19024,32148,0,0,0
24536,19140,32373,0,0,0
24677,19246,32578,0,0,0
24814,19342,32767,0,0,0
24948,19442,32956,0,0,0
25063,19535,33138,0,0,0
25157,19606,33288,0,0,0
25249,19663,33416,0,0,0
25343,19725,33546,0,0,0
25424,19783,33668,0,0,0
25484,19821,33757,0,0,0
25538,19848,33828,0,0,0
25587,19878,33900,0,0,0
25618,19904,33960,0,0,0
25634,19915,33992,0,0,0
25652,19922,34012,0,0,0
25669,19938,34038,0,0,0
25666,19945,34055,0,0,0
25646,19933,34042,0,0,0
25631,19916,34017,0,0,0
25620,19904,34000,0,0,0
25600,19892,33982,0,0,0
25579,19871,33948,0,0,0
25561,19849,33913,0,0,0
25538,19835,33887,0,0,0
25500,19817,33854,0,0,0
25461,19787,33805,0,0,0
25438,19762,33763,0,0,0
25421,19747,33738,0,0,0
25393,19729,33708,0,0,0
25368,19706,33668,0,0,0
25358,19692,33636,0,0,0
25345,19684,33616,0,0,0
25320,19669,33588,0,0,0
25300,19650,33552,0,0,0
25296,19640,33527,0,0,0
25291,19640,33515,0,0,0
25274,19631,33494,0,0,0
25257,19616,33462,0,0,0
25250,19610,33437,0,0,0
25240,19613,33423,0,0,0
25217,19608,33402,0,0,0
25199,19593,33374,0,0,0
25189,19580,33356,0,0,0
25171,19568,33343,0,0,0
25142,19547,33321,0,0,0
25123,19526,33295,0,0,0
25117,19522,33284,0,0,0
25109,19527,33282,0,0,0
25096,19523,33268,0,0,0
25092,19512,33249,0,0,0
25100,19510,33246,0,0,0
25104,19512,33252,0,0,0
25107,19509,33250,0,0,0
25125,19511,33252,0,0,0
25155,19528,33270,0,0,0
25173,19545,33288,0,0,0
25175,19550,33290,0,0,0
25183,19558,33293,0,0,0
25199,19578,33314,0,0,0
25207,19597,33337,0,0,0
25208,19600,33347,0,0,0
25216,19601,33357,0,0,0
25226,19611,33380,0,0,0
25226,19617,33400,0,0,0
25223,19611,33403,0,0,0
25232,19609,33409,0,0,0
25245,19621,33428,0,0,0
25246,19629,33441,0,0,0
25243,19624,33441,0,0,0
25251,19624,33446,0,0,0
25255,19631,33459,0,0,0
25243,19631,33457,0,0,0
25232,19622,33438,0,0,0
25233,19620,33422,0,0,0
25228,19624,33417,0,0,0
25206,19616,33400,0,0,0
25182,19598,33367,0,0,0
25167,19585,33338,0,0,0
25145,19576,33312,0,0,0
25109,19556,33275,0,0,0
25077,19529,33230,0,0,0
25053,19510,33194,0,0,0
25021,19497,33161,0,0,0
24979,19475,33114,0,0,0
24943,19449,33058,0,0,0
24917,19430,33014,0,0,0
24882,19412,32977,0,0,0
24832,19377,32925,0,0,0
24781,19335,32865,0,0,0
24738,19304,32821,0,0,0
24693,19280,32784,0,0,0
24643,19246,32733,0,0,0
24605,19214,32682,0,0,0
24577,19198,32647,0,0,0
24539,19182,32613,0,0,0
24490,19149,32558,0,0,0
24452,19113,32500,0,0,0
24426,19089,32457,0,0,0
24392,19068,32420,0,0,0
24352,19039,32367,0,0,0
24317,19009,32310,0,0,0
24286,18988,32263,0,0,0
24249,18967,32217,0,0,0
24214,18939,32160,0,0,0
24190,18914,32110,0,0,0
24167,18901,32075,0,0,0
24129,18884,32038,0,0,0
24085,18858,31991,0,0,0
24054,18839,31949,0,0,0
24028,18830,31919,0,0,0
23995,18815,31882,0,0,0
23969,18793,31835,0,0,0
23955,18775,31796,0,0,0
23936,18763,31770,0,0,0
23901,18742,31740,0,0,0
23868,18712,31699,0,0,0
23850,18691,31668,0,0,0
23835,18683,31650,0,0,0
23811,18668,31622,0,0,0
23791,18644,31580,0,0,0
23780,18626,31545,0,0,0
23761,18616,31521,0,0,0
23730,18599,31487,0,0,0
23704,18578,31448,0,0,0
23686,18568,31421,0,0,0
23662,18564,31405,0,0,0
23631,18550,31376,0,0,0
23607,18530,31335,0,0,0
23594,18519,31302,0,0,0
23576,18513,31275,0,0,0
23549,18497,31241,0,0,0
23531,18476,31205,0,0,0
23520,18465,31184,0,0,0
23501,18457,31164,0,0,0
23474,18439,31130,0,0,0
23457,18421,31092,0,0,0
23450,18415,31072,0,0,0
23434,18411,31054,0,0,0
23409,18396,31019,0,0,0
23394,18380,30984,0,0,0
23385,18375,30964,0,0,0
23364,18369,30946,0,0,0
23336,18351,30915,0,0,0
23317,18333,30884,0,0,0
23301,18327,30866,0,0,0
23281,18323,30850,0,0,0
23264,18311,30824,0,0,0
23253,18299,30799,0,0,0
23235,18290,30782,0,0,0
23206,18275,30758,0,0,0
23177,18251,30717,0,0,0
23161,18233,30679,0,0,0
23144,18226,30655,0,0,0
23112,18212,30622,0,0,0
23079,18188,30573,0,0,0
23060,18171,30534,0,0,0
23044,18161,30508,0,0,0
23020,18146,30479,0,0,0
23000,18128,30448,0,0,0
22999,18125,30439,0,0,0
23006,18135,30454,0,0,0
23018,18147,30474,0,0,0
23051,18167,30505,0,0,0
23113,18210,30572,0,0,0
23189,18273,30674,0,0,0
23274,18341,30792,0,0,0
23382,18414,30924,0,0,0
23515,18505,31088,0,0,0
23657,18608,31279,0,0,0
23802,18709,31477,0,0,0
23964,18814,31686,0,0,0
24141,18935,31916,0,0,0
24310,19057,32155,0,0,0
24466,19165,32379,0,0,0
24625,19270,32597,0,0,0
24790,19386,32831,0,0,0
24943,19503,33064,0,0,0
25077,19604,33271,0,0,0
25205,19694,33462,0,0,0
25333,19788,33654,0,0,0
25451,19880,33836,0,0,0
25554,19956,33993,0,0,0
25654,20021,34134,0,0,0
25744,20087,34276,0,0,0
25813,20143,34401,0,0,0
25867,20181,34496,0,0,0
25925,20216,34578,0,0,0
25977,20257,34660,0,0,0
26010,20288,34726,0,0,0
26033,20304,34769,0,0,0
26059,20318,34805,0,0,0
26081,20333,34837,0,0,0
26088,20336,34850,0,0,0
26093,20328,34844,0,0,0
26104,20325,34841,0,0,0
26108,20331,34845,0,0,0
26092,20327,34833,0,0,0
26071,20306,34801,0,0,0
26062,20289,34777,0,0,0
26055,20280,34766,0,0,0
26034,20264,34746,0,0,0
26014,20241,34716,0,0,0
26002,20228,34694,0,0,0
25985,20222,34679,0,0,0
25962,20209,34656,0,0,0
25952,20196,34631,0,0,0
25954,20194,34623,0,0,0
25951,20198,34626,0,0,0
25937,20192,34616,0,0,0
25931,20185,34601,0,0,0
25938,20193,34601,0,0,0
25942,20206,34610,0,0,0
25934,20207,34604,0,0,0
25929,20202,34590,0,0,0
25929,20204,34588,0,0,0
25919,20205,34588,0,0,0
25899,20191,34573,0,0,0
25887,20176,34551,0,0,0
25880,20175,34540,0,0,0
25862,20175,34528,0,0,0
25836,20162,34499,0,0,0
25820,20148,34469,0,0,0
25814,20146,34455,0,0,0
25800,20147,34445,0,0,0
25782,20138,34421,0,0,0
25772,20126,34397,0,0,0
25765,20122,34389,0,0,0
25754,20118,34386,0,0,0
25745,20109,34379,0,0,0
25748,20106,34382,0,0,0
25754,20114,34401,0,0,0
25750,20119,34413,0,0,0
25747,20113,34411,0,0,0
25759,20113,34414,0,0,0
25773,20122,34427,0,0,0
25775,20125,34433,0,0,0
25783,20125,34431,0,0,0
25807,20134,34441,0,0,0
25826,20149,34464,0,0,0
25827,20156,34479,0,0,0
25827,20154,34483,0,0,0
25839,20161,34497,0,0,0
25850,20176,34518,0,0,0
25850,20181,34528,0,0,0
25848,20177,34524,0,0,0
25851,20177,34524,0,0,0
25847,20181,34530,0,0,0
25826,20173,34518,0,0,0
25805,20154,34490,0,0,0
25792,20141,34469,0,0,0
25773,20133,34457,0,0,0
25742,20116,34436,0,0,0
25713,20093,34408,0,0,0
25688,20075,34385,0,0,0
25655,20058,34360,0,0,0
25617,20030,34317,0,0,0
25590,20003,34271,0,0,0
25570,19987,34244,0,0,0
25537,19972,34221,0,0,0
25492,19943,34177,0,0,0
25452,19907,34122,0,0,0
25420,19880,34075,0,0,0
25382,19856,34030,0,0,0
25339,19824,33971,0,0,0
25304,19794,33911,0,0,0
25276,19779,33869,0,0,0
25239,19762,33828,0,0,0
25196,19732,33771,0,0,0
25161,19705,33715,0,0,0
25128,19689,33675,0,0,0
25086,19672,33634,0,0,0
25046,19648,33588,0,0,0
25016,19627,33550,0,0,0
24985,19612,33522,0,0,0
24945,19593,33483,0,0,0
24909,19564,33426,0,0,0
24886,19542,33378,0,0,0
24864,19531,33346,0,0,0
24827,19515,33308,0,0,0
24791,19489,33258,0,0,0
24767,19468,33217,0,0,0
24741,19453,33187,0,0,0
24701,19432,33148,0,0,0
24667,19406,33099,0,0,0
24648,19389,33058,0,0,0
24628,19380,33026,0,0,0
24598,19363,32987,0,0,0
24571,19339,32939,0,0,0
24555,19321,32899,0,0,0
24535,19308,32867,0,0,0
24507,19288,32828,0,0,0
24482,19269,32786,0,0,0
24467,19265,32761,0,0,0
24448,19266,32743,0,0,0
24420,19252,32712,0,0,0
24394,19229,32673,0,0,0
24373,19213,32646,0,0,0
24342,19196,32620,0,0,0
24301,19168,32582,0,0,0
24272,19143,32547,0,0,0
24256,19135,32530,0,0,0
24232,19129,32514,0,0,0
24196,19110,32477,0,0,0
24165,19084,32431,0,0,0
24142,19066,32397,0,0,0
24115,19051,32369,0,0,0
24085,19030,32329,0,0,0
24064,19011,32288,0,0,0
24046,19000,32263,0,0,0
24019,18986,32237,0,0,0
23991,18960,32192,0,0,0
23978,18940,32150,0,0,0
23969,18933,32126,0,0,0
23947,18924,32102,0,0,0
23920,18908,32068,0,0,0
23903,18898,32040,0,0,0
23885,18895,32023,0,0,0
23854,18884,31997,0,0,0
23825,18865,31958,0,0,0
23808,18854,31928,0,0,0
23785,18850,31906,0,0,0
23749,18836,31875,0,0,0
23714,18812,31832,0,0,0
23694,18792,31797,0,0,0
23679,18778,31775,0,0,0
23652,18755,31746,0,0,0
23625,18725,31708,0,0,0
23607,18706,31678,0,0,0
23588,18697,31660,0,0,0
23560,18682,31632,0,0,0
23538,18662,31595,0,0,0
23527,18651,31565,0,0,0
23512,18644,31540,0,0,0
23488,18629,31504,0,0,0
23468,18610,31458,0,0,0
23456,18600,31422,0,0,0
23435,18592,31390,0,0,0
23401,18570,31346,0,0,0
23372,18545,31301,0,0,0
23347,18531,31275,0,0,0
23313,18520,31257,0,0,0
23280,18505,31233,0,0,0
23272,18496,31216,0,0,0
23288,18507,31228,0,0,0
23315,18532,31264,0,0,0
23356,18560,31314,0,0,0
23424,18601,31390,0,0,0
23515,18668,31505,0,0,0
23618,18750,31648,0,0,0
23735,18835,31803,0,0,0
23877,18930,31984,0,0,0
24036,19046,32203,0,0,0
24197,19168,32436,0,0,0
24364,19284,32666,0,0,0
24543,19404,32906,0,0,0
24719,19530,33158,0,0,0
24879,19649,33404,0,0,0
25037,19756,33633,0,0,0
25200,19865,33864,0,0,0
25355,19981,34098,0,0,0
25486,20088,34314,0,0,0
25609,20179,34503,0,0,0
25740,20271,34684,0,0,0
25861,20364,34861,0,0,0
25960,20443,35014,0,0,0
26051,20507,35141,0,0,0
26144,20570,35263,0,0,0
26221,20630,35381,0,0,0
26273,20671,35473,0,0,0
26316,20695,35537,0,0,0
26361,20721,35595,0,0,0
26398,20746,35648,0,0,0
26421,20758,35681,0,0,0
26439,20760,35699,0,0,0
26451,20762,35716,0,0,0
26443,20760,35727,0,0,0
26422,20747,35718,0,0,0
26412,20731,35702,0,0,0
26416,20728,35698,0,0,0
26413,20728,35701,0,0,0
26394,20716,35688,0,0,0
26373,20698,35665,0,0,0
26358,20688,35652,0,0,0
26334,20678,35642,0,0,0
26301,20658,35618,0,0,0
26282,20641,35595,0,0,0
26275,20637,35586,0,0,0
26261,20631,35577,0,0,0
26244,20614,35553,0,0,0
26238,20595,35531,0,0,0
26234,20589,35523,0,0,0
26222,20589,35517,0,0,0
26211,20586,35499,0,0,0
26212,20586,35482,0,0,0
26215,20596,35476,0,0,0
26202,20599,35462,0,0,0
26182,20587,35432,0,0,0
26173,20579,35408,0,0,0
26168,20580,35399,0,0,0
26151,20575,35384,0,0,0
26135,20561,35359,0,0,0
26129,20551,35340,0,0,0
26119,20547,35328,0,0,0
26093,20534,35306,0,0,0
26069,20510,35270,0,0,0
26056,20495,35242,0,0,0
26044,20493,35233,0,0,0
26024,20487,35222,0,0,0
26008,20474,35205,0,0,0
26005,20469,35199,0,0,0
26002,20471,35202,0,0,0
25992,20466,35195,0,0,0
25987,20459,35181,0,0,0
25993,20464,35185,0,0,0
25994,20478,35203,0,0,0
25989,20482,35214,0,0,0
25989,20482,35219,0,0,0
25994,20491,35236,0,0,0
25990,20502,35256,0,0,0
25979,20502,35262,0,0,0
25979,20502,35264,0,0,0
25993,20515,35280,0,0,0
26001,20531,35300,0,0,0
25994,20529,35301,0,0,0
25988,20520,35289,0,0,0
25988,20519,35289,0,0,0
25980,20517,35291,0,0,0
25968,20504,35278,0,0,0
25965,20492,35264,0,0,0
25964,20490,35263,0,0,0
25946,20485,35257,0,0,0
25918,20466,35235,0,0,0
25894,20443,35207,0,0,0
25867,20426,35185,0,0,0
25826,20407,35154,0,0,0
25782,20375,35103,0,0,0
25747,20347,35054,0,0,0
25714,20331,35022,0,0,0
25671,20310,34986,0,0,0
25630,20281,34942,0,0,0
25600,20254,34906,0,0,0
25568,20233,34879,0,0,0
25521,20205,34837,0,0,0
25472,20166,34778,0,0,0
25435,20134,34725,0,0,0
25396,20111,34683,0,0,0
25344,20082,34631,0,0,0
25292,20046,34566,0,0,0
25251,20015,34508,0,0,0
25208,19990,34460,0,0,0
25154,19957,34403,0,0,0
25106,19920,34335,0,0,0
25072,19891,34276,0,0,0
25040,19870,34229,0,0,0
24999,19842,34173,0,0,0
24962,19807,34110,0,0,0
24934,19779,34058,0,0,0
24895,19755,34014,0,0,0
24847,19722,33960,0,0,0
24810,19688,33903,0,0,0
24784,19669,33863,0,0,0
24750,19654,33831,0,0,0
24708,19630,33785,0,0,0
24677,19607,33736,0,0,0
24654,19597,33703,0,0,0
24621,19589,33675,0,0,0
24584,19567,33631,0,0,0
24556,19545,33586,0,0,0
24533,19533,33558,0,0,0
24501,19519,33532,0,0,0
24463,19490,33490,0,0,0
24428,19455,33439,0,0,0
24394,19426,33397,0,0,0
24352,19400,33354,0,0,0
24306,19370,33298,0,0,0
24272,19347,33249,0,0,0
24244,19340,33215,0,0,0
24208,19331,33178,0,0,0
24176,19312,33131,0,0,0
24157,19295,33088,0,0,0
24135,19281,33055,0,0,0
24104,19259,33015,0,0,0
24076,19229,32965,0,0,0
24061,19207,32925,0,0,0
24043,19198,32901,0,0,0
24008,19183,32870,0,0,0
23970,19159,32826,0,0,0
23942,19139,32790,0,0,0
23910,19127,32765,0,0,0
23868,19109,32731,0,0,0
23834,19088,32689,0,0,0
23814,19075,32657,0,0,0
23790,19066,32630,0,0,0
23757,19047,32589,0,0,0
23732,19020,32540,0,0,0
23715,18999,32501,0,0,0
23693,18981,32469,0,0,0
23662,18955,32428,0,0,0
23635,18927,32383,0,0,0
23615,18910,32353,0,0,0
23588,18898,32330,0,0,0
23552,18879,32293,0,0,0
23524,18858,32252,0,0,0
23506,18849,32225,0,0,0
23482,18844,32203,0,0,0
23449,18827,32169,0,0,0
23427,18810,32135,0,0,0
23415,18803,32116,0,0,0
23391,18796,32097,0,0,0
23357,18777,32062,0,0,0
23331,18758,32024,0,0,0
23312,18749,32000,0,0,0
23287,18740,31975,0,0,0
23260,18718,31935,0,0,0
23238,18693,31897,0,0,0
23215,18680,31875,0,0,0
23179,18664,31847,0,0,0
23139,18635,31801,0,0,0
23112,18611,31758,0,0,0
23090,18598,31728,0,0,0
23060,18582,31691,0,0,0
23033,18561,31646,0,0,0
23017,18549,31613,0,0,0
22999,18546,31595,0,0,0
22973,18541,31578,0,0,0
22958,18533,31559,0,0,0
22972,18539,31564,0,0,0
23005,18566,31597,0,0,0
23043,18599,31643,0,0,0
23100,18637,31703,0,0,0
23186,18696,31798,0,0,0
23287,18774,31929,0,0,0
23391,18853,32073,0,0,0
23513,18937,32231,0,0,0
23659,19039,32423,0,0,0
23810,19153,32645,0,0,0
23962,19263,32872,0,0,0
24124,19373,33101,0,0,0
24294,19495,33341,0,0,0
24455,19624,33586,0,0,0
24609,19741,33816,0,0,0
24770,19851,34037,0,0,0
24929,19964,34261,0,0,0
25064,20070,34476,0,0,0
25178,20153,34661,0,0,0
25294,20223,34825,0,0,0
25410,20295,34988,0,0,0
25507,20363,35143,0,0,0
25587,20416,35271,0,0,0
25660,20462,35380,0,0,0
25724,20510,35485,0,0,0
25765,20550,35574,0,0,0
25792,20570,35632,0,0,0
25822,20585,35676,0,0,0
25847,20608,35723,0,0,0
25853,20623,35759,0,0,0
25850,20623,35773,0,0,0
25851,20623,35777,0,0,0
25846,20629,35782,0,0,0
25827,20627,35773,0,0,0
25808,20612,35747,0,0,0
25799,20599,35722,0,0,0
25787,20593,35706,0,0,0
25756,20575,35675,0,0,0
25719,20542,35623,0,0,0
25695,20514,35579,0,0,0
25672,20496,35551,0,0,0
25641,20475,35518,0,0,0
25618,20448,35477,0,0,0
25609,20431,35449,0,0,0
25597,20423,35434,0,0,0
25573,20408,35414,0,0,0
25553,20387,35386,0,0,0
25544,20378,35367,0,0,0
25533,20380,35359,0,0,0
25511,20375,35340,0,0,0
25493,20363,35313,0,0,0
25478,20356,35296,0,0,0
25453,20350,35282,0,0,0
25418,20332,35254,0,0,0
25391,20312,35221,0,0,0
25375,20304,35203,0,0,0
25354,20300,35189,0,0,0
25323,20283,35156,0,0,0
25297,20258,35117,0,0,0
25279,20242,35095,0,0,0
25258,20229,35080,0,0,0
25236,20208,35054,0,0,0
25232,20189,35029,0,0,0
25238,20187,35019,0,0,0
25233,20190,35012,0,0,0
25220,20184,34991,0,0,0
25216,20179,34971,0,0,0
25218,20186,34968,0,0,0
25213,20196,34972,0,0,0
25208,20198,34970,0,0,0
25212,20199,34970,0,0,0
25216,20208,34984,0,0,0
25207,20210,34994,0,0,0
25194,20195,34992,0,0,0
25193,20183,34997,0,0,0
25198,20186,35017,0,0,0
25194,20189,35033,0,0,0
25194,20187,35037,0,0,0
25209,20192,35049,0,0,0
25221,20205,35072,0,0,0
25213,20209,35085,0,0,0
25203,20205,35082,0,0,0
25206,20208,35084,0,0,0
25209,20220,35096,0,0,0
25195,20225,35096,0,0,0
25176,20217,35079,0,0,0
25164,20212,35066,0,0,0
25145,20208,35058,0,0,0
25113,20191,35035,0,0,0
25084,20164,34999,0,0,0
25066,20141,34972,0,0,0
25044,20126,34953,0,0,0
25012,20103,34922,0,0,0
24983,20076,34882,0,0,0
24957,20058,34852,0,0,0
24921,20044,34823,0,0,0
24878,20020,34775,0,0,0
24842,19991,34724,0,0,0
24812,19969,34688,0,0,0
24771,19949,34656,0,0,0
24718,19915,34606,0,0,0
24670,19876,34549,0,0,0
24630,19848,34502,0,0,0
24584,19823,34457,0,0,0
24534,19790,34401,0,0,0
24497,19761,34346,0,0,0
24469,19745,34307,0,0,0
24429,19726,34265,0,0,0
24384,19695,34204,0,0,0
24351,19667,34138,0,0,0
24322,19652,34086,0,0,0
24286,19638,34037,0,0,0
24253,19614,33978,0,0,0
24232,19590,33924,0,0,0
24206,19571,33881,0,0,0
24163,19546,33833,0,0,0
24118,19511,33775,0,0,0
24089,19485,33728,0,0,0
24065,19469,33698,0,0,0
24031,19450,33665,0,0,0
24002,19429,33622,0,0,0
23984,19417,33587,0,0,0
23957,19408,33559,0,0,0
23915,19390,33519,0,0,0
23876,19366,33468,0,0,0
23853,19350,33426,0,0,0
23831,19345,33394,0,0,0
23801,19332,33354,0,0,0
23775,19310,33308,0,0,0
23759,19292,33273,0,0,0
23740,19277,33247,0,0,0
23710,19253,33211,0,0,0
23684,19227,33170,0,0,0
23667,19213,33142,0,0,0
23645,19206,33120,0,0,0
23616,19189,33085,0,0,0
23592,19165,33042,0,0,0
23577,19152,33016,0,0,0
23558,19145,33000,0,0,0
23534,19129,32972,0,0,0
23518,19107,32937,0,0,0
23507,19093,32915,0,0,0
23484,19082,32894,0,0,0
23450,19062,32858,0,0,0
23426,19046,32818,0,0,0
23413,19045,32796,0,0,0
23396,19047,32781,0,0,0
23375,19038,32755,0,0,0
23359,19027,32725,0,0,0
23344,19022,32708,0,0,0
23319,19017,32689,0,0,0
23290,18998,32654,0,0,0
23274,18978,32618,0,0,0
23262,18968,32596,0,0,0
23241,18957,32569,0,0,0
23219,18939,32528,0,0,0
23209,18925,32491,0,0,0
23198,18918,32466,0,0,0
23174,18906,32435,0,0,0
23153,18887,32397,0,0,0
23148,18879,32371,0,0,0
23142,18882,32363,0,0,0
23124,18880,32355,0,0,0
23112,18873,32344,0,0,0
23128,18882,32352,0,0,0
23160,18911,32387,0,0,0
23196,18945,32432,0,0,0
23249,18981,32491,0,0,0
23330,19037,32585,0,0,0
23426,19112,32712,0,0,0
23527,19191,32849,0,0,0
23646,19272,32999,0,0,0
23789,19371,33182,0,0,0
23943,19485,33399,0,0,0
24095,19596,33621,0,0,0
24257,19707,33845,0,0,0
24427,19829,34086,0,0,0
24589,19952,34332,0,0,0
24740,20059,34561,0,0,0
24895,20157,34781,0,0,0
25050,20266,35007,0,0,0
25190,20377,35229,0,0,0
25311,20470,35422,0,0,0
25428,20550,35596,0,0,0
25545,20633,35770,0,0,0
25647,20710,35933,0,0,0
25733,20767,36069,0,0,0
25816,20815,36189,0,0,0
25893,20869,36308,0,0,0
25947,20914,36412,0,0,0
25983,20938,36483,0,0,0
26020,20957,36534,0,0,0
26056,20983,36582,0,0,0
26077,21004,36619,0,0,0
26089,21013,36636,0,0,0
26099,21018,36643,0,0,0
26101,21024,36652,0,0,0
26088,21020,36647,0,0,0
26070,21004,36621,0,0,0
26063,20990,36596,0,0,0
26058,20987,36577,0,0,0
26039,20975,36546,0,0,0
26013,20951,36501,0,0,0
25994,20933,36464,0,0,0
25972,20923,36441,0,0,0
25939,20908,36414,0,0,0
25912,20888,36379,0,0,0
25901,20877,36351,0,0,0
25889,20872,36333,0,0,0
25866,20858,36308,0,0,0
25843,20835,36272,0,0,0
25834,20824,36249,0,0,0
25827,20826,36242,0,0,0
25810,20825,36229,0,0,0
25792,20816,36206,0,0,0
25777,20811,36192,0,0,0
25751,20807,36182,0,0,0
25718,20793,36155,0,0,0
25695,20774,36120,0,0,0
25685,20765,36097,0,0,0
25671,20759,36082,0,0,0
25648,20742,36055,0,0,0
25631,20721,36022,0,0,0
25617,20710,36003,0,0,0
25594,20701,35984,0,0,0
25565,20683,35953,0,0,0
25551,20669,35923,0,0,0
25547,20671,35911,0,0,0
25539,20674,35902,0,0,0
25527,20663,35879,0,0,0
25521,20650,35857,0,0,0
25521,20649,35851,0,0,0
25514,20652,35850,0,0,0
25504,20649,35841,0,0,0
25503,20649,35838,0,0,0
25504,20662,35853,0,0,0
25497,20672,35868,0,0,0
25493,20672,35869,0,0,0
25501,20677,35874,0,0,0
25512,20691,35894,0,0,0
25514,20702,35911,0,0,0
25519,20707,35919,0,0,0
25535,20714,35934,0,0,0
25546,20723,35955,0,0,0
25541,20721,35964,0,0,0
25536,20708,35957,0,0,0
25545,20705,35956,0,0,0
25553,20712,35967,0,0,0
25544,20712,35968,0,0,0
25530,20701,35953,0,0,0
25522,20695,35939,0,0,0
25507,20696,35930,0,0,0
25479,20688,35906,0,0,0
25455,20670,35869,0,0,0
25446,20659,35842,0,0,0
25433,20655,35825,0,0,0
25408,20640,35797,0,0,0
25382,20615,35756,0,0,0
25358,20593,35723,0,0,0
25322,20573,35693,0,0,0
25275,20543,35646,0,0,0
25233,20510,35592,0,0,0
25197,20488,35549,0,0,0
25152,20467,35506,0,0,0
25102,20435,35449,0,0,0
25065,20404,35390,0,0,0
25040,20385,35346,0,0,0
25008,20366,35298,0,0,0
24964,20334,35231,0,0,0
24925,20298,35163,0,0,0
24894,20275,35114,0,0,0
24858,20254,35068,0,0,0
24816,20223,35007,0,0,0
24776,20188,34943,0,0,0
24735,20162,34893,0,0,0
24683,20136,34840,0,0,0
24629,20099,34770,0,0,0
24587,20067,34705,0,0,0
24551,20044,34661,0,0,0
24507,20015,34616,0,0,0
24463,19974,34561,0,0,0
24427,19939,34510,0,0,0
24386,19913,34467,0,0,0
24336,19885,34417,0,0,0
24293,19856,34356,0,0,0
24265,19838,34306,0,0,0
24234,19829,34273,0,0,0
24187,19810,34231,0,0,0
24140,19782,34176,0,0,0
24107,19761,34128,0,0,0
24071,19744,34090,0,0,0
24025,19718,34043,0,0,0
23986,19687,33989,0,0,0
23961,19664,33946,0,0,0
23932,19647,33911,0,0,0
23893,19623,33866,0,0,0
23861,19597,33815,0,0,0
23843,19583,33781,0,0,0
23827,19575,33760,0,0,0
23803,19556,33731,0,0,0
23780,19531,33698,0,0,0
23759,19513,33672,0,0,0
23728,19499,33643,0,0,0
23689,19476,33596,0,0,0
23660,19451,33548,0,0,0
23639,19435,33518,0,0,0
23607,19420,33491,0,0,0
23563,19392,33447,0,0,0
23530,19365,33401,0,0,0
23510,19353,33369,0,0,0
23487,19345,33337,0,0,0
23459,19327,33292,0,0,0
23436,19307,33243,0,0,0
23414,19296,33205,0,0,0
23378,19280,33165,0,0,0
23337,19250,33111,0,0,0
23309,19225,33062,0,0,0
23285,19217,33028,0,0,0
23253,19211,32996,0,0,0
23223,19197,32959,0,0,0
23205,19185,32929,0,0,0
23187,19177,32910,0,0,0
23158,19162,32880,0,0,0
23132,19136,32836,0,0,0
23119,19116,32800,0,0,0
23104,19108,32779,0,0,0
23074,19095,32752,0,0,0
23043,19075,32713,0,0,0
23021,19061,32679,0,0,0
22990,19051,32647,0,0,0
22946,19033,32606,0,0,0
22910,19008,32557,0,0,0
22891,18994,32519,0,0,0
22871,18988,32492,0,0,0
22842,18973,32457,0,0,0
22826,18955,32417,0,0,0
22832,18951,32398,0,0,0
22845,18959,32399,0,0,0
22859,18969,32406,0,0,0
22893,18987,32427,0,0,0
22952,19030,32486,0,0,0
23022,19091,32577,0,0,0
23094,19152,32681,0,0,0
23187,19219,32806,0,0,0
23308,19305,32972,0,0,0
23441,19400,33168,0,0,0
23584,19495,33374,0,0,0
23754,19601,33599,0,0,0
23943,19729,33854,0,0,0
24126,19864,34120,0,0,0
24296,19985,34372,0,0,0
24468,20101,34618,0,0,0
24643,20224,34872,0,0,0
24810,20350,35125,0,0,0
24968,20464,35359,0,0,0
25127,20573,35586,0,0,0
25280,20685,35816,0,0,0
25410,20786,36031,0,0,0
25518,20864,36215,0,0,0
25623,20935,36380,0,0,0
25720,21008,36535,0,0,0
25797,21069,36664,0,0,0
25864,21113,36765,0,0,0
25932,21154,36858,0,0,0
25986,21198,36952,0,0,0
26013,21228,37026,0,0,0
26028,21240,37070,0,0,0
26049,21250,37105,0,0,0
26065,21265,37138,0,0,0
26066,21270,37149,0,0,0
26067,21267,37142,0,0,0
26079,21268,37143,0,0,0
26087,21275,37149,0,0,0
26076,21271,37139,0,0,0
26064,21256,37114,0,0,0
26062,21248,37095,0,0,0
26056,21247,37084,0,0,0
26040,21240,37063,0,0,0
26026,21223,37033,0,0,0
26017,21210,37011,0,0,0
26000,21199,36996,0,0,0
25975,21179,36969,0,0,0
25954,21159,36938,0,0,0
25944,21152,36922,0,0,0
25933,21152,36915,0,0,0
25919,21141,36898,0,0,0
25911,21129,36881,0,0,0
25910,21128,36880,0,0,0
25898,21126,36882,0,0,0
25875,21113,36867,0,0,0
25859,21102,36846,0,0,0
25853,21106,36839,0,0,0
25841,21113,36835,0,0,0
25822,21107,36818,0,0,0
25808,21097,36796,0,0,0
25796,21095,36783,0,0,0
25776,21090,36763,0,0,0
25751,21071,36724,0,0,0
25736,21053,36686,0,0,0
25726,21044,36662,0,0,0
25709,21036,36641,0,0,0
25694,21024,36615,0,0,0
25687,21017,36596,0,0,0
25674,21015,36586,0,0,0
25650,21007,36568,0,0,0
25633,20989,36540,0,0,0
25632,20977,36524,0,0,0
25634,20978,36523,0,0,0
25621,20977,36520,0,0,0
25608,20972,36507,0,0,0
25606,20975,36504,0,0,0
25602,20985,36511,0,0,0
25588,20987,36510,0,0,0
25581,20981,36498,0,0,0
25586,20980,36496,0,0,0
25587,20981,36503,0,0,0
25579,20975,36501,0,0,0
25574,20965,36490,0,0,0
25577,20963,36488,0,0,0
25575,20964,36492,0,0,0
25562,20958,36486,0,0,0
25553,20950,36474,0,0,0
25551,20951,36471,0,0,0
25537,20953,36467,0,0,0
25508,20939,36444,0,0,0
25484,20918,36413,0,0,0
25471,20908,36400,0,0,0
25457,20903,36398,0,0,0
25437,20888,36383,0,0,0
25426,20866,36361,0,0,0
25420,20847,36349,0,0,0
25397,20824,36330,0,0,0
25359,20786,36286,0,0,0
25328,20749,36234,0,0,0
25301,20728,36194,0,0,0
25261,20714,36156,0,0,0
25211,20693,36106,0,0,0
25164,20668,36055,0,0,0
25116,20648,36017,0,0,0
25061,20623,35971,0,0,0
25007,20585,35905,0,0,0
24965,20549,35841,0,0,0
24926,20522,35791,0,0,0
24877,20490,35737,0,0,0
24830,20449,35667,0,0,0
24795,20416,35601,0,0,0
24753,20392,35547,0,0,0
24698,20363,35486,0,0,0
24649,20328,35414,0,0,0
24618,20305,35357,0,0,0
24590,20295,35318,0,0,0
24548,20277,35273,0,0,0
24507,20250,35215,0,0,0
24478,20230,35165,0,0,0
24444,20213,35126,0,0,0
24397,20188,35077,0,0,0
24354,20158,35018,0,0,0
24326,20137,34969,0,0,0
24296,20122,34930,0,0,0
24256,20099,34884,0,0,0
24218,20072,34828,0,0,0
24185,20053,34781,0,0,0
24143,20038,34743,0,0,0
24096,20016,34696,0,0,0
24061,19991,34645,0,0,0
24037,19973,34610,0,0,0
24009,19955,34581,0,0,0
23975,19927,34536,0,0,0
23951,19896,34483,0,0,0
23936,19880,34443,0,0,0
23912,19868,34409,0,0,0
23882,19848,34365,0,0,0
23860,19827,34318,0,0,0
23841,19814,34284,0,0,0
23806,19798,34248,0,0,0
23763,19772,34194,0,0,0
23734,19750,34141,0,0,0
23715,19739,34106,0,0,0
23689,19725,34075,0,0,0
23661,19699,34034,0,0,0
23639,19671,33996,0,0,0
23615,19648,33967,0,0,0
23581,19624,33933,0,0,0
23548,19593,33884,0,0,0
23530,19573,33845,0,0,0
23514,19569,33825,0,0,0
23484,19560,33796,0,0,0
23450,19540,33749,0,0,0
23430,19523,33709,0,0,0
23408,19513,33683,0,0,0
23372,19498,33650,0,0,0
23342,19480,33607,0,0,0
23322,19467,33570,0,0,0
23297,19457,33542,0,0,0
23263,19437,33504,0,0,0
23235,19413,33459,0,0,0
23218,19398,33425,0,0,0
23198,19390,33402,0,0,0
23166,19374,33369,0,0,0
23137,19351,33330,0,0,0
23117,19337,33301,0,0,0
23091,19329,33277,0,0,0
23056,19313,33239,0,0,0
23032,19295,33195,0,0,0
23023,19288,33168,0,0,0
23009,19281,33146,0,0,0
22982,19260,33107,0,0,0
22961,19235,33061,0,0,0
22950,19222,33034,0,0,0
22930,19212,33011,0,0,0
22896,19189,32971,0,0,0
22865,19158,32925,0,0,0
22838,19135,32892,0,0,0
22801,19113,32856,0,0,0
22759,19082,32803,0,0,0
22731,19053,32751,0,0,0
22713,19038,32717,0,0,0
22686,19024,32685,0,0,0
22654,19003,32644,0,0,0
22636,18989,32609,0,0,0
22633,18991,32595,0,0,0
22635,19002,32599,0,0,0
22655,19016,32619,0,0,0
22702,19045,32670,0,0,0
22765,19097,32760,0,0,0
22835,19159,32872,0,0,0
22926,19225,33000,0,0,0
23052,19311,33163,0,0,0
23198,19422,33363,0,0,0
23344,19537,33576,0,0,0
23503,19651,33795,0,0,0
23686,19777,34038,0,0,0
23876,19915,34304,0,0,0
24055,20047,34565,0,0,0
24236,20170,34817,0,0,0
24424,20299,35078,0,0,0
24604,20431,35346,0,0,0
24766,20548,35596,0,0,0
24922,20652,35824,0,0,0
25079,20756,36049,0,0,0
25226,20861,36269,0,0,0
25353,20951,36464,0,0,0
25469,21027,36636,0,0,0
25577,21101,36798,0,0,0
25662,21168,36943,0,0,0
25726,21217,37053,0,0,0
25787,21256,37136,0,0,0
25847,21299,37215,0,0,0
25890,21337,37288,0,0,0
25913,21358,37334,0,0,0
25932,21371,37365,0,0,0
25952,21391,37402,0,0,0
25957,21407,37432,0,0,0
25951,21405,37436,0,0,0
25953,21399,37428,0,0,0
25962,21401,37427,0,0,0
25958,21400,37424,0,0,0
25941,21386,37406,0,0,0
25925,21368,37382,0,0,0
25908,21357,37364,0,0,0
25884,21346,37342,0,0,0
25861,21329,37308,0,0,0
25852,21317,37282,0,0,0
25848,21320,37273,0,0,0
25834,21320,37262,0,0,0
25820,21310,37243,0,0,0
25819,21305,37231,0,0,0
25817,21305,37229,0,0,0
25803,21299,37221,0,0,0
25794,21289,37202,0,0,0
25800,21289,37195,0,0,0
25803,21299,37203,0,0,0
25791,21298,37201,0,0,0
25778,21285,37183,0,0,0
25777,21280,37174,0,0,0
25775,21281,37176,0,0,0
25760,21275,37167,0,0,0
25746,21266,37147,0,0,0
25742,21263,37132,0,0,0
25733,21262,37124,0,0,0
25710,21249,37102,0,0,0
25690,21229,37069,0,0,0
25681,21218,37049,0,0,0
25672,21217,37039,0,0,0
25661,21214,37022,0,0,0
25658,21210,37004,0,0,0
25666,21215,37004,0,0,0
25668,21222,37009,0,0,0
25662,21221,37000,0,0,0
25667,21221,36987,0,0,0
25684,21237,36991,0,0,0
25699,21257,37003,0,0,0
25705,21263,37002,0,0,0
25715,21260,36996,0,0,0
25730,21266,37005,0,0,0
25733,21271,37018,0,0,0
25728,21266,37018,0,0,0
25734,21263,37020,0,0,0
25751,21274,37039,0,0,0
25756,21285,37055,0,0,0
25755,21283,37057,0,0,0
25764,21283,37059,0,0,0
25781,21296,37074,0,0,0
25790,21308,37086,0,0,0
25793,21311,37083,0,0,0
25799,21315,37079,0,0,0
25798,21325,37085,0,0,0
25781,21326,37082,0,0,0
25761,21314,37059,0,0,0
25754,21306,37041,0,0,0
25748,21308,37035,0,0,0
25728,21301,37021,0,0,0
25706,21282,36995,0,0,0
25690,21265,36973,0,0,0
25665,21251,36953,0,0,0
25626,21227,36919,0,0,0
25589,21196,36871,0,0,0
25563,21173,36830,0,0,0
25534,21158,36796,0,0,0
25494,21137,36752,0,0,0
25455,21110,36697,0,0,0
25424,21089,36651,0,0,0
25389,21070,36612,0,0,0
25343,21041,36559,0,0,0
25305,21008,36499,0,0,0
25279,20987,36449,0,0,0
25249,20972,36403,0,0,0
25206,20944,36340,0,0,0
25163,20908,36266,0,0,0
25122,20880,36203,0,0,0
25071,20853,36145,0,0,0
25015,20817,36074,0,0,0
24971,20785,36001,0,0,0
24936,20767,35947,0,0,0
24892,20751,35900,0,0,0
24840,20721,35840,0,0,0
24796,20686,35776,0,0,0
24763,20662,35731,0,0,0
24727,20642,35693,0,0,0
24689,20614,35645,0,0,0
24658,20587,35599,0,0,0
24627,20571,35565,0,0,0
24584,20553,35525,0,0,0
24536,20523,35471,0,0,0
24498,20495,35420,0,0,0
24464,20474,35381,0,0,0
24422,20450,35336,0,0,0
24384,20413,35277,0,0,0
24359,20379,35223,0,0,0
24333,20354,35183,0,0,0
24295,20323,35133,0,0,0
24256,20283,35068,0,0,0
24229,20253,35015,0,0,0
24201,20237,34982,0,0,0
24160,20219,34943,0,0,0
24121,20198,34893,0,0,0
24092,20182,34851,0,0,0
24059,20171,34817,0,0,0
24012,20149,34771,0,0,0
23970,20119,34715,0,0,0
23938,20097,34667,0,0,0
23897,20078,34630,0,0,0
23842,20051,34584,0,0,0
23791,20018,34530,0,0,0
23748,19991,34485,0,0,0
23703,19964,34444,0,0,0
23653,19928,34392,0,0,0
23612,19890,34337,0,0,0
23580,19865,34297,0,0,0
23541,19846,34262,0,0,0
23496,19821,34215,0,0,0
23458,19795,34164,0,0,0
23433,19780,34125,0,0,0
23402,19765,34089,0,0,0
23365,19740,34041,0,0,0
23340,19719,33994,0,0,0
23323,19713,33964,0,0,0
23293,19703,33935,0,0,0
23247,19676,33890,0,0,0
23206,19642,33839,0,0,0
23170,19618,33799,0,0,0
23127,19594,33759,0,0,0
23080,19560,33709,0,0,0
23043,19528,33663,0,0,0
23009,19506,33631,0,0,0
22966,19482,33594,0,0,0
22922,19448,33541,0,0,0
22891,19419,33490,0,0,0
22861,19400,33453,0,0,0
22825,19378,33411,0,0,0
22793,19350,33359,0,0,0
22774,19329,33315,0,0,0
22752,19322,33286,0,0,0
22713,19308,33248,0,0,0
22673,19284,33194,0,0,0
22648,19265,33147,0,0,0
22622,19255,33114,0,0,0
22580,19238,33072,0,0,0
22538,19216,33020,0,0,0
22512,19204,32985,0,0,0
22488,19202,32968,0,0,0
22465,19197,32953,0,0,0
22465,19191,32949,0,0,0
22497,19205,32980,0,0,0
22547,19243,33050,0,0,0
22613,19293,33139,0,0,0
22706,19354,33247,0,0,0
22825,19436,33393,0,0,0
22952,19531,33568,0,0,0
23084,19624,33749,0,0,0
23234,19722,33944,0,0,0
23407,19843,34174,0,0,0
23583,19975,34425,0,0,0
23753,20100,34671,0,0,0
23928,20224,34918,0,0,0
24107,20358,35181,0,0,0
24271,20489,35439,0,0,0
24422,20602,35669,0,0,0
24578,20708,35886,0,0,0
24736,20819,36108,0,0,0
24877,20924,36321,0,0,0
24999,21011,36506,0,0,0
25112,21086,36670,0,0,0
25214,21161,36828,0,0,0
25289,21225,36962,0,0,0
25343,21264,37058,0,0,0
25395,21294,37138,0,0,0
25441,21327,37218,0,0,0
25470,21353,37281,0,0,0
25492,21364,37319,0,0,0
25514,21374,37348,0,0,0
25523,21388,37377,0,0,0
25511,21387,37384,0,0,0
25495,21371,37364,0,0,0
25488,21357,37347,0,0,0
25476,21349,37340,0,0,0
25445,21332,37320,0,0,0
25410,21306,37281,0,0,0
25383,21287,37246,0,0,0
25350,21274,37221,0,0,0
25311,21254,37189,0,0,0
25282,21233,37150,0,0,0
25270,21223,37125,0,0,0
25256,21219,37114,0,0,0
25234,21207,37093,0,0,0
25217,21189,37061,0,0,0
25204,21175,37033,0,0,0
25184,21162,37011,0,0,0
25158,21142,36977,0,0,0
25144,21123,36940,0,0,0
25139,21116,36920,0,0,0
25125,21113,36907,0,0,0
25101,21097,36882,0,0,0
25083,21074,36851,0,0,0
25070,21059,36832,0,0,0
25047,21049,36815,0,0,0
25011,21029,36780,0,0,0
24981,21007,36743,0,0,0
24957,20993,36719,0,0,0
24919,20978,36691,0,0,0
24873,20952,36645,0,0,0
24839,20928,36596,0,0,0
24811,20914,36560,0,0,0
24780,20902,36527,0,0,0
24748,20884,36486,0,0,0
24724,20865,36450,0,0,0
24701,20854,36433,0,0,0
24675,20840,36418,0,0,0
24652,20815,36392,0,0,0
24644,20795,36375,0,0,0
24639,20789,36374,0,0,0
24625,20785,36370,0,0,0
24617,20779,36358,0,0,0
24623,20782,36357,0,0,0
24626,20792,36370,0,0,0
24618,20792,36373,0,0,0
24617,20782,36362,0,0,0
24632,20784,36363,0,0,0
24646,20800,36382,0,0,0
24645,20809,36393,0,0,0
24638,20805,36389,0,0,0
24637,20807,36390,0,0,0
24631,20813,36400,0,0,0
24614,20810,36399,0,0,0
24603,20797,36388,0,0,0
24602,20791,36387,0,0,0
24595,20790,36392,0,0,0
24576,20781,36383,0,0,0
24554,20764,36359,0,0,0
24534,20753,36340,0,0,0
24506,20743,36320,0,0,0
24470,20721,36283,0,0,0
24438,20696,36241,0,0,0
24408,20679,36214,0,0,0
24364,20659,36186,0,0,0
24307,20622,36136,0,0,0
24253,20578,36075,0,0,0
24205,20545,36022,0,0,0
24147,20511,35968,0,0,0
24077,20464,35897,0,0,0
24006,20410,35820,0,0,0
23933,20361,35748,0,0,0
23845,20308,35670,0,0,0
23748,20242,35573,0,0,0
23662,20178,35479,0,0,0
23587,20132,35406,0,0,0
23509,20090,35338,0,0,0
23432,20042,35260,0,0,0
23365,19996,35180,0,0,0
23298,19954,35109,0,0,0
23226,19908,35034,0,0,0
23159,19858,34946,0,0,0
23106,19820,34866,0,0,0
23054,19797,34804,0,0,0
22990,19770,34739,0,0,0
22926,19732,34667,0,0,0
22878,19700,34606,0,0,0
22833,19675,34559,0,0,0
22780,19646,34505,0,0,0
22734,19612,34439,0,0,0
22704,19585,34382,0,0,0
22674,19563,34337,0,0,0
22634,19537,34284,0,0,0
22598,19506,34224,0,0,0
22576,19488,34176,0,0,0
22554,19480,34140,0,0,0
22527,19465,34098,0,0,0
22507,19443,34052,0,0,0
22497,19430,34018,0,0,0
22484,19423,33994,0,0,0
22464,19410,33959,0,0,0
22451,19395,33919,0,0,0
22443,19388,33888,0,0,0
22422,19383,33858,0,0,0
22392,19368,33813,0,0,0
22377,19353,33766,0,0,0
22374,19352,33740,0,0,0
22366,19354,33723,0,0,0
22349,19346,33697,0,0,0
22342,19335,33666,0,0,0
22341,19334,33646,0,0,0
22332,19332,33624,0,0,0
22319,19319,33590,0,0,0
22317,19310,33561,0,0,0
22323,19314,33550,0,0,0
22319,19316,33541,0,0,0
22309,19307,33519,0,0,0
22304,19297,33496,0,0,0
22295,19296,33486,0,0,0
22279,19292,33472,0,0,0
22265,19280,33446,0,0,0
22265,19271,33424,0,0,0
22266,19271,33413,0,0,0
22256,19266,33393,0,0,0
22245,19253,33359,0,0,0
22244,19249,33331,0,0,0
22238,19253,33315,0,0,0
22219,19246,33291,0,0,0
22203,19228,33254,0,0,0
22202,19217,33222,0,0,0
22197,19215,33198,0,0,0
22179,19205,33161,0,0,0
22158,19186,33114,0,0,0
22148,19175,33080,0,0,0
22139,19175,33062,0,0,0
22126,19171,33042,0,0,0
22125,19165,33024,0,0,0
22146,19175,33032,0,0,0
22180,19205,33069,0,0,0
22226,19239,33116,0,0,0
22296,19283,33185,0,0,0
22394,19347,33295,0,0,0
22503,19422,33436,0,0,0
22620,19496,33590,0,0,0
22762,19584,33766,0,0,0
22929,19697,33982,0,0,0
23098,19821,34225,0,0,0
23263,19937,34465,0,0,0
23438,20054,34709,0,0,0
23624,20188,34977,0,0,0
23805,20325,35250,0,0,0
23981,20452,35504,0,0,0
24166,20582,35756,0,0,0
24353,20723,36019,0,0,0
24524,20858,36274,0,0,0
24679,20973,36500,0,0,0
24827,21074,36707,0,0,0
24960,21172,36906,0,0,0
25070,21259,37083,0,0,0
25167,21326,37229,0,0,0
25262,21386,37365,0,0,0
25347,21447,37498,0,0,0
25407,21495,37606,0,0,0
25454,21525,37680,0,0,0
25502,21552,37741,0,0,0
25533,21578,37796,0,0,0
25539,21589,37829,0,0,0
25538,21583,37839,0,0,0
25547,21580,37849,0,0,0
25555,21586,37864,0,0,0
25545,21584,37859,0,0,0
25529,21572,37830,0,0,0
25519,21562,37803,0,0,0
25500,21555,37780,0,0,0
25466,21535,37744,0,0,0
25436,21508,37695,0,0,0
25421,21491,37658,0,0,0
25404,21479,37632,0,0,0
25377,21458,37597,0,0,0
25352,21435,37555,0,0,0
25336,21425,37527,0,0,0
25313,21421,37508,0,0,0
25282,21405,37476,0,0,0
25259,21382,37439,0,0,0
25248,21370,37418,0,0,0
25234,21363,37406,0,0,0
25212,21350,37382,0,0,0
25198,21337,37356,0,0,0
25191,21336,37343,0,0,0
25170,21333,37330,0,0,0
25137,21316,37298,0,0,0
25109,21295,37259,0,0,0
25086,21282,37230,0,0,0
25056,21272,37199,0,0,0
25024,21256,37153,0,0,0
25004,21241,37110,0,0,0
24988,21236,37084,0,0,0
24960,21227,37059,0,0,0
24928,21204,37020,0,0,0
24907,21178,36985,0,0,0
24886,21159,36963,0,0,0
24859,21137,36937,0,0,0
24837,21114,36902,0,0,0
24835,21103,36881,0,0,0
24838,21107,36883,0,0,0
24829,21110,36886,0,0,0
24823,21106,36884,0,0,0
24831,21108,36893,0,0,0
24839,21119,36914,0,0,0
24840,21126,36929,0,0,0
24848,21127,36937,0,0,0
24869,21136,36953,0,0,0
24887,21152,36976,0,0,0
24892,21158,36988,0,0,0
24900,21158,36989,0,0,0
24918,21164,36998,0,0,0
24930,21175,37012,0,0,0
24928,21178,37016,0,0,0
24928,21175,37010,0,0,0
24932,21179,37012,0,0,0
24930,21186,37015,0,0,0
24917,21181,37006,0,0,0
24907,21171,36988,0,0,0
24899,21165,36978,0,0,0
24875,21158,36967,0,0,0
24838,21134,36933,0,0,0
24806,21102,36884,0,0,0
24782,21081,36843,0,0,0
24750,21063,36804,0,0,0
24708,21035,36753,0,0,0
24675,21003,36702,0,0,0
24648,20980,36666,0,0,0
24607,20956,36627,0,0,0
24556,20919,36569,0,0,0
24514,20887,36509,0,0,0
24481,20869,36464,0,0,0
24444,20852,36421,0,0,0
24404,20823,36362,0,0,0
24368,20790,36300,0,0,0
24329,20764,36249,0,0,0
24278,20734,36195,0,0,0
24223,20695,36127,0,0,0
24180,20663,36064,0,0,0
24139,20642,36013,0,0,0
24087,20614,35955,0,0,0
24039,20578,35883,0,0,0
24003,20546,35815,0,0,0
23961,20520,35758,0,0,0
23906,20488,35692,0,0,0
23860,20450,35614,0,0,0
23829,20424,35546,0,0,0
23798,20405,35492,0,0,0
23753,20377,35434,0,0,0
23709,20343,35369,0,0,0
23675,20314,35312,0,0,0
23637,20292,35265,0,0,0
23589,20264,35208,0,0,0
23549,20233,35145,0,0,0
23526,20213,35096,0,0,0
23504,20202,35057,0,0,0
23470,20183,35010,0,0,0
23438,20161,34958,0,0,0
23409,20145,34920,0,0,0
23373,20129,34885,0,0,0
23328,20099,34835,0,0,0
23291,20066,34780,0,0,0
23264,20045,34745,0,0,0
23232,20028,34717,0,0,0
23192,20002,34675,0,0,0
23159,19977,34629,0,0,0
23134,19964,34597,0,0,0
23104,19953,34564,0,0,0
23073,19932,34515,0,0,0
23059,19911,34467,0,0,0
23055,19904,34441,0,0,0
23043,19899,34422,0,0,0
23024,19882,34391,0,0,0
23009,19864,34355,0,0,0
22995,19853,34328,0,0,0
22971,19843,34297,0,0,0
22945,19823,34251,0,0,0
22931,19806,34208,0,0,0
22921,19804,34179,0,0,0
22897,19798,34146,0,0,0
22872,19785,34105,0,0,0
22858,19776,34073,0,0,0
22840,19772,34052,0,0,0
22807,19754,34022,0,0,0
22776,19725,33978,0,0,0
22762,19704,33939,0,0,0
22750,19697,33913,0,0,0
22728,19688,33882,0,0,0
22710,19673,33845,0,0,0
22701,19665,33821,0,0,0
22681,19663,33808,0,0,0
22646,19652,33783,0,0,0
22621,19630,33741,0,0,0
22612,19612,33705,0,0,0
22600,19598,33676,0,0,0
22576,19575,33637,0,0,0
22556,19550,33592,0,0,0
22542,19538,33557,0,0,0
22519,19531,33526,0,0,0
22483,19511,33480,0,0,0
22454,19485,33427,0,0,0
22435,19470,33391,0,0,0
22411,19461,33365,0,0,0
22380,19445,33329,0,0,0
22366,19431,33295,0,0,0
22372,19435,33283,0,0,0
22375,19443,33280,0,0,0
22373,19444,33274,0,0,0
22390,19453,33280,0,0,0
22427,19483,33321,0,0,0
22477,19526,33392,0,0,0
22545,19574,33480,0,0,0
22646,19636,33597,0,0,0
22775,19725,33759,0,0,0
22910,19825,33950,0,0,0
23052,19924,34153,0,0,0
23216,20036,34378,0,0,0
23399,20167,34630,0,0,0
23584,20302,34893,0,0,0
23775,20437,35159,0,0,0
23979,20579,35440,0,0,0
24181,20728,35740,0,0,0
24368,20869,36032,0,0,0
24552,20997,36303,0,0,0
24746,21130,36573,0,0,0
24937,21267,36844,0,0,0
25108,21391,37092,0,0,0
25267,21501,37315,0,0,0
25419,21611,37530,0,0,0
25546,21717,37736,0,0,0
25641,21799,37910,0,0,0
25720,21859,38049,0,0,0
25798,21914,38175,0,0,0
25867,21969,38292,0,0,0
25917,22011,38385,0,0,0
25963,22040,38456,0,0,0
26008,22070,38522,0,0,0
26037,22095,38577,0,0,0
26047,22102,38602,0,0,0
26057,22100,38610,0,0,0
26072,22105,38625,0,0,0
26080,22114,38641,0,0,0
26075,22111,38635,0,0,0
26071,22105,38617,0,0,0
26068,22105,38606,0,0,0
26052,22101,38593,0,0,0
26028,22083,38559,0,0,0
26017,22065,38522,0,0,0
26017,22062,38504,0,0,0
26007,22062,38491,0,0,0
25985,22050,38464,0,0,0
25967,22036,38434,0,0,0
25955,22033,38420,0,0,0
25939,22030,38411,0,0,0
25922,22018,38391,0,0,0
25919,22012,38377,0,0,0
25922,22021,38383,0,0,0
25919,22029,38391,0,0,0
25914,22026,38387,0,0,0
25913,22022,38381,0,0,0
25907,22022,38381,0,0,0
25889,22016,38371,0,0,0
25873,22000,38346,0,0,0
25872,21990,38328,0,0,0
25870,21990,38322,0,0,0
25846,21979,38304,0,0,0
25813,21955,38268,0,0,0
25790,21933,38238,0,0,0
25765,21917,38216,0,0,0
25731,21895,38181,0,0,0
25702,21868,38136,0,0,0
25687,21852,38104,0,0,0
25669,21845,38087,0,0,0
25642,21833,38066,0,0,0
25623,21817,38040,0,0,0
25618,21812,38026,0,0,0
25613,21812,38020,0,0,0
25602,21804,37998,0,0,0
25602,21794,37973,0,0,0
25614,21798,37967,0,0,0
25619,21805,37974,0,0,0
25614,21801,37971,0,0,0
25612,21792,37962,0,0,0
25616,21792,37966,0,0,0
25609,21792,37975,0,0,0
25595,21782,37969,0,0,0
25592,21775,37965,0,0,0
25599,21783,37980,0,0,0
25596,21792,37998,0,0,0
25583,21787,37998,0,0,0
25577,21779,37991,0,0,0
25577,21783,37997,0,0,0
25568,21787,38008,0,0,0
25554,21780,38004,0,0,0
25546,21771,37993,0,0,0
25538,21772,37991,0,0,0
25517,21767,37981,0,0,0
25486,21746,37949,0,0,0
25463,21725,37917,0,0,0
25442,21715,37895,0,0,0
25411,21702,37863,0,0,0
25380,21682,37813,0,0,0
25356,21663,37763,0,0,0
25324,21644,37717,0,0,0
25273,21611,37659,0,0,0
25220,21563,37587,0,0,0
25178,21522,37523,0,0,0
25133,21495,37472,0,0,0
25078,21465,37415,0,0,0
25025,21432,37347,0,0,0
24983,21408,37285,0,0,0
24938,21392,37230,0,0,0
24885,21369,37167,0,0,0
24838,21338,37092,0,0,0
24806,21315,37028,0,0,0
24771,21300,36976,0,0,0
24726,21276,36918,0,0,0
24685,21243,36854,0,0,0
24651,21214,36800,0,0,0
24613,21187,36749,0,0,0
24563,21147,36683,0,0,0
24515,21103,36612,0,0,0
24474,21068,36558,0,0,0
24424,21038,36508,0,0,0
24365,20996,36438,0,0,0
24315,20949,36362,0,0,0
24277,20918,36304,0,0,0
24235,20896,36255,0,0,0
24188,20866,36196,0,0,0
24156,20839,36138,0,0,0
24133,20827,36100,0,0,0
24099,20813,36063,0,0,0
24056,20784,36009,0,0,0
24025,20753,35954,0,0,0
24004,20735,35913,0,0,0
23976,20718,35873,0,0,0
23945,20689,35819,0,0,0
23918,20658,35763,0,0,0
23887,20635,35718,0,0,0
23846,20609,35665,0,0,0
23802,20575,35596,0,0,0
23768,20546,35537,0,0,0
23734,20527,35494,0,0,0
23690,20503,35448,0,0,0
23650,20472,35392,0,0,0
23623,20448,35345,0,0,0
23591,20430,35310,0,0,0
23546,20407,35269,0,0,0
23509,20379,35219,0,0,0
23489,20360,35180,0,0,0
23472,20351,35152,0,0,0
23444,20335,35115,0,0,0
23418,20312,35066,0,0,0
23404,20296,35025,0,0,0
23386,20285,34994,0,0,0
23355,20267,34956,0,0,0
23325,20244,34911,0,0,0
23302,20226,34875,0,0,0
23270,20213,34845,0,0,0
23228,20187,34800,0,0,0
23189,20153,34743,0,0,0
23158,20128,34695,0,0,0
23124,20113,34655,0,0,0
23084,20092,34605,0,0,0
23052,20070,34556,0,0,0
23027,20058,34526,0,0,0
22994,20046,34500,0,0,0
22954,20018,34459,0,0,0
22928,19986,34417,0,0,0
22917,19966,34387,0,0,0
22901,19948,34359,0,0,0
22878,19922,34316,0,0,0
22858,19896,34268,0,0,0
22838,19882,34231,0,0,0
22809,19869,34194,0,0,0
22777,19847,34142,0,0,0
22754,19828,34091,0,0,0
22731,19821,34055,0,0,0
22694,19810,34017,0,0,0
22653,19789,33965,0,0,0
22623,19771,33917,0,0,0
22593,19761,33881,0,0,0
22555,19747,33843,0,0,0
22521,19725,33799,0,0,0
22500,19708,33765,0,0,0
22477,19696,33741,0,0,0
22442,19676,33708,0,0,0
22414,19649,33665,0,0,0
22410,19637,33641,0,0,0
22421,19647,33644,0,0,0
22438,19662,33664,0,0,0
22480,19683,33707,0,0,0
22559,19730,33792,0,0,0
22658,19801,33915,0,0,0
22769,19882,34058,0,0,0
22904,19974,34224,0,0,0
23067,20088,34433,0,0,0
23243,20222,34678,0,0,0
23423,20356,34931,0,0,0
23614,20491,35187,0,0,0
23817,20638,35460,0,0,0
24017,20788,35745,0,0,0
24213,20931,36024,0,0,0
24414,21069,36302,0,0,0
24616,21213,36592,0,0,0
24801,21351,36880,0,0,0
24966,21470,37143,0,0,0
25128,21580,37386,0,0,0
25292,21699,37630,0,0,0
25444,21818,37864,0,0,0
25576,21922,38071,0,0,0
25699,22013,38254,0,0,0
25808,22099,38426,0,0,0
25891,22168,38573,0,0,0
25953,22212,38681,0,0,0
26013,22247,38771,0,0,0
26064,22287,38857,0,0,0
26092,22314,38925,0,0,0
26106,22322,38961,0,0,0
26123,22322,38985,0,0,0
26135,22323,39007,0,0,0
26129,22318,39014,0,0,0
26116,22302,39000,0,0,0
26108,22289,38980,0,0,0
26094,22282,38963,0,0,0
26063,22266,38935,0,0,0
26028,22240,38891,0,0,0
26006,22222,38853,0,0,0
25988,22215,38830,0,0,0
25960,22201,38798,0,0,0
25933,22177,38754,0,0,0
25916,22159,38718,0,0,0
25894,22147,38693,0,0,0
25864,22127,38661,0,0,0
25842,22101,38621,0,0,0
25831,22088,38595,0,0,0
25817,22086,38584,0,0,0
25792,22077,38565,0,0,0
25771,22061,38539,0,0,0
25760,22054,38523,0,0,0
25745,22052,38512,0,0,0
25725,22039,38488,0,0,0
25716,22023,38461,0,0,0
25714,22019,38450,0,0,0
25700,22015,38442,0,0,0
25671,21998,38411,0,0,0
25643,21976,38368,0,0,0
25623,21964,38335,0,0,0
25599,21955,38305,0,0,0
25569,21935,38265,0,0,0
25550,21914,38226,0,0,0
25537,21906,38206,0,0,0
25513,21897,38185,0,0,0
25481,21877,38147,0,0,0
25461,21860,38113,0,0,0
25452,21858,38098,0,0,0
25435,21857,38086,0,0,0
25414,21848,38063,0,0,0
25403,21841,38042,0,0,0
25397,21841,38035,0,0,0
25387,21840,38029,0,0,0
25380,21831,38013,0,0,0
25381,21825,38004,0,0,0
25377,21828,38010,0,0,0
25358,21823,38006,0,0,0
25339,21806,37988,0,0,0
25336,21796,37980,0,0,0
25335,21795,37988,0,0,0
25324,21789,37993,0,0,0
25316,21778,37991,0,0,0
25318,21777,37996,0,0,0
25316,21785,38007,0,0,0
25305,21788,38009,0,0,0
25301,21784,37999,0,0,0
25305,21788,37994,0,0,0
25301,21795,37990,0,0,0
25286,21787,37972,0,0,0
25273,21768,37941,0,0,0
25264,21751,37915,0,0,0
25243,21735,37890,0,0,0
25210,21709,37849,0,0,0
25177,21676,37796,0,0,0
25144,21650,37755,0,0,0
25099,21625,37717,0,0,0
25040,21586,37662,0,0,0
24986,21541,37596,0,0,0
24944,21511,37542,0,0,0
24896,21488,37492,0,0,0
24840,21453,37424,0,0,0
24790,21414,37348,0,0,0
24744,21384,37286,0,0,0
24690,21357,37227,0,0,0
24630,21317,37155,0,0,0
24580,21275,37083,0,0,0
24537,21242,37026,0,0,0
24482,21207,36969,0,0,0
24419,21162,36896,0,0,0
24365,21123,36822,0,0,0
24319,21098,36762,0,0,0
24269,21074,36701,0,0,0
24220,21041,36628,0,0,0
24181,21010,36555,0,0,0
24141,20983,36491,0,0,0
24092,20950,36424,0,0,0
24045,20906,36348,0,0,0
24009,20870,36282,0,0,0
23975,20847,36232,0,0,0
23926,20817,36173,0,0,0
23875,20777,36098,0,0,0
23838,20746,36033,0,0,0
23804,20725,35982,0,0,0
23756,20696,35925,0,0,0
23709,20659,35862,0,0,0
23672,20628,35809,0,0,0
23631,20604,35765,0,0,0
23583,20574,35710,0,0,0
23544,20541,35649,0,0,0
23516,20519,35599,0,0,0
23481,20501,35554,0,0,0
23436,20473,35496,0,0,0
23393,20440,35432,0,0,0
23355,20414,35381,0,0,0
23313,20388,35339,0,0,0
23263,20355,35286,0,0,0
23220,20321,35229,0,0,0
23183,20298,35185,0,0,0
23138,20276,35141,0,0,0
23082,20241,35082,0,0,0
23039,20207,35024,0,0,0
23013,20190,34988,0,0,0
22982,20175,34961,0,0,0
22942,20147,34917,0,0,0
22909,20116,34866,0,0,0
22883,20097,34822,0,0,0
22849,20079,34777,0,0,0
22812,20050,34717,0,0,0
22785,20025,34660,0,0,0
22766,20012,34622,0,0,0
22736,19998,34586,0,0,0
22701,19974,34539,0,0,0
22677,19952,34499,0,0,0
22654,19939,34474,0,0,0
22621,19923,34443,0,0,0
22590,19901,34400,0,0,0
22566,19883,34362,0,0,0
22536,19868,34331,0,0,0
22490,19843,34289,0,0,0
22447,19810,34235,0,0,0
22422,19787,34190,0,0,0
22401,19774,34156,0,0,0
22371,19756,34114,0,0,0
22341,19730,34061,0,0,0
22327,19711,34020,0,0,0
22313,19701,33993,0,0,0
22283,19684,33957,0,0,0
22252,19659,33909,0,0,0
22227,19638,33867,0,0,0
22194,19621,33833,0,0,0
22148,19595,33786,0,0,0
22109,19564,33728,0,0,0
22082,19542,33680,0,0,0
22048,19525,33640,0,0,0
22002,19498,33589,0,0,0
21962,19470,33533,0,0,0
21937,19452,33493,0,0,0
21916,19441,33467,0,0,0
21899,19427,33445,0,0,0
21904,19424,33441,0,0,0
21932,19447,33471,0,0,0
21966,19480,33524,0,0,0
22011,19512,33588,0,0,0
22089,19559,33679,0,0,0
22198,19636,33814,0,0,0
22318,19728,33981,0,0,0
22447,19819,34158,0,0,0
22598,19920,34356,0,0,0
22769,20044,34587,0,0,0
22946,20182,34839,0,0,0
23127,20317,35095,0,0,0
23318,20453,35361,0,0,0
23510,20594,35643,0,0,0
23690,20729,35918,0,0,0
23866,20849,36174,0,0,0
24047,20969,36427,0,0,0
24220,21093,36679,0,0,0
24368,21202,36909,0,0,0
24502,21294,37113,0,0,0
24633,21383,37307,0,0,0
24745,21469,37493,0,0,0
24830,21539,37650,0,0,0
24906,21594,37772,0,0,0
24985,21650,37880,0,0,0
25048,21703,37980,0,0,0
25084,21736,38053,0,0,0
25108,21749,38097,0,0,0
25132,21759,38134,0,0,0
25145,21769,38166,0,0,0
25140,21766,38175,0,0,0
25131,21751,38163,0,0,0
25123,21736,38152,0,0,0
25107,21722,38140,0,0,0
25080,21699,38110,0,0,0
25053,21671,38066,0,0,0
25030,21653,38029,0,0,0
24997,21641,37996,0,0,0
24953,21616,37948,0,0,0
24911,21584,37893,0,0,0
24874,21558,37849,0,0,0
24831,21536,37807,0,0,0
24785,21505,37754,0,0,0
24753,21477,37704,0,0,0
24730,21464,37672,0,0,0
24700,21451,37644,0,0,0
24666,21423,37602,0,0,0
24647,21396,37559,0,0,0
24642,21383,37532,0,0,0
24628,21373,37507,0,0,0
24603,21354,37469,0,0,0
24583,21333,37430,0,0,0
24562,21319,37402,0,0,0
24530,21302,37369,0,0,0
24491,21271,37320,0,0,0
24458,21241,37273,0,0,0
24425,21219,37240,0,0,0
24383,21194,37199,0,0,0
24342,21163,37145,0,0,0
24318,21145,37101,0,0,0
24299,21139,37073,0,0,0
24273,21130,37043,0,0,0
24257,21119,37007,0,0,0
24261,21117,36985,0,0,0
24262,21124,36978,0,0,0
24255,21125,36964,0,0,0
24260,21122,36945,0,0,0
24280,21130,36942,0,0,0
24293,21147,36951,0,0,0
24290,21157,36955,0,0,0
24286,21158,36953,0,0,0
24291,21165,36963,0,0,0
24291,21176,36985,0,0,0
24282,21174,36998,0,0,0
24279,21165,37001,0,0,0
24282,21165,37015,0,0,0
24275,21168,37033,0,0,0
24260,21162,37033,0,0,0
24254,21156,37026,0,0,0
24259,21161,37032,0,0,0
24255,21167,37043,0,0,0
24238,21159,37036,0,0,0
24223,21140,37016,0,0,0
24213,21129,37002,0,0,0
24194,21121,36989,0,0,0
24163,21101,36964,0,0,0
24137,21079,36935,0,0,0
24113,21062,36916,0,0,0
24074,21039,36890,0,0,0
24023,21001,36840,0,0,0
23978,20961,36787,0,0,0
23933,20930,36746,0,0,0
23867,20895,36698,0,0,0
23787,20845,36628,0,0,0
23711,20794,36555,0,0,0
23633,20746,36488,0,0,0
23543,20691,36411,0,0,0
23455,20624,36315,0,0,0
23377,20557,36216,0,0,0
23298,20497,36126,0,0,0
23203,20429,36024,0,0,0
23106,20352,35908,0,0,0
23022,20285,35807,0,0,0
22942,20232,35725,0,0,0
22851,20177,35637,0,0,0
22763,20117,35538,0,0,0
22688,20065,35449,0,0,0
22612,20018,35372,0,0,0
22527,19964,35286,0,0,0
22453,19906,35192,0,0,0
22393,19857,35110,0,0,0
22327,19817,35038,0,0,0
22248,19771,34955,0,0,0
22175,19721,34866,0,0,0
22118,19680,34790,0,0,0
22060,19645,34722,0,0,0
21995,19602,34646,0,0,0
21939,19559,34569,0,0,0
21893,19527,34507,0,0,0
21840,19496,34453,0,0,0
21778,19454,34382,0,0,0
21726,19409,34308,0,0,0
21690,19379,34254,0,0,0
21654,19357,34210,0,0,0
21612,19326,34153,0,0,0
21576,19293,34090,0,0,0
21549,19273,34041,0,0,0
21517,19254,33994,0,0,0
21480,19224,33934,0,0,0
21452,19192,33876,0,0,0
21430,19172,33838,0,0,0
21396,19153,33802,0,0,0
21357,19121,33751,0,0,0
21326,19088,33697,0,0,0
21296,19063,33651,0,0,0
21253,19037,33601,0,0,0
21210,19007,33545,0,0,0
21176,18982,33498,0,0,0
21136,18962,33463,0,0,0
21082,18934,33419,0,0,0
21032,18896,33364,0,0,0
21001,18869,33322,0,0,0
20980,18858,33300,0,0,0
20958,18850,33280,0,0,0
20954,18847,33261,0,0,0
20982,18863,33255,0,0,0
21021,18894,33263,0,0,0
21061,18926,33267,0,0,0
21118,18957,33266,0,0,0
21193,18998,33281,0,0,0
21264,19046,33306,0,0,0
21316,19084,33319,0,0,0
21366,19112,33321,0,0,0
21422,19142,33330,0,0,0
21470,19170,33343,0,0,0
21508,19189,33348,0,0,0
21554,19208,33357,0,0,0
21614,19244,33398,0,0,0
21678,19293,33465,0,0,0
21749,19342,33539,0,0,0
21842,19398,33633,0,0,0
21965,19480,33772,0,0,0
22103,19581,33948,0,0,0
22256,19689,34142,0,0,0
22442,19813,34361,0,0,0
22657,19963,34621,0,0,0
22878,20121,34902,0,0,0
23100,20274,35185,0,0,0
23338,20433,35481,0,0,0
23586,20607,35802,0,0,0
23827,20782,36128,0,0,0
24059,20943,36441,0,0,0
24291,21099,36747,0,0,0
24514,21259,37054,0,0,0
24716,21410,37344,0,0,0
24899,21541,37602,0,0,0
25080,21667,37845,0,0,0
25247,21794,38083,0,0,0
25385,21905,38298,0,0,0
25506,21994,38480,0,0,0
25625,22076,38647,0,0,0
25727,22153,38802,0,0,0
25805,22212,38929,0,0,0
25882,22254,39026,0,0,0
25965,22294,39116,0,0,0
26031,22335,39204,0,0,0
26073,22363,39266,0,0,0
26109,22378,39301,0,0,0
26146,22396,39332,0,0,0
26167,22415,39359,0,0,0
26171,22420,39367,0,0,0
26179,22416,39360,0,0,0
26191,22419,39359,0,0,0
26191,22424,39360,0,0,0
26176,22417,39343,0,0,0
26163,22403,39313,0,0,0
26160,22398,39293,0,0,0
26155,22396,39278,0,0,0
26143,22385,39254,0,0,0
26141,22375,39233,0,0,0
26147,22380,39230,0,0,0
26141,22386,39230,0,0,0
26122,22376,39212,0,0,0
26112,22360,39188,0,0,0
26115,22356,39179,0,0,0
26110,22357,39172,0,0,0
26092,22348,39147,0,0,0
26081,22339,39117,0,0,0
26073,22339,39100,0,0,0
26049,22333,39080,0,0,0
26019,22309,39040,0,0,0
25998,22284,38997,0,0,0
25983,22270,38972,0,0,0
25954,22254,38944,0,0,0
25920,22227,38899,0,0,0
25894,22199,38852,0,0,0
25868,22179,38817,0,0,0
25836,22159,38780,0,0,0
25806,22137,38734,0,0,0
25791,22125,38698,0,0,0
25777,22125,38682,0,0,0
25756,22122,38664,0,0,0
25737,22110,38634,0,0,0
25733,22105,38616,0,0,0
25734,22110,38616,0,0,0
25730,22112,38615,0,0,0
25736,22109,38609,0,0,0
25761,22116,38617,0,0,0
25788,22132,38640,0,0,0
25807,22144,38658,0,0,0
25834,22155,38670,0,0,0
25871,22177,38696,0,0,0
25899,22205,38732,0,0,0
25913,22224,38761,0,0,0
25929,22234,38782,0,0,0
25951,22247,38809,0,0,0
25961,22257,38831,0,0,0
25959,22253,38834,0,0,0
25963,22245,38828,0,0,0
25975,22248,38836,0,0,0
25976,22256,38848,0,0,0
25962,22250,38840,0,0,0
25949,22236,38822,0,0,0
25942,22232,38818,0,0,0
25930,22232,38818,0,0,0
25909,22221,38802,0,0,0
25892,22205,38778,0,0,0
25874,22197,38764,0,0,0
25842,22187,38746,0,0,0
25802,22165,38706,0,0,0
25772,22145,38661,0,0,0
25745,22135,38627,0,0,0
25705,22119,38586,0,0,0
25658,22089,38525,0,0,0
25616,22054,38460,0,0,0
25573,22024,38401,0,0,0
25521,21989,38336,0,0,0
25466,21944,38258,0,0,0
25416,21900,38182,0,0,0
25358,21865,38120,0,0,0
25287,21826,38051,0,0,0
25221,21780,37970,0,0,0
25171,21745,37897,0,0,0
25119,21720,37837,0,0,0
25049,21684,37765,0,0,0
24976,21631,37675,0,0,0
24914,21582,37592,0,0,0
24847,21540,37521,0,0,0
24768,21491,37445,0,0,0
24696,21439,37361,0,0,0
24637,21394,37287,0,0,0
24571,21352,37222,0,0,0
24497,21302,37148,0,0,0
24435,21252,37068,0,0,0
24392,21215,37001,0,0,0
24349,21187,36942,0,0,0
24303,21152,36874,0,0,0
24262,21117,36803,0,0,0
24227,21091,36745,0,0,0
24182,21070,36692,0,0,0
24131,21041,36629,0,0,0
24092,21016,36568,0,0,0
24065,21004,36525,0,0,0
24032,20993,36484,0,0,0
23989,20964,36427,0,0,0
23955,20930,36364,0,0,0
23936,20911,36318,0,0,0
23912,20896,36278,0,0,0
23881,20869,36225,0,0,0
23856,20842,36174,0,0,0
23836,20827,36141,0,0,0
23803,20809,36112,0,0,0
23765,20777,36068,0,0,0
23738,20746,36026,0,0,0
23720,20732,35999,0,0,0
23689,20719,35969,0,0,0
23653,20698,35927,0,0,0
23624,20679,35888,0,0,0
23594,20666,35859,0,0,0
23558,20651,35823,0,0,0
23532,20630,35774,0,0,0
23521,20614,35738,0,0,0
23507,20604,35717,0,0,0
23476,20584,35686,0,0,0
23444,20552,35636,0,0,0
23424,20525,35593,0,0,0
23401,20508,35566,0,0,0
23366,20487,35538,0,0,0
23339,20464,35503,0,0,0
23327,20450,35473,0,0,0
23312,20444,35446,0,0,0
23285,20433,35412,0,0,0
23259,20418,35372,0,0,0
23238,20411,35344,0,0,0
23211,20413,35328,0,0,0
23178,20406,35303,0,0,0
23148,20389,35267,0,0,0
23122,20375,35234,0,0,0
23091,20361,35201,0,0,0
23052,20337,35149,0,0,0
23021,20308,35092,0,0,0
23002,20291,35053,0,0,0
22978,20279,35023,0,0,0
22948,20257,34985,0,0,0
22930,20236,34948,0,0,0
22932,20233,34935,0,0,0
22944,20244,34943,0,0,0
22971,20259,34963,0,0,0
23030,20291,35014,0,0,0
23121,20353,35114,0,0,0
23221,20431,35246,0,0,0
23333,20513,35392,0,0,0
23475,20611,35570,0,0,0
23643,20735,35791,0,0,0
23820,20874,36041,0,0,0
24011,21017,36306,0,0,0
24218,21169,36592,0,0,0
24426,21332,36902,0,0,0
24628,21491,37215,0,0,0
24835,21639,37517,0,0,0
25059,21795,37829,0,0,0
25285,21963,38158,0,0,0
25495,22121,38476,0,0,0
25697,22266,38770,0,0,0
25900,22410,39054,0,0,0
26084,22548,39331,0,0,0
26237,22669,39580,0,0,0
26377,22774,39798,0,0,0
26517,22876,40004,0,0,0
26640,22975,40201,0,0,0
26738,23054,40368,0,0,0
26826,23113,40504,0,0,0
26909,23168,40629,0,0,0
26973,23218,40740,0,0,0
27015,23252,40820,0,0,0
27052,23274,40875,0,0,0
27088,23295,40923,0,0,0
27105,23308,40958,0,0,0
27096,23301,40961,0,0,0
27081,23284,40943,0,0,0
27066,23275,40928,0,0,0
27040,23266,40904,0,0,0
27004,23242,40860,0,0,0
26978,23217,40815,0,0,0
26965,23207,40789,0,0,0
26940,23196,40766,0,0,0
26902,23167,40722,0,0,0
26869,23133,40668,0,0,0
26846,23112,40627,0,0,0
26819,23095,40589,0,0,0
26789,23071,40541,0,0,0
26772,23051,40499,0,0,0
26766,23045,40478,0,0,0
26754,23039,40461,0,0,0
26737,23023,40430,0,0,0
26728,23008,40398,0,0,0
26719,23005,40378,0,0,0
26702,23001,40356,0,0,0
26687,22989,40322,0,0,0
26682,22979,40292,0,0,0
26674,22974,40274,0,0,0
26648,22960,40247,0,0,0
26612,22930,40203,0,0,0
26584,22904,40169,0,0,0
26556,22889,40151,0,0,0
26516,22870,40123,0,0,0
26478,22846,40082,0,0,0
26454,22831,40045,0,0,0
26427,22823,40016,0,0,0
26388,22808,39977,0,0,0
26355,22788,39933,0,0,0
26334,22778,39903,0,0,0
26309,22770,39883,0,0,0
26279,22753,39855,0,0,0
26261,22732,39820,0,0,0
26260,22723,39798,0,0,0
26263,22725,39791,0,0,0
26262,22723,39784,0,0,0
26270,22724,39780,0,0,0
26288,22738,39797,0,0,0
26299,22755,39821,0,0,0
26303,22762,39832,0,0,0
26320,22771,39846,0,0,0
26356,22799,39885,0,0,0
26387,22830,39934,0,0,0
26404,22846,39963,0,0,0
26425,22853,39980,0,0,0
26452,22867,40004,0,0,0
26472,22880,40026,0,0,0
26483,22881,40033,0,0,0
26495,22880,40037,0,0,0
26507,22889,40054,0,0,0
26507,22895,40066,0,0,0
26499,22890,40058,0,0,0
26500,22885,40048,0,0,0
26500,22890,40047,0,0,0
26484,22888,40037,0,0,0
26459,22871,40006,0,0,0
26437,22852,39968,0,0,0
26409,22836,39933,0,0,0
26364,22812,39885,0,0,0
26319,22779,39823,0,0,0
26282,22750,39764,0,0,0
26237,22728,39715,0,0,0
26170,22696,39655,0,0,0
26100,22650,39577,0,0,0
26044,22609,39502,0,0,0
25988,22575,39437,0,0,0
25915,22528,39360,0,0,0
25840,22467,39266,0,0,0
25772,22410,39176,0,0,0
25700,22358,39091,0,0,0
25618,22298,38996,0,0,0
25545,22234,38894,0,0,0
25487,22180,38805,0,0,0
25425,22133,38727,0,0,0
25355,22080,38642,0,0,0
25290,22027,38549,0,0,0
25232,21986,38469,0,0,0
25170,21953,38396,0,0,0
25104,21912,38312,0,0,0
25049,21867,38226,0,0,0
25000,21829,38152,0,0,0
24938,21787,38077,0,0,0
24868,21732,37985,0,0,0
24811,21678,37893,0,0,0
24765,21638,37818,0,0,0
24706,21600,37746,0,0,0
24636,21551,37661,0,0,0
24573,21500,37574,0,0,0
24519,21465,37505,0,0,0
24460,21433,37444,0,0,0
24401,21393,37372,0,0,0
24350,21353,37300,0,0,0
24300,21320,37241,0,0,0
24242,21286,37180,0,0,0
24183,21243,37104,0,0,0
24136,21203,37032,0,0,0
24090,21172,36973,0,0,0
24032,21133,36906,0,0,0
23970,21083,36825,0,0,0
23919,21038,36752,0,0,0
23871,21003,36693,0,0,0
23812,20965,36627,0,0,0
23759,20926,36552,0,0,0
23721,20896,36488,0,0,0
23680,20875,36436,0,0,0
23624,20846,36375,0,0,0
23573,20812,36304,0,0,0
23539,20788,36249,0,0,0
23507,20775,36212,0,0,0
23464,20754,36170,0,0,0
23425,20722,36116,0,0,0
23397,20694,36066,0,0,0
23363,20670,36020,0,0,0
23320,20636,35960,0,0,0
23284,20598,35893,0,0,0
23252,20569,35839,0,0,0
23206,20540,35790,0,0,0
23147,20499,35723,0,0,0
23094,20454,35649,0,0,0
23054,20421,35592,0,0,0
23008,20394,35543,0,0,0
22951,20356,35480,0,0,0
22898,20313,35411,0,0,0
22852,20280,35356,0,0,0
22797,20249,35301,0,0,0
22738,20209,35232,0,0,0
22694,20170,35164,0,0,0
22663,20147,35116,0,0,0
22624,20127,35070,0,0,0
22579,20094,35010,0,0,0
22546,20062,34947,0,0,0
22521,20043,34899,0,0,0
22486,20024,34852,0,0,0
22447,19996,34793,0,0,0
22418,19969,34741,0,0,0
22398,19954,34715,0,0,0
22385,19949,34708,0,0,0
22390,19957,34713,0,0,0
22424,19988,34754,0,0,0
22475,20042,34840,0,0,0
22537,20104,34951,0,0,0
22629,20171,35081,0,0,0
22763,20259,35249,0,0,0
22919,20372,35458,0,0,0
23076,20492,35686,0,0,0
23250,20614,35927,0,0,0
23451,20750,36195,0,0,0
23655,20896,36483,0,0,0
23850,21038,36770,0,0,0
24050,21175,37053,0,0,0
24263,21321,37352,0,0,0
24468,21473,37666,0,0,0
24655,21617,37971,0,0,0
24837,21750,38256,0,0,0
25020,21882,38534,0,0,0
25189,22012,38797,0,0,0
25341,22127,39028,0,0,0
25486,22227,39233,0,0,0
25623,22326,39426,0,0,0
25732,22415,39597,0,0,0
25814,22479,39728,0,0,0
25889,22526,39834,0,0,0
25963,22574,39939,0,0,0
26016,22616,40033,0,0,0
26044,22635,40094,0,0,0
26063,22639,40131,0,0,0
26077,22648,40164,0,0,0
26076,22656,40186,0,0,0
26064,22650,40183,0,0,0
26053,22636,40166,0,0,0
26039,22625,40153,0,0,0
26010,22611,40134,0,0,0
25974,22582,40092,0,0,0
25945,22552,40044,0,0,0
25915,22532,40004,0,0,0
25871,22506,39953,0,0,0
25825,22472,39885,0,0,0
25793,22445,39821,0,0,0
25763,22428,39771,0,0,0
25722,22406,39712,0,0,0
25686,22379,39643,0,0,0
25664,22357,39584,0,0,0
25638,22342,39542,0,0,0
25603,22320,39498,0,0,0
25573,22293,39445,0,0,0
25558,22277,39403,0,0,0
25539,22272,39375,0,0,0
25506,22259,39336,0,0,0
25473,22233,39282,0,0,0
25454,22209,39239,0,0,0
25434,22192,39206,0,0,0
25404,22171,39165,0,0,0
25376,22146,39114,0,0,0
25355,22130,39072,0,0,0
25325,22117,39037,0,0,0
25282,22094,38986,0,0,0
25245,22064,38926,0,0,0
25222,22045,38882,0,0,0
25196,22035,38847,0,0,0
25165,22019,38804,0,0,0
25145,22001,38759,0,0,0
25134,21994,38731,0,0,0
25114,21988,38709,0,0,0
25090,21973,38676,0,0,0
25081,21963,38650,0,0,0
25085,21972,38649,0,0,0
25079,21984,38656,0,0,0
25066,21982,38650,0,0,0
25065,21978,38646,0,0,0
25075,21987,38662,0,0,0
25082,21998,38687,0,0,0
25086,22000,38699,0,0,0
25096,21998,38707,0,0,0
25107,22006,38727,0,0,0
25111,22014,38748,0,0,0
25114,22013,38755,0,0,0
25131,22019,38765,0,0,0
25153,22037,38790,0,0,0
25163,22047,38811,0,0,0
25167,22044,38814,0,0,0
25178,22043,38817,0,0,0
25181,22046,38830,0,0,0
25172,22042,38832,0,0,0
25168,22031,38821,0,0,0
25171,22027,38815,0,0,0
25164,22026,38817,0,0,0
25139,22016,38805,0,0,0
25117,21997,38775,0,0,0
25104,21986,38746,0,0,0
25083,21979,38721,0,0,0
25049,21962,38679,0,0,0
25018,21939,38626,0,0,0
24996,21923,38580,0,0,0
24966,21908,38540,0,0,0
24923,21878,38485,0,0,0
24884,21839,38418,0,0,0
24854,21807,38363,0,0,0
24821,21783,38315,0,0,0
24779,21752,38254,0,0,0
24741,21719,38188,0,0,0
24710,21697,38133,0,0,0
24668,21676,38076,0,0,0
24615,21639,38001,0,0,0
24572,21601,37928,0,0,0
24543,21578,37875,0,0,0
24509,21560,37829,0,0,0
24466,21531,37769,0,0,0
24431,21497,37703,0,0,0
24402,21472,37647,0,0,0
24367,21449,37591,0,0,0
24331,21419,37520,0,0,0
24306,21391,37450,0,0,0
24284,21374,37400,0,0,0
24250,21355,37351,0,0,0
24206,21328,37287,0,0,0
24169,21303,37225,0,0,0
24132,21288,37178,0,0,0
24088,21270,37130,0,0,0
24049,21244,37071,0,0,0
24019,21220,37017,0,0,0
23982,21200,36973,0,0,0
23933,21173,36918,0,0,0
23895,21137,36852,0,0,0
23875,21112,36797,0,0,0
23854,21099,36756,0,0,0
23814,21080,36707,0,0,0
23771,21052,36642,0,0,0
23741,21033,36582,0,0,0
23710,21020,36530,0,0,0
23668,21000,36471,0,0,0
23629,20973,36404,0,0,0
23602,20951,36350,0,0,0
23572,20933,36308,0,0,0
23533,20904,36259,0,0,0
23502,20868,36203,0,0,0
23484,20844,36161,0,0,0
23463,20827,36130,0,0,0
23435,20801,36086,0,0,0
23413,20772,36033,0,0,0
23395,20754,35991,0,0,0
23367,20743,35953,0,0,0
23333,20725,35903,0,0,0
23309,20706,35851,0,0,0
23289,20695,35817,0,0,0
23252,20683,35787,0,0,0
23207,20657,35744,0,0,0
23178,20632,35701,0,0,0
23166,20622,35675,0,0,0
23146,20612,35650,0,0,0
23122,20589,35611,0,0,0
23109,20567,35570,0,0,0
23105,20562,35546,0,0,0
23102,20567,35534,0,0,0
23106,20571,35521,0,0,0
23126,20582,35524,0,0,0
23160,20613,35559,0,0,0
23199,20650,35610,0,0,0
23256,20688,35670,0,0,0
23349,20745,35768,0,0,0
23468,20831,35916,0,0,0
23598,20930,36093,0,0,0
23749,21036,36287,0,0,0
23929,21161,36518,0,0,0
24122,21307,36786,0,0,0
24316,21455,37068,0,0,0
24525,21605,37354,0,0,0
24753,21768,37660,0,0,0
24981,21937,37982,0,0,0
25192,22095,38294,0,0,0
25400,22243,38592,0,0,0
25616,22397,38898,0,0,0
25822,22554,39207,0,0,0
26006,22696,39490,0,0,0
26181,22821,39744,0,0,0
26346,22940,39987,0,0,0
26487,23047,40214,0,0,0
26606,23131,40410,0,0,0
26717,23203,40578,0,0,0
26820,23278,40735,0,0,0
26897,23344,40872,0,0,0
26948,23386,40967,0,0,0
26995,23411,41031,0,0,0
27039,23438,41088,0,0,0
27060,23459,41131,0,0,0
27056,23457,41147,0,0,0
27045,23443,41143,0,0,0
27031,23435,41136,0,0,0
27002,23427,41119,0,0,0
26963,23407,41077,0,0,0
26932,23385,41029,0,0,0
26905,23371,40995,0,0,0
26862,23349,40955,0,0,0
26808,23309,40891,0,0,0
26765,23268,40819,0,0,0
26730,23237,40759,0,0,0
26686,23206,40698,0,0,0
26640,23168,40623,0,0,0
26606,23133,40553,0,0,0
26572,23106,40499,0,0,0
26531,23078,40447,0,0,0
26498,23047,40388,0,0,0
26479,23029,40342,0,0,0
26453,23022,40311,0,0,0
26410,23006,40270,0,0,0
26370,22976,40213,0,0,0
26344,22953,40164,0,0,0
26318,22939,40126,0,0,0
26279,22917,40078,0,0,0
26241,22885,40018,0,0,0
26208,22858,39963,0,0,0
26163,22832,39914,0,0,0
26105,22796,39850,0,0,0
26054,22756,39776,0,0,0
26019,22730,39716,0,0,0
25984,22711,39668,0,0,0
25941,22681,39609,0,0,0
25904,22644,39545,0,0,0
25878,22617,39501,0,0,0
25849,22599,39471,0,0,0
25819,22577,39436,0,0,0
25805,22557,39406,0,0,0
25803,22549,39395,0,0,0
25793,22545,39390,0,0,0
25781,22536,39374,0,0,0
25789,22534,39363,0,0,0
25811,22549,39377,0,0,0
25824,22570,39399,0,0,0
25826,22578,39406,0,0,0
25835,22585,39410,0,0,0
25853,22605,39430,0,0,0
25866,22626,39454,0,0,0
25877,22636,39464,0,0,0
25898,22643,39473,0,0,0
25924,22659,39500,0,0,0
25943,22673,39527,0,0,0
25956,22675,39535,0,0,0
25974,22680,39543,0,0,0
25985,22695,39560,0,0,0
25978,22703,39568,0,0,0
25965,22702,39560,0,0,0
25958,22701,39553,0,0,0
25945,22704,39553,0,0,0
25918,22699,39543,0,0,0
25894,22683,39520,0,0,0
25878,22668,39498,0,0,0
25853,22657,39480,0,0,0
25811,22634,39446,0,0,0
25772,22600,39394,0,0,0
25748,22573,39345,0,0,0
25722,22552,39298,0,0,0
25680,22520,39236,0,0,0
25636,22479,39161,0,0,0
25601,22443,39096,0,0,0
25559,22412,39040,0,0,0
25507,22372,38972,0,0,0
25461,22326,38894,0,0,0
25425,22290,38831,0,0,0
25381,22259,38776,0,0,0
25324,22216,38705,0,0,0
25271,22169,38624,0,0,0
25224,22134,38553,0,0,0
25170,22101,38483,0,0,0
25110,22056,38399,0,0,0
25061,22012,38314,0,0,0
25023,21979,38246,0,0,0
24972,21944,38181,0,0,0
24907,21895,38098,0,0,0
24847,21843,38012,0,0,0
24796,21806,37942,0,0,0
24742,21778,37879,0,0,0
24686,21744,37805,0,0,0
24639,21709,37730,0,0,0
24594,21682,37671,0,0,0
24541,21653,37611,0,0,0
24490,21613,37536,0,0,0
24453,21578,37466,0,0,0
24422,21556,37413,0,0,0
24377,21529,37356,0,0,0
24328,21489,37288,0,0,0
24288,21449,37221,0,0,0
24247,21416,37161,0,0,0
24196,21382,37094,0,0,0
24151,21349,37020,0,0,0
24122,21329,36957,0,0,0
24088,21318,36906,0,0,0
24036,21298,36849,0,0,0
23985,21266,36780,0,0,0
23954,21242,36719,0,0,0
23925,21227,36670,0,0,0
23885,21203,36616,0,0,0
23846,21167,36553,0,0,0
23817,21134,36501,0,0,0
23782,21107,36456,0,0,0
23734,21072,36399,0,0,0
23691,21032,36332,0,0,0
23661,21002,36280,0,0,0
23630,20983,36241,0,0,0
23595,20962,36194,0,0,0
23570,20937,36147,0,0,0
23552,20923,36116,0,0,0
23528,20918,36095,0,0,0
23505,20911,36069,0,0,0
23510,20915,36056,0,0,0
23545,20945,36079,0,0,0
23595,20994,36136,0,0,0
23660,21048,36207,0,0,0
23753,21111,36302,0,0,0
23874,21196,36443,0,0,0
24012,21297,36626,0,0,0
24170,21405,36830,0,0,0
24354,21524,37062,0,0,0
24552,21662,37330,0,0,0
24747,21806,37615,0,0,0
24943,21944,37897,0,0,0
25156,22090,38192,0,0,0
25377,22252,38509,0,0,0
25584,22413,38826,0,0,0
25781,22560,39126,0,0,0
25979,22704,39422,0,0,0
26163,22846,39714,0,0,0
26325,22972,39981,0,0,0
26481,23084,40217,0,0,0
26638,23194,40440,0,0,0
26777,23303,40651,0,0,0
26883,23390,40829,0,0,0
26973,23455,40971,0,0,0
27061,23514,41101,0,0,0
27132,23572,41221,0,0,0
27174,23609,41310,0,0,0
27200,23626,41365,0,0,0
27222,23638,41406,0,0,0
27225,23648,41436,0,0,0
27207,23644,41437,0,0,0
27189,23630,41418,0,0,0
27177,23617,41400,0,0,0
27152,23600,41377,0,0,0
27110,23564,41332,0,0,0
27065,23515,41268,0,0,0
27023,23472,41207,0,0,0
26969,23431,41147,0,0,0
26902,23383,41070,0,0,0
26840,23333,40986,0,0,0
26783,23295,40917,0,0,0
26717,23258,40849,0,0,0
26646,23208,40767,0,0,0
26592,23161,40690,0,0,0
26553,23132,40636,0,0,0
26508,23104,40585,0,0,0
26456,23064,40517,0,0,0
26413,23024,40443,0,0,0
26377,22996,40381,0,0,0
26337,22974,40323,0,0,0
26297,22944,40257,0,0,0
26265,22914,40193,0,0,0
26230,22890,40140,0,0,0
26181,22861,40084,0,0,0
26130,22822,40013,0,0,0
26089,22786,39944,0,0,0
26047,22759,39889,0,0,0
25989,22724,39829,0,0,0
25927,22678,39755,0,0,0
25878,22637,39686,0,0,0
25829,22608,39629,0,0,0
25773,22578,39569,0,0,0
25727,22548,39505,0,0,0
25700,22531,39456,0,0,0
25671,22525,39422,0,0,0
25635,22510,39382,0,0,0
25609,22488,39333,0,0,0
25600,22477,39301,0,0,0
25592,22475,39288,0,0,0
25574,22463,39272,0,0,0
25559,22444,39252,0,0,0
25557,22436,39244,0,0,0
25551,22437,39246,0,0,0
25535,22435,39242,0,0,0
25526,22431,39236,0,0,0
25525,22435,39242,0,0,0
25518,22441,39254,0,0,0
25505,22434,39249,0,0,0
25502,22422,39236,0,0,0
25513,22425,39243,0,0,0
25519,22434,39259,0,0,0
25509,22428,39259,0,0,0
25499,22415,39250,0,0,0
25495,22411,39251,0,0,0
25485,22408,39251,0,0,0
25470,22393,39229,0,0,0
25464,22379,39201,0,0,0
25460,22374,39182,0,0,0
25437,22363,39158,0,0,0
25402,22333,39112,0,0,0
25377,22304,39064,0,0,0
25354,22287,39026,0,0,0
25316,22267,38983,0,0,0
25269,22237,38924,0,0,0
25230,22206,38865,0,0,0
25191,22182,38811,0,0,0
25141,22152,38749,0,0,0
25093,22113,38675,0,0,0
25053,22078,38605,0,0,0
25002,22048,38545,0,0,0
24934,22009,38474,0,0,0
24870,21960,38389,0,0,0
24822,21917,38314,0,0,0
24771,21883,38253,0,0,0
24703,21839,38181,0,0,0
24633,21780,38093,0,0,0
24574,21728,38009,0,0,0
24514,21684,37934,0,0,0
24448,21635,37853,0,0,0
24389,21584,37766,0,0,0
24339,21545,37691,0,0,0
24283,21511,37623,0,0,0
24217,21470,37541,0,0,0
24160,21427,37452,0,0,0
24114,21395,37378,0,0,0
24062,21367,37313,0,0,0
24000,21325,37231,0,0,0
23943,21274,37141,0,0,0
23895,21233,37067,0,0,0
23842,21198,37003,0,0,0
23784,21154,36929,0,0,0
23737,21109,36855,0,0,0
23698,21075,36798,0,0,0
23654,21047,36747,0,0,0
23608,21016,36682,0,0,0
23574,20987,36613,0,0,0
23542,20967,36562,0,0,0
23496,20943,36514,0,0,0
23439,20907,36452,0,0,0
23393,20870,36387,0,0,0
23353,20844,36330,0,0,0
23307,20821,36273,0,0,0
23261,20793,36206,0,0,0
23224,20765,36144,0,0,0
23185,20744,36096,0,0,0
23136,20717,36045,0,0,0
23087,20678,35977,0,0,0
23051,20645,35915,0,0,0
23020,20625,35871,0,0,0
22980,20600,35822,0,0,0
22945,20566,35763,0,0,0
22923,20539,35711,0,0,0
22896,20519,35671,0,0,0
22851,20493,35622,0,0,0
22809,20462,35559,0,0,0
22781,20438,35506,0,0,0
22747,20419,35463,0,0,0
22700,20391,35410,0,0,0
22661,20357,35345,0,0,0
22638,20333,35293,0,0,0
22615,20320,35252,0,0,0
22584,20302,35208,0,0,0
22563,20284,35169,0,0,0
22562,20284,35157,0,0,0
22569,20297,35171,0,0,0
22590,20313,35195,0,0,0
22643,20342,35241,0,0,0
22730,20399,35336,0,0,0
22835,20478,35469,0,0,0
22951,20561,35621,0,0,0
23093,20656,35800,0,0,0
23267,20776,36024,0,0,0
23449,20913,36278,0,0,0
23631,21049,36533,0,0,0
23823,21188,36793,0,0,0
24023,21338,37074,0,0,0
24215,21489,37361,0,0,0
24403,21631,37635,0,0,0
24599,21774,37908,0,0,0
24793,21923,38193,0,0,0
24964,22060,38464,0,0,0
25116,22174,38707,0,0,0
25268,22280,38935,0,0,0
25413,22387,39160,0,0,0
25533,22479,39362,0,0,0
25636,22549,39526,0,0,0
25735,22612,39670,0,0,0
25818,22672,39804,0,0,0
25876,22718,39911,0,0,0
25923,22747,39987,0,0,0
25967,22774,40052,0,0,0
25988,22800,40110,0,0,0
25980,22808,40138,0,0,0
25964,22798,40132,0,0,0
25958,22791,40123,0,0,0
25946,22788,40118,0,0,0
25919,22772,40100,0,0,0
25895,22745,40064,0,0,0
25879,22723,40030,0,0,0
25854,22704,39997,0,0,0
25814,22677,39946,0,0,0
25779,22645,39883,0,0,0
25753,22619,39831,0,0,0
25718,22595,39784,0,0,0
25671,22561,39721,0,0,0
25632,22524,39650,0,0,0
25604,22501,39598,0,0,0
25570,22484,39557,0,0,0
25528,22458,39503,0,0,0
25496,22430,39448,0,0,0
25475,22414,39410,0,0,0
25451,22402,39378,0,0,0
25423,22384,39335,0,0,0
25405,22365,39292,0,0,0
25390,22354,39261,0,0,0
25361,22337,39226,0,0,0
25320,22302,39170,0,0,0
25290,22266,39113,0,0,0
25268,22244,39071,0,0,0
25236,22222,39030,0,0,0
25196,22187,38973,0,0,0
25161,22151,38914,0,0,0
25127,22126,38871,0,0,0
25087,22105,38830,0,0,0
25051,22080,38778,0,0,0
25027,22060,38729,0,0,0
25004,22051,38693,0,0,0
24969,22036,38649,0,0,0
24939,22011,38595,0,0,0
24927,21993,38554,0,0,0
24919,21985,38533,0,0,0
24901,21970,38512,0,0,0
24891,21953,38489,0,0,0
24899,21948,38480,0,0,0
24902,21956,38485,0,0,0
24893,21960,38484,0,0,0
24892,21961,38476,0,0,0
24908,21972,38480,0,0,0
24923,21989,38495,0,0,0
24929,21998,38501,0,0,0
24939,22000,38501,0,0,0
24956,22007,38510,0,0,0
24962,22016,38525,0,0,0
24958,22012,38526,0,0,0
24962,22005,38521,0,0,0
24976,22010,38529,0,0,0
24982,22022,38541,0,0,0
24975,22022,38533,0,0,0
24972,22016,38518,0,0,0
24979,22021,38516,0,0,0
24975,22028,38519,0,0,0
24956,22020,38503,0,0,0
24940,22003,38477,0,0,0
24929,21994,38461,0,0,0
24906,21983,38439,0,0,0
24873,21957,38393,0,0,0
24848,21927,38340,0,0,0
24827,21909,38303,0,0,0
24791,21891,38266,0,0,0
24747,21859,38213,0,0,0
24710,21825,38154,0,0,0
24675,21799,38105,0,0,0
24631,21772,38052,0,0,0
24585,21734,37982,0,0,0
24547,21695,37910,0,0,0
24507,21663,37851,0,0,0
24452,21626,37786,0,0,0
24397,21580,37710,0,0,0
24356,21544,37644,0,0,0
24316,21520,37593,0,0,0
24261,21490,37529,0,0,0
24206,21451,37451,0,0,0
24169,21424,37386,0,0,0
24138,21410,37336,0,0,0
24099,21389,37278,0,0,0
24065,21358,37206,0,0,0
24040,21334,37143,0,0,0
24007,21318,37092,0,0,0
23960,21291,37029,0,0,0
23918,21253,36956,0,0,0
23889,21223,36894,0,0,0
23856,21199,36844,0,0,0
23812,21167,36788,0,0,0
23770,21132,36727,0,0,0
23734,21108,36674,0,0,0
23690,21085,36620,0,0,0
23639,21048,36552,0,0,0
23597,21008,36479,0,0,0
23569,20982,36427,0,0,0
23535,20961,36386,0,0,0
23489,20929,36331,0,0,0
23453,20894,36269,0,0,0
23429,20872,36223,0,0,0
23399,20854,36183,0,0,0
23360,20826,36131,0,0,0
23331,20800,36081,0,0,0
23307,20786,36045,0,0,0
23272,20769,36005,0,0,0
23229,20736,35945,0,0,0
23197,20704,35883,0,0,0
23171,20688,35835,0,0,0
23134,20672,35788,0,0,0
23093,20646,35731,0,0,0
23060,20620,35678,0,0,0
23026,20604,35642,0,0,0
22986,20585,35603,0,0,0
22956,20558,35551,0,0,0
22942,20535,35505,0,0,0
22927,20521,35471,0,0,0
22894,20499,35427,0,0,0
22856,20468,35368,0,0,0
22831,20444,35319,0,0,0
22805,20427,35286,0,0,0
22770,20402,35247,0,0,0
22742,20370,35200,0,0,0
22722,20343,35161,0,0,0
22690,20321,35130,0,0,0
22641,20291,35088,0,0,0
22600,20255,35035,0,0,0
22572,20230,34990,0,0,0
22540,20215,34953,0,0,0
22500,20194,34907,0,0,0
22468,20171,34858,0,0,0
22445,20161,34823,0,0,0
22417,20155,34794,0,0,0
22385,20138,34755,0,0,0
22369,20119,34718,0,0,0
22372,20115,34706,0,0,0
22379,20121,34713,0,0,0
22393,20131,34724,0,0,0
22432,20154,34754,0,0,0
22501,20204,34826,0,0,0
22584,20269,34931,0,0,0
22682,20340,35052,0,0,0
22816,20433,35209,0,0,0
22981,20555,35416,0,0,0
23154,20689,35648,0,0,0
23334,20819,35886,0,0,0
23531,20954,36143,0,0,0
23740,21103,36427,0,0,0
23944,21252,36715,0,0,0
24143,21388,36985,0,0,0
24338,21517,37246,0,0,0
24516,21646,37507,0,0,0
24667,21763,37752,0,0,0
24809,21863,37970,0,0,0
24953,21962,38182,0,0,0
25086,22064,38397,0,0,0
25191,22151,38588,0,0,0
25288,22222,38749,0,0,0
25387,22293,38897,0,0,0
25467,22360,39036,0,0,0
25520,22412,39146,0,0,0
25568,22452,39224,0,0,0
25618,22488,39291,0,0,0
25651,22517,39347,0,0,0
25660,22526,39376,0,0,0
25658,22519,39379,0,0,0
25656,22514,39380,0,0,0
25640,22508,39378,0,0,0
25608,22490,39355,0,0,0
25576,22463,39318,0,0,0
25551,22441,39288,0,0,0
25514,22417,39253,0,0,0
25459,22374,39195,0,0,0
25406,22323,39123,0,0,0
25365,22285,39062,0,0,0
25323,22256,39009,0,0,0
25278,22222,38946,0,0,0
25242,22189,38882,0,0,0
25213,22164,38835,0,0,0
25176,22140,38794,0,0,0
25136,22109,38740,0,0,0
25109,22083,38686,0,0,0
25092,22074,38650,0,0,0
25066,22066,38615,0,0,0
25033,22046,38564,0,0,0
25006,22026,38510,0,0,0
24986,22017,38466,0,0,0
24961,22007,38422,0,0,0
24936,21985,38369,0,0,0
24915,21960,38317,0,0,0
24894,21942,38277,0,0,0
24861,21919,38234,0,0,0
24825,21884,38178,0,0,0
24801,21856,38127,0,0,0
24779,21838,38092,0,0,0
24742,21813,38052,0,0,0
24704,21781,38000,0,0,0
24677,21756,37955,0,0,0
24643,21738,37918,0,0,0
24595,21712,37872,0,0,0
24562,21683,37822,0,0,0
24553,21670,37789,0,0,0
24549,21672,37775,0,0,0
24537,21671,37758,0,0,0
24532,21662,37734,0,0,0
24542,21663,37723,0,0,0
24550,21672,37724,0,0,0
24548,21673,37720,0,0,0
24548,21670,37714,0,0,0
24555,21675,37720,0,0,0
24552,21683,37735,0,0,0
24540,21679,37740,0,0,0
24536,21669,37738,0,0,0
24543,21671,37748,0,0,0
24545,21678,37762,0,0,0
24541,21677,37761,0,0,0
24543,21673,37752,0,0,0
24549,21678,37754,0,0,0
24544,21686,37759,0,0,0
24535,21685,37751,0,0,0
24535,21686,37741,0,0,0
24540,21695,37743,0,0,0
24529,21695,37738,0,0,0
24507,21679,37709,0,0,0
24494,21661,37676,0,0,0
24487,21652,37655,0,0,0
24468,21641,37634,0,0,0
24443,21618,37599,0,0,0
24420,21592,37560,0,0,0
24392,21573,37528,0,0,0
24353,21552,37491,0,0,0
24312,21522,37441,0,0,0
24277,21495,37392,0,0,0
24237,21474,37352,0,0,0
24183,21444,37301,0,0,0
24128,21401,37234,0,0,0
24087,21364,37174,0,0,0
24046,21335,37125,0,0,0
23989,21299,37066,0,0,0
23933,21254,36993,0,0,0
23890,21220,36925,0,0,0
23845,21193,36861,0,0,0
23787,21157,36786,0,0,0
23733,21115,36701,0,0,0
23692,21082,36630,0,0,0
23644,21055,36571,0,0,0
23583,21015,36501,0,0,0
23524,20967,36422,0,0,0
23478,20929,36352,0,0,0
23429,20897,36291,0,0,0
23372,20858,36220,0,0,0
23319,20812,36141,0,0,0
23272,20772,36072,0,0,0
23218,20737,36011,0,0,0
23160,20696,35942,0,0,0
23111,20658,35874,0,0,0
23070,20631,35819,0,0,0
23020,20605,35764,0,0,0
22962,20568,35690,0,0,0
22917,20532,35616,0,0,0
22886,20510,35564,0,0,0
22846,20486,35522,0,0,0
22793,20448,35463,0,0,0
22743,20404,35396,0,0,0
22701,20370,35340,0,0,0
22656,20341,35286,0,0,0
22610,20307,35224,0,0,0
22569,20275,35160,0,0,0
22525,20253,35106,0,0,0
22472,20227,35047,0,0,0
22422,20191,34976,0,0,0
22390,20160,34914,0,0,0
22361,20140,34867,0,0,0
22320,20112,34814,0,0,0
22276,20074,34749,0,0,0
22248,20047,34695,0,0,0
22223,20032,34655,0,0,0
22188,20011,34609,0,0,0
22157,19981,34552,0,0,0
22137,19958,34507,0,0,0
22106,19936,34474,0,0,0
22060,19903,34431,0,0,0
22018,19864,34377,0,0,0
21991,19833,34336,0,0,0
21958,19809,34307,0,0,0
21911,19777,34268,0,0,0
21867,19745,34219,0,0,0
21839,19727,34176,0,0,0
21813,19718,34139,0,0,0
21783,19702,34093,0,0,0
21763,19681,34042,0,0,0
21745,19664,34002,0,0,0
21711,19645,33962,0,0,0
21667,19614,33908,0,0,0
21634,19581,33853,0,0,0
21612,19561,33818,0,0,0
21582,19544,33790,0,0,0
21543,19515,33745,0,0,0
21511,19485,33694,0,0,0
21494,19474,33664,0,0,0
21484,19475,33652,0,0,0
21480,19477,33642,0,0,0
21499,19490,33653,0,0,0
21542,19528,33707,0,0,0
21598,19580,33789,0,0,0
21672,19637,33882,0,0,0
21778,19712,34008,0,0,0
21911,19812,34181,0,0,0
22048,19919,34378,0,0,0
22194,20024,34582,0,0,0
22364,20142,34808,0,0,0
22551,20279,35059,0,0,0
22735,20415,35314,0,0,0
22919,20541,35560,0,0,0
23110,20668,35809,0,0,0
23291,20796,36059,0,0,0
23446,20912,36290,0,0,0
23590,21012,36499,0,0,0
23731,21108,36703,0,0,0
23855,21199,36902,0,0,0
23952,21272,37071,0,0,0
24040,21331,37208,0,0,0
24131,21392,37341,0,0,0
24208,21452,37473,0,0,0
24258,21490,37578,0,0,0
24298,21512,37654,0,0,0
24336,21536,37721,0,0,0
24361,21559,37778,0,0,0
24364,21565,37807,0,0,0
24356,21554,37809,0,0,0
24346,21544,37806,0,0,0
24321,21533,37795,0,0,0
24285,21509,37761,0,0,0
24255,21480,37717,0,0,0
24230,21459,37684,0,0,0
24189,21435,37649,0,0,0
24132,21395,37586,0,0,0
24084,21352,37511,0,0,0
24047,21323,37451,0,0,0
24002,21297,37394,0,0,0
23947,21258,37318,0,0,0
23898,21214,37237,0,0,0
23859,21183,37174,0,0,0
23817,21156,37118,0,0,0
23771,21121,37052,0,0,0
23729,21084,36986,0,0,0
23689,21057,36936,0,0,0
23642,21031,36891,0,0,0
23596,20992,36834,0,0,0
23562,20955,36779,0,0,0
23530,20929,36738,0,0,0
23485,20900,36689,0,0,0
23436,20860,36619,0,0,0
23402,20825,36553,0,0,0
23372,20803,36502,0,0,0
23329,20777,36444,0,0,0
23285,20741,36374,0,0,0
23252,20710,36313,0,0,0
23216,20688,36267,0,0,0
23167,20659,36214,0,0,0
23125,20625,36152,0,0,0
23101,20601,36104,0,0,0
23078,20591,36072,0,0,0
23044,20576,36036,0,0,0
23016,20553,35993,0,0,0
23005,20539,35964,0,0,0
22995,20535,35951,0,0,0
22982,20528,35937,0,0,0
22982,20524,35921,0,0,0
22996,20531,35920,0,0,0
23003,20540,35926,0,0,0
23001,20537,35918,0,0,0
23008,20533,35907,0,0,0
23027,20545,35917,0,0,0
23040,20566,35944,0,0,0
23046,20579,35963,0,0,0
23060,20588,35981,0,0,0
23086,20607,36014,0,0,0
23102,20625,36049,0,0,0
23109,20629,36066,0,0,0
23130,20633,36080,0,0,0
23160,20648,36104,0,0,0
23174,20659,36123,0,0,0
23173,20653,36122,0,0,0
23177,20645,36113,0,0,0
23184,20649,36114,0,0,0
23181,20656,36118,0,0,0
23168,20649,36105,0,0,0
23158,20638,36087,0,0,0
23144,20637,36078,0,0,0
23113,20630,36061,0,0,0
23078,20609,36021,0,0,0
23055,20591,35982,0,0,0
23034,20583,35953,0,0,0
22999,20571,35916,0,0,0
22962,20548,35866,0,0,0
22937,20525,35822,0,0,0
22908,20505,35787,0,0,0
22864,20474,35743,0,0,0
22826,20434,35686,0,0,0
22801,20401,35632,0,0,0
22767,20377,35584,0,0,0
22716,20345,35525,0,0,0
22665,20303,35452,0,0,0
22624,20269,35388,0,0,0
22578,20244,35335,0,0,0
22520,20209,35273,0,0,0
22465,20167,35203,0,0,0
22420,20133,35144,0,0,0
22372,20106,35093,0,0,0
22320,20069,35030,0,0,0
22277,20028,34961,0,0,0
22240,19998,34907,0,0,0
22194,19975,34862,0,0,0
22143,19943,34799,0,0,0
22104,19907,34724,0,0,0
22077,19886,34661,0,0,0
22041,19866,34605,0,0,0
21994,19831,34539,0,0,0
21954,19791,34474,0,0,0
21923,19761,34427,0,0,0
21886,19735,34386,0,0,0
21844,19701,34332,0,0,0
21815,19671,34278,0,0,0
21794,19656,34243,0,0,0
21761,19639,34207,0,0,0
21721,19609,34154,0,0,0
21690,19580,34099,0,0,0
21661,19562,34058,0,0,0
21620,19547,34017,0,0,0
21578,19523,33965,0,0,0
21545,19499,33916,0,0,0
21507,19482,33877,0,0,0
21461,19461,33832,0,0,0
21428,19436,33780,0,0,0
21412,19418,33737,0,0,0
21392,19409,33709,0,0,0
21356,19392,33671,0,0,0
21322,19365,33618,0,0,0
21304,19344,33577,0,0,0
21287,19331,33551,0,0,0
21258,19310,33520,0,0,0
21232,19283,33480,0,0,0
21212,19263,33449,0,0,0
21185,19247,33424,0,0,0
21149,19223,33387,0,0,0
21121,19196,33341,0,0,0
21104,19181,33307,0,0,0
21082,19173,33281,0,0,0
21052,19155,33245,0,0,0
21026,19130,33199,0,0,0
21007,19115,33165,0,0,0
20985,19108,33140,0,0,0
20960,19095,33107,0,0,0
20950,19083,33076,0,0,0
20954,19088,33072,0,0,0
20962,19103,33088,0,0,0
20972,19116,33108,0,0,0
21005,19136,33142,0,0,0
21070,19185,33217,0,0,0
21155,19254,33327,0,0,0
21256,19330,33457,0,0,0
21386,19422,33614,0,0,0
21544,19537,33813,0,0,0
21709,19660,34034,0,0,0
21880,19777,34258,0,0,0
22071,19902,34497,0,0,0
22272,20042,34760,0,0,0
22461,20181,35023,0,0,0
22643,20310,35269,0,0,0
22827,20436,35509,0,0,0
23000,20562,35750,0,0,0
23153,20675,35972,0,0,0
23296,20770,36166,0,0,0
23440,20861,36354,0,0,0
23569,20951,36541,0,0,0
23666,21023,36704,0,0,0
23748,21073,36835,0,0,0
23833,21123,36954,0,0,0
23905,21173,37067,0,0,0
23949,21208,37154,0,0,0
23984,21229,37216,0,0,0
24021,21250,37270,0,0,0
24040,21270,37316,0,0,0
24035,21271,37333,0,0,0
24023,21256,37322,0,0,0
24014,21247,37310,0,0,0
23995,21241,37300,0,0,0
23959,21222,37270,0,0,0
23920,21191,37219,0,0,0
23881,21163,37170,0,0,0
23835,21136,37121,0,0,0
23784,21095,37053,0,0,0
23745,21048,36977,0,0,0
23715,21013,36919,0,0,0
23671,20980,36870,0,0,0
23613,20934,36801,0,0,0
23559,20883,36723,0,0,0
23514,20847,36656,0,0,0
23463,20816,36594,0,0,0
23409,20778,36518,0,0,0
23368,20743,36440,0,0,0
23333,20723,36378,0,0,0
23285,20701,36317,0,0,0
23230,20664,36241,0,0,0
23190,20628,36168,0,0,0
23159,20606,36115,0,0,0
23120,20585,36068,0,0,0
23078,20555,36010,0,0,0
23045,20525,35953,0,0,0
23011,20503,35908,0,0,0
22967,20479,35861,0,0,0
22923,20445,35802,0,0,0
22893,20419,35751,0,0,0
22868,20405,35718,0,0,0
22833,20387,35677,0,0,0
22800,20359,35620,0,0,0
22785,20342,35574,0,0,0
22772,20338,35545,0,0,0
22750,20327,35514,0,0,0
22738,20307,35479,0,0,0
22747,20299,35462,0,0,0
22756,20304,35466,0,0,0
22757,20308,35468,0,0,0
22769,20310,35467,0,0,0
22797,20321,35481,0,0,0
22821,20343,35508,0,0,0
22830,20357,35524,0,0,0
22839,20363,35531,0,0,0
22858,20376,35549,0,0,0
22871,20391,35574,0,0,0
22877,20397,35587,0,0,0
22894,20401,35597,0,0,0
22922,20420,35627,0,0,0
22941,20441,35664,0,0,0
22948,20449,35677,0,0,0
22965,20452,35681,0,0,0
22995,20467,35702,0,0,0
23017,20485,35730,0,0,0
23026,20489,35741,0,0,0
23036,20484,35743,0,0,0
23044,20484,35753,0,0,0
23037,20483,35761,0,0,0
23023,20470,35750,0,0,0
23017,20458,35733,0,0,0
23012,20458,35727,0,0,0
22987,20452,35712,0,0,0
22953,20433,35675,0,0,0
22930,20416,35636,0,0,0
22911,20408,35607,0,0,0
22877,20396,35571,0,0,0
22839,20372,35521,0,0,0
22813,20351,35474,0,0,0
22785,20337,35433,0,0,0
22744,20312,35380,0,0,0
22703,20275,35311,0,0,0
22673,20242,35249,0,0,0
22639,20218,35205,0,0,0
22585,20184,35154,0,0,0
22531,20139,35089,0,0,0
22496,20102,35029,0,0,0
22461,20076,34982,0,0,0
22416,20047,34931,0,0,0
22377,20013,34873,0,0,0
22352,19990,34827,0,0,0
22320,19975,34789,0,0,0
22274,19949,34738,0,0,0
22231,19913,34672,0,0,0
22196,19884,34613,0,0,0
22151,19861,34562,0,0,0
22097,19833,34501,0,0,0
22051,19800,34432,0,0,0
22015,19773,34375,0,0,0
21971,19746,34322,0,0,0
21923,19707,34257,0,0,0
21890,19672,34192,0,0,0
21869,19656,34147,0,0,0
21835,19641,34108,0,0,0
21788,19612,34054,0,0,0
21752,19580,33996,0,0,0
21730,19558,33954,0,0,0
21704,19538,33916,0,0,0
21669,19508,33867,0,0,0
21644,19482,33817,0,0,0
21624,19469,33784,0,0,0
21594,19457,33751,0,0,0
21559,19431,33702,0,0,0
21535,19406,33655,0,0,0
21514,19393,33621,0,0,0
21484,19380,33585,0,0,0
21453,19359,33536,0,0,0
21436,19344,33492,0,0,0
21418,19338,33460,0,0,0
21389,19327,33427,0,0,0
21369,19307,33384,0,0,0
21368,19294,33352,0,0,0
21365,19293,33336,0,0,0
21342,19284,33310,0,0,0
21316,19264,33268,0,0,0
21303,19248,33235,0,0,0
21289,19240,33210,0,0,0
21261,19225,33172,0,0,0
21236,19204,33124,0,0,0
21222,19191,33088,0,0,0
21202,19184,33064,0,0,0
21173,19172,33032,0,0,0
21151,19154,32992,0,0,0
21142,19145,32965,0,0,0
21132,19144,32949,0,0,0
21124,19143,32932,0,0,0
21136,19150,32923,0,0,0
21171,19174,32945,0,0,0
21211,19211,32996,0,0,0
21257,19246,33061,0,0,0
21334,19295,33153,0,0,0
21448,19376,33297,0,0,0
21581,19480,33480,0,0,0
21729,19588,33680,0,0,0
21905,19703,33896,0,0,0
22105,19838,34143,0,0,0
22302,19981,34408,0,0,0
22491,20115,34667,0,0,0
22693,20249,34932,0,0,0
22901,20393,35216,0,0,0
23094,20534,35497,0,0,0
23275,20660,35754,0,0,0
23456,20779,36000,0,0,0
23626,20900,36245,0,0,0
23774,21012,36475,0,0,0
23912,21108,36678,0,0,0
24047,21200,36870,0,0,0
24166,21292,37054,0,0,0
24256,21365,37209,0,0,0
24328,21413,37328,0,0,0
24399,21456,37431,0,0,0
24454,21498,37527,0,0,0
24480,21522,37596,0,0,0
24498,21531,37638,0,0,0
24524,21543,37675,0,0,0
24539,21557,37713,0,0,0
24529,21555,37727,0,0,0
24515,21539,37713,0,0,0
24510,21528,37698,0,0,0
24498,21523,37686,0,0,0
24470,21506,37657,0,0,0
24440,21481,37611,0,0,0
24414,21459,37570,0,0,0
24376,21439,37533,0,0,0
24325,21406,37479,0,0,0
24283,21364,37414,0,0,0
24248,21331,37361,0,0,0
24202,21301,37310,0,0,0
24144,21259,37240,0,0,0
24095,21212,37163,0,0,0
24059,21181,37103,0,0,0
24019,21156,37053,0,0,0
23970,21121,36988,0,0,0
23929,21083,36919,0,0,0
23896,21057,36872,0,0,0
23852,21034,36832,0,0,0
23803,20999,36779,0,0,0
23770,20968,36727,0,0,0
23748,20952,36692,0,0,0
23718,20939,36656,0,0,0
23681,20913,36599,0,0,0
23653,20884,36540,0,0,0
23629,20866,36492,0,0,0
23596,20848,36445,0,0,0
23565,20822,36390,0,0,0
23545,20798,36341,0,0,0
23524,20784,36308,0,0,0
23491,20764,36269,0,0,0
23462,20735,36217,0,0,0
23449,20718,36179,0,0,0
23439,20717,36163,0,0,0
23419,20714,36145,0,0,0
23402,20705,36119,0,0,0
23405,20706,36106,0,0,0
23410,20714,36113,0,0,0
23404,20715,36119,0,0,0
23403,20711,36118,0,0,0
23417,20716,36130,0,0,0
23436,20734,36157,0,0,0
23447,20747,36179,0,0,0
23465,20756,36194,0,0,0
23497,20773,36219,0,0,0
23526,20798,36254,0,0,0
23544,20816,36283,0,0,0
23566,20828,36306,0,0,0
23590,20844,36334,0,0,0
23595,20855,36360,0,0,0
23587,20850,36361,0,0,0
23588,20838,36351,0,0,0
23599,20841,36355,0,0,0
23599,20855,36369,0,0,0
23587,20858,36368,0,0,0
23586,20854,36357,0,0,0
23593,20858,36356,0,0,0
23591,20863,36357,0,0,0
23579,20854,36341,0,0,0
23575,20841,36319,0,0,0
23572,20837,36307,0,0,0
23550,20827,36290,0,0,0
23515,20802,36249,0,0,0
23489,20778,36204,0,0,0
23468,20766,36171,0,0,0
23435,20752,36138,0,0,0
23397,20724,36092,0,0,0
23366,20693,36043,0,0,0
23334,20669,36004,0,0,0
23292,20640,35959,0,0,0
23250,20605,35899,0,0,0
23219,20578,35845,0,0,0
23189,20562,35806,0,0,0
23142,20538,35757,0,0,0
23092,20500,35690,0,0,0
23056,20465,35628,0,0,0
23019,20440,35577,0,0,0
22973,20411,35520,0,0,0
22934,20378,35458,0,0,0
22909,20353,35403,0,0,0
22874,20336,35354,0,0,0
22826,20311,35295,0,0,0
22785,20281,35228,0,0,0
22756,20257,35171,0,0,0
22720,20236,35123,0,0,0
22674,20207,35067,0,0,0
22637,20176,35005,0,0,0
22610,20154,34953,0,0,0
22573,20132,34902,0,0,0
