green_channel,red_channel,ir_channel,Anomaly_ch0,Anomaly_ch1,Anomaly_ch2
50217,6839,36763,0,0,0
50254,6871,36817,0,0,0
50281,6894,36864,0,0,0
50301,6913,36909,0,0,0
50316,6929,36942,0,0,0
50326,6941,36966,0,0,0
50333,6953,36992,0,0,0
50340,6964,37018,0,0,0
50349,6972,37035,0,0,0
50359,6977,37044,0,0,0
50366,6981,37054,0,0,0
50369,6981,37064,0,0,0
50375,6981,37068,0,0,0
50384,6985,37071,0,0,0
50390,6991,37082,0,0,0
50394,6997,37094,0,0,0
50402,7004,37100,0,0,0
50412,7011,37103,0,0,0
50418,7015,37107,0,0,0
50419,7017,37109,0,0,0
50422,7015,37100,0,0,0
50422,7010,37085,0,0,0
50418,7002,37074,0,0,0
50414,6995,37064,0,0,0
50410,6987,37047,0,0,0
50402,6976,37028,0,0,0
50392,6965,37010,0,0,0
50379,6951,36987,0,0,0
50362,6933,36957,0,0,0
50338,6909,36924,0,0,0
50308,6882,36895,0,0,0
50280,6853,36866,0,0,0
50256,6825,36836,0,0,0
50238,6806,36813,0,0,0
50228,6794,36800,0,0,0
50224,6786,36788,0,0,0
50220,6776,36774,0,0,0
50212,6765,36765,0,0,0
50200,6754,36758,0,0,0
50190,6746,36745,0,0,0
50183,6742,36731,0,0,0
50182,6741,36726,0,0,0
50188,6744,36730,0,0,0
50200,6752,36730,0,0,0
50215,6765,36727,0,0,0
50228,6778,36729,0,0,0
50243,6792,36732,0,0,0
50261,6806,36728,0,0,0
50279,6819,36725,0,0,0
50293,6829,36729,0,0,0
50301,6833,36734,0,0,0
50307,6830,36729,0,0,0
50308,6824,36718,0,0,0
50301,6814,36708,0,0,0
50287,6798,36695,0,0,0
50272,6781,36675,0,0,0
50255,6764,36654,0,0,0
50236,6747,36635,0,0,0
50216,6730,36613,0,0,0
50198,6711,36582,0,0,0
50177,6693,36550,0,0,0
50149,6675,36524,0,0,0
50119,6654,36497,0,0,0
50088,6629,36459,0,0,0
50056,6600,36417,0,0,0
50023,6570,36382,0,0,0
49995,6542,36344,0,0,0
49970,6515,36296,0,0,0
49941,6488,36249,0,0,0
49908,6459,36210,0,0,0
49874,6430,36169,0,0,0
49844,6402,36129,0,0,0
49816,6374,36091,0,0,0
49786,6346,36053,0,0,0
49754,6316,36008,0,0,0
49721,6286,35957,0,0,0
49685,6257,35907,0,0,0
49647,6227,35858,0,0,0
49613,6197,35808,0,0,0
49584,6167,35754,0,0,0
49559,6141,35707,0,0,0
49537,6119,35667,0,0,0
49515,6096,35627,0,0,0
49489,6070,35584,0,0,0
49458,6042,35544,0,0,0
49425,6015,35510,0,0,0
49395,5990,35476,0,0,0
49366,5966,35441,0,0,0
49336,5944,35409,0,0,0
49304,5923,35383,0,0,0
49273,5903,35349,0,0,0
49243,5881,35307,0,0,0
49214,5858,35265,0,0,0
49183,5833,35224,0,0,0
49153,5808,35177,0,0,0
49124,5785,35130,0,0,0
49097,5766,35092,0,0,0
49074,5751,35058,0,0,0
49059,5739,35023,0,0,0
49051,5730,34989,0,0,0
49050,5725,34965,0,0,0
49052,5720,34949,0,0,0
49055,5713,34928,0,0,0
49059,5703,34904,0,0,0
49063,5696,34884,0,0,0
49068,5692,34861,0,0,0
49070,5685,34833,0,0,0
49065,5675,34804,0,0,0
49055,5662,34775,0,0,0
49046,5648,34741,0,0,0
49035,5632,34703,0,0,0
49019,5614,34670,0,0,0
48999,5598,34651,0,0,0
48986,5586,34643,0,0,0
48983,5582,34647,0,0,0
48992,5591,34668,0,0,0
49012,5615,34705,0,0,0
49041,5652,34752,0,0,0
49083,5701,34809,0,0,0
49136,5762,34882,0,0,0
49203,5838,34978,0,0,0
49278,5922,35091,0,0,0
49358,6011,35217,0,0,0
49444,6105,35362,0,0,0
49538,6203,35522,0,0,0
49642,6303,35688,0,0,0
49748,6404,35856,0,0,0
49856,6504,36029,0,0,0
49967,6602,36204,0,0,0
50077,6696,36365,0,0,0
50180,6782,36513,0,0,0
50275,6861,36658,0,0,0
50361,6933,36794,0,0,0
50436,6996,36910,0,0,0
50503,7051,37010,0,0,0
50566,7103,37106,0,0,0
50622,7152,37197,0,0,0
50671,7197,37271,0,0,0
50710,7236,37328,0,0,0
50740,7271,37376,0,0,0
50762,7300,37418,0,0,0
50773,7320,37452,0,0,0
50776,7331,37477,0,0,0
50778,7340,37502,0,0,0
50782,7346,37525,0,0,0
50787,7348,37538,0,0,0
50790,7348,37543,0,0,0
50790,7347,37545,0,0,0
50791,7348,37548,0,0,0
50795,7349,37550,0,0,0
50803,7353,37557,0,0,0
50814,7361,37570,0,0,0
50830,7369,37577,0,0,0
50851,7376,37578,0,0,0
50873,7381,37576,0,0,0
50891,7387,37572,0,0,0
50908,7389,37560,0,0,0
50920,7389,37545,0,0,0
50928,7389,37535,0,0,0
50931,7389,37532,0,0,0
50935,7387,37527,0,0,0
50942,7385,37517,0,0,0
50948,7383,37505,0,0,0
50950,7377,37487,0,0,0
50948,7369,37462,0,0,0
50939,7361,37437,0,0,0
50923,7351,37421,0,0,0
50904,7339,37406,0,0,0
50891,7328,37384,0,0,0
50881,7318,37355,0,0,0
50870,7308,37330,0,0,0
50861,7297,37310,0,0,0
50853,7283,37285,0,0,0
50850,7273,37262,0,0,0
50847,7268,37252,0,0,0
50842,7264,37242,0,0,0
50840,7261,37225,0,0,0
50842,7260,37208,0,0,0
50843,7261,37199,0,0,0
50847,7263,37194,0,0,0
50855,7265,37190,0,0,0
50863,7267,37189,0,0,0
50871,7270,37195,0,0,0
50878,7275,37205,0,0,0
50888,7281,37212,0,0,0
50899,7287,37216,0,0,0
50909,7291,37217,0,0,0
50915,7292,37214,0,0,0
50910,7288,37204,0,0,0
50898,7279,37192,0,0,0
50883,7268,37182,0,0,0
50871,7257,37169,0,0,0
50863,7248,37153,0,0,0
50852,7241,37139,0,0,0
50838,7234,37126,0,0,0
50821,7222,37108,0,0,0
50799,7205,37083,0,0,0
50774,7183,37060,0,0,0
50745,7157,37041,0,0,0
50716,7129,37018,0,0,0
50686,7103,36989,0,0,0
50656,7080,36959,0,0,0
50627,7060,36928,0,0,0
50599,7037,36888,0,0,0
50569,7011,36844,0,0,0
50539,6982,36807,0,0,0
50509,6953,36771,0,0,0
50481,6926,36730,0,0,0
50456,6899,36686,0,0,0
50431,6875,36644,0,0,0
50407,6855,36600,0,0,0
50381,6833,36546,0,0,0
50351,6804,36485,0,0,0
50315,6768,36430,0,0,0
50280,6734,36382,0,0,0
50250,6705,36336,0,0,0
50224,6678,36294,0,0,0
50202,6655,36262,0,0,0
50182,6633,36235,0,0,0
50159,6608,36200,0,0,0
50134,6579,36158,0,0,0
50112,6554,36118,0,0,0
50093,6531,36080,0,0,0
50077,6507,36038,0,0,0
50058,6482,35997,0,0,0
50039,6461,35962,0,0,0
50026,6443,35929,0,0,0
50018,6427,35891,0,0,0
50006,6413,35853,0,0,0
49989,6403,35822,0,0,0
49969,6392,35795,0,0,0
49950,6380,35766,0,0,0
49930,6365,35733,0,0,0
49909,6348,35702,0,0,0
49889,6329,35671,0,0,0
49871,6310,35640,0,0,0
49849,6290,35613,0,0,0
49825,6269,35590,0,0,0
49801,6249,35558,0,0,0
49779,6229,35520,0,0,0
49755,6207,35486,0,0,0
49728,6185,35454,0,0,0
49704,6164,35419,0,0,0
49687,6145,35382,0,0,0
49673,6126,35350,0,0,0
49660,6110,35324,0,0,0
49645,6095,35292,0,0,0
49626,6077,35251,0,0,0
49604,6055,35211,0,0,0
49579,6030,35167,0,0,0
49552,6005,35112,0,0,0
49527,5981,35054,0,0,0
49506,5960,35010,0,0,0
49490,5945,34984,0,0,0
49482,5936,34965,0,0,0
49480,5936,34956,0,0,0
49485,5946,34966,0,0,0
49501,5968,34997,0,0,0
49530,6000,35040,0,0,0
49568,6042,35099,0,0,0
49614,6094,35182,0,0,0
49669,6157,35289,0,0,0
49738,6231,35412,0,0,0
49819,6316,35552,0,0,0
49909,6410,35711,0,0,0
50009,6512,35880,0,0,0
50121,6622,36049,0,0,0
50242,6736,36218,0,0,0
50367,6852,36397,0,0,0
50497,6969,36583,0,0,0
50622,7083,36763,0,0,0
50739,7189,36937,0,0,0
50847,7290,37108,0,0,0
50948,7385,37268,0,0,0
51041,7476,37410,0,0,0
51129,7562,37539,0,0,0
51212,7641,37660,0,0,0
51290,7712,37772,0,0,0
51362,7773,37873,0,0,0
51428,7828,37971,0,0,0
51487,7876,38065,0,0,0
51537,7912,38151,0,0,0
51579,7937,38223,0,0,0
51612,7956,38286,0,0,0
51639,7972,38341,0,0,0
51662,7987,38385,0,0,0
51677,8001,38423,0,0,0
51684,8012,38463,0,0,0
51687,8022,38501,0,0,0
51690,8029,38529,0,0,0
51695,8034,38549,0,0,0
51700,8041,38567,0,0,0
51708,8051,38586,0,0,0
51720,8062,38600,0,0,0
51736,8073,38613,0,0,0
51750,8086,38633,0,0,0
51768,8102,38660,0,0,0
51789,8116,38681,0,0,0
51813,8129,38694,0,0,0
51837,8141,38707,0,0,0
51856,8150,38714,0,0,0
51870,8150,38706,0,0,0
51878,8143,38690,0,0,0
51882,8135,38677,0,0,0
51884,8123,38662,0,0,0
51879,8108,38637,0,0,0
51866,8090,38608,0,0,0
51843,8072,38579,0,0,0
51815,8053,38548,0,0,0
51786,8033,38513,0,0,0
51761,8014,38482,0,0,0
51743,7998,38460,0,0,0
51728,7982,38438,0,0,0
51713,7964,38407,0,0,0
51695,7947,38369,0,0,0
51676,7933,38330,0,0,0
51657,7920,38293,0,0,0
51642,7905,38261,0,0,0
51631,7892,38245,0,0,0
51623,7883,38243,0,0,0
51618,7879,38244,0,0,0
51616,7878,38249,0,0,0
51615,7880,38261,0,0,0
51617,7883,38273,0,0,0
51620,7886,38275,0,0,0
51622,7887,38269,0,0,0
51621,7887,38265,0,0,0
51616,7891,38268,0,0,0
51608,7896,38271,0,0,0
51601,7900,38270,0,0,0
51598,7902,38270,0,0,0
51599,7901,38270,0,0,0
51604,7899,38263,0,0,0
51611,7894,38252,0,0,0
51614,7887,38245,0,0,0
51613,7878,38240,0,0,0
51609,7867,38224,0,0,0
51601,7852,38195,0,0,0
51586,7833,38165,0,0,0
51568,7816,38135,0,0,0
51547,7798,38103,0,0,0
51520,7777,38071,0,0,0
51488,7756,38044,0,0,0
51452,7733,38017,0,0,0
51417,7705,37978,0,0,0
51384,7672,37927,0,0,0
51353,7636,37875,0,0,0
51318,7598,37826,0,0,0
51284,7561,37773,0,0,0
51256,7527,37719,0,0,0
51229,7495,37670,0,0,0
51199,7464,37620,0,0,0
51170,7435,37566,0,0,0
51143,7412,37518,0,0,0
51117,7391,37482,0,0,0
51091,7368,37448,0,0,0
51064,7343,37410,0,0,0
51034,7316,37369,0,0,0
51000,7286,37325,0,0,0
50964,7254,37273,0,0,0
50933,7224,37216,0,0,0
50908,7197,37162,0,0,0
50885,7171,37117,0,0,0
50862,7141,37068,0,0,0
50839,7107,37012,0,0,0
50815,7076,36963,0,0,0
50792,7052,36922,0,0,0
50767,7031,36879,0,0,0
50737,7008,36829,0,0,0
50704,6986,36780,0,0,0
50670,6966,36740,0,0,0
50637,6948,36701,0,0,0
50605,6931,36663,0,0,0
50575,6915,36632,0,0,0
50551,6900,36604,0,0,0
50536,6884,36569,0,0,0
50523,6864,36526,0,0,0
50506,6839,36483,0,0,0
50487,6810,36440,0,0,0
50470,6781,36394,0,0,0
50452,6754,36349,0,0,0
50434,6727,36312,0,0,0
50413,6700,36281,0,0,0
50388,6669,36249,0,0,0
50359,6635,36212,0,0,0
50331,6602,36175,0,0,0
50309,6572,36136,0,0,0
50291,6547,36093,0,0,0
50272,6523,36053,0,0,0
50249,6499,36020,0,0,0
50222,6475,35988,0,0,0
50191,6451,35949,0,0,0
50155,6429,35905,0,0,0
50120,6410,35866,0,0,0
50088,6391,35831,0,0,0
50059,6372,35794,0,0,0
50029,6354,35756,0,0,0
50001,6334,35719,0,0,0
49977,6310,35675,0,0,0
49954,6282,35627,0,0,0
49931,6251,35581,0,0,0
49907,6219,35540,0,0,0
49887,6188,35499,0,0,0
49869,6159,35453,0,0,0
49852,6134,35414,0,0,0
49833,6116,35382,0,0,0
49816,6103,35350,0,0,0
49804,6096,35326,0,0,0
49796,6095,35320,0,0,0
49793,6103,35334,0,0,0
49797,6118,35356,0,0,0
49809,6138,35387,0,0,0
49835,6169,35440,0,0,0
49877,6216,35519,0,0,0
49929,6276,35615,0,0,0
49993,6349,35726,0,0,0
50071,6432,35864,0,0,0
50160,6525,36021,0,0,0
50258,6626,36185,0,0,0
50361,6733,36357,0,0,0
50467,6845,36543,0,0,0
50576,6960,36737,0,0,0
50689,7079,36927,0,0,0
50806,7198,37113,0,0,0
50927,7318,37300,0,0,0
51050,7435,37484,0,0,0
51169,7540,37653,0,0,0
51279,7634,37806,0,0,0
51377,7719,37952,0,0,0
51466,7798,38089,0,0,0
51547,7871,38212,0,0,0
51622,7937,38328,0,0,0
51692,8001,38441,0,0,0
51752,8059,38545,0,0,0
51800,8107,38633,0,0,0
51840,8145,38708,0,0,0
51870,8174,38773,0,0,0
51891,8194,38822,0,0,0
51906,8208,38857,0,0,0
51917,8220,38892,0,0,0
51928,8234,38933,0,0,0
51943,8252,38974,0,0,0
51957,8270,39011,0,0,0
51969,8287,39044,0,0,0
51979,8301,39073,0,0,0
51986,8312,39094,0,0,0
51990,8320,39112,0,0,0
51991,8326,39140,0,0,0
51992,8331,39177,0,0,0
51994,8337,39209,0,0,0
51998,8343,39232,0,0,0
52004,8348,39251,0,0,0
52013,8354,39267,0,0,0
52024,8362,39276,0,0,0
52034,8371,39277,0,0,0
52039,8374,39274,0,0,0
52039,8371,39266,0,0,0
52036,8363,39246,0,0,0
52027,8352,39219,0,0,0
52011,8338,39193,0,0,0
51993,8324,39164,0,0,0
51976,8312,39128,0,0,0
51958,8298,39090,0,0,0
51939,8285,39059,0,0,0
51921,8272,39031,0,0,0
51902,8256,38998,0,0,0
51882,8239,38968,0,0,0
51864,8227,38946,0,0,0
51853,8217,38929,0,0,0
51847,8206,38912,0,0,0
51843,8197,38905,0,0,0
51840,8192,38909,0,0,0
51838,8189,38914,0,0,0
51842,8188,38911,0,0,0
51852,8190,38907,0,0,0
51862,8198,38909,0,0,0
51870,8203,38908,0,0,0
51875,8202,38896,0,0,0
51880,8198,38885,0,0,0
51882,8193,38881,0,0,0
51881,8188,38878,0,0,0
51879,8183,38871,0,0,0
51873,8178,38866,0,0,0
51864,8174,38865,0,0,0
51852,8167,38857,0,0,0
51839,8157,38840,0,0,0
51823,8146,38825,0,0,0
51801,8132,38810,0,0,0
51776,8114,38786,0,0,0
51746,8091,38753,0,0,0
51712,8065,38723,0,0,0
51675,8038,38695,0,0,0
51640,8010,38660,0,0,0
51603,7980,38616,0,0,0
51564,7951,38574,0,0,0
51524,7925,38538,0,0,0
51483,7900,38497,0,0,0
51445,7873,38453,0,0,0
51409,7846,38415,0,0,0
51372,7819,38382,0,0,0
51330,7792,38343,0,0,0
51283,7762,38299,0,0,0
51236,7736,38260,0,0,0
51192,7714,38222,0,0,0
51152,7689,38177,0,0,0
51114,7661,38129,0,0,0
51078,7632,38086,0,0,0
51048,7605,38047,0,0,0
51025,7582,38007,0,0,0
51007,7561,37971,0,0,0
50986,7541,37941,0,0,0
50964,7519,37907,0,0,0
50942,7495,37865,0,0,0
50920,7474,37826,0,0,0
50902,7456,37796,0,0,0
50884,7440,37769,0,0,0
50862,7422,37736,0,0,0
50836,7398,37697,0,0,0
50810,7372,37658,0,0,0
50781,7346,37616,0,0,0
50746,7315,37569,0,0,0
50707,7277,37517,0,0,0
50665,7236,37464,0,0,0
50626,7196,37409,0,0,0
50589,7157,37353,0,0,0
50558,7121,37308,0,0,0
50533,7090,37274,0,0,0
50511,7063,37235,0,0,0
50496,7039,37190,0,0,0
50489,7022,37150,0,0,0
50484,7009,37117,0,0,0
50476,6995,37079,0,0,0
50466,6979,37036,0,0,0
50457,6963,36999,0,0,0
50447,6950,36971,0,0,0
50433,6938,36942,0,0,0
50414,6924,36908,0,0,0
50390,6906,36872,0,0,0
50366,6885,36835,0,0,0
50340,6862,36787,0,0,0
50310,6836,36730,0,0,0
50277,6810,36683,0,0,0
50243,6785,36647,0,0,0
50215,6762,36609,0,0,0
50190,6737,36566,0,0,0
50158,6705,36521,0,0,0
50118,6669,36473,0,0,0
50076,6632,36419,0,0,0
50034,6594,36368,0,0,0
49989,6559,36322,0,0,0
49945,6529,36277,0,0,0
49906,6504,36231,0,0,0
49872,6482,36183,0,0,0
49840,6457,36134,0,0,0
49806,6430,36082,0,0,0
49774,6404,36031,0,0,0
49743,6377,35984,0,0,0
49716,6352,35943,0,0,0
49696,6330,35907,0,0,0
49680,6310,35869,0,0,0
49664,6293,35834,0,0,0
49647,6279,35809,0,0,0
49631,6267,35792,0,0,0
49619,6257,35781,0,0,0
49612,6252,35785,0,0,0
49615,6259,35809,0,0,0
49632,6280,35846,0,0,0
49663,6312,35898,0,0,0
49707,6356,35972,0,0,0
49759,6411,36068,0,0,0
49821,6477,36178,0,0,0
49895,6555,36302,0,0,0
49981,6648,36447,0,0,0
50078,6757,36612,0,0,0
50184,6876,36788,0,0,0
50296,6996,36971,0,0,0
50407,7114,37163,0,0,0
50513,7227,37352,0,0,0
50613,7331,37524,0,0,0
50704,7425,37684,0,0,0
50791,7510,37843,0,0,0
50872,7587,37996,0,0,0
50948,7654,38135,0,0,0
51015,7713,38261,0,0,0
51073,7766,38379,0,0,0
51125,7816,38482,0,0,0
51176,7861,38564,0,0,0
51218,7902,38629,0,0,0
51251,7937,38684,0,0,0
51279,7969,38733,0,0,0
51304,8000,38771,0,0,0
51322,8024,38807,0,0,0
51333,8042,38847,0,0,0
51339,8056,38884,0,0,0
51343,8066,38913,0,0,0
51345,8075,38939,0,0,0
51343,8078,38960,0,0,0
51338,8075,38970,0,0,0
51331,8067,38968,0,0,0
51326,8061,38965,0,0,0
51322,8058,38967,0,0,0
51319,8056,38970,0,0,0
51320,8057,38975,0,0,0
51328,8061,38984,0,0,0
51338,8067,38997,0,0,0
51351,8074,39007,0,0,0
51363,8079,39010,0,0,0
51369,8079,39009,0,0,0
51369,8074,39005,0,0,0
51365,8066,38990,0,0,0
51356,8056,38969,0,0,0
51343,8047,38949,0,0,0
51327,8036,38929,0,0,0
51312,8024,38901,0,0,0
51297,8012,38871,0,0,0
51281,7999,38847,0,0,0
51266,7986,38826,0,0,0
51252,7970,38798,0,0,0
51237,7949,38760,0,0,0
51216,7924,38722,0,0,0
51191,7897,38685,0,0,0
51169,7873,38644,0,0,0
51150,7856,38608,0,0,0
51137,7847,38585,0,0,0
51133,7846,38574,0,0,0
51140,7851,38571,0,0,0
51153,7859,38572,0,0,0
51169,7870,38582,0,0,0
51188,7884,38596,0,0,0
51208,7898,38607,0,0,0
51227,7910,38620,0,0,0
51245,7922,38641,0,0,0
51264,7936,38663,0,0,0
51284,7952,38677,0,0,0
51300,7964,38688,0,0,0
51311,7970,38699,0,0,0
51321,7973,38708,0,0,0
51330,7974,38706,0,0,0
51336,7972,38699,0,0,0
51332,7966,38690,0,0,0
51318,7957,38674,0,0,0
51300,7947,38650,0,0,0
51285,7938,38629,0,0,0
51273,7932,38614,0,0,0
51262,7923,38597,0,0,0
51253,7909,38573,0,0,0
51239,7890,38546,0,0,0
51213,7864,38516,0,0,0
51182,7833,38481,0,0,0
51149,7802,38441,0,0,0
51114,7771,38402,0,0,0
51076,7739,38361,0,0,0
51041,7708,38314,0,0,0
51008,7677,38260,0,0,0
50975,7646,38208,0,0,0
50941,7613,38158,0,0,0
50903,7576,38100,0,0,0
50863,7538,38040,0,0,0
50822,7504,37988,0,0,0
50780,7471,37936,0,0,0
50742,7439,37882,0,0,0
50704,7413,37829,0,0,0
50668,7393,37785,0,0,0
50639,7378,37748,0,0,0
50615,7364,37705,0,0,0
50595,7346,37663,0,0,0
50576,7326,37628,0,0,0
50562,7306,37597,0,0,0
50555,7290,37562,0,0,0
50555,7278,37526,0,0,0
50558,7270,37495,0,0,0
50560,7262,37467,0,0,0
50561,7252,37436,0,0,0
50558,7240,37409,0,0,0
50551,7229,37391,0,0,0
50540,7218,37370,0,0,0
50526,7203,37340,0,0,0
50510,7187,37308,0,0,0
50489,7173,37277,0,0,0
50465,7160,37243,0,0,0
50437,7144,37203,0,0,0
50410,7125,37165,0,0,0
50389,7106,37134,0,0,0
50371,7084,37106,0,0,0
50352,7060,37073,0,0,0
50330,7034,37038,0,0,0
50308,7005,37002,0,0,0
50289,6974,36960,0,0,0
50272,6944,36917,0,0,0
50259,6918,36883,0,0,0
50251,6898,36856,0,0,0
50251,6883,36824,0,0,0
50251,6866,36783,0,0,0
50243,6845,36738,0,0,0
50231,6823,36695,0,0,0
50219,6801,36650,0,0,0
50205,6779,36607,0,0,0
50185,6758,36571,0,0,0
50160,6738,36539,0,0,0
50134,6717,36506,0,0,0
50107,6695,36477,0,0,0
50082,6676,36464,0,0,0
50066,6667,36469,0,0,0
50064,6667,36481,0,0,0
50074,6679,36503,0,0,0
50094,6704,36547,0,0,0
50126,6741,36611,0,0,0
50169,6785,36688,0,0,0
50223,6839,36783,0,0,0
50287,6906,36900,0,0,0
50363,6984,37031,0,0,0
50448,7066,37164,0,0,0
50536,7151,37302,0,0,0
50621,7238,37449,0,0,0
50703,7326,37594,0,0,0
50778,7410,37728,0,0,0
50846,7494,37856,0,0,0
50911,7577,37985,0,0,0
50973,7653,38106,0,0,0
51033,7719,38214,0,0,0
51090,7775,38314,0,0,0
51144,7825,38411,0,0,0
51192,7866,38496,0,0,0
51231,7898,38562,0,0,0
51263,7922,38618,0,0,0
51291,7943,38671,0,0,0
51319,7964,38719,0,0,0
51349,7984,38760,0,0,0
51381,8006,38797,0,0,0
51415,8030,38833,0,0,0
51446,8052,38861,0,0,0
51469,8067,38876,0,0,0
51483,8075,38883,0,0,0
51488,8076,38884,0,0,0
51491,8073,38878,0,0,0
51491,8068,38868,0,0,0
51490,8063,38861,0,0,0
51492,8060,38857,0,0,0
51498,8056,38849,0,0,0
51502,8051,38839,0,0,0
51503,8043,38835,0,0,0
51500,8032,38829,0,0,0
51496,8019,38809,0,0,0
51490,8008,38783,0,0,0
51482,7997,38761,0,0,0
51473,7983,38738,0,0,0
51458,7962,38704,0,0,0
51438,7935,38664,0,0,0
51416,7908,38631,0,0,0
51391,7881,38601,0,0,0
51360,7851,38558,0,0,0
51330,7823,38509,0,0,0
51302,7798,38462,0,0,0
51276,7774,38413,0,0,0
51247,7747,38362,0,0,0
51210,7717,38313,0,0,0
51170,7687,38272,0,0,0
51136,7663,38238,0,0,0
51110,7642,38201,0,0,0
51087,7624,38164,0,0,0
51070,7612,38137,0,0,0
51056,7603,38117,0,0,0
51040,7593,38097,0,0,0
51024,7579,38077,0,0,0
51008,7565,38059,0,0,0
50995,7551,38037,0,0,0
50989,7539,38011,0,0,0
50988,7530,37992,0,0,0
50987,7526,37986,0,0,0
50988,7524,37982,0,0,0
50992,7522,37976,0,0,0
51000,7525,37975,0,0,0
51013,7534,37983,0,0,0
51028,7546,37990,0,0,0
51037,7555,37988,0,0,0
51038,7560,37982,0,0,0
51029,7557,37972,0,0,0
51017,7550,37955,0,0,0
51004,7540,37937,0,0,0
50987,7527,37923,0,0,0
50965,7513,37908,0,0,0
50938,7496,37880,0,0,0
50906,7471,37842,0,0,0
50869,7441,37804,0,0,0
50831,7410,37763,0,0,0
50792,7377,37714,0,0,0
50752,7341,37663,0,0,0
50711,7307,37623,0,0,0
50669,7272,37586,0,0,0
50630,7235,37538,0,0,0
50596,7199,37484,0,0,0
50570,7169,37437,0,0,0
50549,7146,37395,0,0,0
50529,7124,37348,0,0,0
50507,7102,37299,0,0,0
50480,7080,37256,0,0,0
50448,7057,37215,0,0,0
50414,7034,37166,0,0,0
50383,7011,37112,0,0,0
50354,6989,37062,0,0,0
50327,6965,37015,0,0,0
50306,6941,36966,0,0,0
50288,6919,36920,0,0,0
50274,6898,36884,0,0,0
50264,6878,36853,0,0,0
50257,6859,36819,0,0,0
50250,6840,36781,0,0,0
50242,6820,36740,0,0,0
50231,6801,36694,0,0,0
50218,6784,36648,0,0,0
50203,6767,36613,0,0,0
50183,6748,36584,0,0,0
50160,6727,36548,0,0,0
50140,6705,36506,0,0,0
50120,6681,36467,0,0,0
50098,6658,36433,0,0,0
50073,6635,36396,0,0,0
50046,6609,36354,0,0,0
50018,6584,36316,0,0,0
49992,6560,36281,0,0,0
49969,6538,36238,0,0,0
49947,6517,36189,0,0,0
49925,6498,36146,0,0,0
49905,6483,36111,0,0,0
49888,6470,36074,0,0,0
49874,6456,36035,0,0,0
49860,6438,36000,0,0,0
49846,6420,35968,0,0,0
49834,6402,35929,0,0,0
49821,6383,35889,0,0,0
49809,6366,35859,0,0,0
49798,6353,35835,0,0,0
49789,6340,35805,0,0,0
49779,6324,35772,0,0,0
49766,6305,35747,0,0,0
49754,6284,35720,0,0,0
49739,6257,35684,0,0,0
49720,6230,35646,0,0,0
49704,6206,35612,0,0,0
49689,6184,35574,0,0,0
49675,6166,35531,0,0,0
49662,6152,35490,0,0,0
49650,6142,35458,0,0,0
49640,6133,35432,0,0,0
49632,6123,35412,0,0,0
49626,6117,35409,0,0,0
49623,6121,35430,0,0,0
49630,6137,35471,0,0,0
49651,6166,35527,0,0,0
49687,6211,35606,0,0,0
49739,6270,35711,0,0,0
49805,6342,35832,0,0,0
49879,6424,35965,0,0,0
49957,6512,36113,0,0,0
50037,6602,36273,0,0,0
50119,6694,36434,0,0,0
50205,6786,36588,0,0,0
50290,6879,36742,0,0,0
50370,6969,36896,0,0,0
50446,7053,37041,0,0,0
50518,7128,37173,0,0,0
50583,7195,37298,0,0,0
50641,7257,37417,0,0,0
50691,7312,37525,0,0,0
50732,7360,37621,0,0,0
50768,7401,37710,0,0,0
50802,7438,37790,0,0,0
50835,7471,37851,0,0,0
50861,7498,37895,0,0,0
50881,7518,37933,0,0,0
50898,7533,37969,0,0,0
50909,7539,37992,0,0,0
50914,7538,38004,0,0,0
50913,7538,38017,0,0,0
50912,7539,38032,0,0,0
50915,7540,38040,0,0,0
50922,7545,38051,0,0,0
50930,7553,38070,0,0,0
50941,7565,38092,0,0,0
50953,7576,38108,0,0,0
50964,7580,38117,0,0,0
50976,7583,38130,0,0,0
50994,7586,38144,0,0,0
51014,7589,38155,0,0,0
51034,7595,38163,0,0,0
51051,7604,38167,0,0,0
51066,7612,38163,0,0,0
51077,7616,38150,0,0,0
51080,7616,38135,0,0,0
51078,7618,38125,0,0,0
51077,7625,38121,0,0,0
51074,7629,38119,0,0,0
51067,7629,38117,0,0,0
51056,7625,38110,0,0,0
51041,7614,38092,0,0,0
51019,7595,38063,0,0,0
50992,7571,38034,0,0,0
50963,7549,38010,0,0,0
50934,7528,37981,0,0,0
50905,7505,37946,0,0,0
50876,7479,37911,0,0,0
50847,7456,37881,0,0,0
50819,7436,37850,0,0,0
50794,7419,37819,0,0,0
50776,7408,37797,0,0,0
50767,7401,37784,0,0,0
50763,7395,37770,0,0,0
50760,7389,37756,0,0,0
50759,7385,37751,0,0,0
50766,7386,37751,0,0,0
50776,7387,37743,0,0,0
50787,7385,37727,0,0,0
50798,7383,37719,0,0,0
50811,7384,37717,0,0,0
50828,7391,37716,0,0,0
50849,7403,37717,0,0,0
50874,7417,37725,0,0,0
50898,7427,37729,0,0,0
50916,7428,37720,0,0,0
50930,7427,37707,0,0,0
50940,7426,37704,0,0,0
50948,7423,37702,0,0,0
50956,7417,37689,0,0,0
50960,7406,37669,0,0,0
50960,7390,37649,0,0,0
50957,7371,37624,0,0,0
50951,7348,37591,0,0,0
50946,7324,37561,0,0,0
50945,7303,37535,0,0,0
50945,7281,37504,0,0,0
50941,7254,37461,0,0,0
50932,7221,37412,0,0,0
50919,7186,37364,0,0,0
50905,7151,37312,0,0,0
50886,7113,37256,0,0,0
50858,7076,37201,0,0,0
50827,7041,37151,0,0,0
50800,7011,37097,0,0,0
50778,6988,37039,0,0,0
50758,6965,36978,0,0,0
50737,6942,36919,0,0,0
50710,6915,36859,0,0,0
50677,6884,36795,0,0,0
50644,6853,36738,0,0,0
50613,6824,36691,0,0,0
50586,6797,36645,0,0,0
50558,6772,36599,0,0,0
50524,6748,36556,0,0,0
50483,6721,36512,0,0,0
50438,6690,36460,0,0,0
50392,6661,36407,0,0,0
50345,6635,36362,0,0,0
50298,6610,36321,0,0,0
50254,6585,36276,0,0,0
50215,6559,36231,0,0,0
50178,6534,36193,0,0,0
50144,6511,36155,0,0,0
50115,6490,36116,0,0,0
50088,6466,36078,0,0,0
50061,6444,36044,0,0,0
50033,6421,36006,0,0,0
50005,6398,35957,0,0,0
49977,6373,35908,0,0,0
49947,6349,35867,0,0,0
49920,6330,35832,0,0,0
49901,6317,35799,0,0,0
49887,6309,35773,0,0,0
49878,6302,35753,0,0,0
49869,6291,35731,0,0,0
49857,6276,35703,0,0,0
49841,6261,35676,0,0,0
49823,6246,35650,0,0,0
49810,6230,35618,0,0,0
49803,6213,35581,0,0,0
49800,6198,35551,0,0,0
49797,6184,35527,0,0,0
49792,6171,35498,0,0,0
49781,6155,35462,0,0,0
49764,6136,35429,0,0,0
49742,6116,35402,0,0,0
49721,6098,35378,0,0,0
49704,6087,35360,0,0,0
49692,6081,35361,0,0,0
49686,6082,35381,0,0,0
49689,6093,35410,0,0,0
49706,6117,35453,0,0,0
49734,6154,35515,0,0,0
49770,6200,35590,0,0,0
49820,6257,35674,0,0,0
49880,6327,35775,0,0,0
49950,6410,35904,0,0,0
50033,6504,36053,0,0,0
50125,6601,36206,0,0,0
50218,6698,36357,0,0,0
50309,6792,36512,0,0,0
50401,6885,36666,0,0,0
50494,6976,36813,0,0,0
50587,7061,36953,0,0,0
50680,7143,37091,0,0,0
50772,7220,37226,0,0,0
50860,7291,37346,0,0,0
50935,7355,37450,0,0,0
50996,7413,37546,0,0,0
51047,7462,37632,0,0,0
51089,7501,37705,0,0,0
51121,7531,37769,0,0,0
51146,7555,37828,0,0,0
51161,7574,37877,0,0,0
51173,7588,37913,0,0,0
51183,7598,37941,0,0,0
51194,7608,37968,0,0,0
51207,7617,37995,0,0,0
51219,7624,38016,0,0,0
51232,7632,38038,0,0,0
51248,7644,38064,0,0,0
51265,7655,38090,0,0,0
51278,7665,38111,0,0,0
51284,7668,38129,0,0,0
51286,7667,38146,0,0,0
51287,7667,38157,0,0,0
51286,7665,38162,0,0,0
51282,7664,38171,0,0,0
51277,7670,38186,0,0,0
51273,7681,38196,0,0,0
51269,7690,38198,0,0,0
51261,7696,38202,0,0,0
51247,7697,38203,0,0,0
51225,7691,38194,0,0,0
51198,7678,38173,0,0,0
51164,7659,38148,0,0,0
51126,7637,38122,0,0,0
51085,7614,38088,0,0,0
51041,7589,38048,0,0,0
50995,7562,38011,0,0,0
50952,7534,37971,0,0,0
50913,7505,37924,0,0,0
50879,7479,37881,0,0,0
50851,7460,37854,0,0,0
50829,7446,37833,0,0,0
50812,7432,37811,0,0,0
50800,7420,37791,0,0,0
50796,7415,37782,0,0,0
50805,7417,37783,0,0,0
50822,7423,37788,0,0,0
50839,7432,37793,0,0,0
50857,7442,37799,0,0,0
50881,7453,37802,0,0,0
50909,7463,37802,0,0,0
50938,7471,37806,0,0,0
50964,7477,37818,0,0,0
50984,7479,37824,0,0,0
51002,7481,37816,0,0,0
51016,7479,37798,0,0,0
51024,7473,37776,0,0,0
51024,7462,37752,0,0,0
51016,7447,37726,0,0,0
51004,7432,37707,0,0,0
50994,7418,37694,0,0,0
50986,7407,37677,0,0,0
50980,7399,37653,0,0,0
50970,7390,37629,0,0,0
50956,7380,37600,0,0,0
50939,7370,37565,0,0,0
50921,7360,37531,0,0,0
50901,7348,37505,0,0,0
50880,7335,37485,0,0,0
50860,7321,37461,0,0,0
50842,7305,37433,0,0,0
50825,7288,37406,0,0,0
50810,7270,37380,0,0,0
50799,7250,37345,0,0,0
50788,7229,37305,0,0,0
50776,7207,37273,0,0,0
50761,7186,37244,0,0,0
50745,7166,37208,0,0,0
50729,7143,37169,0,0,0
50711,7119,37136,0,0,0
50693,7093,37102,0,0,0
50672,7062,37056,0,0,0
50647,7026,37001,0,0,0
50617,6989,36951,0,0,0
50584,6957,36906,0,0,0
50550,6929,36857,0,0,0
50517,6903,36808,0,0,0
50484,6877,36764,0,0,0
50453,6854,36722,0,0,0
50424,6830,36675,0,0,0
50391,6802,36626,0,0,0
50351,6770,36580,0,0,0
50308,6737,36536,0,0,0
50267,6705,36489,0,0,0
50229,6676,36447,0,0,0
50191,6649,36414,0,0,0
50150,6622,36382,0,0,0
50104,6592,36344,0,0,0
50054,6561,36303,0,0,0
49998,6528,36261,0,0,0
49940,6494,36209,0,0,0
49885,6458,36155,0,0,0
49833,6422,36107,0,0,0
49787,6391,36067,0,0,0
49748,6365,36027,0,0,0
49710,6339,35985,0,0,0
49668,6307,35943,0,0,0
49625,6272,35903,0,0,0
49589,6241,35862,0,0,0
49558,6215,35819,0,0,0
49527,6193,35781,0,0,0
49497,6174,35747,0,0,0
49471,6158,35715,0,0,0
49449,6144,35684,0,0,0
49428,6130,35659,0,0,0
49408,6118,35640,0,0,0
49393,6111,35624,0,0,0
49383,6111,35617,0,0,0
49383,6118,35631,0,0,0
49397,6135,35665,0,0,0
49423,6164,35711,0,0,0
49461,6203,35769,0,0,0
49512,6255,35848,0,0,0
49577,6321,35946,0,0,0
49650,6394,36052,0,0,0
49725,6474,36168,0,0,0
49806,6563,36306,0,0,0
49896,6657,36458,0,0,0
49991,6754,36612,0,0,0
50090,6850,36771,0,0,0
50192,6950,36938,0,0,0
50293,7048,37101,0,0,0
50386,7138,37249,0,0,0
50466,7217,37387,0,0,0
50536,7288,37520,0,0,0
50599,7353,37644,0,0,0
50656,7413,37756,0,0,0
50712,7471,37862,0,0,0
50769,7525,37961,0,0,0
50819,7570,38041,0,0,0
50858,7603,38097,0,0,0
50888,7630,38141,0,0,0
50910,7653,38178,0,0,0
50928,7672,38207,0,0,0
50945,7688,38229,0,0,0
50961,7704,38253,0,0,0
50979,7719,38273,0,0,0
50995,7725,38281,0,0,0
51007,7723,38281,0,0,0
51009,7716,38288,0,0,0
51007,7711,38303,0,0,0
51006,7711,38318,0,0,0
51003,7713,38329,0,0,0
50998,7715,38342,0,0,0
50993,7715,38355,0,0,0
50989,7715,38359,0,0,0
50980,7712,38357,0,0,0
50971,7712,38359,0,0,0
50963,7712,38361,0,0,0
50955,7709,38355,0,0,0
50945,7699,38343,0,0,0
50932,7686,38332,0,0,0
50919,7672,38314,0,0,0
50909,7659,38281,0,0,0
50905,7649,38248,0,0,0
50904,7640,38223,0,0,0
50901,7627,38191,0,0,0
50897,7613,38147,0,0,0
50892,7599,38103,0,0,0
50886,7587,38064,0,0,0
50881,7577,38031,0,0,0
50876,7567,37997,0,0,0
50870,7553,37965,0,0,0
50863,7539,37940,0,0,0
50858,7527,37921,0,0,0
50850,7513,37899,0,0,0
50837,7495,37877,0,0,0
50823,7477,37859,0,0,0
50812,7464,37844,0,0,0
50802,7456,37829,0,0,0
50796,7450,37822,0,0,0
50791,7447,37823,0,0,0
50790,7446,37821,0,0,0
50794,7448,37814,0,0,0
50802,7451,37810,0,0,0
50810,7453,37809,0,0,0
50816,7454,37802,0,0,0
50818,7451,37790,0,0,0
50814,7446,37782,0,0,0
50807,7439,37775,0,0,0
50797,7430,37763,0,0,0
50783,7418,37744,0,0,0
50764,7406,37726,0,0,0
50741,7394,37708,0,0,0
50715,7382,37682,0,0,0
50691,7367,37653,0,0,0
50664,7351,37630,0,0,0
50635,7333,37609,0,0,0
50604,7317,37581,0,0,0
50571,7303,37549,0,0,0
50533,7285,37523,0,0,0
50495,7262,37498,0,0,0
50462,7238,37469,0,0,0
50432,7214,37441,0,0,0
50403,7195,37416,0,0,0
50373,7173,37384,0,0,0
50344,7142,37336,0,0,0
50315,7106,37285,0,0,0
50281,7067,37237,0,0,0
50241,7026,37184,0,0,0
50201,6991,37127,0,0,0
50164,6963,37076,0,0,0
50129,6943,37035,0,0,0
50095,6924,36995,0,0,0
50066,6902,36949,0,0,0
50036,6875,36905,0,0,0
50005,6847,36867,0,0,0
49973,6819,36825,0,0,0
49942,6789,36777,0,0,0
49910,6759,36733,0,0,0
49879,6731,36699,0,0,0
49853,6706,36666,0,0,0
49831,6685,36634,0,0,0
49808,6667,36602,0,0,0
49783,6650,36569,0,0,0
49752,6627,36529,0,0,0
49715,6597,36484,0,0,0
49673,6564,36443,0,0,0
49633,6532,36404,0,0,0
49600,6506,36365,0,0,0
49572,6485,36325,0,0,0
49547,6469,36292,0,0,0
49525,6455,36263,0,0,0
49506,6441,36228,0,0,0
49493,6426,36193,0,0,0
49483,6417,36166,0,0,0
49474,6412,36139,0,0,0
49462,6406,36101,0,0,0
49447,6394,36053,0,0,0
49430,6378,36012,0,0,0
49416,6364,35981,0,0,0
49401,6348,35950,0,0,0
49383,6329,35915,0,0,0
49362,6307,35885,0,0,0
49340,6287,35857,0,0,0
49322,6271,35828,0,0,0
49308,6258,35802,0,0,0
49295,6247,35788,0,0,0
49290,6244,35789,0,0,0
49297,6250,35798,0,0,0
49315,6267,35819,0,0,0
49343,6298,35861,0,0,0
49381,6338,35920,0,0,0
49429,6381,35986,0,0,0
49484,6431,36063,0,0,0
49547,6494,36163,0,0,0
49620,6569,36282,0,0,0
49703,6649,36408,0,0,0
49791,6732,36543,0,0,0
49883,6822,36692,0,0,0
49978,6915,36845,0,0,0
50075,7010,36998,0,0,0
50176,7107,37153,0,0,0
50275,7199,37304,0,0,0
50369,7282,37442,0,0,0
50453,7355,37567,0,0,0
50522,7420,37682,0,0,0
50577,7478,37788,0,0,0
50622,7527,37876,0,0,0
50660,7565,37943,0,0,0
50696,7597,38004,0,0,0
50731,7628,38063,0,0,0
50764,7656,38107,0,0,0
50795,7679,38135,0,0,0
50816,7697,38159,0,0,0
50831,7709,38179,0,0,0
50843,7718,38191,0,0,0
50853,7724,38194,0,0,0
50865,7731,38200,0,0,0
50879,7739,38209,0,0,0
50896,7751,38212,0,0,0
50912,7760,38209,0,0,0
50924,7765,38211,0,0,0
50936,7768,38218,0,0,0
50948,7770,38217,0,0,0
50959,7770,38210,0,0,0
50970,7774,38210,0,0,0
50982,7783,38211,0,0,0
50994,7789,38207,0,0,0
51003,7792,38203,0,0,0
51013,7794,38201,0,0,0
51025,7793,38195,0,0,0
51036,7786,38177,0,0,0
51038,7772,38153,0,0,0
51029,7754,38132,0,0,0
51017,7737,38115,0,0,0
51003,7720,38095,0,0,0
50988,7701,38070,0,0,0
50973,7682,38046,0,0,0
50962,7664,38017,0,0,0
50951,7647,37984,0,0,0
50937,7627,37952,0,0,0
50918,7605,37921,0,0,0
50894,7581,37887,0,0,0
50870,7557,37855,0,0,0
50851,7540,37831,0,0,0
50838,7530,37811,0,0,0
50829,7521,37788,0,0,0
50819,7513,37762,0,0,0
50806,7503,37742,0,0,0
50793,7493,37731,0,0,0
50785,7488,37720,0,0,0
50780,7489,37707,0,0,0
50777,7492,37699,0,0,0
50778,7496,37695,0,0,0
50787,7499,37687,0,0,0
50798,7500,37677,0,0,0
50801,7496,37673,0,0,0
50799,7487,37671,0,0,0
50798,7476,37661,0,0,0
50800,7468,37649,0,0,0
50800,7464,37643,0,0,0
50796,7460,37635,0,0,0
50794,7456,37621,0,0,0
50791,7451,37601,0,0,0
50783,7441,37583,0,0,0
50772,7427,37560,0,0,0
50758,7409,37526,0,0,0
50735,7385,37491,0,0,0
50705,7358,37462,0,0,0
50674,7331,37433,0,0,0
50644,7306,37400,0,0,0
50615,7279,37362,0,0,0
50589,7254,37325,0,0,0
50567,7231,37287,0,0,0
50547,7208,37243,0,0,0
50522,7183,37199,0,0,0
50495,7159,37154,0,0,0
50467,7136,37108,0,0,0
50438,7110,37055,0,0,0
50404,7083,36998,0,0,0
50369,7055,36943,0,0,0
50334,7026,36889,0,0,0
50298,6993,36834,0,0,0
50264,6960,36788,0,0,0
50233,6928,36753,0,0,0
50204,6897,36717,0,0,0
50180,6868,36677,0,0,0
50160,6843,36643,0,0,0
50145,6825,36614,0,0,0
50133,6812,36581,0,0,0
50120,6802,36546,0,0,0
50106,6790,36516,0,0,0
50093,6775,36487,0,0,0
50080,6758,36451,0,0,0
50062,6736,36408,0,0,0
50036,6711,36364,0,0,0
50007,6685,36317,0,0,0
49977,6659,36266,0,0,0
49949,6632,36218,0,0,0
49923,6606,36182,0,0,0
49902,6586,36152,0,0,0
49886,6567,36118,0,0,0
49868,6543,36079,0,0,0
49849,6517,36044,0,0,0
49832,6494,36014,0,0,0
49817,6472,35977,0,0,0
49804,6450,35934,0,0,0
49790,6426,35894,0,0,0
49775,6406,35857,0,0,0
49763,6393,35822,0,0,0
49756,6386,35793,0,0,0
49757,6383,35776,0,0,0
49763,6380,35758,0,0,0
49769,6371,35726,0,0,0
49768,6356,35682,0,0,0
49760,6336,35637,0,0,0
49748,6314,35592,0,0,0
49731,6290,35543,0,0,0
49708,6266,35499,0,0,0
49688,6248,35466,0,0,0
49677,6238,35442,0,0,0
49672,6237,35425,0,0,0
49668,6243,35424,0,0,0
49670,6258,35440,0,0,0
49680,6281,35468,0,0,0
49700,6313,35509,0,0,0
49730,6353,35572,0,0,0
49772,6404,35660,0,0,0
49827,6468,35766,0,0,0
49894,6541,35886,0,0,0
49966,6622,36023,0,0,0
50043,6710,36176,0,0,0
50130,6804,36334,0,0,0
50224,6900,36493,0,0,0
50317,6994,36651,0,0,0
50407,7085,36802,0,0,0
50493,7174,36944,0,0,0
50578,7262,37083,0,0,0
50665,7346,37225,0,0,0
50754,7425,37359,0,0,0
50841,7498,37472,0,0,0
50920,7564,37571,0,0,0
50989,7620,37664,0,0,0
51047,7665,37748,0,0,0
51098,7701,37815,0,0,0
51140,7728,37866,0,0,0
51174,7749,37912,0,0,0
51201,7767,37956,0,0,0
51223,7781,37997,0,0,0
51242,7796,38038,0,0,0
51263,7812,38084,0,0,0
51285,7828,38122,0,0,0
51303,7841,38143,0,0,0
51320,7853,38157,0,0,0
51334,7865,38174,0,0,0
51343,7875,38186,0,0,0
51350,7880,38188,0,0,0
51355,7885,38190,0,0,0
51358,7888,38199,0,0,0
51356,7890,38208,0,0,0
51355,7894,38214,0,0,0
51354,7896,38219,0,0,0
51354,7895,38227,0,0,0
51353,7889,38231,0,0,0
51344,7876,38224,0,0,0
51326,7856,38207,0,0,0
51304,7834,38185,0,0,0
51281,7814,38159,0,0,0
51249,7794,38125,0,0,0
51207,7771,38088,0,0,0
51161,7746,38049,0,0,0
51113,7718,38006,0,0,0
51068,7691,37960,0,0,0
51027,7662,37918,0,0,0
50990,7630,37880,0,0,0
50954,7596,37836,0,0,0
50916,7564,37789,0,0,0
50878,7534,37749,0,0,0
50840,7505,37713,0,0,0
50801,7473,37673,0,0,0
50763,7440,37636,0,0,0
50731,7413,37612,0,0,0
50704,7394,37595,0,0,0
50683,7379,37576,0,0,0
50664,7367,37555,0,0,0
50646,7356,37541,0,0,0
50629,7345,37528,0,0,0
50617,7334,37507,0,0,0
50606,7324,37486,0,0,0
50592,7313,37473,0,0,0
50572,7298,37462,0,0,0
50548,7276,37442,0,0,0
50524,7252,37418,0,0,0
50500,7232,37401,0,0,0
50480,7218,37386,0,0,0
50457,7204,37363,0,0,0
50426,7185,37333,0,0,0
50385,7158,37302,0,0,0
50337,7126,37268,0,0,0
50278,7088,37231,0,0,0
50215,7046,37194,0,0,0
50155,7006,37163,0,0,0
50103,6970,37131,0,0,0
50060,6941,37095,0,0,0
50026,6918,37064,0,0,0
49999,6900,37038,0,0,0
49974,6880,37008,0,0,0
49944,6855,36968,0,0,0
49911,6828,36928,0,0,0
49879,6800,36889,0,0,0
49850,6768,36845,0,0,0
49823,6732,36800,0,0,0
49798,6699,36761,0,0,0
49775,6668,36727,0,0,0
49752,6637,36687,0,0,0
49725,6605,36637,0,0,0
49694,6574,36588,0,0,0
49663,6547,36541,0,0,0
49633,6523,36489,0,0,0
49600,6498,36431,0,0,0
49565,6474,36376,0,0,0
49527,6445,36326,0,0,0
49482,6413,36270,0,0,0
49433,6382,36212,0,0,0
49379,6351,36160,0,0,0
49327,6320,36114,0,0,0
49280,6289,36063,0,0,0
49234,6256,36007,0,0,0
49191,6226,35957,0,0,0
49154,6198,35913,0,0,0
49118,6169,35862,0,0,0
49075,6134,35803,0,0,0
49026,6097,35744,0,0,0
48978,6062,35691,0,0,0
48931,6030,35640,0,0,0
48889,6002,35595,0,0,0
48853,5979,35562,0,0,0
48823,5960,35535,0,0,0
48799,5943,35506,0,0,0
48779,5927,35474,0,0,0
48761,5913,35446,0,0,0
48743,5902,35419,0,0,0
48724,5889,35392,0,0,0
48703,5871,35367,0,0,0
48679,5849,35343,0,0,0
48656,5825,35313,0,0,0
48639,5802,35277,0,0,0
48623,5780,35243,0,0,0
48606,5760,35212,0,0,0
48587,5744,35178,0,0,0
48566,5729,35140,0,0,0
48542,5714,35103,0,0,0
48511,5696,35073,0,0,0
48478,5675,35039,0,0,0
48450,5653,35000,0,0,0
48426,5632,34964,0,0,0
48405,5612,34930,0,0,0
48390,5592,34889,0,0,0
48378,5569,34842,0,0,0
48363,5541,34800,0,0,0
48345,5512,34765,0,0,0
48329,5487,34725,0,0,0
48318,5465,34685,0,0,0
48311,5448,34651,0,0,0
48308,5435,34620,0,0,0
48306,5425,34586,0,0,0
48304,5417,34551,0,0,0
48300,5411,34528,0,0,0
48295,5407,34513,0,0,0
48293,5406,34499,0,0,0
48299,5411,34492,0,0,0
48311,5425,34503,0,0,0
48330,5449,34533,0,0,0
48360,5482,34578,0,0,0
48399,5525,34643,0,0,0
48442,5576,34731,0,0,0
48495,5634,34832,0,0,0
48558,5701,34941,0,0,0
48625,5776,35058,0,0,0
48696,5858,35188,0,0,0
48776,5946,35329,0,0,0
48866,6041,35476,0,0,0
48964,6139,35631,0,0,0
49064,6238,35793,0,0,0
49164,6334,35949,0,0,0
49262,6427,36092,0,0,0
49358,6513,36228,0,0,0
49450,6593,36360,0,0,0
49538,6671,36484,0,0,0
49620,6742,36592,0,0,0
49692,6804,36686,0,0,0
49757,6857,36772,0,0,0
49817,6903,36850,0,0,0
49871,6941,36913,0,0,0
49920,6971,36966,0,0,0
49963,6996,37012,0,0,0
49996,7012,37040,0,0,0
50018,7021,37052,0,0,0
50032,7028,37065,0,0,0
50041,7036,37086,0,0,0
50047,7044,37105,0,0,0
50048,7049,37120,0,0,0
50043,7054,37137,0,0,0
50032,7056,37149,0,0,0
50021,7055,37151,0,0,0
50012,7055,37148,0,0,0
50003,7054,37150,0,0,0
49995,7053,37156,0,0,0
49988,7046,37152,0,0,0
49982,7035,37138,0,0,0
49969,7021,37123,0,0,0
49950,7008,37109,0,0,0
49931,6994,37091,0,0,0
49914,6983,37074,0,0,0
49903,6976,37066,0,0,0
49898,6970,37062,0,0,0
49892,6959,37051,0,0,0
49878,6940,37031,0,0,0
49852,6913,37008,0,0,0
49817,6881,36981,0,0,0
49782,6849,36946,0,0,0
49750,6822,36908,0,0,0
49721,6801,36872,0,0,0
49691,6782,36831,0,0,0
49661,6765,36785,0,0,0
49631,6744,36744,0,0,0
49603,6719,36712,0,0,0
49579,6694,36683,0,0,0
49557,6670,36654,0,0,0
49536,6648,36630,0,0,0
49514,6628,36609,0,0,0
49494,6610,36589,0,0,0
49475,6593,36572,0,0,0
49462,6585,36566,0,0,0
49461,6587,36570,0,0,0
49471,6594,36573,0,0,0
49485,6600,36574,0,0,0
49497,6606,36575,0,0,0
49503,6609,36576,0,0,0
49497,6606,36568,0,0,0
49483,6596,36552,0,0,0
49467,6586,36540,0,0,0
49455,6582,36532,0,0,0
49446,6580,36517,0,0,0
49439,6577,36492,0,0,0
49436,6572,36470,0,0,0
49435,6567,36451,0,0,0
49436,6564,36430,0,0,0
49434,6559,36409,0,0,0
49426,6547,36392,0,0,0
49413,6529,36372,0,0,0
49393,6505,36343,0,0,0
49367,6478,36311,0,0,0
49340,6453,36283,0,0,0
49313,6431,36253,0,0,0
49290,6413,36216,0,0,0
49270,6395,36175,0,0,0
49251,6377,36137,0,0,0
49232,6355,36099,0,0,0
49214,6331,36055,0,0,0
49193,6306,36009,0,0,0
49170,6281,35968,0,0,0
49149,6260,35932,0,0,0
49130,6240,35895,0,0,0
49107,6215,35856,0,0,0
49079,6186,35816,0,0,0
49048,6158,35771,0,0,0
49017,6131,35720,0,0,0
48985,6105,35673,0,0,0
48954,6081,35635,0,0,0
48924,6057,35598,0,0,0
48894,6036,35557,0,0,0
48864,6016,35515,0,0,0
48836,5996,35478,0,0,0
48811,5977,35441,0,0,0
48791,5959,35402,0,0,0
48769,5938,35364,0,0,0
48749,5918,35326,0,0,0
48735,5902,35289,0,0,0
48726,5890,35254,0,0,0
48715,5878,35225,0,0,0
48704,5866,35198,0,0,0
48692,5850,35165,0,0,0
48675,5830,35128,0,0,0
48651,5808,35098,0,0,0
48623,5786,35076,0,0,0
48596,5763,35052,0,0,0
48568,5740,35025,0,0,0
48541,5716,35004,0,0,0
48513,5692,34984,0,0,0
48484,5669,34952,0,0,0
48458,5647,34913,0,0,0
48434,5626,34874,0,0,0
48411,5606,34833,0,0,0
48391,5585,34788,0,0,0
48370,5566,34746,0,0,0
48345,5546,34710,0,0,0
48321,5528,34677,0,0,0
48303,5514,34643,0,0,0
48288,5501,34608,0,0,0
48274,5488,34578,0,0,0
48259,5472,34549,0,0,0
48241,5452,34514,0,0,0
48220,5430,34478,0,0,0
48195,5409,34447,0,0,0
48166,5388,34414,0,0,0
48134,5368,34375,0,0,0
48104,5349,34336,0,0,0
48083,5335,34312,0,0,0
48072,5327,34300,0,0,0
48067,5323,34294,0,0,0
48066,5323,34301,0,0,0
48070,5332,34327,0,0,0
48083,5353,34372,0,0,0
48107,5388,34435,0,0,0
48137,5430,34516,0,0,0
48174,5482,34612,0,0,0
48220,5543,34719,0,0,0
48274,5611,34834,0,0,0
48337,5688,34962,0,0,0
48409,5772,35096,0,0,0
48491,5861,35227,0,0,0
48578,5952,35355,0,0,0
48667,6041,35484,0,0,0
48754,6126,35612,0,0,0
48836,6205,35731,0,0,0
48911,6275,35840,0,0,0
48982,6337,35948,0,0,0
49048,6395,36047,0,0,0
49109,6446,36125,0,0,0
49161,6490,36189,0,0,0
49202,6526,36249,0,0,0
49236,6556,36301,0,0,0
49265,6579,36334,0,0,0
49286,6594,36354,0,0,0
49301,6602,36369,0,0,0
49312,6608,36383,0,0,0
49323,6611,36394,0,0,0
49327,6609,36401,0,0,0
49322,6604,36407,0,0,0
49314,6599,36408,0,0,0
49308,6595,36404,0,0,0
49305,6591,36401,0,0,0
49306,6591,36402,0,0,0
49313,6594,36402,0,0,0
49324,6599,36396,0,0,0
49334,6598,36383,0,0,0
49341,6593,36370,0,0,0
49347,6587,36358,0,0,0
49350,6580,36342,0,0,0
49348,6574,36322,0,0,0
49344,6570,36301,0,0,0
49339,6563,36278,0,0,0
49332,6553,36252,0,0,0
49319,6541,36224,0,0,0
49302,6528,36198,0,0,0
49285,6520,36169,0,0,0
49269,6512,36138,0,0,0
49253,6501,36105,0,0,0
49236,6487,36071,0,0,0
49221,6469,36034,0,0,0
49211,6449,35994,0,0,0
49206,6430,35962,0,0,0
49202,6413,35937,0,0,0
49201,6396,35912,0,0,0
49205,6384,35890,0,0,0
49213,6378,35880,0,0,0
49224,6376,35877,0,0,0
49237,6378,35870,0,0,0
49252,6384,35862,0,0,0
49266,6392,35860,0,0,0
49282,6402,35859,0,0,0
49302,6413,35852,0,0,0
49324,6425,35845,0,0,0
49342,6437,35848,0,0,0
49357,6446,35852,0,0,0
49369,6452,35847,0,0,0
49383,6460,35841,0,0,0
49400,6470,35843,0,0,0
49418,6481,35845,0,0,0
49436,6491,35843,0,0,0
49451,6500,35841,0,0,0
49463,6507,35843,0,0,0
49471,6510,35845,0,0,0
49475,6508,35840,0,0,0
49473,6503,35833,0,0,0
49468,6501,35832,0,0,0
49461,6495,35826,0,0,0
49446,6479,35809,0,0,0
49420,6454,35784,0,0,0
49386,6426,35759,0,0,0
49352,6400,35732,0,0,0
49321,6381,35696,0,0,0
49291,6365,35660,0,0,0
49264,6350,35631,0,0,0
49240,6334,35600,0,0,0
49215,6316,35565,0,0,0
49187,6295,35528,0,0,0
49157,6272,35495,0,0,0
49128,6249,35457,0,0,0
49104,6227,35416,0,0,0
49085,6208,35384,0,0,0
49070,6194,35360,0,0,0
49060,6181,35330,0,0,0
49052,6166,35296,0,0,0
49041,6147,35269,0,0,0
49029,6129,35247,0,0,0
49019,6115,35219,0,0,0
49011,6103,35187,0,0,0
49005,6090,35161,0,0,0
48999,6078,35140,0,0,0
48992,6065,35112,0,0,0
48984,6049,35080,0,0,0
48971,6032,35051,0,0,0
48953,6017,35027,0,0,0
48937,6004,34996,0,0,0
48922,5994,34964,0,0,0
48908,5986,34939,0,0,0
48895,5980,34921,0,0,0
48882,5974,34900,0,0,0
48865,5964,34873,0,0,0
48843,5948,34844,0,0,0
48817,5930,34812,0,0,0
48788,5912,34775,0,0,0
48763,5892,34740,0,0,0
48745,5876,34718,0,0,0
48733,5861,34702,0,0,0
48723,5843,34683,0,0,0
48709,5822,34662,0,0,0
48690,5801,34641,0,0,0
48667,5779,34612,0,0,0
48638,5751,34578,0,0,0
48607,5722,34549,0,0,0
48575,5699,34527,0,0,0
48546,5684,34504,0,0,0
48522,5672,34481,0,0,0
48504,5659,34460,0,0,0
48492,5645,34437,0,0,0
48484,5630,34403,0,0,0
48479,5615,34363,0,0,0
48475,5604,34328,0,0,0
48475,5597,34303,0,0,0
48479,5593,34276,0,0,0
48483,5587,34245,0,0,0
48485,5579,34214,0,0,0
48483,5568,34184,0,0,0
48478,5554,34149,0,0,0
48467,5536,34114,0,0,0
48456,5518,34092,0,0,0
48450,5503,34083,0,0,0
48451,5496,34079,0,0,0
48459,5503,34084,0,0,0
48475,5524,34107,0,0,0
48499,5556,34146,0,0,0
48531,5595,34195,0,0,0
48572,5643,34260,0,0,0
48622,5701,34350,0,0,0
48683,5770,34461,0,0,0
48757,5847,34585,0,0,0
48841,5930,34717,0,0,0
48931,6018,34861,0,0,0
49025,6111,35013,0,0,0
49119,6203,35162,0,0,0
49210,6288,35303,0,0,0
49299,6368,35437,0,0,0
49384,6444,35564,0,0,0
49463,6514,35679,0,0,0
49535,6578,35784,0,0,0
49597,6637,35882,0,0,0
49651,6692,35966,0,0,0
49703,6740,36037,0,0,0
49753,6785,36100,0,0,0
49800,6826,36158,0,0,0
49842,6858,36206,0,0,0
49875,6879,36239,0,0,0
49898,6889,36265,0,0,0
49913,6890,36288,0,0,0
49921,6886,36305,0,0,0
49919,6878,36313,0,0,0
49911,6869,36321,0,0,0
49905,6865,36329,0,0,0
49903,6863,36337,0,0,0
49901,6860,36342,0,0,0
49893,6856,36347,0,0,0
49881,6850,36349,0,0,0
49868,6842,36343,0,0,0
49854,6835,36333,0,0,0
49840,6829,36333,0,0,0
49828,6826,36338,0,0,0
49817,6824,36333,0,0,0
49808,6821,36320,0,0,0
49799,6814,36307,0,0,0
49790,6804,36289,0,0,0
49783,6791,36263,0,0,0
49780,6780,36234,0,0,0
49781,6773,36213,0,0,0
49783,6769,36201,0,0,0
49787,6763,36183,0,0,0
49795,6762,36163,0,0,0
49803,6763,36147,0,0,0
49807,6760,36130,0,0,0
49805,6749,36105,0,0,0
49795,6733,36079,0,0,0
49782,6717,36058,0,0,0
49769,6704,36038,0,0,0
49756,6690,36007,0,0,0
49744,6675,35974,0,0,0
49736,6663,35956,0,0,0
49731,6654,35945,0,0,0
49728,6642,35930,0,0,0
49726,6629,35915,0,0,0
49727,6620,35906,0,0,0
49734,6617,35899,0,0,0
49747,6620,35892,0,0,0
49765,6628,35893,0,0,0
49784,6640,35902,0,0,0
49802,6650,35910,0,0,0
49820,6655,35910,0,0,0
49835,6654,35906,0,0,0
49847,6650,35899,0,0,0
49859,6648,35885,0,0,0
49874,6650,35870,0,0,0
49888,6656,35866,0,0,0
49899,6663,35867,0,0,0
49910,6672,35862,0,0,0
49920,6681,35851,0,0,0
49924,6686,35843,0,0,0
49920,6682,35831,0,0,0
49910,6669,35811,0,0,0
49893,6651,35783,0,0,0
49873,6630,35760,0,0,0
49855,6610,35739,0,0,0
49838,6588,35712,0,0,0
49822,6566,35683,0,0,0
49802,6549,35660,0,0,0
49776,6529,35633,0,0,0
49749,6505,35598,0,0,0
49725,6481,35561,0,0,0
49705,6462,35533,0,0,0
49687,6447,35507,0,0,0
49671,6432,35470,0,0,0
49651,6412,35424,0,0,0
49624,6390,35380,0,0,0
49597,6368,35340,0,0,0
49569,6343,35297,0,0,0
49541,6318,35258,0,0,0
49514,6297,35228,0,0,0
49490,6278,35198,0,0,0
49469,6259,35161,0,0,0
49451,6241,35123,0,0,0
49436,6224,35091,0,0,0
49423,6204,35060,0,0,0
49410,6181,35027,0,0,0
49397,6159,34995,0,0,0
49382,6139,34968,0,0,0
49368,6124,34944,0,0,0
49357,6111,34916,0,0,0
49342,6094,34888,0,0,0
49324,6076,34862,0,0,0
49302,6059,34830,0,0,0
49278,6040,34794,0,0,0
49249,6020,34758,0,0,0
49220,6000,34724,0,0,0
49196,5984,34688,0,0,0
49177,5969,34650,0,0,0
49160,5956,34618,0,0,0
49140,5943,34588,0,0,0
49119,5929,34555,0,0,0
49101,5911,34519,0,0,0
49080,5890,34488,0,0,0
49054,5867,34463,0,0,0
49028,5845,34432,0,0,0
49005,5828,34400,0,0,0
48984,5813,34378,0,0,0
48964,5797,34360,0,0,0
48947,5779,34337,0,0,0
48936,5762,34310,0,0,0
48929,5747,34288,0,0,0
48922,5736,34267,0,0,0
48917,5725,34241,0,0,0
48910,5715,34214,0,0,0
48901,5706,34193,0,0,0
48894,5699,34173,0,0,0
48887,5689,34143,0,0,0
48876,5673,34107,0,0,0
48857,5651,34069,0,0,0
48834,5628,34034,0,0,0
48810,5607,33997,0,0,0
48784,5587,33962,0,0,0
48758,5569,33933,0,0,0
48734,5550,33903,0,0,0
48710,5530,33868,0,0,0
48686,5509,33835,0,0,0
48661,5490,33806,0,0,0
48640,5473,33774,0,0,0
48623,5459,33739,0,0,0
48611,5446,33707,0,0,0
48601,5432,33682,0,0,0
48592,5417,33653,0,0,0
48582,5398,33618,0,0,0
48569,5374,33584,0,0,0
48556,5351,33555,0,0,0
48546,5331,33521,0,0,0
48532,5310,33478,0,0,0
48516,5292,33439,0,0,0
48509,5283,33415,0,0,0
48514,5280,33400,0,0,0
48523,5281,33392,0,0,0
48537,5288,33399,0,0,0
48561,5306,33425,0,0,0
48594,5332,33459,0,0,0
48633,5362,33501,0,0,0
48678,5404,33565,0,0,0
48736,5462,33654,0,0,0
48805,5533,33753,0,0,0
48883,5611,33859,0,0,0
48969,5693,33980,0,0,0
49060,5779,34113,0,0,0
49152,5867,34249,0,0,0
49242,5959,34391,0,0,0
49329,6057,34541,0,0,0
49418,6154,34693,0,0,0
49509,6247,34833,0,0,0
49601,6333,34967,0,0,0
49691,6414,35101,0,0,0
49773,6489,35227,0,0,0
49843,6554,35334,0,0,0
49898,6605,35423,0,0,0
49941,6647,35504,0,0,0
49979,6682,35576,0,0,0
50010,6710,35632,0,0,0
50034,6727,35676,0,0,0
50053,6737,35711,0,0,0
50069,6741,35732,0,0,0
50084,6744,35743,0,0,0
50094,6745,35752,0,0,0
50095,6739,35760,0,0,0
50089,6727,35758,0,0,0
50078,6713,35748,0,0,0
50068,6702,35740,0,0,0
50063,6696,35737,0,0,0
50066,6698,35738,0,0,0
50079,6705,35743,0,0,0
50092,6714,35755,0,0,0
50101,6723,35772,0,0,0
50109,6729,35787,0,0,0
50117,6734,35799,0,0,0
50121,6734,35814,0,0,0
50124,6734,35828,0,0,0
50129,6736,35833,0,0,0
50134,6738,35834,0,0,0
50139,6739,35837,0,0,0
50140,6741,35839,0,0,0
50139,6737,35827,0,0,0
50133,6729,35805,0,0,0
50124,6716,35779,0,0,0
50112,6699,35747,0,0,0
50096,6676,35703,0,0,0
50075,6649,35655,0,0,0
50055,6626,35614,0,0,0
50040,6606,35580,0,0,0
50031,6588,35545,0,0,0
50026,6573,35513,0,0,0
50023,6563,35493,0,0,0
50022,6558,35479,0,0,0
50020,6553,35460,0,0,0
50018,6548,35439,0,0,0
50015,6543,35425,0,0,0
50015,6542,35417,0,0,0
50015,6539,35407,0,0,0
50011,6535,35398,0,0,0
50006,6533,35398,0,0,0
50000,6534,35399,0,0,0
49995,6533,35392,0,0,0
49994,6529,35386,0,0,0
49996,6526,35384,0,0,0
49996,6522,35378,0,0,0
49993,6513,35362,0,0,0
49993,6505,35348,0,0,0
49998,6501,35340,0,0,0
50006,6500,35329,0,0,0
50017,6499,35314,0,0,0
50027,6498,35300,0,0,0
50033,6493,35290,0,0,0
50036,6483,35277,0,0,0
50036,6472,35258,0,0,0
50034,6464,35243,0,0,0
50030,6458,35227,0,0,0
50022,6451,35203,0,0,0
50006,6440,35177,0,0,0
49981,6424,35155,0,0,0
49954,6405,35134,0,0,0
49930,6386,35109,0,0,0
49906,6368,35084,0,0,0
49881,6351,35062,0,0,0
49853,6332,35037,0,0,0
49829,6312,35003,0,0,0
49809,6295,34972,0,0,0
49788,6281,34952,0,0,0
49768,6270,34933,0,0,0
49749,6256,34904,0,0,0
49728,6240,34870,0,0,0
49707,6223,34843,0,0,0
49687,6209,34820,0,0,0
49667,6193,34787,0,0,0
49643,6173,34749,0,0,0
49617,6150,34716,0,0,0
49592,6128,34685,0,0,0
49572,6108,34651,0,0,0
49556,6090,34618,0,0,0
49541,6075,34592,0,0,0
49523,6058,34566,0,0,0
49501,6035,34534,0,0,0
49476,6006,34502,0,0,0
49446,5974,34470,0,0,0
49411,5941,34436,0,0,0
49378,5911,34400,0,0,0
49349,5886,34369,0,0,0
49324,5866,34344,0,0,0
49300,5846,34317,0,0,0
49279,5827,34289,0,0,0
49257,5807,34263,0,0,0
49232,5785,34236,0,0,0
49200,5762,34200,0,0,0
49166,5740,34158,0,0,0
49135,5722,34124,0,0,0
49113,5708,34097,0,0,0
49100,5696,34066,0,0,0
49090,5685,34033,0,0,0
49083,5677,34009,0,0,0
49078,5670,33988,0,0,0
49072,5663,33962,0,0,0
49062,5656,33929,0,0,0
49046,5643,33900,0,0,0
49024,5623,33874,0,0,0
49004,5601,33846,0,0,0
48988,5583,33815,0,0,0
48973,5568,33790,0,0,0
48957,5550,33766,0,0,0
48940,5530,33737,0,0,0
48925,5512,33709,0,0,0
48910,5500,33688,0,0,0
48892,5489,33670,0,0,0
48869,5472,33641,0,0,0
48845,5453,33605,0,0,0
48822,5432,33573,0,0,0
48797,5409,33542,0,0,0
48769,5384,33504,0,0,0
48739,5360,33465,0,0,0
48709,5339,33434,0,0,0
48683,5321,33408,0,0,0
48659,5302,33376,0,0,0
48635,5284,33343,0,0,0
48609,5267,33315,0,0,0
48584,5250,33286,0,0,0
48560,5229,33251,0,0,0
48537,5206,33216,0,0,0
48514,5183,33188,0,0,0
48490,5161,33163,0,0,0
48468,5141,33133,0,0,0
48442,5123,33104,0,0,0
48413,5102,33077,0,0,0
48385,5081,33045,0,0,0
48360,5059,33005,0,0,0
48335,5035,32968,0,0,0
48312,5014,32939,0,0,0
48295,4998,32908,0,0,0
48284,4987,32875,0,0,0
48276,4976,32845,0,0,0
48270,4961,32817,0,0,0
48265,4944,32782,0,0,0
48257,4926,32743,0,0,0
48246,4908,32711,0,0,0
48236,4893,32684,0,0,0
48230,4880,32656,0,0,0
48225,4867,32628,0,0,0
48224,4857,32613,0,0,0
48228,4854,32610,0,0,0
48236,4855,32610,0,0,0
48246,4861,32620,0,0,0
48258,4875,32650,0,0,0
48272,4899,32696,0,0,0
48297,4932,32748,0,0,0
48336,4979,32816,0,0,0
48391,5044,32913,0,0,0
48459,5120,33026,0,0,0
48535,5204,33145,0,0,0
48618,5294,33272,0,0,0
48702,5389,33413,0,0,0
48788,5479,33557,0,0,0
48872,5560,33688,0,0,0
48952,5635,33810,0,0,0
49030,5708,33936,0,0,0
49110,5781,34060,0,0,0
49190,5851,34176,0,0,0
49264,5915,34284,0,0,0
49328,5973,34385,0,0,0
49382,6023,34473,0,0,0
49424,6061,34544,0,0,0
49454,6092,34606,0,0,0
49477,6119,34662,0,0,0
49496,6140,34708,0,0,0
49512,6157,34742,0,0,0
49526,6173,34772,0,0,0
49536,6186,34797,0,0,0
49538,6191,34809,0,0,0
49532,6189,34806,0,0,0
49522,6184,34797,0,0,0
49507,6172,34785,0,0,0
49490,6153,34767,0,0,0
49471,6130,34744,0,0,0
49452,6113,34728,0,0,0
49435,6103,34717,0,0,0
49426,6099,34707,0,0,0
49422,6096,34701,0,0,0
49421,6095,34704,0,0,0
49425,6098,34713,0,0,0
49435,6105,34713,0,0,0
49446,6112,34706,0,0,0
49455,6117,34705,0,0,0
49460,6119,34705,0,0,0
49459,6116,34693,0,0,0
49453,6112,34677,0,0,0
49441,6104,34667,0,0,0
49428,6096,34658,0,0,0
49418,6092,34646,0,0,0
49410,6088,34633,0,0,0
49402,6082,34625,0,0,0
49395,6073,34616,0,0,0
49385,6060,34597,0,0,0
49370,6045,34569,0,0,0
49351,6029,34541,0,0,0
49333,6010,34513,0,0,0
49317,5987,34482,0,0,0
49298,5966,34452,0,0,0
49276,5947,34427,0,0,0
49250,5928,34395,0,0,0
49228,5909,34355,0,0,0
49211,5894,34318,0,0,0
49200,5880,34291,0,0,0
49191,5866,34266,0,0,0
49185,5851,34244,0,0,0
49182,5839,34234,0,0,0
49178,5834,34234,0,0,0
49178,5836,34233,0,0,0
49182,5841,34234,0,0,0
49189,5849,34243,0,0,0
49199,5859,34259,0,0,0
49208,5868,34273,0,0,0
49215,5871,34278,0,0,0
49220,5871,34280,0,0,0
49221,5871,34281,0,0,0
49218,5867,34277,0,0,0
49213,5859,34269,0,0,0
49205,5855,34266,0,0,0
49198,5855,34266,0,0,0
49194,5855,34257,0,0,0
49188,5853,34238,0,0,0
49176,5846,34221,0,0,0
49162,5836,34202,0,0,0
49145,5820,34173,0,0,0
49123,5797,34139,0,0,0
49096,5773,34108,0,0,0
49067,5749,34076,0,0,0
49040,5727,34042,0,0,0
49018,5705,34008,0,0,0
48994,5682,33977,0,0,0
48968,5656,33944,0,0,0
48940,5625,33905,0,0,0
48905,5592,33865,0,0,0
48868,5559,33830,0,0,0
48828,5526,33792,0,0,0
48786,5487,33743,0,0,0
48743,5448,33691,0,0,0
48707,5416,33648,0,0,0
48675,5389,33612,0,0,0
48648,5366,33579,0,0,0
48623,5348,33548,0,0,0
48602,5332,33522,0,0,0
48584,5315,33495,0,0,0
48564,5293,33460,0,0,0
48542,5272,33426,0,0,0
48520,5254,33398,0,0,0
48498,5238,33369,0,0,0
48478,5222,33337,0,0,0
48458,5207,33309,0,0,0
48442,5193,33284,0,0,0
48430,5182,33257,0,0,0
48417,5169,33224,0,0,0
48401,5154,33191,0,0,0
48383,5138,33161,0,0,0
48364,5123,33131,0,0,0
48344,5107,33098,0,0,0
48324,5092,33073,0,0,0
48305,5080,33054,0,0,0
48287,5067,33031,0,0,0
48267,5053,33006,0,0,0
48242,5037,32985,0,0,0
48216,5019,32965,0,0,0
48188,4997,32935,0,0,0
48158,4976,32904,0,0,0
48127,4956,32881,0,0,0
48095,4936,32858,0,0,0
48065,4916,32826,0,0,0
48039,4898,32788,0,0,0
48018,4882,32758,0,0,0
48001,4869,32735,0,0,0
47985,4851,32706,0,0,0
47966,4827,32672,0,0,0
47943,4803,32639,0,0,0
47919,4782,32605,0,0,0
47899,4766,32569,0,0,0
47881,4751,32539,0,0,0
47864,4739,32521,0,0,0
47849,4729,32505,0,0,0
47836,4719,32483,0,0,0
47825,4709,32459,0,0,0
47815,4700,32439,0,0,0
47807,4691,32417,0,0,0
47801,4681,32385,0,0,0
47795,4668,32348,0,0,0
47789,4652,32309,0,0,0
47785,4640,32272,0,0,0
47784,4632,32237,0,0,0
47778,4623,32207,0,0,0
47769,4613,32183,0,0,0
47761,4603,32159,0,0,0
47753,4591,32134,0,0,0
47743,4575,32109,0,0,0
47727,4554,32082,0,0,0
47707,4530,32051,0,0,0
47686,4505,32020,0,0,0
47669,4481,31995,0,0,0
47659,4464,31975,0,0,0
47655,4456,31955,0,0,0
47654,4452,31941,0,0,0
47656,4455,31945,0,0,0
47664,4469,31971,0,0,0
47682,4496,32011,0,0,0
47710,4533,32067,0,0,0
47745,4583,32145,0,0,0
47788,4643,32241,0,0,0
47837,4708,32342,0,0,0
47891,4778,32451,0,0,0
47949,4851,32574,0,0,0
48010,4927,32703,0,0,0
48078,5008,32825,0,0,0
48152,5088,32944,0,0,0
48229,5169,33069,0,0,0
48308,5248,33191,0,0,0
48384,5325,33300,0,0,0
48450,5394,33395,0,0,0
48505,5450,33485,0,0,0
48553,5496,33566,0,0,0
48598,5534,33632,0,0,0
48641,5568,33686,0,0,0
48682,5598,33735,0,0,0
48718,5625,33777,0,0,0
48746,5648,33804,0,0,0
48766,5663,33821,0,0,0
48777,5670,33833,0,0,0
48782,5669,33837,0,0,0
48781,5663,33830,0,0,0
48776,5660,33827,0,0,0
48776,5663,33831,0,0,0
48781,5667,33832,0,0,0
48790,5669,33827,0,0,0
48797,5670,33821,0,0,0
48799,5669,33816,0,0,0
48794,5658,33804,0,0,0
48781,5641,33788,0,0,0
48765,5625,33776,0,0,0
48752,5612,33768,0,0,0
48741,5601,33758,0,0,0
48731,5590,33744,0,0,0
48725,5582,33735,0,0,0
48723,5579,33732,0,0,0
48726,5579,33720,0,0,0
48728,5576,33697,0,0,0
48724,5568,33677,0,0,0
48720,5562,33661,0,0,0
48716,5557,33637,0,0,0
48712,5552,33611,0,0,0
48706,5547,33591,0,0,0
48697,5539,33573,0,0,0
48685,5527,33543,0,0,0
48667,5510,33507,0,0,0
48647,5493,33478,0,0,0
48628,5478,33453,0,0,0
48612,5463,33423,0,0,0
48598,5447,33392,0,0,0
48589,5431,33371,0,0,0
48585,5420,33356,0,0,0
48584,5409,33337,0,0,0
48583,5397,33319,0,0,0
48586,5390,33314,0,0,0
48593,5389,33314,0,0,0
48601,5392,33310,0,0,0
48614,5398,33306,0,0,0
48631,5407,33309,0,0,0
48648,5415,33312,0,0,0
48659,5416,33306,0,0,0
48664,5416,33297,0,0,0
48663,5418,33294,0,0,0
48662,5427,33294,0,0,0
48665,5440,33293,0,0,0
48668,5454,33298,0,0,0
48673,5469,33306,0,0,0
48679,5479,33310,0,0,0
48679,5481,33304,0,0,0
48673,5476,33294,0,0,0
48665,5470,33282,0,0,0
48658,5462,33264,0,0,0
48650,5449,33242,0,0,0
48637,5430,33219,0,0,0
48622,5407,33197,0,0,0
48606,5384,33176,0,0,0
48587,5364,33155,0,0,0
48565,5347,33136,0,0,0
48544,5330,33113,0,0,0
48525,5315,33083,0,0,0
48504,5301,33053,0,0,0
48478,5288,33031,0,0,0
48451,5272,33014,0,0,0
48426,5254,32994,0,0,0
48404,5236,32971,0,0,0
48380,5219,32952,0,0,0
48356,5202,32931,0,0,0
48332,5183,32901,0,0,0
48309,5164,32870,0,0,0
48287,5147,32846,0,0,0
48267,5132,32821,0,0,0
48244,5118,32791,0,0,0
48217,5103,32760,0,0,0
48190,5084,32737,0,0,0
48169,5066,32717,0,0,0
48154,5047,32691,0,0,0
48140,5025,32659,0,0,0
48126,5002,32627,0,0,0
48108,4983,32597,0,0,0
48083,4964,32567,0,0,0
48056,4946,32541,0,0,0
48034,4933,32522,0,0,0
48018,4925,32502,0,0,0
48002,4915,32474,0,0,0
47987,4904,32448,0,0,0
47973,4894,32429,0,0,0
47962,4885,32408,0,0,0
47955,4874,32379,0,0,0
47950,4862,32350,0,0,0
47943,4850,32324,0,0,0
47931,4837,32291,0,0,0
47914,4822,32256,0,0,0
47893,4808,32232,0,0,0
47871,4796,32218,0,0,0
47851,4786,32202,0,0,0
47828,4773,32185,0,0,0
47803,4757,32173,0,0,0
47778,4739,32162,0,0,0
47756,4723,32142,0,0,0
47735,4707,32114,0,0,0
47718,4691,32090,0,0,0
47704,4677,32070,0,0,0
47690,4661,32045,0,0,0
47672,4643,32014,0,0,0
47652,4627,31986,0,0,0
47636,4613,31964,0,0,0
47622,4600,31938,0,0,0
47611,4588,31908,0,0,0
47601,4584,31882,0,0,0
47592,4585,31859,0,0,0
47585,4585,31834,0,0,0
47579,4580,31809,0,0,0
47573,4575,31787,0,0,0
47565,4568,31765,0,0,0
47553,4553,31737,0,0,0
47538,4537,31710,0,0,0
47526,4527,31690,0,0,0
47522,4525,31679,0,0,0
47525,4525,31673,0,0,0
47531,4529,31674,0,0,0
47542,4544,31687,0,0,0
47559,4567,31717,0,0,0
47586,4597,31762,0,0,0
47622,4638,31821,0,0,0
47664,4690,31897,0,0,0
47714,4749,31988,0,0,0
47773,4813,32089,0,0,0
47843,4887,32203,0,0,0
47925,4969,32331,0,0,0
48015,5054,32466,0,0,0
48109,5135,32600,0,0,0
48204,5214,32738,0,0,0
48301,5297,32882,0,0,0
48397,5381,33019,0,0,0
48488,5460,33147,0,0,0
48572,5535,33269,0,0,0
48650,5604,33385,0,0,0
48721,5668,33490,0,0,0
48785,5726,33582,0,0,0
48843,5775,33665,0,0,0
48895,5817,33737,0,0,0
48938,5850,33794,0,0,0
48968,5874,33834,0,0,0
48987,5887,33866,0,0,0
48999,5893,33887,0,0,0
49009,5895,33896,0,0,0
49017,5896,33902,0,0,0
49020,5897,33916,0,0,0
49019,5895,33930,0,0,0
49016,5890,33932,0,0,0
49017,5885,33927,0,0,0
49021,5883,33927,0,0,0
49026,5884,33932,0,0,0
49028,5884,33929,0,0,0
49025,5880,33919,0,0,0
49017,5873,33907,0,0,0
49006,5866,33894,0,0,0
48997,5864,33880,0,0,0
48994,5865,33872,0,0,0
48993,5868,33875,0,0,0
48996,5872,33881,0,0,0
49001,5874,33881,0,0,0
49005,5876,33877,0,0,0
49005,5874,33872,0,0,0
49003,5867,33858,0,0,0
49002,5859,33837,0,0,0
49000,5854,33819,0,0,0
48995,5848,33804,0,0,0
48990,5840,33785,0,0,0
48984,5831,33760,0,0,0
48975,5823,33736,0,0,0
48964,5816,33715,0,0,0
48953,5807,33690,0,0,0
48942,5796,33661,0,0,0
48932,5785,33635,0,0,0
48923,5773,33612,0,0,0
48912,5763,33587,0,0,0
48903,5757,33565,0,0,0
48899,5753,33554,0,0,0
48904,5752,33552,0,0,0
48915,5752,33548,0,0,0
48926,5751,33542,0,0,0
48936,5751,33543,0,0,0
48947,5754,33549,0,0,0
48960,5760,33550,0,0,0
48976,5769,33550,0,0,0
48996,5782,33557,0,0,0
49019,5796,33567,0,0,0
49040,5811,33574,0,0,0
49058,5827,33581,0,0,0
49070,5841,33595,0,0,0
49074,5851,33613,0,0,0
49069,5851,33625,0,0,0
49060,5844,33631,0,0,0
49050,5833,33640,0,0,0
49041,5820,33646,0,0,0
49031,5807,33641,0,0,0
49022,5794,33630,0,0,0
49010,5781,33617,0,0,0
48994,5767,33598,0,0,0
48977,5754,33571,0,0,0
48962,5742,33541,0,0,0
48944,5730,33516,0,0,0
48925,5716,33492,0,0,0
48909,5701,33464,0,0,0
48896,5687,33439,0,0,0
48886,5676,33421,0,0,0
48873,5665,33400,0,0,0
48856,5650,33368,0,0,0
48833,5633,33334,0,0,0
48807,5613,33304,0,0,0
48781,5591,33273,0,0,0
48755,5567,33240,0,0,0
48731,5542,33210,0,0,0
48711,5520,33185,0,0,0
48692,5501,33155,0,0,0
48671,5482,33119,0,0,0
48646,5463,33088,0,0,0
48623,5446,33062,0,0,0
48604,5434,33027,0,0,0
48588,5422,32987,0,0,0
48573,5409,32955,0,0,0
48557,5395,32929,0,0,0
48543,5382,32902,0,0,0
48531,5369,32876,0,0,0
48521,5356,32856,0,0,0
48510,5344,32835,0,0,0
48497,5327,32806,0,0,0
48480,5305,32773,0,0,0
48459,5282,32744,0,0,0
48433,5257,32717,0,0,0
48403,5231,32687,0,0,0
48371,5209,32656,0,0,0
48342,5192,32635,0,0,0
48322,5180,32616,0,0,0
48307,5170,32587,0,0,0
48292,5158,32558,0,0,0
48276,5147,32534,0,0,0
48264,5136,32515,0,0,0
48254,5124,32496,0,0,0
48247,5110,32479,0,0,0
48243,5096,32465,0,0,0
48240,5078,32446,0,0,0
48232,5057,32414,0,0,0
48219,5036,32380,0,0,0
48205,5020,32354,0,0,0
48190,5007,32329,0,0,0
48175,4992,32299,0,0,0
48164,4979,32273,0,0,0
48155,4969,32255,0,0,0
48143,4958,32236,0,0,0
48131,4948,32214,0,0,0
48119,4939,32191,0,0,0
48106,4930,32166,0,0,0
48091,4917,32138,0,0,0
48072,4902,32110,0,0,0
48050,4887,32086,0,0,0
48028,4873,32067,0,0,0
48008,4859,32045,0,0,0
47986,4847,32019,0,0,0
47966,4836,31992,0,0,0
47948,4825,31966,0,0,0
47929,4810,31935,0,0,0
47909,4790,31902,0,0,0
47894,4773,31878,0,0,0
47887,4760,31855,0,0,0
47887,4750,31823,0,0,0
47888,4743,31783,0,0,0
47886,4739,31745,0,0,0
47880,4737,31712,0,0,0
47873,4734,31680,0,0,0
47867,4729,31658,0,0,0
47866,4730,31652,0,0,0
47869,4736,31658,0,0,0
47876,4744,31672,0,0,0
47886,4754,31695,0,0,0
47905,4775,31736,0,0,0
47930,4809,31798,0,0,0
47963,4851,31877,0,0,0
48008,4903,31975,0,0,0
48067,4967,32093,0,0,0
48138,5044,32229,0,0,0
48221,5130,32376,0,0,0
48310,5221,32530,0,0,0
48403,5313,32691,0,0,0
48497,5405,32849,0,0,0
48589,5496,32997,0,0,0
48676,5586,33142,0,0,0
48763,5680,33291,0,0,0
48853,5770,33433,0,0,0
48939,5852,33560,0,0,0
49021,5926,33677,0,0,0
49097,5994,33783,0,0,0
49163,6050,33872,0,0,0
49213,6094,33948,0,0,0
49254,6131,34020,0,0,0
49291,6163,34090,0,0,0
49324,6190,34145,0,0,0
49352,6210,34184,0,0,0
49373,6226,34221,0,0,0
49387,6237,34256,0,0,0
49396,6243,34278,0,0,0
49396,6241,34289,0,0,0
49397,6241,34303,0,0,0
49404,6247,34320,0,0,0
49419,6254,34332,0,0,0
49436,6264,34344,0,0,0
49450,6276,34364,0,0,0
49462,6292,34383,0,0,0
49473,6308,34392,0,0,0
49483,6323,34398,0,0,0
49488,6335,34412,0,0,0
49490,6344,34430,0,0,0
49498,6349,34443,0,0,0
49514,6352,34452,0,0,0
49536,6357,34464,0,0,0
49560,6366,34479,0,0,0
49583,6375,34487,0,0,0
49598,6385,34491,0,0,0
49605,6391,34496,0,0,0
49609,6394,34499,0,0,0
49610,6393,34496,0,0,0
49606,6389,34489,0,0,0
49601,6383,34483,0,0,0
49596,6375,34469,0,0,0
49588,6360,34445,0,0,0
49575,6341,34422,0,0,0
49562,6325,34408,0,0,0
49556,6316,34395,0,0,0
49553,6309,34374,0,0,0
49550,6301,34352,0,0,0
49549,6295,34342,0,0,0
49551,6292,34335,0,0,0
49552,6286,34323,0,0,0
49553,6279,34313,0,0,0
49551,6276,34309,0,0,0
49549,6275,34306,0,0,0
49547,6276,34306,0,0,0
49548,6283,34318,0,0,0
49554,6293,34340,0,0,0
49563,6303,34359,0,0,0
49575,6311,34373,0,0,0
49583,6317,34386,0,0,0
49587,6321,34400,0,0,0
49594,6326,34406,0,0,0
49604,6330,34407,0,0,0
49615,6337,34413,0,0,0
49629,6346,34419,0,0,0
49642,6354,34414,0,0,0
49651,6360,34402,0,0,0
49652,6363,34391,0,0,0
49648,6363,34381,0,0,0
49639,6357,34365,0,0,0
49623,6345,34350,0,0,0
49601,6330,34343,0,0,0
49577,6316,34337,0,0,0
49555,6302,34321,0,0,0
49538,6288,34299,0,0,0
49522,6272,34278,0,0,0
49507,6256,34254,0,0,0
49490,6238,34220,0,0,0
49469,6217,34185,0,0,0
49441,6195,34155,0,0,0
49409,6174,34124,0,0,0
49377,6151,34089,0,0,0
49347,6128,34057,0,0,0
49321,6105,34031,0,0,0
49300,6084,34004,0,0,0
49282,6062,33973,0,0,0
49261,6037,33940,0,0,0
49235,6010,33908,0,0,0
49208,5984,33877,0,0,0
49180,5959,33844,0,0,0
49151,5936,33815,0,0,0
49128,5919,33792,0,0,0
49112,5904,33763,0,0,0
49098,5887,33727,0,0,0
49078,5867,33696,0,0,0
49055,5847,33671,0,0,0
49033,5829,33646,0,0,0
49016,5810,33618,0,0,0
49000,5792,33593,0,0,0
48982,5776,33569,0,0,0
48965,5764,33540,0,0,0
48951,5754,33507,0,0,0
48936,5742,33476,0,0,0
48919,5727,33448,0,0,0
48902,5709,33411,0,0,0
48884,5688,33368,0,0,0
48862,5669,33334,0,0,0
48838,5651,33307,0,0,0
48811,5632,33275,0,0,0
48782,5616,33239,0,0,0
48755,5602,33213,0,0,0
48733,5589,33199,0,0,0
48717,5576,33181,0,0,0
48706,5565,33156,0,0,0
48696,5552,33136,0,0,0
48686,5537,33119,0,0,0
48673,5518,33097,0,0,0
48658,5497,33072,0,0,0
48644,5481,33050,0,0,0
48630,5469,33031,0,0,0
48617,5458,33008,0,0,0
48604,5443,32983,0,0,0
48586,5426,32957,0,0,0
48567,5410,32931,0,0,0
48546,5394,32901,0,0,0
48528,5378,32874,0,0,0
48516,5364,32858,0,0,0
48508,5351,32846,0,0,0
48498,5340,32829,0,0,0
48485,5330,32806,0,0,0
48475,5325,32779,0,0,0
48464,5319,32745,0,0,0
48449,5307,32707,0,0,0
48433,5292,32677,0,0,0
48417,5278,32653,0,0,0
48398,5261,32623,0,0,0
48374,5239,32589,0,0,0
48349,5219,32561,0,0,0
48328,5201,32538,0,0,0
48313,5185,32508,0,0,0
48297,5168,32473,0,0,0
48277,5149,32440,0,0,0
48253,5127,32406,0,0,0
48230,5106,32369,0,0,0
48212,5090,32336,0,0,0
48199,5080,32314,0,0,0
48186,5068,32293,0,0,0
48177,5051,32258,0,0,0
48166,5028,32214,0,0,0
48152,5005,32176,0,0,0
48139,4986,32148,0,0,0
48128,4972,32124,0,0,0
48121,4964,32106,0,0,0
48117,4961,32096,0,0,0
48115,4960,32085,0,0,0
48113,4960,32068,0,0,0
48111,4961,32049,0,0,0
48112,4965,32038,0,0,0
48119,4975,32038,0,0,0
48136,4991,32050,0,0,0
48161,5015,32077,0,0,0
48192,5049,32125,0,0,0
48236,5096,32194,0,0,0
48294,5158,32284,0,0,0
48363,5232,32395,0,0,0
48443,5316,32526,0,0,0
48535,5408,32667,0,0,0
48634,5504,32814,0,0,0
48736,5602,32972,0,0,0
48837,5703,33144,0,0,0
48940,5805,33316,0,0,0
49043,5905,33479,0,0,0
49145,6001,33633,0,0,0
49244,6095,33784,0,0,0
49341,6187,33929,0,0,0
49430,6274,34066,0,0,0
49505,6352,34198,0,0,0
49564,6420,34319,0,0,0
49609,6476,34419,0,0,0
49646,6522,34501,0,0,0
49680,6562,34578,0,0,0
49715,6600,34654,0,0,0
49750,6634,34723,0,0,0
49778,6661,34776,0,0,0
49795,6681,34816,0,0,0
49802,6695,34844,0,0,0
49804,6702,34855,0,0,0
49801,6704,34857,0,0,0
49799,6707,34871,0,0,0
49803,6715,34895,0,0,0
49814,6727,34919,0,0,0
49828,6738,34943,0,0,0
49842,6749,34976,0,0,0
49855,6759,35011,0,0,0
49864,6768,35037,0,0,0
49867,6772,35052,0,0,0
49865,6771,35069,0,0,0
49860,6769,35084,0,0,0
49856,6766,35092,0,0,0
49850,6763,35095,0,0,0
49844,6763,35100,0,0,0
49842,6769,35109,0,0,0
49846,6778,35119,0,0,0
49848,6784,35130,0,0,0
49842,6785,35139,0,0,0
49832,6783,35142,0,0,0
49821,6782,35141,0,0,0
49807,6780,35140,0,0,0
49787,6776,35136,0,0,0
49761,6768,35121,0,0,0
49734,6754,35094,0,0,0
49710,6737,35066,0,0,0
49689,6722,35048,0,0,0
49675,6713,35034,0,0,0
49666,6709,35019,0,0,0
49661,6709,35007,0,0,0
49661,6709,34997,0,0,0
49665,6709,34984,0,0,0
49666,6706,34969,0,0,0
49660,6698,34958,0,0,0
49650,6689,34951,0,0,0
49639,6681,34939,0,0,0
49632,6677,34927,0,0,0
49629,6679,34926,0,0,0
49624,6685,34928,0,0,0
49617,6689,34925,0,0,0
49604,6688,34922,0,0,0
49589,6684,34926,0,0,0
49572,6678,34931,0,0,0
49556,6672,34928,0,0,0
49540,6666,34922,0,0,0
49527,6665,34923,0,0,0
49519,6670,34927,0,0,0
49512,6676,34925,0,0,0
49501,6678,34915,0,0,0
49486,6676,34907,0,0,0
49466,6669,34897,0,0,0
49442,6658,34881,0,0,0
49419,6648,34865,0,0,0
49400,6641,34855,0,0,0
49387,6637,34846,0,0,0
49379,6632,34832,0,0,0
49373,6627,34816,0,0,0
49367,6623,34801,0,0,0
49361,6619,34786,0,0,0
49352,6613,34766,0,0,0
49342,6604,34747,0,0,0
49330,6596,34732,0,0,0
49313,6584,34711,0,0,0
49293,6569,34676,0,0,0
49270,6550,34639,0,0,0
49243,6526,34603,0,0,0
49216,6497,34565,0,0,0
49195,6467,34523,0,0,0
49181,6443,34491,0,0,0
49171,6429,34471,0,0,0
49166,6421,34450,0,0,0
49163,6415,34423,0,0,0
49158,6411,34396,0,0,0
49152,6410,34373,0,0,0
49142,6405,34345,0,0,0
49127,6393,34315,0,0,0
49112,6380,34292,0,0,0
49100,6370,34277,0,0,0
49092,6359,34260,0,0,0
49083,6346,34239,0,0,0
49070,6327,34217,0,0,0
49052,6304,34190,0,0,0
49028,6280,34154,0,0,0
49000,6256,34116,0,0,0
48968,6234,34088,0,0,0
48934,6212,34064,0,0,0
48896,6188,34033,0,0,0
48855,6163,34001,0,0,0
48811,6139,33977,0,0,0
48766,6116,33954,0,0,0
48717,6092,33920,0,0,0
48667,6067,33882,0,0,0
48617,6040,33850,0,0,0
48567,6014,33819,0,0,0
48523,5989,33785,0,0,0
48490,5968,33754,0,0,0
48465,5955,33733,0,0,0
48443,5945,33712,0,0,0
48424,5936,33683,0,0,0
48403,5926,33655,0,0,0
48379,5917,33629,0,0,0
48357,5906,33605,0,0,0
48341,5893,33579,0,0,0
48331,5880,33557,0,0,0
48321,5871,33539,0,0,0
48310,5864,33517,0,0,0
48297,5855,33490,0,0,0
48278,5839,33463,0,0,0
48248,5818,33437,0,0,0
48210,5793,33403,0,0,0
48168,5767,33364,0,0,0
48126,5744,33329,0,0,0
48089,5729,33303,0,0,0
48062,5721,33280,0,0,0
48043,5715,33254,0,0,0
48028,5709,33230,0,0,0
48017,5702,33209,0,0,0
48010,5691,33182,0,0,0
48007,5670,33145,0,0,0
48001,5646,33107,0,0,0
47990,5623,33072,0,0,0
47979,5603,33037,0,0,0
47966,5587,33003,0,0,0
47946,5570,32971,0,0,0
47923,5553,32941,0,0,0
47899,5536,32902,0,0,0
47873,5515,32859,0,0,0
47846,5495,32825,0,0,0
47823,5480,32799,0,0,0
47804,5471,32770,0,0,0
47789,5464,32738,0,0,0
47776,5459,32715,0,0,0
47763,5453,32695,0,0,0
47748,5442,32669,0,0,0
47729,5425,32641,0,0,0
47709,5402,32617,0,0,0
47688,5374,32593,0,0,0
47667,5347,32564,0,0,0
47650,5327,32541,0,0,0
47644,5318,32534,0,0,0
47647,5321,32539,0,0,0
47659,5334,32553,0,0,0
47678,5355,32581,0,0,0
47706,5387,32625,0,0,0
47744,5429,32687,0,0,0
47790,5480,32762,0,0,0
47849,5543,32860,0,0,0
47920,5621,32981,0,0,0
48001,5710,33116,0,0,0
48089,5802,33257,0,0,0
48180,5894,33409,0,0,0
48274,5987,33567,0,0,0
48372,6078,33719,0,0,0
48471,6167,33867,0,0,0
48565,6258,34022,0,0,0
48656,6353,34177,0,0,0
48745,6446,34320,0,0,0
48831,6531,34449,0,0,0
48908,6603,34568,0,0,0
48977,6667,34676,0,0,0
49037,6721,34764,0,0,0
49084,6765,34832,0,0,0
49117,6800,34892,0,0,0
49141,6829,34947,0,0,0
49160,6850,34989,0,0,0
49172,6863,35020,0,0,0
49180,6871,35049,0,0,0
49189,6880,35075,0,0,0
49198,6887,35087,0,0,0
49200,6888,35087,0,0,0
49197,6885,35089,0,0,0
49193,6882,35096,0,0,0
49189,6880,35097,0,0,0
49184,6878,35097,0,0,0
49184,6881,35107,0,0,0
49190,6890,35126,0,0,0
49196,6901,35143,0,0,0
49203,6913,35156,0,0,0
49212,6922,35169,0,0,0
49222,6932,35179,0,0,0
49231,6941,35184,0,0,0
49235,6946,35190,0,0,0
49239,6950,35199,0,0,0
49245,6954,35210,0,0,0
49252,6958,35214,0,0,0
49257,6961,35214,0,0,0
49259,6962,35215,0,0,0
49258,6961,35211,0,0,0
49252,6954,35193,0,0,0
49243,6942,35165,0,0,0
49230,6928,35137,0,0,0
49213,6913,35110,0,0,0
49193,6900,35085,0,0,0
49176,6888,35064,0,0,0
49165,6881,35046,0,0,0
49157,6873,35023,0,0,0
49147,6862,34993,0,0,0
49135,6848,34967,0,0,0
49122,6833,34944,0,0,0
49114,6820,34920,0,0,0
49114,6812,34898,0,0,0
49121,6808,34888,0,0,0
49133,6810,34890,0,0,0
49149,6812,34893,0,0,0
49166,6814,34895,0,0,0
49181,6815,34902,0,0,0
49193,6819,34913,0,0,0
49202,6822,34916,0,0,0
49209,6826,34916,0,0,0
49212,6829,34924,0,0,0
49210,6830,34936,0,0,0
49208,6833,34941,0,0,0
49208,6836,34940,0,0,0
49208,6837,34943,0,0,0
49207,6835,34945,0,0,0
49203,6830,34937,0,0,0
49195,6821,34924,0,0,0
49183,6811,34916,0,0,0
49169,6802,34909,0,0,0
49152,6792,34893,0,0,0
49131,6781,34867,0,0,0
49111,6772,34840,0,0,0
49090,6761,34813,0,0,0
49067,6745,34782,0,0,0
49042,6726,34753,0,0,0
49020,6709,34734,0,0,0
49005,6696,34713,0,0,0
48996,6686,34683,0,0,0
48987,6677,34652,0,0,0
48978,6669,34626,0,0,0
48964,6659,34600,0,0,0
48946,6641,34570,0,0,0
48924,6620,34543,0,0,0
48897,6598,34518,0,0,0
48871,6580,34494,0,0,0
48849,6566,34470,0,0,0
48829,6551,34450,0,0,0
48811,6532,34429,0,0,0
48790,6509,34401,0,0,0
48769,6486,34369,0,0,0
48753,6466,34340,0,0,0
48739,6451,34309,0,0,0
48729,6440,34274,0,0,0
48722,6432,34238,0,0,0
48714,6425,34209,0,0,0
48707,6419,34182,0,0,0
48702,6409,34149,0,0,0
48692,6394,34113,0,0,0
48670,6373,34083,0,0,0
48643,6353,34058,0,0,0
48617,6335,34029,0,0,0
48593,6320,33998,0,0,0
48569,6306,33975,0,0,0
48548,6290,33957,0,0,0
48533,6274,33930,0,0,0
48520,6258,33899,0,0,0
48510,6243,33873,0,0,0
48497,6230,33851,0,0,0
48479,6213,33823,0,0,0
48457,6194,33798,0,0,0
48432,6177,33780,0,0,0
48408,6163,33764,0,0,0
48391,6156,33745,0,0,0
48378,6148,33725,0,0,0
48365,6137,33709,0,0,0
48353,6122,33691,0,0,0
48338,6106,33664,0,0,0
48320,6090,33634,0,0,0
48303,6075,33609,0,0,0
48291,6062,33581,0,0,0
48283,6052,33550,0,0,0
48278,6045,33526,0,0,0
48275,6039,33508,0,0,0
48274,6031,33481,0,0,0
48270,6020,33442,0,0,0
48261,6010,33406,0,0,0
48250,6003,33375,0,0,0
48239,5997,33345,0,0,0
48225,5989,33319,0,0,0
48210,5979,33301,0,0,0
48196,5968,33286,0,0,0
48181,5953,33263,0,0,0
48162,5934,33236,0,0,0
48138,5910,33208,0,0,0
48114,5886,33178,0,0,0
48094,5866,33145,0,0,0
48076,5846,33112,0,0,0
48059,5827,33084,0,0,0
48047,5811,33062,0,0,0
48042,5799,33036,0,0,0
48040,5788,33004,0,0,0
48035,5771,32975,0,0,0
48024,5749,32944,0,0,0
48008,5724,32904,0,0,0
47990,5702,32862,0,0,0
47972,5687,32832,0,0,0
47961,5679,32812,0,0,0
47960,5682,32802,0,0,0
47969,5696,32808,0,0,0
47985,5723,32837,0,0,0
48014,5762,32888,0,0,0
48055,5810,32949,0,0,0
48105,5864,33023,0,0,0
48162,5926,33119,0,0,0
48232,5998,33230,0,0,0
48313,6075,33346,0,0,0
48400,6153,33475,0,0,0
48493,6236,33622,0,0,0
48589,6327,33774,0,0,0
48688,6419,33922,0,0,0
48787,6508,34064,0,0,0
48881,6591,34199,0,0,0
48965,6665,34326,0,0,0
49042,6732,34442,0,0,0
49110,6793,34553,0,0,0
49169,6850,34661,0,0,0
49223,6901,34756,0,0,0
49269,6945,34834,0,0,0
49308,6989,34904,0,0,0
49342,7029,34965,0,0,0
49368,7059,35009,0,0,0
49387,7080,35040,0,0,0
49397,7093,35068,0,0,0
49402,7102,35093,0,0,0
49403,7108,35106,0,0,0
49401,7110,35107,0,0,0
49397,7110,35109,0,0,0
49397,7109,35110,0,0,0
49405,7107,35108,0,0,0
49414,7104,35107,0,0,0
49421,7102,35115,0,0,0
49429,7105,35123,0,0,0
49440,7110,35121,0,0,0
49455,7116,35114,0,0,0
49470,7124,35117,0,0,0
49481,7131,35127,0,0,0
49489,7136,35133,0,0,0
49495,7138,35140,0,0,0
49499,7142,35154,0,0,0
49503,7149,35172,0,0,0
49504,7154,35183,0,0,0
49500,7155,35190,0,0,0
49491,7153,35196,0,0,0
49479,7147,35194,0,0,0
49468,7140,35178,0,0,0
49456,7131,35155,0,0,0
49445,7125,35137,0,0,0
49436,7119,35118,0,0,0
49425,7110,35090,0,0,0
49409,7100,35061,0,0,0
49391,7091,35036,0,0,0
49378,7083,35013,0,0,0
49371,7076,34989,0,0,0
49368,7071,34968,0,0,0
49371,7069,34951,0,0,0
49375,7069,34935,0,0,0
49380,7068,34916,0,0,0
49385,7065,34902,0,0,0
49386,7058,34895,0,0,0
49388,7052,34889,0,0,0
49395,7049,34884,0,0,0
49404,7047,34886,0,0,0
49419,7048,34893,0,0,0
49439,7050,34899,0,0,0
49460,7052,34902,0,0,0
49478,7055,34910,0,0,0
49494,7061,34918,0,0,0
49509,7068,34920,0,0,0
49520,7075,34917,0,0,0
49524,7080,34917,0,0,0
49525,7083,34916,0,0,0
49525,7081,34908,0,0,0
49524,7073,34893,0,0,0
49520,7063,34881,0,0,0
49515,7053,34872,0,0,0
49508,7039,34855,0,0,0
49501,7026,34837,0,0,0
49488,7011,34822,0,0,0
49472,6994,34808,0,0,0
49456,6977,34790,0,0,0
49440,6962,34771,0,0,0
49423,6949,34754,0,0,0
49404,6936,34734,0,0,0
49380,6920,34704,0,0,0
49352,6901,34667,0,0,0
49323,6883,34629,0,0,0
49295,6867,34593,0,0,0
49268,6852,34557,0,0,0
49242,6837,34526,0,0,0
49218,6822,34503,0,0,0
49199,6806,34477,0,0,0
49181,6786,34442,0,0,0
49162,6761,34407,0,0,0
49142,6735,34374,0,0,0
49128,6712,34341,0,0,0
49121,6693,34309,0,0,0
49116,6677,34285,0,0,0
49112,6664,34267,0,0,0
49108,6652,34247,0,0,0
49099,6638,34221,0,0,0
49084,6624,34193,0,0,0
49067,6611,34168,0,0,0
49050,6596,34138,0,0,0
49031,6578,34098,0,0,0
49008,6560,34057,0,0,0
48984,6540,34015,0,0,0
48961,6520,33969,0,0,0
48942,6506,33928,0,0,0
48926,6496,33900,0,0,0
48913,6488,33875,0,0,0
48900,6478,33842,0,0,0
48889,6468,33810,0,0,0
48878,6460,33792,0,0,0
48867,6453,33782,0,0,0
48856,6447,33768,0,0,0
48844,6440,33753,0,0,0
48831,6428,33742,0,0,0
48816,6410,33723,0,0,0
48802,6386,33692,0,0,0
48786,6360,33657,0,0,0
48764,6331,33625,0,0,0
48739,6302,33593,0,0,0
48714,6275,33555,0,0,0
48691,6250,33517,0,0,0
48672,6230,33489,0,0,0
48654,6214,33465,0,0,0
48637,6197,33434,0,0,0
48619,6178,33405,0,0,0
48601,6161,33384,0,0,0
48583,6145,33365,0,0,0
48564,6129,33343,0,0,0
48543,6112,33322,0,0,0
48525,6099,33305,0,0,0
48511,6093,33288,0,0,0
48498,6090,33265,0,0,0
48483,6086,33243,0,0,0
48465,6081,33224,0,0,0
48449,6073,33201,0,0,0
48435,6062,33174,0,0,0
48421,6049,33152,0,0,0
48403,6035,33131,0,0,0
48385,6018,33098,0,0,0
48371,6001,33058,0,0,0
48358,5983,33023,0,0,0
48347,5966,32991,0,0,0
48338,5948,32950,0,0,0
48327,5928,32903,0,0,0
48313,5908,32860,0,0,0
48298,5889,32825,0,0,0
48287,5870,32786,0,0,0
48275,5853,32748,0,0,0
48263,5841,32722,0,0,0
48255,5836,32708,0,0,0
48254,5837,32697,0,0,0
48257,5842,32693,0,0,0
48264,5850,32704,0,0,0
48279,5862,32728,0,0,0
48302,5879,32761,0,0,0
48332,5907,32807,0,0,0
48370,5948,32875,0,0,0
48414,6001,32962,0,0,0
48467,6061,33062,0,0,0
48525,6129,33176,0,0,0
48589,6204,33305,0,0,0
48656,6282,33436,0,0,0
48727,6360,33565,0,0,0
48803,6439,33700,0,0,0
48887,6521,33845,0,0,0
48975,6603,33990,0,0,0
49060,6681,34127,0,0,0
49139,6756,34259,0,0,0
49215,6829,34388,0,0,0
49293,6900,34508,0,0,0
49372,6966,34612,0,0,0
49444,7025,34704,0,0,0
49505,7075,34785,0,0,0
49553,7116,34852,0,0,0
49591,7149,34904,0,0,0
49618,7181,34952,0,0,0
49640,7210,34998,0,0,0
49661,7235,35036,0,0,0
49680,7254,35062,0,0,0
49692,7265,35085,0,0,0
49694,7269,35106,0,0,0
49693,7269,35119,0,0,0
49690,7266,35125,0,0,0
49683,7260,35134,0,0,0
49674,7257,35147,0,0,0
49668,7258,35156,0,0,0
49665,7262,35161,0,0,0
49664,7266,35174,0,0,0
49672,7275,35193,0,0,0
49689,7287,35211,0,0,0
49712,7299,35225,0,0,0
49737,7314,35239,0,0,0
49760,7330,35247,0,0,0
49782,7342,35246,0,0,0
49803,7351,35245,0,0,0
49819,7357,35250,0,0,0
49833,7361,35255,0,0,0
49845,7363,35254,0,0,0
49852,7363,35253,0,0,0
49853,7357,35256,0,0,0
49850,7349,35257,0,0,0
49844,7341,35247,0,0,0
49835,7335,35229,0,0,0
49823,7329,35213,0,0,0
49810,7325,35197,0,0,0
49796,7319,35170,0,0,0
49780,7311,35145,0,0,0
49767,7304,35131,0,0,0
49758,7296,35117,0,0,0
49753,7287,35098,0,0,0
49749,7279,35081,0,0,0
49746,7272,35070,0,0,0
49743,7264,35053,0,0,0
49736,7253,35028,0,0,0
49725,7241,35005,0,0,0
49716,7232,34990,0,0,0
49715,7229,34981,0,0,0
49719,7230,34975,0,0,0
49726,7231,34978,0,0,0
49734,7234,34990,0,0,0
49742,7236,34997,0,0,0
49748,7236,34998,0,0,0
49750,7233,35000,0,0,0
49752,7230,35006,0,0,0
49759,7231,35009,0,0,0
49769,7234,35010,0,0,0
49777,7234,35018,0,0,0
49784,7233,35029,0,0,0
49792,7233,35032,0,0,0
49797,7233,35029,0,0,0
49797,7229,35028,0,0,0
49789,7223,35024,0,0,0
49774,7213,35001,0,0,0
49753,7200,34967,0,0,0
49726,7184,34935,0,0,0
49698,7164,34904,0,0,0
49668,7140,34864,0,0,0
49635,7116,34819,0,0,0
49606,7098,34781,0,0,0
49580,7082,34747,0,0,0
49554,7061,34708,0,0,0
49529,7038,34665,0,0,0
49504,7012,34626,0,0,0
49477,6985,34590,0,0,0
49450,6956,34553,0,0,0
49423,6927,34516,0,0,0
49394,6900,34483,0,0,0
49366,6879,34451,0,0,0
49342,6862,34419,0,0,0
49320,6848,34390,0,0,0
49300,6835,34365,0,0,0
49280,6820,34337,0,0,0
49260,6798,34303,0,0,0
49235,6772,34271,0,0,0
49208,6743,34242,0,0,0
49182,6713,34210,0,0,0
49160,6688,34176,0,0,0
49140,6672,34148,0,0,0
49123,6658,34125,0,0,0
49107,6640,34096,0,0,0
49092,6619,34061,0,0,0
49078,6597,34028,0,0,0
49063,6576,34001,0,0,0
49046,6558,33971,0,0,0
49025,6541,33936,0,0,0
48999,6526,33905,0,0,0
48972,6511,33875,0,0,0
48948,6497,33841,0,0,0
48927,6489,33811,0,0,0
48909,6484,33794,0,0,0
48895,6481,33784,0,0,0
48881,6473,33764,0,0,0
48863,6456,33731,0,0,0
48843,6436,33700,0,0,0
48825,6419,33673,0,0,0
48809,6404,33640,0,0,0
48793,6389,33604,0,0,0
48772,6374,33571,0,0,0
48748,6357,33536,0,0,0
48721,6339,33493,0,0,0
48695,6322,33453,0,0,0
48672,6308,33423,0,0,0
48653,6294,33399,0,0,0
48642,6279,33373,0,0,0
48634,6264,33349,0,0,0
48627,6249,33333,0,0,0
48619,6230,33315,0,0,0
48605,6208,33289,0,0,0
48586,6186,33261,0,0,0
48566,6165,33235,0,0,0
48548,6143,33207,0,0,0
48531,6120,33175,0,0,0
48514,6102,33142,0,0,0
48497,6087,33109,0,0,0
48479,6070,33070,0,0,0
48460,6050,33026,0,0,0
48443,6032,32988,0,0,0
48426,6015,32955,0,0,0
48405,5993,32918,0,0,0
48383,5969,32880,0,0,0
48364,5949,32851,0,0,0
48347,5933,32830,0,0,0
48333,5920,32803,0,0,0
48323,5909,32771,0,0,0
48316,5900,32745,0,0,0
48310,5891,32723,0,0,0
48302,5880,32693,0,0,0
48292,5867,32650,0,0,0
48280,5854,32610,0,0,0
48263,5838,32577,0,0,0
48241,5818,32539,0,0,0
48215,5794,32501,0,0,0
48188,5771,32470,0,0,0
48164,5751,32445,0,0,0
48146,5734,32415,0,0,0
48133,5720,32379,0,0,0
48123,5708,32346,0,0,0
48111,5695,32316,0,0,0
48097,5679,32281,0,0,0
48082,5660,32246,0,0,0
48066,5643,32220,0,0,0
48050,5627,32196,0,0,0
48037,5611,32163,0,0,0
48025,5595,32129,0,0,0
48014,5580,32103,0,0,0
48006,5568,32079,0,0,0
47999,5557,32055,0,0,0
47994,5545,32038,0,0,0
47992,5536,32033,0,0,0
47996,5534,32038,0,0,0
48008,5543,32052,0,0,0
48029,5565,32086,0,0,0
48058,5601,32145,0,0,0
48100,5653,32227,0,0,0
48156,5720,32324,0,0,0
48222,5797,32438,0,0,0
48297,5880,32569,0,0,0
48380,5965,32705,0,0,0
48474,6054,32844,0,0,0
48576,6150,32996,0,0,0
48679,6248,33154,0,0,0
48782,6340,33306,0,0,0
48879,6426,33451,0,0,0
48969,6508,33600,0,0,0
49054,6588,33748,0,0,0
49136,6666,33883,0,0,0
49213,6738,34002,0,0,0
49280,6803,34114,0,0,0
49339,6861,34218,0,0,0
49395,6914,34305,0,0,0
49445,6959,34376,0,0,0
49485,6996,34443,0,0,0
49514,7025,34499,0,0,0
49534,7045,34535,0,0,0
49547,7059,34559,0,0,0
49558,7074,34586,0,0,0
49568,7090,34618,0,0,0
49580,7103,34645,0,0,0
49591,7114,34670,0,0,0
49602,7122,34696,0,0,0
49610,7128,34716,0,0,0
49615,7133,34726,0,0,0
49618,7137,34737,0,0,0
49618,7140,34752,0,0,0
49616,7142,34764,0,0,0
49612,7143,34769,0,0,0
49609,7144,34776,0,0,0
49606,7148,34795,0,0,0
49607,7158,34819,0,0,0
49613,7171,34837,0,0,0
49620,7185,34855,0,0,0
49628,7199,34879,0,0,0
49638,7215,34898,0,0,0
49649,7230,34908,0,0,0
49658,7243,34916,0,0,0
49663,7252,34923,0,0,0
49665,7257,34924,0,0,0
49666,7257,34916,0,0,0
49668,7252,34908,0,0,0
49671,7246,34900,0,0,0
49674,7237,34884,0,0,0
49673,7226,34860,0,0,0
49671,7215,34837,0,0,0
49667,7204,34816,0,0,0
49662,7192,34790,0,0,0
49655,7180,34762,0,0,0
49644,7168,34742,0,0,0
49628,7156,34730,0,0,0
49610,7146,34718,0,0,0
49594,7137,34709,0,0,0
49580,7129,34709,0,0,0
49567,7124,34712,0,0,0
49558,7121,34705,0,0,0
49554,7119,34693,0,0,0
49548,7115,34685,0,0,0
49537,7110,34681,0,0,0
49525,7105,34676,0,0,0
49515,7098,34668,0,0,0
49506,7089,34662,0,0,0
49503,7085,34657,0,0,0
49505,7087,34648,0,0,0
49510,7091,34641,0,0,0
49517,7100,34644,0,0,0
49521,7110,34650,0,0,0
49521,7114,34648,0,0,0
49519,7111,34639,0,0,0
49514,7102,34630,0,0,0
49508,7092,34619,0,0,0
49499,7083,34603,0,0,0
49486,7074,34587,0,0,0
49469,7063,34574,0,0,0
49450,7050,34559,0,0,0
49435,7038,34538,0,0,0
49420,7029,34521,0,0,0
49403,7022,34506,0,0,0
49383,7014,34486,0,0,0
49361,7002,34461,0,0,0
49334,6985,34438,0,0,0
49306,6965,34415,0,0,0
49280,6944,34387,0,0,0
49252,6923,34355,0,0,0
49224,6900,34325,0,0,0
49197,6881,34297,0,0,0
49174,6862,34262,0,0,0
49149,6836,34221,0,0,0
49124,6808,34181,0,0,0
49099,6782,34144,0,0,0
49071,6753,34100,0,0,0
49042,6723,34053,0,0,0
49013,6692,34010,0,0,0
48982,6663,33971,0,0,0
48950,6635,33931,0,0,0
48918,6609,33890,0,0,0
48887,6586,33860,0,0,0
48854,6565,33835,0,0,0
48826,6548,33809,0,0,0
48806,6538,33786,0,0,0
48792,6533,33771,0,0,0
48780,6527,33757,0,0,0
48765,6519,33734,0,0,0
48743,6507,33702,0,0,0
48714,6491,33668,0,0,0
48683,6476,33634,0,0,0
48659,6466,33599,0,0,0
48638,6455,33567,0,0,0
48620,6443,33545,0,0,0
48606,6429,33525,0,0,0
48599,6418,33498,0,0,0
48592,6407,33467,0,0,0
48582,6394,33437,0,0,0
48573,6380,33405,0,0,0
48565,6366,33370,0,0,0
48552,6349,33340,0,0,0
48536,6332,33317,0,0,0
48520,6318,33294,0,0,0
48507,6305,33267,0,0,0
48495,6293,33242,0,0,0
48486,6283,33223,0,0,0
48478,6274,33201,0,0,0
48468,6263,33172,0,0,0
48451,6245,33147,0,0,0
48427,6225,33127,0,0,0
48399,6204,33107,0,0,0
48370,6182,33081,0,0,0
48344,6158,33058,0,0,0
48322,6136,33040,0,0,0
48302,6115,33016,0,0,0
48283,6092,32983,0,0,0
48262,6068,32949,0,0,0
48240,6047,32918,0,0,0
48220,6030,32885,0,0,0
48202,6019,32851,0,0,0
48185,6010,32823,0,0,0
48168,5999,32798,0,0,0
48152,5987,32765,0,0,0
48134,5974,32726,0,0,0
48110,5955,32686,0,0,0
48081,5933,32649,0,0,0
48055,5910,32609,0,0,0
48035,5890,32571,0,0,0
48019,5875,32545,0,0,0
48003,5864,32526,0,0,0
47987,5853,32501,0,0,0
47970,5842,32471,0,0,0
47953,5833,32446,0,0,0
47937,5823,32426,0,0,0
47918,5807,32403,0,0,0
47895,5786,32378,0,0,0
47873,5767,32356,0,0,0
47852,5752,32333,0,0,0
47833,5739,32301,0,0,0
47810,5728,32265,0,0,0
47787,5719,32231,0,0,0
47764,5711,32197,0,0,0
47740,5701,32160,0,0,0
47719,5686,32123,0,0,0
47703,5669,32090,0,0,0
47689,5650,32058,0,0,0
47678,5633,32026,0,0,0
47669,5614,31998,0,0,0
47659,5592,31973,0,0,0
47652,5570,31943,0,0,0
47645,5551,31906,0,0,0
47633,5533,31870,0,0,0
47616,5516,31840,0,0,0
47598,5500,31810,0,0,0
47582,5487,31784,0,0,0
47568,5477,31771,0,0,0
47558,5471,31767,0,0,0
47551,5475,31770,0,0,0
47551,5486,31780,0,0,0
47560,5504,31809,0,0,0
47582,5536,31857,0,0,0
47620,5584,31919,0,0,0
47669,5643,31991,0,0,0
47727,5713,32084,0,0,0
47797,5792,32200,0,0,0
47876,5876,32325,0,0,0
47960,5961,32458,0,0,0
48049,6049,32598,0,0,0
48139,6138,32743,0,0,0
48230,6226,32886,0,0,0
48321,6314,33032,0,0,0
48413,6403,33187,0,0,0
48500,6487,33335,0,0,0
48584,6562,33468,0,0,0
48664,6630,33592,0,0,0
48739,6694,33713,0,0,0
48810,6757,33829,0,0,0
48873,6816,33929,0,0,0
48924,6866,34011,0,0,0
48963,6907,34083,0,0,0
48993,6939,34143,0,0,0
49014,6959,34188,0,0,0
49029,6976,34230,0,0,0
49044,6995,34278,0,0,0
49059,7014,34320,0,0,0
49072,7028,34349,0,0,0
49083,7040,34373,0,0,0
49096,7056,34398,0,0,0
49109,7072,34416,0,0,0
49122,7086,34423,0,0,0
49133,7098,34426,0,0,0
49143,7108,34432,0,0,0
49151,7114,34437,0,0,0
49154,7118,34438,0,0,0
49158,7122,34444,0,0,0
49168,7129,34455,0,0,0
49183,7136,34462,0,0,0
49197,7144,34466,0,0,0
49206,7154,34476,0,0,0
49212,7163,34486,0,0,0
49216,7171,34488,0,0,0
49218,7178,34484,0,0,0
49217,7183,34488,0,0,0
49219,7187,34498,0,0,0
49226,7192,34503,0,0,0
49232,7195,34509,0,0,0
49232,7192,34518,0,0,0
49226,7180,34522,0,0,0
49219,7161,34511,0,0,0
49210,7143,34490,0,0,0
49200,7129,34474,0,0,0
49192,7117,34461,0,0,0
49185,7106,34442,0,0,0
49179,7094,34418,0,0,0
49173,7081,34397,0,0,0
49167,7072,34379,0,0,0
49162,7064,34358,0,0,0
49153,7056,34336,0,0,0
49140,7049,34322,0,0,0
49134,7047,34314,0,0,0
49135,7046,34305,0,0,0
49139,7047,34297,0,0,0
49144,7049,34296,0,0,0
49148,7051,34296,0,0,0
49152,7052,34292,0,0,0
49156,7050,34294,0,0,0
49157,7050,34306,0,0,0
49157,7051,34318,0,0,0
49154,7051,34326,0,0,0
49152,7052,34333,0,0,0
49147,7054,34344,0,0,0
49139,7056,34347,0,0,0
49129,7056,34343,0,0,0
49120,7057,34343,0,0,0
49110,7059,34346,0,0,0
49101,7060,34347,0,0,0
49090,7058,34346,0,0,0
49078,7055,34350,0,0,0
49068,7054,34351,0,0,0
49060,7052,34342,0,0,0
49052,7046,34321,0,0,0
49040,7035,34299,0,0,0
49026,7023,34279,0,0,0
49011,7013,34254,0,0,0
48996,7001,34225,0,0,0
48981,6988,34200,0,0,0
48967,6973,34176,0,0,0
48957,6957,34148,0,0,0
48948,6942,34120,0,0,0
48934,6927,34097,0,0,0
48917,6910,34068,0,0,0
48897,6889,34028,0,0,0
48871,6863,33984,0,0,0
48844,6838,33947,0,0,0
48818,6815,33913,0,0,0
48792,6792,33877,0,0,0
48768,6770,33842,0,0,0
48745,6752,33813,0,0,0
48725,6734,33782,0,0,0
48703,6712,33743,0,0,0
48680,6693,33707,0,0,0
48662,6681,33682,0,0,0
48649,6674,33660,0,0,0
48637,6668,33636,0,0,0
48623,6657,33613,0,0,0
48608,6642,33588,0,0,0
48592,6626,33554,0,0,0
48577,6610,33516,0,0,0
48557,6594,33484,0,0,0
48533,6578,33459,0,0,0
48512,6563,33433,0,0,0
48494,6548,33404,0,0,0
48476,6534,33379,0,0,0
48459,6519,33357,0,0,0
48442,6502,33326,0,0,0
48421,6481,33286,0,0,0
48399,6459,33247,0,0,0
48380,6441,33216,0,0,0
48366,6425,33190,0,0,0
48357,6412,33166,0,0,0
48349,6401,33145,0,0,0
48339,6391,33122,0,0,0
48323,6381,33093,0,0,0
48303,6369,33065,0,0,0
48281,6356,33047,0,0,0
48259,6341,33032,0,0,0
48238,6326,33007,0,0,0
48217,6309,32977,0,0,0
48196,6292,32957,0,0,0
48175,6276,32944,0,0,0
48151,6259,32925,0,0,0
48125,6241,32900,0,0,0
48102,6223,32878,0,0,0
48083,6207,32856,0,0,0
48070,6190,32829,0,0,0
48057,6173,32800,0,0,0
48043,6159,32774,0,0,0
48033,6153,32751,0,0,0
48026,6148,32723,0,0,0
48020,6141,32695,0,0,0
48015,6133,32674,0,0,0
48013,6125,32654,0,0,0
48011,6115,32627,0,0,0
48002,6101,32596,0,0,0
47987,6086,32566,0,0,0
47971,6069,32530,0,0,0
47959,6048,32487,0,0,0
47951,6029,32447,0,0,0
47948,6014,32413,0,0,0
47946,6001,32375,0,0,0
47943,5987,32331,0,0,0
47937,5971,32291,0,0,0
47928,5955,32258,0,0,0
47921,5941,32229,0,0,0
47917,5932,32205,0,0,0
47913,5927,32198,0,0,0
47914,5928,32211,0,0,0
47924,5937,32235,0,0,0
47944,5958,32270,0,0,0
47973,5990,32325,0,0,0
48012,6034,32397,0,0,0
48066,6091,32481,0,0,0
48128,6157,32575,0,0,0
48193,6228,32685,0,0,0
48261,6304,32808,0,0,0
48336,6382,32934,0,0,0
48417,6461,33062,0,0,0
48502,6543,33201,0,0,0
48588,6628,33349,0,0,0
48679,6717,33500,0,0,0
48774,6809,33652,0,0,0
48869,6901,33809,0,0,0
48961,6992,33960,0,0,0
49050,7080,34094,0,0,0
49133,7159,34214,0,0,0
49206,7230,34330,0,0,0
49271,7291,34437,0,0,0
49328,7342,34525,0,0,0
49376,7382,34597,0,0,0
49415,7414,34664,0,0,0
49446,7443,34719,0,0,0
49470,7464,34757,0,0,0
49487,7476,34785,0,0,0
49496,7484,34807,0,0,0
49501,7491,34826,0,0,0
49504,7496,34835,0,0,0
49504,7498,34841,0,0,0
49500,7500,34852,0,0,0
49498,7502,34862,0,0,0
49503,7504,34868,0,0,0
49511,7505,34872,0,0,0
49517,7507,34876,0,0,0
49527,7510,34875,0,0,0
49538,7512,34872,0,0,0
49547,7514,34877,0,0,0
49556,7519,34890,0,0,0
49566,7526,34900,0,0,0
49578,7532,34908,0,0,0
49585,7535,34918,0,0,0
49586,7535,34925,0,0,0
49587,7534,34921,0,0,0
49592,7534,34913,0,0,0
49599,7535,34911,0,0,0
49602,7534,34911,0,0,0
49602,7532,34903,0,0,0
49602,7527,34888,0,0,0
49600,7520,34872,0,0,0
49594,7508,34854,0,0,0
49586,7494,34827,0,0,0
49581,7481,34799,0,0,0
49577,7472,34780,0,0,0
49574,7464,34765,0,0,0
49575,7457,34742,0,0,0
49577,7448,34716,0,0,0
49576,7438,34697,0,0,0
49576,7429,34682,0,0,0
49578,7422,34667,0,0,0
49580,7416,34656,0,0,0
49582,7412,34655,0,0,0
49587,7410,34658,0,0,0
49597,7411,34658,0,0,0
49606,7416,34661,0,0,0
49613,7422,34673,0,0,0
49620,7429,34687,0,0,0
49627,7434,34697,0,0,0
49636,7441,34708,0,0,0
49645,7449,34723,0,0,0
49652,7455,34733,0,0,0
49658,7458,34736,0,0,0
49660,7459,34736,0,0,0
49657,7460,34739,0,0,0
49652,7460,34739,0,0,0
49646,7458,34730,0,0,0
49639,7457,34718,0,0,0
49629,7454,34706,0,0,0
49616,7445,34689,0,0,0
49600,7432,34666,0,0,0
49579,7417,34643,0,0,0
49552,7398,34617,0,0,0
49521,7374,34584,0,0,0
49490,7349,34548,0,0,0
49464,7328,34521,0,0,0
49438,7309,34500,0,0,0
49410,7284,34474,0,0,0
49382,7255,34443,0,0,0
49354,7229,34417,0,0,0
49323,7202,34390,0,0,0
49291,7177,34357,0,0,0
49259,7156,34320,0,0,0
49230,7136,34285,0,0,0
49207,7117,34251,0,0,0
49190,7100,34213,0,0,0
49174,7086,34173,0,0,0
49157,7072,34138,0,0,0
49134,7056,34103,0,0,0
49109,7036,34063,0,0,0
49086,7016,34021,0,0,0
49068,6997,33989,0,0,0
49054,6977,33959,0,0,0
49039,6952,33920,0,0,0
49023,6925,33876,0,0,0
49009,6900,33838,0,0,0
48998,6878,33806,0,0,0
48987,6858,33771,0,0,0
48974,6840,33737,0,0,0
48961,6828,33711,0,0,0
48945,6815,33690,0,0,0
48921,6797,33664,0,0,0
48895,6778,33638,0,0,0
48871,6764,33616,0,0,0
48853,6751,33589,0,0,0
48839,6739,33555,0,0,0
48826,6728,33523,0,0,0
48813,6716,33497,0,0,0
48799,6701,33469,0,0,0
48780,6681,33435,0,0,0
48757,6658,33403,0,0,0
48732,6637,33374,0,0,0
48710,6617,33342,0,0,0
48689,6599,33308,0,0,0
48667,6583,33280,0,0,0
48648,6568,33256,0,0,0
48630,6550,33226,0,0,0
48613,6529,33186,0,0,0
48594,6507,33153,0,0,0
48577,6489,33127,0,0,0
48566,6478,33100,0,0,0
48556,6470,33073,0,0,0
48545,6462,33051,0,0,0
48534,6455,33027,0,0,0
48524,6444,32991,0,0,0
48512,6428,32945,0,0,0
48495,6409,32903,0,0,0
48475,6390,32864,0,0,0
48456,6375,32825,0,0,0
48440,6364,32793,0,0,0
48427,6356,32772,0,0,0
48416,6346,32757,0,0,0
48401,6332,32739,0,0,0
48382,6312,32716,0,0,0
48362,6291,32697,0,0,0
48344,6272,32675,0,0,0
48330,6255,32643,0,0,0
48319,6238,32606,0,0,0
48312,6220,32576,0,0,0
48308,6205,32552,0,0,0
48303,6193,32523,0,0,0
48295,6180,32492,0,0,0
48282,6164,32462,0,0,0
48265,6144,32427,0,0,0
48246,6121,32385,0,0,0
48226,6097,32343,0,0,0
48203,6073,32308,0,0,0
48183,6053,32276,0,0,0
48173,6038,32246,0,0,0
48168,6028,32224,0,0,0
48169,6021,32210,0,0,0
48175,6022,32204,0,0,0
48183,6030,32208,0,0,0
48195,6045,32227,0,0,0
48215,6068,32260,0,0,0
48246,6100,32305,0,0,0
48291,6146,32371,0,0,0
48349,6205,32467,0,0,0
48417,6273,32585,0,0,0
48492,6348,32710,0,0,0
48572,6432,32844,0,0,0
48654,6522,32995,0,0,0
48740,6618,33157,0,0,0
48832,6720,33322,0,0,0
48930,6826,33490,0,0,0
49034,6934,33665,0,0,0
49141,7037,33840,0,0,0
49243,7132,34002,0,0,0
49340,7221,34153,0,0,0
49430,7307,34303,0,0,0
49512,7387,34445,0,0,0
49586,7457,34569,0,0,0
49650,7515,34675,0,0,0
49702,7564,34772,0,0,0
49747,7608,34856,0,0,0
49790,7646,34919,0,0,0
49826,7677,34970,0,0,0
49856,7703,35021,0,0,0
49880,7724,35065,0,0,0
49900,7739,35096,0,0,0
49919,7754,35123,0,0,0
49938,7769,35153,0,0,0
49957,7785,35177,0,0,0
49976,7800,35191,0,0,0
49994,7815,35208,0,0,0
50008,7829,35233,0,0,0
50022,7844,35260,0,0,0
50036,7857,35286,0,0,0
50051,7870,35313,0,0,0
50068,7884,35338,0,0,0
50085,7894,35354,0,0,0
50100,7899,35363,0,0,0
50110,7905,35378,0,0,0
50118,7914,35397,0,0,0
50126,7924,35412,0,0,0
50131,7933,35424,0,0,0
50137,7942,35441,0,0,0
50146,7950,35460,0,0,0
50158,7954,35473,0,0,0
50169,7956,35478,0,0,0
50178,7955,35483,0,0,0
50183,7952,35487,0,0,0
50187,7943,35478,0,0,0
50190,7932,35460,0,0,0
50188,7920,35443,0,0,0
50183,7907,35427,0,0,0
50177,7892,35404,0,0,0
50168,7878,35378,0,0,0
50159,7866,35359,0,0,0
50150,7854,35343,0,0,0
50143,7845,35321,0,0,0
50140,7841,35299,0,0,0
50140,7840,35288,0,0,0
50139,7843,35281,0,0,0
50140,7848,35266,0,0,0
50143,7852,35250,0,0,0
50144,7852,35242,0,0,0
50144,7851,35242,0,0,0
50147,7851,35245,0,0,0
50152,7855,35256,0,0,0
50161,7864,35274,0,0,0
50173,7873,35289,0,0,0
50180,7879,35295,0,0,0
50183,7879,35295,0,0,0
50182,7878,35296,0,0,0
50185,7875,35296,0,0,0
50193,7871,35291,0,0,0
50204,7867,35285,0,0,0
50215,7866,35280,0,0,0
50226,7868,35275,0,0,0
50232,7868,35267,0,0,0
50233,7865,35256,0,0,0
50233,7864,35246,0,0,0
50233,7863,35235,0,0,0
50230,7860,35218,0,0,0
50223,7853,35203,0,0,0
50213,7844,35188,0,0,0
50199,7834,35169,0,0,0
50180,7821,35146,0,0,0
50152,7806,35123,0,0,0
50117,7788,35102,0,0,0
50084,7771,35075,0,0,0
50052,7752,35045,0,0,0
50022,7729,35018,0,0,0
49995,7706,34991,0,0,0
49972,7683,34956,0,0,0
49947,7658,34917,0,0,0
49915,7630,34885,0,0,0
49881,7602,34857,0,0,0
49849,7576,34823,0,0,0
49820,7554,34786,0,0,0
49796,7535,34757,0,0,0
49775,7520,34731,0,0,0
49753,7504,34697,0,0,0
49727,7487,34657,0,0,0
49696,7467,34619,0,0,0
49664,7445,34582,0,0,0
49634,7422,34541,0,0,0
49606,7396,34501,0,0,0
49579,7373,34466,0,0,0
49557,7353,34429,0,0,0
49542,7335,34388,0,0,0
49531,7316,34350,0,0,0
49521,7296,34315,0,0,0
49509,7275,34280,0,0,0
49489,7252,34240,0,0,0
49465,7232,34205,0,0,0
49445,7215,34181,0,0,0
49428,7201,34159,0,0,0
49413,7187,34133,0,0,0
49399,7173,34109,0,0,0
49387,7163,34087,0,0,0
49378,7156,34063,0,0,0
49366,7148,34035,0,0,0
49347,7137,34012,0,0,0
49321,7123,33990,0,0,0
49294,7103,33962,0,0,0
49267,7077,33931,0,0,0
49242,7050,33906,0,0,0
49216,7026,33883,0,0,0
49194,7006,33855,0,0,0
49175,6989,33821,0,0,0
49152,6970,33792,0,0,0
49126,6950,33764,0,0,0
49098,6924,33727,0,0,0
49071,6898,33687,0,0,0
49046,6875,33657,0,0,0
49022,6857,33635,0,0,0
49004,6843,33610,0,0,0
48987,6832,33581,0,0,0
48968,6823,33556,0,0,0
48944,6809,33531,0,0,0
48920,6787,33493,0,0,0
48896,6762,33450,0,0,0
48871,6739,33411,0,0,0
48844,6718,33374,0,0,0
48818,6694,33332,0,0,0
48792,6669,33289,0,0,0
48766,6645,33252,0,0,0
48740,6623,33220,0,0,0
48715,6599,33186,0,0,0
48691,6574,33155,0,0,0
48668,6552,33129,0,0,0
48652,6536,33104,0,0,0
48640,6526,33076,0,0,0
48625,6519,33046,0,0,0
48604,6511,33017,0,0,0
48578,6496,32981,0,0,0
48551,6474,32937,0,0,0
48524,6451,32893,0,0,0
48497,6430,32850,0,0,0
48470,6410,32807,0,0,0
48441,6389,32766,0,0,0
48410,6369,32732,0,0,0
48382,6348,32705,0,0,0
48358,6329,32675,0,0,0
48338,6314,32644,0,0,0
48321,6300,32618,0,0,0
48304,6284,32592,0,0,0
48290,6262,32557,0,0,0
48282,6236,32515,0,0,0
48277,6212,32481,0,0,0
48273,6194,32456,0,0,0
48271,6181,32429,0,0,0
48269,6171,32398,0,0,0
48270,6163,32379,0,0,0
48274,6161,32380,0,0,0
48285,6170,32396,0,0,0
48304,6187,32427,0,0,0
48333,6217,32480,0,0,0
48375,6260,32551,0,0,0
48432,6318,32636,0,0,0
48503,6392,32741,0,0,0
48583,6478,32874,0,0,0
48675,6575,33029,0,0,0
48777,6681,33196,0,0,0
48887,6790,33373,0,0,0
48998,6902,33561,0,0,0
49109,7014,33751,0,0,0
49218,7124,33936,0,0,0
49320,7230,34115,0,0,0
49419,7333,34295,0,0,0
49518,7434,34472,0,0,0
49617,7530,34640,0,0,0
49707,7619,34796,0,0,0
49782,7697,34940,0,0,0
49844,7765,35065,0,0,0
49898,7823,35172,0,0,0
49948,7877,35269,0,0,0
49998,7927,35364,0,0,0
50046,7975,35451,0,0,0
50089,8016,35527,0,0,0
50121,8049,35593,0,0,0
50144,8072,35649,0,0,0
50159,8091,35687,0,0,0
50169,8108,35712,0,0,0
50178,8125,35738,0,0,0
50185,8141,35767,0,0,0
50191,8155,35789,0,0,0
50199,8168,35806,0,0,0
50208,8179,35826,0,0,0
50215,8188,35848,0,0,0
50222,8197,35865,0,0,0
50228,8204,35878,0,0,0
50238,8214,35900,0,0,0
50256,8231,35933,0,0,0
50280,8251,35963,0,0,0
50304,8270,35990,0,0,0
50328,8287,36019,0,0,0
50351,8304,36049,0,0,0
50372,8319,36073,0,0,0
50389,8330,36091,0,0,0
50405,8341,36113,0,0,0
50415,8350,36134,0,0,0
50419,8354,36142,0,0,0
50418,8354,36140,0,0,0
50410,8353,36136,0,0,0
50399,8351,36131,0,0,0
50386,8346,36121,0,0,0
50371,8338,36112,0,0,0
50356,8333,36107,0,0,0
50337,8326,36097,0,0,0
50317,8314,36076,0,0,0
50299,8299,36054,0,0,0
50280,8286,36039,0,0,0
50261,8275,36032,0,0,0
50245,8270,36035,0,0,0
50235,8272,36051,0,0,0
50235,8279,36082,0,0,0
50240,8287,36116,0,0,0
50242,8295,36147,0,0,0
50241,8302,36175,0,0,0
50240,8311,36198,0,0,0
50239,8319,36217,0,0,0
50243,8328,36233,0,0,0
50253,8338,36249,0,0,0
50266,8347,36266,0,0,0
50280,8354,36279,0,0,0
50294,8358,36286,0,0,0
50308,8361,36291,0,0,0
50320,8365,36299,0,0,0
50327,8365,36309,0,0,0
50329,8362,36319,0,0,0
50327,8359,36330,0,0,0
50325,8355,36337,0,0,0
50323,8350,36334,0,0,0
50321,8344,36324,0,0,0
50314,8336,36310,0,0,0
50303,8327,36293,0,0,0
50286,8320,36274,0,0,0
50267,8313,36259,0,0,0
50245,8306,36246,0,0,0
50219,8296,36230,0,0,0
50189,8283,36209,0,0,0
50156,8268,36183,0,0,0
50123,8254,36155,0,0,0
50095,8238,36126,0,0,0
50068,8218,36093,0,0,0
50044,8196,36057,0,0,0
50023,8175,36019,0,0,0
50002,8155,35978,0,0,0
49981,8136,35942,0,0,0
49962,8116,35910,0,0,0
49944,8094,35879,0,0,0
49925,8069,35845,0,0,0
49903,8042,35809,0,0,0
49880,8019,35774,0,0,0
49858,8002,35743,0,0,0
49837,7989,35714,0,0,0
49819,7978,35688,0,0,0
49804,7965,35665,0,0,0
49789,7949,35639,0,0,0
49774,7930,35604,0,0,0
49761,7911,35564,0,0,0
49745,7893,35519,0,0,0
49726,7877,35474,0,0,0
49704,7861,35433,0,0,0
49677,7843,35400,0,0,0
49653,7824,35372,0,0,0
49634,7806,35347,0,0,0
49615,7788,35318,0,0,0
49600,7772,35289,0,0,0
49587,7758,35256,0,0,0
49575,7743,35220,0,0,0
49559,7728,35181,0,0,0
49537,7710,35143,0,0,0
49512,7693,35113,0,0,0
49487,7677,35093,0,0,0
49463,7658,35076,0,0,0
49444,7638,35057,0,0,0
49431,7617,35040,0,0,0
49425,7597,35021,0,0,0
49418,7576,34997,0,0,0
49406,7558,34969,0,0,0
49388,7543,34938,0,0,0
49368,7529,34904,0,0,0
49348,7513,34866,0,0,0
49326,7497,34830,0,0,0
49311,7486,34801,0,0,0
49299,7478,34779,0,0,0
49288,7467,34758,0,0,0
49273,7453,34732,0,0,0
49256,7437,34703,0,0,0
49236,7423,34674,0,0,0
49211,7406,34641,0,0,0
49184,7388,34602,0,0,0
49160,7370,34562,0,0,0
49135,7352,34527,0,0,0
49110,7334,34497,0,0,0
49086,7315,34465,0,0,0
49064,7298,34433,0,0,0
49045,7281,34406,0,0,0
49030,7266,34384,0,0,0
49016,7252,34364,0,0,0
49000,7235,34341,0,0,0
48982,7213,34308,0,0,0
48965,7188,34272,0,0,0
48952,7165,34243,0,0,0
48942,7143,34220,0,0,0
48935,7121,34198,0,0,0
48924,7101,34172,0,0,0
48908,7081,34134,0,0,0
48890,7062,34087,0,0,0
48868,7049,34040,0,0,0
48846,7042,33998,0,0,0
48827,7043,33962,0,0,0
48816,7049,33937,0,0,0
48814,7060,33927,0,0,0
48822,7077,33931,0,0,0
48841,7105,33957,0,0,0
48874,7148,34013,0,0,0
48921,7205,34098,0,0,0
48975,7269,34204,0,0,0
49039,7341,34330,0,0,0
49117,7422,34476,0,0,0
49206,7512,34645,0,0,0
49298,7607,34825,0,0,0
49393,7704,35003,0,0,0
49495,7801,35176,0,0,0
49602,7895,35344,0,0,0
49713,7991,35514,0,0,0
49829,8090,35687,0,0,0
49941,8188,35856,0,0,0
50044,8283,36010,0,0,0
50137,8373,36149,0,0,0
50222,8457,36277,0,0,0
50299,8532,36401,0,0,0
50367,8599,36516,0,0,0
50426,8658,36626,0,0,0
50479,8710,36727,0,0,0
50526,8751,36812,0,0,0
50565,8779,36883,0,0,0
50594,8797,36944,0,0,0
50615,8810,36994,0,0,0
50631,8820,37031,0,0,0
50641,8823,37057,0,0,0
50646,8824,37073,0,0,0
50652,8828,37087,0,0,0
50657,8836,37100,0,0,0
50656,8843,37107,0,0,0
50649,8848,37108,0,0,0
50638,8852,37106,0,0,0
50627,8857,37103,0,0,0
50619,8864,37105,0,0,0
50617,8872,37113,0,0,0
50624,8882,37123,0,0,0
50639,8895,37136,0,0,0
50655,8907,37149,0,0,0
50671,8914,37158,0,0,0
50686,8917,37163,0,0,0
50695,8914,37159,0,0,0
50695,8904,37148,0,0,0
50689,8895,37139,0,0,0
50681,8888,37131,0,0,0
50667,8878,37119,0,0,0
50647,8868,37106,0,0,0
50627,8858,37091,0,0,0
50608,8848,37071,0,0,0
50590,8837,37045,0,0,0
50573,8828,37016,0,0,0
50558,8822,36989,0,0,0
50545,8814,36963,0,0,0
50533,8800,36938,0,0,0
50525,8783,36912,0,0,0
50523,8769,36893,0,0,0
50522,8753,36881,0,0,0
50518,8733,36871,0,0,0
50512,8715,36857,0,0,0
50511,8704,36844,0,0,0
50511,8700,36835,0,0,0
50513,8701,36825,0,0,0
50517,8710,36821,0,0,0
50524,8725,36827,0,0,0
50528,8740,36832,0,0,0
50529,8755,36836,0,0,0
50529,8770,36842,0,0,0
50525,8782,36849,0,0,0
50520,8787,36852,0,0,0
50517,8789,36853,0,0,0
50515,8785,36852,0,0,0
50512,8776,36850,0,0,0
50506,8765,36846,0,0,0
50500,8754,36843,0,0,0
50493,8741,36842,0,0,0
50484,8727,36838,0,0,0
50472,8713,36828,0,0,0
50455,8699,36811,0,0,0
50435,8685,36786,0,0,0
50410,8669,36756,0,0,0
50385,8654,36727,0,0,0
50362,8639,36697,0,0,0
50340,8622,36662,0,0,0
50316,8603,36621,0,0,0
50291,8583,36577,0,0,0
50266,8563,36534,0,0,0
50243,8545,36494,0,0,0
50221,8530,36461,0,0,0
50205,8515,36434,0,0,0
50192,8498,36405,0,0,0
50178,8474,36374,0,0,0
50162,8448,36342,0,0,0
50143,8424,36310,0,0,0
50118,8401,36279,0,0,0
50088,8376,36250,0,0,0
50054,8351,36219,0,0,0
50021,8329,36190,0,0,0
49992,8313,36165,0,0,0
49967,8302,36140,0,0,0
49945,8291,36108,0,0,0
49920,8275,36063,0,0,0
49892,8255,36012,0,0,0
49861,8232,35956,0,0,0
49831,8205,35896,0,0,0
49805,8180,35843,0,0,0
49786,8158,35802,0,0,0
49770,8135,35764,0,0,0
49755,8108,35722,0,0,0
49740,8082,35676,0,0,0
49723,8061,35627,0,0,0
49703,8043,35576,0,0,0
49685,8029,35527,0,0,0
49665,8016,35485,0,0,0
49644,8005,35450,0,0,0
49624,7996,35420,0,0,0
49604,7984,35390,0,0,0
49582,7964,35354,0,0,0
49557,7938,35315,0,0,0
49533,7912,35278,0,0,0
49511,7888,35248,0,0,0
49487,7865,35225,0,0,0
49463,7844,35213,0,0,0
49441,7827,35205,0,0,0
49419,7808,35190,0,0,0
49395,7787,35165,0,0,0
49370,7763,35133,0,0,0
49343,7738,35097,0,0,0
49316,7710,35057,0,0,0
49293,7682,35017,0,0,0
49271,7658,34978,0,0,0
49247,7640,34943,0,0,0
49227,7628,34915,0,0,0
49212,7619,34891,0,0,0
49203,7611,34868,0,0,0
49193,7600,34839,0,0,0
49181,7586,34806,0,0,0
49165,7574,34774,0,0,0
49147,7564,34744,0,0,0
49123,7550,34705,0,0,0
49097,7533,34658,0,0,0
49073,7516,34614,0,0,0
49056,7500,34577,0,0,0
49042,7479,34546,0,0,0
49026,7453,34517,0,0,0
49015,7430,34499,0,0,0
49013,7413,34491,0,0,0
49014,7399,34487,0,0,0
49021,7393,34492,0,0,0
49037,7400,34514,0,0,0
49057,7420,34548,0,0,0
49080,7455,34597,0,0,0
49113,7502,34666,0,0,0
49157,7561,34754,0,0,0
49211,7632,34862,0,0,0
49275,7716,34987,0,0,0
49351,7810,35125,0,0,0
49440,7909,35278,0,0,0
49540,8010,35443,0,0,0
49649,8113,35614,0,0,0
49762,8219,35788,0,0,0
49874,8324,35965,0,0,0
49981,8425,36136,0,0,0
50080,8519,36294,0,0,0
50171,8606,36440,0,0,0
50259,8689,36580,0,0,0
50347,8767,36711,0,0,0
50428,8836,36829,0,0,0
50501,8897,36936,0,0,0
50566,8951,37033,0,0,0
50623,8998,37122,0,0,0
50669,9043,37199,0,0,0
50702,9080,37262,0,0,0
50729,9112,37310,0,0,0
50750,9138,37347,0,0,0
50767,9155,37377,0,0,0
50784,9167,37407,0,0,0
50800,9175,37436,0,0,0
50812,9183,37461,0,0,0
50820,9189,37479,0,0,0
50824,9197,37489,0,0,0
50832,9208,37498,0,0,0
50846,9221,37510,0,0,0
50867,9233,37522,0,0,0
50890,9244,37539,0,0,0
50908,9250,37560,0,0,0
50920,9254,37587,0,0,0
50928,9259,37618,0,0,0
50929,9267,37642,0,0,0
50927,9277,37656,0,0,0
50929,9289,37664,0,0,0
50931,9304,37666,0,0,0
50935,9318,37664,0,0,0
50938,9324,37660,0,0,0
50936,9320,37652,0,0,0
50930,9308,37642,0,0,0
50920,9292,37629,0,0,0
50905,9274,37608,0,0,0
50888,9255,37579,0,0,0
50868,9239,37545,0,0,0
50846,9221,37503,0,0,0
50822,9201,37456,0,0,0
50795,9175,37412,0,0,0
50766,9141,37373,0,0,0
50739,9108,37342,0,0,0
50717,9084,37320,0,0,0
50697,9067,37298,0,0,0
50679,9055,37274,0,0,0
50665,9049,37254,0,0,0
50650,9045,37230,0,0,0
50632,9043,37201,0,0,0
50620,9041,37177,0,0,0
50612,9036,37160,0,0,0
50606,9028,37148,0,0,0
50601,9021,37144,0,0,0
50596,9018,37148,0,0,0
50589,9020,37153,0,0,0
50580,9021,37151,0,0,0
50567,9016,37140,0,0,0
50553,9009,37129,0,0,0
50538,9005,37125,0,0,0
50527,9003,37126,0,0,0
50517,9003,37124,0,0,0
50512,9005,37120,0,0,0
50512,9012,37117,0,0,0
50513,9019,37110,0,0,0
50511,9018,37098,0,0,0
50504,9007,37084,0,0,0
50494,8990,37073,0,0,0
50486,8972,37064,0,0,0
50478,8954,37054,0,0,0
50462,8937,37034,0,0,0
50440,8920,37006,0,0,0
50416,8903,36969,0,0,0
50390,8883,36925,0,0,0
50359,8858,36871,0,0,0
50324,8829,36810,0,0,0
50290,8800,36751,0,0,0
50262,8774,36699,0,0,0
50238,8751,36656,0,0,0
50217,8730,36621,0,0,0
50197,8708,36582,0,0,0
50175,8684,36538,0,0,0
50152,8661,36499,0,0,0
50126,8636,36466,0,0,0
50095,8612,36434,0,0,0
50065,8593,36401,0,0,0
50034,8576,36364,0,0,0
50003,8561,36327,0,0,0
49972,8548,36292,0,0,0
49942,8534,36257,0,0,0
49911,8517,36219,0,0,0
49881,8500,36182,0,0,0
49856,8481,36151,0,0,0
49836,8458,36124,0,0,0
49818,8430,36095,0,0,0
49798,8400,36060,0,0,0
49777,8373,36026,0,0,0
49760,8346,35998,0,0,0
49745,8316,35971,0,0,0
49732,8282,35936,0,0,0
49719,8249,35895,0,0,0
49706,8220,35855,0,0,0
49691,8198,35819,0,0,0
49675,8182,35782,0,0,0
49657,8173,35743,0,0,0
49639,8166,35707,0,0,0
49619,8156,35669,0,0,0
49600,8146,35633,0,0,0
49581,8138,35600,0,0,0
49559,8127,35563,0,0,0
49535,8113,35517,0,0,0
49509,8094,35464,0,0,0
49485,8072,35410,0,0,0
49460,8045,35359,0,0,0
49432,8017,35314,0,0,0
49401,7990,35272,0,0,0
49372,7971,35236,0,0,0
49351,7961,35210,0,0,0
49338,7956,35191,0,0,0
49327,7951,35174,0,0,0
49309,7940,35153,0,0,0
49282,7923,35129,0,0,0
49252,7901,35098,0,0,0
49221,7874,35061,0,0,0
49196,7848,35027,0,0,0
49176,7826,34995,0,0,0
49156,7809,34958,0,0,0
49137,7791,34914,0,0,0
49121,7767,34865,0,0,0
49108,7742,34817,0,0,0
49098,7717,34771,0,0,0
49082,7688,34727,0,0,0
49060,7659,34689,0,0,0
49040,7636,34661,0,0,0
49027,7620,34642,0,0,0
49019,7606,34626,0,0,0
49011,7593,34611,0,0,0
48999,7575,34590,0,0,0
48978,7550,34557,0,0,0
48953,7526,34519,0,0,0
48937,7510,34492,0,0,0
48932,7502,34479,0,0,0
48936,7503,34481,0,0,0
48950,7514,34499,0,0,0
48974,7536,34540,0,0,0
49011,7572,34605,0,0,0
49059,7623,34690,0,0,0
49118,7684,34791,0,0,0
49188,7755,34908,0,0,0
49269,7835,35044,0,0,0
49358,7925,35194,0,0,0
49451,8022,35350,0,0,0
49547,8127,35513,0,0,0
49646,8237,35680,0,0,0
49749,8351,35850,0,0,0
49855,8462,36023,0,0,0
49960,8568,36194,0,0,0
50064,8667,36360,0,0,0
50164,8760,36518,0,0,0
50259,8844,36667,0,0,0
50352,8921,36813,0,0,0
50446,8995,36962,0,0,0
50538,9066,37107,0,0,0
50620,9129,37235,0,0,0
50689,9182,37346,0,0,0
50748,9228,37443,0,0,0
50796,9268,37529,0,0,0
50833,9304,37606,0,0,0
50865,9336,37676,0,0,0
50893,9363,37733,0,0,0
50919,9386,37780,0,0,0
50944,9407,37821,0,0,0
50969,9430,37860,0,0,0
50990,9452,37892,0,0,0
51003,9468,37908,0,0,0
51012,9484,37916,0,0,0
51024,9503,37926,0,0,0
51033,9523,37939,0,0,0
51039,9543,37955,0,0,0
51049,9564,37972,0,0,0
51063,9586,37987,0,0,0
51079,9607,37997,0,0,0
51097,9629,38005,0,0,0
51116,9649,38015,0,0,0
51135,9667,38027,0,0,0
51155,9682,38047,0,0,0
51175,9691,38070,0,0,0
51190,9693,38090,0,0,0
51196,9689,38103,0,0,0
51194,9679,38110,0,0,0
51186,9666,38111,0,0,0
51178,9653,38106,0,0,0
51171,9644,38099,0,0,0
51163,9640,38091,0,0,0
51149,9634,38074,0,0,0
51130,9627,38048,0,0,0
51111,9619,38019,0,0,0
51094,9612,37991,0,0,0
51083,9604,37967,0,0,0
51077,9593,37948,0,0,0
51070,9577,37932,0,0,0
51058,9558,37914,0,0,0
51048,9541,37901,0,0,0
51040,9526,37891,0,0,0
51031,9509,37878,0,0,0
51021,9496,37868,0,0,0
51012,9488,37869,0,0,0
51004,9484,37876,0,0,0
50999,9482,37879,0,0,0
50998,9479,37878,0,0,0
51001,9478,37877,0,0,0
51000,9478,37875,0,0,0
50996,9477,37869,0,0,0
50991,9478,37857,0,0,0
50987,9483,37839,0,0,0
50982,9487,37816,0,0,0
50978,9488,37789,0,0,0
50979,9487,37764,0,0,0
50982,9483,37746,0,0,0
50981,9474,37732,0,0,0
50979,9463,37722,0,0,0
50976,9457,37710,0,0,0
50972,9454,37694,0,0,0
50965,9449,37674,0,0,0
50949,9432,37650,0,0,0
50924,9405,37622,0,0,0
50894,9373,37592,0,0,0
50856,9338,37560,0,0,0
50808,9304,37524,0,0,0
50758,9273,37486,0,0,0
50712,9248,37446,0,0,0
50675,9224,37407,0,0,0
50649,9200,37365,0,0,0
50626,9173,37319,0,0,0
50600,9140,37274,0,0,0
50572,9104,37232,0,0,0
50542,9070,37193,0,0,0
50511,9043,37151,0,0,0
50480,9019,37102,0,0,0
50446,8997,37050,0,0,0
50410,8975,36991,0,0,0
50375,8953,36929,0,0,0
50346,8932,36872,0,0,0
50321,8910,36824,0,0,0
50298,8886,36783,0,0,0
50275,8858,36748,0,0,0
50250,8826,36715,0,0,0
50222,8797,36678,0,0,0
50195,8779,36640,0,0,0
50175,8771,36602,0,0,0
50157,8762,36558,0,0,0
50132,8746,36505,0,0,0
50098,8720,36440,0,0,0
50060,8692,36378,0,0,0
50025,8668,36325,0,0,0
49995,8649,36280,0,0,0
49971,8633,36243,0,0,0
49949,8614,36206,0,0,0
49928,8592,36169,0,0,0
49914,8572,36134,0,0,0
49904,8548,36097,0,0,0
49894,8522,36058,0,0,0
49879,8492,36023,0,0,0
49866,8465,35995,0,0,0
49852,8440,35969,0,0,0
49830,8416,35940,0,0,0
49803,8390,35908,0,0,0
49777,8363,35878,0,0,0
49753,8339,35852,0,0,0
49734,8320,35832,0,0,0
49716,8303,35813,0,0,0
49694,8283,35782,0,0,0
49666,8257,35739,0,0,0
49636,8232,35694,0,0,0
49608,8210,35657,0,0,0
49578,8190,35623,0,0,0
49544,8172,35588,0,0,0
49510,8157,35554,0,0,0
49478,8145,35518,0,0,0
49449,8131,35476,0,0,0
49424,8119,35429,0,0,0
49407,8111,35388,0,0,0
49397,8104,35350,0,0,0
49390,8090,35308,0,0,0
49377,8068,35267,0,0,0
49360,8037,35232,0,0,0
49341,8002,35201,0,0,0
49319,7969,35168,0,0,0
49292,7941,35129,0,0,0
49267,7918,35085,0,0,0
49245,7899,35041,0,0,0
49221,7884,34996,0,0,0
49198,7871,34951,0,0,0
49173,7858,34904,0,0,0
49150,7840,34859,0,0,0
49124,7814,34817,0,0,0
49096,7786,34782,0,0,0
49066,7758,34755,0,0,0
49037,7728,34726,0,0,0
49006,7696,34686,0,0,0
48976,7664,34636,0,0,0
48948,7637,34587,0,0,0
48923,7611,34545,0,0,0
48900,7583,34507,0,0,0
48877,7553,34464,0,0,0
48849,7521,34414,0,0,0
48819,7490,34364,0,0,0
48790,7460,34311,0,0,0
48765,7432,34256,0,0,0
48746,7405,34202,0,0,0
48735,7382,34150,0,0,0
48728,7363,34099,0,0,0
48722,7345,34048,0,0,0
48716,7328,34001,0,0,0
48712,7313,33962,0,0,0
48713,7299,33933,0,0,0
48716,7290,33921,0,0,0
48723,7287,33928,0,0,0
48734,7291,33949,0,0,0
48749,7303,33978,0,0,0
48773,7329,34019,0,0,0
48808,7370,34077,0,0,0
48850,7421,34151,0,0,0
48902,7479,34241,0,0,0
48965,7545,34347,0,0,0
49038,7622,34474,0,0,0
49122,7709,34620,0,0,0
49214,7804,34784,0,0,0
49313,7906,34961,0,0,0
49416,8014,35150,0,0,0
49520,8128,35343,0,0,0
49626,8246,35536,0,0,0
49736,8367,35733,0,0,0
49839,8484,35929,0,0,0
49932,8588,36107,0,0,0
50015,8678,36262,0,0,0
50092,8760,36403,0,0,0
50161,8834,36533,0,0,0
50220,8898,36649,0,0,0
50270,8952,36755,0,0,0
50317,8999,36850,0,0,0
50364,9041,36937,0,0,0
50410,9081,37018,0,0,0
50450,9120,37091,0,0,0
50485,9154,37154,0,0,0
50513,9185,37209,0,0,0
50538,9214,37258,0,0,0
50555,9236,37297,0,0,0
50566,9250,37327,0,0,0
50575,9263,37352,0,0,0
50587,9280,37379,0,0,0
50600,9303,37414,0,0,0
50613,9331,37454,0,0,0
50625,9363,37492,0,0,0
50637,9395,37524,0,0,0
50646,9425,37546,0,0,0
50651,9448,37561,0,0,0
50652,9465,37569,0,0,0
50653,9476,37575,0,0,0
50655,9485,37584,0,0,0
50659,9491,37597,0,0,0
50662,9495,37610,0,0,0
50661,9501,37623,0,0,0
50661,9506,37634,0,0,0
50662,9508,37642,0,0,0
50664,9508,37646,0,0,0
50663,9506,37646,0,0,0
50661,9505,37646,0,0,0
50658,9505,37648,0,0,0
50657,9506,37653,0,0,0
50656,9502,37657,0,0,0
50653,9494,37658,0,0,0
50647,9485,37655,0,0,0
50638,9474,37648,0,0,0
50627,9462,37645,0,0,0
50618,9457,37645,0,0,0
50612,9455,37647,0,0,0
50607,9451,37641,0,0,0
50599,9441,37623,0,0,0
50592,9430,37600,0,0,0
50587,9417,37579,0,0,0
50583,9406,37560,0,0,0
50581,9396,37541,0,0,0
50578,9386,37516,0,0,0
50571,9377,37492,0,0,0
50563,9373,37480,0,0,0
50560,9372,37481,0,0,0
50559,9371,37484,0,0,0
50554,9368,37479,0,0,0
50548,9363,37466,0,0,0
50546,9362,37455,0,0,0
50552,9370,37452,0,0,0
50561,9384,37459,0,0,0
50570,9397,37471,0,0,0
50571,9403,37482,0,0,0
50565,9403,37489,0,0,0
50556,9398,37488,0,0,0
50542,9388,37479,0,0,0
50524,9372,37463,0,0,0
50507,9354,37435,0,0,0
50492,9335,37395,0,0,0
50479,9317,37352,0,0,0
50468,9301,37312,0,0,0
50457,9284,37276,0,0,0
50441,9264,37245,0,0,0
50422,9245,37219,0,0,0
50400,9230,37192,0,0,0
50374,9212,37159,0,0,0
50343,9191,37118,0,0,0
50306,9167,37071,0,0,0
50271,9142,37028,0,0,0
50243,9120,36994,0,0,0
50220,9102,36970,0,0,0
50196,9084,36949,0,0,0
50170,9064,36923,0,0,0
50140,9040,36885,0,0,0
50104,9013,36839,0,0,0
50064,8984,36797,0,0,0
50022,8954,36760,0,0,0
49980,8927,36723,0,0,0
49939,8904,36687,0,0,0
49898,8879,36653,0,0,0
49858,8852,36619,0,0,0
49824,8828,36587,0,0,0
49795,8809,36556,0,0,0
49770,8792,36523,0,0,0
49749,8776,36489,0,0,0
49730,8759,36456,0,0,0
49712,8740,36423,0,0,0
49694,8721,36393,0,0,0
49679,8703,36367,0,0,0
49662,8686,36338,0,0,0
49639,8666,36302,0,0,0
49613,8649,36266,0,0,0
49585,8635,36233,0,0,0
49554,8618,36197,0,0,0
49523,8602,36159,0,0,0
49495,8586,36123,0,0,0
49470,8569,36088,0,0,0
49445,8548,36050,0,0,0
49421,8527,36015,0,0,0
49401,8508,35989,0,0,0
49385,8490,35968,0,0,0
49368,8470,35942,0,0,0
49350,8452,35909,0,0,0
49339,8441,35881,0,0,0
49334,8435,35860,0,0,0
49328,8427,35841,0,0,0
49319,8417,35820,0,0,0
49301,8404,35792,0,0,0
49276,8386,35760,0,0,0
49251,8369,35724,0,0,0
49228,8354,35692,0,0,0
49206,8338,35665,0,0,0
49183,8315,35633,0,0,0
49155,8288,35593,0,0,0
49124,8259,35549,0,0,0
49092,8233,35505,0,0,0
49066,8211,35466,0,0,0
49047,8189,35438,0,0,0
49034,8170,35421,0,0,0
49024,8151,35405,0,0,0
49009,8131,35380,0,0,0
48987,8111,35346,0,0,0
48970,8096,35308,0,0,0
48958,8084,35268,0,0,0
48943,8073,35222,0,0,0
48922,8061,35169,0,0,0
48894,8043,35116,0,0,0
48858,8019,35061,0,0,0
48819,7993,35004,0,0,0
48778,7967,34951,0,0,0
48736,7941,34905,0,0,0
48698,7921,34868,0,0,0
48667,7907,34841,0,0,0
48644,7895,34818,0,0,0
48627,7885,34798,0,0,0
48616,7879,34784,0,0,0
48605,7869,34770,0,0,0
48592,7856,34745,0,0,0
48580,7842,34717,0,0,0
48570,7827,34689,0,0,0
48555,7810,34657,0,0,0
48540,7792,34625,0,0,0
48533,7777,34597,0,0,0
48532,7769,34574,0,0,0
48529,7766,34558,0,0,0
48521,7764,34539,0,0,0
48508,7759,34511,0,0,0
48493,7748,34472,0,0,0
48479,7736,34436,0,0,0
48469,7730,34418,0,0,0
48469,7734,34421,0,0,0
48485,7750,34450,0,0,0
48517,7778,34503,0,0,0
48563,7818,34578,0,0,0
48624,7872,34677,0,0,0
48702,7939,34792,0,0,0
48794,8018,34916,0,0,0
48898,8108,35054,0,0,0
49007,8207,35212,0,0,0
49117,8311,35376,0,0,0
49226,8419,35540,0,0,0
49337,8534,35713,0,0,0
49451,8653,35897,0,0,0
49562,8769,36081,0,0,0
49671,8880,36259,0,0,0
49771,8982,36434,0,0,0
49861,9072,36598,0,0,0
49945,9148,36749,0,0,0
50020,9212,36887,0,0,0
50088,9270,37016,0,0,0
50155,9326,37141,0,0,0
50215,9380,37252,0,0,0
50263,9427,37345,0,0,0
50300,9471,37426,0,0,0
50333,9513,37497,0,0,0
50357,9549,37559,0,0,0
50376,9573,37608,0,0,0
50396,9593,37648,0,0,0
50416,9607,37683,0,0,0
50432,9613,37709,0,0,0
50444,9615,37726,0,0,0
50453,9620,37739,0,0,0
50461,9629,37750,0,0,0
50468,9644,37764,0,0,0
50476,9661,37781,0,0,0
50485,9680,37796,0,0,0
50494,9704,37815,0,0,0
50498,9724,37836,0,0,0
50491,9731,37849,0,0,0
50480,9726,37857,0,0,0
50476,9716,37865,0,0,0
50481,9708,37874,0,0,0
50488,9702,37883,0,0,0
50495,9699,37889,0,0,0
50508,9705,37892,0,0,0
50520,9715,37889,0,0,0
50527,9723,37879,0,0,0
50529,9730,37869,0,0,0
50524,9736,37863,0,0,0
50508,9737,37856,0,0,0
50485,9731,37844,0,0,0
50462,9722,37829,0,0,0
50441,9712,37809,0,0,0
50422,9700,37786,0,0,0
50405,9684,37759,0,0,0
50396,9668,37733,0,0,0
50396,9652,37711,0,0,0
50398,9634,37692,0,0,0
50396,9615,37674,0,0,0
50394,9597,37658,0,0,0
50397,9585,37653,0,0,0
50406,9582,37659,0,0,0
50421,9585,37670,0,0,0
50436,9590,37678,0,0,0
50442,9591,37679,0,0,0
50445,9592,37673,0,0,0
50449,9593,37665,0,0,0
50450,9595,37654,0,0,0
50445,9598,37641,0,0,0
50440,9607,37627,0,0,0
50439,9620,37619,0,0,0
50442,9635,37625,0,0,0
50445,9645,37642,0,0,0
50446,9649,37659,0,0,0
50445,9647,37672,0,0,0
50442,9642,37679,0,0,0
50439,9638,37687,0,0,0
50439,9637,37699,0,0,0
50441,9638,37712,0,0,0
50444,9639,37724,0,0,0
50445,9637,37729,0,0,0
50438,9628,37718,0,0,0
50422,9613,37692,0,0,0
50398,9598,37655,0,0,0
50364,9583,37609,0,0,0
50325,9567,37557,0,0,0
50287,9550,37500,0,0,0
50251,9533,37442,0,0,0
50216,9516,37390,0,0,0
50179,9493,37343,0,0,0
50143,9462,37297,0,0,0
50110,9425,37253,0,0,0
50082,9389,37209,0,0,0
50058,9361,37168,0,0,0
50036,9342,37130,0,0,0
50015,9332,37095,0,0,0
49998,9326,37063,0,0,0
49981,9321,37036,0,0,0
49960,9309,37008,0,0,0
49936,9288,36979,0,0,0
49909,9264,36953,0,0,0
49880,9239,36927,0,0,0
49853,9216,36897,0,0,0
49831,9196,36863,0,0,0
49810,9178,36822,0,0,0
49794,9164,36785,0,0,0
49784,9155,36754,0,0,0
49776,9149,36721,0,0,0
49764,9137,36677,0,0,0
49744,9114,36620,0,0,0
49718,9084,36556,0,0,0
49688,9054,36491,0,0,0
49654,9026,36429,0,0,0
49620,9002,36376,0,0,0
49589,8982,36333,0,0,0
49562,8965,36301,0,0,0
49541,8948,36277,0,0,0
49526,8935,36266,0,0,0
49520,8925,36261,0,0,0
49515,8914,36253,0,0,0
49509,8901,36239,0,0,0
49503,8890,36222,0,0,0
49497,8877,36203,0,0,0
49489,8857,36177,0,0,0
49479,8833,36147,0,0,0
49471,8812,36124,0,0,0
49465,8795,36110,0,0,0
49460,8782,36104,0,0,0
49452,8768,36098,0,0,0
49441,8753,36085,0,0,0
49427,8744,36064,0,0,0
49407,8737,36036,0,0,0
49382,8729,35995,0,0,0
49356,8722,35946,0,0,0
49332,8715,35893,0,0,0
49308,8706,35842,0,0,0
49283,8696,35806,0,0,0
49260,8684,35784,0,0,0
49234,8665,35757,0,0,0
49203,8638,35719,0,0,0
49175,8611,35678,0,0,0
49155,8590,35639,0,0,0
49143,8573,35599,0,0,0
49132,8557,35550,0,0,0
49123,8541,35500,0,0,0
49118,8528,35454,0,0,0
49114,8513,35410,0,0,0
49105,8491,35363,0,0,0
49094,8465,35322,0,0,0
49082,8436,35291,0,0,0
49070,8407,35267,0,0,0
49064,8385,35252,0,0,0
49064,8378,35253,0,0,0
49073,8390,35277,0,0,0
49097,8416,35321,0,0,0
49136,8454,35380,0,0,0
49185,8504,35453,0,0,0
49241,8564,35545,0,0,0
49308,8633,35659,0,0,0
49384,8706,35792,0,0,0
49466,8782,35941,0,0,0
49555,8864,36105,0,0,0
49653,8955,36273,0,0,0
49763,9060,36447,0,0,0
49882,9173,36627,0,0,0
49997,9280,36804,0,0,0
50103,9379,36976,0,0,0
50206,9478,37148,0,0,0
50306,9578,37325,0,0,0
50401,9677,37499,0,0,0
50489,9772,37656,0,0,0
50570,9864,37800,0,0,0
50644,9953,37938,0,0,0
50710,10031,38062,0,0,0
50763,10092,38164,0,0,0
50807,10141,38244,0,0,0
50844,10179,38303,0,0,0
50873,10209,38346,0,0,0
50894,10235,38381,0,0,0
50915,10257,38414,0,0,0
50935,10278,38440,0,0,0
50952,10296,38460,0,0,0
50966,10312,38481,0,0,0
50974,10325,38500,0,0,0
50977,10336,38516,0,0,0
50980,10349,38530,0,0,0
50984,10362,38537,0,0,0
50984,10374,38540,0,0,0
50988,10384,38548,0,0,0
50996,10395,38562,0,0,0
51008,10403,38581,0,0,0
51019,10407,38597,0,0,0
51027,10410,38610,0,0,0
51037,10410,38621,0,0,0
51046,10406,38625,0,0,0
51047,10399,38626,0,0,0
51047,10396,38632,0,0,0
51052,10401,38648,0,0,0
51061,10409,38668,0,0,0
51065,10413,38681,0,0,0
51060,10409,38681,0,0,0
51045,10400,38665,0,0,0
51028,10385,38641,0,0,0
51010,10370,38617,0,0,0
50995,10356,38596,0,0,0
50982,10344,38573,0,0,0
50971,10333,38548,0,0,0
50963,10318,38522,0,0,0
50954,10301,38495,0,0,0
50945,10288,38469,0,0,0
50936,10278,38442,0,0,0
50929,10272,38417,0,0,0
50920,10268,38396,0,0,0
50912,10263,38378,0,0,0
50904,10258,38365,0,0,0
50905,10258,38360,0,0,0
50914,10262,38360,0,0,0
50925,10267,38360,0,0,0
50940,10272,38365,0,0,0
50961,10275,38372,0,0,0
50984,10279,38378,0,0,0
51011,10288,38387,0,0,0
51041,10303,38400,0,0,0
51069,10318,38414,0,0,0
51095,10332,38427,0,0,0
51116,10343,38433,0,0,0
51129,10347,38429,0,0,0
51138,10346,38421,0,0,0
51145,10344,38411,0,0,0
51150,10340,38396,0,0,0
51149,10335,38380,0,0,0
51139,10327,38362,0,0,0
51124,10312,38338,0,0,0
51107,10294,38310,0,0,0
51090,10275,38282,0,0,0
51073,10255,38252,0,0,0
51054,10236,38221,0,0,0
51035,10217,38193,0,0,0
51013,10194,38169,0,0,0
50990,10171,38142,0,0,0
50968,10147,38111,0,0,0
50945,10124,38077,0,0,0
50921,10100,38045,0,0,0
50901,10078,38015,0,0,0
50887,10058,37983,0,0,0
50876,10040,37951,0,0,0
50867,10024,37923,0,0,0
50860,10012,37892,0,0,0
50850,9999,37856,0,0,0
50835,9980,37822,0,0,0
50816,9956,37803,0,0,0
50793,9928,37797,0,0,0
50768,9898,37791,0,0,0
50743,9871,37778,0,0,0
50718,9846,37757,0,0,0
50690,9824,37730,0,0,0
50659,9801,37697,0,0,0
50624,9777,37655,0,0,0
50594,9756,37609,0,0,0
50566,9739,37565,0,0,0
50538,9724,37520,0,0,0
50510,9709,37477,0,0,0
50488,9696,37437,0,0,0
50470,9685,37403,0,0,0
50454,9672,37369,0,0,0
50434,9657,37331,0,0,0
50412,9641,37285,0,0,0
50387,9625,37236,0,0,0
50360,9607,37189,0,0,0
50332,9583,37146,0,0,0
50303,9556,37106,0,0,0
50279,9534,37073,0,0,0
50264,9520,37054,0,0,0
50251,9507,37046,0,0,0
50235,9488,37035,0,0,0
50219,9463,37017,0,0,0
50204,9435,36996,0,0,0
50189,9407,36974,0,0,0
50173,9380,36945,0,0,0
50158,9349,36908,0,0,0
50140,9313,36862,0,0,0
50119,9279,36814,0,0,0
50100,9249,36775,0,0,0
50085,9223,36745,0,0,0
50074,9200,36714,0,0,0
50064,9181,36676,0,0,0
50049,9164,36632,0,0,0
50032,9146,36585,0,0,0
50015,9131,36544,0,0,0
50002,9120,36519,0,0,0
49990,9111,36506,0,0,0
49979,9104,36493,0,0,0
49966,9097,36478,0,0,0
49948,9092,36460,0,0,0
49927,9085,36437,0,0,0
49903,9077,36406,0,0,0
49881,9070,36375,0,0,0
49861,9063,36343,0,0,0
49844,9055,36301,0,0,0
49828,9045,36250,0,0,0
