green_channel,red_channel,ir_channel,Anomaly_ch0,Anomaly_ch1,Anomaly_ch2
27877,40152,45037,0,0,0
28182,40436,45492,0,0,0
28493,40726,45960,0,0,0
28798,41011,46422,0,0,0
29094,41284,46864,0,0,0
29373,41539,47277,0,0,0
29624,41771,47654,0,0,0
29843,41975,47987,0,0,0
30031,42151,48274,0,0,0
30187,42298,48516,0,0,0
30308,42412,48711,0,0,0
30400,42496,48859,0,0,0
30464,42554,48963,0,0,0
30501,42586,49024,0,0,0
30507,42588,49045,0,0,0
30491,42565,49027,0,0,0
30455,42520,48972,0,0,0
30401,42456,48887,0,0,0
30326,42378,48777,0,0,0
30234,42289,48645,0,0,0
30131,42189,48496,0,0,0
30013,42080,48332,0,0,0
29879,41959,48156,0,0,0
29737,41831,47969,0,0,0
29594,41701,47774,0,0,0
29451,41570,47574,0,0,0
29309,41438,47370,0,0,0
29167,41308,47162,0,0,0
29032,41184,46954,0,0,0
28900,41064,46750,0,0,0
28768,40945,46551,0,0,0
28639,40829,46356,0,0,0
28513,40717,46164,0,0,0
28388,40602,45975,0,0,0
28259,40487,45787,0,0,0
28134,40377,45603,0,0,0
28014,40273,45422,0,0,0
27897,40171,45249,0,0,0
27785,40072,45087,0,0,0
27684,39983,44938,0,0,0
27597,39907,44808,0,0,0
27524,39844,44699,0,0,0
27465,39792,44613,0,0,0
27424,39756,44553,0,0,0
27399,39740,44519,0,0,0
27389,39742,44514,0,0,0
27395,39762,44535,0,0,0
27420,39799,44580,0,0,0
27462,39848,44646,0,0,0
27518,39906,44733,0,0,0
27589,39974,44839,0,0,0
27677,40052,44961,0,0,0
27775,40140,45100,0,0,0
27874,40232,45249,0,0,0
27972,40326,45399,0,0,0
28072,40422,45547,0,0,0
28169,40514,45691,0,0,0
28253,40593,45822,0,0,0
28327,40660,45937,0,0,0
28395,40721,46037,0,0,0
28453,40774,46124,0,0,0
28496,40816,46196,0,0,0
28529,40849,46254,0,0,0
28553,40873,46294,0,0,0
28563,40886,46312,0,0,0
28560,40889,46311,0,0,0
28547,40881,46290,0,0,0
28525,40863,46254,0,0,0
28491,40835,46203,0,0,0
28445,40796,46139,0,0,0
28392,40750,46062,0,0,0
28333,40700,45975,0,0,0
28269,40643,45884,0,0,0
28198,40578,45786,0,0,0
28124,40507,45678,0,0,0
28049,40433,45563,0,0,0
27971,40357,45448,0,0,0
27889,40279,45332,0,0,0
27806,40200,45212,0,0,0
27722,40120,45089,0,0,0
27634,40038,44962,0,0,0
27542,39952,44831,0,0,0
27451,39865,44702,0,0,0
27364,39779,44577,0,0,0
27280,39691,44454,0,0,0
27198,39606,44332,0,0,0
27119,39529,44214,0,0,0
27043,39462,44102,0,0,0
26966,39398,43995,0,0,0
26889,39334,43888,0,0,0
26817,39272,43782,0,0,0
26749,39213,43678,0,0,0
26680,39153,43575,0,0,0
26611,39094,43472,0,0,0
26548,39041,43373,0,0,0
26491,38992,43282,0,0,0
26434,38946,43201,0,0,0
26377,38903,43126,0,0,0
26325,38864,43052,0,0,0
26276,38828,42980,0,0,0
26229,38792,42914,0,0,0
26185,38756,42851,0,0,0
26146,38720,42790,0,0,0
26109,38688,42733,0,0,0
26073,38657,42683,0,0,0
26040,38628,42638,0,0,0
26010,38601,42597,0,0,0
25983,38574,42559,0,0,0
25953,38546,42522,0,0,0
25922,38518,42481,0,0,0
25892,38490,42432,0,0,0
25859,38461,42378,0,0,0
25819,38430,42322,0,0,0
25775,38398,42261,0,0,0
25732,38365,42196,0,0,0
25690,38332,42132,0,0,0
25648,38298,42072,0,0,0
25612,38268,42016,0,0,0
25586,38243,41969,0,0,0
25565,38222,41934,0,0,0
25552,38211,41919,0,0,0
25556,38221,41931,0,0,0
25593,38260,41985,0,0,0
25671,38333,42100,0,0,0
25796,38450,42285,0,0,0
25973,38617,42542,0,0,0
26198,38830,42869,0,0,0
26461,39080,43264,0,0,0
26758,39361,43712,0,0,0
27081,39665,44194,0,0,0
27416,39980,44693,0,0,0
27747,40290,45190,0,0,0
28063,40584,45666,0,0,0
28358,40859,46110,0,0,0
28627,41108,46514,0,0,0
28859,41325,46874,0,0,0
29054,41505,47183,0,0,0
29214,41654,47437,0,0,0
29343,41772,47641,0,0,0
29440,41855,47799,0,0,0
29508,41906,47910,0,0,0
29548,41932,47976,0,0,0
29564,41937,48000,0,0,0
29556,41920,47988,0,0,0
29529,41884,47942,0,0,0
29482,41831,47864,0,0,0
29414,41762,47760,0,0,0
29326,41678,47631,0,0,0
29223,41578,47477,0,0,0
29108,41465,47304,0,0,0
28979,41346,47118,0,0,0
28837,41221,46926,0,0,0
28688,41093,46727,0,0,0
28535,40962,46518,0,0,0
28378,40827,46301,0,0,0
28223,40686,46077,0,0,0
28071,40544,45849,0,0,0
27922,40407,45623,0,0,0
27773,40271,45400,0,0,0
27625,40134,45180,0,0,0
27479,39999,44962,0,0,0
27333,39866,44744,0,0,0
27181,39733,44528,0,0,0
27028,39599,44314,0,0,0
26882,39469,44102,0,0,0
26746,39344,43899,0,0,0
26617,39225,43708,0,0,0
26495,39113,43532,0,0,0
26384,39012,43371,0,0,0
26290,38928,43232,0,0,0
26211,38861,43121,0,0,0
26150,38812,43035,0,0,0
26112,38783,42976,0,0,0
26097,38777,42947,0,0,0
26103,38788,42951,0,0,0
26133,38816,42987,0,0,0
26186,38865,43055,0,0,0
26259,38935,43154,0,0,0
26346,39020,43281,0,0,0
26443,39115,43426,0,0,0
26550,39217,43583,0,0,0
26661,39321,43748,0,0,0
26771,39421,43917,0,0,0
26881,39521,44084,0,0,0
26993,39623,44248,0,0,0
27101,39722,44403,0,0,0
27198,39813,44545,0,0,0
27285,39892,44670,0,0,0
27362,39961,44778,0,0,0
27428,40017,44868,0,0,0
27478,40060,44941,0,0,0
27515,40089,44993,0,0,0
27536,40106,45025,0,0,0
27540,40111,45038,0,0,0
27528,40101,45028,0,0,0
27503,40080,44997,0,0,0
27468,40049,44948,0,0,0
27421,40010,44886,0,0,0
27366,39963,44813,0,0,0
27308,39910,44727,0,0,0
27246,39851,44632,0,0,0
27179,39787,44532,0,0,0
27105,39719,44426,0,0,0
27027,39647,44313,0,0,0
26946,39571,44194,0,0,0
26860,39492,44070,0,0,0
26768,39411,43943,0,0,0
26674,39331,43815,0,0,0
26580,39250,43687,0,0,0
26483,39165,43561,0,0,0
26388,39079,43431,0,0,0
26297,38995,43295,0,0,0
26211,38915,43159,0,0,0
26125,38837,43029,0,0,0
26039,38763,42904,0,0,0
25955,38693,42786,0,0,0
25873,38628,42673,0,0,0
25792,38563,42561,0,0,0
25711,38498,42449,0,0,0
25632,38435,42336,0,0,0
25556,38373,42225,0,0,0
25478,38309,42116,0,0,0
25403,38244,42008,0,0,0
25337,38181,41903,0,0,0
25273,38117,41803,0,0,0
25210,38054,41705,0,0,0
25150,37992,41612,0,0,0
25094,37937,41526,0,0,0
25040,37885,41444,0,0,0
24982,37832,41365,0,0,0
24925,37780,41286,0,0,0
24874,37733,41209,0,0,0
24825,37689,41135,0,0,0
24776,37648,41062,0,0,0
24728,37610,40989,0,0,0
24682,37575,40917,0,0,0
24636,37539,40848,0,0,0
24586,37498,40780,0,0,0
24535,37453,40711,0,0,0
24484,37408,40642,0,0,0
24429,37361,40570,0,0,0
24372,37312,40495,0,0,0
24319,37266,40423,0,0,0
24273,37225,40359,0,0,0
24235,37194,40311,0,0,0
24212,37179,40288,0,0,0
24218,37190,40301,0,0,0
24264,37236,40366,0,0,0
24354,37323,40501,0,0,0
24496,37458,40719,0,0,0
24699,37646,41022,0,0,0
24958,37885,41403,0,0,0
25260,38162,41848,0,0,0
25595,38469,42339,0,0,0
25952,38796,42858,0,0,0
26315,39134,43391,0,0,0
26670,39465,43920,0,0,0
27008,39779,44427,0,0,0
27323,40068,44899,0,0,0
27605,40326,45323,0,0,0
27847,40547,45692,0,0,0
28050,40729,46002,0,0,0
28220,40877,46256,0,0,0
28355,40992,46457,0,0,0
28455,41078,46604,0,0,0
28519,41135,46702,0,0,0
28553,41165,46756,0,0,0
28558,41165,46768,0,0,0
28532,41137,46738,0,0,0
28478,41084,46670,0,0,0
28402,41012,46566,0,0,0
28305,40921,46430,0,0,0
28189,40817,46272,0,0,0
28061,40701,46092,0,0,0
27925,40577,45894,0,0,0
27780,40446,45684,0,0,0
27625,40307,45466,0,0,0
27462,40161,45241,0,0,0
27294,40009,45006,0,0,0
27118,39848,44762,0,0,0
26934,39680,44506,0,0,0
26748,39511,44242,0,0,0
26562,39342,43972,0,0,0
26375,39173,43702,0,0,0
26187,39002,43430,0,0,0
25998,38833,43158,0,0,0
25811,38668,42888,0,0,0
25624,38505,42624,0,0,0
25440,38345,42364,0,0,0
25262,38190,42106,0,0,0
25092,38042,41858,0,0,0
24930,37900,41622,0,0,0
24776,37765,41402,0,0,0
24638,37644,41204,0,0,0
24520,37540,41030,0,0,0
24421,37455,40884,0,0,0
24341,37389,40769,0,0,0
24287,37348,40689,0,0,0
24259,37331,40650,0,0,0
24255,37335,40650,0,0,0
24273,37358,40683,0,0,0
24316,37406,40751,0,0,0
24383,37478,40854,0,0,0
24472,37567,40988,0,0,0
24580,37670,41149,0,0,0
24705,37787,41332,0,0,0
24841,37914,41534,0,0,0
24981,38045,41746,0,0,0
25124,38177,41957,0,0,0
25267,38308,42162,0,0,0
25403,38433,42356,0,0,0
25526,38544,42533,0,0,0
25631,38637,42684,0,0,0
25716,38711,42807,0,0,0
25780,38766,42904,0,0,0
25823,38804,42976,0,0,0
25851,38832,43027,0,0,0
25868,38846,43055,0,0,0
25870,38844,43061,0,0,0
25857,38828,43047,0,0,0
25837,38805,43018,0,0,0
25815,38779,42975,0,0,0
25784,38746,42920,0,0,0
25739,38705,42857,0,0,0
25686,38659,42787,0,0,0
25629,38609,42707,0,0,0
25562,38553,42616,0,0,0
25485,38487,42513,0,0,0
25401,38413,42398,0,0,0
25310,38336,42271,0,0,0
25212,38253,42134,0,0,0
25106,38164,41990,0,0,0
25002,38073,41841,0,0,0
24899,37979,41692,0,0,0
24794,37879,41543,0,0,0
24686,37777,41391,0,0,0
24578,37679,41238,0,0,0
24469,37585,41086,0,0,0
24356,37492,40937,0,0,0
24241,37400,40789,0,0,0
24131,37309,40639,0,0,0
24025,37220,40489,0,0,0
23921,37130,40343,0,0,0
23821,37040,40201,0,0,0
23725,36951,40061,0,0,0
23632,36868,39926,0,0,0
23542,36791,39796,0,0,0
23456,36718,39669,0,0,0
23376,36651,39548,0,0,0
23300,36591,39434,0,0,0
23222,36534,39325,0,0,0
23145,36478,39219,0,0,0
23072,36423,39115,0,0,0
23001,36368,39017,0,0,0
22929,36311,38921,0,0,0
22855,36250,38822,0,0,0
22782,36188,38721,0,0,0
22711,36127,38619,0,0,0
22642,36068,38519,0,0,0
22576,36013,38422,0,0,0
22517,35963,38329,0,0,0
22461,35916,38240,0,0,0
22408,35870,38158,0,0,0
22364,35832,38087,0,0,0
22337,35806,38037,0,0,0
22330,35800,38022,0,0,0
22354,35825,38060,0,0,0
22424,35896,38166,0,0,0
22551,36018,38353,0,0,0
22739,36195,38632,0,0,0
22993,36426,39006,0,0,0
23307,36710,39465,0,0,0
23664,37034,39989,0,0,0
24045,37379,40553,0,0,0
24437,37734,41134,0,0,0
24830,38090,41713,0,0,0
25215,38437,42277,0,0,0
25581,38763,42815,0,0,0
25918,39062,43311,0,0,0
26220,39332,43753,0,0,0
26484,39567,44141,0,0,0
26705,39763,44470,0,0,0
26880,39920,44736,0,0,0
27013,40042,44941,0,0,0
27107,40131,45091,0,0,0
27160,40185,45187,0,0,0
27179,40206,45232,0,0,0
27169,40200,45233,0,0,0
27131,40170,45195,0,0,0
27066,40115,45123,0,0,0
26980,40037,45013,0,0,0
26876,39942,44869,0,0,0
26754,39830,44699,0,0,0
26616,39703,44510,0,0,0
26466,39564,44303,0,0,0
26309,39417,44077,0,0,0
26144,39261,43836,0,0,0
25966,39098,43582,0,0,0
25779,38929,43316,0,0,0
25588,38756,43040,0,0,0
25393,38580,42759,0,0,0
25191,38400,42472,0,0,0
24985,38218,42177,0,0,0
24779,38034,41876,0,0,0
24570,37848,41571,0,0,0
24358,37659,41264,0,0,0
24146,37474,40959,0,0,0
23941,37293,40656,0,0,0
23741,37117,40361,0,0,0
23549,36950,40072,0,0,0
23368,36795,39796,0,0,0
23201,36650,39538,0,0,0
23049,36518,39307,0,0,0
22911,36399,39106,0,0,0
22794,36297,38935,0,0,0
22701,36216,38799,0,0,0
22630,36155,38701,0,0,0
22585,36115,38642,0,0,0
22570,36100,38624,0,0,0
22587,36113,38649,0,0,0
22632,36154,38719,0,0,0
22707,36225,38830,0,0,0
22815,36324,38981,0,0,0
22951,36448,39172,0,0,0
23102,36588,39394,0,0,0
23263,36738,39638,0,0,0
23436,36895,39892,0,0,0
23611,37051,40148,0,0,0
23778,37201,40396,0,0,0
23933,37342,40629,0,0,0
24072,37471,40842,0,0,0
24192,37586,41032,0,0,0
24291,37682,41194,0,0,0
24370,37759,41325,0,0,0
24434,37819,41425,0,0,0
24480,37862,41500,0,0,0
24507,37888,41550,0,0,0
24516,37901,41574,0,0,0
24513,37903,41573,0,0,0
24494,37891,41549,0,0,0
24458,37863,41501,0,0,0
24408,37824,41432,0,0,0
24349,37776,41348,0,0,0
24281,37718,41253,0,0,0
24202,37649,41145,0,0,0
24116,37569,41023,0,0,0
24024,37480,40890,0,0,0
23923,37386,40747,0,0,0
23815,37288,40596,0,0,0
23704,37189,40439,0,0,0
23592,37092,40279,0,0,0
23475,36996,40120,0,0,0
23358,36899,39962,0,0,0
23242,36802,39804,0,0,0
23127,36703,39646,0,0,0
23012,36602,39491,0,0,0
22901,36501,39337,0,0,0
22795,36404,39185,0,0,0
22694,36312,39035,0,0,0
22598,36224,38889,0,0,0
22503,36138,38747,0,0,0
22411,36060,38611,0,0,0
22321,35986,38480,0,0,0
22230,35912,38353,0,0,0
22141,35840,38229,0,0,0
22058,35769,38106,0,0,0
21974,35698,37982,0,0,0
21889,35624,37859,0,0,0
21804,35552,37735,0,0,0
21722,35483,37611,0,0,0
21645,35414,37492,0,0,0
21569,35346,37377,0,0,0
21495,35278,37265,0,0,0
21426,35215,37157,0,0,0
21361,35158,37053,0,0,0
21297,35105,36959,0,0,0
21240,35063,36879,0,0,0
21199,35037,36817,0,0,0
21182,35030,36784,0,0,0
21194,35047,36794,0,0,0
21245,35099,36864,0,0,0
21349,35198,37014,0,0,0
21516,35351,37260,0,0,0
21749,35565,37608,0,0,0
22049,35839,38055,0,0,0
22406,36161,38587,0,0,0
22802,36515,39176,0,0,0
23218,36886,39795,0,0,0
23640,37260,40417,0,0,0
24055,37628,41023,0,0,0
24446,37977,41596,0,0,0
24803,38301,42121,0,0,0
25123,38596,42591,0,0,0
25405,38858,43004,0,0,0
25644,39080,43358,0,0,0
25838,39258,43650,0,0,0
25994,39394,43881,0,0,0
26113,39493,44055,0,0,0
26194,39557,44177,0,0,0
26242,39595,44252,0,0,0
26260,39611,44283,0,0,0
26249,39604,44275,0,0,0
26209,39572,44229,0,0,0
26145,39517,44148,0,0,0
26060,39441,44037,0,0,0
25955,39343,43898,0,0,0
25830,39224,43732,0,0,0
25687,39091,43542,0,0,0
25535,38951,43327,0,0,0
25375,38804,43095,0,0,0
25209,38648,42852,0,0,0
25038,38488,42597,0,0,0
24864,38326,42329,0,0,0
24682,38161,42052,0,0,0
24489,37990,41770,0,0,0
24290,37815,41481,0,0,0
24089,37637,41184,0,0,0
23885,37461,40883,0,0,0
23677,37282,40581,0,0,0
23468,37098,40277,0,0,0
23260,36914,39974,0,0,0
23054,36731,39679,0,0,0
22852,36551,39398,0,0,0
22663,36384,39131,0,0,0
22493,36233,38883,0,0,0
22340,36099,38659,0,0,0
22207,35983,38463,0,0,0
22098,35889,38299,0,0,0
22016,35819,38170,0,0,0
21959,35774,38082,0,0,0
21928,35752,38039,0,0,0
21926,35757,38041,0,0,0
21953,35788,38090,0,0,0
22008,35845,38184,0,0,0
22091,35925,38318,0,0,0
22203,36030,38487,0,0,0
22341,36156,38686,0,0,0
22497,36294,38913,0,0,0
22666,36441,39159,0,0,0
22842,36596,39416,0,0,0
23020,36753,39671,0,0,0
23190,36904,39918,0,0,0
23349,37046,40148,0,0,0
23498,37176,40358,0,0,0
23631,37289,40545,0,0,0
23744,37387,40707,0,0,0
23837,37471,40842,0,0,0
23911,37537,40949,0,0,0
23966,37587,41028,0,0,0
24001,37620,41081,0,0,0
24016,37638,41108,0,0,0
24017,37642,41113,0,0,0
24002,37632,41098,0,0,0
23970,37608,41066,0,0,0
23927,37573,41017,0,0,0
23877,37527,40952,0,0,0
23818,37472,40875,0,0,0
23747,37410,40788,0,0,0
23669,37344,40686,0,0,0
23589,37278,40570,0,0,0
23506,37207,40446,0,0,0
23419,37128,40318,0,0,0
23332,37047,40187,0,0,0
23244,36967,40050,0,0,0
23154,36888,39912,0,0,0
23060,36806,39774,0,0,0
22963,36721,39632,0,0,0
22864,36634,39488,0,0,0
22766,36547,39348,0,0,0
22668,36459,39211,0,0,0
22573,36375,39078,0,0,0
22482,36296,38950,0,0,0
22390,36218,38825,0,0,0
22295,36141,38696,0,0,0
22206,36066,38568,0,0,0
22123,35994,38442,0,0,0
22043,35926,38322,0,0,0
21967,35862,38208,0,0,0
21901,35804,38098,0,0,0
21843,35750,37992,0,0,0
21784,35696,37890,0,0,0
21721,35641,37788,0,0,0
21657,35586,37686,0,0,0
21594,35531,37587,0,0,0
21529,35475,37495,0,0,0
21466,35419,37408,0,0,0
21414,35372,37333,0,0,0
21380,35340,37281,0,0,0
21367,35329,37270,0,0,0
21392,35355,37317,0,0,0
21472,35432,37441,0,0,0
21619,35570,37664,0,0,0
21837,35772,37997,0,0,0
22125,36035,38434,0,0,0
22475,36353,38955,0,0,0
22869,36708,39535,0,0,0
23282,37083,40145,0,0,0
23697,37462,40760,0,0,0
24107,37838,41364,0,0,0
24503,38198,41945,0,0,0
24872,38532,42489,0,0,0
25208,38837,42984,0,0,0
25513,39112,43427,0,0,0
25785,39352,43817,0,0,0
26018,39558,44153,0,0,0
26214,39731,44430,0,0,0
26376,39874,44654,0,0,0
26503,39988,44829,0,0,0
26591,40068,44957,0,0,0
26645,40114,45037,0,0,0
26668,40126,45069,0,0,0
26661,40107,45056,0,0,0
26626,40059,45004,0,0,0
26567,39988,44915,0,0,0
26487,39902,44792,0,0,0
26390,39805,44646,0,0,0
26277,39701,44482,0,0,0
26155,39593,44303,0,0,0
26026,39479,44113,0,0,0
25886,39357,43914,0,0,0
25734,39230,43704,0,0,0
25575,39099,43487,0,0,0
25415,38964,43263,0,0,0
25252,38824,43035,0,0,0
25086,38682,42802,0,0,0
24923,38538,42566,0,0,0
24765,38391,42327,0,0,0
24606,38240,42088,0,0,0
24444,38088,41850,0,0,0
24283,37939,41611,0,0,0
24127,37794,41375,0,0,0
23974,37654,41147,0,0,0
23825,37523,40929,0,0,0
23686,37403,40726,0,0,0
23559,37293,40541,0,0,0
23444,37196,40376,0,0,0
23347,37112,40233,0,0,0
23270,37045,40119,0,0,0
23214,36998,40038,0,0,0
23175,36971,39994,0,0,0
23160,36964,39984,0,0,0
23175,36982,40009,0,0,0
23220,37022,40068,0,0,0
23290,37081,40159,0,0,0
23382,37158,40279,0,0,0
23494,37253,40422,0,0,0
23620,37360,40586,0,0,0
23753,37473,40766,0,0,0
23892,37590,40953,0,0,0
24029,37710,41143,0,0,0
24159,37825,41331,0,0,0
24276,37932,41510,0,0,0
24383,38031,41673,0,0,0
24481,38124,41817,0,0,0
24564,38202,41938,0,0,0
24631,38265,42036,0,0,0
24682,38315,42112,0,0,0
24720,38353,42167,0,0,0
24741,38377,42207,0,0,0
24747,38387,42230,0,0,0
24742,38386,42235,0,0,0
24730,38378,42227,0,0,0
24709,38361,42206,0,0,0
24677,38334,42169,0,0,0
24636,38297,42114,0,0,0
24589,38253,42045,0,0,0
24530,38199,41967,0,0,0
24459,38136,41879,0,0,0
24383,38066,41780,0,0,0
24304,37991,41674,0,0,0
24219,37909,41559,0,0,0
24133,37823,41435,0,0,0
24051,37740,41304,0,0,0
23974,37661,41172,0,0,0
23895,37586,41044,0,0,0
23815,37514,40919,0,0,0
23734,37448,40798,0,0,0
23653,37383,40678,0,0,0
23571,37316,40559,0,0,0
23490,37249,40443,0,0,0
23412,37182,40327,0,0,0
23336,37116,40210,0,0,0
23259,37049,40089,0,0,0
23183,36982,39965,0,0,0
23111,36919,39846,0,0,0
23043,36858,39738,0,0,0
22977,36800,39635,0,0,0
22914,36745,39534,0,0,0
22857,36695,39436,0,0,0
22801,36646,39340,0,0,0
22745,36597,39250,0,0,0
22689,36550,39163,0,0,0
22640,36505,39080,0,0,0
22594,36460,38999,0,0,0
22548,36414,38918,0,0,0
22504,36370,38841,0,0,0
22464,36331,38771,0,0,0
22429,36297,38713,0,0,0
22405,36273,38676,0,0,0
22405,36269,38671,0,0,0
22442,36302,38720,0,0,0
22528,36379,38843,0,0,0
22672,36511,39059,0,0,0
22886,36704,39371,0,0,0
23167,36958,39777,0,0,0
23501,37260,40262,0,0,0
23875,37598,40809,0,0,0
24284,37966,41402,0,0,0
24718,38355,42028,0,0,0
25161,38750,42666,0,0,0
25596,39139,43293,0,0,0
26017,39514,43892,0,0,0
26412,39866,44455,0,0,0
26769,40186,44971,0,0,0
27083,40467,45427,0,0,0
27354,40710,45819,0,0,0
27585,40913,46147,0,0,0
27771,41077,46415,0,0,0
27917,41204,46625,0,0,0
28030,41302,46782,0,0,0
28115,41373,46895,0,0,0
28168,41416,46968,0,0,0
28191,41433,47000,0,0,0
28191,41429,46996,0,0,0
28171,41403,46962,0,0,0
28128,41357,46900,0,0,0
28067,41294,46812,0,0,0
27992,41218,46703,0,0,0
27904,41131,46578,0,0,0
27808,41036,46437,0,0,0
27709,40937,46284,0,0,0
27611,40837,46123,0,0,0
27511,40734,45960,0,0,0
27407,40628,45792,0,0,0
27300,40522,45622,0,0,0
27190,40417,45455,0,0,0
27081,40313,45294,0,0,0
26973,40209,45138,0,0,0
26867,40106,44983,0,0,0
26762,40004,44831,0,0,0
26656,39902,44682,0,0,0
26549,39797,44532,0,0,0
26445,39696,44381,0,0,0
26343,39601,44231,0,0,0
26243,39511,44084,0,0,0
26148,39427,43944,0,0,0
26061,39353,43811,0,0,0
25984,39286,43688,0,0,0
25913,39225,43579,0,0,0
25850,39174,43485,0,0,0
25798,39134,43410,0,0,0
25765,39108,43358,0,0,0
25749,39096,43332,0,0,0
25748,39099,43330,0,0,0
25767,39117,43352,0,0,0
25803,39148,43398,0,0,0
25851,39192,43465,0,0,0
25908,39243,43546,0,0,0
25975,39302,43636,0,0,0
26048,39366,43736,0,0,0
26123,39430,43842,0,0,0
26201,39498,43952,0,0,0
26285,39571,44066,0,0,0
26370,39646,44184,0,0,0
26454,39719,44299,0,0,0
26535,39790,44404,0,0,0
26611,39854,44500,0,0,0
26677,39910,44588,0,0,0
26729,39955,44664,0,0,0
26769,39992,44724,0,0,0
26800,40023,44769,0,0,0
26822,40043,44799,0,0,0
26830,40050,44809,0,0,0
26827,40048,44802,0,0,0
26819,40037,44783,0,0,0
26801,40018,44756,0,0,0
26772,39991,44720,0,0,0
26733,39957,44672,0,0,0
26687,39917,44611,0,0,0
26632,39870,44542,0,0,0
26568,39815,44466,0,0,0
26502,39753,44379,0,0,0
26437,39687,44284,0,0,0
26371,39619,44185,0,0,0
26306,39554,44088,0,0,0
26245,39495,43992,0,0,0
26185,39440,43899,0,0,0
26122,39385,43805,0,0,0
26055,39332,43707,0,0,0
25989,39282,43604,0,0,0
25925,39233,43501,0,0,0
25855,39180,43396,0,0,0
25785,39124,43291,0,0,0
25722,39069,43186,0,0,0
25667,39015,43088,0,0,0
25614,38964,43000,0,0,0
25560,38913,42917,0,0,0
25507,38866,42839,0,0,0
25456,38822,42768,0,0,0
25407,38774,42698,0,0,0
25357,38726,42626,0,0,0
25308,38681,42552,0,0,0
25261,38637,42479,0,0,0
25215,38592,42411,0,0,0
25172,38551,42348,0,0,0
25136,38515,42289,0,0,0
25102,38483,42231,0,0,0
25068,38450,42175,0,0,0
25034,38415,42116,0,0,0
25002,38380,42058,0,0,0
24973,38350,42004,0,0,0
24948,38331,41961,0,0,0
24935,38321,41932,0,0,0
24940,38326,41923,0,0,0
24966,38349,41948,0,0,0
25019,38397,42016,0,0,0
25109,38482,42140,0,0,0
25244,38610,42331,0,0,0
25429,38784,42598,0,0,0
25661,39001,42938,0,0,0
25938,39257,43343,0,0,0
26251,39546,43801,0,0,0
26588,39854,44298,0,0,0
26936,40171,44814,0,0,0
27284,40486,45330,0,0,0
27621,40789,45837,0,0,0
27939,41072,46324,0,0,0
28235,41333,46777,0,0,0
28510,41572,47188,0,0,0
28762,41790,47556,0,0,0
28984,41983,47881,0,0,0
29172,42146,48160,0,0,0
29329,42285,48393,0,0,0
29454,42397,48579,0,0,0
29546,42480,48719,0,0,0
29609,42534,48816,0,0,0
29650,42563,48871,0,0,0
29668,42571,48889,0,0,0
29661,42559,48876,0,0,0
29636,42528,48836,0,0,0
29598,42484,48771,0,0,0
29550,42429,48689,0,0,0
29488,42364,48591,0,0,0
29414,42291,48477,0,0,0
29329,42215,48350,0,0,0
29238,42134,48215,0,0,0
29140,42048,48074,0,0,0
29036,41957,47929,0,0,0
28933,41864,47782,0,0,0
28830,41772,47638,0,0,0
28729,41680,47500,0,0,0
28632,41591,47366,0,0,0
28541,41507,47237,0,0,0
28454,41427,47115,0,0,0
28366,41350,46997,0,0,0
28278,41277,46878,0,0,0
28192,41202,46754,0,0,0
28107,41123,46627,0,0,0
28021,41041,46499,0,0,0
27937,40961,46370,0,0,0
27855,40886,46243,0,0,0
27779,40816,46123,0,0,0
27709,40751,46015,0,0,0
27650,40697,45922,0,0,0
27606,40657,45848,0,0,0
27574,40629,45794,0,0,0
27555,40611,45757,0,0,0
27550,40604,45735,0,0,0
27560,40608,45732,0,0,0
27583,40623,45749,0,0,0
27618,40650,45785,0,0,0
27662,40687,45837,0,0,0
27713,40730,45903,0,0,0
27767,40777,45981,0,0,0
27822,40829,46064,0,0,0
27881,40885,46149,0,0,0
27943,40944,46238,0,0,0
28001,41003,46328,0,0,0
28055,41060,46416,0,0,0
28106,41116,46496,0,0,0
28153,41167,46568,0,0,0
28190,41205,46632,0,0,0
28220,41232,46683,0,0,0
28242,41254,46723,0,0,0
28258,41273,46753,0,0,0
28266,41285,46770,0,0,0
28269,41288,46772,0,0,0
28270,41283,46759,0,0,0
28265,41271,46738,0,0,0
28254,41253,46712,0,0,0
28236,41232,46677,0,0,0
28210,41206,46631,0,0,0
28175,41172,46576,0,0,0
28132,41130,46512,0,0,0
28085,41084,46439,0,0,0
28034,41036,46357,0,0,0
27978,40984,46269,0,0,0
27914,40924,46178,0,0,0
27845,40859,46080,0,0,0
27772,40792,45975,0,0,0
27693,40724,45868,0,0,0
27610,40655,45758,0,0,0
27528,40584,45646,0,0,0
27448,40511,45533,0,0,0
27371,40438,45421,0,0,0
27292,40364,45311,0,0,0
27217,40290,45200,0,0,0
27148,40217,45090,0,0,0
27079,40147,44985,0,0,0
27005,40081,44884,0,0,0
26931,40021,44785,0,0,0
26857,39966,44686,0,0,0
26783,39911,44590,0,0,0
26715,39859,44498,0,0,0
26659,39814,44410,0,0,0
26613,39775,44327,0,0,0
26572,39738,44254,0,0,0
26529,39700,44188,0,0,0
26487,39666,44126,0,0,0
26446,39632,44065,0,0,0
26403,39595,44003,0,0,0
26360,39554,43938,0,0,0
26317,39513,43870,0,0,0
26275,39473,43801,0,0,0
26228,39432,43732,0,0,0
26178,39391,43659,0,0,0
26130,39353,43585,0,0,0
26084,39315,43514,0,0,0
26037,39274,43446,0,0,0
25990,39235,43380,0,0,0
25947,39201,43319,0,0,0
25913,39173,43269,0,0,0
25890,39156,43240,0,0,0
25891,39160,43242,0,0,0
25927,39196,43293,0,0,0
26005,39269,43406,0,0,0
26131,39385,43591,0,0,0
26313,39548,43854,0,0,0
26548,39760,44190,0,0,0
26829,40016,44593,0,0,0
27142,40303,45048,0,0,0
27478,40611,45538,0,0,0
27828,40928,46045,0,0,0
28177,41243,46551,0,0,0
28515,41548,47042,0,0,0
28839,41839,47510,0,0,0
29143,42108,47949,0,0,0
29416,42350,48347,0,0,0
29653,42560,48696,0,0,0
29855,42739,48990,0,0,0
30021,42888,49232,0,0,0
30152,43003,49427,0,0,0
30247,43086,49578,0,0,0
30315,43144,49681,0,0,0
30359,43181,49745,0,0,0
30382,43194,49778,0,0,0
30383,43184,49782,0,0,0
30363,43156,49756,0,0,0
30320,43111,49699,0,0,0
30255,43046,49613,0,0,0
30172,42969,49503,0,0,0
30080,42883,49375,0,0,0
29981,42790,49237,0,0,0
29871,42689,49088,0,0,0
29757,42586,48929,0,0,0
29647,42487,48770,0,0,0
29543,42390,48614,0,0,0
29440,42292,48463,0,0,0
29343,42195,48314,0,0,0
29253,42102,48163,0,0,0
29166,42012,48015,0,0,0
29078,41925,47868,0,0,0
28990,41839,47723,0,0,0
28906,41759,47580,0,0,0
28820,41681,47441,0,0,0
28726,41603,47304,0,0,0
28629,41523,47167,0,0,0
28536,41443,47034,0,0,0
28447,41365,46907,0,0,0
28360,41289,46787,0,0,0
28280,41219,46676,0,0,0
28209,41159,46576,0,0,0
28149,41110,46490,0,0,0
28101,41071,46423,0,0,0
28068,41044,46372,0,0,0
28049,41028,46337,0,0,0
28040,41022,46321,0,0,0
28042,41023,46324,0,0,0
28059,41036,46345,0,0,0
28093,41061,46387,0,0,0
28139,41097,46448,0,0,0
28195,41144,46523,0,0,0
28262,41205,46611,0,0,0
28336,41275,46710,0,0,0
28409,41349,46816,0,0,0
28479,41422,46921,0,0,0
28549,41490,47020,0,0,0
28614,41550,47112,0,0,0
28669,41597,47192,0,0,0
28717,41636,47259,0,0,0
28761,41671,47315,0,0,0
28799,41702,47363,0,0,0
28826,41723,47401,0,0,0
28841,41736,47425,0,0,0
28849,41742,47434,0,0,0
28847,41738,47425,0,0,0
28829,41722,47403,0,0,0
28800,41700,47371,0,0,0
28768,41673,47329,0,0,0
28733,41641,47281,0,0,0
28691,41602,47224,0,0,0
28644,41561,47159,0,0,0
28600,41521,47087,0,0,0
28554,41479,47009,0,0,0
28500,41432,46925,0,0,0
28437,41379,46836,0,0,0
28369,41323,46741,0,0,0
28299,41260,46644,0,0,0
28224,41193,46544,0,0,0
28148,41122,46439,0,0,0
28075,41048,46330,0,0,0
28001,40971,46218,0,0,0
27923,40894,46104,0,0,0
27846,40820,45989,0,0,0
27777,40756,45878,0,0,0
27712,40698,45773,0,0,0
27648,40642,45672,0,0,0
27586,40591,45573,0,0,0
27529,40543,45476,0,0,0
27471,40499,45386,0,0,0
27413,40454,45302,0,0,0
27356,40409,45218,0,0,0
27301,40363,45134,0,0,0
27245,40314,45052,0,0,0
27190,40262,44975,0,0,0
27138,40209,44901,0,0,0
27092,40160,44830,0,0,0
27046,40115,44763,0,0,0
27001,40071,44700,0,0,0
26958,40032,44638,0,0,0
26918,39996,44578,0,0,0
26876,39960,44520,0,0,0
26831,39922,44462,0,0,0
26784,39886,44402,0,0,0
26740,39851,44340,0,0,0
26696,39814,44281,0,0,0
26652,39775,44223,0,0,0
26612,39736,44166,0,0,0
26575,39696,44111,0,0,0
26539,39655,44052,0,0,0
26502,39619,43989,0,0,0
26467,39587,43925,0,0,0
26431,39557,43864,0,0,0
26394,39528,43806,0,0,0
26360,39501,43752,0,0,0
26336,39481,43708,0,0,0
26325,39471,43683,0,0,0
26332,39478,43686,0,0,0
26366,39508,43727,0,0,0
26437,39573,43822,0,0,0
26554,39681,43985,0,0,0
26720,39835,44225,0,0,0
26937,40038,44539,0,0,0
27200,40283,44918,0,0,0
27496,40558,45349,0,0,0
27811,40850,45815,0,0,0
28138,41149,46298,0,0,0
28468,41449,46784,0,0,0
28788,41739,47259,0,0,0
29088,42013,47709,0,0,0
29367,42268,48123,0,0,0
29621,42499,48498,0,0,0
29845,42703,48830,0,0,0
30035,42876,49118,0,0,0
30196,43020,49359,0,0,0
30328,43133,49555,0,0,0
30428,43215,49706,0,0,0
30497,43270,49811,0,0,0
30538,43300,49873,0,0,0
30554,43306,49892,0,0,0
30542,43286,49876,0,0,0
30503,43245,49826,0,0,0
30447,43189,49745,0,0,0
30377,43120,49639,0,0,0
30293,43039,49514,0,0,0
30197,42947,49372,0,0,0
30095,42851,49217,0,0,0
29989,42750,49052,0,0,0
29875,42642,48882,0,0,0
29755,42529,48706,0,0,0
29631,42414,48529,0,0,0
29508,42298,48354,0,0,0
29383,42181,48179,0,0,0
29257,42067,48001,0,0,0
29132,41958,47823,0,0,0
29012,41852,47648,0,0,0
28897,41747,47477,0,0,0
28785,41644,47307,0,0,0
28679,41543,47142,0,0,0
28575,41447,46981,0,0,0
28472,41355,46826,0,0,0
28374,41270,46675,0,0,0
28283,41190,46532,0,0,0
28197,41112,46400,0,0,0
28118,41039,46283,0,0,0
28049,40974,46180,0,0,0
27994,40923,46094,0,0,0
27954,40887,46032,0,0,0
27927,40864,45992,0,0,0
27918,40857,45971,0,0,0
27927,40866,45973,0,0,0
27950,40887,45999,0,0,0
27983,40918,46043,0,0,0
28029,40963,46104,0,0,0
28089,41021,46183,0,0,0
28157,41087,46279,0,0,0
28230,41160,46384,0,0,0
28310,41239,46492,0,0,0
28394,41319,46602,0,0,0
28474,41392,46711,0,0,0
28547,41459,46815,0,0,0
28619,41521,46909,0,0,0
28689,41580,46996,0,0,0
28746,41631,47076,0,0,0
28790,41671,47144,0,0,0
28823,41702,47192,0,0,0
28844,41723,47224,0,0,0
28851,41734,47241,0,0,0
28844,41733,47244,0,0,0
28827,41722,47232,0,0,0
28801,41699,47207,0,0,0
28764,41668,47167,0,0,0
28719,41629,47112,0,0,0
28675,41587,47048,0,0,0
28631,41541,46978,0,0,0
28583,41489,46902,0,0,0
28529,41434,46819,0,0,0
28471,41377,46729,0,0,0
28407,41315,46633,0,0,0
28336,41248,46533,0,0,0
28259,41179,46428,0,0,0
28181,41110,46318,0,0,0
28100,41037,46205,0,0,0
28014,40961,46087,0,0,0
27928,40884,45965,0,0,0
27845,40808,45839,0,0,0
27760,40731,45716,0,0,0
27673,40652,45595,0,0,0
27587,40574,45475,0,0,0
27503,40501,45356,0,0,0
27419,40428,45236,0,0,0
27331,40357,45117,0,0,0
27246,40290,44999,0,0,0
27167,40228,44884,0,0,0
27090,40166,44775,0,0,0
27020,40105,44671,0,0,0
26960,40049,44573,0,0,0
26909,40001,44483,0,0,0
26859,39957,44402,0,0,0
26808,39915,44325,0,0,0
26758,39875,44252,0,0,0
26712,39838,44185,0,0,0
26669,39801,44122,0,0,0
26629,39763,44062,0,0,0
26595,39730,44007,0,0,0
26566,39704,43960,0,0,0
26538,39678,43917,0,0,0
26508,39652,43873,0,0,0
26478,39625,43828,0,0,0
26449,39594,43785,0,0,0
26417,39559,43743,0,0,0
26381,39523,43696,0,0,0
26346,39490,43646,0,0,0
26311,39456,43594,0,0,0
26271,39418,43537,0,0,0
26229,39380,43471,0,0,0
26190,39342,43400,0,0,0
26150,39304,43328,0,0,0
26106,39265,43260,0,0,0
26062,39227,43195,0,0,0
26022,39192,43134,0,0,0
25986,39160,43080,0,0,0
25957,39138,43042,0,0,0
25944,39132,43026,0,0,0
25957,39151,43045,0,0,0
26004,39202,43112,0,0,0
26089,39289,43241,0,0,0
26222,39420,43437,0,0,0
26408,39595,43706,0,0,0
26640,39813,44048,0,0,0
26912,40065,44449,0,0,0
27215,40345,44892,0,0,0
27541,40643,45365,0,0,0
27873,40945,45850,0,0,0
28197,41240,46328,0,0,0
28505,41522,46782,0,0,0
28792,41785,47199,0,0,0
29049,42022,47573,0,0,0
29271,42227,47900,0,0,0
29463,42402,48184,0,0,0
29623,42550,48426,0,0,0
29749,42667,48626,0,0,0
29841,42753,48783,0,0,0
29905,42811,48894,0,0,0
29943,42842,48961,0,0,0
29953,42844,48986,0,0,0
29941,42824,48971,0,0,0
29910,42787,48920,0,0,0
29859,42734,48835,0,0,0
29782,42661,48722,0,0,0
29683,42571,48585,0,0,0
29571,42468,48428,0,0,0
29452,42357,48255,0,0,0
29323,42238,48071,0,0,0
29185,42111,47875,0,0,0
29043,41980,47671,0,0,0
28897,41842,47464,0,0,0
28742,41699,47251,0,0,0
28580,41554,47028,0,0,0
28420,41409,46802,0,0,0
28264,41267,46580,0,0,0
28110,41128,46362,0,0,0
27959,40994,46144,0,0,0
27814,40868,45928,0,0,0
27672,40743,45717,0,0,0
27529,40616,45507,0,0,0
27387,40488,45296,0,0,0
27250,40363,45087,0,0,0
27116,40241,44888,0,0,0
26985,40126,44705,0,0,0
26864,40021,44539,0,0,0
26759,39929,44390,0,0,0
26670,39854,44262,0,0,0
26599,39793,44160,0,0,0
26551,39750,44087,0,0,0
26527,39730,44048,0,0,0
26525,39729,44042,0,0,0
26541,39747,44065,0,0,0
26580,39785,44116,0,0,0
26640,39840,44196,0,0,0
26716,39909,44303,0,0,0
26804,39990,44434,0,0,0
26905,40084,44582,0,0,0
27019,40188,44742,0,0,0
27136,40297,44910,0,0,0
27254,40408,45080,0,0,0
27372,40516,45248,0,0,0
27486,40620,45412,0,0,0
27589,40716,45564,0,0,0
27675,40800,45697,0,0,0
27746,40870,45807,0,0,0
27802,40925,45892,0,0,0
27842,40961,45952,0,0,0
27865,40982,45988,0,0,0
27875,40988,46003,0,0,0
27873,40984,46000,0,0,0
27858,40968,45981,0,0,0
27828,40943,45943,0,0,0
27788,40910,45888,0,0,0
27738,40869,45821,0,0,0
27676,40818,45745,0,0,0
27608,40759,45657,0,0,0
27538,40694,45557,0,0,0
27461,40621,45444,0,0,0
27374,40540,45320,0,0,0
27281,40456,45186,0,0,0
27186,40373,45049,0,0,0
27090,40289,44912,0,0,0
26994,40204,44774,0,0,0
26898,40119,44632,0,0,0
26805,40033,44488,0,0,0
26710,39944,44348,0,0,0
26615,39855,44211,0,0,0
26522,39768,44075,0,0,0
26429,39685,43940,0,0,0
26333,39602,43808,0,0,0
26236,39520,43679,0,0,0
26142,39440,43552,0,0,0
26051,39364,43427,0,0,0
25962,39289,43305,0,0,0
25877,39215,43188,0,0,0
25799,39147,43077,0,0,0
25729,39087,42974,0,0,0
25665,39033,42882,0,0,0
25607,38985,42798,0,0,0
25555,38940,42719,0,0,0
25505,38897,42641,0,0,0
25454,38853,42567,0,0,0
25403,38810,42494,0,0,0
25356,38767,42422,0,0,0
25310,38725,42353,0,0,0
25264,38681,42286,0,0,0
25217,38638,42217,0,0,0
25172,38596,42143,0,0,0
25124,38554,42070,0,0,0
25072,38513,41998,0,0,0
25020,38475,41924,0,0,0
24972,38435,41850,0,0,0
24923,38391,41777,0,0,0
24873,38341,41709,0,0,0
24824,38295,41644,0,0,0
24782,38259,41588,0,0,0
24751,38235,41547,0,0,0
24737,38227,41530,0,0,0
24751,38244,41548,0,0,0
24803,38295,41618,0,0,0
24899,38386,41753,0,0,0
25041,38520,41962,0,0,0
25234,38702,42246,0,0,0
25480,38930,42604,0,0,0
25767,39195,43022,0,0,0
26084,39487,43485,0,0,0
26423,39800,43977,0,0,0
26777,40122,44483,0,0,0
27129,40444,44988,0,0,0
27466,40755,45477,0,0,0
27782,41046,45934,0,0,0
28069,41308,46349,0,0,0
28321,41533,46717,0,0,0
28533,41724,47032,0,0,0
28708,41882,47293,0,0,0
28847,42006,47500,0,0,0
28945,42094,47655,0,0,0
29006,42150,47760,0,0,0
29038,42181,47819,0,0,0
29045,42189,47837,0,0,0
29024,42174,47816,0,0,0
28982,42137,47759,0,0,0
28927,42085,47673,0,0,0
28859,42015,47566,0,0,0
28772,41927,47441,0,0,0
28666,41822,47293,0,0,0
28547,41706,47121,0,0,0
28414,41581,46927,0,0,0
28265,41443,46714,0,0,0
28105,41295,46485,0,0,0
27938,41143,46244,0,0,0
27766,40987,45996,0,0,0
27589,40828,45744,0,0,0
27407,40667,45486,0,0,0
27226,40505,45223,0,0,0
27046,40341,44957,0,0,0
26860,40175,44690,0,0,0
26670,40005,44422,0,0,0
26481,39833,44153,0,0,0
26294,39665,43889,0,0,0
26113,39500,43632,0,0,0
25940,39342,43383,0,0,0
25781,39195,43144,0,0,0
25634,39062,42924,0,0,0
25499,38943,42732,0,0,0
25381,38842,42567,0,0,0
25286,38762,42436,0,0,0
25215,38704,42342,0,0,0
25169,38668,42283,0,0,0
25153,38656,42258,0,0,0
25170,38674,42272,0,0,0
25214,38720,42327,0,0,0
25283,38791,42422,0,0,0
25377,38883,42554,0,0,0
25495,38993,42719,0,0,0
25629,39116,42912,0,0,0
25773,39249,43125,0,0,0
25923,39389,43345,0,0,0
26076,39530,43567,0,0,0
26225,39667,43786,0,0,0
26363,39795,43990,0,0,0
26490,39913,44174,0,0,0
26607,40018,44335,0,0,0
26708,40109,44476,0,0,0
26792,40186,44593,0,0,0
26861,40250,44685,0,0,0
26914,40298,44755,0,0,0
26950,40329,44807,0,0,0
26972,40348,44839,0,0,0
26987,40354,44850,0,0,0
26986,40346,44840,0,0,0
26964,40321,44809,0,0,0
26927,40283,44756,0,0,0
26879,40237,44684,0,0,0
26821,40183,44601,0,0,0
26752,40119,44509,0,0,0
26674,40048,44407,0,0,0
26593,39974,44294,0,0,0
26511,39896,44177,0,0,0
26426,39814,44056,0,0,0
26339,39732,43930,0,0,0
26250,39655,43799,0,0,0
26157,39577,43664,0,0,0
26058,39496,43525,0,0,0
25957,39416,43382,0,0,0
25858,39335,43239,0,0,0
25759,39255,43098,0,0,0
25660,39171,42961,0,0,0
25566,39090,42827,0,0,0
25481,39012,42699,0,0,0
25404,38935,42576,0,0,0
25333,38863,42459,0,0,0
25268,38796,42350,0,0,0
25206,38734,42250,0,0,0
25145,38675,42160,0,0,0
25083,38620,42074,0,0,0
25022,38568,41988,0,0,0
24964,38517,41902,0,0,0
24905,38467,41819,0,0,0
24844,38418,41737,0,0,0
24787,38369,41659,0,0,0
24733,38322,41580,0,0,0
24673,38274,41497,0,0,0
24606,38222,41408,0,0,0
24540,38169,41313,0,0,0
24480,38117,41218,0,0,0
24421,38065,41124,0,0,0
24364,38013,41034,0,0,0
24313,37966,40948,0,0,0
24265,37923,40870,0,0,0
24218,37881,40801,0,0,0
24179,37849,40748,0,0,0
24160,37833,40722,0,0,0
24166,37840,40736,0,0,0
24205,37881,40808,0,0,0
24293,37969,40956,0,0,0
24441,38114,41189,0,0,0
24646,38315,41509,0,0,0
24904,38564,41911,0,0,0
25210,38856,42377,0,0,0
25558,39180,42889,0,0,0
25929,39521,43430,0,0,0
26307,39863,43978,0,0,0
26680,40198,44516,0,0,0
27039,40518,45028,0,0,0
27371,40812,45504,0,0,0
27666,41071,45932,0,0,0
27922,41296,46305,0,0,0
28143,41488,46623,0,0,0
28326,41648,46885,0,0,0
28469,41775,47091,0,0,0
28575,41870,47242,0,0,0
28649,41934,47345,0,0,0
28691,41970,47406,0,0,0
28702,41981,47428,0,0,0
28689,41972,47416,0,0,0
28654,41943,47370,0,0,0
28592,41892,47292,0,0,0
28506,41819,47183,0,0,0
28403,41727,47044,0,0,0
28286,41618,46881,0,0,0
28153,41493,46698,0,0,0
28007,41355,46494,0,0,0
27855,41209,46274,0,0,0
27697,41057,46040,0,0,0
27530,40898,45796,0,0,0
27355,40737,45546,0,0,0
27179,40577,45291,0,0,0
27003,40418,45038,0,0,0
26825,40258,44786,0,0,0
26647,40101,44535,0,0,0
26474,39945,44287,0,0,0
26306,39793,44040,0,0,0
26136,39642,43794,0,0,0
25964,39489,43545,0,0,0
25795,39339,43294,0,0,0
25630,39191,43048,0,0,0
25469,39047,42813,0,0,0
25321,38915,42599,0,0,0
25198,38804,42408,0,0,0
25100,38715,42248,0,0,0
25025,38648,42123,0,0,0
24973,38603,42034,0,0,0
24947,38585,41987,0,0,0
24950,38592,41984,0,0,0
24979,38621,42023,0,0,0
25036,38675,42102,0,0,0
25124,38754,42220,0,0,0
25238,38854,42378,0,0,0
25373,38970,42568,0,0,0
25530,39101,42784,0,0,0
25704,39247,43021,0,0,0
25885,39403,43272,0,0,0
26068,39563,43528,0,0,0
26255,39727,43783,0,0,0
26442,39894,44032,0,0,0
26621,40056,44273,0,0,0
26785,40207,44499,0,0,0
26936,40344,44706,0,0,0
27073,40468,44892,0,0,0
27193,40577,45053,0,0,0
27292,40668,45189,0,0,0
27370,40740,45294,0,0,0
27427,40791,45370,0,0,0
27465,40824,45422,0,0,0
27487,40841,45452,0,0,0
27502,40846,45459,0,0,0
27508,40841,45448,0,0,0
27498,40823,45420,0,0,0
27474,40795,45376,0,0,0
27439,40759,45318,0,0,0
27393,40715,45246,0,0,0
27333,40661,45165,0,0,0
27263,40597,45074,0,0,0
27188,40528,44973,0,0,0
27109,40452,44864,0,0,0
27022,40368,44746,0,0,0
26929,40280,44618,0,0,0
26834,40190,44482,0,0,0
26735,40098,44343,0,0,0
26633,40005,44204,0,0,0
26533,39916,44064,0,0,0
26441,39836,43929,0,0,0
26350,39758,43799,0,0,0
26257,39680,43671,0,0,0
26166,39603,43545,0,0,0
26080,39528,43423,0,0,0
25995,39454,43302,0,0,0
25910,39380,43184,0,0,0
25829,39309,43071,0,0,0
25753,39243,42962,0,0,0
25681,39181,42858,0,0,0
25612,39121,42760,0,0,0
25550,39064,42670,0,0,0
25496,39013,42586,0,0,0
25446,38966,42507,0,0,0
25395,38919,42431,0,0,0
25346,38874,42355,0,0,0
25301,38832,42281,0,0,0
25255,38790,42211,0,0,0
25206,38747,42141,0,0,0
25159,38705,42071,0,0,0
25114,38666,42003,0,0,0
25071,38633,41944,0,0,0
25037,38611,41902,0,0,0
25028,38611,41888,0,0,0
25053,38637,41920,0,0,0
25118,38698,42016,0,0,0
25232,38808,42187,0,0,0
25406,38974,42443,0,0,0
25640,39196,42788,0,0,0
25926,39465,43216,0,0,0
26253,39768,43706,0,0,0
26608,40096,44238,0,0,0
26980,40437,44791,0,0,0
27354,40777,45345,0,0,0
27719,41106,45880,0,0,0
28069,41417,46385,0,0,0
28395,41705,46852,0,0,0
28687,41963,47274,0,0,0
28941,42189,47644,0,0,0
29160,42384,47962,0,0,0
29342,42548,48227,0,0,0
29485,42677,48439,0,0,0
29593,42773,48598,0,0,0
29671,42841,48708,0,0,0
29719,42879,48778,0,0,0
29736,42889,48814,0,0,0
29728,42877,48814,0,0,0
29703,42847,48782,0,0,0
29661,42801,48721,0,0,0
29602,42738,48633,0,0,0
29531,42664,48523,0,0,0
29449,42580,48395,0,0,0
29354,42485,48251,0,0,0
29247,42381,48095,0,0,0
29132,42273,47929,0,0,0
29014,42160,47750,0,0,0
28891,42045,47565,0,0,0
28763,41930,47376,0,0,0
28634,41812,47183,0,0,0
28508,41691,46988,0,0,0
28382,41570,46795,0,0,0
28255,41453,46606,0,0,0
28130,41341,46422,0,0,0
28008,41235,46241,0,0,0
27886,41129,46064,0,0,0
27764,41019,45889,0,0,0
27646,40907,45715,0,0,0
27529,40796,45542,0,0,0
27410,40685,45371,0,0,0
27292,40576,45205,0,0,0
27182,40474,45050,0,0,0
27085,40388,44913,0,0,0
27007,40319,44799,0,0,0
26949,40268,44710,0,0,0
26911,40237,44643,0,0,0
26892,40224,44602,0,0,0
26888,40225,44588,0,0,0
26901,40240,44600,0,0,0
26932,40271,44637,0,0,0
26978,40316,44701,0,0,0
27033,40370,44790,0,0,0
27100,40437,44896,0,0,0
27184,40515,45017,0,0,0
27285,40602,45151,0,0,0
27392,40694,45292,0,0,0
27499,40790,45434,0,0,0
27610,40888,45575,0,0,0
27716,40983,45711,0,0,0
27807,41068,45838,0,0,0
27883,41139,45948,0,0,0
27946,41195,46039,0,0,0
27994,41238,46114,0,0,0
28029,41271,46175,0,0,0
28055,41294,46220,0,0,0
28075,41309,46249,0,0,0
28083,41314,46259,0,0,0
28077,41307,46251,0,0,0
28062,41289,46226,0,0,0
28039,41265,46189,0,0,0
28007,41234,46144,0,0,0
27963,41200,46090,0,0,0
27913,41161,46023,0,0,0
27859,41118,45947,0,0,0
27800,41064,45862,0,0,0
27733,41001,45768,0,0,0
27664,40934,45665,0,0,0
27592,40865,45554,0,0,0
27515,40795,45441,0,0,0
27433,40725,45326,0,0,0
27352,40655,45209,0,0,0
27271,40583,45094,0,0,0
27185,40505,44979,0,0,0
27096,40424,44861,0,0,0
27012,40344,44738,0,0,0
26930,40270,44618,0,0,0
26845,40196,44499,0,0,0
26761,40124,44382,0,0,0
26685,40056,44266,0,0,0
26617,39992,44155,0,0,0
26549,39930,44048,0,0,0
26479,39870,43944,0,0,0
26411,39813,43846,0,0,0
26346,39758,43752,0,0,0
26283,39702,43662,0,0,0
26222,39648,43577,0,0,0
26167,39600,43496,0,0,0
26114,39553,43418,0,0,0
26062,39506,43343,0,0,0
26012,39458,43270,0,0,0
25964,39412,43195,0,0,0
25914,39364,43119,0,0,0
25859,39312,43040,0,0,0
25802,39259,42960,0,0,0
25749,39208,42881,0,0,0
25695,39157,42803,0,0,0
25640,39106,42725,0,0,0
25590,39057,42648,0,0,0
25545,39014,42576,0,0,0
25504,38976,42512,0,0,0
25469,38945,42461,0,0,0
25451,38933,42436,0,0,0
25468,38952,42453,0,0,0
25526,39009,42535,0,0,0
25637,39115,42696,0,0,0
25815,39281,42948,0,0,0
26064,39511,43297,0,0,0
26374,39799,43737,0,0,0
26731,40131,44248,0,0,0
27121,40492,44804,0,0,0
27525,40863,45383,0,0,0
27923,41231,45965,0,0,0
28304,41582,46531,0,0,0
28662,41909,47067,0,0,0
28994,42208,47563,0,0,0
29294,42475,48012,0,0,0
29558,42709,48410,0,0,0
29789,42912,48749,0,0,0
29982,43081,49031,0,0,0
30132,43214,49260,0,0,0
30242,43311,49438,0,0,0
30320,43378,49566,0,0,0
30366,43420,49650,0,0,0
30381,43435,49693,0,0,0
30373,43425,49697,0,0,0
30350,43397,49665,0,0,0
30313,43351,49604,0,0,0
30258,43289,49519,0,0,0
30186,43214,49412,0,0,0
30106,43131,49287,0,0,0
30015,43040,49145,0,0,0
29912,42941,48988,0,0,0
29803,42833,48818,0,0,0
29692,42722,48640,0,0,0
29578,42610,48463,0,0,0
29462,42501,48287,0,0,0
29345,42393,48112,0,0,0
29228,42287,47939,0,0,0
29109,42182,47774,0,0,0
28992,42078,47612,0,0,0
28878,41978,47452,0,0,0
28766,41881,47292,0,0,0
28656,41785,47133,0,0,0
28546,41687,46975,0,0,0
28441,41592,46819,0,0,0
28340,41499,46668,0,0,0
28241,41410,46523,0,0,0
28147,41326,46385,0,0,0
28061,41251,46255,0,0,0
27982,41184,46137,0,0,0
27913,41121,46034,0,0,0
27855,41066,45950,0,0,0
27813,41024,45881,0,0,0
27789,40996,45831,0,0,0
27778,40983,45806,0,0,0
27782,40985,45805,0,0,0
27802,41005,45827,0,0,0
27836,41038,45871,0,0,0
27879,41080,45934,0,0,0
27931,41130,46011,0,0,0
27993,41188,46099,0,0,0
28065,41256,46198,0,0,0
28138,41326,46303,0,0,0
28212,41397,46409,0,0,0
28289,41470,46512,0,0,0
28368,41539,46614,0,0,0
28443,41601,46713,0,0,0
28510,41657,46805,0,0,0
28567,41706,46887,0,0,0
28611,41746,46960,0,0,0
28643,41776,47021,0,0,0
28667,41797,47065,0,0,0
28686,41814,47094,0,0,0
28700,41825,47110,0,0,0
28708,41827,47115,0,0,0
28709,41823,47108,0,0,0
28703,41816,47088,0,0,0
28686,41804,47059,0,0,0
28656,41782,47016,0,0,0
28616,41753,46962,0,0,0
28569,41716,46897,0,0,0
28515,41670,46826,0,0,0
28454,41615,46744,0,0,0
28389,41554,46650,0,0,0
28322,41489,46550,0,0,0
28251,41421,46447,0,0,0
28177,41350,46340,0,0,0
28100,41277,46228,0,0,0
28018,41201,46111,0,0,0
27925,41121,45988,0,0,0
27824,41036,45860,0,0,0
27724,40949,45725,0,0,0
27628,40864,45589,0,0,0
27536,40780,45459,0,0,0
27451,40699,45338,0,0,0
27374,40625,45221,0,0,0
27306,40556,45109,0,0,0
27239,40489,45003,0,0,0
27172,40425,44902,0,0,0
27110,40365,44803,0,0,0
27050,40309,44705,0,0,0
26988,40254,44611,0,0,0
26925,40200,44516,0,0,0
26866,40149,44419,0,0,0
26810,40101,44324,0,0,0
26753,40051,44235,0,0,0
26698,40004,44150,0,0,0
26648,39961,44070,0,0,0
26601,39921,43996,0,0,0
26555,39880,43929,0,0,0
26512,39840,43867,0,0,0
26475,39804,43809,0,0,0
26438,39770,43754,0,0,0
26395,39732,43699,0,0,0
26352,39693,43642,0,0,0
26316,39654,43582,0,0,0
26282,39618,43519,0,0,0
26244,39584,43455,0,0,0
26204,39552,43392,0,0,0
26165,39522,43331,0,0,0
26129,39493,43275,0,0,0
26097,39467,43229,0,0,0
26074,39450,43200,0,0,0
26067,39448,43194,0,0,0
26082,39467,43223,0,0,0
26127,39516,43302,0,0,0
26218,39608,43446,0,0,0
26368,39751,43668,0,0,0
26578,39947,43976,0,0,0
26846,40194,44366,0,0,0
27165,40483,44820,0,0,0
27518,40806,45325,0,0,0
27885,41149,45860,0,0,0
28255,41498,46406,0,0,0
28622,41838,46947,0,0,0
28976,42163,47467,0,0,0
29306,42464,47955,0,0,0
29606,42735,48398,0,0,0
29875,42974,48790,0,0,0
30109,43181,49130,0,0,0
30303,43351,49417,0,0,0
30457,43484,49653,0,0,0
30579,43587,49839,0,0,0
30670,43661,49977,0,0,0
30728,43707,50072,0,0,0
30756,43727,50126,0,0,0
30762,43727,50141,0,0,0
30749,43707,50121,0,0,0
30713,43664,50069,0,0,0
30656,43604,49986,0,0,0
30584,43532,49878,0,0,0
30498,43452,49749,0,0,0
30400,43359,49603,0,0,0
30295,43257,49444,0,0,0
30190,43149,49276,0,0,0
30080,43037,49105,0,0,0
29962,42920,48933,0,0,0
29838,42803,48759,0,0,0
29714,42687,48580,0,0,0
29587,42574,48399,0,0,0
29458,42463,48220,0,0,0
29333,42353,48043,0,0,0
29216,42246,47870,0,0,0
29102,42141,47700,0,0,0
28990,42040,47536,0,0,0
28883,41943,47374,0,0,0
28779,41850,47214,0,0,0
28674,41759,47056,0,0,0
28566,41666,46901,0,0,0
28462,41573,46752,0,0,0
28365,41483,46609,0,0,0
28277,41400,46480,0,0,0
28201,41329,46368,0,0,0
28139,41273,46273,0,0,0
28092,41229,46198,0,0,0
28059,41199,46148,0,0,0
28039,41185,46122,0,0,0
28037,41187,46119,0,0,0
28053,41201,46137,0,0,0
28083,41227,46178,0,0,0
28121,41263,46235,0,0,0
28170,41311,46307,0,0,0
28229,41371,46393,0,0,0
28295,41439,46493,0,0,0
28369,41513,46601,0,0,0
28451,41592,46712,0,0,0
28535,41669,46824,0,0,0
28614,41741,46932,0,0,0
28688,41807,47030,0,0,0
28757,41866,47118,0,0,0
28818,41916,47200,0,0,0
28870,41957,47273,0,0,0
28913,41993,47335,0,0,0
28952,42023,47386,0,0,0
28984,42044,47425,0,0,0
29003,42057,47451,0,0,0
29015,42065,47461,0,0,0
29020,42066,47458,0,0,0
29014,42061,47441,0,0,0
28992,42046,47411,0,0,0
28954,42021,47365,0,0,0
28906,41989,47305,0,0,0
28851,41947,47235,0,0,0
28791,41896,47155,0,0,0
28726,41839,47063,0,0,0
28659,41778,46962,0,0,0
28588,41710,46857,0,0,0
28513,41637,46751,0,0,0
28437,41563,46643,0,0,0
28361,41489,46535,0,0,0
28281,41413,46426,0,0,0
28198,41334,46313,0,0,0
28114,41257,46194,0,0,0
28030,41182,46075,0,0,0
27946,41109,45956,0,0,0
27863,41040,45837,0,0,0
27787,40972,45718,0,0,0
27715,40902,45602,0,0,0
27641,40832,45487,0,0,0
27562,40759,45369,0,0,0
27484,40686,45250,0,0,0
27409,40616,45138,0,0,0
27335,40550,45034,0,0,0
27264,40488,44934,0,0,0
27201,40430,44838,0,0,0
27144,40377,44747,0,0,0
27089,40328,44661,0,0,0
27034,40282,44579,0,0,0
26981,40238,44500,0,0,0
26927,40192,44423,0,0,0
26869,40144,44347,0,0,0
26811,40096,44270,0,0,0
26755,40052,44192,0,0,0
26701,40009,44116,0,0,0
26649,39966,44042,0,0,0
26600,39924,43968,0,0,0
26556,39886,43895,0,0,0
26515,39848,43826,0,0,0
26471,39811,43762,0,0,0
26427,39775,43697,0,0,0
26383,39735,43631,0,0,0
26337,39693,43565,0,0,0
26290,39650,43500,0,0,0
26247,39613,43437,0,0,0
26212,39581,43374,0,0,0
26183,39554,43321,0,0,0
26166,39538,43289,0,0,0
26170,39541,43290,0,0,0
26203,39573,43337,0,0,0
26274,39645,43445,0,0,0
26394,39763,43625,0,0,0
26570,39927,43884,0,0,0
26803,40140,44222,0,0,0
27088,40401,44633,0,0,0
27414,40697,45104,0,0,0
27768,41016,45614,0,0,0
28133,41346,46141,0,0,0
28492,41670,46666,0,0,0
28834,41983,47174,0,0,0
29157,42280,47654,0,0,0
29455,42552,48101,0,0,0
29720,42793,48506,0,0,0
29947,43001,48859,0,0,0
30141,43175,49157,0,0,0
30305,43317,49400,0,0,0
30432,43425,49588,0,0,0
30524,43501,49721,0,0,0
30587,43552,49808,0,0,0
30624,43578,49858,0,0,0
30633,43579,49876,0,0,0
30616,43558,49861,0,0,0
30580,43516,49814,0,0,0
30527,43456,49740,0,0,0
30455,43380,49642,0,0,0
30367,43293,49519,0,0,0
30265,43199,49374,0,0,0
30150,43097,49215,0,0,0
30027,42988,49044,0,0,0
29899,42872,48860,0,0,0
29771,42753,48666,0,0,0
29642,42632,48467,0,0,0
29509,42508,48267,0,0,0
29371,42382,48064,0,0,0
29232,42257,47860,0,0,0
29091,42132,47658,0,0,0
28948,42008,47456,0,0,0
28806,41886,47256,0,0,0
28670,41766,47057,0,0,0
28536,41647,46860,0,0,0
28404,41529,46665,0,0,0
28276,41412,46473,0,0,0
28153,41299,46285,0,0,0
28034,41193,46106,0,0,0
27921,41093,45942,0,0,0
27818,41001,45795,0,0,0
27728,40919,45665,0,0,0
27650,40849,45557,0,0,0
27589,40795,45472,0,0,0
27550,40761,45412,0,0,0
27536,40748,45381,0,0,0
27544,40753,45376,0,0,0
27569,40774,45397,0,0,0
27610,40809,45440,0,0,0
27663,40854,45503,0,0,0
27725,40908,45587,0,0,0
27799,40973,45689,0,0,0
27887,41051,45806,0,0,0
27982,41138,45934,0,0,0
28078,41226,46067,0,0,0
28173,41314,46202,0,0,0
28270,41401,46335,0,0,0
28367,41484,46462,0,0,0
28454,41561,46580,0,0,0
28527,41632,46685,0,0,0
28586,41695,46775,0,0,0
28632,41745,46850,0,0,0
28662,41779,46905,0,0,0
28677,41799,46938,0,0,0
28683,41807,46950,0,0,0
28678,41806,46948,0,0,0
28664,41795,46931,0,0,0
28644,41777,46901,0,0,0
28621,41755,46858,0,0,0
28588,41727,46807,0,0,0
28544,41688,46750,0,0,0
28490,41640,46683,0,0,0
28431,41587,46609,0,0,0
28366,41528,46527,0,0,0
28296,41461,46436,0,0,0
28224,41391,46336,0,0,0
28153,41319,46230,0,0,0
28080,41246,46118,0,0,0
28000,41169,45999,0,0,0
27918,41092,45878,0,0,0
27836,41015,45756,0,0,0
27752,40937,45633,0,0,0
27665,40856,45507,0,0,0
27580,40773,45380,0,0,0
27498,40691,45254,0,0,0
27416,40614,45133,0,0,0
27333,40541,45013,0,0,0
27251,40472,44894,0,0,0
27174,40406,44778,0,0,0
27099,40337,44665,0,0,0
27027,40268,44551,0,0,0
26960,40203,44437,0,0,0
26893,40142,44328,0,0,0
26824,40083,44224,0,0,0
26753,40024,44125,0,0,0
26687,39968,44032,0,0,0
26626,39912,43943,0,0,0
26566,39858,43858,0,0,0
26507,39807,43775,0,0,0
26450,39760,43694,0,0,0
26396,39715,43615,0,0,0
26340,39669,43536,0,0,0
26284,39625,43456,0,0,0
26231,39584,43376,0,0,0
26182,39545,43300,0,0,0
26133,39509,43231,0,0,0
26085,39476,43168,0,0,0
26042,39448,43108,0,0,0
26003,39417,43048,0,0,0
25962,39381,42987,0,0,0
25920,39346,42925,0,0,0
25880,39310,42864,0,0,0
25839,39268,42804,0,0,0
25794,39221,42745,0,0,0
25753,39179,42689,0,0,0
25719,39144,42638,0,0,0
25694,39119,42597,0,0,0
25682,39110,42580,0,0,0
25698,39128,42598,0,0,0
25753,39183,42669,0,0,0
25855,39280,42809,0,0,0
26012,39424,43030,0,0,0
26229,39620,43336,0,0,0
26501,39867,43723,0,0,0
26813,40153,44178,0,0,0
27154,40466,44681,0,0,0
27511,40791,45208,0,0,0
27868,41117,45738,0,0,0
28210,41432,46252,0,0,0
28530,41727,46733,0,0,0
28827,41999,47173,0,0,0
29099,42244,47571,0,0,0
29337,42457,47924,0,0,0
29537,42634,48225,0,0,0
29701,42779,48469,0,0,0
29832,42893,48662,0,0,0
29929,42977,48808,0,0,0
29991,43032,48907,0,0,0
30025,43061,48961,0,0,0
30033,43066,48973,0,0,0
30014,43046,48948,0,0,0
29970,43006,48888,0,0,0
29911,42950,48801,0,0,0
29837,42881,48692,0,0,0
29746,42795,48563,0,0,0
29642,42697,48414,0,0,0
29530,42588,48246,0,0,0
29408,42469,48066,0,0,0
29275,42340,47872,0,0,0
29135,42203,47666,0,0,0
28991,42063,47453,0,0,0
28844,41922,47239,0,0,0
28692,41782,47027,0,0,0
28539,41644,46814,0,0,0
28389,41508,46599,0,0,0
28241,41374,46385,0,0,0
28093,41243,46172,0,0,0
27947,41114,45955,0,0,0
27803,40985,45736,0,0,0
27659,40856,45519,0,0,0
27516,40726,45306,0,0,0
27379,40600,45100,0,0,0
27249,40482,44903,0,0,0
27126,40371,44718,0,0,0
27009,40268,44547,0,0,0
26905,40178,44396,0,0,0
26821,40102,44270,0,0,0
26754,40040,44173,0,0,0
26705,39994,44103,0,0,0
26677,39968,44060,0,0,0
26673,39965,44047,0,0,0
26689,39982,44066,0,0,0
26726,40019,44118,0,0,0
26784,40076,44198,0,0,0
26861,40148,44302,0,0,0
26951,40231,44427,0,0,0
27046,40322,44568,0,0,0
27149,40420,44721,0,0,0
27258,40520,44879,0,0,0
27366,40618,45038,0,0,0
27471,40713,45192,0,0,0
27573,40805,45334,0,0,0
27667,40887,45461,0,0,0
27749,40960,45574,0,0,0
27817,41023,45672,0,0,0
27874,41079,45755,0,0,0
27917,41123,45819,0,0,0
27944,41151,45864,0,0,0
27958,41165,45888,0,0,0
27965,41169,45896,0,0,0
27963,41165,45891,0,0,0
27949,41153,45873,0,0,0
27926,41134,45842,0,0,0
27897,41108,45800,0,0,0
27859,41073,45747,0,0,0
27808,41029,45683,0,0,0
27751,40982,45610,0,0,0
27689,40931,45529,0,0,0
27620,40871,45439,0,0,0
27544,40800,45336,0,0,0
27465,40724,45221,0,0,0
27383,40647,45097,0,0,0
27297,40566,44969,0,0,0
27211,40485,44839,0,0,0
27128,40407,44706,0,0,0
27046,40331,44574,0,0,0
26960,40255,44446,0,0,0
26872,40178,44317,0,0,0
26788,40101,44186,0,0,0
26705,40024,44060,0,0,0
26619,39945,43938,0,0,0
26533,39869,43819,0,0,0
26452,39797,43700,0,0,0
26375,39728,43583,0,0,0
26296,39661,43467,0,0,0
26217,39594,43353,0,0,0
26141,39531,43243,0,0,0
26070,39470,43137,0,0,0
25999,39409,43035,0,0,0
25928,39352,42938,0,0,0
25858,39298,42848,0,0,0
25791,39244,42762,0,0,0
25728,39188,42679,0,0,0
25669,39132,42595,0,0,0
25618,39078,42513,0,0,0
25570,39027,42436,0,0,0
25523,38981,42363,0,0,0
25477,38939,42291,0,0,0
25435,38900,42221,0,0,0
25393,38862,42154,0,0,0
25347,38822,42086,0,0,0
25298,38782,42015,0,0,0
25248,38742,41942,0,0,0
25197,38698,41868,0,0,0
25140,38652,41795,0,0,0
25085,38610,41722,0,0,0
25039,38575,41652,0,0,0
25002,38543,41589,0,0,0
24967,38513,41531,0,0,0
24939,38488,41478,0,0,0
24923,38475,41442,0,0,0
24926,38479,41439,0,0,0
24956,38508,41481,0,0,0
25024,38572,41579,0,0,0
25141,38681,41748,0,0,0
25308,38837,41999,0,0,0
25527,39039,42332,0,0,0
25799,39288,42740,0,0,0
26114,39577,43208,0,0,0
26459,39892,43717,0,0,0
26816,40219,44243,0,0,0
27174,40547,44768,0,0,0
27524,40867,45280,0,0,0
27852,41166,45763,0,0,0
28149,41437,46206,0,0,0
28417,41677,46597,0,0,0
28650,41881,46936,0,0,0
28843,42048,47224,0,0,0
28994,42181,47459,0,0,0
29111,42285,47640,0,0,0
29197,42360,47773,0,0,0
29253,42406,47861,0,0,0
29285,42426,47909,0,0,0
29296,42428,47917,0,0,0
29283,42411,47891,0,0,0
29245,42371,47833,0,0,0
29187,42312,47747,0,0,0
29112,42240,47634,0,0,0
29018,42153,47498,0,0,0
28904,42048,47343,0,0,0
28775,41930,47166,0,0,0
28638,41804,46969,0,0,0
28495,41674,46761,0,0,0
28344,41537,46542,0,0,0
28184,41397,46314,0,0,0
28021,41255,46079,0,0,0
27852,41109,45841,0,0,0
27679,40957,45599,0,0,0
27506,40802,45353,0,0,0
27337,40648,45106,0,0,0
27169,40494,44860,0,0,0
27001,40342,44614,0,0,0
26838,40195,44368,0,0,0
26683,40053,44121,0,0,0
26531,39911,43878,0,0,0
26379,39767,43643,0,0,0
26232,39628,43417,0,0,0
26092,39498,43206,0,0,0
25960,39380,43018,0,0,0
25841,39278,42854,0,0,0
25739,39194,42715,0,0,0
25661,39129,42606,0,0,0
25606,39084,42530,0,0,0
25577,39058,42487,0,0,0
25576,39053,42475,0,0,0
25600,39072,42499,0,0,0
25647,39113,42561,0,0,0
25715,39174,42656,0,0,0
25803,39255,42778,0,0,0
25907,39351,42924,0,0,0
26023,39459,43092,0,0,0
26147,39574,43273,0,0,0
26277,39696,43458,0,0,0
26406,39817,43642,0,0,0
26524,39930,43819,0,0,0
26633,40035,43985,0,0,0
26737,40131,44139,0,0,0
26832,40216,44283,0,0,0
26915,40288,44411,0,0,0
26987,40350,44517,0,0,0
27049,40403,44597,0,0,0
27095,40443,44650,0,0,0
27121,40467,44682,0,0,0
27129,40476,44692,0,0,0
27126,40475,44685,0,0,0
27111,40462,44662,0,0,0
27085,40435,44625,0,0,0
27051,40396,44574,0,0,0
27009,40349,44509,0,0,0
26959,40294,44432,0,0,0
26901,40233,44347,0,0,0
26836,40168,44251,0,0,0
26767,40101,44147,0,0,0
26691,40030,44041,0,0,0
26608,39956,43933,0,0,0
26522,39882,43819,0,0,0
26442,39810,43702,0,0,0
26361,39736,43587,0,0,0
26275,39659,43469,0,0,0
26187,39583,43349,0,0,0
26102,39509,43228,0,0,0
26014,39432,43104,0,0,0
25923,39354,42976,0,0,0
25832,39277,42846,0,0,0
25742,39203,42716,0,0,0
25649,39130,42587,0,0,0
25557,39056,42460,0,0,0
25472,38983,42335,0,0,0
25395,38916,42217,0,0,0
25323,38852,42107,0,0,0
25250,38789,42000,0,0,0
25180,38728,41893,0,0,0
25112,38667,41788,0,0,0
25043,38603,41691,0,0,0
24973,38538,41597,0,0,0
24907,38476,41504,0,0,0
24844,38415,41411,0,0,0
24783,38356,41321,0,0,0
24725,38301,41233,0,0,0
24673,38253,41147,0,0,0
24621,38208,41065,0,0,0
24567,38164,40989,0,0,0
24514,38122,40914,0,0,0
24465,38083,40842,0,0,0
24419,38046,40775,0,0,0
24371,38008,40711,0,0,0
24324,37970,40644,0,0,0
24278,37932,40575,0,0,0
24231,37893,40504,0,0,0
24182,37848,40431,0,0,0
24136,37804,40359,0,0,0
24099,37769,40297,0,0,0
24073,37746,40254,0,0,0
24066,37740,40242,0,0,0
24093,37766,40278,0,0,0
24171,37836,40382,0,0,0
24303,37952,40568,0,0,0
24490,38120,40843,0,0,0
24733,38343,41199,0,0,0
25027,38614,41629,0,0,0
25359,38920,42118,0,0,0
25718,39249,42647,0,0,0
26092,39589,43192,0,0,0
26465,39925,43734,0,0,0
26822,40245,44259,0,0,0
27150,40544,44751,0,0,0
27448,40817,45196,0,0,0
27714,41059,45590,0,0,0
27942,41267,45934,0,0,0
28129,41439,46221,0,0,0
28279,41575,46451,0,0,0
28394,41678,46626,0,0,0
28472,41745,46751,0,0,0
28516,41782,46826,0,0,0
28535,41794,46855,0,0,0
28529,41780,46845,0,0,0
28498,41743,46797,0,0,0
28444,41686,46718,0,0,0
28375,41611,46610,0,0,0
28288,41519,46480,0,0,0
28184,41413,46330,0,0,0
28065,41299,46162,0,0,0
27935,41178,45978,0,0,0
27795,41051,45780,0,0,0
27649,40917,45571,0,0,0
27499,40780,45354,0,0,0
27346,40640,45129,0,0,0
27189,40495,44898,0,0,0
27027,40346,44662,0,0,0
26861,40195,44420,0,0,0
26691,40043,44172,0,0,0
26515,39885,43919,0,0,0
26334,39720,43660,0,0,0
26152,39554,43392,0,0,0
25973,39390,43122,0,0,0
25796,39230,42856,0,0,0
25620,39075,42598,0,0,0
25449,38926,42345,0,0,0
25289,38786,42103,0,0,0
25138,38655,41878,0,0,0
24999,38531,41672,0,0,0
24880,38420,41487,0,0,0
24782,38328,41331,0,0,0
24703,38255,41210,0,0,0
24643,38202,41123,0,0,0
24609,38171,41068,0,0,0
24604,38166,41050,0,0,0
24623,38184,41072,0,0,0
24666,38227,41133,0,0,0
24734,38294,41229,0,0,0
24825,38382,41357,0,0,0
24931,38483,41512,0,0,0
25047,38593,41687,0,0,0
25174,38711,41873,0,0,0
25306,38833,42066,0,0,0
25436,38954,42264,0,0,0
25564,39071,42459,0,0,0
25688,39182,42643,0,0,0
25805,39286,42813,0,0,0
25910,39380,42968,0,0,0
26002,39463,43106,0,0,0
26082,39535,43225,0,0,0
26150,39596,43325,0,0,0
26204,39644,43405,0,0,0
26244,39679,43461,0,0,0
26273,39702,43495,0,0,0
26284,39709,43510,0,0,0
26277,39699,43503,0,0,0
26258,39674,43473,0,0,0
26230,39640,43422,0,0,0
26192,39598,43354,0,0,0
26140,39547,43275,0,0,0
26076,39494,43186,0,0,0
26009,39438,43087,0,0,0
25938,39376,42979,0,0,0
25861,39308,42865,0,0,0
25780,39234,42747,0,0,0
25698,39160,42629,0,0,0
25610,39085,42512,0,0,0
25517,39009,42392,0,0,0
25423,38930,42266,0,0,0
25333,38852,42139,0,0,0
25247,38774,42013,0,0,0
25162,38697,41889,0,0,0
25081,38621,41768,0,0,0
25003,38546,41649,0,0,0
24921,38470,41531,0,0,0
24835,38394,41414,0,0,0
24750,38318,41297,0,0,0
24666,38241,41179,0,0,0
24579,38164,41066,0,0,0
24491,38091,40957,0,0,0
24411,38023,40848,0,0,0
24340,37959,40742,0,0,0
24273,37896,40641,0,0,0
24210,37836,40545,0,0,0
24153,37783,40451,0,0,0
24101,37731,40361,0,0,0
24048,37680,40277,0,0,0
23996,37632,40196,0,0,0
23947,37590,40118,0,0,0
23897,37550,40041,0,0,0
23843,37510,39964,0,0,0
23788,37469,39887,0,0,0
23739,37431,39813,0,0,0
23691,37393,39741,0,0,0
23639,37354,39670,0,0,0
23590,37315,39600,0,0,0
23548,37275,39527,0,0,0
23509,37232,39452,0,0,0
23465,37188,39375,0,0,0
23418,37147,39299,0,0,0
23373,37108,39230,0,0,0
23332,37070,39173,0,0,0
23300,37039,39135,0,0,0
23289,37027,39124,0,0,0
23309,37045,39156,0,0,0
23368,37102,39250,0,0,0
23481,37207,39421,0,0,0
23658,37369,39680,0,0,0
23901,37590,40030,0,0,0
24199,37862,40464,0,0,0
24541,38176,40965,0,0,0
24917,38518,41509,0,0,0
25311,38876,42078,0,0,0
25706,39235,42651,0,0,0
26088,39580,43206,0,0,0
26449,39902,43726,0,0,0
26779,40195,44201,0,0,0
27069,40454,44627,0,0,0
27317,40675,44997,0,0,0
27526,40859,45307,0,0,0
27699,41007,45561,0,0,0
27833,41119,45760,0,0,0
27927,41199,45906,0,0,0
27989,41254,46000,0,0,0
28023,41284,46051,0,0,0
28028,41290,46062,0,0,0
28007,41270,46036,0,0,0
27963,41228,45973,0,0,0
27896,41164,45880,0,0,0
27803,41079,45759,0,0,0
27689,40975,45608,0,0,0
27566,40860,45432,0,0,0
27435,40735,45239,0,0,0
27291,40600,45032,0,0,0
27137,40459,44811,0,0,0
26979,40314,44578,0,0,0
26814,40163,44339,0,0,0
26642,40006,44099,0,0,0
26464,39845,43854,0,0,0
26285,39684,43603,0,0,0
26105,39523,43347,0,0,0
25923,39356,43087,0,0,0
25741,39185,42821,0,0,0
25563,39013,42550,0,0,0
25385,38844,42276,0,0,0
25206,38676,42000,0,0,0
25029,38514,41729,0,0,0
24859,38363,41465,0,0,0
24693,38219,41215,0,0,0
24535,38082,40985,0,0,0
24394,37956,40779,0,0,0
24273,37848,40603,0,0,0
24171,37760,40460,0,0,0
24088,37687,40346,0,0,0
24029,37635,40261,0,0,0
23996,37605,40210,0,0,0
23986,37595,40196,0,0,0
23999,37606,40215,0,0,0
24037,37641,40267,0,0,0
24102,37701,40355,0,0,0
24187,37782,40478,0,0,0
24289,37880,40630,0,0,0
24411,37991,40804,0,0,0
24545,38112,40994,0,0,0
24683,38239,41197,0,0,0
24824,38372,41408,0,0,0
24968,38511,41619,0,0,0
25109,38643,41824,0,0,0
25242,38762,42020,0,0,0
25364,38871,42200,0,0,0
25473,38967,42358,0,0,0
25565,39048,42492,0,0,0
25637,39113,42601,0,0,0
25692,39164,42686,0,0,0
25734,39204,42747,0,0,0
25763,39232,42788,0,0,0
25777,39247,42814,0,0,0
25776,39250,42822,0,0,0
25763,39242,42812,0,0,0
25737,39224,42785,0,0,0
25697,39195,42741,0,0,0
25651,39155,42678,0,0,0
25601,39107,42601,0,0,0
25545,39053,42512,0,0,0
25479,38992,42412,0,0,0
25409,38925,42301,0,0,0
25337,38856,42183,0,0,0
25257,38786,42060,0,0,0
25167,38710,41935,0,0,0
25074,38631,41805,0,0,0
24983,38549,41675,0,0,0
24891,38463,41545,0,0,0
24796,38376,41413,0,0,0
24703,38291,41278,0,0,0
24614,38207,41141,0,0,0
24525,38125,41009,0,0,0
24435,38047,40881,0,0,0
24349,37973,40758,0,0,0
24265,37901,40640,0,0,0
24179,37829,40526,0,0,0
24092,37755,40410,0,0,0
24008,37680,40291,0,0,0
23927,37608,40170,0,0,0
23847,37537,40052,0,0,0
23767,37468,39937,0,0,0
23694,37405,39825,0,0,0
23628,37348,39721,0,0,0
23564,37294,39625,0,0,0
23501,37242,39534,0,0,0
23442,37192,39445,0,0,0
23384,37144,39356,0,0,0
23323,37092,39267,0,0,0
23259,37038,39176,0,0,0
23199,36984,39086,0,0,0
23141,36929,38998,0,0,0
23079,36871,38908,0,0,0
23013,36814,38815,0,0,0
22952,36757,38720,0,0,0
22897,36701,38629,0,0,0
22846,36648,38545,0,0,0
22798,36603,38469,0,0,0
22761,36571,38408,0,0,0
22738,36550,38370,0,0,0
22734,36547,38369,0,0,0
22765,36575,38416,0,0,0
22846,36651,38531,0,0,0
22986,36783,38734,0,0,0
23190,36974,39030,0,0,0
23456,37220,39416,0,0,0
23776,37513,39878,0,0,0
24136,37843,40400,0,0,0
24521,38198,40967,0,0,0
24921,38566,41557,0,0,0
25322,38933,42150,0,0,0
25709,39283,42725,0,0,0
26069,39607,43260,0,0,0
26400,39900,43745,0,0,0
26695,40158,44174,0,0,0
26945,40375,44541,0,0,0
27151,40551,44847,0,0,0
27318,40693,45093,0,0,0
27448,40804,45286,0,0,0
27541,40886,45431,0,0,0
27600,40938,45527,0,0,0
27629,40963,45575,0,0,0
27631,40963,45580,0,0,0
27605,40939,45547,0,0,0
27556,40892,45479,0,0,0
27488,40826,45377,0,0,0
27402,40742,45248,0,0,0
27297,40640,45096,0,0,0
27177,40526,44922,0,0,0
27046,40402,44728,0,0,0
26903,40267,44521,0,0,0
26750,40122,44304,0,0,0
26589,39972,44073,0,0,0
26424,39821,43831,0,0,0
26251,39668,43577,0,0,0
26071,39509,43316,0,0,0
25887,39345,43052,0,0,0
25706,39183,42787,0,0,0
25526,39020,42523,0,0,0
25344,38856,42259,0,0,0
25160,38691,41993,0,0,0
24978,38525,41724,0,0,0
24795,38359,41454,0,0,0
24614,38198,41185,0,0,0
24441,38045,40921,0,0,0
24278,37900,40672,0,0,0
24126,37767,40446,0,0,0
23985,37646,40244,0,0,0
23865,37541,40067,0,0,0
23767,37455,39922,0,0,0
23685,37385,39808,0,0,0
23624,37332,39726,0,0,0
23591,37302,39674,0,0,0
23588,37298,39659,0,0,0
23611,37319,39686,0,0,0
23661,37365,39756,0,0,0
23739,37440,39867,0,0,0
23843,37539,40015,0,0,0
23963,37652,40192,0,0,0
24095,37774,40388,0,0,0
24239,37904,40594,0,0,0
24390,38037,40804,0,0,0
24538,38166,41015,0,0,0
24682,38289,41222,0,0,0
24824,38406,41419,0,0,0
24955,38517,41603,0,0,0
25070,38621,41771,0,0,0
25168,38711,41920,0,0,0
25254,38787,42047,0,0,0
25325,38851,42153,0,0,0
25382,38903,42238,0,0,0
25425,38944,42300,0,0,0
25458,38975,42341,0,0,0
25478,38996,42363,0,0,0
25484,39005,42365,0,0,0
25473,39002,42345,0,0,0
25452,38986,42310,0,0,0
25420,38954,42259,0,0,0
25375,38908,42195,0,0,0
25321,38853,42117,0,0,0
25264,38794,42028,0,0,0
25202,38730,41933,0,0,0
25131,38659,41831,0,0,0
25053,38583,41723,0,0,0
24971,38507,41609,0,0,0
24886,38431,41491,0,0,0
24793,38353,41367,0,0,0
24697,38274,41240,0,0,0
24605,38194,41111,0,0,0
24514,38112,40982,0,0,0
24419,38031,40852,0,0,0
24326,37950,40721,0,0,0
24237,37871,40590,0,0,0
24150,37794,40461,0,0,0
24065,37719,40336,0,0,0
23985,37645,40217,0,0,0
23907,37573,40102,0,0,0
23829,37503,39990,0,0,0
23750,37435,39880,0,0,0
23674,37371,39772,0,0,0
23604,37311,39667,0,0,0
23533,37253,39567,0,0,0
23462,37196,39470,0,0,0
23394,37141,39375,0,0,0
23328,37087,39281,0,0,0
23257,37030,39187,0,0,0
23187,36972,39092,0,0,0
23119,36913,38993,0,0,0
23055,36855,38894,0,0,0
22990,36797,38797,0,0,0
22923,36738,38701,0,0,0
22859,36684,38606,0,0,0
22799,36631,38510,0,0,0
22738,36573,38415,0,0,0
22679,36514,38320,0,0,0
22626,36462,38233,0,0,0
22582,36423,38165,0,0,0
22553,36401,38123,0,0,0
22548,36403,38117,0,0,0
22580,36437,38166,0,0,0
22659,36514,38289,0,0,0
22793,36641,38501,0,0,0
22990,36822,38802,0,0,0
23248,37055,39188,0,0,0
23559,37335,39649,0,0,0
23908,37652,40166,0,0,0
24286,37998,40719,0,0,0
24684,38358,41292,0,0,0
25081,38716,41867,0,0,0
25463,39060,42420,0,0,0
25820,39383,42937,0,0,0
26147,39676,43407,0,0,0
26436,39931,43826,0,0,0
26683,40146,44189,0,0,0
26887,40326,44493,0,0,0
27054,40472,44741,0,0,0
27183,40582,44935,0,0,0
27276,40657,45075,0,0,0
27334,40699,45163,0,0,0
27358,40711,45203,0,0,0
27350,40698,45203,0,0,0
27313,40663,45163,0,0,0
27253,40608,45085,0,0,0
27171,40535,44975,0,0,0
27067,40444,44838,0,0,0
26947,40337,44677,0,0,0
26818,40217,44492,0,0,0
26680,40087,44286,0,0,0
26531,39949,44066,0,0,0
26371,39802,43830,0,0,0
26204,39645,43578,0,0,0
26027,39480,43316,0,0,0
25835,39305,43049,0,0,0
25635,39124,42775,0,0,0
25434,38941,42493,0,0,0
25232,38760,42206,0,0,0
25026,38578,41917,0,0,0
24822,38395,41624,0,0,0
24621,38216,41331,0,0,0
24420,38040,41042,0,0,0
24217,37865,40757,0,0,0
24014,37692,40477,0,0,0
23822,37527,40206,0,0,0
23642,37373,39950,0,0,0
23476,37230,39712,0,0,0
23325,37102,39492,0,0,0
23197,36992,39296,0,0,0
23089,36898,39131,0,0,0
23002,36823,38998,0,0,0
22937,36772,38900,0,0,0
22897,36744,38840,0,0,0
22879,36737,38820,0,0,0
22885,36749,38839,0,0,0
22921,36785,38896,0,0,0
22987,36843,38988,0,0,0
23081,36920,39117,0,0,0
23196,37013,39277,0,0,0
23331,37127,39461,0,0,0
23481,37257,39665,0,0,0
23637,37394,39881,0,0,0
23791,37532,40100,0,0,0
23943,37669,40314,0,0,0
24087,37799,40517,0,0,0
24215,37916,40705,0,0,0
24327,38018,40871,0,0,0
24425,38109,41015,0,0,0
24506,38186,41135,0,0,0
24567,38246,41228,0,0,0
24611,38288,41295,0,0,0
24641,38315,41338,0,0,0
24653,38327,41360,0,0,0
24647,38324,41363,0,0,0
24631,38311,41353,0,0,0
24613,38291,41329,0,0,0
24591,38265,41293,0,0,0
24559,38233,41244,0,0,0
24518,38194,41183,0,0,0
24472,38150,41109,0,0,0
24418,38104,41029,0,0,0
24355,38051,40942,0,0,0
24287,37993,40847,0,0,0
24219,37931,40745,0,0,0
24148,37869,40642,0,0,0
24074,37805,40540,0,0,0
24001,37741,40435,0,0,0
23932,37679,40328,0,0,0
23865,37618,40224,0,0,0
23798,37559,40126,0,0,0
23734,37500,40026,0,0,0
23673,37442,39925,0,0,0
23610,37381,39823,0,0,0
23544,37316,39717,0,0,0
23477,37252,39606,0,0,0
23411,37192,39494,0,0,0
23340,37131,39383,0,0,0
23263,37066,39271,0,0,0
23188,36999,39158,0,0,0
23117,36935,39045,0,0,0
23045,36870,38935,0,0,0
22970,36805,38829,0,0,0
22898,36742,38725,0,0,0
22829,36683,38622,0,0,0
22759,36626,38522,0,0,0
22688,36569,38427,0,0,0
22621,36516,38334,0,0,0
22558,36466,38240,0,0,0
22497,36418,38149,0,0,0
22436,36369,38059,0,0,0
22378,36319,37967,0,0,0
22320,36266,37875,0,0,0
22258,36210,37783,0,0,0
22190,36155,37688,0,0,0
22123,36102,37596,0,0,0
22063,36054,37514,0,0,0
22012,36012,37452,0,0,0
21976,35982,37415,0,0,0
21970,35974,37417,0,0,0
22004,36000,37479,0,0,0
22086,36071,37616,0,0,0
22230,36200,37841,0,0,0
22444,36392,38162,0,0,0
22721,36645,38573,0,0,0
23045,36946,39053,0,0,0
23405,37281,39585,0,0,0
23791,37638,40151,0,0,0
24190,38002,40734,0,0,0
24582,38360,41310,0,0,0
24959,38702,41860,0,0,0
25318,39025,42377,0,0,0
25649,39321,42850,0,0,0
25940,39584,43271,0,0,0
26190,39809,43635,0,0,0
26399,39995,43938,0,0,0
26564,40141,44184,0,0,0
26684,40248,44372,0,0,0
26764,40318,44503,0,0,0
26811,40355,44579,0,0,0
26825,40361,44608,0,0,0
26807,40342,44595,0,0,0
26765,40302,44545,0,0,0
26703,40245,44464,0,0,0
26621,40169,44355,0,0,0
26522,40076,44220,0,0,0
26409,39969,44059,0,0,0
26282,39849,43876,0,0,0
26139,39714,43674,0,0,0
25982,39570,43455,0,0,0
25818,39422,43222,0,0,0
25649,39270,42978,0,0,0
25473,39112,42725,0,0,0
25289,38946,42465,0,0,0
25103,38776,42197,0,0,0
24915,38599,41920,0,0,0
24717,38414,41634,0,0,0
24510,38224,41340,0,0,0
24300,38034,41037,0,0,0
24089,37846,40728,0,0,0
23878,37657,40419,0,0,0
23672,37473,40113,0,0,0
23476,37301,39819,0,0,0
23292,37143,39544,0,0,0
23118,36996,39291,0,0,0
22960,36864,39057,0,0,0
22823,36749,38846,0,0,0
22707,36653,38668,0,0,0
22609,36574,38526,0,0,0
22531,36513,38422,0,0,0
22482,36475,38356,0,0,0
22463,36460,38331,0,0,0
22471,36468,38345,0,0,0
22506,36500,38400,0,0,0
22569,36556,38494,0,0,0
22655,36633,38627,0,0,0
22760,36731,38791,0,0,0
22888,36848,38981,0,0,0
23039,36981,39194,0,0,0
23204,37125,39425,0,0,0
23378,37277,39666,0,0,0
23554,37434,39908,0,0,0
23724,37591,40146,0,0,0
23882,37740,40376,0,0,0
24026,37879,40591,0,0,0
24160,38004,40786,0,0,0
24283,38114,40961,0,0,0
24389,38205,41112,0,0,0
24476,38276,41235,0,0,0
24548,38333,41330,0,0,0
24607,38376,41400,0,0,0
24647,38403,41445,0,0,0
24668,38416,41465,0,0,0
24673,38420,41465,0,0,0
24663,38416,41450,0,0,0
24636,38399,41421,0,0,0
24594,38366,41374,0,0,0
24543,38323,41310,0,0,0
24485,38273,41234,0,0,0
24422,38215,41149,0,0,0
24355,38153,41055,0,0,0
24286,38085,40949,0,0,0
24210,38011,40834,0,0,0
24125,37933,40713,0,0,0
24037,37856,40591,0,0,0
23953,37785,40469,0,0,0
23873,37716,40351,0,0,0
23792,37646,40233,0,0,0
23711,37576,40113,0,0,0
23634,37508,39994,0,0,0
23559,37438,39876,0,0,0
23485,37367,39758,0,0,0
23409,37298,39641,0,0,0
23335,37233,39525,0,0,0
23261,37170,39414,0,0,0
23187,37105,39306,0,0,0
23115,37042,39200,0,0,0
23045,36980,39093,0,0,0
22974,36919,38987,0,0,0
22901,36855,38881,0,0,0
22829,36792,38777,0,0,0
22762,36731,38676,0,0,0
22695,36674,38581,0,0,0
22626,36618,38488,0,0,0
22558,36564,38395,0,0,0
22493,36513,38306,0,0,0
22426,36464,38220,0,0,0
22358,36413,38135,0,0,0
22298,36365,38051,0,0,0
22249,36324,37975,0,0,0
22207,36291,37914,0,0,0
22175,36271,37880,0,0,0
22169,36274,37881,0,0,0
22201,36309,37935,0,0,0
22277,36381,38056,0,0,0
22408,36500,38254,0,0,0
22599,36672,38535,0,0,0
22846,36893,38895,0,0,0
23136,37152,39322,0,0,0
23458,37446,39797,0,0,0
23806,37764,40302,0,0,0
24167,38093,40823,0,0,0
24526,38418,41347,0,0,0
24875,38732,41857,0,0,0
25212,39032,42343,0,0,0
25526,39312,42796,0,0,0
25808,39561,43208,0,0,0
26056,39777,43569,0,0,0
26268,39959,43873,0,0,0
26442,40107,44124,0,0,0
26576,40223,44323,0,0,0
26678,40310,44471,0,0,0
26751,40372,44572,0,0,0
26794,40406,44633,0,0,0
26804,40408,44657,0,0,0
26787,40386,44641,0,0,0
26749,40346,44586,0,0,0
26689,40288,44498,0,0,0
26606,40212,44382,0,0,0
26506,40123,44239,0,0,0
26395,40023,44076,0,0,0
26271,39911,43897,0,0,0
26136,39789,43704,0,0,0
25996,39662,43499,0,0,0
25854,39531,43284,0,0,0
25704,39391,43062,0,0,0
25545,39243,42834,0,0,0
25380,39094,42595,0,0,0
25211,38942,42346,0,0,0
25035,38785,42091,0,0,0
24854,38626,41834,0,0,0
24675,38465,41573,0,0,0
24499,38305,41309,0,0,0
24323,38144,41046,0,0,0
24149,37986,40784,0,0,0
23981,37836,40529,0,0,0
23823,37697,40289,0,0,0
23676,37565,40067,0,0,0
23544,37445,39868,0,0,0
23433,37344,39695,0,0,0
23346,37262,39558,0,0,0
23280,37203,39464,0,0,0
23237,37168,39409,0,0,0
23223,37160,39392,0,0,0
23236,37176,39411,0,0,0
23274,37216,39467,0,0,0
23339,37278,39557,0,0,0
23430,37361,39682,0,0,0
23542,37464,39841,0,0,0
23670,37581,40028,0,0,0
23807,37708,40233,0,0,0
23954,37841,40443,0,0,0
24107,37976,40654,0,0,0
24256,38106,40861,0,0,0
24398,38229,41059,0,0,0
24533,38345,41246,0,0,0
24659,38453,41425,0,0,0
24770,38554,41591,0,0,0
24866,38646,41740,0,0,0
24950,38728,41868,0,0,0
25019,38794,41976,0,0,0
25069,38842,42059,0,0,0
25103,38874,42117,0,0,0
25126,38894,42150,0,0,0
25134,38902,42164,0,0,0
25129,38897,42160,0,0,0
25114,38882,42141,0,0,0
25093,38862,42109,0,0,0
25063,38832,42064,0,0,0
25024,38793,42006,0,0,0
24978,38749,41932,0,0,0
24926,38700,41848,0,0,0
24867,38647,41757,0,0,0
24801,38590,41660,0,0,0
24731,38530,41556,0,0,0
24656,38463,41445,0,0,0
24571,38388,41329,0,0,0
24481,38306,41205,0,0,0
24391,38221,41074,0,0,0
24298,38134,40940,0,0,0
24203,38046,40809,0,0,0
24110,37962,40678,0,0,0
24024,37884,40549,0,0,0
23943,37809,40424,0,0,0
23862,37735,40305,0,0,0
23780,37662,40189,0,0,0
23703,37591,40075,0,0,0
23629,37523,39964,0,0,0
23557,37456,39857,0,0,0
23486,37390,39753,0,0,0
23417,37328,39650,0,0,0
23347,37268,39551,0,0,0
23274,37206,39453,0,0,0
23199,37143,39352,0,0,0
23126,37080,39248,0,0,0
23054,37015,39143,0,0,0
22984,36948,39039,0,0,0
22917,36883,38935,0,0,0
22857,36825,38838,0,0,0
22805,36775,38759,0,0,0
22767,36741,38709,0,0,0
22756,36733,38699,0,0,0
22787,36763,38742,0,0,0
22868,36838,38856,0,0,0
23002,36963,39055,0,0,0
23198,37145,39344,0,0,0
23453,37381,39720,0,0,0
23756,37660,40170,0,0,0
24094,37972,40676,0,0,0
24457,38308,41218,0,0,0
24834,38655,41781,0,0,0
25212,38999,42345,0,0,0
25578,39330,42890,0,0,0
25927,39642,43401,0,0,0
26251,39928,43869,0,0,0
26542,40182,44288,0,0,0
26795,40404,44654,0,0,0
27012,40593,44966,0,0,0
27193,40748,45223,0,0,0
27335,40867,45427,0,0,0
27439,40955,45578,0,0,0
27511,41019,45678,0,0,0
27552,41056,45731,0,0,0
27559,41063,45745,0,0,0
27539,41044,45725,0,0,0
27499,41007,45674,0,0,0
27444,40952,45599,0,0,0
27371,40882,45502,0,0,0
27282,40799,45383,0,0,0
27183,40709,45245,0,0,0
27071,40611,45092,0,0,0
26943,40503,44927,0,0,0
26806,40381,44748,0,0,0
26667,40248,44554,0,0,0
26526,40110,44349,0,0,0
26381,39970,44137,0,0,0
26233,39831,43916,0,0,0
26084,39695,43693,0,0,0
25934,39557,43471,0,0,0
25780,39415,43248,0,0,0
25623,39275,43018,0,0,0
25469,39137,42783,0,0,0
25317,38999,42549,0,0,0
25168,38862,42321,0,0,0
25026,38732,42099,0,0,0
24896,38613,41890,0,0,0
24777,38505,41697,0,0,0
24669,38409,41526,0,0,0
24576,38329,41378,0,0,0
24502,38264,41260,0,0,0
24444,38214,41176,0,0,0
24405,38180,41124,0,0,0
24390,38164,41101,0,0,0
24401,38169,41111,0,0,0
24435,38196,41154,0,0,0
24490,38242,41228,0,0,0
24566,38306,41328,0,0,0
24657,38389,41452,0,0,0
24757,38485,41600,0,0,0
24863,38591,41763,0,0,0
24975,38701,41934,0,0,0
25088,38810,42108,0,0,0
25197,38917,42281,0,0,0
25302,39021,42447,0,0,0
25407,39121,42604,0,0,0
25508,39214,42752,0,0,0
25600,39298,42890,0,0,0
25680,39374,43015,0,0,0
25754,39441,43123,0,0,0
25822,39500,43215,0,0,0
25876,39548,43289,0,0,0
25915,39583,43342,0,0,0
25943,39606,43374,0,0,0
25960,39620,43391,0,0,0
25964,39623,43397,0,0,0
25953,39615,43388,0,0,0
25931,39596,43366,0,0,0
25900,39563,43331,0,0,0
25858,39518,43278,0,0,0
25809,39464,43208,0,0,0
25754,39406,43124,0,0,0
25691,39344,43031,0,0,0
25619,39276,42926,0,0,0
25542,39205,42808,0,0,0
25460,39132,42685,0,0,0
25373,39058,42565,0,0,0
25285,38985,42446,0,0,0
25199,38912,42323,0,0,0
25112,38839,42195,0,0,0
25022,38767,42066,0,0,0
24933,38696,41940,0,0,0
24851,38629,41820,0,0,0
24778,38563,41710,0,0,0
24708,38499,41608,0,0,0
24636,38435,41508,0,0,0
24564,38370,41408,0,0,0
24493,38303,41307,0,0,0
24422,38237,41206,0,0,0
24350,38172,41107,0,0,0
24283,38113,41012,0,0,0
24220,38060,40924,0,0,0
24160,38007,40840,0,0,0
24101,37952,40754,0,0,0
24043,37900,40668,0,0,0
23986,37850,40581,0,0,0
23929,37799,40494,0,0,0
23873,37746,40406,0,0,0
23821,37695,40318,0,0,0
23774,37645,40236,0,0,0
23730,37599,40165,0,0,0
23688,37558,40102,0,0,0
23653,37527,40052,0,0,0
23632,37511,40023,0,0,0
23633,37516,40026,0,0,0
23672,37556,40080,0,0,0
23763,37644,40205,0,0,0
23910,37785,40417,0,0,0
24114,37979,40719,0,0,0
24374,38221,41101,0,0,0
24685,38505,41551,0,0,0
25036,38822,42059,0,0,0
25415,39161,42607,0,0,0
25810,39511,43174,0,0,0
26208,39865,43745,0,0,0
26589,40208,44305,0,0,0
26945,40530,44835,0,0,0
27273,40829,45321,0,0,0
27570,41095,45758,0,0,0
27826,41325,46145,0,0,0
28038,41519,46478,0,0,0
28215,41678,46752,0,0,0
28362,41805,46971,0,0,0
28475,41902,47142,0,0,0
28555,41972,47270,0,0,0
28607,42018,47355,0,0,0
28633,42041,47402,0,0,0
28631,42039,47413,0,0,0
28605,42014,47390,0,0,0
28564,41970,47335,0,0,0
28509,41910,47255,0,0,0
28435,41835,47152,0,0,0
28349,41750,47027,0,0,0
28257,41659,46884,0,0,0
28156,41563,46729,0,0,0
28044,41458,46564,0,0,0
27923,41346,46389,0,0,0
27799,41231,46204,0,0,0
27673,41117,46016,0,0,0
27545,41001,45827,0,0,0
27419,40886,45643,0,0,0
27299,40775,45467,0,0,0
27184,40668,45297,0,0,0
27070,40560,45132,0,0,0
26960,40454,44967,0,0,0
26854,40350,44803,0,0,0
26747,40247,44641,0,0,0
26636,40146,44481,0,0,0
26527,40050,44323,0,0,0
26426,39962,44171,0,0,0
26337,39881,44033,0,0,0
26256,39807,43911,0,0,0
26183,39741,43800,0,0,0
26119,39688,43702,0,0,0
26064,39645,43622,0,0,0
26021,39612,43563,0,0,0
25993,39591,43525,0,0,0
25984,39585,43511,0,0,0
25990,39593,43522,0,0,0
26010,39613,43557,0,0,0
26045,39648,43613,0,0,0
26096,39697,43688,0,0,0
26157,39756,43780,0,0,0
26224,39823,43885,0,0,0
26300,39896,43999,0,0,0
26383,39974,44119,0,0,0
26468,40052,44243,0,0,0
26552,40128,44370,0,0,0
26639,40202,44492,0,0,0
26726,40276,44607,0,0,0
26807,40344,44713,0,0,0
26876,40403,44803,0,0,0
26936,40455,44875,0,0,0
26984,40497,44930,0,0,0
27016,40527,44972,0,0,0
27033,40543,45001,0,0,0
27043,40548,45013,0,0,0
27046,40545,45012,0,0,0
27037,40534,45001,0,0,0
27017,40518,44979,0,0,0
26991,40499,44947,0,0,0
26954,40475,44905,0,0,0
26908,40442,44852,0,0,0
26856,40401,44784,0,0,0
26803,40355,44702,0,0,0
26747,40303,44613,0,0,0
26686,40244,44518,0,0,0
26618,40180,44419,0,0,0
26547,40115,44317,0,0,0
26475,40049,44214,0,0,0
26400,39978,44111,0,0,0
26324,39906,44006,0,0,0
26250,39834,43896,0,0,0
26173,39759,43784,0,0,0
26093,39682,43670,0,0,0
26011,39606,43552,0,0,0
25931,39532,43433,0,0,0
25850,39458,43317,0,0,0
25772,39383,43205,0,0,0
25698,39312,43094,0,0,0
25632,39244,42987,0,0,0
25568,39179,42886,0,0,0
25503,39118,42788,0,0,0
25440,39063,42691,0,0,0
25384,39012,42597,0,0,0
25334,38966,42509,0,0,0
25286,38925,42428,0,0,0
25239,38889,42349,0,0,0
25195,38858,42274,0,0,0
25147,38824,42203,0,0,0
25096,38786,42132,0,0,0
25049,38747,42060,0,0,0
25005,38711,41989,0,0,0
24962,38675,41924,0,0,0
24918,38638,41862,0,0,0
24874,38602,41800,0,0,0
24829,38565,41738,0,0,0
24780,38525,41677,0,0,0
24729,38483,41609,0,0,0
24679,38439,41535,0,0,0
24632,38398,41462,0,0,0
24590,38360,41401,0,0,0
24561,38332,41359,0,0,0
24554,38323,41351,0,0,0
24580,38344,41394,0,0,0
24652,38407,41505,0,0,0
24773,38521,41693,0,0,0
24951,38691,41965,0,0,0
25186,38915,42326,0,0,0
25472,39187,42762,0,0,0
25800,39496,43254,0,0,0
26160,39832,43786,0,0,0
26537,40181,44343,0,0,0
26918,40529,44905,0,0,0
27291,40867,45451,0,0,0
27648,41188,45971,0,0,0
27977,41480,46455,0,0,0
28272,41738,46893,0,0,0
28533,41964,47277,0,0,0
28758,42157,47604,0,0,0
28945,42318,47877,0,0,0
29096,42446,48099,0,0,0
29215,42547,48270,0,0,0
29305,42622,48397,0,0,0
29366,42668,48483,0,0,0
29400,42688,48531,0,0,0
29412,42689,48541,0,0,0
29402,42674,48522,0,0,0
29370,42638,48479,0,0,0
29317,42583,48410,0,0,0
29250,42517,48315,0,0,0
29172,42442,48198,0,0,0
29082,42357,48066,0,0,0
28983,42265,47923,0,0,0
28882,42170,47771,0,0,0
28780,42072,47615,0,0,0
28673,41971,47460,0,0,0
28563,41868,47300,0,0,0
28454,41765,47138,0,0,0
28345,41661,46974,0,0,0
28231,41556,46812,0,0,0
28116,41452,46652,0,0,0
28007,41354,46496,0,0,0
27903,41262,46345,0,0,0
27799,41171,46199,0,0,0
27694,41083,46054,0,0,0
27595,41000,45909,0,0,0
27503,40920,45766,0,0,0
27415,40841,45628,0,0,0
27330,40765,45496,0,0,0
27254,40695,45373,0,0,0
27187,40635,45263,0,0,0
27128,40583,45167,0,0,0
27079,40539,45088,0,0,0
27043,40505,45031,0,0,0
27020,40485,44996,0,0,0
27011,40478,44982,0,0,0
27017,40485,44987,0,0,0
27038,40504,45011,0,0,0
27072,40535,45054,0,0,0
27114,40572,45114,0,0,0
27165,40614,45186,0,0,0
27227,40662,45269,0,0,0
27291,40716,45363,0,0,0
27356,40775,45466,0,0,0
27425,40839,45570,0,0,0
27500,40906,45674,0,0,0
27576,40972,45776,0,0,0
27648,41033,45874,0,0,0
27718,41091,45967,0,0,0
27784,41147,46056,0,0,0
27839,41198,46136,0,0,0
27881,41240,46202,0,0,0
27913,41273,46250,0,0,0
27937,41296,46281,0,0,0
27948,41307,46297,0,0,0
27949,41309,46300,0,0,0
27944,41303,46288,0,0,0
27930,41287,46259,0,0,0
27903,41257,46216,0,0,0
27861,41217,46157,0,0,0
27813,41172,46086,0,0,0
27761,41123,46009,0,0,0
27699,41066,45924,0,0,0
27630,41005,45831,0,0,0
27560,40944,45731,0,0,0
27487,40880,45630,0,0,0
27408,40812,45527,0,0,0
27324,40741,45421,0,0,0
27241,40670,45310,0,0,0
27162,40599,45199,0,0,0
27082,40526,45089,0,0,0
27003,40452,44976,0,0,0
26927,40380,44860,0,0,0
26852,40313,44746,0,0,0
26775,40247,44634,0,0,0
26699,40184,44523,0,0,0
26628,40124,44413,0,0,0
26560,40064,44307,0,0,0
26494,40003,44202,0,0,0
26433,39943,44097,0,0,0
26375,39884,43993,0,0,0
26316,39825,43893,0,0,0
26251,39765,43798,0,0,0
26185,39706,43707,0,0,0
26123,39650,43617,0,0,0
26063,39593,43530,0,0,0
26002,39538,43449,0,0,0
25946,39489,43372,0,0,0
25897,39446,43300,0,0,0
25850,39407,43235,0,0,0
25804,39371,43174,0,0,0
25763,39340,43113,0,0,0
25728,39315,43059,0,0,0
25695,39292,43010,0,0,0
25664,39266,42962,0,0,0
25634,39242,42914,0,0,0
25608,39220,42868,0,0,0
25583,39196,42826,0,0,0
25555,39168,42785,0,0,0
25531,39140,42742,0,0,0
25509,39116,42701,0,0,0
25482,39093,42663,0,0,0
25449,39068,42623,0,0,0
25415,39042,42574,0,0,0
25383,39011,42519,0,0,0
25347,38975,42460,0,0,0
25307,38937,42399,0,0,0
25271,38906,42344,0,0,0
25244,38887,42306,0,0,0
25232,38886,42298,0,0,0
25250,38909,42329,0,0,0
25313,38967,42416,0,0,0
25426,39069,42576,0,0,0
25586,39219,42816,0,0,0
25796,39417,43131,0,0,0
26056,39662,43517,0,0,0
26361,39943,43965,0,0,0
26698,40247,44459,0,0,0
27053,40566,44977,0,0,0
27418,40890,45505,0,0,0
27777,41209,46027,0,0,0
28115,41512,46525,0,0,0
28428,41792,46988,0,0,0
28715,42047,47411,0,0,0
28971,42272,47787,0,0,0
29189,42465,48115,0,0,0
29370,42626,48391,0,0,0
29519,42757,48619,0,0,0
29636,42861,48800,0,0,0
29723,42938,48940,0,0,0
29784,42990,49036,0,0,0
29821,43021,49091,0,0,0
29830,43030,49109,0,0,0
29816,43017,49091,0,0,0
29783,42983,49040,0,0,0
29735,42932,48964,0,0,0
29668,42869,48870,0,0,0
29589,42796,48759,0,0,0
29501,42714,48633,0,0,0
29405,42626,48497,0,0,0
29297,42527,48351,0,0,0
29182,42423,48195,0,0,0
29068,42318,48029,0,0,0
28952,42210,47858,0,0,0
28833,42099,47685,0,0,0
28711,41987,47510,0,0,0
28593,41879,47334,0,0,0
28480,41775,47160,0,0,0
28370,41671,46991,0,0,0
28263,41570,46827,0,0,0
28163,41478,46670,0,0,0
28065,41390,46521,0,0,0
27967,41302,46378,0,0,0
27870,41215,46235,0,0,0
27778,41134,46096,0,0,0
27691,41058,45966,0,0,0
27606,40984,45842,0,0,0
27528,40916,45726,0,0,0
27463,40858,45625,0,0,0
27411,40809,45542,0,0,0
27371,40766,45478,0,0,0
27346,40734,45432,0,0,0
27336,40716,45408,0,0,0
27337,40714,45407,0,0,0
27349,40726,45429,0,0,0
27375,40751,45470,0,0,0
27415,40788,45526,0,0,0
27465,40835,45594,0,0,0
27519,40889,45673,0,0,0
27578,40948,45762,0,0,0
27643,41013,45858,0,0,0
27712,41080,45959,0,0,0
27784,41147,46063,0,0,0
27857,41216,46167,0,0,0
27929,41288,46272,0,0,0
27996,41357,46375,0,0,0
28055,41418,46468,0,0,0
28106,41470,46546,0,0,0
28148,41511,46612,0,0,0
28179,41542,46665,0,0,0
28199,41566,46704,0,0,0
28213,41583,46727,0,0,0
28222,41591,46736,0,0,0
28220,41590,46733,0,0,0
28208,41580,46716,0,0,0
28191,41562,46682,0,0,0
28165,41532,46632,0,0,0
28126,41490,46569,0,0,0
28079,41439,46495,0,0,0
28028,41381,46410,0,0,0
27971,41318,46319,0,0,0
27903,41250,46225,0,0,0
27827,41180,46123,0,0,0
27751,41111,46015,0,0,0
27675,41043,45905,0,0,0
27594,40974,45794,0,0,0
27511,40903,45681,0,0,0
27430,40832,45567,0,0,0
27348,40759,45448,0,0,0
27265,40681,45327,0,0,0
27182,40606,45205,0,0,0
27103,40537,45087,0,0,0
27027,40469,44974,0,0,0
26952,40400,44866,0,0,0
26880,40334,44758,0,0,0
26814,40274,44652,0,0,0
26748,40216,44547,0,0,0
26681,40155,44443,0,0,0
26615,40096,44338,0,0,0
26549,40038,44235,0,0,0
26481,39979,44135,0,0,0
26413,39920,44038,0,0,0
26352,39864,43946,0,0,0
26299,39812,43862,0,0,0
26250,39763,43787,0,0,0
26204,39718,43716,0,0,0
26162,39680,43650,0,0,0
26125,39646,43589,0,0,0
26088,39613,43533,0,0,0
26050,39581,43484,0,0,0
26016,39553,43439,0,0,0
25983,39526,43397,0,0,0
25950,39501,43356,0,0,0
25918,39476,43313,0,0,0
25890,39455,43269,0,0,0
25869,39438,43231,0,0,0
25851,39423,43199,0,0,0
25833,39408,43169,0,0,0
25814,39393,43141,0,0,0
25793,39379,43115,0,0,0
25766,39357,43084,0,0,0
25733,39329,43045,0,0,0
25700,39299,43002,0,0,0
25665,39269,42957,0,0,0
25623,39235,42905,0,0,0
25577,39198,42845,0,0,0
25533,39158,42779,0,0,0
25486,39116,42710,0,0,0
25437,39073,42642,0,0,0
25389,39030,42573,0,0,0
25347,38993,42507,0,0,0
25314,38966,42454,0,0,0
25293,38951,42426,0,0,0
25295,38959,42431,0,0,0
25332,38998,42485,0,0,0
25418,39078,42607,0,0,0
25554,39201,42805,0,0,0
25745,39370,43078,0,0,0
25990,39587,43424,0,0,0
26277,39846,43840,0,0,0
26598,40143,44312,0,0,0
26943,40466,44822,0,0,0
27299,40800,45352,0,0,0
27652,41130,45883,0,0,0
27990,41444,46399,0,0,0
28313,41739,46884,0,0,0
28614,42011,47330,0,0,0
28884,42251,47731,0,0,0
29118,42457,48081,0,0,0
29317,42631,48377,0,0,0
29486,42774,48619,0,0,0
29620,42885,48815,0,0,0
29720,42968,48967,0,0,0
29790,43026,49074,0,0,0
29836,43061,49139,0,0,0
29852,43075,49168,0,0,0
29841,43068,49159,0,0,0
29811,43039,49115,0,0,0
29762,42991,49040,0,0,0
29693,42926,48941,0,0,0
29606,42846,48820,0,0,0
29507,42752,48681,0,0,0
29401,42648,48528,0,0,0
29287,42533,48364,0,0,0
29165,42413,48189,0,0,0
29040,42295,48008,0,0,0
28915,42177,47824,0,0,0
28788,42059,47638,0,0,0
28660,41942,47451,0,0,0
28535,41829,47268,0,0,0
28413,41718,47092,0,0,0
28291,41611,46918,0,0,0
28172,41506,46743,0,0,0
28059,41404,46570,0,0,0
27949,41304,46403,0,0,0
27840,41205,46243,0,0,0
27732,41108,46088,0,0,0
27628,41014,45936,0,0,0
27529,40924,45792,0,0,0
27432,40837,45656,0,0,0
27342,40759,45530,0,0,0
27264,40692,45415,0,0,0
27198,40638,45318,0,0,0
27144,40596,45242,0,0,0
27106,40567,45182,0,0,0
27088,40553,45141,0,0,0
27087,40554,45128,0,0,0
27101,40570,45143,0,0,0
27134,40600,45181,0,0,0
27184,40645,45240,0,0,0
27246,40699,45317,0,0,0
27311,40760,45410,0,0,0
27380,40828,45514,0,0,0
27457,40904,45631,0,0,0
27536,40984,45758,0,0,0
27616,41065,45889,0,0,0
27696,41143,46016,0,0,0
27775,41217,46139,0,0,0
27849,41284,46256,0,0,0
27918,41348,46363,0,0,0
27984,41408,46456,0,0,0
28039,41459,46533,0,0,0
28078,41499,46593,0,0,0
28104,41525,46635,0,0,0
28122,41540,46659,0,0,0
28133,41543,46665,0,0,0
28128,41534,46653,0,0,0
28112,41515,46624,0,0,0
28090,41489,46581,0,0,0
28061,41453,46529,0,0,0
28018,41408,46468,0,0,0
27965,41357,46397,0,0,0
27909,41305,46315,0,0,0
27848,41249,46225,0,0,0
27777,41184,46125,0,0,0
27699,41114,46015,0,0,0
27614,41041,45897,0,0,0
27526,40966,45776,0,0,0
27437,40889,45651,0,0,0
27349,40812,45521,0,0,0
27262,40736,45389,0,0,0
27173,40659,45258,0,0,0
27082,40582,45125,0,0,0
26993,40505,44988,0,0,0
26903,40425,44853,0,0,0
26811,40344,44724,0,0,0
26719,40260,44598,0,0,0
26633,40178,44475,0,0,0
26552,40100,44359,0,0,0
26475,40028,44251,0,0,0
26401,39960,44144,0,0,0
26332,39894,44037,0,0,0
26267,39834,43934,0,0,0
26206,39778,43836,0,0,0
26147,39726,43744,0,0,0
26092,39679,43655,0,0,0
26040,39633,43569,0,0,0
25987,39587,43488,0,0,0
25936,39542,43412,0,0,0
25894,39499,43341,0,0,0
25862,39461,43278,0,0,0
25832,39426,43225,0,0,0
25802,39394,43177,0,0,0
25774,39365,43132,0,0,0
25746,39339,43091,0,0,0
25718,39315,43056,0,0,0
25690,39295,43022,0,0,0
25665,39280,42986,0,0,0
25642,39268,42948,0,0,0
25618,39255,42914,0,0,0
25596,39240,42880,0,0,0
25578,39223,42843,0,0,0
25563,39207,42807,0,0,0
25546,39191,42775,0,0,0
25527,39175,42741,0,0,0
25509,39160,42707,0,0,0
25486,39141,42673,0,0,0
25458,39117,42639,0,0,0
25428,39090,42598,0,0,0
25400,39063,42550,0,0,0
25369,39033,42501,0,0,0
25336,39002,42457,0,0,0
25305,38977,42419,0,0,0
25286,38964,42394,0,0,0
25281,38965,42392,0,0,0
25296,38984,42427,0,0,0
25348,39034,42510,0,0,0
25448,39125,42657,0,0,0
25602,39266,42881,0,0,0
25808,39456,43183,0,0,0
26066,39691,43559,0,0,0
26368,39964,44003,0,0,0
26698,40268,44495,0,0,0
27042,40590,45015,0,0,0
27395,40921,45545,0,0,0
27747,41245,46069,0,0,0
28083,41554,46574,0,0,0
28395,41840,47046,0,0,0
28681,42101,47476,0,0,0
28932,42331,47857,0,0,0
29145,42523,48184,0,0,0
29322,42681,48455,0,0,0
29467,42808,48671,0,0,0
29581,42904,48837,0,0,0
29660,42968,48959,0,0,0
29708,43003,49038,0,0,0
29731,43018,49076,0,0,0
29731,43011,49080,0,0,0
29706,42980,49052,0,0,0
29658,42928,48994,0,0,0
29592,42861,48907,0,0,0
29513,42783,48797,0,0,0
29422,42693,48669,0,0,0
29317,42596,48520,0,0,0
29204,42493,48354,0,0,0
29086,42386,48179,0,0,0
28962,42274,47996,0,0,0
28834,42158,47803,0,0,0
28702,42039,47605,0,0,0
28566,41918,47407,0,0,0
28427,41793,47208,0,0,0
28287,41666,47009,0,0,0
28149,41538,46812,0,0,0
28013,41411,46615,0,0,0
27876,41283,46418,0,0,0
27742,41159,46219,0,0,0
27611,41039,46017,0,0,0
27479,40918,45814,0,0,0
27347,40798,45614,0,0,0
27219,40684,45423,0,0,0
27103,40579,45244,0,0,0
26998,40485,45081,0,0,0
26904,40401,44938,0,0,0
26825,40330,44814,0,0,0
26762,40271,44712,0,0,0
26714,40225,44635,0,0,0
26685,40197,44587,0,0,0
26678,40191,44569,0,0,0
26694,40208,44582,0,0,0
26727,40244,44627,0,0,0
26773,40295,44694,0,0,0
26832,40357,44781,0,0,0
26904,40426,44885,0,0,0
26981,40499,45005,0,0,0
27062,40574,45135,0,0,0
27150,40652,45269,0,0,0
27247,40735,45408,0,0,0
27343,40819,45550,0,0,0
27437,40906,45690,0,0,0
27532,40994,45825,0,0,0
27621,41079,45953,0,0,0
27697,41156,46072,0,0,0
27759,41223,46174,0,0,0
27811,41280,46256,0,0,0
27852,41324,46322,0,0,0
27879,41354,46371,0,0,0
27893,41372,46400,0,0,0
27902,41382,46411,0,0,0
27902,41381,46406,0,0,0
27888,41368,46383,0,0,0
27862,41341,46340,0,0,0
27824,41301,46280,0,0,0
27773,41248,46209,0,0,0
27712,41186,46127,0,0,0
27645,41119,46033,0,0,0
27573,41050,45928,0,0,0
27495,40978,45814,0,0,0
27412,40903,45695,0,0,0
27328,40827,45569,0,0,0
27244,40751,45438,0,0,0
27156,40671,45307,0,0,0
27065,40589,45176,0,0,0
26975,40510,45046,0,0,0
26888,40432,44919,0,0,0
26799,40351,44791,0,0,0
26708,40267,44661,0,0,0
26621,40185,44531,0,0,0
26540,40105,44402,0,0,0
26461,40028,44279,0,0,0
26384,39955,44163,0,0,0
26309,39885,44050,0,0,0
26238,39818,43940,0,0,0
26166,39754,43834,0,0,0
26091,39692,43726,0,0,0
26017,39632,43618,0,0,0
25945,39570,43513,0,0,0
25872,39504,43416,0,0,0
25800,39439,43323,0,0,0
25730,39378,43230,0,0,0
25667,39323,43140,0,0,0
25607,39272,43054,0,0,0
25553,39226,42971,0,0,0
25507,39190,42898,0,0,0
25465,39160,42835,0,0,0
25425,39131,42778,0,0,0
25388,39102,42721,0,0,0
25358,39075,42664,0,0,0
25331,39047,42609,0,0,0
25302,39017,42556,0,0,0
25271,38987,42505,0,0,0
25241,38962,42455,0,0,0
25210,38938,42412,0,0,0
25179,38913,42373,0,0,0
25149,38886,42334,0,0,0
25118,38858,42293,0,0,0
25086,38828,42251,0,0,0
25049,38793,42208,0,0,0
25012,38758,42160,0,0,0
24977,38725,42106,0,0,0
24940,38692,42049,0,0,0
24899,38655,41987,0,0,0
24859,38616,41921,0,0,0
24820,38579,41855,0,0,0
24780,38546,41797,0,0,0
24742,38517,41751,0,0,0
24716,38500,41723,0,0,0
24715,38501,41725,0,0,0
24747,38527,41771,0,0,0
24818,38590,41876,0,0,0
24940,38700,42053,0,0,0
25120,38867,42315,0,0,0
25354,39086,42661,0,0,0
25633,39350,43081,0,0,0
25954,39654,43560,0,0,0
26308,39986,44084,0,0,0
26679,40332,44638,0,0,0
27054,40681,45202,0,0,0
27427,41027,45756,0,0,0
27790,41360,46291,0,0,0
28125,41667,46793,0,0,0
28424,41942,47245,0,0,0
28686,42183,47639,0,0,0
28908,42387,47975,0,0,0
29088,42552,48256,0,0,0
29231,42683,48484,0,0,0
29342,42784,48660,0,0,0
29425,42857,48787,0,0,0
29478,42901,48869,0,0,0
29506,42921,48908,0,0,0
29515,42925,48909,0,0,0
29504,42910,48880,0,0,0
29470,42868,48822,0,0,0
29414,42802,48735,0,0,0
29341,42720,48623,0,0,0
29251,42626,48495,0,0,0
29147,42525,48349,0,0,0
29032,42418,48186,0,0,0
28912,42310,48011,0,0,0
28787,42196,47827,0,0,0
28655,42075,47636,0,0,0
28520,41953,47440,0,0,0
28386,41830,47240,0,0,0
28248,41704,47037,0,0,0
28106,41574,46830,0,0,0
27965,41447,46620,0,0,0
27826,41323,46414,0,0,0
27686,41200,46214,0,0,0
27543,41076,46016,0,0,0
27404,40954,45816,0,0,0
27269,40835,45615,0,0,0
27141,40716,45419,0,0,0
27017,40598,45229,0,0,0
26897,40484,45046,0,0,0
26781,40375,44875,0,0,0
26671,40273,44721,0,0,0
26572,40182,44584,0,0,0
26489,40106,44465,0,0,0
26426,40049,44372,0,0,0
26380,40009,44306,0,0,0
26352,39989,44269,0,0,0
26345,39990,44258,0,0,0
26356,40009,44273,0,0,0
26384,40042,44319,0,0,0
26430,40088,44392,0,0,0
26495,40151,44488,0,0,0
26577,40229,44607,0,0,0
26671,40316,44745,0,0,0
26773,40408,44893,0,0,0
26881,40506,45046,0,0,0
26993,40606,45201,0,0,0
27102,40707,45358,0,0,0
27207,40804,45509,0,0,0
27306,40896,45648,0,0,0
27393,40974,45769,0,0,0
27463,41035,45869,0,0,0
27517,41083,45951,0,0,0
27560,41120,46017,0,0,0
27587,41147,46067,0,0,0
27599,41163,46100,0,0,0
27600,41170,46113,0,0,0
27594,41166,46109,0,0,0
27577,41153,46091,0,0,0
27548,41129,46058,0,0,0
27511,41098,46009,0,0,0
27469,41059,45946,0,0,0
27416,41009,45871,0,0,0
27353,40950,45784,0,0,0
27287,40886,45686,0,0,0
27219,40818,45578,0,0,0
27145,40748,45464,0,0,0
27064,40676,45345,0,0,0
26981,40599,45219,0,0,0
26899,40520,45089,0,0,0
26811,40437,44956,0,0,0
26716,40352,44817,0,0,0
26621,40265,44671,0,0,0
26526,40177,44524,0,0,0
26427,40087,44377,0,0,0
26328,39999,44234,0,0,0
26235,39919,44096,0,0,0
26148,39844,43964,0,0,0
26061,39769,43836,0,0,0
25976,39693,43711,0,0,0
25896,39620,43590,0,0,0
25821,39552,43477,0,0,0
25745,39486,43370,0,0,0
25671,39423,43264,0,0,0
25601,39363,43162,0,0,0
25538,39306,43067,0,0,0
25477,39250,42976,0,0,0
25417,39195,42887,0,0,0
25363,39145,42803,0,0,0
25316,39097,42725,0,0,0
25268,39049,42655,0,0,0
25220,39004,42587,0,0,0
25174,38965,42519,0,0,0
25129,38929,42451,0,0,0
25081,38892,42384,0,0,0
25034,38856,42316,0,0,0
24991,38820,42249,0,0,0
24952,38786,42188,0,0,0
24914,38756,42135,0,0,0
24882,38733,42085,0,0,0
24856,38714,42038,0,0,0
24832,38696,41998,0,0,0
24805,38678,41963,0,0,0
24779,38660,41926,0,0,0
24758,38641,41885,0,0,0
24736,38619,41842,0,0,0
24709,38591,41798,0,0,0
24679,38560,41749,0,0,0
24647,38531,41699,0,0,0
24612,38503,41650,0,0,0
24575,38473,41602,0,0,0
24544,38445,41557,0,0,0
24517,38420,41516,0,0,0
24491,38399,41482,0,0,0
24474,38384,41456,0,0,0
24477,38385,41452,0,0,0
24509,38409,41492,0,0,0
24578,38467,41593,0,0,0
24691,38570,41768,0,0,0
24861,38727,42028,0,0,0
25088,38938,42376,0,0,0
25364,39198,42802,0,0,0
25681,39499,43292,0,0,0
26035,39832,43831,0,0,0
26412,40183,44400,0,0,0
26796,40537,44980,0,0,0
27177,40886,45552,0,0,0
27547,41224,46099,0,0,0
27895,41542,46612,0,0,0
28211,41834,47083,0,0,0
28488,42091,47502,0,0,0
28727,42312,47862,0,0,0
28928,42496,48165,0,0,0
29090,42640,48412,0,0,0
29214,42749,48603,0,0,0
29304,42825,48739,0,0,0
29359,42869,48826,0,0,0
29382,42882,48869,0,0,0
29376,42867,48869,0,0,0
29345,42829,48832,0,0,0
29288,42773,48762,0,0,0
29211,42702,48664,0,0,0
29121,42618,48537,0,0,0
29021,42522,48386,0,0,0
28909,42415,48218,0,0,0
28789,42301,48039,0,0,0
28666,42183,47851,0,0,0
28541,42065,47657,0,0,0
28413,41947,47460,0,0,0
28281,41825,47261,0,0,0
28149,41701,47060,0,0,0
28017,41575,46862,0,0,0
27881,41446,46666,0,0,0
27742,41317,46471,0,0,0
27607,41188,46273,0,0,0
27476,41062,46076,0,0,0
27340,40937,45879,0,0,0
27199,40813,45681,0,0,0
27060,40694,45482,0,0,0
26925,40576,45283,0,0,0
26791,40456,45087,0,0,0
26659,40338,44894,0,0,0
26536,40232,44710,0,0,0
26428,40138,44542,0,0,0
26338,40059,44395,0,0,0
26266,39997,44274,0,0,0
26215,39955,44183,0,0,0
26182,39931,44127,0,0,0
26167,39923,44106,0,0,0
26172,39933,44117,0,0,0
26200,39963,44157,0,0,0
26248,40009,44224,0,0,0
26311,40065,44316,0,0,0
26387,40131,44428,0,0,0
26479,40210,44559,0,0,0
26581,40300,44706,0,0,0
26689,40397,44864,0,0,0
26799,40499,45025,0,0,0
26908,40602,45186,0,0,0
27015,40704,45349,0,0,0
27115,40802,45509,0,0,0
27206,40892,45656,0,0,0
27290,40973,45785,0,0,0
27367,41046,45897,0,0,0
27434,41108,45992,0,0,0
27493,41158,46069,0,0,0
27543,41195,46128,0,0,0
27580,41218,46166,0,0,0
27598,41227,46183,0,0,0
27597,41224,46180,0,0,0
27582,41209,46159,0,0,0
27555,41183,46125,0,0,0
27518,41148,46077,0,0,0
27475,41109,46014,0,0,0
27427,41067,45937,0,0,0
27368,41018,45852,0,0,0
27299,40962,45754,0,0,0
27227,40901,45645,0,0,0
27149,40834,45530,0,0,0
27062,40758,45413,0,0,0
26971,40679,45296,0,0,0
26884,40600,45176,0,0,0
26802,40523,45051,0,0,0
26718,40444,44924,0,0,0
26629,40362,44792,0,0,0
26539,40282,44658,0,0,0
26447,40201,44525,0,0,0
26353,40115,44391,0,0,0
26259,40028,44256,0,0,0
26167,39942,44123,0,0,0
26078,39859,43992,0,0,0
25992,39779,43863,0,0,0
25908,39702,43738,0,0,0
25830,39627,43616,0,0,0
25751,39554,43500,0,0,0
25672,39482,43387,0,0,0
25596,39412,43275,0,0,0
25526,39347,43164,0,0,0
25461,39288,43061,0,0,0
25396,39232,42966,0,0,0
25333,39179,42875,0,0,0
25274,39128,42786,0,0,0
25217,39080,42702,0,0,0
25165,39037,42626,0,0,0
25120,39000,42552,0,0,0
25078,38966,42482,0,0,0
25035,38929,42418,0,0,0
24990,38891,42359,0,0,0
24947,38853,42301,0,0,0
24910,38817,42244,0,0,0
24874,38784,42190,0,0,0
24836,38752,42139,0,0,0
24800,38721,42089,0,0,0
24765,38694,42038,0,0,0
24728,38668,41986,0,0,0
24689,38638,41933,0,0,0
24653,38607,41878,0,0,0
24613,38571,41819,0,0,0
24565,38529,41755,0,0,0
24514,38483,41691,0,0,0
24469,38441,41628,0,0,0
24435,38408,41573,0,0,0
24407,38382,41528,0,0,0
24384,38364,41495,0,0,0
24376,38358,41482,0,0,0
24392,38375,41504,0,0,0
24438,38423,41581,0,0,0
24531,38512,41726,0,0,0
24684,38653,41952,0,0,0
24900,38849,42266,0,0,0
25170,39094,42662,0,0,0
25485,39379,43126,0,0,0
25839,39700,43644,0,0,0
26218,40044,44201,0,0,0
26600,40396,44777,0,0,0
26973,40745,45350,0,0,0
27336,41083,45904,0,0,0
27680,41400,46424,0,0,0
27997,41690,46903,0,0,0
28286,41953,47333,0,0,0
28543,42190,47711,0,0,0
28762,42392,48031,0,0,0
28940,42558,48296,0,0,0
29083,42690,48506,0,0,0
29195,42791,48666,0,0,0
29272,42860,48779,0,0,0
29312,42895,48849,0,0,0
29324,42901,48874,0,0,0
29313,42884,48857,0,0,0
29283,42849,48810,0,0,0
29233,42796,48739,0,0,0
29169,42729,48643,0,0,0
29093,42649,48525,0,0,0
29001,42555,48385,0,0,0
28891,42446,48224,0,0,0
28769,42328,48044,0,0,0
28637,42203,47851,0,0,0
28494,42073,47651,0,0,0
28343,41939,47445,0,0,0
28194,41806,47236,0,0,0
28051,41677,47030,0,0,0
27908,41549,46828,0,0,0
27764,41422,46629,0,0,0
27625,41297,46428,0,0,0
27487,41173,46225,0,0,0
27348,41047,46021,0,0,0
27210,40921,45813,0,0,0
27077,40794,45605,0,0,0
26949,40670,45399,0,0,0
26821,40548,45197,0,0,0
26697,40432,45002,0,0,0
26580,40326,44820,0,0,0
26471,40232,44656,0,0,0
26368,40147,44509,0,0,0
26276,40070,44382,0,0,0
26201,40006,44278,0,0,0
26148,39960,44202,0,0,0
26115,39929,44157,0,0,0
26107,39920,44140,0,0,0
26128,39934,44155,0,0,0
26174,39969,44203,0,0,0
26237,40019,44283,0,0,0
26316,40086,44390,0,0,0
26413,40171,44521,0,0,0
26522,40270,44671,0,0,0
26637,40378,44835,0,0,0
26756,40489,45009,0,0,0
26879,40601,45186,0,0,0
26999,40711,45360,0,0,0
27110,40812,45527,0,0,0
27216,40908,45682,0,0,0
27317,40999,45823,0,0,0
27403,41079,45949,0,0,0
27471,41144,46055,0,0,0
27526,41197,46140,0,0,0
27570,41236,46202,0,0,0
27597,41257,46244,0,0,0
27605,41264,46265,0,0,0
27600,41258,46264,0,0,0
27583,41240,46244,0,0,0
27555,41211,46209,0,0,0
27517,41175,46161,0,0,0
27474,41139,46102,0,0,0
27432,41102,46034,0,0,0
27385,41059,45957,0,0,0
27332,41009,45870,0,0,0
27276,40955,45776,0,0,0
27217,40898,45678,0,0,0
27150,40836,45577,0,0,0
27075,40767,45469,0,0,0
26997,40696,45352,0,0,0
26918,40623,45231,0,0,0
26835,40548,45108,0,0,0
26749,40472,44982,0,0,0
26663,40395,44853,0,0,0
26574,40318,44723,0,0,0
26478,40236,44593,0,0,0
26379,40152,44458,0,0,0
26284,40070,44324,0,0,0
26193,39993,44196,0,0,0
26106,39920,44072,0,0,0
26027,39850,43951,0,0,0
25960,39785,43835,0,0,0
25899,39719,43725,0,0,0
25841,39654,43621,0,0,0
25784,39592,43521,0,0,0
25729,39537,43428,0,0,0
25674,39486,43341,0,0,0
25617,39436,43261,0,0,0
25561,39389,43180,0,0,0
25509,39344,43100,0,0,0
25457,39297,43022,0,0,0
25403,39248,42944,0,0,0
25352,39200,42868,0,0,0
25306,39157,42795,0,0,0
25261,39116,42727,0,0,0
25216,39075,42666,0,0,0
25172,39036,42610,0,0,0
25131,39000,42556,0,0,0
25089,38962,42501,0,0,0
25043,38921,42442,0,0,0
25000,38885,42376,0,0,0
24963,38855,42309,0,0,0
24930,38826,42246,0,0,0
24899,38801,42189,0,0,0
24876,38785,42141,0,0,0
24862,38779,42107,0,0,0
24854,38783,42090,0,0,0
24857,38797,42093,0,0,0
24879,38828,42126,0,0,0
24930,38878,42202,0,0,0
25014,38955,42333,0,0,0
25142,39071,42529,0,0,0
25325,39234,42800,0,0,0
25561,39447,43149,0,0,0
25841,39703,43567,0,0,0
26160,39994,44044,0,0,0
26513,40315,44564,0,0,0
26883,40651,45107,0,0,0
27252,40987,45651,0,0,0
27607,41311,46177,0,0,0
27946,41621,46675,0,0,0
28260,41907,47139,0,0,0
28541,42162,47560,0,0,0
28788,42387,47929,0,0,0
29001,42582,48244,0,0,0
29179,42741,48509,0,0,0
29321,42866,48724,0,0,0
29429,42957,48886,0,0,0
29505,43021,49003,0,0,0
29550,43059,49079,0,0,0
29566,43075,49116,0,0,0
29561,43071,49117,0,0,0
29539,43050,49085,0,0,0
29496,43007,49025,0,0,0
29430,42941,48936,0,0,0
29350,42857,48820,0,0,0
29261,42763,48684,0,0,0
29161,42661,48533,0,0,0
29051,42553,48368,0,0,0
28937,42444,48192,0,0,0
28821,42336,48009,0,0,0
28697,42226,47821,0,0,0
28563,42113,47628,0,0,0
28425,41997,47428,0,0,0
28283,41874,47222,0,0,0
28136,41743,47012,0,0,0
27988,41610,46800,0,0,0
27846,41481,46590,0,0,0
27711,41355,46386,0,0,0
27572,41223,46185,0,0,0
27430,41086,45984,0,0,0
27292,40952,45779,0,0,0
27156,40822,45575,0,0,0
27023,40698,45375,0,0,0
26895,40581,45183,0,0,0
26781,40477,45003,0,0,0
26680,40390,44847,0,0,0
26592,40317,44720,0,0,0
26525,40259,44621,0,0,0
26483,40220,44548,0,0,0
26464,40203,44505,0,0,0
26466,40205,44492,0,0,0
26489,40224,44510,0,0,0
26534,40264,44561,0,0,0
26593,40318,44643,0,0,0
26660,40379,44747,0,0,0
26737,40448,44866,0,0,0
26829,40529,44998,0,0,0
26928,40619,45141,0,0,0
27030,40717,45293,0,0,0
27136,40823,45453,0,0,0
27246,40933,45618,0,0,0
27353,41038,45783,0,0,0
27451,41134,45938,0,0,0
27540,41222,46076,0,0,0
27621,41299,46195,0,0,0
27688,41358,46293,0,0,0
27738,41397,46367,0,0,0
27773,41424,46418,0,0,0
27795,41441,46450,0,0,0
27805,41449,46465,0,0,0
27804,41448,46466,0,0,0
27798,41441,46452,0,0,0
27787,41428,46424,0,0,0
27761,41405,46384,0,0,0
27723,41370,46329,0,0,0
27675,41328,46260,0,0,0
27620,41279,46182,0,0,0
27558,41222,46096,0,0,0
27496,41159,46003,0,0,0
27435,41094,45902,0,0,0
27374,41028,45796,0,0,0
27307,40959,45690,0,0,0
27232,40889,45579,0,0,0
27154,40819,45466,0,0,0
27074,40744,45351,0,0,0
26988,40663,45231,0,0,0
26895,40580,45105,0,0,0
26801,40500,44974,0,0,0
26707,40419,44840,0,0,0
26612,40336,44705,0,0,0
26518,40252,44573,0,0,0
26430,40172,44440,0,0,0
26344,40096,44310,0,0,0
26259,40022,44186,0,0,0
26180,39951,44068,0,0,0
26110,39887,43958,0,0,0
26045,39827,43854,0,0,0
25979,39768,43754,0,0,0
25917,39711,43657,0,0,0
25864,39658,43564,0,0,0
25813,39608,43477,0,0,0
25760,39561,43396,0,0,0
25709,39519,43319,0,0,0
25662,39480,43245,0,0,0
25619,39442,43174,0,0,0
25577,39405,43111,0,0,0
25537,39369,43052,0,0,0
25500,39337,42997,0,0,0
25458,39305,42943,0,0,0
25413,39269,42890,0,0,0
25369,39231,42834,0,0,0
25330,39194,42774,0,0,0
25289,39153,42710,0,0,0
25246,39111,42647,0,0,0
25205,39074,42585,0,0,0
25166,39044,42526,0,0,0
25125,39012,42467,0,0,0
25082,38974,42406,0,0,0
25042,38934,42340,0,0,0
25001,38894,42272,0,0,0
24960,38856,42211,0,0,0
24927,38823,42166,0,0,0
24913,38808,42147,0,0,0
24926,38819,42166,0,0,0
24973,38866,42237,0,0,0
25066,38955,42375,0,0,0
25216,39095,42592,0,0,0
25425,39288,42893,0,0,0
25686,39532,43276,0,0,0
25991,39819,43730,0,0,0
26333,40140,44237,0,0,0
26699,40482,44778,0,0,0
27071,40830,45336,0,0,0
27440,41177,45892,0,0,0
27799,41513,46427,0,0,0
28139,41829,46930,0,0,0
28446,42113,47387,0,0,0
28721,42364,47792,0,0,0
28965,42581,48145,0,0,0
29171,42762,48447,0,0,0
29337,42906,48698,0,0,0
29470,43017,48895,0,0,0
29571,43100,49042,0,0,0
29639,43155,49143,0,0,0
29675,43184,49202,0,0,0
29685,43187,49222,0,0,0
29673,43167,49208,0,0,0
29642,43128,49164,0,0,0
29592,43074,49091,0,0,0
29525,43009,48991,0,0,0
29444,42933,48870,0,0,0
29349,42847,48734,0,0,0
29239,42750,48581,0,0,0
29119,42645,48413,0,0,0
28992,42530,48233,0,0,0
28857,42407,48043,0,0,0
28714,42278,47842,0,0,0
28571,42147,47631,0,0,0
28429,42015,47416,0,0,0
28284,41881,47201,0,0,0
28138,41747,46989,0,0,0
27999,41617,46779,0,0,0
27862,41490,46569,0,0,0
27723,41361,46358,0,0,0
27581,41228,46145,0,0,0
27440,41095,45932,0,0,0
27302,40962,45722,0,0,0
27165,40830,45516,0,0,0
27032,40701,45315,0,0,0
26909,40581,45121,0,0,0
26799,40478,44946,0,0,0
26702,40391,44798,0,0,0
26624,40322,44679,0,0,0
26568,40275,44591,0,0,0
26533,40247,44536,0,0,0
26518,40238,44513,0,0,0
26526,40248,44520,0,0,0
26557,40279,44557,0,0,0
26606,40326,44622,0,0,0
26670,40385,44713,0,0,0
26749,40457,44826,0,0,0
26844,40543,44959,0,0,0
26949,40637,45109,0,0,0
27059,40737,45273,0,0,0
27175,40846,45443,0,0,0
27295,40959,45616,0,0,0
27411,41068,45787,0,0,0
27521,41171,45950,0,0,0
27625,41268,46100,0,0,0
27721,41358,46236,0,0,0
27802,41433,46355,0,0,0
27865,41491,46453,0,0,0
27917,41538,46530,0,0,0
27959,41575,46590,0,0,0
27988,41599,46632,0,0,0
28002,41610,46655,0,0,0
28006,41612,46663,0,0,0
28005,41608,46658,0,0,0
27993,41595,46640,0,0,0
27968,41571,46606,0,0,0
27934,41539,46557,0,0,0
27892,41498,46495,0,0,0
27838,41445,46422,0,0,0
27775,41382,46336,0,0,0
27709,41316,46237,0,0,0
27641,41251,46132,0,0,0
27567,41185,46024,0,0,0
27490,41118,45913,0,0,0
27415,41052,45799,0,0,0
27341,40988,45685,0,0,0
27266,40923,45569,0,0,0
27189,40855,45446,0,0,0
27111,40787,45317,0,0,0
27029,40716,45190,0,0,0
26939,40638,45063,0,0,0
26844,40557,44933,0,0,0
26752,40477,44802,0,0,0
26664,40398,44675,0,0,0
26579,40319,44555,0,0,0
26495,40243,44441,0,0,0
26418,40174,44332,0,0,0
26346,40112,44229,0,0,0
26277,40053,44129,0,0,0
26213,39994,44032,0,0,0
26152,39936,43939,0,0,0
26093,39880,43851,0,0,0
26034,39825,43766,0,0,0
25978,39776,43686,0,0,0
25931,39736,43612,0,0,0
25887,39699,43547,0,0,0
25846,39664,43488,0,0,0
25810,39633,43433,0,0,0
25779,39605,43383,0,0,0
25747,39575,43334,0,0,0
25711,39543,43285,0,0,0
25676,39511,43232,0,0,0
25646,39478,43179,0,0,0
25617,39446,43130,0,0,0
25588,39415,43084,0,0,0
25563,39389,43036,0,0,0
25539,39365,42987,0,0,0
25511,39338,42940,0,0,0
25476,39306,42890,0,0,0
25441,39272,42835,0,0,0
25406,39238,42780,0,0,0
25369,39202,42726,0,0,0
25332,39169,42673,0,0,0
25303,39144,42626,0,0,0
25289,39132,42596,0,0,0
25293,39135,42597,0,0,0
25321,39161,42637,0,0,0
25386,39222,42726,0,0,0
25495,39326,42880,0,0,0
25647,39474,43108,0,0,0
25850,39669,43415,0,0,0
26107,39911,43797,0,0,0
26412,40193,44246,0,0,0
26751,40503,44746,0,0,0
27110,40833,45274,0,0,0
27480,41170,45813,0,0,0
27844,41502,46348,0,0,0
28189,41818,46861,0,0,0
28508,42113,47339,0,0,0
28798,42381,47772,0,0,0
29053,42618,48155,0,0,0
29271,42819,48483,0,0,0
29454,42987,48756,0,0,0
29605,43125,48981,0,0,0
29726,43232,49163,0,0,0
29815,43308,49302,0,0,0
29876,43359,49397,0,0,0
29914,43385,49451,0,0,0
29927,43387,49467,0,0,0
29913,43365,49447,0,0,0
29878,43326,49393,0,0,0
29826,43274,49311,0,0,0
29760,43204,49208,0,0,0
29678,43119,49087,0,0,0
29584,43023,48948,0,0,0
29477,42919,48794,0,0,0
29359,42805,48627,0,0,0
29231,42685,48443,0,0,0
29099,42562,48248,0,0,0
28964,42440,48048,0,0,0
28823,42317,47846,0,0,0
28681,42193,47643,0,0,0
28542,42067,47439,0,0,0
28408,41941,47236,0,0,0
28272,41813,47034,0,0,0
28134,41683,46834,0,0,0
27998,41556,46632,0,0,0
27862,41431,46431,0,0,0
27725,41307,46233,0,0,0
27589,41187,46035,0,0,0
27461,41076,45843,0,0,0
27341,40973,45663,0,0,0
27230,40877,45498,0,0,0
27128,40791,45350,0,0,0
27046,40721,45222,0,0,0
26989,40668,45125,0,0,0
26951,40634,45058,0,0,0
26931,40620,45021,0,0,0
26933,40629,45019,0,0,0
26952,40656,45051,0,0,0
26989,40697,45112,0,0,0
27043,40751,45194,0,0,0
27116,40816,45295,0,0,0
27201,40891,45413,0,0,0
27295,40975,45546,0,0,0
27399,41067,45690,0,0,0
27514,41166,45844,0,0,0
27632,41268,46006,0,0,0
27749,41369,46171,0,0,0
27865,41467,46332,0,0,0
27975,41562,46487,0,0,0
28072,41653,46634,0,0,0
28152,41731,46765,0,0,0
28222,41798,46873,0,0,0
28281,41856,46957,0,0,0
28324,41901,47021,0,0,0
28352,41931,47066,0,0,0
28372,41950,47089,0,0,0
28384,41960,47098,0,0,0
28384,41956,47095,0,0,0
28369,41940,47076,0,0,0
28345,41914,47040,0,0,0
28309,41879,46990,0,0,0
28263,41832,46930,0,0,0
28208,41779,46859,0,0,0
28150,41722,46779,0,0,0
28092,41662,46694,0,0,0
28029,41597,46602,0,0,0
27961,41530,46504,0,0,0
27891,41463,46401,0,0,0
27821,41396,46295,0,0,0
27743,41325,46183,0,0,0
27658,41249,46066,0,0,0
27574,41171,45944,0,0,0
27488,41093,45821,0,0,0
27396,41013,45695,0,0,0
27303,40935,45568,0,0,0
27218,40863,45444,0,0,0
27135,40793,45324,0,0,0
27053,40725,45207,0,0,0
26978,40662,45094,0,0,0
26911,40604,44985,0,0,0
26850,40546,44884,0,0,0
26791,40488,44792,0,0,0
26734,40432,44706,0,0,0
26680,40382,44623,0,0,0
26626,40335,44543,0,0,0
26572,40287,44467,0,0,0
26519,40240,44391,0,0,0
26467,40193,44316,0,0,0
26417,40148,44243,0,0,0
26369,40105,44172,0,0,0
26326,40066,44105,0,0,0
26293,40034,44045,0,0,0
26265,40007,43993,0,0,0
26235,39981,43943,0,0,0
26205,39958,43893,0,0,0
26176,39938,43847,0,0,0
26147,39918,43805,0,0,0
26116,39894,43763,0,0,0
26087,39870,43721,0,0,0
26061,39850,43680,0,0,0
26033,39828,43640,0,0,0
26002,39805,43598,0,0,0
25970,39781,43552,0,0,0
25938,39754,43505,0,0,0
25907,39723,43459,0,0,0
25875,39689,43413,0,0,0
25847,39658,43368,0,0,0
25829,39637,43331,0,0,0
25822,39626,43315,0,0,0
25836,39633,43329,0,0,0
25879,39665,43384,0,0,0
25960,39733,43492,0,0,0
26084,39844,43667,0,0,0
26260,40003,43917,0,0,0
26489,40210,44243,0,0,0
26764,40460,44638,0,0,0
27070,40742,45087,0,0,0
27396,41046,45571,0,0,0
27736,41362,46070,0,0,0
28075,41675,46572,0,0,0
28401,41976,47058,0,0,0
28707,42259,47513,0,0,0
28990,42518,47929,0,0,0
29245,42751,48307,0,0,0
29466,42955,48641,0,0,0
29656,43129,48928,0,0,0
29817,43276,49168,0,0,0
29949,43393,49366,0,0,0
30050,43481,49520,0,0,0
30124,43542,49631,0,0,0
30176,43578,49699,0,0,0
30200,43591,49730,0,0,0
30196,43585,49730,0,0,0
30173,43563,49702,0,0,0
30134,43526,49649,0,0,0
30078,43473,49573,0,0,0
30006,43406,49476,0,0,0
29924,43330,49359,0,0,0
29836,43247,49227,0,0,0
29738,43154,49083,0,0,0
29632,43051,48924,0,0,0
29522,42943,48753,0,0,0
29408,42830,48570,0,0,0
29284,42711,48379,0,0,0
29151,42588,48184,0,0,0
29018,42465,47986,0,0,0
28889,42343,47791,0,0,0
28759,42221,47600,0,0,0
28628,42100,47408,0,0,0
28498,41979,47212,0,0,0
28369,41856,47016,0,0,0
28237,41731,46823,0,0,0
28104,41607,46631,0,0,0
27977,41490,46445,0,0,0
27861,41382,46270,0,0,0
27754,41282,46110,0,0,0
27657,41192,45963,0,0,0
27577,41117,45835,0,0,0
27515,41059,45734,0,0,0
27471,41017,45662,0,0,0
27442,40993,45617,0,0,0
27435,40991,45600,0,0,0
27447,41010,45617,0,0,0
27475,41043,45662,0,0,0
27519,41093,45730,0,0,0
27582,41158,45820,0,0,0
27659,41238,45936,0,0,0
27748,41327,46072,0,0,0
27850,41426,46219,0,0,0
27960,41529,46374,0,0,0
28072,41629,46536,0,0,0
28180,41725,46699,0,0,0
28286,41817,46855,0,0,0
28390,41904,46999,0,0,0
28485,41984,47126,0,0,0
28566,42052,47234,0,0,0
28635,42112,47323,0,0,0
28696,42167,47398,0,0,0
28744,42210,47461,0,0,0
28774,42240,47507,0,0,0
28791,42259,47534,0,0,0
28792,42269,47544,0,0,0
28781,42266,47537,0,0,0
28761,42252,47515,0,0,0
28740,42233,47478,0,0,0
28716,42208,47430,0,0,0
28683,42175,47373,0,0,0
28638,42131,47306,0,0,0
28588,42079,47229,0,0,0
28530,42021,47144,0,0,0
28461,41956,47050,0,0,0
28383,41886,46945,0,0,0
28305,41811,46832,0,0,0
28226,41735,46717,0,0,0
28145,41660,46603,0,0,0
28064,41588,46490,0,0,0
27990,41518,46378,0,0,0
27920,41448,46271,0,0,0
27852,41382,46167,0,0,0
27784,41318,46064,0,0,0
27716,41257,45959,0,0,0
27646,41197,45855,0,0,0
27570,41137,45754,0,0,0
27494,41075,45654,0,0,0
27425,41015,45554,0,0,0
27360,40958,45455,0,0,0
27293,40901,45358,0,0,0
27230,40846,45263,0,0,0
27173,40798,45170,0,0,0
27117,40748,45084,0,0,0
27057,40698,44999,0,0,0
26999,40649,44916,0,0,0
26945,40603,44837,0,0,0
26895,40557,44767,0,0,0
26850,40513,44702,0,0,0
26813,40474,44640,0,0,0
26786,40444,44585,0,0,0
26765,40418,44540,0,0,0
26748,40394,44501,0,0,0
26735,40372,44465,0,0,0
26722,40352,44432,0,0,0
26704,40332,44402,0,0,0
26683,40312,44375,0,0,0
26660,40292,44345,0,0,0
26640,40273,44314,0,0,0
26619,40255,44280,0,0,0
26595,40236,44245,0,0,0
26574,40220,44209,0,0,0
26554,40203,44176,0,0,0
26529,40183,44143,0,0,0
26495,40159,44104,0,0,0
26458,40132,44056,0,0,0
26419,40099,44000,0,0,0
26374,40058,43938,0,0,0
26329,40014,43874,0,0,0
26290,39978,43816,0,0,0
26260,39950,43771,0,0,0
26236,39930,43742,0,0,0
26231,39923,43739,0,0,0
26256,39943,43775,0,0,0
26317,39996,43861,0,0,0
26416,40089,44009,0,0,0
26559,40228,44225,0,0,0
26754,40413,44511,0,0,0
26997,40641,44865,0,0,0
27278,40902,45272,0,0,0
27585,41185,45715,0,0,0
27910,41485,46179,0,0,0
28242,41791,46652,0,0,0
28568,42092,47120,0,0,0
28878,42377,47565,0,0,0
29164,42638,47977,0,0,0
29418,42872,48355,0,0,0
29639,43074,48693,0,0,0
29833,43248,48987,0,0,0
30003,43397,49238,0,0,0
30145,43520,49449,0,0,0
30258,43616,49615,0,0,0
30344,43688,49737,0,0,0
30404,43738,49819,0,0,0
30438,43765,49870,0,0,0
30446,43770,49890,0,0,0
30435,43757,49879,0,0,0
30406,43726,49838,0,0,0
30352,43676,49766,0,0,0
30278,43609,49664,0,0,0
30193,43533,49538,0,0,0
30101,43449,49396,0,0,0
29999,43353,49242,0,0,0
29888,43245,49077,0,0,0
29772,43132,48904,0,0,0
29653,43016,48722,0,0,0
29525,42896,48537,0,0,0
29391,42772,48350,0,0,0
29260,42649,48162,0,0,0
29134,42527,47976,0,0,0
29008,42404,47790,0,0,0
28881,42285,47603,0,0,0
28757,42173,47417,0,0,0
28635,42063,47236,0,0,0
28510,41950,47056,0,0,0
28385,41838,46873,0,0,0
28264,41728,46689,0,0,0
28146,41622,46515,0,0,0
28034,41523,46356,0,0,0
27932,41435,46212,0,0,0
27848,41363,46089,0,0,0
27779,41305,45991,0,0,0
27724,41257,45918,0,0,0
27689,41225,45869,0,0,0
27676,41213,45844,0,0,0
27683,41221,45847,0,0,0
27706,41244,45875,0,0,0
27750,41280,45926,0,0,0
27814,41328,45997,0,0,0
27890,41390,46088,0,0,0
27975,41466,46200,0,0,0
28070,41556,46326,0,0,0
28175,41657,46464,0,0,0
28281,41761,46613,0,0,0
28385,41861,46765,0,0,0
28488,41959,46913,0,0,0
28587,42052,47053,0,0,0
28676,42138,47185,0,0,0
28755,42214,47306,0,0,0
28827,42280,47410,0,0,0
28890,42338,47494,0,0,0
28939,42382,47562,0,0,0
28973,42411,47611,0,0,0
28994,42425,47637,0,0,0
29002,42422,47643,0,0,0
28993,42406,47633,0,0,0
28970,42381,47606,0,0,0
28944,42352,47566,0,0,0
28914,42322,47517,0,0,0
28876,42286,47460,0,0,0
28830,42247,47395,0,0,0
28779,42205,47322,0,0,0
28724,42156,47243,0,0,0
28661,42101,47156,0,0,0
28592,42039,47060,0,0,0
28522,41974,46955,0,0,0
28450,41907,46849,0,0,0
28374,41838,46739,0,0,0
28298,41769,46626,0,0,0
28226,41703,46512,0,0,0
28154,41635,46398,0,0,0
28076,41563,46286,0,0,0
27995,41492,46174,0,0,0
27917,41424,46067,0,0,0
27844,41356,45963,0,0,0
27769,41286,45861,0,0,0
27692,41215,45758,0,0,0
27618,41147,45654,0,0,0
27545,41079,45553,0,0,0
27470,41008,45452,0,0,0
27401,40940,45353,0,0,0
27342,40879,45259,0,0,0
27289,40826,45172,0,0,0
27235,40779,45092,0,0,0
27185,40740,45018,0,0,0
27140,40707,44948,0,0,0
27096,40675,44882,0,0,0
27050,40639,44818,0,0,0
27009,40606,44754,0,0,0
26974,40579,44696,0,0,0
26941,40553,44643,0,0,0
26908,40525,44591,0,0,0
26879,40502,44541,0,0,0
26856,40481,44498,0,0,0
26834,40458,44462,0,0,0
26814,40435,44430,0,0,0
26797,40417,44401,0,0,0
26781,40399,44373,0,0,0
26760,40377,44344,0,0,0
26733,40353,44309,0,0,0
26706,40331,44267,0,0,0
26682,40312,44226,0,0,0
26654,40290,44187,0,0,0
26623,40269,44146,0,0,0
26593,40250,44104,0,0,0
26563,40229,44061,0,0,0
26528,40203,44015,0,0,0
26489,40173,43961,0,0,0
26452,40141,43904,0,0,0
26415,40108,43849,0,0,0
26382,40076,43801,0,0,0
26364,40052,43767,0,0,0
26367,40049,43755,0,0,0
26390,40066,43774,0,0,0
26434,40106,43836,0,0,0
26512,40176,43948,0,0,0
26632,40289,44123,0,0,0
26797,40445,44369,0,0,0
27007,40641,44687,0,0,0
27262,40877,45069,0,0,0
27556,41148,45499,0,0,0
27870,41439,45958,0,0,0
28190,41736,46430,0,0,0
28510,42031,46899,0,0,0
28820,42315,47354,0,0,0
29107,42584,47785,0,0,0
29366,42830,48181,0,0,0
29596,43049,48536,0,0,0
29797,43237,48848,0,0,0
29966,43393,49117,0,0,0
30103,43514,49339,0,0,0
30215,43608,49514,0,0,0
30307,43681,49646,0,0,0
30375,43730,49740,0,0,0
30418,43757,49795,0,0,0
30442,43766,49814,0,0,0
30447,43760,49802,0,0,0
30427,43736,49761,0,0,0
30383,43693,49691,0,0,0
30323,43635,49598,0,0,0
30247,43562,49485,0,0,0
30151,43473,49354,0,0,0
30043,43370,49204,0,0,0
29931,43256,49039,0,0,0
29815,43137,48865,0,0,0
29691,43015,48685,0,0,0
29566,42894,48498,0,0,0
29442,42777,48308,0,0,0
29316,42660,48116,0,0,0
29185,42540,47926,0,0,0
29051,42419,47737,0,0,0
28917,42302,47549,0,0,0
28783,42186,47366,0,0,0
28649,42068,47183,0,0,0
28518,41952,47002,0,0,0
28395,41842,46824,0,0,0
28275,41736,46649,0,0,0
28158,41632,46476,0,0,0
28048,41537,46308,0,0,0
27950,41453,46152,0,0,0
27861,41377,46014,0,0,0
27779,41308,45895,0,0,0
27712,41252,45796,0,0,0
27664,41212,45720,0,0,0
27632,41186,45667,0,0,0
27617,41170,45639,0,0,0
27626,41171,45639,0,0,0
27662,41194,45670,0,0,0
27717,41237,45732,0,0,0
27788,41297,45824,0,0,0
27875,41372,45937,0,0,0
27977,41463,46069,0,0,0
28085,41562,46218,0,0,0
28194,41662,46375,0,0,0
28306,41766,46533,0,0,0
28420,41871,46690,0,0,0
28530,41971,46844,0,0,0
28633,42064,46988,0,0,0
28729,42147,47116,0,0,0
28809,42215,47228,0,0,0
28868,42267,47324,0,0,0
28908,42306,47398,0,0,0
28933,42333,47448,0,0,0
28950,42350,47476,0,0,0
28956,42355,47486,0,0,0
28951,42354,47481,0,0,0
28942,42347,47463,0,0,0
28928,42334,47436,0,0,0
28904,42312,47401,0,0,0
28870,42281,47354,0,0,0
28829,42246,47298,0,0,0
28781,42204,47236,0,0,0
28723,42153,47165,0,0,0
28660,42098,47083,0,0,0
28594,42038,46990,0,0,0
28521,41970,46889,0,0,0
28439,41895,46780,0,0,0
28356,41819,46662,0,0,0
28274,41742,46540,0,0,0
28189,41666,46421,0,0,0
28102,41592,46304,0,0,0
28016,41519,46183,0,0,0
27933,41448,46059,0,0,0
27848,41375,45933,0,0,0
27758,41298,45809,0,0,0
27668,41221,45686,0,0,0
27587,41150,45570,0,0,0
27514,41085,45464,0,0,0
27444,41025,45364,0,0,0
27380,40970,45267,0,0,0
27323,40919,45175,0,0,0
27266,40865,45089,0,0,0
27207,40809,45005,0,0,0
27153,40755,44922,0,0,0
27104,40703,44841,0,0,0
27055,40652,44765,0,0,0
27005,40601,44689,0,0,0
26957,40556,44614,0,0,0
26911,40514,44544,0,0,0
26863,40474,44478,0,0,0
26814,40436,44414,0,0,0
26771,40402,44351,0,0,0
26733,40374,44294,0,0,0
26697,40347,44247,0,0,0
26665,40324,44206,0,0,0
26640,40306,44169,0,0,0
26617,40289,44135,0,0,0
26593,40269,44104,0,0,0
26574,40249,44073,0,0,0
26560,40230,44040,0,0,0
26547,40213,44009,0,0,0
26531,40196,43979,0,0,0
26513,40182,43949,0,0,0
26495,40169,43918,0,0,0
26474,40150,43886,0,0,0
26445,40125,43851,0,0,0
26410,40098,43809,0,0,0
26373,40069,43761,0,0,0
26332,40033,43709,0,0,0
26288,39993,43651,0,0,0
26245,39956,43590,0,0,0
26209,39924,43532,0,0,0
26178,39898,43483,0,0,0
26154,39882,43449,0,0,0
26149,39884,43443,0,0,0
26174,39914,43479,0,0,0
26234,39977,43568,0,0,0
26334,40075,43721,0,0,0
26485,40216,43943,0,0,0
26687,40403,44237,0,0,0
26935,40631,44598,0,0,0
27217,40891,45012,0,0,0
27526,41175,45461,0,0,0
27849,41474,45932,0,0,0
28174,41773,46410,0,0,0
28490,42063,46878,0,0,0
28792,42339,47322,0,0,0
29073,42592,47733,0,0,0
29324,42816,48104,0,0,0
29541,43008,48428,0,0,0
29724,43170,48703,0,0,0
29875,43303,48932,0,0,0
29991,43406,49113,0,0,0
30076,43484,49246,0,0,0
30136,43536,49334,0,0,0
30174,43564,49385,0,0,0
30186,43571,49405,0,0,0
30176,43557,49392,0,0,0
30151,43525,49349,0,0,0
30109,43475,49280,0,0,0
30043,43407,49188,0,0,0
29958,43322,49072,0,0,0
29857,43225,48933,0,0,0
29746,43119,48780,0,0,0
29622,43004,48615,0,0,0
29491,42883,48435,0,0,0
29357,42763,48242,0,0,0
29221,42643,48043,0,0,0
29082,42518,47841,0,0,0
28942,42391,47636,0,0,0
28804,42263,47430,0,0,0
28662,42131,47226,0,0,0
28514,41996,47023,0,0,0
28361,41861,46819,0,0,0
28209,41731,46614,0,0,0
28058,41599,46409,0,0,0
27912,41466,46203,0,0,0
27773,41336,45996,0,0,0
27642,41214,45791,0,0,0
27517,41100,45595,0,0,0
27401,40996,45412,0,0,0
27300,40905,45248,0,0,0
27215,40830,45109,0,0,0
27140,40765,44994,0,0,0
27076,40713,44903,0,0,0
27032,40676,44837,0,0,0
27011,40657,44799,0,0,0
27007,40656,44794,0,0,0
27023,40677,44823,0,0,0
27063,40722,44880,0,0,0
27128,40786,44966,0,0,0
27209,40862,45079,0,0,0
27302,40946,45211,0,0,0
27407,41041,45355,0,0,0
27520,41145,45511,0,0,0
27636,41252,45675,0,0,0
27750,41358,45842,0,0,0
27862,41462,46009,0,0,0
27968,41562,46170,0,0,0
28063,41654,46320,0,0,0
28145,41736,46453,0,0,0
28214,41806,46565,0,0,0
28269,41861,46656,0,0,0
28309,41898,46727,0,0,0
28337,41922,46776,0,0,0
28357,41937,46804,0,0,0
28366,41941,46815,0,0,0
28362,41935,46809,0,0,0
28346,41920,46784,0,0,0
28320,41896,46745,0,0,0
28282,41859,46694,0,0,0
28229,41808,46629,0,0,0
28170,41752,46549,0,0,0
28109,41694,46459,0,0,0
28043,41631,46360,0,0,0
27970,41558,46253,0,0,0
27894,41480,46136,0,0,0
27820,41403,46012,0,0,0
27740,41326,45886,0,0,0
27651,41246,45759,0,0,0
27559,41167,45633,0,0,0
27467,41090,45506,0,0,0
27371,41014,45379,0,0,0
27270,40933,45250,0,0,0
27171,40850,45118,0,0,0
27077,40766,44984,0,0,0
26986,40682,44854,0,0,0
26897,40600,44728,0,0,0
26814,40522,44604,0,0,0
26738,40451,44488,0,0,0
26666,40384,44381,0,0,0
26599,40323,44285,0,0,0
26540,40269,44193,0,0,0
26484,40220,44104,0,0,0
26428,40173,44020,0,0,0
26374,40130,43940,0,0,0
26325,40095,43865,0,0,0
26283,40064,43795,0,0,0
26241,40035,43729,0,0,0
26200,40007,43668,0,0,0
26165,39984,43612,0,0,0
26137,39964,43564,0,0,0
26113,39944,43525,0,0,0
26090,39921,43490,0,0,0
26068,39899,43456,0,0,0
26044,39878,43422,0,0,0
26014,39854,43390,0,0,0
25983,39829,43357,0,0,0
25959,39805,43322,0,0,0
25937,39780,43287,0,0,0
25915,39754,43251,0,0,0
25893,39729,43216,0,0,0
25875,39707,43181,0,0,0
25852,39683,43144,0,0,0
25820,39657,43103,0,0,0
25784,39633,43058,0,0,0
