green_channel,red_channel,ir_channel,Anomaly_ch0,Anomaly_ch1,Anomaly_ch2
6719,55526,37432,0,0,0
6618,55404,37237,0,0,0
6530,55292,37060,0,0,0
6455,55194,36905,0,0,0
6396,55121,36784,0,0,0
6355,55077,36704,0,0,0
6332,55059,36663,0,0,0
6329,55061,36658,0,0,0
6345,55084,36687,0,0,0
6379,55125,36746,0,0,0
6429,55182,36829,0,0,0
6493,55254,36939,0,0,0
6570,55344,37075,0,0,0
6654,55448,37228,0,0,0
6741,55558,37390,0,0,0
6828,55669,37559,0,0,0
6916,55782,37735,0,0,0
7007,55896,37913,0,0,0
7099,56009,38086,0,0,0
7185,56116,38249,0,0,0
7266,56215,38402,0,0,0
7343,56307,38545,0,0,0
7413,56388,38674,0,0,0
7474,56462,38786,0,0,0
7525,56526,38882,0,0,0
7564,56577,38958,0,0,0
7592,56615,39012,0,0,0
7610,56636,39043,0,0,0
7616,56640,39054,0,0,0
7607,56628,39046,0,0,0
7588,56606,39021,0,0,0
7561,56576,38979,0,0,0
7527,56538,38921,0,0,0
7487,56492,38847,0,0,0
7442,56434,38758,0,0,0
7390,56367,38658,0,0,0
7334,56296,38552,0,0,0
7275,56222,38442,0,0,0
7214,56141,38324,0,0,0
7149,56054,38197,0,0,0
7085,55967,38068,0,0,0
7022,55883,37943,0,0,0
6959,55798,37816,0,0,0
6895,55711,37683,0,0,0
6828,55622,37547,0,0,0
6753,55530,37407,0,0,0
6674,55436,37264,0,0,0
6594,55342,37121,0,0,0
6517,55251,36980,0,0,0
6445,55165,36844,0,0,0
6376,55082,36713,0,0,0
6307,55001,36587,0,0,0
6238,54921,36465,0,0,0
6171,54842,36347,0,0,0
6106,54768,36236,0,0,0
6046,54700,36133,0,0,0
5989,54636,36036,0,0,0
5936,54573,35940,0,0,0
5887,54509,35848,0,0,0
5841,54445,35760,0,0,0
5798,54385,35675,0,0,0
5758,54332,35594,0,0,0
5719,54284,35517,0,0,0
5681,54239,35444,0,0,0
5644,54198,35376,0,0,0
5611,54162,35314,0,0,0
5581,54133,35258,0,0,0
5555,54111,35206,0,0,0
5534,54093,35160,0,0,0
5513,54072,35119,0,0,0
5494,54048,35081,0,0,0
5478,54027,35049,0,0,0
5464,54008,35020,0,0,0
5448,53988,34988,0,0,0
5429,53965,34952,0,0,0
5412,53944,34919,0,0,0
5397,53926,34891,0,0,0
5384,53912,34866,0,0,0
5374,53898,34845,0,0,0
5361,53884,34827,0,0,0
5347,53866,34813,0,0,0
5334,53848,34802,0,0,0
5325,53837,34797,0,0,0
5318,53830,34792,0,0,0
5309,53823,34781,0,0,0
5296,53812,34763,0,0,0
5282,53796,34739,0,0,0
5269,53776,34707,0,0,0
5253,53754,34667,0,0,0
5231,53725,34619,0,0,0
5203,53690,34562,0,0,0
5168,53652,34499,0,0,0
5125,53605,34434,0,0,0
5078,53552,34367,0,0,0
5031,53497,34298,0,0,0
4986,53443,34223,0,0,0
4943,53387,34146,0,0,0
4902,53332,34069,0,0,0
4864,53283,33998,0,0,0
4829,53243,33939,0,0,0
4802,53210,33896,0,0,0
4786,53190,33875,0,0,0
4789,53199,33891,0,0,0
4819,53248,33961,0,0,0
4884,53336,34088,0,0,0
4990,53468,34281,0,0,0
5139,53650,34547,0,0,0
5326,53881,34888,0,0,0
5546,54153,35293,0,0,0
5795,54461,35755,0,0,0
6067,54793,36260,0,0,0
6353,55141,36792,0,0,0
6648,55499,37342,0,0,0
6943,55859,37896,0,0,0
7226,56208,38438,0,0,0
7493,56540,38954,0,0,0
7741,56853,39438,0,0,0
7972,57140,39888,0,0,0
8184,57399,40295,0,0,0
8371,57624,40653,0,0,0
8526,57808,40958,0,0,0
8651,57958,41211,0,0,0
8756,58081,41417,0,0,0
8841,58177,41573,0,0,0
8900,58244,41674,0,0,0
8935,58281,41722,0,0,0
8948,58292,41726,0,0,0
8939,58274,41693,0,0,0
8909,58230,41625,0,0,0
8865,58167,41526,0,0,0
8810,58090,41402,0,0,0
8744,58001,41256,0,0,0
8671,57903,41092,0,0,0
8592,57797,40917,0,0,0
8506,57684,40731,0,0,0
8412,57566,40536,0,0,0
8314,57446,40339,0,0,0
8215,57325,40143,0,0,0
8118,57202,39948,0,0,0
8021,57076,39750,0,0,0
7922,56948,39549,0,0,0
7824,56819,39344,0,0,0
7725,56690,39138,0,0,0
7623,56559,38929,0,0,0
7513,56420,38714,0,0,0
7399,56279,38497,0,0,0
7286,56142,38285,0,0,0
7175,56009,38083,0,0,0
7068,55886,37892,0,0,0
6972,55777,37723,0,0,0
6891,55683,37579,0,0,0
6824,55602,37459,0,0,0
6775,55542,37367,0,0,0
6747,55507,37309,0,0,0
6737,55498,37285,0,0,0
6747,55511,37294,0,0,0
6775,55545,37334,0,0,0
6819,55596,37402,0,0,0
6873,55658,37492,0,0,0
6937,55732,37603,0,0,0
7012,55819,37734,0,0,0
7094,55917,37881,0,0,0
7183,56023,38039,0,0,0
7272,56129,38203,0,0,0
7360,56232,38367,0,0,0
7446,56333,38531,0,0,0
7528,56431,38688,0,0,0
7603,56523,38836,0,0,0
7671,56610,38972,0,0,0
7736,56692,39097,0,0,0
7796,56767,39208,0,0,0
7846,56831,39301,0,0,0
7886,56881,39373,0,0,0
7917,56918,39426,0,0,0
7936,56941,39462,0,0,0
7944,56953,39479,0,0,0
7943,56952,39476,0,0,0
7931,56938,39455,0,0,0
7911,56912,39417,0,0,0
7884,56877,39361,0,0,0
7852,56834,39291,0,0,0
7814,56785,39212,0,0,0
7768,56729,39124,0,0,0
7716,56668,39030,0,0,0
7663,56604,38934,0,0,0
7607,56537,38835,0,0,0
7550,56468,38729,0,0,0
7491,56396,38619,0,0,0
7430,56322,38505,0,0,0
7372,56246,38387,0,0,0
7316,56169,38267,0,0,0
7259,56090,38148,0,0,0
7199,56013,38029,0,0,0
7138,55937,37912,0,0,0
7077,55859,37793,0,0,0
7015,55779,37670,0,0,0
6954,55697,37546,0,0,0
6892,55613,37422,0,0,0
6824,55526,37294,0,0,0
6753,55438,37166,0,0,0
6682,55357,37044,0,0,0
6611,55285,36929,0,0,0
6547,55216,36818,0,0,0
6490,55150,36712,0,0,0
6437,55087,36608,0,0,0
6380,55027,36508,0,0,0
6324,54969,36415,0,0,0
6275,54915,36329,0,0,0
6234,54865,36249,0,0,0
6196,54817,36173,0,0,0
6159,54772,36102,0,0,0
6120,54729,36037,0,0,0
6085,54690,35979,0,0,0
6055,54653,35925,0,0,0
6026,54614,35874,0,0,0
5998,54576,35828,0,0,0
5971,54545,35788,0,0,0
5947,54516,35749,0,0,0
5922,54487,35708,0,0,0
5899,54458,35668,0,0,0
5878,54437,35634,0,0,0
5860,54422,35605,0,0,0
5847,54411,35579,0,0,0
5839,54404,35558,0,0,0
5833,54397,35543,0,0,0
5824,54385,35528,0,0,0
5817,54376,35514,0,0,0
5812,54370,35500,0,0,0
5805,54364,35484,0,0,0
5795,54356,35465,0,0,0
5783,54343,35445,0,0,0
5769,54331,35424,0,0,0
5755,54320,35402,0,0,0
5739,54305,35375,0,0,0
5717,54281,35339,0,0,0
5692,54252,35296,0,0,0
5665,54219,35245,0,0,0
5631,54180,35185,0,0,0
5591,54135,35115,0,0,0
5550,54088,35043,0,0,0
5508,54041,34970,0,0,0
5467,53992,34896,0,0,0
5426,53940,34821,0,0,0
5384,53886,34746,0,0,0
5339,53830,34671,0,0,0
5294,53775,34596,0,0,0
5255,53725,34523,0,0,0
5220,53683,34461,0,0,0
5192,53651,34415,0,0,0
5177,53638,34398,0,0,0
5184,53650,34421,0,0,0
5221,53696,34493,0,0,0
5291,53782,34621,0,0,0
5398,53911,34811,0,0,0
5539,54086,35069,0,0,0
5715,54308,35395,0,0,0
5926,54569,35782,0,0,0
6164,54860,36224,0,0,0
6420,55174,36709,0,0,0
6687,55503,37225,0,0,0
6959,55840,37754,0,0,0
7228,56176,38279,0,0,0
7490,56502,38787,0,0,0
7740,56811,39269,0,0,0
7974,57094,39719,0,0,0
8187,57347,40131,0,0,0
8376,57572,40502,0,0,0
8545,57769,40827,0,0,0
8689,57937,41099,0,0,0
8805,58071,41318,0,0,0
8895,58175,41487,0,0,0
8961,58249,41609,0,0,0
9004,58293,41684,0,0,0
9027,58309,41715,0,0,0
9034,58305,41707,0,0,0
9026,58283,41665,0,0,0
9000,58242,41592,0,0,0
8958,58186,41492,0,0,0
8906,58116,41372,0,0,0
8843,58033,41232,0,0,0
8773,57936,41075,0,0,0
8695,57829,40906,0,0,0
8609,57713,40725,0,0,0
8515,57592,40537,0,0,0
8414,57468,40346,0,0,0
8310,57344,40155,0,0,0
8208,57223,39961,0,0,0
8108,57099,39762,0,0,0
8005,56968,39555,0,0,0
7896,56829,39339,0,0,0
7785,56687,39121,0,0,0
7675,56547,38901,0,0,0
7562,56404,38676,0,0,0
7446,56259,38449,0,0,0
7330,56116,38225,0,0,0
7217,55977,38010,0,0,0
7109,55848,37807,0,0,0
7013,55730,37622,0,0,0
6929,55627,37461,0,0,0
6860,55540,37330,0,0,0
6807,55472,37231,0,0,0
6770,55427,37167,0,0,0
6750,55408,37136,0,0,0
6744,55411,37134,0,0,0
6755,55436,37159,0,0,0
6782,55478,37208,0,0,0
6822,55531,37281,0,0,0
6873,55593,37372,0,0,0
6933,55665,37478,0,0,0
7002,55750,37597,0,0,0
7078,55847,37729,0,0,0
7159,55950,37870,0,0,0
7241,56052,38013,0,0,0
7321,56151,38156,0,0,0
7398,56248,38299,0,0,0
7473,56339,38437,0,0,0
7542,56420,38562,0,0,0
7605,56493,38676,0,0,0
7660,56558,38776,0,0,0
7701,56607,38854,0,0,0
7729,56639,38911,0,0,0
7748,56660,38950,0,0,0
7759,56669,38970,0,0,0
7759,56663,38968,0,0,0
7746,56644,38948,0,0,0
7724,56616,38916,0,0,0
7695,56582,38873,0,0,0
7661,56542,38817,0,0,0
7624,56498,38748,0,0,0
7582,56450,38668,0,0,0
7533,56396,38580,0,0,0
7479,56333,38484,0,0,0
7425,56263,38383,0,0,0
7370,56192,38276,0,0,0
7311,56119,38160,0,0,0
7248,56041,38038,0,0,0
7182,55959,37911,0,0,0
7116,55876,37780,0,0,0
7047,55790,37645,0,0,0
6972,55698,37506,0,0,0
6892,55598,37362,0,0,0
6809,55497,37215,0,0,0
6728,55400,37071,0,0,0
6650,55306,36931,0,0,0
6576,55213,36796,0,0,0
6505,55125,36666,0,0,0
6435,55040,36540,0,0,0
6362,54958,36415,0,0,0
6292,54881,36294,0,0,0
6226,54809,36180,0,0,0
6161,54738,36068,0,0,0
6097,54662,35954,0,0,0
6036,54584,35842,0,0,0
5977,54508,35735,0,0,0
5915,54432,35630,0,0,0
5855,54357,35526,0,0,0
5798,54284,35426,0,0,0
5743,54217,35332,0,0,0
5690,54156,35241,0,0,0
5639,54102,35153,0,0,0
5591,54053,35071,0,0,0
5547,54008,34994,0,0,0
5512,53965,34926,0,0,0
5481,53926,34867,0,0,0
5452,53889,34814,0,0,0
5425,53856,34765,0,0,0
5406,53831,34723,0,0,0
5393,53812,34686,0,0,0
5381,53798,34653,0,0,0
5367,53787,34624,0,0,0
5352,53775,34597,0,0,0
5339,53764,34574,0,0,0
5332,53758,34556,0,0,0
5329,53755,34543,0,0,0
5324,53748,34529,0,0,0
5313,53736,34515,0,0,0
5300,53725,34504,0,0,0
5286,53716,34495,0,0,0
5273,53706,34480,0,0,0
5261,53692,34458,0,0,0
5249,53675,34432,0,0,0
5232,53655,34401,0,0,0
5208,53627,34363,0,0,0
5181,53592,34316,0,0,0
5150,53555,34263,0,0,0
5114,53515,34204,0,0,0
5073,53469,34139,0,0,0
5030,53421,34071,0,0,0
4987,53374,34002,0,0,0
4944,53326,33931,0,0,0
4904,53279,33862,0,0,0
4867,53235,33799,0,0,0
4828,53194,33738,0,0,0
4790,53152,33679,0,0,0
4755,53110,33622,0,0,0
4722,53070,33565,0,0,0
4692,53035,33513,0,0,0
4670,53009,33473,0,0,0
4661,52996,33454,0,0,0
4667,53010,33469,0,0,0
4701,53061,33535,0,0,0
4771,53152,33665,0,0,0
4880,53287,33868,0,0,0
5031,53472,34151,0,0,0
5220,53706,34510,0,0,0
5441,53982,34930,0,0,0
5689,54290,35398,0,0,0
5957,54620,35905,0,0,0
6237,54963,36440,0,0,0
6520,55309,36984,0,0,0
6801,55650,37523,0,0,0
7071,55979,38041,0,0,0
7322,56285,38524,0,0,0
7555,56564,38967,0,0,0
7765,56814,39365,0,0,0
7949,57034,39718,0,0,0
8105,57223,40021,0,0,0
8232,57379,40271,0,0,0
8334,57503,40472,0,0,0
8415,57596,40625,0,0,0
8473,57660,40733,0,0,0
8509,57698,40797,0,0,0
8526,57713,40819,0,0,0
8525,57707,40803,0,0,0
8509,57679,40751,0,0,0
8478,57634,40666,0,0,0
8433,57575,40558,0,0,0
8372,57499,40433,0,0,0
8299,57410,40290,0,0,0
8217,57312,40132,0,0,0
8127,57206,39960,0,0,0
8032,57093,39776,0,0,0
7935,56974,39587,0,0,0
7838,56851,39393,0,0,0
7741,56728,39196,0,0,0
7642,56606,38996,0,0,0
7540,56480,38793,0,0,0
7433,56347,38583,0,0,0
7320,56210,38370,0,0,0
7202,56069,38152,0,0,0
7079,55922,37926,0,0,0
6955,55772,37696,0,0,0
6832,55624,37468,0,0,0
6711,55478,37243,0,0,0
6594,55336,37027,0,0,0
6486,55204,36825,0,0,0
6390,55084,36642,0,0,0
6309,54980,36484,0,0,0
6247,54899,36357,0,0,0
6205,54840,36265,0,0,0
6184,54807,36211,0,0,0
6182,54799,36193,0,0,0
6193,54813,36208,0,0,0
6220,54848,36254,0,0,0
6265,54903,36330,0,0,0
6323,54972,36428,0,0,0
6388,55051,36543,0,0,0
6454,55140,36677,0,0,0
6527,55239,36829,0,0,0
6608,55346,36991,0,0,0
6695,55457,37156,0,0,0
6785,55571,37323,0,0,0
6876,55685,37491,0,0,0
6963,55793,37656,0,0,0
7044,55893,37812,0,0,0
7121,55986,37955,0,0,0
7190,56070,38081,0,0,0
7248,56142,38188,0,0,0
7295,56202,38275,0,0,0
7333,56248,38346,0,0,0
7361,56282,38397,0,0,0
7379,56302,38425,0,0,0
7387,56310,38435,0,0,0
7386,56305,38428,0,0,0
7377,56291,38403,0,0,0
7358,56267,38365,0,0,0
7331,56235,38317,0,0,0
7300,56196,38260,0,0,0
7267,56154,38194,0,0,0
7227,56104,38118,0,0,0
7179,56042,38032,0,0,0
7128,55972,37937,0,0,0
7074,55900,37838,0,0,0
7016,55825,37733,0,0,0
6953,55749,37622,0,0,0
6891,55675,37506,0,0,0
6828,55602,37387,0,0,0
6760,55524,37262,0,0,0
6688,55442,37134,0,0,0
6615,55361,37005,0,0,0
6542,55280,36877,0,0,0
6470,55199,36749,0,0,0
6402,55117,36620,0,0,0
6334,55035,36493,0,0,0
6265,54953,36367,0,0,0
6197,54873,36244,0,0,0
6135,54799,36127,0,0,0
6076,54727,36015,0,0,0
6020,54655,35903,0,0,0
5965,54584,35793,0,0,0
5912,54516,35690,0,0,0
5864,54453,35596,0,0,0
5821,54394,35508,0,0,0
5778,54334,35421,0,0,0
5732,54271,35334,0,0,0
5685,54213,35254,0,0,0
5642,54160,35179,0,0,0
5601,54111,35109,0,0,0
5562,54064,35043,0,0,0
5526,54021,34981,0,0,0
5491,53979,34921,0,0,0
5455,53938,34859,0,0,0
5423,53902,34799,0,0,0
5392,53872,34745,0,0,0
5361,53847,34697,0,0,0
5332,53822,34650,0,0,0
5307,53799,34605,0,0,0
5283,53777,34565,0,0,0
5259,53754,34527,0,0,0
5237,53732,34489,0,0,0
5217,53711,34453,0,0,0
5198,53690,34420,0,0,0
5179,53667,34390,0,0,0
5164,53645,34361,0,0,0
5151,53628,34335,0,0,0
5138,53613,34311,0,0,0
5125,53597,34289,0,0,0
5108,53578,34263,0,0,0
5090,53555,34235,0,0,0
5071,53529,34203,0,0,0
5047,53495,34166,0,0,0
5017,53455,34124,0,0,0
4987,53417,34078,0,0,0
4957,53380,34029,0,0,0
4924,53340,33973,0,0,0
4889,53297,33910,0,0,0
4854,53254,33847,0,0,0
4819,53210,33785,0,0,0
4786,53167,33722,0,0,0
4753,53127,33660,0,0,0
4719,53089,33601,0,0,0
4683,53055,33545,0,0,0
4653,53026,33497,0,0,0
4636,53009,33465,0,0,0
4634,53010,33458,0,0,0
4650,53036,33486,0,0,0
4692,53093,33563,0,0,0
4768,53190,33704,0,0,0
4882,53333,33916,0,0,0
5035,53525,34199,0,0,0
5224,53760,34546,0,0,0
5445,54033,34953,0,0,0
5693,54336,35416,0,0,0
5961,54661,35920,0,0,0
6239,55000,36446,0,0,0
6521,55341,36980,0,0,0
6798,55677,37510,0,0,0
7064,55998,38022,0,0,0
7313,56301,38505,0,0,0
7542,56585,38953,0,0,0
7753,56846,39364,0,0,0
7942,57079,39731,0,0,0
8106,57282,40048,0,0,0
8245,57457,40319,0,0,0
8361,57603,40543,0,0,0
8454,57715,40719,0,0,0
8524,57795,40845,0,0,0
8575,57848,40929,0,0,0
8602,57877,40970,0,0,0
8608,57880,40971,0,0,0
8597,57859,40934,0,0,0
8571,57817,40866,0,0,0
8530,57761,40772,0,0,0
8476,57692,40654,0,0,0
8410,57610,40518,0,0,0
8333,57515,40366,0,0,0
8249,57412,40202,0,0,0
8162,57304,40030,0,0,0
8073,57190,39852,0,0,0
7985,57075,39670,0,0,0
7894,56959,39486,0,0,0
7799,56838,39298,0,0,0
7701,56713,39107,0,0,0
7602,56588,38913,0,0,0
7499,56459,38715,0,0,0
7391,56324,38507,0,0,0
7279,56184,38292,0,0,0
7162,56041,38072,0,0,0
7040,55896,37847,0,0,0
6922,55751,37619,0,0,0
6814,55614,37398,0,0,0
6718,55491,37194,0,0,0
6634,55384,37013,0,0,0
6565,55293,36863,0,0,0
6511,55222,36746,0,0,0
6474,55175,36662,0,0,0
6453,55153,36615,0,0,0
6450,55155,36602,0,0,0
6466,55180,36624,0,0,0
6497,55225,36679,0,0,0
6539,55282,36761,0,0,0
6591,55346,36863,0,0,0
6655,55422,36987,0,0,0
6731,55512,37133,0,0,0
6812,55612,37291,0,0,0
6895,55713,37451,0,0,0
6980,55816,37613,0,0,0
7065,55921,37778,0,0,0
7149,56023,37940,0,0,0
7232,56121,38097,0,0,0
7313,56214,38245,0,0,0
7385,56300,38376,0,0,0
7444,56373,38485,0,0,0
7492,56434,38572,0,0,0
7527,56482,38638,0,0,0
7551,56518,38688,0,0,0
7566,56540,38723,0,0,0
7572,56549,38742,0,0,0
7570,56547,38746,0,0,0
7560,56536,38731,0,0,0
7542,56509,38700,0,0,0
7517,56468,38655,0,0,0
7489,56423,38601,0,0,0
7458,56374,38539,0,0,0
7422,56320,38466,0,0,0
7382,56261,38381,0,0,0
7338,56206,38288,0,0,0
7293,56153,38192,0,0,0
7245,56097,38094,0,0,0
7197,56040,37995,0,0,0
7147,55983,37897,0,0,0
7092,55922,37797,0,0,0
7034,55856,37694,0,0,0
6975,55787,37585,0,0,0
6916,55716,37473,0,0,0
6853,55643,37356,0,0,0
6790,55566,37238,0,0,0
6727,55488,37124,0,0,0
6664,55412,37013,0,0,0
6599,55339,36901,0,0,0
6534,55266,36788,0,0,0
6470,55196,36678,0,0,0
6412,55128,36570,0,0,0
6359,55059,36466,0,0,0
6309,54989,36364,0,0,0
6258,54921,36268,0,0,0
6210,54857,36178,0,0,0
6165,54798,36091,0,0,0
6123,54741,36006,0,0,0
6084,54688,35928,0,0,0
6047,54638,35852,0,0,0
6008,54588,35775,0,0,0
5968,54539,35699,0,0,0
5930,54495,35626,0,0,0
5894,54453,35556,0,0,0
5860,54409,35486,0,0,0
5827,54364,35419,0,0,0
5794,54320,35356,0,0,0
5761,54278,35297,0,0,0
5731,54239,35244,0,0,0
5704,54207,35200,0,0,0
5680,54184,35164,0,0,0
5659,54170,35135,0,0,0
5641,54157,35108,0,0,0
5626,54145,35084,0,0,0
5617,54137,35066,0,0,0
5612,54137,35056,0,0,0
5607,54138,35048,0,0,0
5603,54135,35043,0,0,0
5600,54132,35039,0,0,0
5594,54128,35036,0,0,0
5589,54124,35033,0,0,0
5590,54121,35031,0,0,0
5593,54120,35030,0,0,0
5590,54118,35027,0,0,0
5582,54111,35021,0,0,0
5575,54100,35015,0,0,0
5565,54087,35004,0,0,0
5550,54068,34986,0,0,0
5528,54041,34959,0,0,0
5501,54008,34925,0,0,0
5471,53972,34883,0,0,0
5436,53931,34831,0,0,0
5399,53883,34769,0,0,0
5358,53831,34701,0,0,0
5316,53779,34630,0,0,0
5273,53726,34554,0,0,0
5227,53668,34473,0,0,0
5177,53612,34391,0,0,0
5129,53562,34311,0,0,0
5084,53514,34233,0,0,0
5043,53470,34157,0,0,0
5009,53431,34090,0,0,0
4979,53397,34032,0,0,0
4958,53369,33983,0,0,0
4950,53351,33954,0,0,0
4962,53355,33962,0,0,0
4999,53394,34019,0,0,0
5067,53475,34138,0,0,0
5174,53609,34327,0,0,0
5320,53795,34593,0,0,0
5506,54031,34935,0,0,0
5729,54310,35351,0,0,0
5981,54625,35832,0,0,0
6259,54969,36365,0,0,0
6555,55333,36929,0,0,0
6855,55702,37506,0,0,0
7151,56068,38085,0,0,0
7442,56427,38657,0,0,0
7721,56770,39206,0,0,0
7980,57089,39716,0,0,0
8214,57378,40182,0,0,0
8424,57639,40603,0,0,0
8611,57872,40977,0,0,0
8775,58073,41297,0,0,0
8914,58244,41565,0,0,0
9027,58384,41781,0,0,0
9115,58493,41946,0,0,0
9180,58570,42062,0,0,0
9223,58616,42129,0,0,0
9246,58632,42149,0,0,0
9250,58624,42129,0,0,0
9237,58596,42074,0,0,0
9207,58547,41986,0,0,0
9160,58480,41870,0,0,0
9101,58400,41733,0,0,0
9034,58309,41577,0,0,0
8961,58210,41406,0,0,0
8884,58104,41224,0,0,0
8800,57991,41034,0,0,0
8709,57872,40841,0,0,0
8614,57754,40649,0,0,0
8520,57638,40459,0,0,0
8427,57520,40269,0,0,0
8333,57397,40079,0,0,0
8236,57273,39885,0,0,0
8138,57150,39689,0,0,0
8039,57027,39488,0,0,0
7936,56900,39282,0,0,0
7832,56770,39075,0,0,0
7727,56638,38871,0,0,0
7621,56503,38669,0,0,0
7519,56372,38473,0,0,0
7426,56253,38291,0,0,0
7342,56148,38130,0,0,0
7269,56058,37990,0,0,0
7212,55986,37880,0,0,0
7171,55939,37804,0,0,0
7145,55914,37761,0,0,0
7137,55912,37753,0,0,0
7147,55930,37778,0,0,0
7174,55967,37831,0,0,0
7214,56020,37905,0,0,0
7267,56086,37997,0,0,0
7331,56163,38107,0,0,0
7404,56250,38235,0,0,0
7480,56340,38373,0,0,0
7556,56431,38517,0,0,0
7632,56522,38665,0,0,0
7710,56617,38817,0,0,0
7789,56712,38967,0,0,0
7863,56803,39107,0,0,0
7928,56888,39235,0,0,0
7988,56965,39353,0,0,0
8041,57032,39460,0,0,0
8089,57091,39552,0,0,0
8133,57141,39628,0,0,0
8169,57183,39691,0,0,0
8195,57213,39739,0,0,0
8211,57228,39766,0,0,0
8215,57230,39772,0,0,0
8206,57221,39757,0,0,0
8185,57199,39719,0,0,0
8156,57164,39663,0,0,0
8122,57121,39596,0,0,0
8082,57074,39519,0,0,0
8039,57022,39432,0,0,0
7990,56964,39337,0,0,0
7934,56899,39235,0,0,0
7877,56826,39128,0,0,0
7817,56748,39014,0,0,0
7756,56665,38897,0,0,0
7697,56583,38779,0,0,0
7637,56503,38661,0,0,0
7573,56420,38539,0,0,0
7506,56336,38415,0,0,0
7444,56254,38292,0,0,0
7384,56175,38170,0,0,0
7323,56097,38050,0,0,0
7262,56021,37933,0,0,0
7200,55944,37819,0,0,0
7136,55866,37705,0,0,0
7077,55791,37591,0,0,0
7021,55723,37483,0,0,0
6966,55662,37379,0,0,0
6911,55605,37274,0,0,0
6855,55547,37170,0,0,0
6801,55490,37072,0,0,0
6752,55438,36982,0,0,0
6708,55391,36900,0,0,0
6663,55343,36821,0,0,0
6617,55293,36743,0,0,0
6577,55241,36668,0,0,0
6541,55193,36597,0,0,0
6509,55147,36532,0,0,0
6480,55105,36471,0,0,0
6450,55063,36412,0,0,0
6419,55020,36353,0,0,0
6387,54979,36294,0,0,0
6358,54945,36244,0,0,0
6330,54915,36203,0,0,0
6303,54887,36167,0,0,0
6281,54863,36137,0,0,0
6267,54844,36114,0,0,0
6260,54830,36096,0,0,0
6254,54822,36079,0,0,0
6249,54817,36063,0,0,0
6240,54814,36049,0,0,0
6231,54812,36039,0,0,0
6223,54810,36032,0,0,0
6211,54802,36026,0,0,0
6198,54792,36018,0,0,0
6184,54780,36008,0,0,0
6169,54761,35991,0,0,0
6151,54737,35964,0,0,0
6132,54711,35928,0,0,0
6111,54682,35884,0,0,0
6086,54651,35834,0,0,0
6059,54619,35780,0,0,0
6033,54590,35728,0,0,0
6006,54562,35680,0,0,0
5982,54534,35633,0,0,0
5961,54507,35587,0,0,0
5935,54478,35539,0,0,0
5902,54444,35487,0,0,0
5866,54406,35430,0,0,0
5830,54363,35370,0,0,0
5792,54313,35306,0,0,0
5751,54259,35232,0,0,0
5706,54200,35150,0,0,0
5660,54138,35063,0,0,0
5614,54078,34976,0,0,0
5569,54020,34889,0,0,0
5521,53963,34803,0,0,0
5472,53906,34721,0,0,0
5425,53853,34643,0,0,0
5382,53804,34572,0,0,0
5348,53763,34514,0,0,0
5326,53739,34480,0,0,0
5324,53740,34484,0,0,0
5350,53776,34536,0,0,0
5412,53854,34650,0,0,0
5517,53980,34837,0,0,0
5664,54157,35101,0,0,0
5849,54384,35436,0,0,0
6068,54653,35838,0,0,0
6315,54961,36298,0,0,0
6585,55301,36808,0,0,0
6868,55656,37347,0,0,0
7155,56016,37897,0,0,0
7441,56374,38448,0,0,0
7721,56722,38990,0,0,0
7986,57050,39507,0,0,0
8232,57353,39990,0,0,0
8458,57632,40436,0,0,0
8660,57882,40840,0,0,0
8834,58098,41190,0,0,0
8984,58281,41483,0,0,0
9107,58429,41722,0,0,0
9205,58545,41909,0,0,0
9282,58633,42046,0,0,0
9339,58697,42137,0,0,0
9376,58733,42185,0,0,0
9393,58745,42190,0,0,0
9389,58734,42155,0,0,0
9369,58703,42089,0,0,0
9335,58653,41999,0,0,0
9286,58587,41885,0,0,0
9225,58503,41749,0,0,0
9154,58404,41594,0,0,0
9075,58297,41427,0,0,0
8993,58189,41254,0,0,0
8907,58078,41078,0,0,0
8814,57963,40899,0,0,0
8718,57847,40718,0,0,0
8624,57732,40534,0,0,0
8531,57614,40347,0,0,0
8441,57492,40158,0,0,0
8349,57373,39969,0,0,0
8253,57253,39776,0,0,0
8154,57130,39576,0,0,0
8052,57003,39373,0,0,0
7947,56872,39168,0,0,0
7843,56742,38963,0,0,0
7741,56613,38764,0,0,0
7646,56494,38582,0,0,0
7560,56387,38420,0,0,0
7485,56296,38280,0,0,0
7429,56226,38168,0,0,0
7393,56179,38088,0,0,0
7372,56151,38038,0,0,0
7364,56144,38015,0,0,0
7373,56152,38017,0,0,0
7397,56176,38046,0,0,0
7434,56217,38104,0,0,0
7482,56273,38188,0,0,0
7536,56339,38288,0,0,0
7598,56417,38400,0,0,0
7667,56502,38524,0,0,0
7739,56591,38659,0,0,0
7814,56680,38803,0,0,0
7890,56773,38951,0,0,0
7966,56869,39099,0,0,0
8039,56961,39240,0,0,0
8106,57044,39373,0,0,0
8170,57122,39499,0,0,0
8229,57194,39617,0,0,0
8279,57256,39718,0,0,0
8317,57303,39797,0,0,0
8348,57341,39858,0,0,0
8371,57370,39902,0,0,0
8385,57390,39926,0,0,0
8392,57401,39931,0,0,0
8393,57401,39919,0,0,0
8384,57384,39892,0,0,0
8362,57350,39849,0,0,0
8330,57305,39793,0,0,0
8289,57257,39724,0,0,0
8241,57204,39642,0,0,0
8189,57146,39550,0,0,0
8137,57085,39449,0,0,0
8082,57019,39340,0,0,0
8023,56947,39225,0,0,0
7962,56872,39106,0,0,0
7901,56797,38986,0,0,0
7839,56721,38863,0,0,0
7774,56644,38736,0,0,0
7705,56565,38607,0,0,0
7638,56486,38480,0,0,0
7572,56407,38355,0,0,0
7503,56325,38229,0,0,0
7431,56241,38100,0,0,0
7360,56156,37972,0,0,0
7295,56071,37849,0,0,0
7234,55988,37732,0,0,0
7175,55904,37616,0,0,0
7116,55824,37504,0,0,0
7057,55748,37393,0,0,0
6996,55673,37279,0,0,0
6936,55599,37164,0,0,0
6878,55530,37054,0,0,0
6821,55466,36948,0,0,0
6764,55405,36846,0,0,0
6711,55349,36750,0,0,0
6661,55295,36660,0,0,0
6613,55243,36577,0,0,0
6572,55193,36499,0,0,0
6537,55148,36427,0,0,0
6504,55106,36359,0,0,0
6472,55066,36295,0,0,0
6441,55028,36236,0,0,0
6412,54991,36184,0,0,0
6387,54958,36136,0,0,0
6364,54926,36091,0,0,0
6340,54893,36046,0,0,0
6318,54862,36003,0,0,0
6300,54838,35966,0,0,0
6285,54819,35934,0,0,0
6271,54799,35905,0,0,0
6257,54781,35878,0,0,0
6246,54765,35857,0,0,0
6239,54750,35839,0,0,0
6232,54734,35820,0,0,0
6226,54721,35802,0,0,0
6219,54713,35790,0,0,0
6213,54707,35779,0,0,0
6206,54699,35764,0,0,0
6198,54690,35748,0,0,0
6188,54682,35734,0,0,0
6175,54671,35717,0,0,0
6161,54655,35697,0,0,0
6149,54635,35676,0,0,0
6135,54610,35647,0,0,0
6115,54582,35610,0,0,0
6091,54550,35565,0,0,0
6066,54515,35511,0,0,0
6036,54478,35448,0,0,0
6000,54435,35379,0,0,0
5954,54382,35302,0,0,0
5900,54322,35216,0,0,0
5840,54258,35122,0,0,0
5779,54193,35023,0,0,0
5720,54127,34922,0,0,0
5662,54063,34820,0,0,0
5605,54000,34717,0,0,0
5548,53935,34612,0,0,0
5492,53866,34509,0,0,0
5441,53799,34413,0,0,0
5392,53736,34325,0,0,0
5343,53677,34242,0,0,0
5298,53627,34171,0,0,0
5268,53595,34127,0,0,0
5261,53589,34122,0,0,0
5284,53615,34166,0,0,0
5342,53684,34274,0,0,0
5439,53804,34459,0,0,0
5580,53979,34724,0,0,0
5766,54208,35066,0,0,0
5993,54487,35478,0,0,0
6252,54804,35951,0,0,0
6531,55146,36467,0,0,0
6822,55501,37011,0,0,0
7120,55861,37569,0,0,0
7414,56216,38125,0,0,0
7695,56558,38663,0,0,0
7956,56877,39171,0,0,0
8198,57174,39644,0,0,0
8417,57446,40075,0,0,0
8612,57687,40454,0,0,0
8783,57895,40782,0,0,0
8929,58072,41059,0,0,0
9049,58216,41286,0,0,0
9141,58329,41462,0,0,0
9207,58410,41586,0,0,0
9250,58462,41661,0,0,0
9273,58487,41694,0,0,0
9279,58487,41689,0,0,0
9267,58462,41643,0,0,0
9237,58417,41561,0,0,0
9194,58354,41449,0,0,0
9136,58273,41313,0,0,0
9064,58174,41158,0,0,0
8982,58064,40988,0,0,0
8895,57946,40807,0,0,0
8801,57820,40615,0,0,0
8701,57692,40418,0,0,0
8599,57567,40225,0,0,0
8500,57442,40035,0,0,0
8399,57316,39843,0,0,0
8296,57188,39647,0,0,0
8193,57061,39447,0,0,0
8089,56936,39246,0,0,0
7984,56808,39040,0,0,0
7877,56675,38825,0,0,0
7765,56538,38606,0,0,0
7648,56393,38386,0,0,0
7528,56244,38169,0,0,0
7412,56096,37956,0,0,0
7302,55958,37751,0,0,0
7201,55829,37559,0,0,0
7110,55712,37386,0,0,0
7035,55612,37240,0,0,0
6976,55535,37121,0,0,0
6935,55481,37029,0,0,0
6913,55450,36970,0,0,0
6908,55445,36947,0,0,0
6919,55459,36957,0,0,0
6947,55489,36996,0,0,0
6989,55536,37060,0,0,0
7042,55598,37146,0,0,0
7102,55674,37251,0,0,0
7170,55758,37371,0,0,0
7245,55849,37505,0,0,0
7323,55946,37651,0,0,0
7403,56047,37804,0,0,0
7484,56149,37954,0,0,0
7563,56249,38100,0,0,0
7639,56342,38238,0,0,0
7706,56426,38363,0,0,0
7764,56499,38473,0,0,0
7814,56557,38568,0,0,0
7852,56602,38644,0,0,0
7880,56636,38701,0,0,0
7896,56658,38737,0,0,0
7899,56665,38751,0,0,0
7893,56657,38746,0,0,0
7881,56636,38724,0,0,0
7860,56605,38684,0,0,0
7830,56566,38629,0,0,0
7794,56522,38562,0,0,0
7751,56473,38483,0,0,0
7700,56414,38390,0,0,0
7643,56346,38285,0,0,0
7583,56274,38173,0,0,0
7519,56197,38055,0,0,0
7451,56115,37931,0,0,0
7383,56028,37802,0,0,0
7311,55938,37671,0,0,0
7236,55845,37538,0,0,0
7164,55752,37400,0,0,0
7096,55662,37260,0,0,0
7027,55571,37118,0,0,0
6956,55477,36978,0,0,0
6884,55384,36838,0,0,0
6813,55294,36700,0,0,0
6742,55208,36567,0,0,0
6669,55124,36434,0,0,0
6597,55041,36304,0,0,0
6529,54962,36175,0,0,0
6461,54888,36048,0,0,0
6391,54812,35925,0,0,0
6322,54736,35806,0,0,0
6256,54663,35692,0,0,0
6192,54591,35581,0,0,0
6129,54515,35468,0,0,0
6068,54438,35359,0,0,0
6007,54363,35254,0,0,0
5947,54289,35151,0,0,0
5890,54219,35051,0,0,0
5836,54152,34953,0,0,0
5788,54091,34858,0,0,0
5746,54037,34768,0,0,0
5707,53986,34686,0,0,0
5668,53937,34611,0,0,0
5631,53891,34543,0,0,0
5596,53848,34480,0,0,0
5563,53809,34421,0,0,0
5532,53776,34369,0,0,0
5509,53752,34324,0,0,0
5490,53733,34285,0,0,0
5474,53714,34248,0,0,0
5459,53695,34215,0,0,0
5445,53681,34190,0,0,0
5434,53671,34175,0,0,0
5425,53663,34163,0,0,0
5418,53655,34152,0,0,0
5411,53647,34142,0,0,0
5402,53637,34131,0,0,0
5394,53626,34118,0,0,0
5388,53617,34104,0,0,0
5383,53610,34089,0,0,0
5375,53602,34072,0,0,0
5367,53591,34054,0,0,0
5363,53582,34036,0,0,0
5359,53574,34018,0,0,0
5352,53564,33997,0,0,0
5337,53548,33974,0,0,0
5317,53528,33947,0,0,0
5294,53506,33917,0,0,0
5267,53478,33879,0,0,0
5238,53444,33833,0,0,0
5208,53409,33782,0,0,0
5177,53372,33726,0,0,0
5143,53330,33661,0,0,0
5102,53279,33584,0,0,0
5056,53223,33500,0,0,0
5008,53167,33412,0,0,0
4960,53109,33321,0,0,0
4908,53044,33227,0,0,0
4853,52976,33132,0,0,0
4798,52908,33036,0,0,0
4743,52838,32936,0,0,0
4684,52767,32832,0,0,0
4626,52702,32734,0,0,0
4577,52652,32653,0,0,0
4541,52616,32595,0,0,0
4526,52599,32568,0,0,0
4543,52617,32589,0,0,0
4600,52680,32674,0,0,0
4698,52792,32832,0,0,0
4840,52957,33072,0,0,0
5024,53177,33400,0,0,0
5249,53448,33810,0,0,0
5508,53763,34287,0,0,0
5792,54114,34817,0,0,0
6093,54490,35382,0,0,0
6399,54876,35964,0,0,0
6706,55258,36545,0,0,0
7007,55629,37111,0,0,0
7290,55983,37655,0,0,0
7550,56312,38166,0,0,0
7787,56612,38637,0,0,0
8005,56882,39063,0,0,0
8202,57122,39441,0,0,0
8374,57326,39766,0,0,0
8516,57493,40034,0,0,0
8629,57624,40247,0,0,0
8717,57721,40408,0,0,0
8778,57786,40517,0,0,0
8813,57819,40579,0,0,0
8825,57824,40597,0,0,0
8817,57803,40576,0,0,0
8791,57761,40519,0,0,0
8748,57699,40427,0,0,0
8689,57621,40309,0,0,0
8617,57534,40171,0,0,0
8536,57437,40014,0,0,0
8448,57329,39841,0,0,0
8355,57212,39653,0,0,0
8258,57088,39457,0,0,0
8157,56958,39255,0,0,0
8052,56822,39047,0,0,0
7944,56686,38834,0,0,0
7836,56550,38620,0,0,0
7727,56414,38403,0,0,0
7617,56277,38180,0,0,0
7507,56140,37956,0,0,0
7395,56001,37729,0,0,0
7278,55857,37498,0,0,0
7158,55711,37263,0,0,0
7039,55563,37029,0,0,0
6921,55414,36795,0,0,0
6804,55263,36568,0,0,0
6690,55117,36356,0,0,0
6582,54985,36163,0,0,0
6487,54874,35994,0,0,0
6410,54788,35854,0,0,0
6355,54727,35748,0,0,0
6322,54689,35679,0,0,0
6307,54670,35646,0,0,0
6308,54670,35644,0,0,0
6328,54689,35673,0,0,0
6369,54730,35735,0,0,0
6428,54791,35825,0,0,0
6494,54867,35938,0,0,0
6568,54957,36068,0,0,0
6650,55058,36213,0,0,0
6739,55167,36370,0,0,0
6832,55277,36533,0,0,0
6926,55387,36698,0,0,0
7018,55495,36861,0,0,0
7105,55600,37018,0,0,0
7183,55696,37163,0,0,0
7251,55783,37294,0,0,0
7311,55859,37410,0,0,0
7361,55921,37509,0,0,0
7400,55972,37591,0,0,0
7431,56013,37657,0,0,0
7454,56041,37705,0,0,0
7466,56055,37731,0,0,0
7471,56054,37735,0,0,0
7468,56047,37724,0,0,0
7456,56037,37698,0,0,0
7435,56020,37657,0,0,0
7407,55990,37601,0,0,0
7372,55949,37532,0,0,0
7328,55899,37450,0,0,0
7274,55836,37356,0,0,0
7216,55763,37250,0,0,0
7153,55684,37136,0,0,0
7087,55601,37014,0,0,0
7019,55513,36888,0,0,0
6948,55420,36760,0,0,0
6873,55323,36632,0,0,0
6796,55225,36500,0,0,0
6718,55129,36363,0,0,0
6641,55032,36221,0,0,0
6567,54939,36083,0,0,0
6494,54850,35951,0,0,0
6422,54759,35817,0,0,0
6352,54665,35681,0,0,0
6285,54577,35548,0,0,0
6218,54496,35420,0,0,0
6153,54418,35294,0,0,0
6090,54341,35170,0,0,0
6027,54267,35048,0,0,0
5964,54195,34927,0,0,0
5904,54124,34810,0,0,0
5847,54056,34701,0,0,0
5793,53990,34598,0,0,0
5738,53924,34497,0,0,0
5684,53858,34401,0,0,0
5635,53800,34313,0,0,0
5589,53747,34234,0,0,0
5545,53698,34159,0,0,0
5504,53651,34090,0,0,0
5466,53605,34024,0,0,0
5431,53560,33959,0,0,0
5398,53519,33896,0,0,0
5368,53484,33837,0,0,0
5341,53456,33787,0,0,0
5317,53432,33746,0,0,0
5296,53411,33709,0,0,0
5280,53393,33675,0,0,0
5266,53377,33644,0,0,0
5254,53365,33617,0,0,0
5244,53354,33595,0,0,0
5235,53344,33580,0,0,0
5231,53335,33570,0,0,0
5232,53329,33567,0,0,0
5233,53325,33571,0,0,0
5232,53321,33576,0,0,0
5234,53321,33581,0,0,0
5238,53322,33585,0,0,0
5243,53321,33584,0,0,0
5246,53317,33576,0,0,0
5246,53312,33564,0,0,0
5241,53306,33550,0,0,0
5231,53299,33532,0,0,0
5218,53290,33512,0,0,0
5202,53279,33488,0,0,0
5181,53261,33456,0,0,0
5155,53234,33412,0,0,0
5126,53201,33360,0,0,0
5091,53163,33299,0,0,0
5049,53118,33231,0,0,0
5005,53070,33158,0,0,0
4966,53023,33087,0,0,0
4932,52979,33020,0,0,0
4897,52934,32951,0,0,0
4856,52885,32874,0,0,0
4809,52832,32790,0,0,0
4762,52779,32707,0,0,0
4717,52727,32628,0,0,0
4675,52678,32557,0,0,0
4640,52636,32501,0,0,0
4618,52612,32470,0,0,0
4617,52616,32475,0,0,0
4644,52655,32528,0,0,0
4707,52734,32644,0,0,0
4810,52861,32834,0,0,0
4952,53038,33101,0,0,0
5136,53266,33443,0,0,0
5360,53541,33856,0,0,0
5618,53856,34329,0,0,0
5901,54201,34850,0,0,0
6200,54561,35402,0,0,0
6504,54927,35970,0,0,0
6804,55289,36536,0,0,0
7094,55640,37086,0,0,0
7369,55974,37610,0,0,0
7627,56286,38099,0,0,0
7862,56571,38548,0,0,0
8074,56828,38951,0,0,0
8261,57055,39305,0,0,0
8421,57253,39607,0,0,0
8556,57421,39859,0,0,0
8666,57556,40062,0,0,0
8751,57657,40216,0,0,0
8809,57726,40324,0,0,0
8845,57768,40390,0,0,0
8861,57781,40415,0,0,0
8853,57766,40399,0,0,0
8827,57727,40345,0,0,0
8784,57669,40258,0,0,0
8724,57593,40141,0,0,0
8651,57502,40003,0,0,0
8570,57403,39849,0,0,0
8481,57295,39680,0,0,0
8386,57176,39499,0,0,0
8288,57053,39310,0,0,0
8188,56929,39117,0,0,0
8086,56805,38922,0,0,0
7984,56679,38726,0,0,0
7883,56552,38530,0,0,0
7782,56420,38330,0,0,0
7678,56283,38118,0,0,0
7570,56140,37896,0,0,0
7458,55994,37667,0,0,0
7342,55842,37431,0,0,0
7221,55685,37188,0,0,0
7096,55527,36944,0,0,0
6972,55373,36708,0,0,0
6854,55226,36483,0,0,0
6745,55091,36276,0,0,0
6648,54973,36094,0,0,0
6567,54875,35942,0,0,0
6506,54801,35824,0,0,0
6462,54754,35738,0,0,0
6437,54729,35684,0,0,0
6432,54727,35665,0,0,0
6449,54748,35683,0,0,0
6485,54787,35732,0,0,0
6535,54839,35804,0,0,0
6595,54905,35900,0,0,0
6665,54983,36016,0,0,0
6740,55069,36146,0,0,0
6821,55159,36287,0,0,0
6905,55253,36438,0,0,0
6990,55351,36595,0,0,0
7076,55451,36752,0,0,0
7160,55551,36908,0,0,0
7240,55647,37057,0,0,0
7313,55736,37195,0,0,0
7379,55815,37320,0,0,0
7438,55884,37431,0,0,0
7492,55945,37525,0,0,0
7538,55995,37602,0,0,0
7571,56031,37658,0,0,0
7589,56050,37692,0,0,0
7600,56057,37710,0,0,0
7603,56054,37713,0,0,0
7594,56041,37696,0,0,0
7574,56019,37661,0,0,0
7547,55991,37611,0,0,0
7513,55957,37547,0,0,0
7473,55914,37468,0,0,0
7426,55864,37375,0,0,0
7372,55806,37271,0,0,0
7312,55737,37155,0,0,0
7247,55658,37031,0,0,0
7180,55574,36905,0,0,0
7111,55486,36774,0,0,0
7037,55395,36637,0,0,0
6964,55303,36501,0,0,0
6893,55212,36370,0,0,0
6823,55121,36243,0,0,0
6753,55029,36116,0,0,0
6684,54937,35988,0,0,0
6617,54844,35860,0,0,0
6552,54758,35738,0,0,0
6488,54676,35621,0,0,0
6420,54597,35504,0,0,0
6352,54520,35388,0,0,0
6290,54446,35275,0,0,0
6231,54372,35164,0,0,0
6173,54299,35052,0,0,0
6114,54227,34944,0,0,0
6056,54158,34840,0,0,0
5998,54091,34738,0,0,0
5944,54027,34636,0,0,0
5894,53968,34540,0,0,0
5845,53909,34450,0,0,0
5798,53850,34363,0,0,0
5757,53792,34281,0,0,0
5719,53737,34204,0,0,0
5681,53685,34131,0,0,0
5648,53638,34065,0,0,0
5619,53599,34008,0,0,0
5595,53568,33959,0,0,0
5574,53541,33912,0,0,0
5554,53512,33865,0,0,0
5535,53486,33822,0,0,0
5521,53466,33787,0,0,0
5513,53452,33756,0,0,0
5502,53437,33722,0,0,0
5488,53420,33685,0,0,0
5475,53404,33655,0,0,0
5463,53391,33632,0,0,0
5450,53380,33612,0,0,0
5439,53371,33594,0,0,0
5429,53364,33580,0,0,0
5418,53357,33571,0,0,0
5410,53351,33564,0,0,0
5403,53349,33561,0,0,0
5396,53347,33558,0,0,0
5392,53343,33551,0,0,0
5390,53339,33542,0,0,0
5387,53338,33531,0,0,0
5381,53334,33518,0,0,0
5370,53326,33500,0,0,0
5357,53316,33479,0,0,0
5342,53303,33454,0,0,0
5324,53285,33422,0,0,0
5301,53261,33382,0,0,0
5276,53230,33337,0,0,0
5251,53195,33289,0,0,0
5223,53157,33236,0,0,0
5192,53119,33182,0,0,0
5159,53080,33125,0,0,0
5124,53037,33065,0,0,0
5088,52992,33005,0,0,0
5053,52948,32947,0,0,0
5020,52906,32893,0,0,0
4990,52869,32844,0,0,0
4967,52840,32806,0,0,0
4957,52826,32785,0,0,0
4965,52839,32796,0,0,0
5002,52891,32856,0,0,0
5074,52989,32978,0,0,0
5183,53132,33169,0,0,0
5332,53322,33438,0,0,0
5525,53561,33785,0,0,0
5759,53845,34203,0,0,0
6022,54163,34681,0,0,0
6307,54506,35205,0,0,0
6606,54869,35765,0,0,0
6911,55242,36346,0,0,0
7214,55609,36927,0,0,0
7509,55965,37490,0,0,0
7789,56305,38028,0,0,0
8050,56624,38536,0,0,0
8291,56918,39004,0,0,0
8512,57182,39426,0,0,0
8709,57415,39797,0,0,0
8877,57613,40117,0,0,0
9019,57781,40386,0,0,0
9134,57921,40608,0,0,0
9220,58033,40782,0,0,0
9280,58114,40905,0,0,0
9318,58162,40978,0,0,0
9333,58180,41007,0,0,0
9326,58169,40992,0,0,0
9299,58131,40935,0,0,0
9256,58073,40844,0,0,0
9199,57998,40727,0,0,0
9132,57909,40588,0,0,0
9057,57809,40432,0,0,0
8974,57700,40267,0,0,0
8885,57584,40091,0,0,0
8791,57464,39906,0,0,0
8694,57342,39713,0,0,0
8596,57216,39515,0,0,0
8498,57088,39314,0,0,0
8400,56958,39111,0,0,0
8300,56823,38907,0,0,0
8199,56687,38698,0,0,0
8099,56554,38488,0,0,0
7995,56419,38276,0,0,0
7881,56276,38058,0,0,0
7760,56129,37834,0,0,0
7637,55981,37609,0,0,0
7518,55833,37390,0,0,0
7408,55690,37176,0,0,0
7307,55555,36973,0,0,0
7215,55435,36785,0,0,0
7133,55332,36619,0,0,0
7070,55250,36483,0,0,0
7027,55192,36382,0,0,0
7003,55159,36320,0,0,0
6993,55148,36293,0,0,0
7002,55156,36297,0,0,0
7029,55184,36335,0,0,0
7069,55231,36402,0,0,0
7118,55296,36495,0,0,0
7178,55374,36609,0,0,0
7249,55464,36741,0,0,0
7329,55565,36890,0,0,0
7417,55674,37052,0,0,0
7514,55788,37223,0,0,0
7614,55904,37396,0,0,0
7711,56016,37566,0,0,0
7802,56121,37726,0,0,0
7884,56217,37875,0,0,0
7959,56305,38012,0,0,0
8024,56383,38135,0,0,0
8080,56450,38242,0,0,0
8123,56504,38328,0,0,0
8153,56544,38392,0,0,0
8172,56573,38438,0,0,0
8179,56591,38466,0,0,0
8179,56595,38477,0,0,0
8174,56589,38471,0,0,0
8163,56572,38445,0,0,0
8146,56542,38400,0,0,0
8126,56504,38341,0,0,0
8104,56464,38274,0,0,0
8074,56421,38198,0,0,0
8037,56368,38112,0,0,0
7996,56309,38018,0,0,0
7948,56243,37916,0,0,0
7893,56172,37807,0,0,0
7835,56095,37692,0,0,0
7772,56016,37573,0,0,0
7703,55935,37451,0,0,0
7631,55852,37326,0,0,0
7558,55769,37200,0,0,0
7486,55687,37075,0,0,0
7417,55605,36948,0,0,0
7350,55521,36819,0,0,0
7282,55433,36686,0,0,0
7211,55341,36553,0,0,0
7143,55251,36427,0,0,0
7075,55164,36305,0,0,0
7009,55077,36184,0,0,0
6946,54992,36059,0,0,0
6886,54912,35932,0,0,0
6829,54840,35810,0,0,0
6773,54775,35696,0,0,0
6718,54717,35593,0,0,0
6664,54661,35500,0,0,0
6611,54604,35411,0,0,0
6560,54547,35324,0,0,0
6512,54493,35239,0,0,0
6466,54439,35157,0,0,0
6421,54382,35076,0,0,0
6380,54326,34999,0,0,0
6343,54275,34929,0,0,0
6307,54230,34864,0,0,0
6277,54192,34805,0,0,0
6250,54159,34753,0,0,0
6227,54130,34705,0,0,0
6207,54107,34664,0,0,0
6191,54089,34628,0,0,0
6177,54073,34597,0,0,0
6165,54060,34572,0,0,0
6158,54050,34554,0,0,0
6153,54042,34538,0,0,0
6145,54036,34523,0,0,0
6141,54032,34512,0,0,0
6143,54029,34508,0,0,0
6146,54026,34506,0,0,0
6152,54026,34503,0,0,0
6160,54029,34504,0,0,0
6164,54032,34505,0,0,0
6165,54029,34507,0,0,0
6163,54020,34509,0,0,0
6155,54006,34506,0,0,0
6143,53991,34495,0,0,0
6131,53978,34480,0,0,0
6124,53967,34466,0,0,0
6117,53954,34451,0,0,0
6103,53937,34429,0,0,0
6086,53919,34402,0,0,0
6070,53902,34372,0,0,0
6055,53882,34337,0,0,0
6031,53854,34294,0,0,0
6000,53818,34243,0,0,0
5965,53775,34184,0,0,0
5926,53729,34118,0,0,0
5884,53683,34045,0,0,0
5840,53633,33965,0,0,0
5795,53579,33881,0,0,0
5749,53524,33796,0,0,0
5701,53468,33710,0,0,0
5649,53412,33623,0,0,0
5598,53359,33539,0,0,0
5549,53310,33463,0,0,0
5506,53264,33396,0,0,0
5473,53230,33344,0,0,0
5458,53217,33321,0,0,0
5464,53234,33339,0,0,0
5501,53289,33408,0,0,0
5581,53388,33545,0,0,0
5708,53540,33763,0,0,0
5878,53747,34065,0,0,0
6093,54005,34445,0,0,0
6348,54307,34897,0,0,0
6631,54645,35410,0,0,0
6936,55008,35967,0,0,0
7255,55387,36554,0,0,0
7577,55773,37153,0,0,0
7894,56158,37750,0,0,0
8197,56529,38330,0,0,0
8477,56877,38877,0,0,0
8732,57195,39380,0,0,0
8965,57483,39840,0,0,0
9176,57742,40250,0,0,0
9360,57966,40605,0,0,0
9518,58156,40907,0,0,0
9647,58312,41159,0,0,0
9746,58435,41357,0,0,0
9821,58526,41503,0,0,0
9875,58588,41599,0,0,0
9905,58626,41651,0,0,0
9915,58638,41663,0,0,0
9905,58626,41636,0,0,0
9876,58590,41576,0,0,0
9830,58532,41484,0,0,0
9772,58454,41361,0,0,0
9704,58362,41215,0,0,0
9627,58260,41051,0,0,0
9542,58146,40874,0,0,0
9453,58025,40685,0,0,0
9361,57900,40489,0,0,0
9268,57774,40290,0,0,0
9173,57646,40093,0,0,0
9076,57518,39895,0,0,0
8978,57389,39695,0,0,0
8878,57264,39497,0,0,0
8778,57141,39302,0,0,0
8679,57017,39106,0,0,0
8578,56887,38906,0,0,0
8476,56754,38702,0,0,0
8372,56619,38492,0,0,0
8268,56484,38281,0,0,0
8163,56351,38074,0,0,0
8058,56220,37875,0,0,0
7960,56098,37687,0,0,0
7871,55988,37517,0,0,0
7794,55890,37370,0,0,0
7736,55811,37251,0,0,0
7694,55752,37162,0,0,0
7667,55711,37099,0,0,0
7656,55692,37066,0,0,0
7660,55698,37065,0,0,0
7677,55725,37095,0,0,0
7709,55768,37153,0,0,0
7753,55827,37237,0,0,0
7806,55901,37342,0,0,0
7871,55985,37461,0,0,0
7945,56079,37594,0,0,0
8030,56183,37744,0,0,0
8125,56295,37908,0,0,0
8223,56410,38078,0,0,0
8317,56522,38246,0,0,0
8404,56627,38406,0,0,0
8487,56728,38558,0,0,0
8563,56821,38701,0,0,0
8629,56904,38828,0,0,0
8688,56974,38939,0,0,0
8739,57030,39031,0,0,0
8779,57072,39102,0,0,0
8810,57099,39151,0,0,0
8832,57114,39179,0,0,0
8842,57118,39186,0,0,0
8838,57110,39175,0,0,0
8824,57093,39147,0,0,0
8802,57070,39104,0,0,0
8771,57037,39047,0,0,0
8731,56993,38974,0,0,0
8683,56939,38886,0,0,0
8629,56880,38787,0,0,0
8570,56816,38680,0,0,0
8507,56748,38566,0,0,0
8441,56673,38448,0,0,0
8375,56594,38325,0,0,0
8311,56514,38200,0,0,0
8249,56432,38075,0,0,0
8187,56346,37948,0,0,0
8125,56261,37820,0,0,0
8064,56176,37691,0,0,0
7999,56089,37556,0,0,0
7931,56002,37418,0,0,0
7863,55916,37281,0,0,0
7795,55829,37147,0,0,0
7726,55740,37014,0,0,0
7662,55654,36882,0,0,0
7598,55571,36752,0,0,0
7531,55490,36626,0,0,0
7465,55410,36506,0,0,0
7402,55333,36393,0,0,0
7339,55260,36281,0,0,0
7276,55191,36170,0,0,0
7214,55121,36066,0,0,0
7154,55053,35972,0,0,0
7100,54990,35884,0,0,0
7052,54932,35800,0,0,0
7006,54875,35721,0,0,0
6961,54822,35645,0,0,0
6919,54775,35573,0,0,0
6883,54732,35502,0,0,0
6851,54692,35434,0,0,0
6824,54655,35369,0,0,0
6797,54619,35310,0,0,0
6772,54585,35258,0,0,0
6749,54552,35209,0,0,0
6730,54520,35164,0,0,0
6712,54493,35128,0,0,0
6695,54470,35097,0,0,0
6679,54451,35068,0,0,0
6665,54437,35043,0,0,0
6652,54425,35020,0,0,0
6640,54412,34996,0,0,0
6631,54401,34975,0,0,0
6626,54395,34962,0,0,0
6623,54392,34953,0,0,0
6619,54389,34947,0,0,0
6614,54383,34944,0,0,0
6606,54377,34942,0,0,0
6598,54371,34936,0,0,0
6591,54361,34927,0,0,0
6584,54347,34913,0,0,0
6575,54334,34894,0,0,0
6567,54323,34873,0,0,0
6556,54307,34850,0,0,0
6541,54285,34824,0,0,0
6524,54263,34798,0,0,0
6505,54239,34767,0,0,0
6480,54206,34725,0,0,0
6448,54166,34671,0,0,0
6413,54125,34613,0,0,0
6375,54083,34551,0,0,0
6335,54038,34484,0,0,0
6293,53986,34411,0,0,0
6247,53930,34331,0,0,0
6195,53870,34243,0,0,0
6141,53806,34150,0,0,0
6089,53741,34055,0,0,0
6041,53679,33962,0,0,0
5998,53619,33870,0,0,0
5956,53561,33779,0,0,0
5915,53506,33696,0,0,0
5879,53462,33629,0,0,0
5853,53433,33584,0,0,0
5843,53425,33571,0,0,0
5858,53449,33604,0,0,0
5907,53516,33697,0,0,0
5997,53634,33861,0,0,0
6132,53807,34103,0,0,0
6311,54035,34426,0,0,0
6530,54312,34830,0,0,0
6785,54631,35307,0,0,0
7067,54981,35842,0,0,0
7369,55352,36412,0,0,0
7680,55735,37000,0,0,0
7993,56119,37591,0,0,0
8302,56496,38172,0,0,0
8599,56860,38734,0,0,0
8876,57203,39265,0,0,0
9129,57518,39755,0,0,0
9357,57802,40197,0,0,0
9558,58052,40589,0,0,0
9731,58268,40930,0,0,0
9876,58448,41215,0,0,0
9990,58592,41443,0,0,0
10077,58701,41615,0,0,0
10140,58774,41731,0,0,0
10177,58813,41793,0,0,0
10188,58817,41807,0,0,0
10180,58797,41784,0,0,0
10156,58755,41728,0,0,0
10113,58693,41639,0,0,0
10055,58616,41518,0,0,0
9989,58528,41376,0,0,0
9916,58429,41216,0,0,0
9833,58318,41040,0,0,0
9741,58200,40849,0,0,0
9643,58073,40647,0,0,0
9536,57933,40434,0,0,0
9427,57785,40215,0,0,0
9320,57637,39994,0,0,0
9212,57491,39772,0,0,0
9103,57345,39547,0,0,0
8991,57197,39319,0,0,0
8874,57050,39091,0,0,0
8754,56904,38863,0,0,0
8632,56754,38634,0,0,0
8508,56600,38402,0,0,0
8383,56445,38170,0,0,0
8258,56291,37938,0,0,0
8132,56140,37707,0,0,0
8009,55995,37485,0,0,0
7894,55859,37280,0,0,0
7794,55738,37099,0,0,0
7713,55634,36944,0,0,0
7649,55549,36818,0,0,0
7605,55487,36725,0,0,0
7581,55453,36667,0,0,0
7576,55444,36643,0,0,0
7588,55456,36650,0,0,0
7615,55490,36690,0,0,0
7654,55546,36762,0,0,0
7704,55618,36856,0,0,0
7766,55701,36971,0,0,0
7838,55793,37106,0,0,0
7916,55894,37256,0,0,0
7998,56000,37416,0,0,0
8084,56109,37579,0,0,0
8172,56214,37739,0,0,0
8258,56315,37892,0,0,0
8340,56407,38035,0,0,0
8412,56490,38168,0,0,0
8478,56567,38294,0,0,0
8539,56638,38405,0,0,0
8592,56698,38495,0,0,0
8633,56744,38565,0,0,0
8663,56779,38618,0,0,0
8681,56802,38652,0,0,0
8686,56808,38664,0,0,0
8678,56799,38654,0,0,0
8658,56777,38624,0,0,0
8625,56740,38573,0,0,0
8584,56692,38502,0,0,0
8538,56638,38419,0,0,0
8489,56580,38324,0,0,0
8433,56518,38218,0,0,0
8373,56449,38106,0,0,0
8311,56372,37989,0,0,0
8248,56290,37863,0,0,0
8181,56204,37731,0,0,0
8108,56115,37594,0,0,0
8033,56023,37453,0,0,0
7954,55929,37308,0,0,0
7873,55831,37157,0,0,0
7790,55728,37004,0,0,0
7706,55621,36854,0,0,0
7621,55515,36702,0,0,0
7536,55408,36548,0,0,0
7452,55301,36392,0,0,0
7368,55196,36237,0,0,0
7290,55097,36089,0,0,0
7214,55004,35947,0,0,0
7137,54914,35808,0,0,0
7063,54826,35675,0,0,0
6992,54741,35547,0,0,0
6922,54659,35422,0,0,0
6858,54582,35301,0,0,0
6801,54512,35192,0,0,0
6748,54446,35092,0,0,0
6697,54382,34996,0,0,0
6649,54322,34902,0,0,0
6605,54266,34814,0,0,0
6564,54216,34731,0,0,0
6526,54166,34650,0,0,0
6486,54114,34572,0,0,0
6441,54059,34498,0,0,0
6394,54003,34427,0,0,0
6354,53953,34361,0,0,0
6320,53911,34303,0,0,0
6290,53876,34250,0,0,0
6262,53841,34198,0,0,0
6235,53808,34147,0,0,0
6214,53779,34100,0,0,0
6196,53753,34057,0,0,0
6178,53732,34017,0,0,0
6157,53712,33982,0,0,0
6136,53693,33952,0,0,0
6115,53674,33924,0,0,0
6093,53654,33900,0,0,0
6072,53636,33878,0,0,0
6053,53620,33855,0,0,0
6037,53605,33831,0,0,0
6022,53594,33808,0,0,0
6010,53585,33788,0,0,0
6001,53576,33769,0,0,0
5996,53568,33751,0,0,0
5994,53561,33733,0,0,0
5993,53551,33714,0,0,0
5989,53539,33695,0,0,0
5980,53530,33678,0,0,0
5967,53516,33660,0,0,0
5952,53497,33641,0,0,0
5936,53478,33619,0,0,0
5917,53458,33591,0,0,0
5890,53429,33550,0,0,0
5856,53391,33501,0,0,0
5820,53348,33445,0,0,0
5777,53302,33380,0,0,0
5726,53246,33301,0,0,0
5669,53182,33210,0,0,0
5607,53112,33107,0,0,0
5541,53038,32996,0,0,0
5472,52962,32883,0,0,0
5403,52885,32774,0,0,0
5333,52806,32665,0,0,0
5264,52724,32554,0,0,0
5198,52644,32444,0,0,0
5139,52569,32342,0,0,0
5090,52506,32253,0,0,0
5053,52459,32183,0,0,0
5031,52434,32141,0,0,0
5032,52439,32140,0,0,0
5068,52486,32201,0,0,0
5148,52585,32341,0,0,0
5277,52738,32567,0,0,0
5460,52953,32884,0,0,0
5695,53232,33292,0,0,0
5973,53567,33785,0,0,0
6286,53945,34348,0,0,0
6622,54353,34959,0,0,0
6969,54777,35597,0,0,0
7314,55204,36241,0,0,0
7649,55621,36874,0,0,0
7968,56016,37480,0,0,0
8266,56382,38048,0,0,0
8539,56713,38570,0,0,0
8784,57010,39040,0,0,0
9000,57273,39458,0,0,0
9183,57498,39820,0,0,0
9333,57686,40124,0,0,0
9450,57837,40372,0,0,0
9539,57950,40564,0,0,0
9605,58032,40703,0,0,0
9647,58084,40792,0,0,0
9667,58108,40831,0,0,0
9666,58106,40824,0,0,0
9645,58081,40782,0,0,0
9604,58032,40705,0,0,0
9548,57962,40596,0,0,0
9484,57876,40461,0,0,0
9411,57778,40304,0,0,0
9327,57668,40128,0,0,0
9233,57549,39936,0,0,0
9129,57421,39733,0,0,0
9016,57281,39519,0,0,0
8901,57134,39297,0,0,0
8785,56986,39070,0,0,0
8668,56838,38842,0,0,0
8548,56690,38613,0,0,0
8426,56538,38382,0,0,0
8301,56385,38151,0,0,0
8176,56232,37919,0,0,0
8048,56078,37686,0,0,0
7915,55919,37446,0,0,0
7775,55755,37197,0,0,0
7634,55591,36947,0,0,0
7495,55427,36702,0,0,0
7363,55265,36465,0,0,0
7241,55111,36243,0,0,0
7133,54974,36043,0,0,0
7041,54855,35868,0,0,0
6967,54758,35723,0,0,0
6914,54684,35611,0,0,0
6882,54636,35537,0,0,0
6868,54615,35503,0,0,0
6872,54620,35510,0,0,0
6896,54653,35553,0,0,0
6941,54711,35628,0,0,0
7006,54791,35732,0,0,0
7084,54889,35862,0,0,0
7174,55001,36014,0,0,0
7273,55123,36184,0,0,0
7377,55252,36367,0,0,0
7484,55380,36556,0,0,0
7590,55508,36749,0,0,0
7695,55634,36941,0,0,0
7798,55758,37128,0,0,0
7897,55876,37306,0,0,0
7991,55987,37475,0,0,0
8076,56090,37630,0,0,0
8151,56181,37768,0,0,0
8215,56260,37885,0,0,0
8268,56325,37983,0,0,0
8308,56376,38060,0,0,0
8334,56411,38113,0,0,0
8347,56430,38144,0,0,0
8346,56433,38152,0,0,0
8332,56422,38137,0,0,0
8308,56395,38102,0,0,0
8275,56357,38050,0,0,0
8235,56309,37981,0,0,0
8189,56254,37895,0,0,0
8133,56190,37792,0,0,0
8067,56114,37677,0,0,0
7995,56031,37554,0,0,0
7923,55945,37424,0,0,0
7848,55856,37287,0,0,0
7769,55762,37143,0,0,0
7686,55662,36998,0,0,0
7600,55556,36848,0,0,0
7516,55451,36697,0,0,0
7437,55348,36547,0,0,0
7360,55247,36397,0,0,0
7282,55146,36246,0,0,0
7203,55045,36094,0,0,0
7123,54945,35945,0,0,0
7043,54849,35798,0,0,0
6966,54758,35653,0,0,0
6891,54670,35513,0,0,0
6817,54584,35379,0,0,0
6746,54501,35250,0,0,0
6678,54421,35128,0,0,0
6610,54342,35009,0,0,0
6545,54264,34893,0,0,0
6484,54188,34785,0,0,0
6426,54113,34683,0,0,0
6370,54040,34586,0,0,0
6317,53969,34495,0,0,0
6265,53902,34410,0,0,0
6214,53839,34327,0,0,0
6167,53782,34250,0,0,0
6127,53735,34179,0,0,0
6094,53693,34111,0,0,0
6066,53656,34046,0,0,0
6039,53621,33985,0,0,0
6013,53587,33927,0,0,0
5988,53557,33875,0,0,0
5963,53531,33831,0,0,0
5937,53509,33793,0,0,0
5915,53488,33760,0,0,0
5897,53472,33730,0,0,0
5880,53455,33700,0,0,0
5864,53437,33674,0,0,0
5851,53425,33655,0,0,0
5839,53415,33643,0,0,0
5826,53404,33631,0,0,0
5812,53395,33618,0,0,0
5802,53388,33606,0,0,0
5796,53383,33597,0,0,0
5792,53381,33590,0,0,0
5788,53379,33585,0,0,0
5784,53376,33578,0,0,0
5777,53370,33570,0,0,0
5769,53360,33556,0,0,0
5759,53348,33536,0,0,0
5744,53330,33511,0,0,0
5720,53306,33478,0,0,0
5693,53276,33439,0,0,0
5664,53243,33394,0,0,0
5633,53204,33345,0,0,0
5600,53160,33290,0,0,0
5565,53111,33226,0,0,0
5526,53058,33153,0,0,0
5485,53005,33073,0,0,0
5441,52952,32987,0,0,0
5393,52895,32897,0,0,0
5345,52836,32808,0,0,0
5298,52781,32724,0,0,0
5252,52731,32645,0,0,0
5208,52682,32568,0,0,0
5169,52638,32500,0,0,0
5141,52606,32449,0,0,0
5126,52592,32423,0,0,0
5133,52605,32434,0,0,0
5171,52659,32500,0,0,0
5245,52760,32637,0,0,0
5363,52911,32853,0,0,0
5527,53117,33156,0,0,0
5736,53376,33542,0,0,0
5985,53684,34002,0,0,0
6270,54031,34527,0,0,0
6580,54405,35102,0,0,0
6904,54796,35706,0,0,0
7232,55194,36320,0,0,0
7553,55585,36924,0,0,0
7857,55956,37504,0,0,0
8141,56305,38051,0,0,0
8401,56627,38553,0,0,0
8631,56917,39002,0,0,0
8828,57170,39397,0,0,0
8994,57385,39737,0,0,0
9132,57561,40020,0,0,0
9246,57700,40246,0,0,0
9338,57805,40418,0,0,0
9406,57877,40540,0,0,0
9446,57919,40614,0,0,0
9461,57933,40644,0,0,0
9454,57921,40632,0,0,0
9425,57887,40580,0,0,0
9377,57832,40491,0,0,0
9313,57757,40372,0,0,0
9236,57667,40227,0,0,0
9149,57561,40059,0,0,0
9052,57439,39871,0,0,0
8949,57303,39667,0,0,0
8838,57157,39451,0,0,0
8721,57004,39227,0,0,0
8599,56846,38995,0,0,0
8474,56686,38757,0,0,0
8350,56528,38520,0,0,0
8224,56370,38284,0,0,0
8093,56209,38041,0,0,0
7959,56044,37793,0,0,0
7824,55875,37542,0,0,0
7686,55700,37285,0,0,0
7542,55519,37017,0,0,0
7396,55336,36743,0,0,0
7250,55154,36470,0,0,0
7105,54974,36204,0,0,0
6968,54801,35952,0,0,0
6843,54646,35722,0,0,0
6732,54510,35519,0,0,0
6637,54395,35346,0,0,0
6563,54305,35210,0,0,0
6518,54249,35119,0,0,0
6501,54230,35073,0,0,0
6506,54241,35066,0,0,0
6531,54273,35095,0,0,0
6575,54324,35161,0,0,0
6638,54397,35265,0,0,0
6718,54490,35400,0,0,0
6807,54599,35558,0,0,0
6903,54720,35733,0,0,0
7006,54851,35924,0,0,0
7112,54987,36125,0,0,0
7220,55126,36329,0,0,0
7330,55267,36534,0,0,0
7440,55408,36733,0,0,0
7543,55540,36922,0,0,0
7636,55658,37096,0,0,0
7721,55759,37253,0,0,0
7793,55845,37386,0,0,0
7853,55917,37495,0,0,0
7900,55971,37580,0,0,0
7935,56009,37643,0,0,0
7957,56034,37684,0,0,0
7964,56046,37705,0,0,0
7959,56047,37709,0,0,0
7948,56038,37698,0,0,0
7930,56019,37670,0,0,0
7903,55986,37624,0,0,0
7865,55941,37559,0,0,0
7818,55886,37478,0,0,0
7765,55823,37384,0,0,0
7707,55754,37279,0,0,0
7645,55677,37166,0,0,0
7580,55597,37046,0,0,0
7510,55514,36919,0,0,0
7435,55424,36784,0,0,0
7355,55328,36642,0,0,0
7275,55230,36501,0,0,0
7194,55130,36364,0,0,0
7111,55028,36224,0,0,0
7026,54927,36082,0,0,0
6945,54832,35941,0,0,0
6866,54740,35804,0,0,0
6791,54651,35671,0,0,0
6722,54563,35541,0,0,0
6653,54477,35413,0,0,0
6583,54391,35284,0,0,0
6515,54307,35156,0,0,0
6451,54223,35031,0,0,0
6387,54138,34907,0,0,0
6318,54053,34780,0,0,0
6248,53967,34654,0,0,0
6178,53884,34529,0,0,0
6110,53804,34409,0,0,0
6046,53728,34294,0,0,0
5987,53655,34186,0,0,0
5935,53587,34087,0,0,0
5887,53527,33997,0,0,0
5842,53475,33913,0,0,0
5803,53430,33838,0,0,0
5768,53391,33773,0,0,0
5739,53361,33719,0,0,0
5715,53337,33673,0,0,0
5694,53315,33629,0,0,0
5673,53293,33588,0,0,0
5654,53274,33551,0,0,0
5637,53256,33517,0,0,0
5619,53236,33484,0,0,0
5603,53215,33452,0,0,0
5586,53197,33424,0,0,0
5570,53182,33399,0,0,0
5558,53170,33378,0,0,0
5549,53160,33360,0,0,0
5540,53148,33344,0,0,0
5530,53135,33327,0,0,0
5519,53120,33311,0,0,0
5508,53105,33297,0,0,0
5494,53088,33282,0,0,0
5480,53071,33265,0,0,0
5464,53052,33243,0,0,0
5444,53030,33215,0,0,0
5423,53008,33184,0,0,0
5400,52986,33150,0,0,0
5374,52962,33112,0,0,0
5348,52935,33071,0,0,0
5319,52903,33026,0,0,0
5286,52867,32973,0,0,0
5254,52827,32916,0,0,0
5224,52787,32857,0,0,0
5193,52746,32798,0,0,0
5163,52707,32741,0,0,0
5137,52672,32688,0,0,0
5113,52640,32637,0,0,0
5090,52611,32591,0,0,0
5071,52587,32556,0,0,0
5064,52577,32545,0,0,0
5076,52591,32569,0,0,0
5111,52638,32639,0,0,0
5177,52726,32765,0,0,0
5280,52863,32960,0,0,0
5429,53055,33232,0,0,0
5623,53300,33584,0,0,0
5859,53592,34012,0,0,0
6128,53924,34505,0,0,0
6425,54291,35055,0,0,0
6738,54679,35639,0,0,0
7054,55075,36238,0,0,0
7370,55468,36834,0,0,0
7678,55849,37418,0,0,0
7970,56207,37977,0,0,0
8242,56535,38503,0,0,0
8490,56833,38988,0,0,0
8710,57096,39424,0,0,0
8899,57326,39805,0,0,0
9060,57524,40128,0,0,0
9192,57689,40395,0,0,0
9297,57820,40605,0,0,0
9375,57918,40762,0,0,0
9426,57985,40869,0,0,0
9452,58023,40929,0,0,0
9456,58033,40945,0,0,0
9440,58016,40917,0,0,0
9406,57973,40847,0,0,0
9359,57911,40745,0,0,0
9299,57834,40618,0,0,0
9223,57743,40469,0,0,0
9136,57638,40298,0,0,0
9039,57521,40113,0,0,0
8934,57394,39917,0,0,0
8827,57260,39712,0,0,0
8723,57123,39503,0,0,0
8618,56982,39287,0,0,0
8506,56834,39063,0,0,0
8387,56679,38838,0,0,0
8268,56525,38613,0,0,0
8153,56373,38387,0,0,0
8040,56220,38158,0,0,0
7923,56064,37925,0,0,0
7799,55906,37687,0,0,0
7670,55748,37445,0,0,0
7540,55593,37203,0,0,0
7413,55439,36962,0,0,0
7289,55286,36726,0,0,0
7169,55141,36508,0,0,0
7057,55011,36312,0,0,0
6959,54900,36142,0,0,0
6881,54812,36004,0,0,0
6823,54749,35902,0,0,0
6786,54710,35834,0,0,0
6773,54694,35803,0,0,0
6785,54703,35811,0,0,0
6816,54736,35853,0,0,0
6862,54787,35925,0,0,0
6922,54856,36027,0,0,0
6995,54943,36157,0,0,0
7082,55045,36313,0,0,0
7176,55157,36487,0,0,0
7274,55276,36667,0,0,0
7376,55401,36852,0,0,0
7480,55532,37041,0,0,0
7582,55662,37231,0,0,0
7681,55787,37415,0,0,0
7777,55905,37590,0,0,0
7865,56016,37755,0,0,0
7943,56119,37908,0,0,0
8013,56213,38047,0,0,0
8073,56292,38164,0,0,0
8122,56357,38257,0,0,0
8157,56405,38327,0,0,0
8179,56438,38375,0,0,0
8191,56457,38402,0,0,0
8194,56462,38408,0,0,0
8185,56451,38396,0,0,0
8165,56424,38365,0,0,0
8135,56384,38318,0,0,0
8097,56335,38257,0,0,0
8051,56278,38181,0,0,0
8000,56218,38091,0,0,0
7945,56153,37989,0,0,0
7886,56082,37879,0,0,0
7823,56004,37762,0,0,0
7761,55926,37637,0,0,0
7699,55846,37506,0,0,0
7634,55765,37372,0,0,0
7565,55680,37235,0,0,0
7493,55594,37096,0,0,0
7418,55506,36957,0,0,0
7339,55415,36818,0,0,0
7256,55321,36678,0,0,0
7173,55225,36539,0,0,0
7095,55127,36398,0,0,0
7020,55025,36256,0,0,0
6948,54921,36114,0,0,0
6877,54820,35973,0,0,0
6808,54724,35838,0,0,0
6739,54630,35706,0,0,0
6669,54542,35577,0,0,0
6603,54462,35459,0,0,0
6538,54389,35349,0,0,0
6477,54321,35245,0,0,0
6421,54259,35148,0,0,0
6369,54198,35057,0,0,0
6320,54139,34970,0,0,0
6274,54083,34885,0,0,0
6230,54032,34806,0,0,0
6189,53989,34732,0,0,0
6152,53952,34662,0,0,0
6117,53916,34594,0,0,0
6083,53879,34529,0,0,0
6055,53845,34473,0,0,0
6032,53815,34424,0,0,0
6011,53787,34380,0,0,0
5990,53762,34339,0,0,0
5968,53737,34302,0,0,0
5947,53714,34268,0,0,0
5928,53691,34235,0,0,0
5912,53670,34204,0,0,0
5895,53652,34177,0,0,0
5876,53635,34151,0,0,0
5858,53620,34127,0,0,0
5846,53606,34109,0,0,0
5836,53591,34095,0,0,0
5827,53575,34083,0,0,0
5818,53560,34070,0,0,0
5807,53547,34055,0,0,0
5794,53531,34037,0,0,0
5779,53512,34015,0,0,0
5762,53491,33990,0,0,0
5744,53470,33959,0,0,0
5725,53450,33924,0,0,0
5707,53430,33880,0,0,0
5691,53405,33829,0,0,0
5671,53376,33776,0,0,0
5647,53346,33726,0,0,0
5621,53316,33676,0,0,0
5591,53285,33627,0,0,0
5558,53257,33583,0,0,0
5525,53231,33548,0,0,0
5495,53205,33518,0,0,0
5475,53182,33496,0,0,0
5473,53178,33496,0,0,0
5493,53201,33528,0,0,0
5536,53254,33602,0,0,0
5610,53347,33732,0,0,0
5722,53488,33931,0,0,0
5875,53679,34207,0,0,0
6069,53918,34558,0,0,0
6299,54203,34983,0,0,0
6555,54525,35467,0,0,0
6831,54872,35994,0,0,0
7121,55235,36547,0,0,0
7420,55601,37114,0,0,0
7716,55962,37679,0,0,0
8002,56311,38226,0,0,0
8268,56638,38743,0,0,0
8511,56937,39223,0,0,0
8733,57209,39665,0,0,0
8933,57457,40063,0,0,0
9108,57672,40410,0,0,0
9256,57853,40702,0,0,0
9378,58001,40941,0,0,0
9476,58118,41125,0,0,0
9548,58206,41259,0,0,0
9596,58270,41349,0,0,0
9621,58306,41396,0,0,0
9624,58313,41399,0,0,0
9609,58294,41364,0,0,0
9577,58249,41295,0,0,0
9527,58180,41196,0,0,0
9463,58094,41069,0,0,0
9389,57994,40919,0,0,0
9307,57882,40750,0,0,0
9218,57759,40563,0,0,0
9118,57628,40363,0,0,0
9011,57493,40156,0,0,0
8901,57355,39947,0,0,0
8788,57217,39735,0,0,0
8674,57078,39519,0,0,0
8557,56939,39301,0,0,0
8439,56800,39081,0,0,0
8321,56662,38859,0,0,0
8201,56518,38633,0,0,0
8078,56367,38401,0,0,0
7954,56212,38163,0,0,0
7828,56053,37921,0,0,0
7697,55887,37676,0,0,0
7567,55719,37430,0,0,0
7442,55559,37192,0,0,0
7323,55412,36971,0,0,0
7211,55281,36771,0,0,0
7116,55171,36601,0,0,0
7043,55084,36465,0,0,0
6992,55026,36365,0,0,0
6963,54995,36307,0,0,0
6960,54992,36293,0,0,0
6980,55014,36318,0,0,0
7018,55059,36375,0,0,0
7070,55122,36461,0,0,0
7136,55203,36574,0,0,0
7217,55303,36713,0,0,0
7311,55416,36874,0,0,0
7410,55534,37048,0,0,0
7509,55655,37228,0,0,0
7609,55779,37413,0,0,0
7709,55902,37599,0,0,0
7807,56019,37778,0,0,0
7898,56126,37948,0,0,0
7982,56225,38108,0,0,0
8057,56317,38255,0,0,0
8120,56396,38383,0,0,0
8173,56462,38489,0,0,0
8214,56516,38575,0,0,0
8242,56557,38640,0,0,0
8259,56586,38685,0,0,0
8269,56602,38711,0,0,0
8269,56605,38719,0,0,0
8260,56595,38707,0,0,0
8244,56570,38677,0,0,0
8223,56537,38631,0,0,0
8195,56497,38568,0,0,0
8161,56447,38491,0,0,0
8118,56391,38402,0,0,0
8067,56329,38302,0,0,0
8010,56266,38193,0,0,0
7951,56197,38077,0,0,0
7887,56120,37957,0,0,0
7819,56039,37832,0,0,0
7747,55954,37706,0,0,0
7673,55865,37576,0,0,0
7596,55772,37440,0,0,0
7519,55679,37302,0,0,0
7444,55585,37164,0,0,0
7369,55489,37025,0,0,0
7294,55395,36888,0,0,0
7221,55307,36754,0,0,0
7148,55220,36623,0,0,0
7075,55130,36490,0,0,0
7000,55039,36359,0,0,0
6922,54949,36228,0,0,0
6844,54859,36098,0,0,0
6773,54773,35970,0,0,0
6711,54694,35846,0,0,0
6654,54620,35727,0,0,0
6597,54546,35610,0,0,0
6539,54471,35496,0,0,0
6482,54400,35388,0,0,0
6431,54337,35288,0,0,0
6385,54279,35196,0,0,0
6342,54226,35112,0,0,0
6303,54181,35038,0,0,0
6267,54141,34971,0,0,0
6232,54103,34911,0,0,0
6200,54068,34857,0,0,0
6173,54037,34809,0,0,0
6150,54011,34768,0,0,0
6129,53988,34729,0,0,0
6108,53965,34687,0,0,0
6088,53941,34646,0,0,0
6072,53917,34609,0,0,0
6056,53893,34576,0,0,0
6036,53870,34544,0,0,0
6016,53847,34514,0,0,0
5996,53826,34487,0,0,0
5977,53807,34461,0,0,0
5960,53789,34435,0,0,0
5947,53776,34412,0,0,0
5936,53761,34389,0,0,0
5923,53744,34364,0,0,0
5910,53725,34338,0,0,0
5895,53703,34310,0,0,0
5872,53677,34278,0,0,0
5845,53645,34240,0,0,0
5811,53610,34195,0,0,0
5772,53568,34141,0,0,0
5730,53523,34076,0,0,0
5686,53477,34004,0,0,0
5642,53428,33926,0,0,0
5597,53375,33846,0,0,0
5550,53318,33764,0,0,0
5498,53256,33677,0,0,0
5442,53191,33588,0,0,0
5389,53129,33502,0,0,0
5341,53072,33423,0,0,0
5298,53021,33351,0,0,0
5261,52982,33290,0,0,0
5240,52961,33254,0,0,0
5239,52962,33254,0,0,0
5263,52990,33297,0,0,0
5317,53054,33395,0,0,0
5410,53163,33559,0,0,0
5542,53321,33800,0,0,0
5713,53530,34116,0,0,0
5923,53789,34503,0,0,0
6166,54090,34952,0,0,0
6432,54422,35447,0,0,0
6715,54773,35975,0,0,0
7006,55134,36523,0,0,0
7299,55494,37078,0,0,0
7585,55840,37619,0,0,0
7857,56165,38133,0,0,0
8110,56469,38615,0,0,0
8342,56747,39057,0,0,0
8546,56992,39449,0,0,0
8724,57206,39793,0,0,0
8877,57392,40091,0,0,0
9005,57548,40341,0,0,0
9104,57675,40541,0,0,0
9176,57770,40690,0,0,0
9223,57835,40789,0,0,0
9249,57871,40840,0,0,0
9256,57882,40849,0,0,0
9242,57869,40820,0,0,0
9209,57833,40758,0,0,0
9163,57777,40667,0,0,0
9104,57702,40547,0,0,0
9034,57612,40405,0,0,0
8958,57516,40249,0,0,0
8877,57413,40081,0,0,0
8788,57301,39900,0,0,0
8692,57181,39708,0,0,0
8594,57060,39515,0,0,0
8495,56939,39321,0,0,0
8391,56811,39123,0,0,0
8283,56675,38920,0,0,0
8173,56536,38713,0,0,0
8059,56393,38501,0,0,0
7945,56247,38283,0,0,0
7833,56099,38061,0,0,0
7717,55950,37833,0,0,0
7594,55801,37598,0,0,0
7468,55651,37360,0,0,0
7346,55504,37127,0,0,0
7231,55365,36904,0,0,0
7122,55235,36695,0,0,0
7026,55116,36510,0,0,0
6946,55014,36353,0,0,0
6883,54934,36229,0,0,0
6838,54876,36139,0,0,0
6811,54844,36085,0,0,0
6804,54840,36068,0,0,0
6816,54860,36089,0,0,0
6843,54901,36141,0,0,0
6884,54960,36223,0,0,0
6940,55037,36329,0,0,0
7009,55129,36453,0,0,0
7088,55232,36592,0,0,0
7173,55339,36743,0,0,0
7260,55445,36903,0,0,0
7350,55552,37069,0,0,0
7440,55658,37233,0,0,0
7526,55759,37388,0,0,0
7607,55856,37535,0,0,0
7681,55944,37675,0,0,0
7745,56018,37801,0,0,0
7801,56081,37911,0,0,0
7848,56136,38003,0,0,0
7882,56179,38074,0,0,0
7904,56209,38124,0,0,0
7920,56226,38157,0,0,0
7927,56232,38174,0,0,0
7924,56227,38175,0,0,0
7915,56216,38160,0,0,0
7903,56198,38134,0,0,0
7887,56172,38096,0,0,0
7863,56135,38043,0,0,0
7828,56085,37973,0,0,0
7783,56025,37889,0,0,0
7734,55963,37796,0,0,0
7682,55898,37693,0,0,0
7624,55829,37582,0,0,0
7560,55754,37464,0,0,0
7493,55674,37342,0,0,0
7423,55593,37216,0,0,0
7354,55507,37084,0,0,0
7286,55417,36950,0,0,0
7214,55326,36815,0,0,0
7138,55235,36675,0,0,0
7061,55142,36531,0,0,0
6984,55049,36385,0,0,0
6904,54955,36242,0,0,0
6823,54859,36100,0,0,0
6743,54762,35958,0,0,0
6663,54667,35822,0,0,0
6584,54574,35691,0,0,0
6505,54481,35559,0,0,0
6431,54390,35428,0,0,0
6361,54306,35300,0,0,0
6296,54226,35177,0,0,0
6236,54147,35057,0,0,0
6176,54070,34942,0,0,0
6118,53998,34831,0,0,0
6067,53934,34729,0,0,0
6019,53876,34636,0,0,0
5972,53822,34550,0,0,0
5928,53772,34472,0,0,0
5890,53725,34400,0,0,0
5853,53677,34328,0,0,0
5816,53628,34260,0,0,0
5782,53582,34196,0,0,0
5749,53538,34138,0,0,0
5718,53499,34086,0,0,0
5692,53466,34039,0,0,0
5667,53439,33995,0,0,0
5645,53415,33955,0,0,0
5627,53396,33920,0,0,0
5616,53383,33893,0,0,0
5608,53375,33873,0,0,0
5601,53368,33856,0,0,0
5592,53360,33839,0,0,0
5584,53354,33827,0,0,0
5578,53352,33821,0,0,0
5575,53351,33815,0,0,0
5571,53347,33808,0,0,0
5561,53341,33800,0,0,0
5551,53335,33788,0,0,0
5543,53328,33770,0,0,0
5535,53318,33748,0,0,0
5525,53304,33722,0,0,0
5511,53287,33695,0,0,0
5495,53264,33665,0,0,0
5473,53235,33625,0,0,0
5444,53201,33577,0,0,0
5411,53163,33522,0,0,0
5373,53120,33461,0,0,0
5336,53076,33395,0,0,0
5300,53032,33331,0,0,0
5262,52989,33268,0,0,0
5221,52944,33206,0,0,0
5181,52902,33149,0,0,0
5147,52867,33103,0,0,0
5119,52839,33065,0,0,0
5099,52819,33040,0,0,0
5091,52818,33041,0,0,0
5106,52848,33082,0,0,0
5151,52916,33174,0,0,0
5234,53025,33329,0,0,0
5358,53176,33557,0,0,0
5527,53377,33860,0,0,0
5739,53628,34241,0,0,0
5985,53923,34686,0,0,0
6256,54250,35182,0,0,0
6549,54606,35718,0,0,0
6856,54980,36279,0,0,0
7166,55356,36845,0,0,0
7468,55724,37403,0,0,0
7755,56076,37939,0,0,0
8018,56401,38443,0,0,0
8257,56697,38907,0,0,0
8474,56964,39329,0,0,0
8665,57202,39706,0,0,0
8825,57407,40029,0,0,0
8956,57574,40297,0,0,0
9061,57706,40512,0,0,0
9143,57807,40679,0,0,0
9200,57876,40796,0,0,0
9233,57914,40864,0,0,0
9243,57926,40885,0,0,0
9235,57915,40866,0,0,0
9210,57883,40812,0,0,0
9169,57830,40727,0,0,0
9118,57761,40616,0,0,0
9055,57678,40485,0,0,0
8979,57581,40333,0,0,0
8893,57473,40162,0,0,0
8799,57354,39978,0,0,0
8697,57226,39782,0,0,0
8589,57089,39576,0,0,0
8475,56948,39362,0,0,0
8359,56803,39141,0,0,0
8240,56656,38913,0,0,0
8120,56505,38677,0,0,0
7997,56348,38435,0,0,0
7872,56185,38189,0,0,0
7743,56018,37940,0,0,0
7613,55847,37690,0,0,0
7478,55676,37437,0,0,0
7339,55505,37182,0,0,0
7203,55340,36931,0,0,0
7073,55182,36687,0,0,0
6951,55034,36458,0,0,0
6841,54903,36252,0,0,0
6749,54792,36074,0,0,0
6672,54701,35926,0,0,0
6614,54632,35811,0,0,0
6580,54590,35741,0,0,0
6570,54578,35716,0,0,0
6583,54594,35730,0,0,0
6615,54634,35778,0,0,0
6662,54694,35860,0,0,0
6722,54772,35971,0,0,0
6799,54865,36110,0,0,0
6891,54972,36271,0,0,0
6992,55093,36449,0,0,0
7099,55219,36636,0,0,0
7208,55347,36826,0,0,0
7317,55475,37016,0,0,0
7425,55601,37206,0,0,0
7527,55720,37388,0,0,0
7618,55827,37556,0,0,0
7697,55922,37705,0,0,0
7766,56005,37835,0,0,0
7822,56076,37948,0,0,0
7865,56134,38038,0,0,0
7894,56176,38106,0,0,0
7912,56205,38152,0,0,0
7917,56220,38175,0,0,0
7912,56219,38177,0,0,0
7900,56205,38161,0,0,0
7882,56183,38132,0,0,0
7860,56156,38092,0,0,0
7831,56119,38038,0,0,0
7799,56074,37972,0,0,0
7762,56023,37896,0,0,0
7717,55962,37806,0,0,0
7666,55893,37703,0,0,0
7611,55822,37593,0,0,0
7549,55747,37477,0,0,0
7483,55665,37352,0,0,0
7417,55582,37225,0,0,0
7351,55499,37100,0,0,0
7283,55415,36975,0,0,0
7215,55333,36850,0,0,0
7150,55252,36725,0,0,0
7084,55173,36600,0,0,0
7015,55096,36474,0,0,0
6947,55022,36350,0,0,0
6879,54951,36229,0,0,0
6814,54879,36110,0,0,0
6751,54806,35992,0,0,0
6687,54728,35875,0,0,0
6623,54650,35761,0,0,0
6563,54575,35653,0,0,0
6506,54502,35547,0,0,0
6450,54429,35439,0,0,0
6395,54357,35333,0,0,0
6344,54289,35233,0,0,0
6294,54223,35136,0,0,0
6242,54159,35036,0,0,0
6190,54097,34936,0,0,0
6138,54037,34839,0,0,0
6088,53977,34749,0,0,0
6040,53918,34666,0,0,0
5997,53861,34590,0,0,0
5958,53807,34522,0,0,0
5921,53757,34457,0,0,0
5889,53709,34396,0,0,0
5861,53666,34339,0,0,0
5833,53626,34287,0,0,0
5803,53588,34237,0,0,0
5774,53553,34191,0,0,0
5748,53519,34150,0,0,0
5723,53488,34111,0,0,0
5703,53462,34073,0,0,0
5683,53440,34037,0,0,0
5664,53422,34009,0,0,0
5646,53409,33990,0,0,0
5631,53402,33976,0,0,0
5618,53400,33964,0,0,0
5609,53401,33955,0,0,0
5602,53404,33945,0,0,0
5593,53400,33934,0,0,0
5583,53389,33920,0,0,0
5575,53374,33903,0,0,0
5567,53356,33882,0,0,0
5552,53334,33851,0,0,0
5530,53308,33811,0,0,0
5506,53284,33770,0,0,0
5481,53260,33729,0,0,0
5456,53233,33682,0,0,0
5430,53201,33628,0,0,0
5401,53167,33574,0,0,0
5370,53131,33521,0,0,0
5340,53094,33468,0,0,0
5314,53059,33417,0,0,0
5289,53026,33372,0,0,0
5265,52997,33336,0,0,0
5249,52979,33313,0,0,0
5249,52982,33312,0,0,0
5269,53013,33345,0,0,0
5315,53073,33425,0,0,0
5391,53170,33567,0,0,0
5505,53311,33780,0,0,0
5656,53499,34066,0,0,0
5845,53727,34421,0,0,0
6071,53995,34843,0,0,0
6329,54303,35327,0,0,0
6607,54645,35854,0,0,0
6899,55008,36407,0,0,0
7197,55376,36969,0,0,0
7493,55739,37528,0,0,0
7782,56091,38073,0,0,0
8054,56423,38591,0,0,0
8302,56729,39071,0,0,0
8525,57007,39509,0,0,0
8725,57256,39902,0,0,0
8900,57471,40243,0,0,0
9049,57650,40528,0,0,0
9172,57798,40761,0,0,0
9270,57917,40943,0,0,0
9341,58008,41075,0,0,0
9388,58067,41161,0,0,0
9415,58097,41210,0,0,0
9418,58101,41222,0,0,0
9401,58080,41196,0,0,0
9368,58037,41132,0,0,0
9320,57972,41037,0,0,0
9259,57891,40914,0,0,0
9188,57795,40765,0,0,0
9109,57687,40598,0,0,0
9022,57569,40414,0,0,0
8923,57442,40218,0,0,0
8818,57310,40012,0,0,0
8711,57176,39802,0,0,0
8605,57040,39591,0,0,0
8498,56902,39377,0,0,0
8388,56757,39160,0,0,0
8270,56608,38940,0,0,0
8150,56460,38719,0,0,0
8029,56311,38493,0,0,0
7904,56158,38257,0,0,0
7776,56004,38018,0,0,0
7647,55851,37780,0,0,0
7519,55697,37546,0,0,0
7396,55547,37315,0,0,0
7283,55408,37096,0,0,0
7184,55282,36898,0,0,0
7101,55173,36729,0,0,0
7036,55084,36591,0,0,0
6991,55018,36488,0,0,0
6964,54978,36421,0,0,0
6956,54963,36390,0,0,0
6967,54973,36393,0,0,0
6997,55008,36433,0,0,0
7039,55063,36506,0,0,0
7092,55134,36609,0,0,0
7157,55221,36736,0,0,0
7231,55321,36883,0,0,0
7317,55433,37047,0,0,0
7412,55552,37224,0,0,0
7508,55671,37408,0,0,0
7605,55792,37597,0,0,0
7702,55914,37789,0,0,0
7797,56030,37971,0,0,0
7885,56135,38136,0,0,0
7966,56230,38284,0,0,0
8035,56315,38417,0,0,0
8093,56389,38529,0,0,0
8143,56451,38619,0,0,0
8183,56500,38688,0,0,0
8210,56535,38738,0,0,0
8227,56558,38770,0,0,0
8236,56570,38785,0,0,0
8235,56569,38783,0,0,0
8223,56554,38759,0,0,0
8198,56524,38716,0,0,0
8164,56480,38656,0,0,0
8122,56428,38584,0,0,0
8076,56367,38500,0,0,0
8024,56297,38405,0,0,0
7966,56222,38299,0,0,0
7903,56144,38185,0,0,0
7837,56064,38064,0,0,0
7770,55983,37939,0,0,0
7703,55901,37812,0,0,0
7632,55817,37682,0,0,0
7559,55730,37552,0,0,0
7485,55642,37421,0,0,0
7415,55553,37290,0,0,0
7345,55465,37158,0,0,0
7275,55377,37027,0,0,0
7206,55289,36897,0,0,0
7138,55202,36768,0,0,0
7072,55118,36641,0,0,0
7008,55038,36516,0,0,0
6946,54960,36391,0,0,0
6884,54885,36270,0,0,0
6824,54809,36155,0,0,0
6765,54731,36041,0,0,0
6709,54655,35929,0,0,0
6657,54582,35821,0,0,0
6604,54513,35718,0,0,0
6548,54445,35614,0,0,0
6493,54379,35512,0,0,0
6439,54315,35413,0,0,0
6385,54254,35319,0,0,0
6333,54197,35231,0,0,0
6282,54144,35150,0,0,0
6233,54094,35073,0,0,0
6189,54046,35005,0,0,0
6148,54003,34943,0,0,0
6112,53964,34886,0,0,0
6085,53930,34837,0,0,0
6063,53899,34793,0,0,0
6040,53869,34751,0,0,0
6016,53839,34711,0,0,0
5995,53814,34680,0,0,0
5982,53798,34658,0,0,0
5974,53788,34639,0,0,0
5970,53782,34622,0,0,0
5967,53778,34611,0,0,0
5965,53776,34604,0,0,0
5964,53776,34597,0,0,0
5965,53776,34589,0,0,0
5964,53777,34581,0,0,0
5960,53778,34571,0,0,0
5953,53779,34563,0,0,0
5944,53777,34558,0,0,0
5935,53771,34555,0,0,0
5927,53764,34547,0,0,0
5915,53753,34532,0,0,0
5902,53740,34511,0,0,0
5886,53725,34482,0,0,0
5867,53704,34443,0,0,0
5843,53676,34394,0,0,0
5816,53642,34338,0,0,0
5787,53602,34281,0,0,0
5755,53557,34221,0,0,0
5718,53505,34155,0,0,0
5680,53453,34086,0,0,0
5642,53405,34020,0,0,0
5603,53360,33955,0,0,0
5565,53318,33890,0,0,0
5529,53281,33832,0,0,0
5499,53251,33784,0,0,0
5478,53232,33750,0,0,0
5475,53234,33746,0,0,0
5494,53266,33788,0,0,0
5542,53333,33886,0,0,0
5628,53444,34054,0,0,0
5755,53604,34298,0,0,0
5922,53814,34619,0,0,0
6130,54073,35012,0,0,0
6372,54371,35469,0,0,0
6645,54698,35975,0,0,0
6938,55048,36518,0,0,0
7240,55409,37082,0,0,0
7540,55769,37648,0,0,0
7832,56121,38204,0,0,0
8113,56460,38742,0,0,0
8376,56780,39249,0,0,0
8617,57075,39715,0,0,0
8836,57346,40136,0,0,0
9031,57590,40506,0,0,0
9198,57800,40820,0,0,0
9335,57972,41080,0,0,0
9446,58109,41291,0,0,0
9531,58213,41451,0,0,0
9589,58283,41560,0,0,0
9623,58322,41622,0,0,0
9633,58331,41640,0,0,0
9621,58314,41618,0,0,0
9592,58275,41558,0,0,0
9545,58215,41465,0,0,0
9484,58136,41344,0,0,0
9413,58042,41200,0,0,0
9333,57938,41036,0,0,0
9247,57825,40855,0,0,0
9155,57703,40660,0,0,0
9057,57576,40459,0,0,0
8952,57442,40253,0,0,0
8846,57306,40046,0,0,0
8741,57170,39840,0,0,0
8636,57035,39634,0,0,0
8529,56900,39423,0,0,0
8419,56759,39202,0,0,0
8307,56611,38975,0,0,0
8191,56459,38743,0,0,0
8068,56301,38506,0,0,0
7939,56144,38264,0,0,0
7813,55991,38024,0,0,0
7690,55842,37790,0,0,0
7571,55696,37562,0,0,0
7459,55561,37349,0,0,0
7359,55443,37161,0,0,0
7273,55344,37000,0,0,0
7205,55262,36872,0,0,0
7158,55203,36781,0,0,0
7132,55170,36731,0,0,0
7127,55166,36723,0,0,0
7140,55186,36748,0,0,0
7170,55231,36804,0,0,0
7218,55297,36888,0,0,0
7279,55377,36995,0,0,0
7355,55468,37123,0,0,0
7443,55569,37270,0,0,0
7538,55676,37435,0,0,0
7634,55788,37610,0,0,0
7730,55899,37788,0,0,0
7824,56012,37967,0,0,0
7913,56125,38143,0,0,0
7998,56234,38310,0,0,0
8077,56334,38464,0,0,0
8150,56425,38601,0,0,0
8215,56506,38721,0,0,0
8268,56574,38819,0,0,0
8309,56624,38896,0,0,0
8339,56662,38953,0,0,0
8359,56688,38994,0,0,0
8370,56700,39013,0,0,0
8371,56696,39010,0,0,0
8361,56680,38988,0,0,0
8337,56655,38951,0,0,0
8303,56620,38899,0,0,0
8264,56575,38831,0,0,0
8219,56520,38750,0,0,0
8169,56458,38657,0,0,0
8116,56391,38554,0,0,0
8059,56318,38445,0,0,0
8000,56244,38330,0,0,0
7938,56171,38209,0,0,0
7871,56095,38084,0,0,0
7802,56014,37957,0,0,0
7732,55928,37830,0,0,0
7660,55839,37699,0,0,0
7584,55746,37565,0,0,0
7507,55649,37429,0,0,0
7428,55554,37293,0,0,0
7352,55460,37155,0,0,0
7279,55370,37017,0,0,0
7208,55282,36881,0,0,0
7139,55196,36746,0,0,0
7071,55110,36610,0,0,0
6999,55019,36472,0,0,0
6925,54926,36333,0,0,0
6853,54834,36197,0,0,0
6784,54743,36066,0,0,0
6718,54654,35937,0,0,0
6654,54570,35813,0,0,0
6593,54491,35693,0,0,0
6533,54414,35574,0,0,0
6471,54338,35457,0,0,0
6411,54266,35346,0,0,0
6352,54198,35242,0,0,0
6294,54130,35148,0,0,0
6242,54067,35063,0,0,0
6197,54013,34990,0,0,0
6162,53967,34927,0,0,0
6132,53927,34871,0,0,0
6104,53892,34819,0,0,0
6076,53864,34772,0,0,0
6054,53840,34732,0,0,0
6035,53818,34696,0,0,0
6017,53798,34663,0,0,0
6000,53780,34633,0,0,0
5983,53764,34608,0,0,0
5966,53749,34582,0,0,0
5950,53736,34556,0,0,0
5936,53728,34532,0,0,0
5925,53721,34508,0,0,0
5917,53713,34488,0,0,0
5911,53704,34470,0,0,0
5905,53694,34454,0,0,0
5899,53685,34439,0,0,0
5891,53671,34421,0,0,0
5881,53654,34402,0,0,0
5873,53640,34386,0,0,0
5864,53627,34373,0,0,0
5854,53614,34360,0,0,0
5842,53602,34346,0,0,0
5824,53588,34324,0,0,0
5799,53569,34289,0,0,0
5770,53540,34242,0,0,0
5737,53503,34186,0,0,0
5701,53461,34123,0,0,0
5662,53414,34056,0,0,0
5618,53361,33980,0,0,0
5566,53301,33896,0,0,0
5514,53241,33808,0,0,0
5464,53183,33721,0,0,0
5417,53126,33638,0,0,0
5373,53071,33557,0,0,0
5334,53016,33479,0,0,0
5296,52962,33404,0,0,0
5259,52912,33337,0,0,0
5230,52875,33289,0,0,0
5219,52863,33273,0,0,0
5231,52883,33300,0,0,0
5275,52947,33388,0,0,0
5361,53062,33551,0,0,0
5491,53231,33793,0,0,0
5667,53451,34114,0,0,0
5885,53717,34511,0,0,0
6137,54025,34979,0,0,0
6416,54368,35505,0,0,0
6713,54733,36070,0,0,0
7019,55106,36651,0,0,0
7328,55482,37236,0,0,0
7632,55854,37812,0,0,0
7921,56209,38366,0,0,0
8190,56540,38883,0,0,0
8435,56842,39359,0,0,0
8651,57108,39786,0,0,0
8839,57338,40159,0,0,0
8999,57534,40475,0,0,0
9128,57695,40732,0,0,0
9227,57821,40931,0,0,0
9297,57914,41077,0,0,0
9343,57976,41173,0,0,0
9370,58010,41226,0,0,0
9378,58019,41239,0,0,0
9365,58002,41211,0,0,0
9335,57961,41142,0,0,0
9288,57899,41039,0,0,0
9227,57819,40908,0,0,0
9154,57721,40752,0,0,0
9075,57612,40577,0,0,0
8988,57497,40387,0,0,0
8894,57374,40184,0,0,0
8792,57242,39970,0,0,0
8685,57105,39750,0,0,0
8577,56966,39531,0,0,0
8469,56828,39314,0,0,0
8362,56690,39097,0,0,0
8255,56550,38882,0,0,0
8146,56408,38666,0,0,0
8032,56261,38444,0,0,0
7913,56108,38215,0,0,0
7789,55951,37982,0,0,0
7662,55796,37746,0,0,0
7535,55644,37512,0,0,0
7413,55496,37281,0,0,0
7295,55354,37056,0,0,0
7184,55222,36847,0,0,0
7084,55102,36659,0,0,0
6998,54998,36498,0,0,0
6929,54916,36369,0,0,0
6883,54860,36275,0,0,0
6859,54824,36217,0,0,0
6852,54808,36194,0,0,0
6862,54817,36208,0,0,0
6889,54853,36260,0,0,0
6932,54910,36343,0,0,0
6990,54983,36450,0,0,0
7063,55072,36578,0,0,0
7146,55173,36725,0,0,0
7236,55283,36887,0,0,0
7331,55399,37062,0,0,0
7429,55518,37241,0,0,0
7526,55638,37418,0,0,0
7623,55757,37591,0,0,0
7719,55874,37760,0,0,0
7813,55985,37921,0,0,0
7901,56087,38068,0,0,0
7976,56174,38197,0,0,0
8036,56244,38305,0,0,0
8081,56298,38394,0,0,0
8112,56341,38462,0,0,0
8132,56371,38509,0,0,0
8146,56389,38536,0,0,0
8149,56393,38545,0,0,0
8136,56382,38533,0,0,0
8109,56356,38503,0,0,0
8073,56319,38457,0,0,0
8032,56272,38393,0,0,0
7987,56215,38312,0,0,0
7939,56155,38218,0,0,0
7886,56093,38118,0,0,0
7829,56027,38014,0,0,0
7770,55957,37903,0,0,0
7705,55881,37782,0,0,0
7633,55796,37651,0,0,0
7559,55704,37514,0,0,0
7482,55604,37372,0,0,0
7401,55496,37220,0,0,0
7317,55384,37061,0,0,0
7229,55268,36895,0,0,0
7135,55148,36721,0,0,0
7036,55021,36539,0,0,0
6937,54892,36355,0,0,0
6837,54766,36171,0,0,0
6738,54641,35987,0,0,0
6638,54514,35804,0,0,0
6540,54391,35624,0,0,0
6448,54274,35448,0,0,0
6360,54160,35276,0,0,0
6276,54051,35112,0,0,0
6198,53949,34959,0,0,0
6122,53854,34817,0,0,0
6046,53763,34682,0,0,0
5974,53678,34552,0,0,0
5905,53599,34429,0,0,0
5841,53526,34312,0,0,0
5783,53458,34206,0,0,0
5731,53397,34111,0,0,0
5686,53343,34026,0,0,0
5646,53295,33949,0,0,0
5605,53249,33877,0,0,0
5567,53208,33812,0,0,0
5539,53175,33757,0,0,0
5520,53149,33713,0,0,0
5507,53127,33672,0,0,0
5497,53109,33636,0,0,0
5486,53094,33607,0,0,0
5473,53078,33582,0,0,0
5460,53064,33559,0,0,0
5448,53056,33541,0,0,0
5438,53054,33529,0,0,0
5429,53053,33519,0,0,0
5424,53054,33513,0,0,0
5421,53055,33511,0,0,0
5417,53056,33512,0,0,0
5411,53055,33511,0,0,0
5400,53048,33504,0,0,0
5386,53035,33493,0,0,0
5372,53020,33479,0,0,0
5358,53003,33459,0,0,0
5342,52982,33432,0,0,0
5326,52960,33403,0,0,0
5308,52937,33371,0,0,0
5287,52911,33333,0,0,0
5264,52880,33290,0,0,0
5237,52843,33241,0,0,0
5203,52802,33181,0,0,0
5166,52756,33111,0,0,0
5124,52706,33034,0,0,0
5079,52652,32951,0,0,0
5033,52596,32865,0,0,0
4982,52534,32774,0,0,0
4932,52468,32680,0,0,0
4884,52402,32589,0,0,0
4836,52337,32503,0,0,0
4791,52277,32422,0,0,0
4753,52225,32351,0,0,0
4719,52185,32295,0,0,0
4694,52160,32263,0,0,0
4688,52158,32266,0,0,0
4712,52192,32319,0,0,0
4773,52272,32436,0,0,0
4876,52405,32626,0,0,0
5021,52590,32893,0,0,0
5207,52828,33240,0,0,0
5435,53117,33665,0,0,0
5701,53450,34161,0,0,0
5995,53815,34709,0,0,0
6309,54204,35295,0,0,0
6631,54604,35900,0,0,0
6949,54999,36505,0,0,0
7257,55380,37097,0,0,0
7550,55739,37660,0,0,0
7825,56072,38181,0,0,0
8076,56375,38651,0,0,0
8297,56644,39067,0,0,0
8486,56877,39431,0,0,0
8643,57073,39738,0,0,0
8768,57230,39987,0,0,0
8862,57348,40178,0,0,0
8930,57435,40316,0,0,0
8974,57493,40405,0,0,0
8994,57521,40448,0,0,0
8995,57521,40448,0,0,0
8979,57494,40407,0,0,0
8945,57444,40330,0,0,0
8894,57374,40220,0,0,0
8828,57286,40081,0,0,0
8749,57184,39920,0,0,0
8663,57074,39744,0,0,0
8571,56955,39556,0,0,0
8470,56827,39358,0,0,0
8365,56695,39156,0,0,0
8256,56559,38951,0,0,0
8146,56421,38742,0,0,0
8039,56285,38532,0,0,0
7932,56148,38321,0,0,0
7821,56007,38106,0,0,0
7709,55862,37885,0,0,0
7594,55715,37660,0,0,0
7478,55566,37429,0,0,0
7358,55415,37191,0,0,0
7233,55260,36948,0,0,0
7105,55104,36706,0,0,0
6976,54949,36470,0,0,0
6852,54800,36244,0,0,0
6736,54661,36032,0,0,0
6638,54537,35845,0,0,0
6558,54435,35691,0,0,0
6493,54355,35570,0,0,0
6445,54296,35482,0,0,0
6417,54262,35431,0,0,0
6410,54256,35418,0,0,0
6426,54274,35440,0,0,0
6462,54315,35494,0,0,0
6514,54376,35578,0,0,0
6579,54457,35690,0,0,0
6656,54550,35824,0,0,0
6742,54652,35976,0,0,0
6838,54767,36145,0,0,0
6940,54893,36328,0,0,0
7045,55025,36517,0,0,0
7151,55160,36705,0,0,0
7254,55294,36891,0,0,0
7349,55417,37072,0,0,0
7434,55528,37239,0,0,0
7512,55627,37392,0,0,0
7583,55714,37527,0,0,0
7642,55789,37638,0,0,0
7690,55851,37727,0,0,0
7724,55895,37793,0,0,0
7742,55922,37837,0,0,0
7750,55933,37858,0,0,0
7747,55928,37857,0,0,0
7735,55907,37835,0,0,0
7716,55877,37799,0,0,0
7687,55839,37746,0,0,0
7648,55793,37678,0,0,0
7605,55737,37596,0,0,0
7554,55672,37500,0,0,0
7497,55597,37391,0,0,0
7436,55516,37272,0,0,0
7373,55431,37147,0,0,0
7310,55345,37019,0,0,0
7245,55257,36888,0,0,0
7175,55165,36750,0,0,0
7099,55074,36609,0,0,0
7018,54984,36468,0,0,0
6936,54891,36327,0,0,0
6857,54794,36184,0,0,0
6785,54700,36041,0,0,0
6715,54610,35900,0,0,0
6645,54519,35758,0,0,0
6575,54424,35619,0,0,0
6503,54331,35481,0,0,0
6432,54244,35345,0,0,0
6362,54158,35211,0,0,0
6293,54071,35078,0,0,0
6226,53986,34947,0,0,0
6161,53906,34823,0,0,0
6097,53828,34703,0,0,0
6034,53752,34586,0,0,0
5975,53678,34475,0,0,0
5914,53604,34369,0,0,0
5855,53531,34266,0,0,0
5802,53460,34165,0,0,0
5752,53392,34069,0,0,0
5705,53331,33981,0,0,0
5659,53276,33899,0,0,0
5616,53226,33822,0,0,0
5578,53183,33752,0,0,0
5546,53147,33689,0,0,0
5516,53113,33630,0,0,0
5489,53083,33577,0,0,0
5465,53057,33534,0,0,0
5441,53034,33497,0,0,0
5418,53017,33464,0,0,0
5398,53003,33436,0,0,0
5377,52988,33410,0,0,0
5358,52974,33386,0,0,0
5340,52961,33364,0,0,0
5323,52949,33344,0,0,0
5309,52938,33326,0,0,0
5299,52926,33309,0,0,0
5287,52907,33289,0,0,0
5272,52885,33265,0,0,0
5259,52863,33239,0,0,0
5248,52844,33214,0,0,0
5238,52824,33189,0,0,0
5230,52804,33163,0,0,0
5221,52781,33134,0,0,0
5206,52756,33100,0,0,0
5186,52729,33065,0,0,0
5160,52701,33027,0,0,0
5133,52670,32984,0,0,0
5104,52634,32932,0,0,0
5067,52589,32871,0,0,0
5024,52537,32803,0,0,0
4978,52482,32727,0,0,0
4931,52424,32645,0,0,0
4882,52363,32556,0,0,0
4832,52300,32465,0,0,0
4783,52241,32378,0,0,0
4736,52186,32294,0,0,0
4690,52132,32213,0,0,0
4650,52086,32143,0,0,0
4619,52052,32094,0,0,0
4600,52033,32071,0,0,0
4603,52039,32086,0,0,0
4635,52083,32152,0,0,0
4702,52174,32282,0,0,0
4811,52316,32485,0,0,0
4963,52512,32766,0,0,0
5159,52758,33126,0,0,0
5396,53053,33562,0,0,0
5669,53390,34064,0,0,0
5966,53757,34616,0,0,0
6280,54145,35200,0,0,0
6600,54541,35799,0,0,0
6914,54931,36395,0,0,0
7218,55304,36970,0,0,0
7508,55655,37517,0,0,0
7776,55983,38027,0,0,0
8017,56279,38491,0,0,0
8231,56543,38903,0,0,0
8415,56771,39261,0,0,0
8566,56961,39561,0,0,0
8689,57116,39803,0,0,0
8785,57239,39993,0,0,0
8858,57332,40132,0,0,0
8906,57392,40223,0,0,0
8928,57419,40265,0,0,0
8927,57414,40264,0,0,0
8906,57383,40224,0,0,0
8867,57330,40150,0,0,0
8811,57260,40045,0,0,0
8741,57173,39913,0,0,0
8661,57072,39759,0,0,0
8573,56957,39587,0,0,0
8480,56833,39401,0,0,0
8384,56703,39205,0,0,0
8285,56570,39002,0,0,0
8181,56436,38793,0,0,0
8073,56300,38579,0,0,0
7962,56163,38364,0,0,0
7852,56025,38149,0,0,0
7740,55885,37930,0,0,0
7625,55741,37703,0,0,0
7506,55593,37468,0,0,0
7381,55441,37227,0,0,0
7252,55283,36979,0,0,0
7122,55122,36726,0,0,0
6993,54960,36475,0,0,0
6868,54799,36231,0,0,0
6746,54642,36000,0,0,0
6635,54497,35787,0,0,0
6537,54370,35601,0,0,0
6451,54262,35444,0,0,0
6385,54178,35320,0,0,0
6341,54117,35232,0,0,0
6315,54081,35178,0,0,0
6312,54073,35160,0,0,0
6328,54091,35174,0,0,0
6360,54129,35221,0,0,0
6411,54189,35300,0,0,0
6479,54269,35410,0,0,0
6557,54365,35544,0,0,0
6645,54474,35698,0,0,0
6743,54596,35871,0,0,0
6846,54725,36058,0,0,0
6950,54856,36250,0,0,0
7054,54983,36444,0,0,0
7153,55106,36632,0,0,0
7244,55222,36808,0,0,0
7327,55329,36971,0,0,0
7400,55427,37119,0,0,0
7466,55517,37251,0,0,0
7524,55597,37364,0,0,0
7571,55658,37453,0,0,0
7603,55697,37515,0,0,0
7625,55718,37552,0,0,0
7636,55724,37568,0,0,0
7638,55718,37564,0,0,0
7630,55702,37543,0,0,0
7614,55678,37509,0,0,0
7590,55646,37462,0,0,0
7557,55606,37402,0,0,0
7516,55560,37329,0,0,0
7471,55506,37245,0,0,0
7423,55445,37149,0,0,0
7374,55379,37045,0,0,0
7322,55307,36934,0,0,0
7263,55228,36814,0,0,0
7198,55146,36686,0,0,0
7125,55059,36552,0,0,0
7046,54966,36413,0,0,0
6966,54871,36271,0,0,0
6884,54775,36126,0,0,0
6803,54677,35978,0,0,0
6723,54579,35830,0,0,0
6643,54483,35686,0,0,0
6564,54391,35543,0,0,0
6489,54301,35401,0,0,0
6417,54215,35262,0,0,0
6345,54130,35126,0,0,0
6277,54048,34993,0,0,0
6213,53969,34863,0,0,0
6154,53895,34739,0,0,0
6099,53824,34624,0,0,0
6043,53755,34512,0,0,0
5987,53686,34405,0,0,0
5936,53621,34307,0,0,0
5889,53561,34215,0,0,0
5839,53500,34125,0,0,0
5789,53439,34039,0,0,0
5741,53379,33959,0,0,0
5693,53320,33883,0,0,0
5646,53263,33810,0,0,0
5602,53211,33743,0,0,0
5561,53163,33680,0,0,0
5526,53120,33620,0,0,0
5498,53081,33565,0,0,0
5475,53045,33517,0,0,0
5458,53013,33476,0,0,0
5442,52988,33439,0,0,0
5427,52969,33403,0,0,0
5412,52954,33372,0,0,0
5401,52945,33346,0,0,0
5391,52938,33326,0,0,0
5380,52933,33310,0,0,0
5371,52932,33300,0,0,0
5361,52934,33294,0,0,0
5349,52934,33286,0,0,0
5339,52932,33277,0,0,0
5335,52926,33267,0,0,0
5332,52918,33257,0,0,0
5329,52908,33247,0,0,0
5324,52897,33233,0,0,0
5314,52884,33215,0,0,0
5304,52869,33194,0,0,0
5293,52851,33167,0,0,0
5279,52829,33131,0,0,0
5261,52805,33089,0,0,0
5240,52777,33044,0,0,0
5213,52742,32991,0,0,0
5182,52703,32933,0,0,0
5148,52659,32871,0,0,0
5112,52613,32805,0,0,0
5078,52568,32738,0,0,0
5042,52526,32672,0,0,0
5002,52482,32604,0,0,0
4958,52433,32534,0,0,0
4911,52381,32464,0,0,0
4864,52330,32400,0,0,0
4825,52289,32349,0,0,0
4797,52264,32313,0,0,0
4782,52255,32296,0,0,0
4791,52269,32312,0,0,0
4831,52320,32380,0,0,0
4907,52416,32512,0,0,0
5026,52564,32719,0,0,0
5190,52768,33008,0,0,0
5398,53026,33379,0,0,0
5645,53331,33829,0,0,0
5923,53671,34344,0,0,0
6224,54038,34904,0,0,0
6536,54421,35491,0,0,0
6851,54809,36089,0,0,0
7162,55189,36678,0,0,0
7462,55556,37245,0,0,0
7743,55902,37781,0,0,0
8000,56218,38277,0,0,0
8230,56502,38726,0,0,0
8434,56757,39127,0,0,0
8611,56977,39474,0,0,0
8759,57161,39764,0,0,0
8881,57312,40002,0,0,0
8976,57432,40189,0,0,0
9044,57517,40327,0,0,0
9085,57568,40417,0,0,0
9098,57590,40462,0,0,0
9088,57583,40463,0,0,0
9061,57552,40422,0,0,0
9021,57496,40343,0,0,0
8968,57420,40232,0,0,0
8905,57329,40097,0,0,0
8831,57225,39938,0,0,0
8743,57108,39760,0,0,0
8648,56983,39569,0,0,0
8551,56859,39372,0,0,0
8451,56732,39170,0,0,0
8350,56600,38963,0,0,0
8249,56465,38752,0,0,0
8145,56328,38535,0,0,0
8036,56187,38311,0,0,0
7924,56041,38079,0,0,0
7809,55893,37844,0,0,0
7692,55745,37611,0,0,0
7573,55596,37376,0,0,0
7448,55444,37136,0,0,0
7318,55286,36893,0,0,0
7188,55126,36653,0,0,0
7059,54968,36418,0,0,0
6934,54814,36195,0,0,0
6820,54674,35991,0,0,0
6721,54551,35812,0,0,0
6639,54448,35660,0,0,0
6576,54367,35537,0,0,0
6533,54310,35450,0,0,0
6510,54278,35398,0,0,0
6507,54270,35380,0,0,0
6521,54283,35395,0,0,0
6551,54319,35443,0,0,0
6597,54380,35522,0,0,0
6657,54459,35630,0,0,0
6730,54553,35760,0,0,0
6814,54659,35911,0,0,0
6904,54770,36076,0,0,0
7000,54885,36249,0,0,0
7099,55004,36426,0,0,0
7197,55123,36602,0,0,0
7288,55239,36776,0,0,0
7375,55346,36945,0,0,0
7456,55444,37106,0,0,0
7531,55532,37251,0,0,0
7597,55609,37377,0,0,0
7648,55671,37480,0,0,0
7686,55721,37559,0,0,0
7715,55760,37616,0,0,0
7733,55785,37654,0,0,0
7738,55795,37667,0,0,0
7733,55790,37656,0,0,0
7718,55771,37625,0,0,0
7692,55738,37577,0,0,0
7657,55693,37514,0,0,0
7620,55643,37439,0,0,0
7576,55586,37354,0,0,0
7523,55520,37259,0,0,0
7464,55447,37157,0,0,0
7403,55371,37050,0,0,0
7343,55293,36935,0,0,0
7280,55212,36815,0,0,0
7212,55128,36688,0,0,0
7140,55042,36555,0,0,0
7068,54956,36418,0,0,0
6996,54869,36279,0,0,0
6923,54780,36137,0,0,0
6850,54692,35995,0,0,0
6778,54603,35855,0,0,0
6706,54514,35716,0,0,0
6634,54421,35578,0,0,0
6562,54326,35443,0,0,0
6491,54235,35313,0,0,0
6421,54147,35186,0,0,0
6353,54059,35055,0,0,0
6286,53974,34923,0,0,0
6221,53893,34795,0,0,0
6157,53815,34670,0,0,0
6097,53740,34548,0,0,0
6041,53673,34434,0,0,0
5984,53612,34329,0,0,0
5929,53552,34230,0,0,0
5875,53492,34135,0,0,0
5825,53434,34044,0,0,0
5778,53378,33958,0,0,0
5732,53322,33875,0,0,0
5684,53266,33796,0,0,0
5639,53215,33724,0,0,0
5600,53168,33661,0,0,0
5563,53124,33600,0,0,0
5529,53086,33543,0,0,0
5502,53055,33492,0,0,0
5479,53029,33446,0,0,0
5457,53002,33403,0,0,0
5436,52976,33364,0,0,0
5417,52951,33328,0,0,0
5397,52927,33294,0,0,0
5376,52903,33262,0,0,0
5357,52882,33233,0,0,0
5340,52864,33206,0,0,0
5322,52845,33179,0,0,0
5304,52821,33152,0,0,0
5286,52798,33125,0,0,0
5272,52778,33101,0,0,0
5261,52763,33080,0,0,0
5249,52751,33062,0,0,0
5239,52742,33044,0,0,0
5229,52734,33025,0,0,0
5214,52722,32998,0,0,0
5193,52701,32962,0,0,0
5171,52674,32920,0,0,0
5150,52641,32874,0,0,0
5128,52606,32823,0,0,0
5103,52568,32766,0,0,0
5075,52528,32705,0,0,0
5044,52486,32643,0,0,0
5010,52442,32581,0,0,0
4971,52396,32517,0,0,0
4931,52352,32452,0,0,0
4892,52309,32389,0,0,0
4860,52269,32331,0,0,0
4833,52234,32281,0,0,0
4814,52212,32249,0,0,0
4805,52208,32244,0,0,0
4810,52228,32274,0,0,0
4842,52280,32355,0,0,0
4911,52376,32499,0,0,0
5024,52522,32715,0,0,0
5182,52722,33010,0,0,0
5384,52975,33385,0,0,0
5626,53279,33834,0,0,0
5901,53620,34343,0,0,0
6196,53980,34892,0,0,0
6500,54351,35468,0,0,0
6809,54728,36057,0,0,0
7114,55103,36642,0,0,0
7408,55463,37206,0,0,0
7684,55800,37735,0,0,0
7938,56110,38221,0,0,0
8165,56388,38657,0,0,0
8363,56633,39043,0,0,0
8535,56844,39378,0,0,0
8681,57022,39662,0,0,0
8803,57167,39894,0,0,0
8896,57281,40073,0,0,0
8961,57367,40201,0,0,0
9001,57427,40283,0,0,0
9021,57456,40320,0,0,0
9022,57457,40314,0,0,0
9006,57434,40270,0,0,0
8972,57389,40194,0,0,0
8924,57323,40090,0,0,0
8862,57239,39964,0,0,0
8790,57142,39820,0,0,0
8709,57032,39655,0,0,0
8619,56908,39469,0,0,0
8524,56777,39267,0,0,0
8424,56642,39059,0,0,0
8318,56505,38848,0,0,0
8206,56362,38633,0,0,0
8086,56215,38410,0,0,0
7965,56067,38183,0,0,0
7845,55919,37955,0,0,0
7725,55768,37724,0,0,0
7601,55613,37487,0,0,0
7476,55455,37246,0,0,0
7348,55295,37001,0,0,0
7222,55131,36755,0,0,0
7095,54967,36512,0,0,0
6970,54810,36275,0,0,0
6851,54663,36049,0,0,0
6743,54529,35840,0,0,0
6651,54412,35654,0,0,0
6577,54317,35501,0,0,0
6520,54249,35386,0,0,0
6478,54207,35308,0,0,0
6454,54191,35264,0,0,0
6452,54201,35260,0,0,0
6471,54235,35290,0,0,0
6507,54285,35348,0,0,0
6558,54348,35433,0,0,0
6622,54429,35544,0,0,0
6696,54526,35679,0,0,0
6779,54635,35830,0,0,0
6871,54752,35993,0,0,0
6968,54872,36165,0,0,0
7064,54989,36339,0,0,0
7156,55095,36508,0,0,0
7244,55191,36671,0,0,0
7328,55279,36823,0,0,0
7403,55357,36961,0,0,0
7466,55424,37083,0,0,0
7515,55479,37184,0,0,0
7550,55520,37261,0,0,0
7569,55543,37309,0,0,0
7575,55553,37330,0,0,0
7570,55551,37329,0,0,0
7556,55540,37314,0,0,0
7533,55517,37282,0,0,0
7504,55482,37231,0,0,0
7469,55437,37164,0,0,0
7424,55382,37082,0,0,0
7370,55316,36985,0,0,0
7310,55237,36869,0,0,0
7239,55144,36736,0,0,0
7157,55037,36582,0,0,0
7067,54916,36408,0,0,0
6967,54782,36215,0,0,0
6861,54640,36009,0,0,0
6750,54499,35800,0,0,0
6637,54359,35589,0,0,0
6526,54224,35380,0,0,0
6423,54100,35184,0,0,0
6328,53987,35006,0,0,0
6238,53884,34838,0,0,0
6158,53789,34680,0,0,0
6086,53701,34536,0,0,0
6021,53619,34405,0,0,0
5963,53543,34286,0,0,0
5910,53472,34179,0,0,0
5859,53403,34079,0,0,0
5806,53334,33981,0,0,0
5751,53264,33879,0,0,0
5694,53195,33775,0,0,0
5639,53129,33673,0,0,0
5587,53066,33575,0,0,0
5535,53004,33479,0,0,0
5481,52944,33386,0,0,0
5430,52887,33296,0,0,0
5383,52832,33213,0,0,0
5341,52780,33135,0,0,0
5306,52736,33062,0,0,0
5275,52702,32997,0,0,0
5247,52674,32939,0,0,0
5218,52647,32884,0,0,0
5190,52621,32835,0,0,0
5166,52593,32793,0,0,0
5143,52563,32757,0,0,0
5122,52536,32727,0,0,0
5103,52513,32702,0,0,0
5088,52493,32678,0,0,0
5075,52475,32656,0,0,0
5063,52459,32635,0,0,0
5052,52446,32616,0,0,0
5043,52435,32597,0,0,0
5036,52423,32577,0,0,0
5028,52409,32556,0,0,0
5020,52395,32536,0,0,0
5011,52381,32515,0,0,0
5001,52366,32493,0,0,0
4992,52350,32470,0,0,0
4985,52336,32445,0,0,0
4974,52320,32418,0,0,0
4956,52297,32390,0,0,0
4931,52268,32358,0,0,0
4901,52234,32320,0,0,0
4867,52198,32276,0,0,0
4834,52160,32227,0,0,0
4803,52121,32176,0,0,0
4770,52082,32121,0,0,0
4734,52044,32061,0,0,0
4699,52006,32000,0,0,0
4668,51971,31943,0,0,0
4641,51938,31892,0,0,0
4615,51907,31838,0,0,0
4590,51876,31784,0,0,0
4569,51847,31738,0,0,0
4556,51829,31715,0,0,0
4558,51830,31721,0,0,0
4582,51858,31764,0,0,0
4635,51922,31858,0,0,0
4721,52030,32017,0,0,0
4846,52185,32248,0,0,0
5010,52389,32553,0,0,0
5215,52642,32932,0,0,0
5455,52940,33379,0,0,0
5724,53271,33878,0,0,0
6016,53627,34418,0,0,0
6320,53998,34980,0,0,0
6622,54368,35546,0,0,0
6915,54727,36103,0,0,0
7196,55068,36639,0,0,0
7460,55388,37145,0,0,0
7703,55685,37611,0,0,0
7924,55950,38034,0,0,0
8114,56177,38403,0,0,0
8276,56370,38715,0,0,0
8412,56534,38975,0,0,0
8522,56667,39184,0,0,0
8606,56769,39341,0,0,0
8664,56844,39453,0,0,0
8696,56892,39523,0,0,0
8707,56913,39550,0,0,0
8700,56911,39539,0,0,0
8677,56885,39491,0,0,0
8637,56835,39408,0,0,0
8585,56766,39299,0,0,0
8526,56685,39168,0,0,0
8460,56595,39021,0,0,0
8386,56497,38859,0,0,0
8301,56386,38679,0,0,0
8206,56263,38486,0,0,0
8109,56138,38288,0,0,0
8012,56015,38092,0,0,0
7916,55891,37894,0,0,0
7816,55765,37694,0,0,0
7712,55637,37491,0,0,0
7602,55503,37283,0,0,0
7490,55365,37068,0,0,0
7379,55222,36849,0,0,0
7264,55074,36621,0,0,0
7140,54921,36387,0,0,0
7013,54768,36151,0,0,0
6889,54615,35922,0,0,0
6773,54470,35700,0,0,0
6667,54340,35494,0,0,0
6571,54227,35309,0,0,0
6489,54131,35153,0,0,0
6424,54053,35028,0,0,0
6380,53995,34934,0,0,0
6355,53959,34872,0,0,0
6347,53949,34846,0,0,0
6355,53964,34856,0,0,0
6378,53997,34899,0,0,0
6414,54046,34970,0,0,0
6462,54111,35065,0,0,0
6524,54191,35180,0,0,0
6595,54279,35312,0,0,0
6676,54376,35460,0,0,0
6765,54483,35622,0,0,0
6856,54594,35794,0,0,0
6945,54705,35968,0,0,0
7035,54815,36140,0,0,0
7124,54924,36306,0,0,0
7211,55026,36459,0,0,0
7293,55119,36598,0,0,0
7366,55199,36719,0,0,0
7423,55267,36820,0,0,0
7466,55322,36902,0,0,0
7498,55365,36966,0,0,0
7522,55395,37012,0,0,0
7540,55416,37042,0,0,0
7547,55424,37051,0,0,0
7540,55415,37040,0,0,0
7519,55391,37011,0,0,0
7493,55359,36971,0,0,0
7462,55322,36922,0,0,0
7422,55276,36859,0,0,0
7377,55221,36780,0,0,0
7328,55161,36692,0,0,0
7277,55098,36597,0,0,0
7224,55031,36491,0,0,0
7169,54958,36377,0,0,0
7113,54881,36259,0,0,0
7055,54802,36138,0,0,0
6995,54722,36014,0,0,0
6931,54643,35890,0,0,0
6863,54565,35766,0,0,0
6794,54485,35643,0,0,0
6730,54407,35521,0,0,0
6671,54333,35399,0,0,0
6613,54263,35278,0,0,0
6554,54191,35159,0,0,0
6494,54117,35041,0,0,0
6435,54045,34925,0,0,0
6378,53977,34813,0,0,0
6322,53909,34703,0,0,0
6262,53838,34591,0,0,0
6198,53765,34481,0,0,0
6135,53692,34374,0,0,0
6072,53618,34272,0,0,0
6014,53547,34175,0,0,0
5962,53484,34083,0,0,0
5912,53423,33995,0,0,0
5865,53361,33906,0,0,0
5824,53303,33818,0,0,0
5785,53248,33733,0,0,0
5746,53196,33657,0,0,0
5710,53147,33589,0,0,0
5677,53101,33525,0,0,0
5647,53061,33464,0,0,0
5618,53026,33405,0,0,0
5588,52991,33345,0,0,0
5560,52957,33286,0,0,0
5537,52932,33237,0,0,0
5516,52911,33196,0,0,0
5495,52888,33155,0,0,0
5473,52862,33115,0,0,0
5452,52841,33079,0,0,0
5432,52824,33049,0,0,0
5414,52810,33023,0,0,0
5402,52799,32999,0,0,0
5394,52793,32978,0,0,0
5386,52786,32958,0,0,0
5376,52775,32937,0,0,0
5364,52761,32917,0,0,0
5348,52742,32895,0,0,0
5329,52721,32866,0,0,0
5309,52697,32830,0,0,0
5291,52672,32789,0,0,0
5271,52645,32746,0,0,0
5249,52614,32700,0,0,0
5224,52578,32651,0,0,0
5198,52541,32600,0,0,0
5172,52505,32550,0,0,0
5146,52471,32499,0,0,0
5122,52440,32447,0,0,0
5100,52413,32401,0,0,0
5081,52391,32365,0,0,0
5065,52374,32340,0,0,0
5058,52370,32337,0,0,0
5071,52388,32369,0,0,0
5107,52440,32446,0,0,0
5173,52531,32578,0,0,0
5277,52665,32774,0,0,0
5421,52846,33040,0,0,0
5604,53071,33377,0,0,0
5821,53337,33777,0,0,0
6065,53638,34229,0,0,0
6334,53969,34725,0,0,0
6619,54317,35252,0,0,0
6907,54670,35793,0,0,0
7192,55018,36335,0,0,0
7466,55354,36865,0,0,0
7725,55670,37370,0,0,0
7970,55964,37842,0,0,0
8198,56236,38277,0,0,0
8404,56481,38668,0,0,0
8582,56694,39006,0,0,0
8730,56873,39288,0,0,0
8848,57020,39518,0,0,0
8941,57137,39703,0,0,0
9014,57224,39844,0,0,0
9063,57278,39938,0,0,0
9090,57305,39985,0,0,0
9096,57310,39989,0,0,0
9084,57295,39955,0,0,0
9059,57260,39889,0,0,0
9025,57206,39798,0,0,0
8978,57136,39682,0,0,0
8918,57049,39543,0,0,0
8845,56948,39382,0,0,0
8764,56840,39205,0,0,0
8677,56726,39015,0,0,0
8584,56604,38815,0,0,0
8486,56476,38611,0,0,0
8385,56344,38407,0,0,0
8285,56210,38200,0,0,0
8179,56072,37987,0,0,0
8063,55927,37764,0,0,0
7940,55778,37535,0,0,0
7813,55628,37304,0,0,0
7680,55474,37067,0,0,0
7545,55316,36822,0,0,0
7415,55157,36578,0,0,0
7289,55000,36339,0,0,0
7167,54842,36106,0,0,0
7052,54692,35887,0,0,0
6946,54557,35688,0,0,0
6857,54445,35515,0,0,0
6788,54358,35373,0,0,0
6739,54297,35268,0,0,0
6713,54263,35202,0,0,0
6707,54257,35175,0,0,0
6718,54273,35185,0,0,0
6743,54310,35227,0,0,0
6788,54365,35301,0,0,0
6851,54437,35404,0,0,0
6927,54525,35531,0,0,0
7014,54627,35678,0,0,0
7105,54738,35840,0,0,0
7196,54852,36010,0,0,0
7286,54965,36184,0,0,0
7381,55080,36365,0,0,0
7476,55197,36546,0,0,0
7566,55310,36719,0,0,0
7649,55414,36880,0,0,0
7722,55507,37026,0,0,0
7786,55591,37155,0,0,0
7843,55663,37267,0,0,0
7892,55722,37360,0,0,0
7931,55768,37434,0,0,0
7961,55802,37491,0,0,0
7979,55821,37528,0,0,0
7986,55826,37543,0,0,0
7985,55821,37538,0,0,0
7977,55805,37516,0,0,0
7962,55779,37475,0,0,0
7942,55745,37420,0,0,0
7918,55705,37357,0,0,0
7887,55658,37287,0,0,0
7847,55607,37207,0,0,0
7796,55548,37115,0,0,0
7738,55484,37012,0,0,0
7678,55418,36904,0,0,0
7619,55350,36791,0,0,0
7558,55277,36675,0,0,0
7498,55204,36557,0,0,0
7438,55130,36439,0,0,0
7375,55052,36317,0,0,0
7308,54969,36193,0,0,0
7241,54883,36070,0,0,0
7176,54799,35948,0,0,0
7114,54715,35828,0,0,0
7054,54634,35708,0,0,0
6992,54553,35588,0,0,0
6929,54470,35469,0,0,0
6864,54388,35350,0,0,0
6802,54309,35235,0,0,0
6745,54238,35123,0,0,0
6691,54173,35012,0,0,0
6637,54111,34902,0,0,0
6581,54049,34794,0,0,0
6529,53992,34692,0,0,0
6482,53943,34601,0,0,0
6440,53900,34520,0,0,0
6402,53860,34451,0,0,0
6364,53819,34389,0,0,0
6325,53776,34330,0,0,0
6290,53732,34274,0,0,0
6262,53690,34221,0,0,0
6240,53654,34173,0,0,0
6220,53623,34125,0,0,0
6202,53597,34081,0,0,0
6187,53576,34044,0,0,0
6174,53559,34012,0,0,0
6164,53545,33982,0,0,0
6158,53532,33956,0,0,0
6151,53520,33935,0,0,0
6139,53509,33917,0,0,0
6125,53495,33899,0,0,0
6112,53478,33879,0,0,0
6100,53458,33858,0,0,0
6091,53439,33839,0,0,0
6082,53423,33824,0,0,0
6071,53408,33810,0,0,0
6059,53397,33799,0,0,0
6045,53388,33787,0,0,0
6028,53375,33766,0,0,0
6009,53359,33738,0,0,0
5988,53341,33706,0,0,0
5965,53320,33670,0,0,0
5940,53296,33632,0,0,0
5915,53272,33590,0,0,0
5891,53244,33543,0,0,0
5868,53215,33492,0,0,0
5845,53185,33440,0,0,0
5821,53156,33389,0,0,0
5798,53128,33341,0,0,0
5775,53101,33294,0,0,0
5753,53075,33250,0,0,0
5736,53055,33216,0,0,0
5726,53044,33201,0,0,0
5725,53045,33211,0,0,0
5740,53065,33252,0,0,0
5781,53115,33338,0,0,0
5855,53205,33483,0,0,0
5966,53342,33696,0,0,0
6114,53528,33980,0,0,0
6301,53761,34332,0,0,0
6527,54039,34748,0,0,0
6782,54355,35221,0,0,0
7057,54695,35738,0,0,0
7345,55050,36281,0,0,0
7638,55409,36834,0,0,0
7926,55760,37383,0,0,0
8204,56100,37916,0,0,0
8467,56425,38429,0,0,0
8714,56731,38914,0,0,0
8942,57012,39360,0,0,0
9149,57266,39760,0,0,0
9331,57489,40112,0,0,0
9489,57680,40413,0,0,0
9620,57838,40658,0,0,0
9726,57964,40853,0,0,0
9808,58061,41001,0,0,0
9867,58130,41102,0,0,0
9907,58173,41159,0,0,0
9927,58192,41175,0,0,0
9926,58185,41154,0,0,0
9904,58154,41097,0,0,0
9866,58102,41010,0,0,0
9816,58032,40894,0,0,0
9756,57949,40758,0,0,0
9684,57856,40607,0,0,0
9603,57756,40442,0,0,0
9518,57649,40265,0,0,0
9435,57540,40084,0,0,0
9352,57428,39899,0,0,0
9266,57310,39707,0,0,0
9174,57190,39510,0,0,0
9081,57071,39313,0,0,0
8986,56952,39116,0,0,0
8888,56827,38917,0,0,0
8789,56696,38718,0,0,0
8686,56560,38516,0,0,0
8579,56418,38308,0,0,0
8469,56276,38095,0,0,0
8363,56137,37885,0,0,0
8260,56003,37679,0,0,0
8161,55875,37481,0,0,0
8067,55757,37300,0,0,0
7984,55652,37139,0,0,0
7918,55567,37005,0,0,0
7868,55503,36901,0,0,0
7835,55461,36830,0,0,0
7817,55446,36796,0,0,0
7816,55454,36797,0,0,0
7830,55482,36827,0,0,0
7860,55529,36886,0,0,0
7906,55590,36971,0,0,0
7964,55663,37075,0,0,0
8031,55747,37194,0,0,0
8104,55833,37323,0,0,0
8180,55921,37460,0,0,0
8260,56011,37607,0,0,0
8343,56105,37759,0,0,0
8425,56199,37912,0,0,0
8505,56292,38059,0,0,0
8582,56388,38203,0,0,0
8654,56479,38340,0,0,0
8720,56564,38468,0,0,0
8780,56641,38585,0,0,0
8829,56707,38690,0,0,0
8866,56759,38776,0,0,0
8891,56796,38839,0,0,0
8906,56819,38880,0,0,0
8911,56827,38900,0,0,0
8910,56823,38899,0,0,0
8903,56804,38879,0,0,0
8884,56772,38839,0,0,0
8855,56729,38779,0,0,0
8817,56679,38704,0,0,0
8774,56626,38623,0,0,0
8730,56573,38534,0,0,0
8681,56518,38437,0,0,0
8629,56458,38331,0,0,0
8576,56396,38220,0,0,0
8527,56332,38107,0,0,0
8479,56266,37995,0,0,0
8426,56195,37878,0,0,0
8367,56120,37755,0,0,0
8302,56041,37627,0,0,0
8234,55957,37497,0,0,0
8165,55868,37365,0,0,0
8098,55775,37231,0,0,0
8030,55681,37098,0,0,0
7963,55589,36968,0,0,0
7895,55500,36841,0,0,0
7829,55418,36720,0,0,0
7764,55343,36603,0,0,0
7701,55272,36489,0,0,0
7639,55203,36377,0,0,0
7582,55137,36270,0,0,0
7530,55075,36168,0,0,0
7482,55011,36067,0,0,0
7431,54944,35968,0,0,0
7379,54880,35872,0,0,0
7328,54822,35783,0,0,0
7281,54767,35696,0,0,0
7237,54713,35613,0,0,0
7196,54661,35537,0,0,0
7155,54607,35466,0,0,0
7116,54557,35399,0,0,0
7081,54513,35340,0,0,0
7051,54477,35288,0,0,0
7023,54447,35240,0,0,0
6999,54423,35196,0,0,0
6980,54404,35161,0,0,0
6964,54388,35133,0,0,0
6950,54374,35108,0,0,0
6934,54358,35081,0,0,0
6915,54342,35053,0,0,0
6898,54327,35028,0,0,0
6885,54314,35004,0,0,0
6874,54301,34979,0,0,0
6864,54288,34951,0,0,0
6853,54278,34926,0,0,0
6839,54266,34902,0,0,0
6825,54250,34879,0,0,0
6816,54233,34856,0,0,0
6810,54214,34834,0,0,0
6803,54192,34811,0,0,0
6791,54164,34784,0,0,0
6772,54132,34755,0,0,0
6750,54098,34718,0,0,0
6725,54062,34675,0,0,0
6697,54027,34629,0,0,0
6666,53994,34582,0,0,0
6635,53963,34533,0,0,0
6602,53930,34482,0,0,0
6567,53893,34427,0,0,0
6531,53856,34373,0,0,0
6497,53822,34323,0,0,0
6465,53790,34278,0,0,0
6435,53762,34239,0,0,0
6413,53741,34212,0,0,0
6402,53735,34205,0,0,0
6408,53748,34226,0,0,0
6439,53788,34285,0,0,0
6502,53866,34396,0,0,0
6599,53984,34566,0,0,0
6730,54144,34801,0,0,0
6897,54347,35105,0,0,0
7095,54593,35475,0,0,0
7318,54875,35901,0,0,0
7563,55185,36370,0,0,0
7825,55512,36872,0,0,0
8096,55850,37390,0,0,0
8368,56190,37906,0,0,0
8634,56521,38412,0,0,0
8888,56833,38901,0,0,0
9124,57126,39364,0,0,0
9339,57395,39790,0,0,0
9531,57635,40168,0,0,0
9702,57845,40500,0,0,0
9856,58027,40790,0,0,0
9991,58181,41037,0,0,0
10101,58303,41234,0,0,0
10182,58394,41380,0,0,0
10239,58457,41480,0,0,0
10271,58494,41537,0,0,0
10281,58508,41554,0,0,0
10276,58501,41533,0,0,0
10256,58472,41479,0,0,0
10218,58422,41392,0,0,0
10166,58355,41277,0,0,0
10107,58274,41142,0,0,0
10043,58180,40990,0,0,0
9973,58075,40822,0,0,0
9896,57962,40642,0,0,0
9815,57846,40455,0,0,0
9729,57727,40263,0,0,0
9638,57604,40065,0,0,0
9544,57480,39864,0,0,0
9448,57354,39665,0,0,0
9351,57227,39469,0,0,0
9251,57099,39271,0,0,0
9144,56965,39064,0,0,0
9030,56827,38849,0,0,0
8915,56687,38632,0,0,0
8799,56544,38412,0,0,0
8682,56401,38190,0,0,0
8570,56263,37976,0,0,0
8463,56133,37772,0,0,0
8365,56013,37580,0,0,0
8282,55907,37411,0,0,0
8217,55820,37271,0,0,0
8165,55750,37161,0,0,0
8127,55699,37083,0,0,0
8105,55671,37036,0,0,0
8098,55663,37022,0,0,0
8107,55674,37041,0,0,0
8133,55704,37090,0,0,0
8177,55754,37168,0,0,0
8236,55821,37269,0,0,0
8306,55901,37389,0,0,0
8379,55990,37522,0,0,0
8455,56085,37664,0,0,0
8533,56185,37812,0,0,0
8613,56287,37964,0,0,0
8691,56386,38115,0,0,0
8767,56481,38260,0,0,0
8839,56576,38398,0,0,0
8905,56666,38529,0,0,0
8962,56746,38647,0,0,0
9010,56814,38747,0,0,0
9050,56869,38831,0,0,0
9081,56909,38897,0,0,0
9103,56935,38941,0,0,0
9117,56946,38962,0,0,0
9122,56944,38963,0,0,0
9116,56930,38949,0,0,0
9101,56906,38919,0,0,0
9078,56875,38874,0,0,0
9046,56837,38815,0,0,0
9006,56790,38742,0,0,0
8963,56734,38656,0,0,0
8918,56669,38559,0,0,0
8867,56597,38449,0,0,0
8811,56519,38329,0,0,0
8745,56434,38201,0,0,0
8673,56343,38065,0,0,0
8597,56252,37930,0,0,0
8519,56159,37793,0,0,0
8438,56065,37653,0,0,0
8358,55972,37510,0,0,0
8278,55878,37363,0,0,0
8198,55781,37212,0,0,0
8119,55681,37062,0,0,0
8042,55584,36918,0,0,0
7970,55489,36780,0,0,0
7903,55398,36643,0,0,0
7840,55312,36508,0,0,0
7777,55228,36375,0,0,0
7712,55139,36243,0,0,0
7642,55047,36111,0,0,0
7571,54955,35982,0,0,0
7501,54870,35857,0,0,0
7434,54790,35734,0,0,0
7367,54710,35613,0,0,0
7300,54630,35495,0,0,0
7235,54556,35386,0,0,0
7174,54491,35284,0,0,0
7121,54433,35191,0,0,0
7076,54380,35106,0,0,0
7036,54329,35029,0,0,0
6998,54278,34958,0,0,0
6962,54229,34891,0,0,0
6928,54186,34829,0,0,0
6895,54147,34770,0,0,0
6864,54112,34717,0,0,0
6835,54081,34671,0,0,0
6809,54055,34630,0,0,0
6788,54034,34591,0,0,0
6770,54013,34557,0,0,0
6753,53992,34527,0,0,0
6734,53972,34497,0,0,0
6718,53955,34468,0,0,0
6703,53938,34439,0,0,0
6690,53922,34413,0,0,0
6681,53909,34393,0,0,0
6673,53902,34378,0,0,0
6666,53899,34365,0,0,0
6659,53900,34353,0,0,0
6651,53902,34343,0,0,0
6641,53900,34332,0,0,0
6630,53891,34315,0,0,0
6615,53875,34289,0,0,0
6595,53855,34256,0,0,0
6572,53828,34219,0,0,0
6547,53795,34176,0,0,0
6520,53755,34125,0,0,0
6492,53716,34068,0,0,0
6462,53677,34008,0,0,0
6431,53636,33944,0,0,0
6399,53594,33879,0,0,0
6364,53551,33813,0,0,0
6323,53503,33750,0,0,0
6281,53454,33690,0,0,0
6240,53409,33635,0,0,0
6204,53375,33589,0,0,0
6175,53351,33552,0,0,0
6158,53341,33531,0,0,0
6159,53349,33542,0,0,0
6188,53388,33598,0,0,0
6247,53466,33712,0,0,0
6341,53586,33886,0,0,0
6473,53754,34129,0,0,0
6644,53966,34443,0,0,0
6848,54219,34822,0,0,0
7083,54507,35256,0,0,0
7344,54822,35733,0,0,0
7618,55151,36240,0,0,0
7894,55485,36764,0,0,0
8169,55818,37295,0,0,0
8438,56145,37818,0,0,0
8695,56460,38320,0,0,0
8935,56756,38791,0,0,0
9154,57025,39220,0,0,0
9352,57266,39607,0,0,0
9530,57483,39951,0,0,0
9684,57672,40252,0,0,0
9812,57829,40503,0,0,0
9914,57955,40702,0,0,0
9992,58050,40851,0,0,0
10043,58113,40948,0,0,0
10070,58148,40999,0,0,0
10081,58158,41013,0,0,0
10076,58145,40989,0,0,0
10056,58111,40926,0,0,0
10022,58058,40832,0,0,0
9972,57990,40713,0,0,0
9907,57904,40574,0,0,0
9832,57804,40414,0,0,0
9752,57692,40239,0,0,0
9664,57571,40052,0,0,0
9571,57445,39856,0,0,0
9473,57315,39655,0,0,0
9373,57183,39457,0,0,0
9274,57055,39266,0,0,0
9180,56929,39078,0,0,0
9085,56802,38889,0,0,0
8985,56672,38694,0,0,0
8881,56543,38496,0,0,0
8778,56415,38295,0,0,0
8675,56286,38090,0,0,0
8570,56156,37881,0,0,0
8462,56024,37671,0,0,0
8352,55888,37464,0,0,0
8246,55754,37267,0,0,0
8149,55633,37085,0,0,0
8065,55529,36926,0,0,0
7997,55441,36792,0,0,0
7945,55372,36686,0,0,0
7911,55325,36611,0,0,0
7896,55304,36567,0,0,0
7897,55307,36555,0,0,0
7913,55329,36571,0,0,0
7943,55367,36612,0,0,0
7985,55418,36676,0,0,0
8037,55478,36760,0,0,0
8093,55543,36861,0,0,0
8152,55616,36976,0,0,0
8216,55698,37103,0,0,0
8282,55784,37239,0,0,0
8350,55872,37381,0,0,0
8425,55966,37529,0,0,0
8501,56061,37674,0,0,0
8574,56151,37811,0,0,0
8647,56234,37937,0,0,0
8716,56310,38050,0,0,0
8778,56380,38149,0,0,0
8830,56443,38236,0,0,0
8874,56497,38312,0,0,0
8909,56541,38372,0,0,0
8937,56574,38415,0,0,0
8952,56595,38442,0,0,0
8957,56602,38455,0,0,0
8954,56599,38455,0,0,0
8946,56584,38440,0,0,0
8930,56556,38405,0,0,0
8906,56517,38353,0,0,0
8873,56469,38289,0,0,0
8832,56412,38213,0,0,0
8784,56348,38125,0,0,0
8735,56281,38031,0,0,0
8683,56214,37933,0,0,0
8626,56144,37826,0,0,0
8566,56069,37710,0,0,0
8505,55995,37587,0,0,0
8446,55921,37465,0,0,0
8386,55847,37344,0,0,0
8326,55771,37225,0,0,0
8266,55695,37108,0,0,0
8209,55624,36996,0,0,0
8153,55558,36887,0,0,0
8098,55491,36779,0,0,0
8044,55425,36673,0,0,0
7989,55361,36566,0,0,0
7933,55296,36458,0,0,0
7878,55230,36351,0,0,0
7826,55167,36249,0,0,0
7773,55108,36152,0,0,0
7721,55049,36057,0,0,0
7670,54992,35963,0,0,0
7619,54936,35874,0,0,0
7572,54882,35793,0,0,0
7529,54825,35716,0,0,0
7489,54767,35642,0,0,0
7455,54712,35571,0,0,0
7423,54663,35503,0,0,0
7392,54618,35436,0,0,0
7362,54577,35374,0,0,0
7334,54538,35317,0,0,0
7307,54501,35264,0,0,0
7281,54466,35216,0,0,0
7257,54433,35173,0,0,0
7235,54403,35132,0,0,0
7215,54376,35091,0,0,0
7195,54348,35049,0,0,0
7176,54321,35008,0,0,0
7160,54297,34973,0,0,0
7147,54278,34941,0,0,0
7135,54260,34911,0,0,0
7122,54244,34886,0,0,0
7109,54231,34868,0,0,0
7095,54220,34852,0,0,0
7083,54210,34837,0,0,0
7073,54203,34825,0,0,0
7066,54197,34814,0,0,0
7059,54190,34799,0,0,0
7049,54180,34780,0,0,0
7037,54169,34755,0,0,0
7021,54157,34730,0,0,0
7007,54143,34703,0,0,0
6992,54125,34672,0,0,0
6976,54107,34639,0,0,0
6962,54089,34607,0,0,0
6946,54066,34573,0,0,0
6924,54034,34534,0,0,0
6897,53996,34489,0,0,0
6865,53955,34437,0,0,0
6827,53909,34373,0,0,0
6786,53859,34303,0,0,0
6745,53810,34233,0,0,0
6702,53759,34159,0,0,0
6657,53702,34079,0,0,0
6613,53642,33995,0,0,0
6572,53579,33909,0,0,0
6531,53516,33822,0,0,0
6488,53455,33738,0,0,0
6443,53399,33659,0,0,0
6402,53350,33590,0,0,0
6372,53316,33540,0,0,0
6362,53304,33518,0,0,0
6376,53326,33536,0,0,0
6422,53388,33609,0,0,0
6505,53495,33748,0,0,0
6624,53644,33954,0,0,0
6781,53839,34233,0,0,0
6975,54080,34590,0,0,0
7201,54359,35016,0,0,0
7454,54669,35492,0,0,0
7727,55005,36008,0,0,0
8011,55358,36550,0,0,0
8295,55716,37101,0,0,0
8574,56064,37644,0,0,0
8842,56398,38170,0,0,0
9094,56714,38668,0,0,0
9327,57007,39130,0,0,0
9539,57268,39547,0,0,0
9726,57499,39917,0,0,0
9889,57701,40240,0,0,0
10028,57871,40512,0,0,0
10143,58007,40731,0,0,0
10236,58111,40900,0,0,0
10310,58190,41027,0,0,0
10364,58242,41111,0,0,0
10396,58270,41153,0,0,0
10406,58276,41155,0,0,0
10397,58260,41120,0,0,0
10369,58223,41055,0,0,0
10328,58172,40964,0,0,0
10278,58109,40855,0,0,0
10222,58038,40726,0,0,0
10160,57959,40579,0,0,0
10089,57865,40417,0,0,0
10009,57755,40242,0,0,0
9925,57638,40058,0,0,0
9837,57513,39865,0,0,0
9744,57383,39665,0,0,0
9652,57253,39466,0,0,0
9559,57125,39272,0,0,0
9462,56998,39077,0,0,0
9359,56869,38879,0,0,0
9252,56738,38676,0,0,0
9141,56599,38468,0,0,0
9028,56454,38252,0,0,0
8914,56307,38032,0,0,0
8801,56161,37812,0,0,0
8693,56020,37597,0,0,0
8597,55892,37399,0,0,0
8515,55782,37225,0,0,0
8448,55693,37079,0,0,0
8398,55624,36962,0,0,0
8362,55575,36877,0,0,0
8338,55548,36826,0,0,0
8334,55547,36810,0,0,0
8350,55570,36827,0,0,0
8380,55612,36873,0,0,0
8420,55667,36945,0,0,0
8468,55735,37042,0,0,0
8524,55810,37159,0,0,0
8588,55891,37289,0,0,0
8659,55979,37429,0,0,0
8734,56071,37578,0,0,0
8812,56164,37730,0,0,0
8890,56254,37880,0,0,0
8967,56342,38024,0,0,0
9039,56428,38159,0,0,0
9106,56509,38283,0,0,0
9165,56580,38395,0,0,0
9217,56637,38490,0,0,0
9258,56684,38570,0,0,0
9290,56722,38631,0,0,0
9310,56747,38670,0,0,0
9319,56763,38690,0,0,0
9322,56772,38694,0,0,0
9320,56771,38681,0,0,0
9312,56759,38651,0,0,0
9296,56738,38609,0,0,0
9271,56706,38557,0,0,0
9243,56666,38495,0,0,0
9215,56620,38423,0,0,0
9181,56569,38341,0,0,0
9140,56513,38251,0,0,0
9096,56453,38155,0,0,0
9051,56391,38059,0,0,0
9000,56323,37959,0,0,0
8946,56247,37852,0,0,0
8888,56168,37738,0,0,0
8828,56087,37619,0,0,0
8766,56007,37499,0,0,0
8705,55928,37378,0,0,0
8643,55847,37256,0,0,0
8579,55765,37134,0,0,0
8515,55687,37015,0,0,0
8452,55613,36900,0,0,0
8391,55544,36786,0,0,0
8338,55482,36677,0,0,0
8287,55424,36573,0,0,0
8235,55365,36472,0,0,0
8183,55305,36374,0,0,0
8136,55248,36281,0,0,0
8091,55193,36190,0,0,0
8048,55138,36101,0,0,0
8004,55085,36013,0,0,0
7957,55034,35928,0,0,0
7910,54988,35850,0,0,0
7864,54943,35777,0,0,0
7821,54898,35708,0,0,0
7782,54856,35647,0,0,0
7751,54817,35589,0,0,0
7726,54782,35532,0,0,0
7700,54749,35478,0,0,0
7677,54722,35428,0,0,0
7661,54701,35389,0,0,0
7649,54682,35355,0,0,0
7639,54662,35324,0,0,0
7632,54645,35301,0,0,0
7622,54631,35286,0,0,0
7609,54615,35273,0,0,0
7597,54599,35260,0,0,0
7588,54587,35250,0,0,0
7579,54581,35241,0,0,0
7573,54578,35236,0,0,0
7569,54573,35235,0,0,0
7564,54565,35233,0,0,0
7557,54554,35226,0,0,0
7552,54542,35213,0,0,0
7551,54529,35202,0,0,0
7554,54520,35192,0,0,0
7558,54515,35182,0,0,0
7557,54508,35169,0,0,0
7552,54498,35152,0,0,0
7542,54490,35135,0,0,0
7528,54483,35116,0,0,0
7512,54472,35089,0,0,0
7495,54455,35053,0,0,0
7475,54433,35012,0,0,0
7449,54404,34966,0,0,0
7418,54367,34914,0,0,0
7383,54321,34856,0,0,0
7345,54269,34788,0,0,0
7304,54211,34709,0,0,0
7259,54148,34624,0,0,0
7212,54086,34534,0,0,0
7164,54021,34441,0,0,0
7115,53954,34344,0,0,0
7063,53887,34248,0,0,0
7008,53822,34154,0,0,0
6953,53761,34065,0,0,0
6899,53704,33981,0,0,0
6851,53651,33903,0,0,0
6811,53605,33838,0,0,0
6785,53574,33794,0,0,0
6778,53564,33780,0,0,0
6796,53586,33807,0,0,0
6845,53648,33891,0,0,0
6930,53759,34044,0,0,0
7053,53917,34269,0,0,0
7219,54125,34571,0,0,0
7425,54380,34947,0,0,0
7664,54676,35389,0,0,0
7928,55004,35885,0,0,0
8209,55354,36420,0,0,0
8497,55713,36975,0,0,0
8786,56074,37532,0,0,0
9068,56427,38078,0,0,0
9337,56765,38600,0,0,0
9592,57086,39094,0,0,0
9829,57386,39557,0,0,0
10045,57658,39980,0,0,0
10238,57899,40359,0,0,0
10406,58106,40693,0,0,0
10548,58278,40980,0,0,0
10669,58421,41216,0,0,0
10769,58539,41401,0,0,0
10851,58633,41538,0,0,0
10913,58700,41628,0,0,0
10949,58736,41675,0,0,0
10962,58740,41679,0,0,0
10958,58721,41649,0,0,0
10938,58686,41592,0,0,0
10905,58637,41510,0,0,0
10862,58576,41404,0,0,0
10807,58501,41281,0,0,0
10741,58415,41139,0,0,0
10671,58319,40983,0,0,0
10596,58215,40818,0,0,0
10517,58105,40646,0,0,0
10434,57990,40466,0,0,0
10349,57873,40283,0,0,0
10265,57753,40102,0,0,0
10181,57633,39922,0,0,0
10093,57513,39739,0,0,0
9999,57390,39545,0,0,0
9901,57264,39343,0,0,0
9799,57137,39137,0,0,0
9691,57004,38927,0,0,0
9581,56867,38714,0,0,0
9470,56733,38504,0,0,0
9360,56607,38296,0,0,0
9257,56487,38099,0,0,0
9166,56372,37925,0,0,0
9086,56268,37775,0,0,0
9021,56181,37651,0,0,0
8973,56115,37558,0,0,0
8944,56070,37500,0,0,0
8933,56046,37472,0,0,0
8938,56044,37469,0,0,0
8953,56059,37489,0,0,0
8980,56090,37535,0,0,0
9023,56138,37607,0,0,0
9079,56198,37702,0,0,0
9142,56264,37809,0,0,0
9206,56333,37921,0,0,0
9270,56403,38039,0,0,0
9333,56476,38162,0,0,0
9398,56554,38288,0,0,0
9468,56638,38415,0,0,0
9539,56725,38538,0,0,0
9606,56807,38652,0,0,0
9664,56880,38758,0,0,0
9715,56942,38854,0,0,0
9758,56994,38938,0,0,0
9792,57037,39007,0,0,0
9817,57068,39060,0,0,0
9832,57088,39098,0,0,0
9840,57098,39120,0,0,0
9841,57097,39121,0,0,0
9836,57085,39105,0,0,0
9827,57064,39076,0,0,0
9813,57038,39036,0,0,0
9794,57008,38985,0,0,0
9770,56973,38921,0,0,0
9739,56934,38848,0,0,0
9698,56893,38771,0,0,0
9653,56846,38687,0,0,0
9609,56793,38595,0,0,0
9566,56734,38500,0,0,0
9520,56671,38399,0,0,0
9470,56605,38295,0,0,0
9418,56537,38188,0,0,0
9363,56467,38077,0,0,0
9308,56398,37967,0,0,0
9250,56328,37854,0,0,0
9189,56253,37738,0,0,0
9130,56177,37623,0,0,0
9071,56102,37507,0,0,0
9013,56028,37390,0,0,0
8958,55955,37277,0,0,0
8903,55882,37167,0,0,0
8847,55810,37061,0,0,0
8795,55739,36958,0,0,0
8748,55669,36859,0,0,0
8703,55604,36763,0,0,0
8658,55543,36667,0,0,0
8612,55482,36569,0,0,0
8561,55420,36469,0,0,0
8511,55362,36375,0,0,0
8465,55306,36289,0,0,0
8421,55255,36209,0,0,0
8381,55207,36132,0,0,0
8342,55162,36059,0,0,0
8304,55121,35990,0,0,0
8269,55085,35929,0,0,0
8240,55055,35877,0,0,0
8214,55027,35832,0,0,0
8192,54999,35791,0,0,0
8173,54972,35755,0,0,0
8159,54950,35727,0,0,0
8148,54932,35705,0,0,0
8137,54917,35683,0,0,0
8125,54902,35659,0,0,0
8111,54888,35634,0,0,0
8097,54871,35613,0,0,0
8084,54853,35594,0,0,0
8072,54834,35577,0,0,0
8063,54814,35559,0,0,0
8055,54799,35544,0,0,0
8045,54787,35534,0,0,0
8034,54777,35526,0,0,0
8022,54767,35519,0,0,0
8012,54759,35510,0,0,0
8003,54752,35497,0,0,0
7995,54744,35482,0,0,0
7990,54738,35466,0,0,0
7985,54732,35449,0,0,0
7975,54722,35432,0,0,0
7962,54709,35410,0,0,0
7946,54691,35380,0,0,0
7926,54669,35348,0,0,0
7904,54642,35312,0,0,0
7879,54613,35270,0,0,0
7855,54583,35225,0,0,0
7830,54549,35174,0,0,0
7800,54509,35112,0,0,0
7765,54462,35040,0,0,0
7726,54409,34965,0,0,0
7682,54352,34889,0,0,0
7634,54293,34810,0,0,0
7585,54231,34728,0,0,0
7535,54169,34643,0,0,0
7482,54105,34552,0,0,0
7428,54040,34457,0,0,0
7376,53976,34361,0,0,0
7329,53914,34264,0,0,0
7286,53855,34168,0,0,0
7243,53797,34080,0,0,0
7203,53747,34004,0,0,0
7174,53713,33951,0,0,0
7165,53703,33930,0,0,0
7181,53722,33953,0,0,0
7228,53782,34034,0,0,0
7311,53885,34184,0,0,0
7434,54036,34412,0,0,0
7600,54236,34719,0,0,0
7804,54487,35102,0,0,0
8041,54782,35550,0,0,0
8304,55109,36050,0,0,0
8585,55456,36586,0,0,0
8873,55817,37144,0,0,0
9163,56184,37712,0,0,0
9449,56543,38274,0,0,0
9727,56891,38817,0,0,0
9994,57223,39337,0,0,0
10245,57533,39824,0,0,0
10475,57815,40269,0,0,0
10682,58070,40668,0,0,0
10861,58296,41015,0,0,0
11012,58488,41306,0,0,0
11138,58643,41541,0,0,0
11242,58764,41721,0,0,0
11322,58857,41856,0,0,0
11379,58920,41949,0,0,0
11412,58955,41997,0,0,0
11426,58963,42001,0,0,0
11425,58951,41973,0,0,0
11410,58921,41916,0,0,0
11384,58876,41832,0,0,0
11352,58817,41728,0,0,0
11308,58743,41608,0,0,0
11251,58657,41473,0,0,0
11183,58559,41326,0,0,0
11109,58453,41168,0,0,0
11031,58346,41000,0,0,0
10951,58240,40826,0,0,0
10870,58134,40649,0,0,0
10789,58025,40471,0,0,0
10705,57913,40295,0,0,0
10617,57795,40117,0,0,0
10526,57675,39933,0,0,0
10433,57553,39744,0,0,0
10339,57430,39549,0,0,0
10243,57303,39347,0,0,0
10144,57173,39138,0,0,0
10044,57043,38926,0,0,0
9945,56916,38723,0,0,0
9852,56796,38535,0,0,0
9767,56686,38365,0,0,0
9695,56592,38218,0,0,0
9635,56517,38097,0,0,0
9589,56463,38005,0,0,0
9558,56427,37943,0,0,0
9545,56411,37914,0,0,0
9548,56415,37919,0,0,0
9566,56436,37954,0,0,0
9598,56477,38017,0,0,0
9645,56537,38103,0,0,0
9704,56611,38208,0,0,0
9773,56696,38327,0,0,0
9848,56786,38461,0,0,0
9925,56880,38604,0,0,0
10003,56976,38750,0,0,0
10082,57070,38895,0,0,0
10158,57165,39037,0,0,0
10233,57260,39175,0,0,0
10306,57350,39307,0,0,0
10372,57432,39429,0,0,0
10431,57504,39539,0,0,0
10481,57567,39635,0,0,0
10521,57620,39716,0,0,0
10551,57662,39781,0,0,0
10573,57694,39829,0,0,0
10587,57712,39856,0,0,0
10590,57713,39862,0,0,0
10582,57698,39849,0,0,0
10564,57672,39817,0,0,0
10541,57641,39770,0,0,0
10515,57603,39710,0,0,0
10481,57556,39639,0,0,0
10441,57502,39561,0,0,0
10396,57444,39476,0,0,0
10350,57383,39384,0,0,0
10302,57323,39282,0,0,0
10254,57262,39176,0,0,0
10204,57196,39069,0,0,0
10152,57125,38958,0,0,0
10099,57051,38843,0,0,0
10043,56973,38725,0,0,0
9981,56892,38606,0,0,0
9914,56807,38484,0,0,0
9847,56718,38361,0,0,0
9779,56629,38239,0,0,0
9712,56545,38117,0,0,0
9644,56464,37994,0,0,0
9577,56379,37867,0,0,0
9514,56298,37744,0,0,0
9455,56221,37625,0,0,0
9396,56147,37507,0,0,0
9340,56073,37392,0,0,0
9286,56002,37282,0,0,0
9233,55934,37176,0,0,0
9182,55871,37076,0,0,0
9133,55809,36984,0,0,0
9084,55752,36900,0,0,0
9037,55697,36820,0,0,0
8992,55644,36741,0,0,0
8949,55593,36663,0,0,0
8908,55545,36592,0,0,0
8870,55500,36527,0,0,0
8833,55457,36463,0,0,0
8800,55417,36398,0,0,0
8769,55380,36337,0,0,0
8739,55348,36281,0,0,0
8710,55316,36229,0,0,0
8686,55288,36184,0,0,0
8669,55265,36146,0,0,0
8656,55248,36115,0,0,0
8645,55232,36087,0,0,0
8637,55219,36065,0,0,0
8635,55211,36051,0,0,0
8636,55205,36041,0,0,0
8637,55198,36030,0,0,0
8637,55192,36021,0,0,0
8634,55188,36017,0,0,0
8629,55184,36013,0,0,0
8622,55177,36008,0,0,0
8612,55171,36003,0,0,0
8602,55164,35997,0,0,0
8591,55156,35989,0,0,0
8584,55150,35980,0,0,0
8581,55145,35971,0,0,0
8578,55140,35959,0,0,0
8572,55131,35942,0,0,0
8559,55117,35916,0,0,0
8542,55099,35886,0,0,0
8524,55081,35855,0,0,0
8500,55058,35819,0,0,0
8474,55030,35778,0,0,0
8448,55001,35731,0,0,0
8420,54969,35679,0,0,0
8387,54933,35622,0,0,0
8350,54890,35557,0,0,0
8308,54840,35484,0,0,0
8264,54786,35404,0,0,0
8218,54728,35319,0,0,0
8171,54666,35231,0,0,0
8123,54601,35145,0,0,0
8076,54539,35064,0,0,0
8030,54476,34983,0,0,0
7983,54414,34902,0,0,0
7934,54356,34823,0,0,0
7886,54303,34748,0,0,0
7843,54259,34682,0,0,0
7810,54229,34632,0,0,0
7791,54218,34610,0,0,0
7794,54232,34627,0,0,0
7827,54279,34691,0,0,0
7897,54369,34817,0,0,0
8010,54510,35017,0,0,0
8167,54701,35297,0,0,0
8363,54940,35651,0,0,0
8595,55222,36074,0,0,0
8856,55541,36553,0,0,0
9135,55889,37077,0,0,0
9425,56250,37627,0,0,0
9718,56613,38187,0,0,0
10007,56970,38744,0,0,0
10285,57314,39286,0,0,0
10548,57639,39800,0,0,0
10793,57943,40281,0,0,0
11020,58224,40726,0,0,0
11224,58478,41127,0,0,0
11404,58701,41477,0,0,0
11559,58890,41774,0,0,0
11688,59046,42017,0,0,0
11791,59169,42207,0,0,0
11871,59261,42346,0,0,0
11928,59325,42439,0,0,0
11964,59362,42489,0,0,0
11981,59375,42501,0,0,0
11982,59365,42480,0,0,0
11966,59335,42427,0,0,0
11934,59285,42346,0,0,0
11885,59214,42239,0,0,0
11825,59128,42110,0,0,0
11757,59036,41966,0,0,0
11681,58937,41809,0,0,0
11600,58829,41642,0,0,0
11517,58717,41467,0,0,0
11430,58601,41287,0,0,0
11340,58482,41100,0,0,0
11252,58363,40911,0,0,0
11165,58245,40721,0,0,0
11078,58125,40534,0,0,0
10989,58003,40346,0,0,0
10893,57875,40151,0,0,0
10789,57743,39947,0,0,0
10681,57606,39737,0,0,0
10573,57463,39521,0,0,0
10465,57320,39302,0,0,0
10357,57183,39090,0,0,0
10252,57051,38891,0,0,0
10155,56929,38708,0,0,0
10072,56824,38547,0,0,0
10008,56740,38412,0,0,0
9961,56677,38308,0,0,0
9928,56633,38239,0,0,0
9909,56610,38201,0,0,0
9905,56608,38194,0,0,0
9917,56626,38217,0,0,0
9947,56662,38267,0,0,0
9991,56712,38341,0,0,0
10046,56776,38437,0,0,0
10111,56858,38554,0,0,0
10183,56952,38686,0,0,0
10258,57053,38825,0,0,0
10334,57158,38968,0,0,0
10411,57263,39115,0,0,0
10487,57361,39262,0,0,0
10562,57452,39407,0,0,0
10635,57543,39551,0,0,0
10703,57628,39687,0,0,0
10765,57705,39807,0,0,0
10819,57772,39908,0,0,0
10862,57829,39991,0,0,0
10895,57876,40057,0,0,0
10918,57908,40103,0,0,0
10931,57921,40126,0,0,0
10935,57921,40131,0,0,0
10930,57912,40120,0,0,0
10916,57893,40092,0,0,0
10895,57862,40049,0,0,0
10864,57822,39990,0,0,0
10825,57775,39920,0,0,0
10781,57721,39840,0,0,0
10735,57665,39749,0,0,0
10691,57608,39653,0,0,0
10646,57545,39552,0,0,0
10595,57477,39448,0,0,0
10538,57406,39343,0,0,0
10478,57331,39236,0,0,0
10417,57254,39124,0,0,0
10354,57173,39007,0,0,0
10286,57090,38888,0,0,0
10216,57006,38765,0,0,0
10147,56922,38639,0,0,0
10081,56837,38509,0,0,0
10018,56751,38378,0,0,0
9956,56668,38249,0,0,0
9892,56588,38121,0,0,0
9827,56507,37993,0,0,0
9765,56428,37869,0,0,0
9705,56351,37752,0,0,0
9648,56276,37638,0,0,0
9594,56204,37527,0,0,0
9542,56136,37421,0,0,0
9489,56070,37316,0,0,0
9434,56004,37210,0,0,0
9378,55938,37106,0,0,0
9323,55875,37008,0,0,0
9272,55816,36918,0,0,0
9222,55756,36832,0,0,0
9171,55696,36750,0,0,0
9121,55641,36677,0,0,0
9077,55591,36612,0,0,0
9037,55546,36550,0,0,0
9001,55504,36491,0,0,0
8971,55466,36438,0,0,0
8944,55434,36389,0,0,0
8919,55405,36346,0,0,0
8898,55381,36307,0,0,0
8880,55358,36272,0,0,0
8863,55337,36239,0,0,0
8847,55315,36209,0,0,0
8831,55293,36183,0,0,0
8818,55276,36160,0,0,0
8807,55263,36141,0,0,0
8797,55253,36123,0,0,0
8788,55244,36107,0,0,0
8782,55238,36092,0,0,0
8779,55234,36078,0,0,0
8777,55229,36066,0,0,0
8774,55225,36056,0,0,0
8770,55218,36044,0,0,0
8765,55208,36030,0,0,0
8759,55196,36018,0,0,0
8752,55183,36005,0,0,0
8741,55169,35991,0,0,0
8728,55156,35972,0,0,0
8714,55143,35948,0,0,0
8698,55126,35921,0,0,0
8680,55103,35892,0,0,0
8658,55077,35859,0,0,0
8631,55045,35814,0,0,0
8601,55008,35760,0,0,0
8571,54971,35699,0,0,0
8536,54930,35631,0,0,0
8496,54886,35555,0,0,0
8455,54838,35473,0,0,0
8411,54784,35383,0,0,0
8364,54725,35290,0,0,0
8314,54662,35196,0,0,0
8265,54600,35107,0,0,0
8219,54543,35028,0,0,0
8175,54490,34957,0,0,0
8139,54446,34897,0,0,0
8117,54419,34860,0,0,0
8112,54416,34860,0,0,0
8133,54443,34905,0,0,0
8188,54511,35006,0,0,0
8278,54626,35174,0,0,0
8407,54789,35419,0,0,0
8577,55003,35741,0,0,0
8789,55264,36132,0,0,0
9031,55565,36581,0,0,0
9292,55894,37075,0,0,0
9567,56239,37602,0,0,0
9851,56594,38149,0,0,0
10137,56955,38703,0,0,0
10419,57312,39248,0,0,0
10687,57650,39771,0,0,0
10937,57964,40263,0,0,0
11168,58252,40718,0,0,0
11379,58514,41130,0,0,0
11564,58744,41494,0,0,0
11723,58942,41809,0,0,0
11855,59107,42070,0,0,0
11962,59237,42276,0,0,0
12044,59337,42433,0,0,0
12106,59410,42544,0,0,0
12146,59456,42612,0,0,0
