green_channel,red_channel,ir_channel,Anomaly_ch0,Anomaly_ch1,Anomaly_ch2
26598,43095,22282,0,0,0
26590,43087,22254,0,0,0
26597,43101,22251,0,0,0
26603,43118,22244,0,0,0
26612,43126,22221,0,0,0
26639,43145,22210,0,0,0
26670,43177,22219,0,0,0
26677,43195,22216,0,0,0
26664,43187,22184,0,0,0
26653,43179,22152,0,0,0
26641,43175,22129,0,0,0
26608,43147,22088,0,0,0
26560,43091,22024,0,0,0
26512,43036,21966,0,0,0
26455,42987,21914,0,0,0
26373,42921,21837,0,0,0
26284,42839,21739,0,0,0
26208,42770,21651,0,0,0
26143,42715,21572,0,0,0
26075,42651,21480,0,0,0
26014,42587,21383,0,0,0
25971,42551,21307,0,0,0
25931,42532,21237,0,0,0
25875,42494,21138,0,0,0
25822,42446,21024,0,0,0
25788,42422,20937,0,0,0
25760,42412,20866,0,0,0
25723,42387,20782,0,0,0
25693,42358,20698,0,0,0
25679,42348,20635,0,0,0
25651,42335,20570,0,0,0
25596,42289,20475,0,0,0
25539,42234,20376,0,0,0
25495,42198,20299,0,0,0
25445,42166,20225,0,0,0
25380,42113,20131,0,0,0
25311,42053,20036,0,0,0
25249,42010,19962,0,0,0
25183,41969,19890,0,0,0
25114,41914,19794,0,0,0
25064,41868,19703,0,0,0
25032,41849,19639,0,0,0
24991,41828,19571,0,0,0
24939,41789,19478,0,0,0
24901,41763,19391,0,0,0
24871,41759,19326,0,0,0
24832,41748,19255,0,0,0
24793,41719,19169,0,0,0
24766,41699,19092,0,0,0
24739,41688,19034,0,0,0
24694,41653,18964,0,0,0
24637,41588,18869,0,0,0
24590,41529,18786,0,0,0
24550,41484,18727,0,0,0
24500,41432,18669,0,0,0
24459,41378,18617,0,0,0
24450,41358,18610,0,0,0
24467,41375,18650,0,0,0
24499,41403,18707,0,0,0
24561,41445,18792,0,0,0
24669,41531,18944,0,0,0
24810,41659,19158,0,0,0
24974,41800,19400,0,0,0
25174,41959,19676,0,0,0
25415,42154,20011,0,0,0
25676,42371,20385,0,0,0
25938,42581,20763,0,0,0
26212,42793,21153,0,0,0
26508,43031,21576,0,0,0
26805,43277,22012,0,0,0
27085,43502,22422,0,0,0
27356,43713,22812,0,0,0
27627,43932,23204,0,0,0
27879,44142,23572,0,0,0
28103,44321,23887,0,0,0
28315,44488,24173,0,0,0
28522,44667,24458,0,0,0
28701,44834,24709,0,0,0
28850,44968,24903,0,0,0
28991,45088,25070,0,0,0
29123,45213,25232,0,0,0
29234,45324,25363,0,0,0
29327,45404,25451,0,0,0
29418,45473,25529,0,0,0
29503,45545,25614,0,0,0
29554,45592,25674,0,0,0
29574,45601,25692,0,0,0
29595,45605,25703,0,0,0
29617,45617,25722,0,0,0
29619,45612,25721,0,0,0
29609,45586,25695,0,0,0
29605,45571,25684,0,0,0
29602,45573,25695,0,0,0
29582,45564,25691,0,0,0
29554,45539,25664,0,0,0
29536,45524,25645,0,0,0
29518,45522,25635,0,0,0
29479,45498,25598,0,0,0
29432,45454,25538,0,0,0
29397,45422,25490,0,0,0
29360,45401,25448,0,0,0
29303,45358,25377,0,0,0
29238,45299,25284,0,0,0
29177,45250,25198,0,0,0
29100,45197,25101,0,0,0
28999,45113,24969,0,0,0
28901,45019,24828,0,0,0
28830,44951,24716,0,0,0
28767,44895,24617,0,0,0
28690,44820,24503,0,0,0
28612,44740,24381,0,0,0
28549,44682,24282,0,0,0
28487,44635,24194,0,0,0
28419,44574,24091,0,0,0
28371,44518,23995,0,0,0
28349,44492,23932,0,0,0
28326,44473,23879,0,0,0
28295,44441,23817,0,0,0
28272,44415,23769,0,0,0
28264,44415,23752,0,0,0
28255,44420,23738,0,0,0
28244,44411,23709,0,0,0
28246,44408,23692,0,0,0
28260,44427,23701,0,0,0
28256,44435,23701,0,0,0
28232,44416,23676,0,0,0
28215,44401,23655,0,0,0
28201,44399,23646,0,0,0
28172,44381,23620,0,0,0
28135,44339,23567,0,0,0
28103,44297,23520,0,0,0
28064,44262,23487,0,0,0
28002,44208,23435,0,0,0
27927,44132,23355,0,0,0
27866,44070,23280,0,0,0
27816,44031,23218,0,0,0
27762,43986,23143,0,0,0
27712,43937,23059,0,0,0
27681,43910,22998,0,0,0
27656,43904,22953,0,0,0
27623,43888,22889,0,0,0
27587,43863,22810,0,0,0
27564,43854,22750,0,0,0
27542,43852,22695,0,0,0
27507,43831,22620,0,0,0
27476,43807,22544,0,0,0
27463,43810,22501,0,0,0
27449,43823,22464,0,0,0
27418,43813,22397,0,0,0
27382,43793,22315,0,0,0
27357,43790,22250,0,0,0
27328,43786,22186,0,0,0
27286,43751,22094,0,0,0
27251,43709,21999,0,0,0
27233,43688,21934,0,0,0
27209,43673,21877,0,0,0
27170,43637,21798,0,0,0
27131,43598,21719,0,0,0
27098,43579,21663,0,0,0
27057,43562,21605,0,0,0
27005,43526,21520,0,0,0
26965,43493,21443,0,0,0
26937,43479,21391,0,0,0
26890,43454,21328,0,0,0
26829,43400,21237,0,0,0
26775,43344,21149,0,0,0
26722,43297,21076,0,0,0
26655,43240,20994,0,0,0
26587,43167,20894,0,0,0
26538,43111,20812,0,0,0
26504,43085,20766,0,0,0
26470,43062,20733,0,0,0
26446,43038,20706,0,0,0
26460,43045,20723,0,0,0
26507,43093,20796,0,0,0
26574,43155,20897,0,0,0
26671,43229,21027,0,0,0
26817,43348,21223,0,0,0
27003,43508,21487,0,0,0
27212,43677,21787,0,0,0
27450,43859,22126,0,0,0
27723,44075,22525,0,0,0
28013,44312,22964,0,0,0
28303,44540,23403,0,0,0
28603,44773,23849,0,0,0
28921,45034,24328,0,0,0
29238,45304,24817,0,0,0
29531,45543,25271,0,0,0
29806,45755,25691,0,0,0
30069,45964,26099,0,0,0
30301,46155,26469,0,0,0
30495,46304,26770,0,0,0
30674,46432,27025,0,0,0
30850,46569,27266,0,0,0
31006,46701,27481,0,0,0
31132,46804,27652,0,0,0
31243,46895,27801,0,0,0
31344,46994,27952,0,0,0
31421,47076,28077,0,0,0
31471,47120,28155,0,0,0
31520,47157,28224,0,0,0
31573,47205,28303,0,0,0
31610,47238,28366,0,0,0
31632,47247,28399,0,0,0
31655,47256,28436,0,0,0
31672,47271,28484,0,0,0
31662,47266,28503,0,0,0
31633,47229,28483,0,0,0
31614,47197,28463,0,0,0
31603,47186,28458,0,0,0
31582,47168,28443,0,0,0
31557,47134,28410,0,0,0
31542,47110,28385,0,0,0
31528,47101,28372,0,0,0
31495,47079,28336,0,0,0
31452,47041,28275,0,0,0
31418,47016,28223,0,0,0
31392,47005,28179,0,0,0
31355,46978,28111,0,0,0
31309,46933,28024,0,0,0
31260,46894,27947,0,0,0
31198,46852,27872,0,0,0
31115,46779,27765,0,0,0
31024,46686,27634,0,0,0
30945,46610,27513,0,0,0
30866,46546,27401,0,0,0
30771,46461,27271,0,0,0
30671,46367,27137,0,0,0
30584,46298,27031,0,0,0
30497,46242,26934,0,0,0
30408,46170,26816,0,0,0
30339,46105,26704,0,0,0
30304,46075,26629,0,0,0
30279,46064,26573,0,0,0
30248,46042,26506,0,0,0
30222,46022,26447,0,0,0
30204,46021,26416,0,0,0
30184,46018,26388,0,0,0
30161,45991,26338,0,0,0
30147,45966,26292,0,0,0
30141,45957,26268,0,0,0
30122,45939,26239,0,0,0
30094,45898,26188,0,0,0
30071,45860,26141,0,0,0
30052,45837,26110,0,0,0
30019,45812,26067,0,0,0
29980,45774,26001,0,0,0
29953,45750,25949,0,0,0
29935,45751,25923,0,0,0
29907,45746,25888,0,0,0
29873,45724,25832,0,0,0
29848,45710,25785,0,0,0
29824,45709,25748,0,0,0
29780,45691,25688,0,0,0
29730,45648,25605,0,0,0
29690,45612,25531,0,0,0
29647,45585,25466,0,0,0
29583,45538,25380,0,0,0
29510,45470,25271,0,0,0
29439,45404,25166,0,0,0
29354,45334,25058,0,0,0
29244,45235,24919,0,0,0
29128,45118,24763,0,0,0
29029,45021,24631,0,0,0
28933,44941,24512,0,0,0
28828,44851,24370,0,0,0
28731,44763,24226,0,0,0
28655,44705,24117,0,0,0
28580,44662,24024,0,0,0
28494,44604,23916,0,0,0
28417,44539,23805,0,0,0
28359,44496,23720,0,0,0
28302,44460,23638,0,0,0
28236,44404,23531,0,0,0
28176,44347,23421,0,0,0
28132,44311,23333,0,0,0
28076,44273,23245,0,0,0
28002,44211,23136,0,0,0
27926,44142,23027,0,0,0
27852,44085,22935,0,0,0
27769,44018,22832,0,0,0
27683,43931,22704,0,0,0
27611,43854,22587,0,0,0
27550,43806,22499,0,0,0
27477,43756,22406,0,0,0
27397,43689,22295,0,0,0
27337,43639,22204,0,0,0
27296,43622,22148,0,0,0
27256,43609,22097,0,0,0
27231,43592,22053,0,0,0
27249,43605,22065,0,0,0
27306,43657,22144,0,0,0
27379,43720,22255,0,0,0
27474,43790,22395,0,0,0
27609,43894,22597,0,0,0
27778,44031,22859,0,0,0
27961,44172,23146,0,0,0
28170,44322,23460,0,0,0
28419,44514,23832,0,0,0
28693,44738,24249,0,0,0
28963,44956,24668,0,0,0
29233,45168,25089,0,0,0
29512,45395,25533,0,0,0
29779,45624,25978,0,0,0
30020,45828,26389,0,0,0
30251,46015,26773,0,0,0
30493,46214,27155,0,0,0
30729,46415,27517,0,0,0
30939,46586,27824,0,0,0
31132,46739,28092,0,0,0
31319,46895,28348,0,0,0
31475,47035,28569,0,0,0
31588,47132,28730,0,0,0
31688,47214,28864,0,0,0
31788,47306,29000,0,0,0
31870,47389,29116,0,0,0
31928,47440,29193,0,0,0
31974,47478,29256,0,0,0
32015,47523,29330,0,0,0
32043,47558,29389,0,0,0
32060,47566,29413,0,0,0
32086,47581,29438,0,0,0
32121,47622,29487,0,0,0
32144,47657,29525,0,0,0
32156,47666,29533,0,0,0
32178,47675,29543,0,0,0
32200,47693,29571,0,0,0
32204,47697,29586,0,0,0
32203,47683,29582,0,0,0
32212,47680,29589,0,0,0
32221,47693,29608,0,0,0
32208,47690,29605,0,0,0
32178,47662,29568,0,0,0
32151,47636,29528,0,0,0
32120,47617,29492,0,0,0
32069,47578,29428,0,0,0
32009,47523,29337,0,0,0
31958,47484,29258,0,0,0
31903,47453,29188,0,0,0
31826,47396,29090,0,0,0
31736,47322,28968,0,0,0
31652,47258,28856,0,0,0
31565,47200,28746,0,0,0
31469,47120,28609,0,0,0
31381,47033,28466,0,0,0
31311,46967,28349,0,0,0
31241,46908,28241,0,0,0
31155,46831,28111,0,0,0
31067,46747,27974,0,0,0
30991,46685,27863,0,0,0
30924,46638,27768,0,0,0
30857,46581,27662,0,0,0
30803,46527,27563,0,0,0
30766,46499,27499,0,0,0
30725,46476,27448,0,0,0
30674,46432,27379,0,0,0
30623,46383,27309,0,0,0
30573,46348,27257,0,0,0
30510,46302,27194,0,0,0
30434,46223,27098,0,0,0
30358,46143,27009,0,0,0
30279,46080,26946,0,0,0
30182,46002,26877,0,0,0
30081,45901,26784,0,0,0
30000,45817,26695,0,0,0
29934,45764,26626,0,0,0
29864,45712,26547,0,0,0
29800,45655,26449,0,0,0
29767,45622,26367,0,0,0
29756,45620,26311,0,0,0
29737,45614,26244,0,0,0
29713,45592,26157,0,0,0
29695,45580,26083,0,0,0
29674,45583,26026,0,0,0
29634,45563,25949,0,0,0
29579,45515,25844,0,0,0
29523,45471,25745,0,0,0
29465,45435,25654,0,0,0
29387,45373,25541,0,0,0
29294,45288,25413,0,0,0
29204,45215,25308,0,0,0
29112,45149,25212,0,0,0
29004,45061,25089,0,0,0
28898,44961,24949,0,0,0
28814,44886,24832,0,0,0
28742,44832,24727,0,0,0
28668,44772,24606,0,0,0
28613,44721,24489,0,0,0
28584,44700,24408,0,0,0
28557,44688,24342,0,0,0
28516,44654,24253,0,0,0
28470,44611,24152,0,0,0
28428,44584,24068,0,0,0
28384,44563,23990,0,0,0
28330,44523,23892,0,0,0
28282,44480,23797,0,0,0
28240,44457,23729,0,0,0
28183,44428,23660,0,0,0
28105,44368,23565,0,0,0
28030,44304,23471,0,0,0
27962,44254,23392,0,0,0
27884,44196,23295,0,0,0
27803,44120,23170,0,0,0
27739,44057,23054,0,0,0
27687,44021,22962,0,0,0
27623,43979,22860,0,0,0
27550,43914,22737,0,0,0
27492,43858,22630,0,0,0
27447,43824,22551,0,0,0
27395,43786,22470,0,0,0
27344,43740,22383,0,0,0
27318,43713,22332,0,0,0
27315,43712,22328,0,0,0
27317,43711,22341,0,0,0
27334,43715,22368,0,0,0
27386,43757,22448,0,0,0
27470,43842,22585,0,0,0
27577,43937,22753,0,0,0
27717,44047,22959,0,0,0
27907,44204,23240,0,0,0
28129,44399,23581,0,0,0
28362,44596,23936,0,0,0
28614,44795,24307,0,0,0
28897,45022,24724,0,0,0
29194,45265,25164,0,0,0
29485,45489,25585,0,0,0
29781,45711,26000,0,0,0
30085,45955,26434,0,0,0
30370,46196,26854,0,0,0
30616,46397,27220,0,0,0
30835,46568,27543,0,0,0
31037,46737,27851,0,0,0
31209,46893,28129,0,0,0
31348,47011,28353,0,0,0
31469,47109,28547,0,0,0
31585,47212,28738,0,0,0
31677,47299,28895,0,0,0
31740,47353,28998,0,0,0
31805,47403,29083,0,0,0
31876,47469,29174,0,0,0
31933,47528,29245,0,0,0
31985,47570,29290,0,0,0
32048,47619,29344,0,0,0
32112,47685,29423,0,0,0
32159,47737,29492,0,0,0
32194,47765,29539,0,0,0
32241,47798,29596,0,0,0
32292,47841,29666,0,0,0
32326,47867,29716,0,0,0
32353,47874,29740,0,0,0
32386,47892,29773,0,0,0
32410,47920,29821,0,0,0
32406,47924,29846,0,0,0
32384,47897,29842,0,0,0
32363,47872,29840,0,0,0
32340,47855,29838,0,0,0
32308,47825,29803,0,0,0
32275,47783,29744,0,0,0
32258,47764,29702,0,0,0
32246,47761,29670,0,0,0
32216,47740,29606,0,0,0
32177,47704,29519,0,0,0
32142,47680,29440,0,0,0
32097,47656,29359,0,0,0
32031,47605,29245,0,0,0
31964,47543,29119,0,0,0
31910,47501,29018,0,0,0
31849,47467,28928,0,0,0
31767,47409,28818,0,0,0
31680,47334,28700,0,0,0
31602,47268,28597,0,0,0
31513,47196,28493,0,0,0
31405,47096,28364,0,0,0
31304,46995,28241,0,0,0
31222,46921,28148,0,0,0
31147,46859,28065,0,0,0
31078,46793,27971,0,0,0
31033,46742,27892,0,0,0
31011,46723,27845,0,0,0
30984,46707,27799,0,0,0
30951,46676,27737,0,0,0
30934,46658,27686,0,0,0
30930,46663,27658,0,0,0
30916,46660,27624,0,0,0
30894,46639,27573,0,0,0
30880,46624,27527,0,0,0
30870,46623,27495,0,0,0
30840,46609,27446,0,0,0
30797,46575,27373,0,0,0
30763,46550,27306,0,0,0
30732,46535,27254,0,0,0
30688,46503,27188,0,0,0
30638,46453,27108,0,0,0
30597,46414,27041,0,0,0
30558,46386,26985,0,0,0
30506,46337,26906,0,0,0
30447,46268,26807,0,0,0
30393,46210,26716,0,0,0
30336,46163,26628,0,0,0
30267,46102,26514,0,0,0
30205,46041,26395,0,0,0
30164,46009,26304,0,0,0
30123,45987,26225,0,0,0
30064,45939,26125,0,0,0
30000,45878,26017,0,0,0
29945,45839,25931,0,0,0
29887,45810,25851,0,0,0
29820,45764,25747,0,0,0
29764,45714,25641,0,0,0
29724,45685,25560,0,0,0
29680,45660,25488,0,0,0
29620,45613,25398,0,0,0
29561,45560,25300,0,0,0
29512,45524,25218,0,0,0
29457,45489,25131,0,0,0
29395,45435,25020,0,0,0
29345,45386,24915,0,0,0
29313,45363,24840,0,0,0
29278,45342,24767,0,0,0
29238,45306,24677,0,0,0
29209,45281,24597,0,0,0
29186,45276,24541,0,0,0
29153,45265,24484,0,0,0
29117,45242,24415,0,0,0
29099,45233,24361,0,0,0
29095,45246,24328,0,0,0
29077,45244,24280,0,0,0
29042,45214,24206,0,0,0
29009,45182,24133,0,0,0
28970,45155,24071,0,0,0
28912,45106,23987,0,0,0
28848,45036,23882,0,0,0
28795,44980,23788,0,0,0
28745,44943,23712,0,0,0
28683,44896,23624,0,0,0
28622,44844,23527,0,0,0
28574,44810,23450,0,0,0
28527,44786,23382,0,0,0
28470,44745,23287,0,0,0
28416,44697,23178,0,0,0
28382,44673,23099,0,0,0
28353,44665,23046,0,0,0
28320,44647,22991,0,0,0
28300,44630,22945,0,0,0
28308,44642,22938,0,0,0
28325,44669,22959,0,0,0
28348,44686,22982,0,0,0
28394,44708,23025,0,0,0
28475,44766,23117,0,0,0
28576,44848,23250,0,0,0
28689,44931,23406,0,0,0
28834,45035,23605,0,0,0
29017,45185,23874,0,0,0
29212,45356,24186,0,0,0
29417,45525,24512,0,0,0
29648,45711,24870,0,0,0
29906,45929,25270,0,0,0
30172,46156,25685,0,0,0
30441,46372,26092,0,0,0
30720,46596,26505,0,0,0
31000,46835,26928,0,0,0
31252,47055,27315,0,0,0
31475,47236,27645,0,0,0
31690,47406,27948,0,0,0
31890,47576,28236,0,0,0
32057,47717,28482,0,0,0
32200,47824,28680,0,0,0
32337,47926,28865,0,0,0
32462,48028,29046,0,0,0
32555,48099,29190,0,0,0
32626,48141,29296,0,0,0
32695,48184,29396,0,0,0
32753,48233,29490,0,0,0
32791,48260,29555,0,0,0
32824,48270,29598,0,0,0
32868,48297,29655,0,0,0
32910,48340,29727,0,0,0
32935,48372,29780,0,0,0
32955,48391,29818,0,0,0
32988,48425,29868,0,0,0
33023,48463,29921,0,0,0
33047,48479,29949,0,0,0
33076,48489,29969,0,0,0
33122,48523,30015,0,0,0
33163,48565,30071,0,0,0
33183,48580,30096,0,0,0
33193,48577,30101,0,0,0
33202,48585,30118,0,0,0
33200,48590,30130,0,0,0
33184,48568,30101,0,0,0
33170,48536,30054,0,0,0
33160,48518,30018,0,0,0
33129,48490,29970,0,0,0
33070,48432,29884,0,0,0
33006,48367,29783,0,0,0
32944,48316,29691,0,0,0
32874,48264,29591,0,0,0
32799,48194,29471,0,0,0
32733,48130,29362,0,0,0
32674,48083,29281,0,0,0
32599,48024,29192,0,0,0
32513,47944,29080,0,0,0
32440,47871,28973,0,0,0
32369,47813,28883,0,0,0
32284,47746,28785,0,0,0
32198,47668,28672,0,0,0
32133,47608,28578,0,0,0
32083,47577,28518,0,0,0
32027,47549,28460,0,0,0
31975,47515,28395,0,0,0
31947,47501,28355,0,0,0
31937,47511,28339,0,0,0
31928,47513,28313,0,0,0
31926,47508,28272,0,0,0
31942,47521,28247,0,0,0
31961,47546,28236,0,0,0
31964,47552,28205,0,0,0
31958,47539,28160,0,0,0
31955,47532,28133,0,0,0
31939,47521,28112,0,0,0
31893,47477,28058,0,0,0
31837,47415,27983,0,0,0
31793,47374,27924,0,0,0
31753,47348,27875,0,0,0
31701,47303,27806,0,0,0
31652,47249,27728,0,0,0
31618,47214,27666,0,0,0
31577,47182,27601,0,0,0
31517,47129,27505,0,0,0
31462,47072,27402,0,0,0
31421,47041,27320,0,0,0
31380,47021,27246,0,0,0
31329,46986,27155,0,0,0
31282,46947,27064,0,0,0
31244,46926,26998,0,0,0
31192,46899,26930,0,0,0
31121,46841,26831,0,0,0
31052,46777,26726,0,0,0
30989,46726,26633,0,0,0
30920,46668,26529,0,0,0
30846,46590,26405,0,0,0
30780,46519,26293,0,0,0
30717,46467,26210,0,0,0
30633,46403,26115,0,0,0
30533,46316,25992,0,0,0
30449,46241,25881,0,0,0
30379,46189,25794,0,0,0
30303,46131,25700,0,0,0
30228,46063,25588,0,0,0
30170,46014,25491,0,0,0
30123,45991,25418,0,0,0
30066,45959,25333,0,0,0
30005,45908,25228,0,0,0
29955,45867,25137,0,0,0
29907,45842,25064,0,0,0
29845,45804,24975,0,0,0
29784,45753,24872,0,0,0
29741,45721,24794,0,0,0
29709,45705,24735,0,0,0
29669,45671,24656,0,0,0
29626,45629,24570,0,0,0
29594,45604,24509,0,0,0
29557,45584,24453,0,0,0
29501,45538,24367,0,0,0
29442,45482,24271,0,0,0
29402,45447,24202,0,0,0
29364,45424,24146,0,0,0
29315,45388,24068,0,0,0
29272,45351,23985,0,0,0
29243,45334,23927,0,0,0
29207,45317,23869,0,0,0
29152,45275,23783,0,0,0
29098,45230,23690,0,0,0
29056,45205,23618,0,0,0
29015,45180,23546,0,0,0
28969,45134,23452,0,0,0
28929,45088,23364,0,0,0
28893,45062,23300,0,0,0
28842,45029,23229,0,0,0
28777,44973,23136,0,0,0
28726,44924,23057,0,0,0
28687,44895,23007,0,0,0
28647,44869,22963,0,0,0
28622,44840,22924,0,0,0
28636,44840,22932,0,0,0
28685,44883,23001,0,0,0
28747,44940,23100,0,0,0
28827,45001,23222,0,0,0
28941,45093,23394,0,0,0
29086,45224,23622,0,0,0
29250,45367,23877,0,0,0
29437,45517,24156,0,0,0
29657,45700,24483,0,0,0
29901,45913,24850,0,0,0
30148,46123,25221,0,0,0
30399,46324,25591,0,0,0
30662,46538,25984,0,0,0
30919,46760,26381,0,0,0
31150,46952,26734,0,0,0
31360,47113,27045,0,0,0
31562,47271,27344,0,0,0
31741,47421,27622,0,0,0
31889,47538,27849,0,0,0
32028,47637,28051,0,0,0
32174,47749,28262,0,0,0
32306,47862,28459,0,0,0
32407,47945,28606,0,0,0
32496,48012,28718,0,0,0
32592,48090,28832,0,0,0
32673,48163,28934,0,0,0
32728,48208,28995,0,0,0
32779,48247,29042,0,0,0
32839,48302,29107,0,0,0
32891,48353,29170,0,0,0
32927,48376,29209,0,0,0
32959,48390,29247,0,0,0
32988,48417,29302,0,0,0
32996,48430,29339,0,0,0
32980,48408,29340,0,0,0
32965,48380,29339,0,0,0
32950,48363,29352,0,0,0
32919,48336,29352,0,0,0
32889,48293,29327,0,0,0
32877,48265,29309,0,0,0
32871,48262,29311,0,0,0
32849,48254,29299,0,0,0
32820,48230,29262,0,0,0
32805,48218,29229,0,0,0
32795,48224,29203,0,0,0
32771,48216,29154,0,0,0
32740,48186,29079,0,0,0
32717,48162,29012,0,0,0
32692,48145,28959,0,0,0
32650,48109,28889,0,0,0
32598,48053,28802,0,0,0
32548,48003,28728,0,0,0
32491,47958,28658,0,0,0
32419,47889,28559,0,0,0
32341,47804,28439,0,0,0
32274,47737,28339,0,0,0
32212,47683,28255,0,0,0
32141,47615,28155,0,0,0
32078,47547,28052,0,0,0
32040,47512,27983,0,0,0
32006,47494,27933,0,0,0
31960,47461,27870,0,0,0
31917,47427,27808,0,0,0
31888,47413,27771,0,0,0
31856,47401,27738,0,0,0
31809,47364,27678,0,0,0
31768,47322,27611,0,0,0
31737,47299,27568,0,0,0
31702,47277,27533,0,0,0
31656,47230,27477,0,0,0
31615,47182,27422,0,0,0
31583,47155,27387,0,0,0
31544,47127,27346,0,0,0
31498,47079,27283,0,0,0
31458,47035,27225,0,0,0
31417,47007,27178,0,0,0
31361,46969,27114,0,0,0
31298,46911,27022,0,0,0
31254,46867,26941,0,0,0
31226,46851,26887,0,0,0
31191,46828,26828,0,0,0
31148,46784,26750,0,0,0
31109,46747,26681,0,0,0
31061,46721,26625,0,0,0
30989,46675,26548,0,0,0
30906,46603,26442,0,0,0
30836,46535,26341,0,0,0
30771,46481,26248,0,0,0
30693,46412,26137,0,0,0
30612,46331,26011,0,0,0
30545,46268,25908,0,0,0
30484,46222,25825,0,0,0
30406,46162,25727,0,0,0
30321,46090,25617,0,0,0
30247,46037,25526,0,0,0
30176,45991,25441,0,0,0
30090,45921,25329,0,0,0
30010,45843,25205,0,0,0
29957,45794,25111,0,0,0
29910,45762,25032,0,0,0
29855,45715,24935,0,0,0
29807,45666,24835,0,0,0
29771,45635,24757,0,0,0
29720,45603,24677,0,0,0
29643,45545,24570,0,0,0
29560,45475,24458,0,0,0
29486,45421,24367,0,0,0
29410,45369,24277,0,0,0
29327,45295,24161,0,0,0
29259,45224,24049,0,0,0
29208,45182,23967,0,0,0
29156,45146,23890,0,0,0
29101,45097,23800,0,0,0
29053,45050,23720,0,0,0
29008,45016,23658,0,0,0
28949,44975,23583,0,0,0
28888,44917,23486,0,0,0
28849,44874,23410,0,0,0
28828,44858,23365,0,0,0
28800,44837,23311,0,0,0
28763,44795,23233,0,0,0
28731,44759,23160,0,0,0
28694,44736,23104,0,0,0
28636,44699,23031,0,0,0
28570,44642,22935,0,0,0
28516,44597,22852,0,0,0
28467,44570,22785,0,0,0
28404,44530,22701,0,0,0
28336,44475,22598,0,0,0
28281,44436,22514,0,0,0
28232,44411,22450,0,0,0
28167,44364,22367,0,0,0
28094,44294,22265,0,0,0
28027,44233,22178,0,0,0
27959,44180,22097,0,0,0
27879,44111,21991,0,0,0
27809,44041,21875,0,0,0
27767,44001,21788,0,0,0
27738,43980,21722,0,0,0
27700,43952,21646,0,0,0
27670,43931,21579,0,0,0
27665,43943,21555,0,0,0
27668,43968,21555,0,0,0
27672,43981,21557,0,0,0
27701,44005,21585,0,0,0
27765,44067,21670,0,0,0
27849,44150,21794,0,0,0
27947,44230,21932,0,0,0
28073,44320,22107,0,0,0
28233,44445,22341,0,0,0
28403,44585,22607,0,0,0
28580,44717,22877,0,0,0
28779,44860,23172,0,0,0
28994,45028,23501,0,0,0
29207,45199,23830,0,0,0
29421,45357,24141,0,0,0
29656,45530,24465,0,0,0
29900,45727,24811,0,0,0
30126,45916,25141,0,0,0
30331,46084,25435,0,0,0
30529,46246,25713,0,0,0
30709,46403,25980,0,0,0
30850,46523,26201,0,0,0
30960,46601,26368,0,0,0
31060,46670,26517,0,0,0
31148,46742,26656,0,0,0
31206,46789,26754,0,0,0
31249,46808,26814,0,0,0
31298,46833,26878,0,0,0
31349,46871,26950,0,0,0
31381,46896,26997,0,0,0
31404,46908,27024,0,0,0
31433,46932,27065,0,0,0
31458,46962,27111,0,0,0
31461,46968,27123,0,0,0
31460,46957,27112,0,0,0
31474,46961,27120,0,0,0
31491,46975,27137,0,0,0
31493,46969,27134,0,0,0
31496,46957,27127,0,0,0
31506,46967,27143,0,0,0
31506,46980,27155,0,0,0
31488,46969,27135,0,0,0
31473,46950,27102,0,0,0
31471,46947,27088,0,0,0
31468,46950,27076,0,0,0
31454,46933,27036,0,0,0
31441,46912,26989,0,0,0
31431,46908,26960,0,0,0
31401,46897,26922,0,0,0
31350,46856,26851,0,0,0
31300,46810,26775,0,0,0
31255,46777,26710,0,0,0
31201,46739,26631,0,0,0
31145,46687,26528,0,0,0
31105,46646,26436,0,0,0
31075,46625,26369,0,0,0
31028,46590,26296,0,0,0
30966,46531,26202,0,0,0
30914,46472,26119,0,0,0
30867,46427,26060,0,0,0
30811,46376,25998,0,0,0
30757,46322,25925,0,0,0
30720,46290,25873,0,0,0
30694,46284,25843,0,0,0
30662,46274,25805,0,0,0
30631,46253,25759,0,0,0
30618,46247,25733,0,0,0
30613,46254,25721,0,0,0
30598,46247,25690,0,0,0
30587,46231,25644,0,0,0
30595,46234,25615,0,0,0
30604,46250,25596,0,0,0
30597,46246,25557,0,0,0
30584,46224,25507,0,0,0
30576,46209,25473,0,0,0
30554,46193,25440,0,0,0
30512,46155,25378,0,0,0
30477,46116,25309,0,0,0
30458,46106,25266,0,0,0
30438,46105,25236,0,0,0
30398,46080,25185,0,0,0
30351,46039,25118,0,0,0
30308,46006,25061,0,0,0
30258,45969,25001,0,0,0
30195,45908,24914,0,0,0
30139,45848,24825,0,0,0
30094,45811,24759,0,0,0
30036,45772,24686,0,0,0
29961,45712,24584,0,0,0
29893,45649,24479,0,0,0
29837,45602,24394,0,0,0
29780,45556,24306,0,0,0
29722,45497,24200,0,0,0
29681,45453,24108,0,0,0
29656,45441,24045,0,0,0
29623,45429,23983,0,0,0
29581,45399,23903,0,0,0
29548,45376,23831,0,0,0
29517,45370,23774,0,0,0
29470,45353,23707,0,0,0
29420,45315,23620,0,0,0
29381,45279,23546,0,0,0
29344,45252,23488,0,0,0
29287,45205,23413,0,0,0
29214,45132,23313,0,0,0
29144,45064,23220,0,0,0
29069,45005,23136,0,0,0
28977,44928,23029,0,0,0
28884,44839,22910,0,0,0
28814,44771,22813,0,0,0
28756,44724,22737,0,0,0
28689,44668,22647,0,0,0
28626,44609,22551,0,0,0
28584,44574,22480,0,0,0
28546,44550,22421,0,0,0
28499,44511,22341,0,0,0
28462,44470,22260,0,0,0
28440,44453,22206,0,0,0
28408,44438,22157,0,0,0
28349,44397,22083,0,0,0
28289,44344,22002,0,0,0
28244,44311,21944,0,0,0
28202,44288,21895,0,0,0
28148,44246,21822,0,0,0
28093,44195,21739,0,0,0
28048,44164,21675,0,0,0
27993,44131,21602,0,0,0
27921,44069,21496,0,0,0
27854,44004,21389,0,0,0
27802,43960,21303,0,0,0
27747,43916,21217,0,0,0
27689,43859,21115,0,0,0
27640,43811,21022,0,0,0
27593,43785,20952,0,0,0
27535,43752,20874,0,0,0
27473,43699,20776,0,0,0
27430,43657,20695,0,0,0
27402,43635,20642,0,0,0
27367,43607,20583,0,0,0
27325,43562,20509,0,0,0
27292,43528,20452,0,0,0
27266,43509,20423,0,0,0
27239,43483,20395,0,0,0
27223,43452,20366,0,0,0
27230,43444,20375,0,0,0
27251,43465,20430,0,0,0
27277,43490,20501,0,0,0
27322,43518,20588,0,0,0
27404,43576,20725,0,0,0
27516,43665,20909,0,0,0
27643,43762,21112,0,0,0
27797,43876,21341,0,0,0
27987,44028,21623,0,0,0
28193,44205,21937,0,0,0
28393,44371,22240,0,0,0
28601,44535,22536,0,0,0
28833,44724,22853,0,0,0
29067,44924,23173,0,0,0
29281,45096,23459,0,0,0
29482,45250,23721,0,0,0
29676,45411,23982,0,0,0
29840,45554,24214,0,0,0
29964,45648,24388,0,0,0
30071,45717,24532,0,0,0
30173,45795,24682,0,0,0
30252,45864,24820,0,0,0
30303,45900,24917,0,0,0
30341,45919,24991,0,0,0
30373,45946,25067,0,0,0
30393,45966,25125,0,0,0
30405,45965,25145,0,0,0
30430,45972,25158,0,0,0
30466,46006,25190,0,0,0
30488,46035,25213,0,0,0
30491,46038,25208,0,0,0
30500,46043,25209,0,0,0
30515,46064,25228,0,0,0
30515,46073,25236,0,0,0
30513,46064,25223,0,0,0
30524,46061,25217,0,0,0
30536,46072,25224,0,0,0
30529,46067,25215,0,0,0
30515,46041,25182,0,0,0
30511,46021,25158,0,0,0
30508,46013,25144,0,0,0
30488,45991,25110,0,0,0
30457,45949,25051,0,0,0
30426,45913,24996,0,0,0
30388,45882,24944,0,0,0
30330,45832,24864,0,0,0
30263,45769,24763,0,0,0
30209,45723,24682,0,0,0
30159,45691,24620,0,0,0
30104,45650,24543,0,0,0
30059,45605,24460,0,0,0
30027,45581,24400,0,0,0
29984,45564,24348,0,0,0
29926,45527,24274,0,0,0
29875,45488,24193,0,0,0
29844,45475,24135,0,0,0
29814,45467,24088,0,0,0
29775,45434,24025,0,0,0
29739,45390,23963,0,0,0
29713,45362,23927,0,0,0
29678,45337,23895,0,0,0
29634,45292,23840,0,0,0
29606,45255,23793,0,0,0
29598,45250,23779,0,0,0
29589,45256,23769,0,0,0
29578,45250,23742,0,0,0
29577,45246,23716,0,0,0
29581,45259,23708,0,0,0
29571,45263,23688,0,0,0
29548,45241,23640,0,0,0
29534,45222,23598,0,0,0
29523,45220,23578,0,0,0
29497,45203,23549,0,0,0
29463,45160,23503,0,0,0
29434,45118,23460,0,0,0
29400,45086,23422,0,0,0
29349,45043,23360,0,0,0
29290,44983,23275,0,0,0
29242,44933,23201,0,0,0
29201,44900,23145,0,0,0
29147,44857,23074,0,0,0
29088,44802,22985,0,0,0
29040,44763,22906,0,0,0
28995,44739,22838,0,0,0
28939,44701,22750,0,0,0
28883,44652,22652,0,0,0
28841,44623,22582,0,0,0
28805,44611,22532,0,0,0
28755,44584,22464,0,0,0
28701,44545,22383,0,0,0
28655,44516,22317,0,0,0
28603,44484,22255,0,0,0
28532,44425,22169,0,0,0
28464,44359,22073,0,0,0
28415,44316,21998,0,0,0
28366,44281,21929,0,0,0
28300,44223,21832,0,0,0
28235,44157,21724,0,0,0
28188,44115,21639,0,0,0
28142,44084,21562,0,0,0
28085,44033,21464,0,0,0
28034,43983,21367,0,0,0
27997,43959,21300,0,0,0
27951,43934,21235,0,0,0
27888,43878,21142,0,0,0
27831,43819,21050,0,0,0
27783,43779,20980,0,0,0
27724,43735,20904,0,0,0
27659,43673,20807,0,0,0
27597,43613,20721,0,0,0
27533,43567,20657,0,0,0
27454,43509,20578,0,0,0
27366,43430,20473,0,0,0
27297,43365,20383,0,0,0
27244,43326,20323,0,0,0
27187,43284,20259,0,0,0
27135,43229,20179,0,0,0
27097,43191,20109,0,0,0
27059,43173,20054,0,0,0
27003,43144,19982,0,0,0
26945,43100,19888,0,0,0
26901,43067,19805,0,0,0
26861,43041,19737,0,0,0
26809,42996,19655,0,0,0
26750,42934,19558,0,0,0
26696,42881,19476,0,0,0
26638,42835,19409,0,0,0
26564,42768,19319,0,0,0
26485,42687,19207,0,0,0
26417,42622,19118,0,0,0
26350,42574,19046,0,0,0
26277,42518,18959,0,0,0
26217,42469,18875,0,0,0
26185,42458,18830,0,0,0
26163,42469,18806,0,0,0
26140,42472,18775,0,0,0
26136,42478,18758,0,0,0
26166,42515,18790,0,0,0
26218,42574,18861,0,0,0
26283,42630,18943,0,0,0
26373,42693,19051,0,0,0
26487,42786,19212,0,0,0
26610,42892,19404,0,0,0
26737,42986,19604,0,0,0
26889,43092,19831,0,0,0
27068,43230,20098,0,0,0
27256,43379,20382,0,0,0
27450,43522,20666,0,0,0
27659,43676,20967,0,0,0
27874,43850,21289,0,0,0
28072,44014,21588,0,0,0
28253,44153,21845,0,0,0
28433,44291,22095,0,0,0
28608,44441,22348,0,0,0
28761,44574,22569,0,0,0
28900,44683,22749,0,0,0
29035,44788,22919,0,0,0
29157,44892,23085,0,0,0
29250,44966,23217,0,0,0
29321,45008,23312,0,0,0
29389,45050,23400,0,0,0
29449,45098,23487,0,0,0
29488,45127,23549,0,0,0
29516,45141,23589,0,0,0
29546,45164,23639,0,0,0
29569,45192,23694,0,0,0
29571,45193,23719,0,0,0
29562,45174,23719,0,0,0
29562,45166,23730,0,0,0
29560,45168,23746,0,0,0
29549,45152,23737,0,0,0
29543,45128,23720,0,0,0
29550,45123,23726,0,0,0
29551,45126,23738,0,0,0
29531,45101,23719,0,0,0
29503,45060,23680,0,0,0
29478,45033,23653,0,0,0
29444,45011,23622,0,0,0
29392,44967,23558,0,0,0
29341,44917,23482,0,0,0
29300,44886,23425,0,0,0
29250,44853,23369,0,0,0
29183,44800,23292,0,0,0
29119,44742,23210,0,0,0
29064,44697,23142,0,0,0
29010,44651,23067,0,0,0
28953,44588,22972,0,0,0
28903,44529,22885,0,0,0
28860,44487,22823,0,0,0
28804,44441,22756,0,0,0
28737,44377,22667,0,0,0
28683,44323,22584,0,0,0
28639,44288,22522,0,0,0
28588,44248,22460,0,0,0
28538,44194,22388,0,0,0
28502,44150,22333,0,0,0
28471,44124,22304,0,0,0
28426,44087,22265,0,0,0
28377,44036,22209,0,0,0
28340,43996,22165,0,0,0
28305,43972,22139,0,0,0
28263,43939,22099,0,0,0
28222,43900,22045,0,0,0
28194,43877,22009,0,0,0
28167,43869,21989,0,0,0
28131,43849,21954,0,0,0
28094,43817,21906,0,0,0
28067,43799,21870,0,0,0
28037,43788,21839,0,0,0
27994,43758,21782,0,0,0
27956,43723,21719,0,0,0
27934,43710,21682,0,0,0
27907,43704,21652,0,0,0
27853,43665,21591,0,0,0
27786,43604,21511,0,0,0
27722,43552,21445,0,0,0
27651,43503,21381,0,0,0
27567,43428,21293,0,0,0
27490,43345,21200,0,0,0
27424,43279,21128,0,0,0
27347,43213,21053,0,0,0
27247,43122,20946,0,0,0
27146,43025,20827,0,0,0
27051,42945,20721,0,0,0
26952,42869,20614,0,0,0
26849,42780,20492,0,0,0
26761,42703,20384,0,0,0
26688,42655,20307,0,0,0
26612,42608,20227,0,0,0
26532,42546,20128,0,0,0
26465,42491,20039,0,0,0
26401,42455,19970,0,0,0
26326,42415,19893,0,0,0
26254,42360,19795,0,0,0
26205,42314,19707,0,0,0
26168,42287,19641,0,0,0
26120,42250,19562,0,0,0
26062,42196,19461,0,0,0
26010,42151,19370,0,0,0
25956,42120,19296,0,0,0
25888,42076,19209,0,0,0
25817,42016,19105,0,0,0
25759,41966,19015,0,0,0
25702,41925,18947,0,0,0
25629,41869,18866,0,0,0
25552,41796,18775,0,0,0
25484,41733,18703,0,0,0
25410,41678,18640,0,0,0
25320,41602,18550,0,0,0
25235,41519,18441,0,0,0
25175,41466,18355,0,0,0
25125,41440,18290,0,0,0
25065,41405,18210,0,0,0
25014,41370,18130,0,0,0
24983,41360,18075,0,0,0
24948,41352,18024,0,0,0
24896,41315,17944,0,0,0
24845,41264,17851,0,0,0
24806,41229,17777,0,0,0
24765,41195,17709,0,0,0
24709,41135,17620,0,0,0
24648,41067,17533,0,0,0
24588,41017,17472,0,0,0
24512,40963,17407,0,0,0
24421,40885,17317,0,0,0
24340,40808,17232,0,0,0
24275,40758,17173,0,0,0
24216,40719,17122,0,0,0
24168,40680,17071,0,0,0
24157,40670,17059,0,0,0
24183,40706,17104,0,0,0
24220,40757,17175,0,0,0
24268,40804,17257,0,0,0
24347,40871,17375,0,0,0
24449,40964,17537,0,0,0
24555,41058,17707,0,0,0
24669,41141,17872,0,0,0
24807,41241,18069,0,0,0
24960,41366,18305,0,0,0
25105,41484,18545,0,0,0
25245,41584,18776,0,0,0
25401,41697,19024,0,0,0
25566,41826,19286,0,0,0
25723,41945,19523,0,0,0
25877,42052,19738,0,0,0
26041,42176,19965,0,0,0
26202,42311,20199,0,0,0
26338,42422,20399,0,0,0
26453,42506,20569,0,0,0
26556,42587,20734,0,0,0
26636,42659,20880,0,0,0
26686,42700,20979,0,0,0
26731,42726,21051,0,0,0
26786,42768,21133,0,0,0
26831,42811,21207,0,0,0
26846,42821,21237,0,0,0
26845,42812,21237,0,0,0
26848,42814,21246,0,0,0
26842,42811,21248,0,0,0
26819,42776,21215,0,0,0
26802,42736,21173,0,0,0
26798,42719,21151,0,0,0
26784,42707,21130,0,0,0
26751,42679,21088,0,0,0
26717,42647,21047,0,0,0
26683,42628,21026,0,0,0
26638,42600,20996,0,0,0
26589,42548,20938,0,0,0
26553,42501,20887,0,0,0
26523,42477,20862,0,0,0
26476,42443,20825,0,0,0
26417,42386,20761,0,0,0
26365,42331,20701,0,0,0
26316,42290,20655,0,0,0
26248,42236,20591,0,0,0
26170,42164,20498,0,0,0
26105,42105,20411,0,0,0
26051,42069,20345,0,0,0
25984,42021,20267,0,0,0
25910,41955,20165,0,0,0
25847,41898,20074,0,0,0
25786,41853,19999,0,0,0
25716,41792,19911,0,0,0
25647,41722,19811,0,0,0
25595,41676,19738,0,0,0
25555,41654,19689,0,0,0
25508,41621,19629,0,0,0
25461,41576,19562,0,0,0
25425,41545,19519,0,0,0
25386,41521,19487,0,0,0
25335,41482,19435,0,0,0
25293,41437,19377,0,0,0
25278,41414,19350,0,0,0
25271,41409,19342,0,0,0
25253,41391,19317,0,0,0
25233,41370,19286,0,0,0
25224,41376,19280,0,0,0
25210,41387,19277,0,0,0
25183,41376,19249,0,0,0
25167,41358,19217,0,0,0
25168,41358,19206,0,0,0
25165,41357,19195,0,0,0
25147,41332,19155,0,0,0
25125,41298,19106,0,0,0
25103,41275,19072,0,0,0
25066,41243,19027,0,0,0
25011,41188,18954,0,0,0
24963,41139,18887,0,0,0
24926,41115,18850,0,0,0
24882,41088,18810,0,0,0
24837,41046,18751,0,0,0
24808,41018,18699,0,0,0
24786,41013,18663,0,0,0
24748,41000,18615,0,0,0
24699,40966,18543,0,0,0
24663,40939,18479,0,0,0
24637,40925,18432,0,0,0
24594,40895,18370,0,0,0
24535,40838,18282,0,0,0
24477,40785,18201,0,0,0
24412,40742,18133,0,0,0
24326,40683,18048,0,0,0
24229,40603,17942,0,0,0
24143,40535,17847,0,0,0
24062,40484,17766,0,0,0
23970,40420,17672,0,0,0
23879,40346,17572,0,0,0
23810,40292,17494,0,0,0
23752,40252,17429,0,0,0
23686,40197,17343,0,0,0
23628,40138,17247,0,0,0
23594,40110,17178,0,0,0
23570,40104,17127,0,0,0
23537,40085,17058,0,0,0
23512,40060,16984,0,0,0
23504,40053,16934,0,0,0
23489,40047,16886,0,0,0
23454,40017,16811,0,0,0
23418,39979,16725,0,0,0
23395,39959,16661,0,0,0
23367,39944,16606,0,0,0
23323,39910,16532,0,0,0
23280,39874,16458,0,0,0
23251,39862,16412,0,0,0
23219,39852,16370,0,0,0
23177,39823,16308,0,0,0
23141,39799,16250,0,0,0
23115,39796,16212,0,0,0
23090,39791,16172,0,0,0
23071,39772,16119,0,0,0
23076,39768,16087,0,0,0
23102,39795,16098,0,0,0
23127,39825,16121,0,0,0
23152,39844,16147,0,0,0
23197,39876,16210,0,0,0
23262,39929,16315,0,0,0
23337,39982,16433,0,0,0
23428,40034,16561,0,0,0
23552,40114,16727,0,0,0
23701,40227,16938,0,0,0
23853,40343,17159,0,0,0
24008,40453,17385,0,0,0
24177,40580,17643,0,0,0
24354,40726,17926,0,0,0
24522,40862,18196,0,0,0
24687,40987,18452,0,0,0
24864,41130,18725,0,0,0
25042,41286,19003,0,0,0
25199,41419,19242,0,0,0
25343,41531,19450,0,0,0
25484,41648,19657,0,0,0
25606,41757,19846,0,0,0
25699,41832,19986,0,0,0
25783,41886,20095,0,0,0
25871,41950,20209,0,0,0
25946,42012,20315,0,0,0
25997,42048,20384,0,0,0
26036,42067,20427,0,0,0
26076,42094,20475,0,0,0
26102,42117,20512,0,0,0
26109,42113,20516,0,0,0
26118,42101,20511,0,0,0
26137,42106,20523,0,0,0
26144,42108,20529,0,0,0
26136,42091,20510,0,0,0
26127,42076,20487,0,0,0
26118,42076,20476,0,0,0
26101,42070,20454,0,0,0
26079,42042,20405,0,0,0
26072,42023,20366,0,0,0
26076,42029,20357,0,0,0
26067,42028,20344,0,0,0
26046,42006,20306,0,0,0
26034,41984,20269,0,0,0
26021,41972,20241,0,0,0
25987,41946,20189,0,0,0
25944,41901,20107,0,0,0
25914,41865,20035,0,0,0
25888,41848,19984,0,0,0
25844,41816,19920,0,0,0
25787,41761,19839,0,0,0
25734,41714,19773,0,0,0
25683,41680,19720,0,0,0
25622,41633,19646,0,0,0
25561,41576,19557,0,0,0
25522,41540,19492,0,0,0
25495,41527,19449,0,0,0
25465,41508,19401,0,0,0
25442,41489,19354,0,0,0
25440,41491,19336,0,0,0
25440,41504,19331,0,0,0
25426,41498,19309,0,0,0
25413,41483,19279,0,0,0
25422,41492,19274,0,0,0
25438,41513,19282,0,0,0
25443,41513,19274,0,0,0
25448,41503,19262,0,0,0
25458,41505,19270,0,0,0
25452,41502,19275,0,0,0
25422,41473,19249,0,0,0
25387,41435,19210,0,0,0
25360,41411,19184,0,0,0
25332,41387,19152,0,0,0
25297,41345,19094,0,0,0
25273,41309,19041,0,0,0
25264,41302,19017,0,0,0
25251,41300,18991,0,0,0
25237,41289,18946,0,0,0
25235,41292,18909,0,0,0
25238,41316,18892,0,0,0
25227,41330,18863,0,0,0
25212,41323,18811,0,0,0
25209,41320,18767,0,0,0
25213,41331,18745,0,0,0
25202,41332,18713,0,0,0
25180,41315,18661,0,0,0
25162,41300,18618,0,0,0
25140,41292,18588,0,0,0
25104,41265,18542,0,0,0
25069,41224,18474,0,0,0
25053,41200,18418,0,0,0
25052,41201,18384,0,0,0
25051,41207,18345,0,0,0
25058,41220,18298,0,0,0
25086,41260,18269,0,0,0
25125,41319,18253,0,0,0
25156,41362,18214,0,0,0
25180,41389,18154,0,0,0
25212,41423,18111,0,0,0
25236,41457,18079,0,0,0
25241,41467,18029,0,0,0
25240,41460,17973,0,0,0
25243,41463,17943,0,0,0
25232,41464,17920,0,0,0
25198,41434,17868,0,0,0
25156,41389,17800,0,0,0
25125,41363,17750,0,0,0
25097,41348,17708,0,0,0
25068,41324,17644,0,0,0
25055,41306,17577,0,0,0
25061,41320,17538,0,0,0
25066,41344,17506,0,0,0
25066,41354,17457,0,0,0
25077,41370,17412,0,0,0
25097,41407,17388,0,0,0
25117,41443,17362,0,0,0
25135,41463,17323,0,0,0
25164,41487,17303,0,0,0
25201,41527,17319,0,0,0
25226,41555,17340,0,0,0
25247,41562,17356,0,0,0
25289,41580,17398,0,0,0
25346,41621,17481,0,0,0
25402,41661,17581,0,0,0
25468,41694,17692,0,0,0
25572,41754,17847,0,0,0
25711,41851,18059,0,0,0
25862,41960,18295,0,0,0
26028,42073,18550,0,0,0
26223,42213,18846,0,0,0
26438,42380,19182,0,0,0
26652,42543,19515,0,0,0
26866,42696,19839,0,0,0
27093,42866,20180,0,0,0
27324,43049,20529,0,0,0
27540,43214,20854,0,0,0
27747,43363,21158,0,0,0
27954,43516,21463,0,0,0
28140,43659,21754,0,0,0
28287,43762,21997,0,0,0
28415,43837,22197,0,0,0
28538,43915,22386,0,0,0
28641,43990,22554,0,0,0
28712,44035,22674,0,0,0
28770,44069,22768,0,0,0
28825,44116,22868,0,0,0
28865,44156,22961,0,0,0
28883,44163,23019,0,0,0
28898,44152,23057,0,0,0
28918,44154,23105,0,0,0
28929,44158,23147,0,0,0
28930,44144,23159,0,0,0
28939,44134,23171,0,0,0
28963,44147,23209,0,0,0
28982,44163,23246,0,0,0
28990,44161,23259,0,0,0
28999,44159,23270,0,0,0
29007,44169,23293,0,0,0
28998,44167,23299,0,0,0
28978,44142,23277,0,0,0
28968,44122,23263,0,0,0
28962,44118,23268,0,0,0
28940,44106,23260,0,0,0
28909,44074,23228,0,0,0
28888,44047,23198,0,0,0
28865,44035,23178,0,0,0
28822,44008,23138,0,0,0
28768,43959,23070,0,0,0
28725,43919,23008,0,0,0
28686,43895,22956,0,0,0
28633,43857,22886,0,0,0
28576,43804,22800,0,0,0
28528,43760,22731,0,0,0
28478,43723,22677,0,0,0
28412,43667,22604,0,0,0
28343,43597,22516,0,0,0
28287,43542,22446,0,0,0
28230,43500,22388,0,0,0
28169,43449,22314,0,0,0
28120,43400,22239,0,0,0
28097,43379,22195,0,0,0
28079,43374,22172,0,0,0
28045,43350,22137,0,0,0
28011,43315,22097,0,0,0
27992,43299,22080,0,0,0
27973,43287,22069,0,0,0
27940,43253,22032,0,0,0
27915,43220,21993,0,0,0
27905,43211,21983,0,0,0
27886,43209,21979,0,0,0
27849,43185,21949,0,0,0
27813,43154,21907,0,0,0
27791,43139,21881,0,0,0
27771,43128,21853,0,0,0
27744,43102,21802,0,0,0
27724,43080,21758,0,0,0
27708,43077,21737,0,0,0
27679,43069,21707,0,0,0
27638,43039,21652,0,0,0
27606,43009,21601,0,0,0
27574,42991,21564,0,0,0
27520,42958,21509,0,0,0
27452,42896,21425,0,0,0
27397,42839,21347,0,0,0
27349,42800,21286,0,0,0
27288,42752,21209,0,0,0
27221,42689,21114,0,0,0
27167,42640,21033,0,0,0
27121,42615,20974,0,0,0
27066,42585,20903,0,0,0
27012,42546,20814,0,0,0
26978,42524,20737,0,0,0
26957,42522,20677,0,0,0
26927,42511,20605,0,0,0
26896,42485,20523,0,0,0
26876,42471,20463,0,0,0
26852,42464,20415,0,0,0
26801,42429,20344,0,0,0
26739,42372,20258,0,0,0
26689,42330,20193,0,0,0
26646,42305,20140,0,0,0
26599,42271,20067,0,0,0
26570,42241,19991,0,0,0
26563,42242,19943,0,0,0
26554,42253,19902,0,0,0
26531,42246,19837,0,0,0
26509,42232,19762,0,0,0
26496,42234,19707,0,0,0
26477,42236,19654,0,0,0
26446,42213,19577,0,0,0
26420,42188,19503,0,0,0
26405,42183,19457,0,0,0
26378,42174,19414,0,0,0
26333,42140,19351,0,0,0
26284,42098,19287,0,0,0
26235,42068,19241,0,0,0
26182,42036,19193,0,0,0
26136,41994,19133,0,0,0
26125,41974,19097,0,0,0
26146,41992,19107,0,0,0
26179,42024,19141,0,0,0
26233,42059,19194,0,0,0
26323,42122,19295,0,0,0
26441,42225,19453,0,0,0
26572,42341,19640,0,0,0
26725,42460,19844,0,0,0
26913,42608,20095,0,0,0
27123,42788,20396,0,0,0
27340,42966,20714,0,0,0
27568,43136,21037,0,0,0
27815,43319,21393,0,0,0
28066,43516,21778,0,0,0
28299,43697,22153,0,0,0
28518,43856,22505,0,0,0
28735,44019,22856,0,0,0
28938,44184,23197,0,0,0
29118,44324,23494,0,0,0
29291,44446,23758,0,0,0
29469,44583,24025,0,0,0
29640,44728,24286,0,0,0
29790,44843,24504,0,0,0
29935,44941,24690,0,0,0
30080,45051,24878,0,0,0
30205,45161,25052,0,0,0
30298,45237,25181,0,0,0
30377,45290,25280,0,0,0
30459,45349,25383,0,0,0
30527,45405,25476,0,0,0
30567,45434,25538,0,0,0
30596,45452,25591,0,0,0
30627,45484,25664,0,0,0
30643,45510,25731,0,0,0
30639,45508,25766,0,0,0
30634,45496,25790,0,0,0
30630,45495,25823,0,0,0
30618,45489,25849,0,0,0
30604,45468,25853,0,0,0
30608,45456,25860,0,0,0
30625,45468,25884,0,0,0
30631,45474,25898,0,0,0
30628,45462,25891,0,0,0
30628,45452,25891,0,0,0
30619,45451,25902,0,0,0
30588,45436,25894,0,0,0
30548,45403,25857,0,0,0
30514,45375,25820,0,0,0
30480,45356,25788,0,0,0
30434,45323,25735,0,0,0
30383,45273,25657,0,0,0
30338,45231,25586,0,0,0
30286,45198,25522,0,0,0
30217,45147,25437,0,0,0
30146,45079,25336,0,0,0
30086,45023,25250,0,0,0
30029,44977,25177,0,0,0
29964,44917,25087,0,0,0
29905,44855,24990,0,0,0
29858,44817,24914,0,0,0
29807,44790,24852,0,0,0
29741,44745,24771,0,0,0
29681,44692,24684,0,0,0
29648,44666,24632,0,0,0
29628,44662,24603,0,0,0
29608,44656,24567,0,0,0
29604,44659,24536,0,0,0
29618,44689,24535,0,0,0
29627,44719,24539,0,0,0
29612,44715,24514,0,0,0
29589,44694,24473,0,0,0
29569,44681,24447,0,0,0
29541,44665,24417,0,0,0
29499,44622,24359,0,0,0
29464,44576,24301,0,0,0
29439,44551,24266,0,0,0
29404,44525,24226,0,0,0
29361,44484,24164,0,0,0
29324,44447,24103,0,0,0
29289,44429,24059,0,0,0
29244,44405,24008,0,0,0
29195,44365,23936,0,0,0
29158,44336,23873,0,0,0
29128,44325,23829,0,0,0
29086,44300,23770,0,0,0
29031,44250,23688,0,0,0
28983,44201,23611,0,0,0
28930,44161,23545,0,0,0
28862,44107,23459,0,0,0
28789,44036,23352,0,0,0
28726,43975,23257,0,0,0
28659,43928,23179,0,0,0
28575,43867,23085,0,0,0
28483,43792,22976,0,0,0
28400,43729,22881,0,0,0
28321,43681,22797,0,0,0
28240,43627,22701,0,0,0
28174,43574,22599,0,0,0
28135,43549,22525,0,0,0
28107,43544,22471,0,0,0
28073,43528,22401,0,0,0
28043,43503,22321,0,0,0
28026,43495,22261,0,0,0
28005,43488,22208,0,0,0
27963,43451,22128,0,0,0
27918,43400,22036,0,0,0
27881,43364,21965,0,0,0
27838,43329,21900,0,0,0
27771,43268,21809,0,0,0
27693,43192,21707,0,0,0
27618,43128,21624,0,0,0
27527,43058,21539,0,0,0
27416,42961,21424,0,0,0
27308,42862,21306,0,0,0
27213,42788,21213,0,0,0
27120,42726,21123,0,0,0
27027,42658,21019,0,0,0
26949,42599,20925,0,0,0
26887,42565,20857,0,0,0
26823,42528,20780,0,0,0
26755,42473,20679,0,0,0
26704,42430,20587,0,0,0
26671,42412,20521,0,0,0
26633,42384,20453,0,0,0
26598,42339,20378,0,0,0
26588,42312,20332,0,0,0
26593,42318,20328,0,0,0
26589,42325,20335,0,0,0
26585,42324,20347,0,0,0
26604,42343,20398,0,0,0
26644,42388,20495,0,0,0
26695,42439,20611,0,0,0
26771,42495,20748,0,0,0
26894,42586,20938,0,0,0
27055,42716,21184,0,0,0
27237,42862,21463,0,0,0
27448,43029,21779,0,0,0
27697,43239,22152,0,0,0
27965,43476,22561,0,0,0
28230,43705,22961,0,0,0
28497,43922,23350,0,0,0
28775,44152,23754,0,0,0
29042,44380,24156,0,0,0
29286,44575,24516,0,0,0
29521,44748,24847,0,0,0
29755,44927,25174,0,0,0
29965,45097,25478,0,0,0
30136,45228,25727,0,0,0
30283,45331,25935,0,0,0
30415,45435,26137,0,0,0
30521,45528,26316,0,0,0
30595,45586,26446,0,0,0
30658,45628,26550,0,0,0
30724,45680,26660,0,0,0
30783,45733,26758,0,0,0
30832,45771,26825,0,0,0
30891,45815,26888,0,0,0
30960,45879,26972,0,0,0
31018,45942,27054,0,0,0
31069,45987,27121,0,0,0
31127,46037,27193,0,0,0
31187,46101,27280,0,0,0
31227,46152,27350,0,0,0
31254,46175,27390,0,0,0
31287,46198,27429,0,0,0
31317,46228,27481,0,0,0
31327,46245,27516,0,0,0
31329,46244,27529,0,0,0
31348,46254,27552,0,0,0
31376,46278,27588,0,0,0
31390,46288,27602,0,0,0
31394,46279,27587,0,0,0
31400,46274,27575,0,0,0
31397,46274,27567,0,0,0
31366,46250,27530,0,0,0
31317,46203,27466,0,0,0
31268,46159,27405,0,0,0
31211,46119,27344,0,0,0
31136,46058,27255,0,0,0
31054,45983,27148,0,0,0
30982,45925,27058,0,0,0
30910,45876,26977,0,0,0
30821,45807,26875,0,0,0
30728,45727,26763,0,0,0
30648,45663,26670,0,0,0
30569,45605,26585,0,0,0
30484,45529,26475,0,0,0
30407,45451,26360,0,0,0
30348,45399,26273,0,0,0
30293,45362,26201,0,0,0
30238,45316,26115,0,0,0
30199,45277,26038,0,0,0
30179,45265,25999,0,0,0
30158,45258,25969,0,0,0
30129,45231,25920,0,0,0
30103,45202,25870,0,0,0
30078,45189,25840,0,0,0
30041,45172,25803,0,0,0
29996,45133,25739,0,0,0
29964,45095,25681,0,0,0
29940,45076,25646,0,0,0
29901,45048,25605,0,0,0
29851,45006,25543,0,0,0
29811,44975,25492,0,0,0
29773,44955,25459,0,0,0
29719,44917,25411,0,0,0
29659,44858,25335,0,0,0
29614,44810,25260,0,0,0
29573,44776,25193,0,0,0
29519,44731,25107,0,0,0
29461,44673,25004,0,0,0
29416,44630,24918,0,0,0
29374,44603,24846,0,0,0
29317,44563,24760,0,0,0
29252,44507,24661,0,0,0
29185,44456,24574,0,0,0
29104,44403,24489,0,0,0
29001,44327,24377,0,0,0
28897,44234,24246,0,0,0
28806,44158,24134,0,0,0
28716,44092,24034,0,0,0
28619,44013,23921,0,0,0
28533,43936,23808,0,0,0
28467,43887,23723,0,0,0
28405,43854,23647,0,0,0
28333,43804,23544,0,0,0
28260,43743,23426,0,0,0
28194,43696,23327,0,0,0
28124,43651,23230,0,0,0
28046,43584,23106,0,0,0
27976,43513,22983,0,0,0
27920,43463,22890,0,0,0
27857,43416,22805,0,0,0
27779,43350,22700,0,0,0
27704,43280,22595,0,0,0
27638,43232,22514,0,0,0
27564,43183,22433,0,0,0
27481,43113,22328,0,0,0
27409,43046,22225,0,0,0
27347,42997,22142,0,0,0
27281,42946,22054,0,0,0
27219,42888,21953,0,0,0
27176,42850,21872,0,0,0
27141,42838,21815,0,0,0
27090,42819,21747,0,0,0
27032,42783,21663,0,0,0
26989,42754,21589,0,0,0
26951,42737,21528,0,0,0
26895,42701,21451,0,0,0
26830,42643,21354,0,0,0
26773,42588,21266,0,0,0
26715,42541,21191,0,0,0
26638,42475,21097,0,0,0
26555,42391,20985,0,0,0
26484,42322,20892,0,0,0
26421,42275,20822,0,0,0
26352,42224,20741,0,0,0
26289,42169,20654,0,0,0
26247,42139,20594,0,0,0
26210,42122,20549,0,0,0
26163,42089,20484,0,0,0
26122,42053,20408,0,0,0
26104,42046,20363,0,0,0
26100,42062,20347,0,0,0
26101,42075,20339,0,0,0
26133,42095,20365,0,0,0
26204,42153,20456,0,0,0
26298,42235,20597,0,0,0
26405,42316,20758,0,0,0
26538,42410,20954,0,0,0
26705,42543,21211,0,0,0
26886,42699,21508,0,0,0
27072,42851,21815,0,0,0
27287,43019,22153,0,0,0
27532,43222,22541,0,0,0
27789,43439,22952,0,0,0
28053,43648,23358,0,0,0
28335,43867,23777,0,0,0
28633,44114,24217,0,0,0
28918,44358,24634,0,0,0
29187,44583,25009,0,0,0
29454,44801,25367,0,0,0
29705,45015,25717,0,0,0
29915,45197,26024,0,0,0
30092,45339,26273,0,0,0
30257,45470,26496,0,0,0
30409,45598,26712,0,0,0
30534,45699,26892,0,0,0
30640,45766,27031,0,0,0
30736,45824,27159,0,0,0
30814,45880,27284,0,0,0
30861,45911,27377,0,0,0
30887,45920,27441,0,0,0
30914,45937,27509,0,0,0
30938,45968,27585,0,0,0
30954,45989,27637,0,0,0
30974,45997,27667,0,0,0
31011,46022,27711,0,0,0
31052,46062,27768,0,0,0
31085,46088,27807,0,0,0
31123,46110,27836,0,0,0
31170,46152,27886,0,0,0
31202,46196,27937,0,0,0
31206,46210,27954,0,0,0
31197,46201,27947,0,0,0
31189,46195,27950,0,0,0
31166,46182,27946,0,0,0
31116,46133,27902,0,0,0
31055,46067,27842,0,0,0
30993,46010,27795,0,0,0
30910,45944,27739,0,0,0
30797,45845,27647,0,0,0
30671,45729,27536,0,0,0
30543,45624,27430,0,0,0
30398,45507,27306,0,0,0
30232,45361,27144,0,0,0
30070,45217,26975,0,0,0
29922,45100,26823,0,0,0
29783,44995,26671,0,0,0
29664,44891,26513,0,0,0
29583,44816,26381,0,0,0
29537,44785,26289,0,0,0
29502,44768,26208,0,0,0
29480,44752,26127,0,0,0
29487,44755,26068,0,0,0
29507,44784,26035,0,0,0
29516,44809,25999,0,0,0
29523,44825,25953,0,0,0
29549,44855,25927,0,0,0
29583,44902,25926,0,0,0
29605,44931,25916,0,0,0
29619,44938,25888,0,0,0
29636,44952,25874,0,0,0
29647,44979,25878,0,0,0
29639,44989,25863,0,0,0
29624,44980,25828,0,0,0
29621,44981,25809,0,0,0
29619,44988,25798,0,0,0
29602,44972,25760,0,0,0
29583,44942,25705,0,0,0
29576,44932,25673,0,0,0
29566,44937,25653,0,0,0
29544,44926,25612,0,0,0
29525,44905,25561,0,0,0
29516,44898,25529,0,0,0
29492,44889,25495,0,0,0
29440,44853,25428,0,0,0
29381,44808,25342,0,0,0
29332,44783,25266,0,0,0
29284,44760,25187,0,0,0
29232,44717,25084,0,0,0
29192,44677,24986,0,0,0
29168,44666,24919,0,0,0
29144,44664,24858,0,0,0
29119,44649,24781,0,0,0
29103,44640,24709,0,0,0
29096,44654,24656,0,0,0
29086,44671,24597,0,0,0
29077,44670,24517,0,0,0
29082,44670,24444,0,0,0
29091,44683,24393,0,0,0
29078,44681,24338,0,0,0
29049,44654,24262,0,0,0
29021,44623,24194,0,0,0
28985,44600,24146,0,0,0
28923,44558,24081,0,0,0
28843,44488,23988,0,0,0
28772,44418,23899,0,0,0
28711,44364,23821,0,0,0
28643,44304,23725,0,0,0
28574,44236,23612,0,0,0
28523,44187,23518,0,0,0
28485,44159,23446,0,0,0
28440,44127,23366,0,0,0
28393,44087,23276,0,0,0
28355,44063,23208,0,0,0
28314,44048,23156,0,0,0
28257,44014,23085,0,0,0
28202,43968,22999,0,0,0
28166,43944,22933,0,0,0
28138,43931,22884,0,0,0
28103,43901,22820,0,0,0
28075,43870,22751,0,0,0
28062,43864,22702,0,0,0
28042,43861,22658,0,0,0
27997,43830,22586,0,0,0
27941,43784,22500,0,0,0
27891,43752,22434,0,0,0
27842,43727,22372,0,0,0
27789,43687,22286,0,0,0
27752,43650,22199,0,0,0
27734,43638,22142,0,0,0
27708,43628,22093,0,0,0
27668,43596,22023,0,0,0
27629,43559,21949,0,0,0
27596,43540,21895,0,0,0
27551,43515,21831,0,0,0
27496,43465,21736,0,0,0
27452,43418,21648,0,0,0
27415,43391,21583,0,0,0
27365,43356,21511,0,0,0
27308,43298,21417,0,0,0
27264,43250,21335,0,0,0
27230,43228,21281,0,0,0
27185,43205,21224,0,0,0
27136,43171,21154,0,0,0
27103,43148,21104,0,0,0
27084,43145,21085,0,0,0
27069,43143,21076,0,0,0
27072,43142,21075,0,0,0
27114,43173,21118,0,0,0
27188,43239,21213,0,0,0
27278,43317,21339,0,0,0
27397,43407,21500,0,0,0
27560,43538,21730,0,0,0
27757,43708,22023,0,0,0
27971,43885,22342,0,0,0
28207,44068,22686,0,0,0
28473,44280,23086,0,0,0
28753,44514,23523,0,0,0
29029,44735,23946,0,0,0
29314,44947,24364,0,0,0
29618,45181,24809,0,0,0
29923,45424,25262,0,0,0
30210,45645,25682,0,0,0
30489,45854,26076,0,0,0
30766,46073,26465,0,0,0
31019,46285,26833,0,0,0
31233,46462,27150,0,0,0
31427,46613,27430,0,0,0
31607,46762,27700,0,0,0
31756,46895,27938,0,0,0
31870,46990,28122,0,0,0
31973,47067,28278,0,0,0
32068,47145,28426,0,0,0
32144,47207,28546,0,0,0
32201,47241,28624,0,0,0
32256,47273,28696,0,0,0
32310,47320,28787,0,0,0
32348,47356,28866,0,0,0
32380,47372,28920,0,0,0
32426,47399,28980,0,0,0
32478,47447,29056,0,0,0
32510,47487,29113,0,0,0
32529,47509,29142,0,0,0
32562,47542,29181,0,0,0
32604,47592,29236,0,0,0
32636,47630,29274,0,0,0
32663,47647,29292,0,0,0
32697,47673,29321,0,0,0
32723,47707,29361,0,0,0
32727,47719,29378,0,0,0
32721,47708,29374,0,0,0
32717,47701,29371,0,0,0
32699,47694,29364,0,0,0
32654,47661,29320,0,0,0
32597,47607,29246,0,0,0
32545,47563,29176,0,0,0
32490,47524,29107,0,0,0
32420,47462,29009,0,0,0
32357,47393,28896,0,0,0
32318,47353,28809,0,0,0
32284,47329,28738,0,0,0
32238,47289,28649,0,0,0
32194,47246,28556,0,0,0
32162,47226,28490,0,0,0
32125,47211,28433,0,0,0
32075,47171,28356,0,0,0
32032,47126,28275,0,0,0
32006,47107,28220,0,0,0
31981,47097,28175,0,0,0
31950,47071,28112,0,0,0
31926,47047,28055,0,0,0
31912,47045,28025,0,0,0
31889,47041,27994,0,0,0
31855,47015,27944,0,0,0
31821,46989,27902,0,0,0
31791,46981,27886,0,0,0
31750,46968,27864,0,0,0
31705,46939,27818,0,0,0
31680,46920,27779,0,0,0
31667,46919,27759,0,0,0
31643,46906,27726,0,0,0
31615,46876,27671,0,0,0
31606,46860,27628,0,0,0
31603,46866,27610,0,0,0
31582,46862,27580,0,0,0
31548,46834,27527,0,0,0
31520,46811,27480,0,0,0
31492,46798,27442,0,0,0
31446,46766,27378,0,0,0
31389,46710,27283,0,0,0
31346,46670,27200,0,0,0
31311,46650,27134,0,0,0
31267,46618,27052,0,0,0
31218,46574,26958,0,0,0
31178,46545,26882,0,0,0
31132,46520,26814,0,0,0
31065,46466,26718,0,0,0
30991,46394,26604,0,0,0
30926,46339,26504,0,0,0
30859,46292,26410,0,0,0
30779,46225,26294,0,0,0
30709,46155,26175,0,0,0
30662,46111,26085,0,0,0
30615,46077,26009,0,0,0
30553,46022,25913,0,0,0
30487,45960,25813,0,0,0
30425,45921,25735,0,0,0
30359,45888,25658,0,0,0
30289,45835,25552,0,0,0
30235,45787,25447,0,0,0
30201,45769,25372,0,0,0
30168,45758,25303,0,0,0
30130,45733,25215,0,0,0
30096,45707,25134,0,0,0
30065,45695,25075,0,0,0
30018,45671,25005,0,0,0
29959,45621,24907,0,0,0
29910,45572,24813,0,0,0
29863,45536,24739,0,0,0
29798,45490,24655,0,0,0
29728,45425,24552,0,0,0
29674,45372,24463,0,0,0
29630,45340,24399,0,0,0
29574,45301,24325,0,0,0
29516,45252,24234,0,0,0
29471,45216,24154,0,0,0
29429,45195,24090,0,0,0
29372,45162,24011,0,0,0
29311,45117,23914,0,0,0
29259,45085,23832,0,0,0
29211,45066,23769,0,0,0
29154,45033,23693,0,0,0
29100,44990,23605,0,0,0
29065,44966,23533,0,0,0
29037,44959,23474,0,0,0
29003,44937,23399,0,0,0
28974,44908,23319,0,0,0
28962,44904,23269,0,0,0
28951,44911,23232,0,0,0
28922,44897,23169,0,0,0
28893,44874,23095,0,0,0
28877,44866,23040,0,0,0
28853,44859,22985,0,0,0
28811,44831,22903,0,0,0
28774,44798,22814,0,0,0
28755,44787,22748,0,0,0
28738,44786,22690,0,0,0
28718,44769,22610,0,0,0
28705,44750,22530,0,0,0
28700,44748,22476,0,0,0
28687,44745,22425,0,0,0
28661,44720,22353,0,0,0
28639,44693,22287,0,0,0
28624,44683,22250,0,0,0
28602,44672,22218,0,0,0
28576,44648,22182,0,0,0
28581,44644,22181,0,0,0
28619,44678,22237,0,0,0
28673,44725,22325,0,0,0
28755,44782,22438,0,0,0
28889,44879,22615,0,0,0
29070,45028,22866,0,0,0
29271,45197,23160,0,0,0
29496,45373,23486,0,0,0
29758,45579,23863,0,0,0
30045,45817,24283,0,0,0
30334,46056,24709,0,0,0
30628,46290,25132,0,0,0
30932,46533,25570,0,0,0
31227,46777,26011,0,0,0
31496,46992,26423,0,0,0
31753,47179,26803,0,0,0
32010,47368,27175,0,0,0
32251,47555,27537,0,0,0
32453,47705,27853,0,0,0
32623,47822,28123,0,0,0
32778,47935,28379,0,0,0
32911,48036,28609,0,0,0
33011,48097,28781,0,0,0
33095,48133,28911,0,0,0
33180,48179,29040,0,0,0
33252,48229,29155,0,0,0
33300,48251,29225,0,0,0
33341,48259,29271,0,0,0
33385,48280,29324,0,0,0
33412,48296,29370,0,0,0
33415,48284,29388,0,0,0
33409,48260,29393,0,0,0
33401,48247,29415,0,0,0
33381,48229,29433,0,0,0
33347,48187,29419,0,0,0
33319,48149,29404,0,0,0
33299,48139,29413,0,0,0
33274,48136,29420,0,0,0
33244,48120,29403,0,0,0
33233,48116,29392,0,0,0
33242,48139,29406,0,0,0
33246,48159,29409,0,0,0
33247,48165,29389,0,0,0
33265,48183,29377,0,0,0
33290,48222,29377,0,0,0
33292,48243,29354,0,0,0
33273,48235,29301,0,0,0
33258,48231,29251,0,0,0
33242,48239,29207,0,0,0
33212,48232,29138,0,0,0
33175,48205,29047,0,0,0
33149,48183,28967,0,0,0
33123,48174,28900,0,0,0
33081,48146,28814,0,0,0
33030,48096,28713,0,0,0
32988,48056,28636,0,0,0
32947,48028,28584,0,0,0
32893,47988,28518,0,0,0
32839,47942,28441,0,0,0
32802,47922,28388,0,0,0
32773,47919,28348,0,0,0
32741,47903,28286,0,0,0
32718,47882,28213,0,0,0
32721,47890,28167,0,0,0
32735,47918,28139,0,0,0
32741,47937,28094,0,0,0
32758,47959,28046,0,0,0
32796,48008,28023,0,0,0
32830,48063,28003,0,0,0
32847,48093,27953,0,0,0
32863,48112,27886,0,0,0
32881,48146,27831,0,0,0
32886,48176,27772,0,0,0
32874,48171,27686,0,0,0
32863,48149,27602,0,0,0
32852,48134,27540,0,0,0
32818,48105,27474,0,0,0
32766,48044,27387,0,0,0
32711,47974,27303,0,0,0
32649,47912,27234,0,0,0
32569,47836,27149,0,0,0
32480,47740,27033,0,0,0
32404,47656,26925,0,0,0
32338,47597,26838,0,0,0
32263,47534,26741,0,0,0
32188,47459,26626,0,0,0
32127,47398,26530,0,0,0
32066,47358,26460,0,0,0
31989,47308,26376,0,0,0
31904,47235,26269,0,0,0
31832,47170,26175,0,0,0
31763,47119,26099,0,0,0
31681,47052,26002,0,0,0
31592,46960,25881,0,0,0
31513,46874,25774,0,0,0
31436,46804,25681,0,0,0
31344,46723,25569,0,0,0
31252,46633,25446,0,0,0
31174,46563,25347,0,0,0
31095,46503,25256,0,0,0
31001,46422,25141,0,0,0
30909,46336,25014,0,0,0
30835,46277,24910,0,0,0
30766,46236,24814,0,0,0
30694,46184,24697,0,0,0
30643,46138,24578,0,0,0
30618,46122,24491,0,0,0
30593,46118,24423,0,0,0
30553,46094,24340,0,0,0
30511,46059,24254,0,0,0
30471,46036,24189,0,0,0
30409,46005,24123,0,0,0
30324,45939,24030,0,0,0
30245,45870,23934,0,0,0
30183,45827,23860,0,0,0
30120,45790,23790,0,0,0
30059,45740,23703,0,0,0
30010,45693,23621,0,0,0
29970,45665,23561,0,0,0
29915,45630,23491,0,0,0
29851,45575,23396,0,0,0
29803,45530,23309,0,0,0
29767,45508,23244,0,0,0
29724,45477,23165,0,0,0
29682,45428,23064,0,0,0
29657,45392,22977,0,0,0
29633,45375,22916,0,0,0
29582,45341,22842,0,0,0
29509,45277,22740,0,0,0
29435,45215,22644,0,0,0
29355,45163,22566,0,0,0
29254,45091,22469,0,0,0
29148,44995,22349,0,0,0
29060,44910,22245,0,0,0
28983,44840,22161,0,0,0
28895,44759,22063,0,0,0
28811,44675,21959,0,0,0
28751,44625,21886,0,0,0
28704,44600,21834,0,0,0
28652,44566,21764,0,0,0
28607,44529,21686,0,0,0
28590,44523,21639,0,0,0
28590,44542,21617,0,0,0
28598,44559,21593,0,0,0
28635,44590,21597,0,0,0
28714,44662,21667,0,0,0
28814,44759,21785,0,0,0
28923,44852,21922,0,0,0
29056,44950,22093,0,0,0
29221,45083,22328,0,0,0
29403,45240,22609,0,0,0
29598,45393,22903,0,0,0
29828,45566,23232,0,0,0
30093,45780,23617,0,0,0
30363,46007,24035,0,0,0
30627,46214,24458,0,0,0
30900,46423,24890,0,0,0
31179,46652,25336,0,0,0
31446,46876,25761,0,0,0
31697,47076,26143,0,0,0
31947,47272,26507,0,0,0
32186,47473,26864,0,0,0
32389,47650,27180,0,0,0
32565,47791,27442,0,0,0
32737,47930,27690,0,0,0
32901,48078,27934,0,0,0
33025,48194,28137,0,0,0
33110,48264,28281,0,0,0
33187,48323,28402,0,0,0
33251,48383,28511,0,0,0
33283,48410,28578,0,0,0
33295,48399,28602,0,0,0
33310,48388,28629,0,0,0
33325,48388,28667,0,0,0
33322,48369,28683,0,0,0
33312,48333,28680,0,0,0
33309,48308,28692,0,0,0
33298,48291,28705,0,0,0
33260,48251,28680,0,0,0
33211,48197,28635,0,0,0
33177,48164,28614,0,0,0
33149,48147,28605,0,0,0
33108,48112,28572,0,0,0
33074,48073,28533,0,0,0
33054,48056,28519,0,0,0
33022,48040,28504,0,0,0
32965,47994,28452,0,0,0
32902,47935,28381,0,0,0
32851,47899,28326,0,0,0
32798,47873,28271,0,0,0
32739,47826,28188,0,0,0
32685,47778,28100,0,0,0
32634,47749,28035,0,0,0
32566,47713,27964,0,0,0
32481,47648,27864,0,0,0
32395,47577,27758,0,0,0
32314,47525,27667,0,0,0
32222,47465,27568,0,0,0
32122,47379,27441,0,0,0
32038,47297,27323,0,0,0
31968,47240,27234,0,0,0
31899,47184,27145,0,0,0
31836,47121,27048,0,0,0
31794,47077,26974,0,0,0
31762,47059,26933,0,0,0
31718,47031,26883,0,0,0
31670,46985,26808,0,0,0
31644,46956,26746,0,0,0
31633,46955,26709,0,0,0
31611,46948,26660,0,0,0
31587,46922,26595,0,0,0
31580,46913,26555,0,0,0
31581,46926,26546,0,0,0
31567,46927,26527,0,0,0
31543,46909,26491,0,0,0
31525,46898,26469,0,0,0
31495,46888,26453,0,0,0
31437,46849,26404,0,0,0
31368,46790,26331,0,0,0
31316,46748,26277,0,0,0
31268,46718,26236,0,0,0
31209,46668,26172,0,0,0
31154,46613,26098,0,0,0
31116,46582,26045,0,0,0
31076,46563,25997,0,0,0
31021,46526,25922,0,0,0
30963,46479,25833,0,0,0
30916,46450,25762,0,0,0
30868,46424,25691,0,0,0
30812,46375,25591,0,0,0
30764,46323,25490,0,0,0
30723,46293,25419,0,0,0
30671,46266,25353,0,0,0
30604,46214,25262,0,0,0
30535,46151,25165,0,0,0
30472,46104,25086,0,0,0
30397,46051,24996,0,0,0
30309,45974,24879,0,0,0
30228,45906,24764,0,0,0
30157,45863,24665,0,0,0
30079,45813,24557,0,0,0
29999,45739,24427,0,0,0
29936,45675,24315,0,0,0
29884,45631,24237,0,0,0
29812,45572,24152,0,0,0
29729,45492,24045,0,0,0
29659,45420,23945,0,0,0
29596,45363,23860,0,0,0
29519,45295,23761,0,0,0
29435,45209,23647,0,0,0
29367,45138,23547,0,0,0
29307,45087,23464,0,0,0
29242,45032,23371,0,0,0
29181,44974,23269,0,0,0
29136,44934,23186,0,0,0
29091,44912,23118,0,0,0
29035,44882,23036,0,0,0
28976,44842,22941,0,0,0
28925,44817,22864,0,0,0
28870,44800,22799,0,0,0
28804,44758,22706,0,0,0
28743,44700,22596,0,0,0
28696,44663,22512,0,0,0
28647,44637,22442,0,0,0
28582,44586,22347,0,0,0
28523,44529,22244,0,0,0
28480,44497,22171,0,0,0
28428,44468,22110,0,0,0
28355,44410,22024,0,0,0
28277,44337,21923,0,0,0
28207,44284,21842,0,0,0
28129,44234,21762,0,0,0
28040,44163,21653,0,0,0
27973,44097,21544,0,0,0
27933,44059,21463,0,0,0
27894,44029,21387,0,0,0
27847,43983,21296,0,0,0
27805,43939,21212,0,0,0
27765,43911,21153,0,0,0
27707,43874,21089,0,0,0
27641,43813,21008,0,0,0
27590,43760,20947,0,0,0
27551,43732,20922,0,0,0
27512,43709,20913,0,0,0
27490,43686,20920,0,0,0
27511,43697,20986,0,0,0
27574,43758,21123,0,0,0
27658,43840,21291,0,0,0
27777,43940,21486,0,0,0
27950,44089,21745,0,0,0
28167,44288,22067,0,0,0
28406,44501,22411,0,0,0
28669,44716,22765,0,0,0
28968,44962,23157,0,0,0
29291,45239,23585,0,0,0
29610,45512,24012,0,0,0
29929,45776,24429,0,0,0
30250,46052,24854,0,0,0
30551,46322,25270,0,0,0
30810,46546,25634,0,0,0
31039,46725,25947,0,0,0
31249,46892,26246,0,0,0
31428,47036,26518,0,0,0
31567,47130,26734,0,0,0
31686,47195,26913,0,0,0
31802,47267,27092,0,0,0
31898,47337,27257,0,0,0
31962,47378,27373,0,0,0
32011,47402,27455,0,0,0
32056,47439,27536,0,0,0
32088,47477,27604,0,0,0
32106,47492,27633,0,0,0
32129,47503,27647,0,0,0
32161,47532,27676,0,0,0
32179,47558,27698,0,0,0
32179,47556,27693,0,0,0
32176,47547,27685,0,0,0
32170,47548,27691,0,0,0
32140,47531,27678,0,0,0
32088,47481,27632,0,0,0
32041,47431,27590,0,0,0
31995,47396,27562,0,0,0
31943,47354,27520,0,0,0
31895,47300,27453,0,0,0
31862,47260,27393,0,0,0
31830,47236,27345,0,0,0
31779,47193,27278,0,0,0
31712,47124,27186,0,0,0
31647,47056,27103,0,0,0
31576,46996,27030,0,0,0
31482,46919,26935,0,0,0
31378,46824,26815,0,0,0
31286,46742,26709,0,0,0
31195,46675,26621,0,0,0
31086,46591,26515,0,0,0
30967,46481,26390,0,0,0
30852,46370,26279,0,0,0
30730,46261,26177,0,0,0
30592,46129,26053,0,0,0
30457,45989,25915,0,0,0
30349,45877,25804,0,0,0
30253,45791,25716,0,0,0
30160,45705,25619,0,0,0
30093,45637,25530,0,0,0
30064,45616,25484,0,0,0
30047,45623,25463,0,0,0
30024,45625,25429,0,0,0
30008,45627,25390,0,0,0
30010,45653,25372,0,0,0
30011,45680,25357,0,0,0
30000,45678,25313,0,0,0
29993,45668,25265,0,0,0
29989,45676,25241,0,0,0
29972,45680,25218,0,0,0
29938,45655,25170,0,0,0
29894,45617,25116,0,0,0
29843,45588,25081,0,0,0
29778,45548,25035,0,0,0
29707,45483,24956,0,0,0
29648,45420,24876,0,0,0
29594,45372,24812,0,0,0
29524,45314,24736,0,0,0
29448,45238,24635,0,0,0
29387,45177,24545,0,0,0
29335,45141,24483,0,0,0
29271,45096,24412,0,0,0
29200,45035,24321,0,0,0
29143,44990,24242,0,0,0
29090,44966,24185,0,0,0
29021,44926,24112,0,0,0
28942,44861,24009,0,0,0
28879,44803,23909,0,0,0
28823,44760,23819,0,0,0
28755,44702,23710,0,0,0
28680,44624,23583,0,0,0
28610,44560,23473,0,0,0
28533,44508,23381,0,0,0
28438,44440,23271,0,0,0
28336,44354,23148,0,0,0
28245,44282,23043,0,0,0
28154,44217,22949,0,0,0
28055,44132,22833,0,0,0
27963,44042,22714,0,0,0
27892,43978,22624,0,0,0
27821,43929,22545,0,0,0
27730,43860,22440,0,0,0
27632,43777,22322,0,0,0
27546,43709,22225,0,0,0
27460,43648,22134,0,0,0
27367,43568,22018,0,0,0
27290,43489,21903,0,0,0
27232,43436,21822,0,0,0
27169,43389,21749,0,0,0
27091,43322,21648,0,0,0
27012,43250,21536,0,0,0
26937,43194,21443,0,0,0
26848,43129,21350,0,0,0
26741,43039,21234,0,0,0
26648,42956,21123,0,0,0
26575,42904,21036,0,0,0
26501,42854,20949,0,0,0
26428,42790,20849,0,0,0
26372,42734,20762,0,0,0
26318,42694,20692,0,0,0
26244,42645,20604,0,0,0
26162,42574,20488,0,0,0
26093,42508,20380,0,0,0
26028,42457,20297,0,0,0
25951,42394,20206,0,0,0
25870,42311,20098,0,0,0
25795,42238,20001,0,0,0
25715,42179,19922,0,0,0
25620,42108,19827,0,0,0
25521,42021,19717,0,0,0
25435,41951,19629,0,0,0
25357,41902,19562,0,0,0
25275,41843,19481,0,0,0
25205,41776,19395,0,0,0
25167,41739,19348,0,0,0
25153,41735,19345,0,0,0
25154,41737,19359,0,0,0
25186,41754,19403,0,0,0
25260,41814,19514,0,0,0
25356,41908,19675,0,0,0
25456,41999,19847,0,0,0
25575,42096,20040,0,0,0
25730,42228,20293,0,0,0
25905,42381,20592,0,0,0
26088,42526,20900,0,0,0
26295,42679,21230,0,0,0
26528,42860,21602,0,0,0
26760,43048,21989,0,0,0
26977,43214,22354,0,0,0
27191,43368,22706,0,0,0
27405,43536,23065,0,0,0
27601,43695,23401,0,0,0
27772,43826,23682,0,0,0
27940,43953,23937,0,0,0
28105,44094,24186,0,0,0
28249,44225,24405,0,0,0
28373,44332,24581,0,0,0
28488,44431,24738,0,0,0
28586,44527,24884,0,0,0
28647,44590,24992,0,0,0
28677,44611,25050,0,0,0
28703,44624,25089,0,0,0
28716,44637,25124,0,0,0
28700,44627,25131,0,0,0
28669,44591,25111,0,0,0
28643,44560,25101,0,0,0
28613,44543,25105,0,0,0
28566,44513,25086,0,0,0
28513,44463,25035,0,0,0
28467,44422,24989,0,0,0
28419,44393,24953,0,0,0
28356,44348,24892,0,0,0
28286,44284,24806,0,0,0
28227,44234,24730,0,0,0
28171,44197,24666,0,0,0
28103,44146,24582,0,0,0
28036,44085,24489,0,0,0
27985,44042,24420,0,0,0
27931,44008,24361,0,0,0
27853,43947,24274,0,0,0
27767,43869,24167,0,0,0
27691,43806,24072,0,0,0
27615,43752,23980,0,0,0
27530,43679,23862,0,0,0
27453,43603,23739,0,0,0
27392,43549,23641,0,0,0
27327,43503,23553,0,0,0
27249,43443,23447,0,0,0
27172,43380,23343,0,0,0
27107,43336,23267,0,0,0
27039,43287,23195,0,0,0
26966,43217,23098,0,0,0
26910,43156,23010,0,0,0
26876,43124,22955,0,0,0
26845,43096,22909,0,0,0
26816,43055,22856,0,0,0
26795,43020,22819,0,0,0
26773,43003,22810,0,0,0
26737,42978,22797,0,0,0
26697,42941,22766,0,0,0
26680,42924,22747,0,0,0
26676,42940,22754,0,0,0
26667,42960,22759,0,0,0
26667,42973,22750,0,0,0
26692,43001,22754,0,0,0
26729,43047,22779,0,0,0
26750,43077,22787,0,0,0
26758,43083,22768,0,0,0
26771,43095,22749,0,0,0
26778,43112,22734,0,0,0
26760,43106,22692,0,0,0
26730,43073,22622,0,0,0
26709,43046,22561,0,0,0
26690,43029,22514,0,0,0
26656,42996,22451,0,0,0
26614,42946,22373,0,0,0
26575,42908,22312,0,0,0
26528,42878,22261,0,0,0
26462,42828,22182,0,0,0
26390,42763,22081,0,0,0
26328,42712,21998,0,0,0
26266,42672,21918,0,0,0
26191,42620,21809,0,0,0
26121,42566,21697,0,0,0
26067,42536,21610,0,0,0
26010,42506,21532,0,0,0
25938,42450,21436,0,0,0
25867,42383,21338,0,0,0
25803,42331,21260,0,0,0
25732,42280,21178,0,0,0
25647,42205,21067,0,0,0
25571,42130,20955,0,0,0
25508,42078,20868,0,0,0
25443,42031,20784,0,0,0
25380,41973,20684,0,0,0
25331,41924,20592,0,0,0
25288,41895,20520,0,0,0
25229,41855,20438,0,0,0
25161,41789,20331,0,0,0
25109,41734,20232,0,0,0
25066,41705,20156,0,0,0
25014,41672,20076,0,0,0
24965,41623,19981,0,0,0
24929,41586,19898,0,0,0
24896,41568,19838,0,0,0
24843,41535,19767,0,0,0
24775,41480,19674,0,0,0
24713,41432,19591,0,0,0
24652,41398,19519,0,0,0
24580,41351,19426,0,0,0
24509,41288,19320,0,0,0
24458,41241,19239,0,0,0
24422,41215,19178,0,0,0
24385,41183,19104,0,0,0
24352,41148,19026,0,0,0
24339,41138,18979,0,0,0
24333,41147,18953,0,0,0
24316,41144,18916,0,0,0
24307,41137,18883,0,0,0
24325,41154,18894,0,0,0
24353,41189,18942,0,0,0
24385,41218,19002,0,0,0
24447,41260,19093,0,0,0
24554,41344,19250,0,0,0
24691,41457,19455,0,0,0
24845,41573,19677,0,0,0
25028,41706,19931,0,0,0
25246,41883,20241,0,0,0
25479,42083,20586,0,0,0
25718,42277,20935,0,0,0
25978,42479,21297,0,0,0
26258,42709,21688,0,0,0
26542,42949,22087,0,0,0
26823,43172,22469,0,0,0
27105,43394,22850,0,0,0
27378,43624,23238,0,0,0
27623,43835,23593,0,0,0
27838,44007,23893,0,0,0
28040,44167,24169,0,0,0
28222,44325,24434,0,0,0
28368,44451,24654,0,0,0
28483,44537,24816,0,0,0
28592,44614,24956,0,0,0
28692,44695,25090,0,0,0
28761,44751,25188,0,0,0
28804,44774,25241,0,0,0
28844,44794,25283,0,0,0
28871,44821,25326,0,0,0
28870,44826,25340,0,0,0
28851,44804,25321,0,0,0
28838,44784,25305,0,0,0
28827,44778,25301,0,0,0
28804,44760,25275,0,0,0
28780,44729,25227,0,0,0
28767,44712,25194,0,0,0
28751,44701,25169,0,0,0
28712,44665,25115,0,0,0
28663,44609,25042,0,0,0
28623,44567,24986,0,0,0
28583,44534,24935,0,0,0
28530,44483,24859,0,0,0
28486,44430,24774,0,0,0
28458,44401,24712,0,0,0
28423,44382,24656,0,0,0
28367,44343,24580,0,0,0
28307,44297,24496,0,0,0
28260,44273,24433,0,0,0
28211,44255,24373,0,0,0
28153,44216,24288,0,0,0
28110,44181,24206,0,0,0
28085,44174,24151,0,0,0
28059,44174,24102,0,0,0
28028,44156,24037,0,0,0
28008,44137,23977,0,0,0
27996,44134,23938,0,0,0
27975,44128,23895,0,0,0
27946,44102,23835,0,0,0
27931,44084,23789,0,0,0
27926,44085,23769,0,0,0
27915,44082,23748,0,0,0
27909,44073,23716,0,0,0
27929,44084,23708,0,0,0
27968,44125,23739,0,0,0
27995,44159,23765,0,0,0
28011,44173,23767,0,0,0
28035,44189,23773,0,0,0
28059,44214,23793,0,0,0
28062,44218,23792,0,0,0
28054,44200,23765,0,0,0
28057,44193,23745,0,0,0
28066,44202,23735,0,0,0
28063,44198,23704,0,0,0
28056,44180,23658,0,0,0
28059,44179,23631,0,0,0
28059,44193,23619,0,0,0
28042,44191,23587,0,0,0
28021,44174,23535,0,0,0
28010,44173,23493,0,0,0
27992,44177,23456,0,0,0
27953,44154,23398,0,0,0
27912,44114,23329,0,0,0
27884,44089,23282,0,0,0
27855,44072,23245,0,0,0
27812,44036,23186,0,0,0
27774,43994,23118,0,0,0
27749,43973,23069,0,0,0
27717,43953,23018,0,0,0
27669,43911,22936,0,0,0
27623,43860,22842,0,0,0
27587,43828,22767,0,0,0
27547,43800,22696,0,0,0
27498,43753,22603,0,0,0
27455,43710,22513,0,0,0
27424,43691,22452,0,0,0
27387,43672,22391,0,0,0
27343,43633,22309,0,0,0
27302,43591,22229,0,0,0
27256,43555,22168,0,0,0
27185,43501,22093,0,0,0
27097,43417,21991,0,0,0
27019,43335,21892,0,0,0
26949,43273,21810,0,0,0
26871,43208,21720,0,0,0
26797,43136,21616,0,0,0
26746,43084,21527,0,0,0
26709,43053,21459,0,0,0
26660,43015,21378,0,0,0
26606,42966,21282,0,0,0
26564,42936,21205,0,0,0
26524,42920,21147,0,0,0
26467,42889,21075,0,0,0
26401,42839,20983,0,0,0
26346,42801,20904,0,0,0
26297,42777,20838,0,0,0
26242,42738,20756,0,0,0
26195,42691,20668,0,0,0
26177,42671,20616,0,0,0
26181,42674,20603,0,0,0
26192,42673,20603,0,0,0
26228,42686,20635,0,0,0
26304,42742,20735,0,0,0
26400,42828,20885,0,0,0
26504,42913,21048,0,0,0
26631,43010,21236,0,0,0
26794,43152,21485,0,0,0
26982,43323,21781,0,0,0
27187,43494,22094,0,0,0
27428,43680,22443,0,0,0
27706,43903,22849,0,0,0
27994,44142,23285,0,0,0
28280,44366,23713,0,0,0
28569,44586,24141,0,0,0
28862,44820,24586,0,0,0
29138,45046,25017,0,0,0
29394,45246,25405,0,0,0
29645,45436,25771,0,0,0
29886,45629,26127,0,0,0
30098,45799,26445,0,0,0
30281,45935,26710,0,0,0
30454,46061,26953,0,0,0
30612,46193,27188,0,0,0
30736,46299,27378,0,0,0
30831,46366,27515,0,0,0
30921,46426,27635,0,0,0
31006,46492,27750,0,0,0
31066,46541,27828,0,0,0
31108,46567,27864,0,0,0
31153,46602,27900,0,0,0
31199,46654,27945,0,0,0
31230,46691,27970,0,0,0
31253,46708,27979,0,0,0
31280,46731,28001,0,0,0
31302,46759,28031,0,0,0
31306,46763,28038,0,0,0
31302,46748,28023,0,0,0
31302,46743,28020,0,0,0
31295,46739,28020,0,0,0
31270,46706,27993,0,0,0
31239,46657,27951,0,0,0
31210,46624,27929,0,0,0
31165,46591,27912,0,0,0
31092,46522,27858,0,0,0
31009,46429,27777,0,0,0
30937,46353,27704,0,0,0
30866,46290,27627,0,0,0
30792,46220,27522,0,0,0
30735,46163,27415,0,0,0
30699,46139,27336,0,0,0
30664,46127,27269,0,0,0
30624,46103,27189,0,0,0
30591,46079,27109,0,0,0
30571,46078,27052,0,0,0
30546,46080,26996,0,0,0
30514,46064,26919,0,0,0
30497,46056,26851,0,0,0
30497,46074,26813,0,0,0
30494,46093,26778,0,0,0
30487,46097,26729,0,0,0
30484,46104,26689,0,0,0
30477,46120,26670,0,0,0
30450,46114,26638,0,0,0
30411,46075,26579,0,0,0
30384,46037,26529,0,0,0
30367,46013,26501,0,0,0
30340,45983,26465,0,0,0
30310,45938,26415,0,0,0
30293,45902,26379,0,0,0
30278,45881,26363,0,0,0
30244,45850,26336,0,0,0
30201,45807,26293,0,0,0
30170,45781,26260,0,0,0
30145,45776,26239,0,0,0
30113,45760,26202,0,0,0
30086,45732,26153,0,0,0
30080,45721,26124,0,0,0
30082,45727,26106,0,0,0
30071,45716,26063,0,0,0
30049,45692,26002,0,0,0
30026,45683,25956,0,0,0
29992,45677,25913,0,0,0
29937,45643,25838,0,0,0
29884,45595,25750,0,0,0
29851,45568,25684,0,0,0
29817,45552,25628,0,0,0
29761,45515,25551,0,0,0
29701,45468,25465,0,0,0
29656,45440,25405,0,0,0
29612,45417,25348,0,0,0
29561,45375,25262,0,0,0
29523,45341,25170,0,0,0
29506,45339,25103,0,0,0
29489,45344,25044,0,0,0
29465,45331,24970,0,0,0
29445,45311,24898,0,0,0
29427,45303,24847,0,0,0
29391,45283,24786,0,0,0
29339,45232,24690,0,0,0
29294,45180,24595,0,0,0
29256,45145,24521,0,0,0
29202,45102,24437,0,0,0
29139,45043,24332,0,0,0
29086,44994,24238,0,0,0
29035,44964,24165,0,0,0
28963,44922,24081,0,0,0
28879,44858,23973,0,0,0
28810,44801,23874,0,0,0
28756,44762,23793,0,0,0
28699,44717,23702,0,0,0
28645,44663,23601,0,0,0
28608,44624,23520,0,0,0
28573,44602,23457,0,0,0
28523,44567,23378,0,0,0
28472,44521,23284,0,0,0
28437,44495,23212,0,0,0
28415,44489,23166,0,0,0
28401,44479,23127,0,0,0
28409,44476,23111,0,0,0
28455,44511,23157,0,0,0
28526,44577,23255,0,0,0
28608,44645,23372,0,0,0
28718,44726,23522,0,0,0
28873,44850,23744,0,0,0
29058,45004,24024,0,0,0
29263,45164,24331,0,0,0
29506,45344,24684,0,0,0
29788,45565,25107,0,0,0
30083,45808,25569,0,0,0
30378,46044,26027,0,0,0
30686,46283,26486,0,0,0
31010,46547,26967,0,0,0
31331,46817,27444,0,0,0
31639,47063,27889,0,0,0
31945,47301,28318,0,0,0
32244,47551,28744,0,0,0
32512,47787,29130,0,0,0
32743,47982,29453,0,0,0
32952,48149,29735,0,0,0
33136,48300,29993,0,0,0
33280,48417,30204,0,0,0
33390,48492,30355,0,0,0
33491,48553,30483,0,0,0
33581,48618,30608,0,0,0
33643,48662,30707,0,0,0
33689,48681,30771,0,0,0
33735,48701,30830,0,0,0
33772,48734,30893,0,0,0
33782,48750,30928,0,0,0
33780,48744,30932,0,0,0
33787,48748,30943,0,0,0
33798,48768,30966,0,0,0
33796,48775,30971,0,0,0
33792,48766,30958,0,0,0
33801,48768,30964,0,0,0
33809,48779,30989,0,0,0
33798,48769,30997,0,0,0
33781,48741,30986,0,0,0
33767,48720,30982,0,0,0
33741,48700,30972,0,0,0
33694,48656,30926,0,0,0
33649,48606,30864,0,0,0
33619,48581,30825,0,0,0
33588,48571,30793,0,0,0
33536,48537,30726,0,0,0
33477,48490,30638,0,0,0
33427,48465,30570,0,0,0
33375,48447,30504,0,0,0
33313,48408,30409,0,0,0
33261,48367,30306,0,0,0
33230,48349,30225,0,0,0
33197,48337,30149,0,0,0
33149,48301,30048,0,0,0
33099,48254,29943,0,0,0
33051,48220,29863,0,0,0
32988,48175,29779,0,0,0
32904,48096,29662,0,0,0
32821,48006,29544,0,0,0
32744,47934,29449,0,0,0
32660,47862,29356,0,0,0
32576,47777,29256,0,0,0
32507,47707,29175,0,0,0
32450,47665,29121,0,0,0
32384,47621,29065,0,0,0
32315,47561,28999,0,0,0
32267,47519,28955,0,0,0
32234,47505,28936,0,0,0
32200,47491,28906,0,0,0
32169,47469,28859,0,0,0
32159,47466,28831,0,0,0
32160,47486,28827,0,0,0
32152,47496,28813,0,0,0
32141,47487,28782,0,0,0
32138,47482,28761,0,0,0
32128,47479,28750,0,0,0
32089,47447,28711,0,0,0
32031,47388,28641,0,0,0
31974,47336,28578,0,0,0
31909,47287,28515,0,0,0
31822,47211,28419,0,0,0
31734,47120,28304,0,0,0
31667,47058,28211,0,0,0
31608,47018,28134,0,0,0
31543,46967,28037,0,0,0
31488,46917,27939,0,0,0
31454,46895,27871,0,0,0
31416,46885,27812,0,0,0
31361,46853,27728,0,0,0
31301,46806,27631,0,0,0
31250,46776,27552,0,0,0
31195,46749,27474,0,0,0
31129,46694,27363,0,0,0
31068,46630,27244,0,0,0
31010,46583,27149,0,0,0
30932,46529,27054,0,0,0
30830,46444,26933,0,0,0
30720,46344,26805,0,0,0
30606,46252,26690,0,0,0
30482,46150,26567,0,0,0
30352,46029,26421,0,0,0
30238,45914,26283,0,0,0
30140,45825,26172,0,0,0
30039,45739,26058,0,0,0
29942,45647,25932,0,0,0
29863,45576,25820,0,0,0
29795,45533,25729,0,0,0
29723,45491,25628,0,0,0
29655,45438,25511,0,0,0
29609,45404,25410,0,0,0
29575,45394,25335,0,0,0
29530,45375,25255,0,0,0
29479,45339,25162,0,0,0
29436,45313,25087,0,0,0
29393,45298,25036,0,0,0
29340,45266,24980,0,0,0
29298,45219,24927,0,0,0
29282,45193,24916,0,0,0
29288,45195,24955,0,0,0
29307,45202,25020,0,0,0
29353,45222,25124,0,0,0
29441,45288,25300,0,0,0
29564,45394,25542,0,0,0
29710,45510,25816,0,0,0
29897,45650,26130,0,0,0
30141,45847,26513,0,0,0
30420,46088,26944,0,0,0
30712,46335,27382,0,0,0
31022,46589,27830,0,0,0
31351,46870,28309,0,0,0
31675,47155,28791,0,0,0
31982,47411,29240,0,0,0
32284,47653,29670,0,0,0
32576,47897,30098,0,0,0
32835,48122,30497,0,0,0
33056,48301,30836,0,0,0
33251,48451,31130,0,0,0
33423,48595,31402,0,0,0
33552,48710,31624,0,0,0
33640,48777,31775,0,0,0
33713,48824,31889,0,0,0
33774,48873,31992,0,0,0
33806,48900,32064,0,0,0
33815,48895,32096,0,0,0
33822,48890,32117,0,0,0
33822,48896,32144,0,0,0
33797,48883,32146,0,0,0
33760,48842,32117,0,0,0
33736,48807,32093,0,0,0
33715,48790,32086,0,0,0
33679,48761,32064,0,0,0
33640,48718,32022,0,0,0
33615,48690,31995,0,0,0
33595,48678,31986,0,0,0
33558,48652,31958,0,0,0
33515,48614,31905,0,0,0
33486,48593,31861,0,0,0
33459,48581,31828,0,0,0
33420,48552,31774,0,0,0
33380,48513,31706,0,0,0
33349,48491,31658,0,0,0
33308,48476,31617,0,0,0
33242,48433,31541,0,0,0
33167,48371,31439,0,0,0
33099,48323,31350,0,0,0
33025,48281,31264,0,0,0
32937,48217,31151,0,0,0
32859,48147,31030,0,0,0
32803,48103,30934,0,0,0
32746,48076,30849,0,0,0
32672,48032,30742,0,0,0
32593,47977,30624,0,0,0
32523,47938,30525,0,0,0
32448,47898,30431,0,0,0
32364,47832,30319,0,0,0
32294,47766,30214,0,0,0
32246,47730,30142,0,0,0
32205,47706,30077,0,0,0
32168,47670,29998,0,0,0
32147,47638,29930,0,0,0
32138,47631,29892,0,0,0
32116,47620,29849,0,0,0
32079,47587,29785,0,0,0
32051,47558,29729,0,0,0
32029,47548,29699,0,0,0
31994,47534,29665,0,0,0
31957,47502,29611,0,0,0
31938,47478,29563,0,0,0
31927,47471,29532,0,0,0
31897,47452,29490,0,0,0
31851,47416,29428,0,0,0
31812,47391,29374,0,0,0
31774,47381,29331,0,0,0
31723,47356,29270,0,0,0
31671,47311,29189,0,0,0
31634,47278,29126,0,0,0
31600,47260,29080,0,0,0
31551,47228,29014,0,0,0
31495,47181,28928,0,0,0
31436,47142,28853,0,0,0
31365,47102,28779,0,0,0
31275,47034,28672,0,0,0
31186,46951,28542,0,0,0
31116,46889,28434,0,0,0
31051,46842,28340,0,0,0
30965,46774,28224,0,0,0
30873,46693,28093,0,0,0
30794,46632,27984,0,0,0
30718,46579,27882,0,0,0
30632,46506,27755,0,0,0
30551,46423,27623,0,0,0
30482,46355,27517,0,0,0
30404,46287,27417,0,0,0
30310,46198,27294,0,0,0
30216,46103,27164,0,0,0
30131,46033,27054,0,0,0
30048,45972,26947,0,0,0
29963,45899,26820,0,0,0
29897,45841,26706,0,0,0
29852,45819,26629,0,0,0
29803,45806,26559,0,0,0
29747,45779,26473,0,0,0
29700,45754,26393,0,0,0
29658,45739,26329,0,0,0
29599,45708,26246,0,0,0
29532,45654,26132,0,0,0
29481,45610,26026,0,0,0
29439,45588,25945,0,0,0
29382,45556,25857,0,0,0
29316,45505,25756,0,0,0
29262,45463,25671,0,0,0
29211,45437,25605,0,0,0
29144,45396,25526,0,0,0
29077,45340,25430,0,0,0
29036,45308,25356,0,0,0
29011,45303,25311,0,0,0
28988,45299,25266,0,0,0
28983,45301,25231,0,0,0
29008,45336,25244,0,0,0
29056,45399,25306,0,0,0
29121,45468,25390,0,0,0
29214,45544,25506,0,0,0
29347,45656,25692,0,0,0
29509,45799,25938,0,0,0
29690,45945,26207,0,0,0
29906,46107,26509,0,0,0
30164,46310,26878,0,0,0
30440,46538,27296,0,0,0
30714,46756,27719,0,0,0
31001,46974,28153,0,0,0
31309,47218,28620,0,0,0
31608,47466,29087,0,0,0
31880,47684,29512,0,0,0
32142,47888,29911,0,0,0
32400,48101,30306,0,0,0
32638,48306,30673,0,0,0
32849,48477,30979,0,0,0
33039,48627,31247,0,0,0
33209,48775,31503,0,0,0
33340,48894,31715,0,0,0
33433,48963,31861,0,0,0
33508,49009,31974,0,0,0
33562,49049,32076,0,0,0
33580,49062,32139,0,0,0
33577,49038,32155,0,0,0
33577,49011,32163,0,0,0
33574,48997,32185,0,0,0
33547,48970,32185,0,0,0
33502,48915,32148,0,0,0
33459,48864,32106,0,0,0
33411,48823,32071,0,0,0
33348,48768,32016,0,0,0
33281,48698,31936,0,0,0
33227,48646,31867,0,0,0
33181,48617,31815,0,0,0
33127,48583,31758,0,0,0
33078,48543,31696,0,0,0
33042,48519,31652,0,0,0
33000,48504,31621,0,0,0
32940,48470,31571,0,0,0
32873,48416,31499,0,0,0
32809,48368,31431,0,0,0
32732,48320,31363,0,0,0
32640,48248,31260,0,0,0
32553,48163,31135,0,0,0
32486,48099,31027,0,0,0
32420,48049,30926,0,0,0
32340,47978,30800,0,0,0
32263,47899,30665,0,0,0
32200,47839,30553,0,0,0
32126,47777,30447,0,0,0
32027,47683,30315,0,0,0
31923,47574,30174,0,0,0
31826,47482,30053,0,0,0
31724,47397,29940,0,0,0
31610,47297,29807,0,0,0
31506,47203,29683,0,0,0
31421,47140,29593,0,0,0
31341,47086,29510,0,0,0
31266,47025,29413,0,0,0
31210,46975,29327,0,0,0
31168,46951,29271,0,0,0
31123,46927,29215,0,0,0
31078,46889,29141,0,0,0
31054,46863,29081,0,0,0
31044,46863,29051,0,0,0
31026,46862,29018,0,0,0
31007,46845,28970,0,0,0
30993,46832,28933,0,0,0
30970,46827,28909,0,0,0
30920,46800,28866,0,0,0
30855,46747,28793,0,0,0
30796,46698,28725,0,0,0
30737,46659,28666,0,0,0
30663,46605,28581,0,0,0
30584,46534,28470,0,0,0
30518,46476,28371,0,0,0
30455,46430,28287,0,0,0
30378,46365,28181,0,0,0
30293,46277,28052,0,0,0
30217,46199,27943,0,0,0
30137,46130,27845,0,0,0
30038,46040,27716,0,0,0
29934,45935,27567,0,0,0
29848,45850,27438,0,0,0
29765,45784,27322,0,0,0
29671,45706,27187,0,0,0
29587,45627,27049,0,0,0
29520,45569,26938,0,0,0
29446,45515,26836,0,0,0
29355,45440,26711,0,0,0
29264,45356,26578,0,0,0
29182,45291,26466,0,0,0
29097,45233,26365,0,0,0
29000,45155,26246,0,0,0
28913,45078,26128,0,0,0
28845,45029,26040,0,0,0
28771,44985,25952,0,0,0
28686,44921,25836,0,0,0
28607,44852,25718,0,0,0
28533,44796,25622,0,0,0
28449,44738,25519,0,0,0
28356,44659,25390,0,0,0
28275,44586,25271,0,0,0
28211,44539,25179,0,0,0
28136,44485,25077,0,0,0
28053,44411,24952,0,0,0
27981,44347,24838,0,0,0
27917,44300,24743,0,0,0
27846,44247,24640,0,0,0
27774,44181,24523,0,0,0
27715,44128,24425,0,0,0
27658,44091,24348,0,0,0
27582,44040,24253,0,0,0
27494,43966,24134,0,0,0
27411,43898,24027,0,0,0
27332,43843,23940,0,0,0
27245,43774,23844,0,0,0
27167,43699,23746,0,0,0
27123,43655,23689,0,0,0
27104,43648,23682,0,0,0
27098,43653,23697,0,0,0
27122,43676,23743,0,0,0
27191,43740,23849,0,0,0
27285,43828,24004,0,0,0
27389,43910,24178,0,0,0
27528,44007,24387,0,0,0
27719,44152,24662,0,0,0
27933,44330,24986,0,0,0
28150,44504,25318,0,0,0
28381,44680,25663,0,0,0
28636,44884,26045,0,0,0
28887,45094,26435,0,0,0
29121,45280,26796,0,0,0
29352,45456,27139,0,0,0
29585,45644,27488,0,0,0
29797,45821,27815,0,0,0
29978,45960,28092,0,0,0
30135,46077,28333,0,0,0
30271,46191,28555,0,0,0
30367,46277,28733,0,0,0
30425,46316,28850,0,0,0
30476,46344,28943,0,0,0
30524,46385,29032,0,0,0
30552,46417,29096,0,0,0
30569,46430,29127,0,0,0
30594,46442,29153,0,0,0
30619,46467,29190,0,0,0
30625,46482,29210,0,0,0
30621,46477,29201,0,0,0
30626,46479,29196,0,0,0
30633,46491,29201,0,0,0
30625,46486,29187,0,0,0
30615,46464,29152,0,0,0
30619,46457,29131,0,0,0
30624,46470,29129,0,0,0
30608,46464,29112,0,0,0
30578,46430,29072,0,0,0
30550,46399,29036,0,0,0
30516,46375,29001,0,0,0
30465,46334,28934,0,0,0
30410,46280,28845,0,0,0
30365,46246,28776,0,0,0
30324,46227,28721,0,0,0
30274,46191,28643,0,0,0
30223,46146,28550,0,0,0
30181,46122,28475,0,0,0
30128,46100,28402,0,0,0
30052,46045,28297,0,0,0
29973,45973,28173,0,0,0
29906,45919,28068,0,0,0
29836,45869,27972,0,0,0
29752,45799,27857,0,0,0
29674,45725,27747,0,0,0
29613,45675,27667,0,0,0
29548,45626,27592,0,0,0
29468,45551,27497,0,0,0
29395,45477,27406,0,0,0
29341,45431,27344,0,0,0
29291,45395,27288,0,0,0
29245,45347,27214,0,0,0
29218,45314,27154,0,0,0
29211,45313,27131,0,0,0
29199,45315,27107,0,0,0
29180,45299,27061,0,0,0
29175,45287,27023,0,0,0
29178,45290,27006,0,0,0
29166,45279,26977,0,0,0
29143,45245,26923,0,0,0
29134,45222,26879,0,0,0
29132,45220,26858,0,0,0
29111,45209,26825,0,0,0
29074,45179,26770,0,0,0
29038,45156,26724,0,0,0
28999,45140,26688,0,0,0
28945,45103,26624,0,0,0
28884,45045,26532,0,0,0
28833,44996,26451,0,0,0
28787,44963,26380,0,0,0
28730,44919,26292,0,0,0
28678,44871,26196,0,0,0
28643,44847,26127,0,0,0
28611,44837,26077,0,0,0
28561,44807,26000,0,0,0
28507,44762,25902,0,0,0
28465,44732,25820,0,0,0
28421,44707,25749,0,0,0
28362,44662,25658,0,0,0
28306,44610,25562,0,0,0
28263,44577,25486,0,0,0
28212,44549,25415,0,0,0
28142,44495,25317,0,0,0
28068,44425,25201,0,0,0
27999,44365,25100,0,0,0
27921,44300,25001,0,0,0
27829,44209,24880,0,0,0
27742,44115,24758,0,0,0
27668,44043,24664,0,0,0
27586,43974,24575,0,0,0
27490,43886,24466,0,0,0
27396,43799,24355,0,0,0
27306,43730,24257,0,0,0
27208,43661,24148,0,0,0
27105,43573,24012,0,0,0
27023,43500,23887,0,0,0
26962,43462,23794,0,0,0
26902,43429,23701,0,0,0
26850,43388,23593,0,0,0
26824,43365,23504,0,0,0
26812,43364,23445,0,0,0
26783,43349,23373,0,0,0
26735,43309,23273,0,0,0
26693,43272,23185,0,0,0
26654,43249,23126,0,0,0
26609,43217,23069,0,0,0
26574,43181,23018,0,0,0
26571,43173,23014,0,0,0
26597,43201,23060,0,0,0
26637,43238,23124,0,0,0
26704,43288,23217,0,0,0
26813,43379,23373,0,0,0
26955,43506,23582,0,0,0
27114,43640,23808,0,0,0
27300,43786,24060,0,0,0
27528,43975,24373,0,0,0
27778,44196,24731,0,0,0
28031,44409,25090,0,0,0
28296,44620,25453,0,0,0
28576,44851,25842,0,0,0
28843,45080,26227,0,0,0
29080,45274,26568,0,0,0
29309,45451,26883,0,0,0
29541,45634,27198,0,0,0
29755,45805,27493,0,0,0
29936,45936,27737,0,0,0
30094,46044,27944,0,0,0
30237,46156,28143,0,0,0
30352,46252,28310,0,0,0
30438,46312,28422,0,0,0
30517,46363,28510,0,0,0
30590,46427,28599,0,0,0
30645,46483,28670,0,0,0
30685,46514,28711,0,0,0
30728,46543,28750,0,0,0
30772,46585,28804,0,0,0
30794,46610,28844,0,0,0
30794,46605,28849,0,0,0
30792,46597,28850,0,0,0
30785,46595,28858,0,0,0
30762,46579,28845,0,0,0
30740,46544,28807,0,0,0
30734,46521,28783,0,0,0
30728,46517,28778,0,0,0
30705,46503,28756,0,0,0
30675,46474,28706,0,0,0
30658,46458,28664,0,0,0
30641,46452,28635,0,0,0
30603,46426,28584,0,0,0
30551,46380,28505,0,0,0
30509,46345,28430,0,0,0
30473,46324,28364,0,0,0
30426,46288,28274,0,0,0
30377,46243,28172,0,0,0
30346,46222,28100,0,0,0
30320,46215,28044,0,0,0
30279,46186,27957,0,0,0
30232,46139,27853,0,0,0
30193,46106,27771,0,0,0
30142,46074,27700,0,0,0
30074,46014,27603,0,0,0
30013,45943,27496,0,0,0
29972,45894,27416,0,0,0
29934,45861,27353,0,0,0
29886,45816,27279,0,0,0
29844,45771,27207,0,0,0
29816,45751,27165,0,0,0
29785,45736,27130,0,0,0
29743,45700,27076,0,0,0
29714,45667,27027,0,0,0
29702,45661,27001,0,0,0
29688,45657,26979,0,0,0
29670,45631,26945,0,0,0
29662,45606,26919,0,0,0
29660,45599,26912,0,0,0
29647,45588,26892,0,0,0
29625,45556,26843,0,0,0
29608,45529,26796,0,0,0
29586,45515,26762,0,0,0
29543,45486,26709,0,0,0
29487,45433,26629,0,0,0
29438,45386,26557,0,0,0
29394,45359,26506,0,0,0
29336,45323,26442,0,0,0
29271,45269,26354,0,0,0
29218,45226,26276,0,0,0
29174,45201,26215,0,0,0
29121,45170,26137,0,0,0
29066,45126,26039,0,0,0
29023,45099,25958,0,0,0
28985,45087,25893,0,0,0
28935,45054,25809,0,0,0
28879,45002,25706,0,0,0
28829,44962,25621,0,0,0
28778,44925,25546,0,0,0
28706,44858,25441,0,0,0
28627,44772,25317,0,0,0
28560,44703,25216,0,0,0
28486,44641,25124,0,0,0
28395,44562,25009,0,0,0
28308,44482,24890,0,0,0
28244,44432,24801,0,0,0
28186,44396,24725,0,0,0
28119,44345,24628,0,0,0
28055,44287,24525,0,0,0
28001,44246,24445,0,0,0
27939,44208,24364,0,0,0
27862,44153,24259,0,0,0
27794,44094,24148,0,0,0
27740,44054,24056,0,0,0
27684,44015,23963,0,0,0
27619,43959,23854,0,0,0
27561,43907,23755,0,0,0
27507,43874,23681,0,0,0
27439,43831,23596,0,0,0
27364,43761,23485,0,0,0
27299,43692,23379,0,0,0
27241,43641,23296,0,0,0
27177,43588,23215,0,0,0
27116,43528,23128,0,0,0
27082,43490,23074,0,0,0
27070,43483,23071,0,0,0
27068,43485,23092,0,0,0
27089,43494,23129,0,0,0
27152,43541,23215,0,0,0
27252,43634,23363,0,0,0
27371,43741,23540,0,0,0
27517,43856,23739,0,0,0
27706,44004,23992,0,0,0
27928,44189,24303,0,0,0
28156,44378,24631,0,0,0
28393,44565,24970,0,0,0
28651,44777,25346,0,0,0
28908,45000,25743,0,0,0
29139,45196,26109,0,0,0
29359,45366,26439,0,0,0
29582,45538,26765,0,0,0
29793,45706,27078,0,0,0
29976,45843,27343,0,0,0
30147,45962,27572,0,0,0
30317,46092,27800,0,0,0
30457,46212,28012,0,0,0
30550,46287,28170,0,0,0
30621,46331,28288,0,0,0
30692,46378,28404,0,0,0
30750,46420,28508,0,0,0
30788,46436,28575,0,0,0
30828,46450,28630,0,0,0
30881,46491,28705,0,0,0
30925,46537,28773,0,0,0
30952,46563,28812,0,0,0
30971,46581,28840,0,0,0
30984,46609,28876,0,0,0
30980,46631,28902,0,0,0
30963,46630,28897,0,0,0
30970,46629,28897,0,0,0
31000,46651,28925,0,0,0
31017,46668,28949,0,0,0
31024,46666,28948,0,0,0
31038,46667,28948,0,0,0
31051,46679,28960,0,0,0
31043,46676,28954,0,0,0
31023,46647,28917,0,0,0
31009,46622,28880,0,0,0
30996,46611,28856,0,0,0
30965,46587,28813,0,0,0
30922,46545,28745,0,0,0
30884,46511,28683,0,0,0
30841,46484,28627,0,0,0
30777,46434,28543,0,0,0
30703,46366,28429,0,0,0
30636,46307,28321,0,0,0
30565,46256,28224,0,0,0
30478,46186,28114,0,0,0
30386,46106,27994,0,0,0
30307,46043,27896,0,0,0
30226,45989,27813,0,0,0
30131,45915,27710,0,0,0
30040,45833,27595,0,0,0
29977,45779,27506,0,0,0
29926,45745,27438,0,0,0
29875,45708,27366,0,0,0
29846,45684,27303,0,0,0
29845,45695,27275,0,0,0
29844,45720,27259,0,0,0
29829,45725,27222,0,0,0
29817,45719,27182,0,0,0
29817,45728,27165,0,0,0
29816,45740,27152,0,0,0
29805,45729,27116,0,0,0
29798,45712,27078,0,0,0
29799,45710,27062,0,0,0
29786,45702,27038,0,0,0
29759,45671,26986,0,0,0
29738,45638,26931,0,0,0
29719,45617,26886,0,0,0
29687,45588,26829,0,0,0
29646,45541,26751,0,0,0
29618,45506,26685,0,0,0
29598,45496,26646,0,0,0
29561,45480,26595,0,0,0
29513,45447,26519,0,0,0
29471,45417,26447,0,0,0
29428,45395,26386,0,0,0
29372,45357,26303,0,0,0
29310,45299,26198,0,0,0
29256,45251,26103,0,0,0
29200,45217,26023,0,0,0
29130,45165,25928,0,0,0
29055,45091,25817,0,0,0
28988,45025,25718,0,0,0
28919,44970,25630,0,0,0
28838,44902,25524,0,0,0
28758,44827,25408,0,0,0
28692,44776,25317,0,0,0
28630,44743,25245,0,0,0
28562,44697,25158,0,0,0
28501,44643,25065,0,0,0
28453,44608,24995,0,0,0
28398,44577,24928,0,0,0
28324,44521,24828,0,0,0
28252,44455,24716,0,0,0
28193,44412,24628,0,0,0
28133,44378,24550,0,0,0
28065,44321,24452,0,0,0
28001,44254,24350,0,0,0
27950,44208,24274,0,0,0
27890,44167,24201,0,0,0
27813,44104,24102,0,0,0
27739,44037,23997,0,0,0
27678,43991,23910,0,0,0
27618,43954,23819,0,0,0
27557,43902,23705,0,0,0
27508,43855,23600,0,0,0
27472,43834,23531,0,0,0
27427,43813,23470,0,0,0
27379,43778,23403,0,0,0
27350,43757,23361,0,0,0
27341,43763,23360,0,0,0
27334,43772,23377,0,0,0
27336,43774,23404,0,0,0
27377,43806,23475,0,0,0
27459,43882,23604,0,0,0
27564,43977,23767,0,0,0
27698,44081,23958,0,0,0
27871,44219,24206,0,0,0
28073,44393,24513,0,0,0
28284,44576,24841,0,0,0
28515,44758,25175,0,0,0
28773,44961,25537,0,0,0
29042,45184,25917,0,0,0
29309,45397,26282,0,0,0
29583,45601,26629,0,0,0
29867,45820,26986,0,0,0
30137,46045,27343,0,0,0
30377,46240,27663,0,0,0
30597,46406,27949,0,0,0
30803,46563,28227,0,0,0
30975,46702,28481,0,0,0
31106,46798,28679,0,0,0
31223,46871,28838,0,0,0
31338,46953,28997,0,0,0
31431,47029,29144,0,0,0
31491,47072,29248,0,0,0
31533,47092,29320,0,0,0
31574,47123,29393,0,0,0
31604,47153,29458,0,0,0
31625,47162,29492,0,0,0
31655,47172,29524,0,0,0
31699,47209,29583,0,0,0
31741,47255,29645,0,0,0
31772,47286,29684,0,0,0
31804,47312,29715,0,0,0
31840,47354,29763,0,0,0
31865,47392,29804,0,0,0
31881,47406,29816,0,0,0
31907,47418,29828,0,0,0
31934,47442,29855,0,0,0
31941,47449,29867,0,0,0
31934,47429,29851,0,0,0
31928,47406,29829,0,0,0
31910,47388,29811,0,0,0
31860,47350,29764,0,0,0
31790,47282,29679,0,0,0
31724,47219,29592,0,0,0
31659,47170,29518,0,0,0
31582,47108,29429,0,0,0
31505,47031,29320,0,0,0
31444,46972,29221,0,0,0
31390,46936,29139,0,0,0
31330,46894,29045,0,0,0
31270,46841,28935,0,0,0
31223,46801,28841,0,0,0
31179,46776,28762,0,0,0
31126,46737,28669,0,0,0
31076,46691,28572,0,0,0
31044,46667,28508,0,0,0
31015,46657,28466,0,0,0
30969,46625,28403,0,0,0
30921,46581,28325,0,0,0
30889,46558,28267,0,0,0
30862,46549,28222,0,0,0
30826,46523,28163,0,0,0
30805,46494,28101,0,0,0
30810,46494,28070,0,0,0
30822,46508,28057,0,0,0
30824,46509,28031,0,0,0
30828,46508,28004,0,0,0
30838,46529,28002,0,0,0
30836,46549,27999,0,0,0
30816,46541,27969,0,0,0
30797,46524,27929,0,0,0
30780,46522,27902,0,0,0
30750,46513,27865,0,0,0
30703,46473,27798,0,0,0
30660,46427,27728,0,0,0
30620,46396,27674,0,0,0
30561,46356,27606,0,0,0
30491,46293,27511,0,0,0
30428,46231,27419,0,0,0
30363,46182,27343,0,0,0
30281,46120,27255,0,0,0
30193,46037,27140,0,0,0
30126,45966,27032,0,0,0
30067,45918,26947,0,0,0
29999,45864,26851,0,0,0
29934,45799,26734,0,0,0
29887,45755,26635,0,0,0
29850,45738,26560,0,0,0
29801,45709,26475,0,0,0
29747,45664,26378,0,0,0
29703,45628,26301,0,0,0
29657,45601,26238,0,0,0
29594,45554,26154,0,0,0
29525,45492,26050,0,0,0
29463,45444,25961,0,0,0
29399,45411,25880,0,0,0
29327,45366,25781,0,0,0
29269,45320,25679,0,0,0
29237,45300,25609,0,0,0
29212,45298,25559,0,0,0
29178,45279,25494,0,0,0
29147,45250,25422,0,0,0
29125,45235,25368,0,0,0
29091,45219,25312,0,0,0
29037,45174,25224,0,0,0
28986,45118,25130,0,0,0
28948,45081,25064,0,0,0
28904,45051,25007,0,0,0
28843,45001,24927,0,0,0
28781,44950,24841,0,0,0
28728,44921,24777,0,0,0
28664,44889,24705,0,0,0
28583,44828,24603,0,0,0
28505,44765,24499,0,0,0
28435,44721,24410,0,0,0
28359,44673,24310,0,0,0
28281,44605,24187,0,0,0
28220,44544,24078,0,0,0
28173,44505,24001,0,0,0
28117,44461,23927,0,0,0
28061,44405,23845,0,0,0
28025,44367,23782,0,0,0
28004,44359,23755,0,0,0
27985,44363,23745,0,0,0
27982,44371,23748,0,0,0
28024,44412,23801,0,0,0
28107,44495,23914,0,0,0
28210,44591,24059,0,0,0
28345,44700,24238,0,0,0
28523,44850,24483,0,0,0
28729,45033,24785,0,0,0
28949,45215,25106,0,0,0
29189,45399,25443,0,0,0
29458,45608,25817,0,0,0
29740,45833,26217,0,0,0
30017,46049,26610,0,0,0
30300,46261,27002,0,0,0
30595,46498,27418,0,0,0
30881,46740,27837,0,0,0
31141,46951,28214,0,0,0
31386,47137,28553,0,0,0
31623,47326,28883,0,0,0
31834,47503,29189,0,0,0
32011,47639,29438,0,0,0
32170,47751,29647,0,0,0
32324,47872,29854,0,0,0
32462,47991,30047,0,0,0
32575,48077,30196,0,0,0
32679,48147,30323,0,0,0
32779,48231,30458,0,0,0
32855,48306,30580,0,0,0
32906,48349,30667,0,0,0
32952,48378,30738,0,0,0
33001,48415,30812,0,0,0
33037,48446,30870,0,0,0
33061,48456,30897,0,0,0
33092,48466,30926,0,0,0
33130,48490,30975,0,0,0
33151,48500,31011,0,0,0
33154,48483,31017,0,0,0
33162,48470,31027,0,0,0
33170,48471,31053,0,0,0
33157,48459,31063,0,0,0
33135,48428,31047,0,0,0
33127,48410,31037,0,0,0
33125,48409,31038,0,0,0
33109,48399,31016,0,0,0
33088,48372,30968,0,0,0
33072,48353,30928,0,0,0
33048,48341,30895,0,0,0
32997,48305,30835,0,0,0
32928,48245,30749,0,0,0
32857,48191,30663,0,0,0
32772,48139,30574,0,0,0
32670,48064,30454,0,0,0
32574,47977,30319,0,0,0
32498,47914,30209,0,0,0
32429,47870,30120,0,0,0
32353,47817,30015,0,0,0
32282,47759,29901,0,0,0
32229,47723,29811,0,0,0
32181,47698,29736,0,0,0
32126,47656,29646,0,0,0
32080,47609,29554,0,0,0
32057,47588,29493,0,0,0
32039,47580,29449,0,0,0
32014,47561,29391,0,0,0
31995,47541,29339,0,0,0
31986,47543,29318,0,0,0
31965,47546,29301,0,0,0
31930,47523,29259,0,0,0
31901,47493,29211,0,0,0
31882,47478,29181,0,0,0
31856,47458,29147,0,0,0
31813,47412,29085,0,0,0
31773,47366,29027,0,0,0
31740,47338,28992,0,0,0
31694,47302,28953,0,0,0
31637,47243,28887,0,0,0
31584,47186,28818,0,0,0
31524,47138,28760,0,0,0
31437,47070,28682,0,0,0
31331,46972,28569,0,0,0
31232,46881,28460,0,0,0
31136,46809,28365,0,0,0
31028,46728,28257,0,0,0
30918,46634,28132,0,0,0
30822,46554,28019,0,0,0
30730,46489,27921,0,0,0
30628,46409,27807,0,0,0
30525,46310,27672,0,0,0
30436,46222,27548,0,0,0
30350,46150,27437,0,0,0
30255,46067,27311,0,0,0
30162,45978,27175,0,0,0
30088,45914,27065,0,0,0
30023,45874,26973,0,0,0
29952,45823,26865,0,0,0
29883,45765,26749,0,0,0
29824,45726,26656,0,0,0
29757,45694,26574,0,0,0
29668,45634,26470,0,0,0
29574,45561,26352,0,0,0
29497,45507,26257,0,0,0
29428,45466,26170,0,0,0
29357,45409,26061,0,0,0
29298,45352,25951,0,0,0
29254,45322,25872,0,0,0
29200,45295,25798,0,0,0
29126,45243,25697,0,0,0
29053,45186,25591,0,0,0
28993,45148,25508,0,0,0
28932,45115,25429,0,0,0
28868,45063,25329,0,0,0
28807,45010,25234,0,0,0
28751,44977,25165,0,0,0
28681,44937,25090,0,0,0
28602,44875,24990,0,0,0
28537,44817,24896,0,0,0
28479,44776,24820,0,0,0
28413,44728,24731,0,0,0
28349,44666,24622,0,0,0
28306,44618,24524,0,0,0
28271,44593,24448,0,0,0
28219,44560,24362,0,0,0
28158,44515,24262,0,0,0
28106,44483,24178,0,0,0
28056,44461,24110,0,0,0
27993,44422,24027,0,0,0
27926,44365,23927,0,0,0
27874,44323,23841,0,0,0
27830,44299,23772,0,0,0
27782,44270,23694,0,0,0
27743,44239,23616,0,0,0
27727,44230,23573,0,0,0
27723,44242,23567,0,0,0
27721,44247,23570,0,0,0
27733,44250,23589,0,0,0
27774,44284,23659,0,0,0
27839,44349,23774,0,0,0
27918,44415,23908,0,0,0
28030,44493,24074,0,0,0
28187,44615,24305,0,0,0
28376,44767,24586,0,0,0
28578,44916,24881,0,0,0
28801,45070,25198,0,0,0
29050,45255,25565,0,0,0
29300,45454,25954,0,0,0
29541,45638,26330,0,0,0
29793,45824,26701,0,0,0
30060,46036,27087,0,0,0
30320,46253,27466,0,0,0
30560,46447,27808,0,0,0
30790,46631,28129,0,0,0
31012,46823,28449,0,0,0
31199,46993,28734,0,0,0
31345,47117,28964,0,0,0
31471,47221,29164,0,0,0
31578,47316,29349,0,0,0
31651,47377,29489,0,0,0
31698,47393,29573,0,0,0
31738,47402,29640,0,0,0
31768,47420,29707,0,0,0
31774,47423,29749,0,0,0
31765,47404,29765,0,0,0
31759,47393,29787,0,0,0
31753,47398,29822,0,0,0
31735,47389,29838,0,0,0
31721,47365,29830,0,0,0
31724,47355,29830,0,0,0
31731,47365,29847,0,0,0
31730,47368,29851,0,0,0
31732,47358,29843,0,0,0
31750,47363,29852,0,0,0
31770,47382,29873,0,0,0
31772,47381,29868,0,0,0
31762,47358,29837,0,0,0
31749,47338,29811,0,0,0
31718,47316,29784,0,0,0
31654,47262,29717,0,0,0
31576,47184,29622,0,0,0
31505,47120,29537,0,0,0
31428,47064,29449,0,0,0
31337,46985,29329,0,0,0
31251,46898,29199,0,0,0
31179,46832,29095,0,0,0
31099,46772,28998,0,0,0
31001,46691,28876,0,0,0
30901,46608,28747,0,0,0
30810,46549,28643,0,0,0
30715,46497,28545,0,0,0
30618,46425,28428,0,0,0
30539,46354,28319,0,0,0
30484,46310,28239,0,0,0
30433,46273,28167,0,0,0
30382,46226,28084,0,0,0
30341,46187,28013,0,0,0
30308,46173,27964,0,0,0
30266,46154,27910,0,0,0
30217,46112,27835,0,0,0
30183,46079,27770,0,0,0
30161,46067,27732,0,0,0
30132,46048,27695,0,0,0
30099,46015,27645,0,0,0
30076,45998,27611,0,0,0
30057,46005,27601,0,0,0
30023,45998,27576,0,0,0
29981,45965,27521,0,0,0
29945,45934,27472,0,0,0
29907,45911,27434,0,0,0
29854,45868,27370,0,0,0
29797,45804,27279,0,0,0
29754,45751,27200,0,0,0
29718,45717,27139,0,0,0
29672,45672,27062,0,0,0
29620,45617,26969,0,0,0
29578,45580,26893,0,0,0
29531,45553,26829,0,0,0
29461,45502,26737,0,0,0
29379,45430,26620,0,0,0
29305,45371,26517,0,0,0
29229,45320,26423,0,0,0
29141,45247,26310,0,0,0
29060,45169,26198,0,0,0
28996,45115,26115,0,0,0
28928,45067,26037,0,0,0
28845,44995,25929,0,0,0
28761,44917,25808,0,0,0
28688,44863,25708,0,0,0
28612,44822,25615,0,0,0
28529,44766,25502,0,0,0
28460,44714,25395,0,0,0
28411,44691,25320,0,0,0
28357,44671,25246,0,0,0
28293,44632,25152,0,0,0
28235,44589,25058,0,0,0
28179,44555,24980,0,0,0
28105,44502,24888,0,0,0
28017,44416,24766,0,0,0
27938,44333,24649,0,0,0
27866,44268,24556,0,0,0
27780,44196,24458,0,0,0
27688,44107,24342,0,0,0
27604,44026,24232,0,0,0
27520,43961,24136,0,0,0
27422,43889,24021,0,0,0
27323,43803,23883,0,0,0
27245,43733,23757,0,0,0
27181,43685,23654,0,0,0
27109,43630,23548,0,0,0
27038,43566,23435,0,0,0
26982,43520,23343,0,0,0
26926,43488,23270,0,0,0
26852,43441,23182,0,0,0
26772,43375,23081,0,0,0
26697,43315,22993,0,0,0
26616,43265,22907,0,0,0
26522,43198,22798,0,0,0
26435,43122,22680,0,0,0
26368,43065,22588,0,0,0
26303,43020,22513,0,0,0
26227,42958,22424,0,0,0
26157,42892,22334,0,0,0
26111,42857,22280,0,0,0
26084,42847,22254,0,0,0
26075,42843,22228,0,0,0
26103,42861,22230,0,0,0
26174,42925,22302,0,0,0
26268,43016,22426,0,0,0
26374,43100,22571,0,0,0
26503,43193,22747,0,0,0
26662,43321,22985,0,0,0
26835,43466,23259,0,0,0
27015,43601,23540,0,0,0
27220,43753,23853,0,0,0
27453,43943,24213,0,0,0
27692,44144,24586,0,0,0
27931,44332,24950,0,0,0
28180,44522,25318,0,0,0
28430,44724,25697,0,0,0
28654,44908,26050,0,0,0
28850,45058,26356,0,0,0
29046,45206,26647,0,0,0
29241,45361,26936,0,0,0
29413,45496,27185,0,0,0
29564,45602,27381,0,0,0
29706,45703,27555,0,0,0
29830,45810,27721,0,0,0
29919,45894,27844,0,0,0
29983,45943,27917,0,0,0
30045,45987,27977,0,0,0
30100,46036,28036,0,0,0
30134,46063,28065,0,0,0
30151,46063,28066,0,0,0
30167,46063,28075,0,0,0
30172,46063,28092,0,0,0
30152,46039,28079,0,0,0
30120,45996,28043,0,0,0
30094,45967,28017,0,0,0
30062,45946,27996,0,0,0
30014,45906,27951,0,0,0
29971,45858,27896,0,0,0
29947,45832,27866,0,0,0
29922,45818,27846,0,0,0
29877,45779,27797,0,0,0
29825,45726,27729,0,0,0
29783,45695,27674,0,0,0
29743,45679,27621,0,0,0
29698,45648,27543,0,0,0
29660,45619,27464,0,0,0
29636,45614,27411,0,0,0
29605,45611,27360,0,0,0
29556,45580,27280,0,0,0
29500,45536,27190,0,0,0
29444,45505,27114,0,0,0
29382,45468,27032,0,0,0
29314,45403,26925,0,0,0
29257,45339,26823,0,0,0
29212,45299,26747,0,0,0
29159,45260,26671,0,0,0
29103,45211,26583,0,0,0
29065,45175,26513,0,0,0
29038,45162,26470,0,0,0
29001,45140,26420,0,0,0
28954,45098,26351,0,0,0
28920,45068,26295,0,0,0
28893,45062,26265,0,0,0
28861,45049,26230,0,0,0
28836,45024,26183,0,0,0
28831,45015,26156,0,0,0
28833,45025,26150,0,0,0
28820,45023,26130,0,0,0
28800,45004,26090,0,0,0
28786,44992,26062,0,0,0
28769,44984,26041,0,0,0
28735,44953,25994,0,0,0
28695,44904,25924,0,0,0
28667,44869,25867,0,0,0
28640,44847,25821,0,0,0
28602,44813,25757,0,0,0
28562,44769,25687,0,0,0
28529,44744,25638,0,0,0
28485,44727,25595,0,0,0
28416,44684,25524,0,0,0
28345,44627,25434,0,0,0
28291,44589,25361,0,0,0
28240,44559,25296,0,0,0
28178,44509,25208,0,0,0
28124,44455,25117,0,0,0
28085,44425,25050,0,0,0
28037,44396,24983,0,0,0
27973,44340,24889,0,0,0
27908,44273,24785,0,0,0
27847,44222,24698,0,0,0
27779,44170,24605,0,0,0
27700,44098,24483,0,0,0
27632,44032,24366,0,0,0
27582,43996,24280,0,0,0
27528,43962,24196,0,0,0
27465,43910,24094,0,0,0
27407,43861,24002,0,0,0
27346,43825,23930,0,0,0
27265,43775,23843,0,0,0
27172,43699,23726,0,0,0
27093,43629,23615,0,0,0
27021,43577,23524,0,0,0
26936,43514,23423,0,0,0
26845,43430,23302,0,0,0
26763,43349,23190,0,0,0
26681,43280,23089,0,0,0
26585,43201,22975,0,0,0
26490,43113,22845,0,0,0
26415,43047,22732,0,0,0
26352,43003,22637,0,0,0
26281,42949,22529,0,0,0
26210,42885,22409,0,0,0
26153,42837,22312,0,0,0
26094,42798,22234,0,0,0
26018,42739,22137,0,0,0
25940,42668,22024,0,0,0
25877,42620,21932,0,0,0
25818,42588,21860,0,0,0
25757,42544,21777,0,0,0
25713,42506,21700,0,0,0
25698,42506,21662,0,0,0
25695,42527,21656,0,0,0
25693,42538,21655,0,0,0
25709,42551,21674,0,0,0
25760,42597,21751,0,0,0
25841,42672,21876,0,0,0
25947,42753,22021,0,0,0
26092,42854,22210,0,0,0
26274,42999,22468,0,0,0
26475,43168,22769,0,0,0
26689,43337,23082,0,0,0
26922,43516,23418,0,0,0
27168,43714,23787,0,0,0
27409,43909,24160,0,0,0
27645,44083,24516,0,0,0
27891,44261,24880,0,0,0
28140,44459,25263,0,0,0
28370,44646,25628,0,0,0
28583,44801,25950,0,0,0
28792,44948,26254,0,0,0
28983,45096,26546,0,0,0
29142,45220,26795,0,0,0
29281,45316,26990,0,0,0
29417,45413,27169,0,0,0
29541,45518,27343,0,0,0
29635,45604,27481,0,0,0
29706,45664,27576,0,0,0
29770,45722,27661,0,0,0
29818,45781,27737,0,0,0
29835,45805,27774,0,0,0
29836,45796,27773,0,0,0
29836,45790,27771,0,0,0
29829,45791,27773,0,0,0
29800,45773,27749,0,0,0
29766,45739,27709,0,0,0
29746,45719,27689,0,0,0
29725,45706,27678,0,0,0
29689,45669,27639,0,0,0
29652,45618,27584,0,0,0
29629,45588,27550,0,0,0
29606,45571,27522,0,0,0
29569,45541,27466,0,0,0
29535,45509,27399,0,0,0
29513,45500,27355,0,0,0
29481,45492,27312,0,0,0
29423,45451,27237,0,0,0
29356,45391,27142,0,0,0
29298,45347,27060,0,0,0
29236,45307,26978,0,0,0
29164,45245,26870,0,0,0
29098,45179,26759,0,0,0
29047,45135,26668,0,0,0
28985,45089,26571,0,0,0
28906,45020,26446,0,0,0
28833,44953,26323,0,0,0
28769,44907,26224,0,0,0
28703,44862,26128,0,0,0
28636,44806,26019,0,0,0
28592,44768,25930,0,0,0
28568,44762,25877,0,0,0
28538,44755,25827,0,0,0
28506,44732,25765,0,0,0
28490,44720,25719,0,0,0
28479,44723,25695,0,0,0
28454,44715,25662,0,0,0
28424,44688,25610,0,0,0
28406,44669,25576,0,0,0
28395,44666,25563,0,0,0
28370,44647,25535,0,0,0
28341,44611,25487,0,0,0
28325,44589,25453,0,0,0
28307,44581,25433,0,0,0
28271,44556,25391,0,0,0
28229,44515,25326,0,0,0
28200,44488,25275,0,0,0
28173,44470,25235,0,0,0
28128,44432,25173,0,0,0
28079,44380,25097,0,0,0
28034,44344,25038,0,0,0
27975,44313,24982,0,0,0
27891,44251,24897,0,0,0
27806,44173,24794,0,0,0
27739,44114,24710,0,0,0
27675,44069,24634,0,0,0
27603,44012,24536,0,0,0
27538,43956,24435,0,0,0
27485,43922,24357,0,0,0
27422,43888,24279,0,0,0
27345,43829,24172,0,0,0
27273,43762,24054,0,0,0
27209,43712,23952,0,0,0
27138,43663,23846,0,0,0
27061,43596,23716,0,0,0
26995,43530,23589,0,0,0
26941,43486,23493,0,0,0
26877,43443,23400,0,0,0
26806,43384,23289,0,0,0
26747,43330,23187,0,0,0
26696,43292,23107,0,0,0
26640,43248,23024,0,0,0
26587,43194,22924,0,0,0
26555,43153,22837,0,0,0
26533,43136,22776,0,0,0
26498,43115,22708,0,0,0
26455,43081,22622,0,0,0
26418,43053,22544,0,0,0
26378,43036,22481,0,0,0
26319,43002,22400,0,0,0
26252,42947,22296,0,0,0
26198,42902,22202,0,0,0
26153,42877,22128,0,0,0
26100,42841,22043,0,0,0
26040,42785,21949,0,0,0
25991,42740,21880,0,0,0
25946,42710,21827,0,0,0
25887,42660,21746,0,0,0
25818,42591,21641,0,0,0
25758,42539,21552,0,0,0
25699,42502,21477,0,0,0
25634,42453,21389,0,0,0
25585,42409,21309,0,0,0
25573,42407,21280,0,0,0
25583,42437,21291,0,0,0
25604,42469,21312,0,0,0
25654,42514,21366,0,0,0
25747,42602,21491,0,0,0
25867,42715,21668,0,0,0
26005,42826,21865,0,0,0
26181,42954,22106,0,0,0
26398,43126,22414,0,0,0
26640,43325,22767,0,0,0
26899,43525,23132,0,0,0
27182,43741,23525,0,0,0
27487,43991,23963,0,0,0
27789,44246,24411,0,0,0
28078,44480,24839,0,0,0
28367,44708,25268,0,0,0
28652,44940,25701,0,0,0
28914,45151,26101,0,0,0
29154,45325,26448,0,0,0
29388,45491,26770,0,0,0
29608,45663,27082,0,0,0
29790,45808,27349,0,0,0
29937,45911,27557,0,0,0
30066,46000,27738,0,0,0
30170,46083,27902,0,0,0
30238,46137,28024,0,0,0
30287,46164,28105,0,0,0
30332,46196,28181,0,0,0
30368,46237,28258,0,0,0
30383,46259,28308,0,0,0
30386,46258,28330,0,0,0
30389,46263,28357,0,0,0
30387,46277,28389,0,0,0
30373,46272,28392,0,0,0
30360,46252,28372,0,0,0
30367,46252,28369,0,0,0
30380,46267,28382,0,0,0
30381,46269,28377,0,0,0
30382,46264,28361,0,0,0
30394,46278,28364,0,0,0
30397,46300,28369,0,0,0
30381,46296,28340,0,0,0
30361,46278,28291,0,0,0
30349,46273,28258,0,0,0
30332,46272,28223,0,0,0
30297,46245,28156,0,0,0
30259,46204,28075,0,0,0
30222,46173,28016,0,0,0
30167,46136,27957,0,0,0
30086,46069,27868,0,0,0
29999,45988,27763,0,0,0
29918,45921,27668,0,0,0
29830,45853,27565,0,0,0
29735,45764,27426,0,0,0
29651,45680,27285,0,0,0
29581,45623,27172,0,0,0
29508,45569,27060,0,0,0
29434,45501,26934,0,0,0
29375,45446,26824,0,0,0
29328,45416,26742,0,0,0
29273,45384,26660,0,0,0
29212,45338,26564,0,0,0
29172,45305,26484,0,0,0
29150,45294,26434,0,0,0
29127,45280,26384,0,0,0
29105,45256,26323,0,0,0
29095,45244,26281,0,0,0
29086,45248,26261,0,0,0
29061,45239,26231,0,0,0
29028,45210,26183,0,0,0
29003,45190,26144,0,0,0
28983,45183,26116,0,0,0
28948,45161,26069,0,0,0
28905,45121,26003,0,0,0
28871,45089,25951,0,0,0
28835,45065,25908,0,0,0
28779,45019,25841,0,0,0
28717,44958,25758,0,0,0
28667,44912,25692,0,0,0
28617,44876,25629,0,0,0
28557,44827,25539,0,0,0
28508,44779,25441,0,0,0
28481,44760,25372,0,0,0
28455,44750,25317,0,0,0
28414,44715,25242,0,0,0
28365,44665,25152,0,0,0
28315,44627,25075,0,0,0
28248,44588,24992,0,0,0
28164,44524,24875,0,0,0
28090,44457,24748,0,0,0
28029,44409,24639,0,0,0
27965,44362,24532,0,0,0
27890,44296,24410,0,0,0
27820,44233,24297,0,0,0
27757,44196,24211,0,0,0
27687,44157,24124,0,0,0
27612,44097,24013,0,0,0
27547,44038,23908,0,0,0
27487,43995,23825,0,0,0
27416,43946,23734,0,0,0
27343,43877,23626,0,0,0
27289,43819,23530,0,0,0
27246,43787,23461,0,0,0
27186,43747,23383,0,0,0
27112,43683,23280,0,0,0
27046,43625,23179,0,0,0
26975,43577,23089,0,0,0
26885,43512,22978,0,0,0
26788,43429,22842,0,0,0
26707,43358,22718,0,0,0
26634,43305,22612,0,0,0
26553,43243,22496,0,0,0
26476,43174,22371,0,0,0
26418,43124,22270,0,0,0
26366,43090,22187,0,0,0
26301,43045,22093,0,0,0
26237,42993,21990,0,0,0
26189,42961,21907,0,0,0
26148,42944,21840,0,0,0
26105,42915,21760,0,0,0
26082,42888,21686,0,0,0
26089,42895,21655,0,0,0
26109,42921,21658,0,0,0
26131,42940,21664,0,0,0
26173,42961,21693,0,0,0
26249,43020,21780,0,0,0
26349,43109,21914,0,0,0
26469,43202,22072,0,0,0
26630,43321,22278,0,0,0
26837,43491,22559,0,0,0
27066,43690,22893,0,0,0
27306,43888,23249,0,0,0
27566,44094,23635,0,0,0
27847,44324,24065,0,0,0
28127,44556,24505,0,0,0
28401,44766,24921,0,0,0
28685,44976,25337,0,0,0
28974,45201,25768,0,0,0
29248,45416,26177,0,0,0
29505,45604,26543,0,0,0
29757,45790,26891,0,0,0
29993,45981,27228,0,0,0
30194,46147,27518,0,0,0
30367,46277,27750,0,0,0
30536,46405,27966,0,0,0
30695,46544,28177,0,0,0
30826,46662,28353,0,0,0
30937,46749,28485,0,0,0
31043,46834,28608,0,0,0
31133,46925,28726,0,0,0
31191,46993,28812,0,0,0
31226,47033,28864,0,0,0
31258,47069,28912,0,0,0
31282,47105,28957,0,0,0
31286,47114,28969,0,0,0
31279,47104,28961,0,0,0
31282,47108,28971,0,0,0
31288,47124,28990,0,0,0
31280,47118,28980,0,0,0
31268,47099,28951,0,0,0
31268,47099,28940,0,0,0
31265,47106,28935,0,0,0
31246,47089,28905,0,0,0
31232,47066,28866,0,0,0
31238,47069,28854,0,0,0
31238,47078,28845,0,0,0
31211,47055,28799,0,0,0
31174,47013,28733,0,0,0
31141,46983,28676,0,0,0
31095,46949,28611,0,0,0
31024,46883,28512,0,0,0
30952,46811,28404,0,0,0
30891,46762,28317,0,0,0
30824,46720,28228,0,0,0
30746,46659,28114,0,0,0
30676,46600,27997,0,0,0
30617,46562,27902,0,0,0
30550,46522,27802,0,0,0
30473,46461,27677,0,0,0
30413,46407,27563,0,0,0
30369,46379,27483,0,0,0
30321,46354,27407,0,0,0
30276,46322,27319,0,0,0
30256,46303,27245,0,0,0
30248,46305,27201,0,0,0
30229,46298,27155,0,0,0
30203,46272,27097,0,0,0
30184,46254,27053,0,0,0
30165,46247,27023,0,0,0
30133,46224,26978,0,0,0
30100,46184,26915,0,0,0
30083,46152,26866,0,0,0
30071,46135,26832,0,0,0
30045,46107,26784,0,0,0
30016,46068,26724,0,0,0
29998,46045,26685,0,0,0
29979,46036,26662,0,0,0
29942,46011,26615,0,0,0
29899,45971,26546,0,0,0
29863,45944,26490,0,0,0
29821,45923,26437,0,0,0
29762,45879,26356,0,0,0
29707,45824,26264,0,0,0
29665,45785,26197,0,0,0
29615,45750,26133,0,0,0
29540,45691,26036,0,0,0
29457,45623,25925,0,0,0
29383,45574,25834,0,0,0
29307,45528,25746,0,0,0
29223,45459,25629,0,0,0
29154,45393,25508,0,0,0
29108,45362,25417,0,0,0
29063,45341,25333,0,0,0
29009,45299,25228,0,0,0
28959,45249,25124,0,0,0
28916,45215,25046,0,0,0
28859,45173,24963,0,0,0
28785,45102,24851,0,0,0
28715,45034,24746,0,0,0
28650,44984,24664,0,0,0
28573,44927,24575,0,0,0
28492,44850,24462,0,0,0
28429,44785,24354,0,0,0
28373,44741,24270,0,0,0
28303,44693,24180,0,0,0
28226,44630,24070,0,0,0
28161,44578,23969,0,0,0
28101,44540,23883,0,0,0
28033,44491,23785,0,0,0
27965,44428,23668,0,0,0
27909,44376,23564,0,0,0
27849,44337,23479,0,0,0
27773,44278,23382,0,0,0
27688,44199,23267,0,0,0
27609,44125,23165,0,0,0
27525,44058,23074,0,0,0
27426,43974,22958,0,0,0
27328,43876,22820,0,0,0
27247,43797,22699,0,0,0
27167,43737,22593,0,0,0
27078,43664,22469,0,0,0
26997,43588,22342,0,0,0
26930,43538,22243,0,0,0
26856,43497,22154,0,0,0
26769,43432,22039,0,0,0
26694,43360,21921,0,0,0
26645,43315,21840,0,0,0
26604,43289,21782,0,0,0
26560,43255,21717,0,0,0
26528,43223,21662,0,0,0
26517,43221,21652,0,0,0
26512,43233,21667,0,0,0
26517,43238,21686,0,0,0
26560,43264,21741,0,0,0
26647,43339,21861,0,0,0
26765,43447,22030,0,0,0
26916,43568,22232,0,0,0
27110,43719,22490,0,0,0
27342,43911,22819,0,0,0
27591,44117,23185,0,0,0
27852,44318,23562,0,0,0
28145,44541,23976,0,0,0
28464,44795,24433,0,0,0
28781,45047,24896,0,0,0
29095,45284,25342,0,0,0
29416,45531,25789,0,0,0
29727,45791,26239,0,0,0
30002,46025,26649,0,0,0
30243,46218,27005,0,0,0
30473,46398,27336,0,0,0
30688,46573,27651,0,0,0
30868,46717,27917,0,0,0
31022,46829,28129,0,0,0
31168,46942,28323,0,0,0
31299,47058,28507,0,0,0
31400,47146,28651,0,0,0
31481,47206,28761,0,0,0
31557,47270,28870,0,0,0
31610,47331,28967,0,0,0
31627,47355,29015,0,0,0
31632,47358,29029,0,0,0
31648,47378,29052,0,0,0
31660,47409,29083,0,0,0
31653,47416,29088,0,0,0
31644,47409,29080,0,0,0
31646,47416,29091,0,0,0
31643,47422,29100,0,0,0
31624,47397,29079,0,0,0
31611,47365,29051,0,0,0
31613,47361,29046,0,0,0
31614,47369,29047,0,0,0
31603,47355,29016,0,0,0
31589,47328,28969,0,0,0
31573,47314,28935,0,0,0
31538,47293,28890,0,0,0
31482,47244,28812,0,0,0
31432,47198,28729,0,0,0
31396,47177,28665,0,0,0
31358,47161,28594,0,0,0
31318,47131,28502,0,0,0
31287,47106,28416,0,0,0
31257,47095,28351,0,0,0
31206,47069,28272,0,0,0
31139,47014,28157,0,0,0
31086,46969,28046,0,0,0
31042,46943,27959,0,0,0
30981,46903,27868,0,0,0
30910,46839,27761,0,0,0
30851,46783,27667,0,0,0
30795,46744,27589,0,0,0
30728,46700,27499,0,0,0
30662,46646,27398,0,0,0
30619,46611,27315,0,0,0
30590,46596,27256,0,0,0
30559,46573,27190,0,0,0
30535,46542,27118,0,0,0
30527,46528,27074,0,0,0
30522,46525,27051,0,0,0
30503,46505,27012,0,0,0
30478,46474,26957,0,0,0
30460,46455,26915,0,0,0
30435,46440,26882,0,0,0
30391,46401,26824,0,0,0
30349,46353,26754,0,0,0
30322,46329,26704,0,0,0
30289,46310,26667,0,0,0
30238,46269,26609,0,0,0
30186,46219,26538,0,0,0
30143,46185,26482,0,0,0
30095,46150,26425,0,0,0
30038,46091,26342,0,0,0
29990,46033,26253,0,0,0
29955,46002,26184,0,0,0
29920,45982,26120,0,0,0
29878,45948,26034,0,0,0
29836,45916,25947,0,0,0
29798,45906,25882,0,0,0
29747,45891,25815,0,0,0
29688,45852,25726,0,0,0
29641,45814,25639,0,0,0
29600,45789,25564,0,0,0
29546,45751,25474,0,0,0
29488,45695,25359,0,0,0
29440,45650,25256,0,0,0
29390,45625,25180,0,0,0
29312,45577,25088,0,0,0
29215,45494,24964,0,0,0
29119,45411,24842,0,0,0
29023,45339,24736,0,0,0
28920,45257,24619,0,0,0
28825,45164,24487,0,0,0
28753,45097,24375,0,0,0
28701,45065,24293,0,0,0
28646,45032,24207,0,0,0
28589,44984,24109,0,0,0
28542,44945,24030,0,0,0
28496,44918,23966,0,0,0
28433,44868,23877,0,0,0
28359,44796,23762,0,0,0
28292,44733,23665,0,0,0
28226,44678,23586,0,0,0
28149,44601,23489,0,0,0
28074,44518,23382,0,0,0
28013,44461,23297,0,0,0
27942,44410,23218,0,0,0
27843,44335,23109,0,0,0
27737,44249,22983,0,0,0
27650,44184,22876,0,0,0
27573,44132,22779,0,0,0
27498,44070,22666,0,0,0
27441,44018,22557,0,0,0
27408,43998,22481,0,0,0
27373,43987,22415,0,0,0
27328,43953,22332,0,0,0
27285,43912,22244,0,0,0
27246,43890,22173,0,0,0
27200,43867,22099,0,0,0
27149,43822,22005,0,0,0
27116,43783,21930,0,0,0
27107,43772,21901,0,0,0
27104,43774,21894,0,0,0
27114,43780,21898,0,0,0
27156,43812,21946,0,0,0
27226,43881,22056,0,0,0
27313,43965,22204,0,0,0
27426,44053,22382,0,0,0
27588,44174,22618,0,0,0
27795,44340,22922,0,0,0
28030,44525,23263,0,0,0
28298,44720,23630,0,0,0
28602,44948,24042,0,0,0
28917,45207,24495,0,0,0
29219,45457,24947,0,0,0
29512,45687,25379,0,0,0
29809,45920,25813,0,0,0
30097,46156,26244,0,0,0
30361,46370,26637,0,0,0
30610,46557,26991,0,0,0
30849,46743,27334,0,0,0
31061,46924,27654,0,0,0
31233,47070,27919,0,0,0
31380,47184,28137,0,0,0
31513,47292,28341,0,0,0
31613,47385,28515,0,0,0
31673,47436,28628,0,0,0
31720,47462,28696,0,0,0
31770,47500,28762,0,0,0
31807,47540,28817,0,0,0
31821,47548,28834,0,0,0
31826,47538,28827,0,0,0
31833,47540,28831,0,0,0
31818,47533,28823,0,0,0
31776,47493,28776,0,0,0
31732,47443,28715,0,0,0
31701,47415,28672,0,0,0
31668,47394,28636,0,0,0
31630,47358,28581,0,0,0
31599,47322,28530,0,0,0
31577,47312,28505,0,0,0
31544,47300,28476,0,0,0
31499,47261,28416,0,0,0
31460,47220,28349,0,0,0
31420,47188,28290,0,0,0
31360,47142,28211,0,0,0
31288,47073,28103,0,0,0
31224,47006,28001,0,0,0
31158,46950,27915,0,0,0
31069,46876,27813,0,0,0
30967,46778,27687,0,0,0
30871,46687,27567,0,0,0
30773,46611,27457,0,0,0
30660,46523,27332,0,0,0
30547,46421,27189,0,0,0
30453,46337,27064,0,0,0
30371,46275,26961,0,0,0
30283,46211,26853,0,0,0
30203,46145,26741,0,0,0
30142,46103,26653,0,0,0
30088,46082,26587,0,0,0
30026,46051,26510,0,0,0
29969,46013,26424,0,0,0
29930,45994,26360,0,0,0
29899,45986,26316,0,0,0
29867,45961,26261,0,0,0
29849,45931,26205,0,0,0
29853,45924,26184,0,0,0
29857,45925,26177,0,0,0
29838,45905,26141,0,0,0
29812,45870,26089,0,0,0
29791,45850,26054,0,0,0
29759,45831,26022,0,0,0
29711,45787,25962,0,0,0
29671,45740,25893,0,0,0
29647,45719,25849,0,0,0
29617,45705,25811,0,0,0
29575,45672,25747,0,0,0
29533,45636,25679,0,0,0
29499,45621,25635,0,0,0
29449,45599,25584,0,0,0
29377,45548,25497,0,0,0
29305,45489,25402,0,0,0
29237,45441,25321,0,0,0
29160,45381,25226,0,0,0
29084,45301,25105,0,0,0
29025,45227,24990,0,0,0
28970,45172,24895,0,0,0
28890,45109,24788,0,0,0
28793,45030,24659,0,0,0
28706,44959,24541,0,0,0
28624,44901,24440,0,0,0
28533,44836,24327,0,0,0
28446,44758,24199,0,0,0
28378,44697,24088,0,0,0
28320,44657,24001,0,0,0
28251,44608,23907,0,0,0
28180,44545,23804,0,0,0
28122,44498,23722,0,0,0
28064,44470,23655,0,0,0
27993,44430,23569,0,0,0
27920,44374,23464,0,0,0
27860,44330,23371,0,0,0
27799,44297,23287,0,0,0
27729,44249,23184,0,0,0
27664,44191,23073,0,0,0
27616,44153,22989,0,0,0
27565,44128,22921,0,0,0
27495,44079,22832,0,0,0
27417,44012,22727,0,0,0
27349,43962,22638,0,0,0
27282,43920,22553,0,0,0
27207,43860,22443,0,0,0
27141,43799,22329,0,0,0
27093,43761,22239,0,0,0
27042,43730,22160,0,0,0
26978,43676,22061,0,0,0
26916,43615,21958,0,0,0
26866,43577,21880,0,0,0
26813,43545,21803,0,0,0
26747,43491,21703,0,0,0
26689,43440,21609,0,0,0
26643,43418,21547,0,0,0
26593,43396,21484,0,0,0
26544,43357,21405,0,0,0
26514,43328,21336,0,0,0
26491,43325,21292,0,0,0
26458,43319,21238,0,0,0
26424,43292,21162,0,0,0
26418,43286,21107,0,0,0
26445,43320,21099,0,0,0
26480,43365,21110,0,0,0
26531,43407,21132,0,0,0
26616,43473,21200,0,0,0
26730,43574,21322,0,0,0
26857,43684,21473,0,0,0
27008,43801,21651,0,0,0
27202,43957,21889,0,0,0
27430,44154,22191,0,0,0
27674,44361,22521,0,0,0
27943,44579,22881,0,0,0
28249,44827,23300,0,0,0
28569,45096,23765,0,0,0
28883,45350,24229,0,0,0
29199,45592,24684,0,0,0
29522,45842,25150,0,0,0
29824,46085,25607,0,0,0
30090,46289,26013,0,0,0
30335,46461,26378,0,0,0
30575,46632,26731,0,0,0
30789,46795,27055,0,0,0
30962,46921,27317,0,0,0
31113,47023,27532,0,0,0
31249,47130,27733,0,0,0
31354,47227,27899,0,0,0
31430,47290,28004,0,0,0
31498,47338,28076,0,0,0
31563,47396,28146,0,0,0
31610,47446,28198,0,0,0
31634,47460,28209,0,0,0
31646,47455,28204,0,0,0
31651,47458,28209,0,0,0
31631,47447,28198,0,0,0
31587,47404,28153,0,0,0
31539,47355,28103,0,0,0
31486,47316,28066,0,0,0
31414,47258,28009,0,0,0
31331,47165,27912,0,0,0
31259,47072,27813,0,0,0
31193,47005,27732,0,0,0
31110,46937,27644,0,0,0
31019,46856,27539,0,0,0
30938,46786,27444,0,0,0
30858,46734,27366,0,0,0
30760,46671,27273,0,0,0
30658,46589,27157,0,0,0
30573,46516,27051,0,0,0
30496,46464,26959,0,0,0
30412,46406,26850,0,0,0
30332,46338,26726,0,0,0
30271,46285,26622,0,0,0
30210,46244,26534,0,0,0
30132,46184,26430,0,0,0
30051,46107,26311,0,0,0
29977,46042,26205,0,0,0
29898,45985,26105,0,0,0
29810,45917,25982,0,0,0
29734,45846,25856,0,0,0
29686,45803,25766,0,0,0
29651,45782,25705,0,0,0
29614,45753,25637,0,0,0
29587,45725,25570,0,0,0
29574,45718,25536,0,0,0
29554,45715,25516,0,0,0
29516,45687,25472,0,0,0
29478,45649,25417,0,0,0
29449,45628,25381,0,0,0
29409,45605,25345,0,0,0
29353,45553,25281,0,0,0
29301,45491,25213,0,0,0
29263,45450,25170,0,0,0
29219,45410,25131,0,0,0
29162,45349,25069,0,0,0
29109,45290,25006,0,0,0
29060,45250,24960,0,0,0
29002,45210,24900,0,0,0
28936,45150,24810,0,0,0
28879,45095,24724,0,0,0
28822,45055,24658,0,0,0
28750,45007,24582,0,0,0
28671,44941,24484,0,0,0
28605,44883,24391,0,0,0
28539,44841,24312,0,0,0
28450,44785,24217,0,0,0
28348,44706,24096,0,0,0
28256,44632,23980,0,0,0
28163,44569,23877,0,0,0
28051,44487,23755,0,0,0
27938,44381,23613,0,0,0
27840,44282,23484,0,0,0
27745,44196,23375,0,0,0
27633,44096,23255,0,0,0
27517,43984,23122,0,0,0
27410,43886,23003,0,0,0
27302,43798,22895,0,0,0
27183,43697,22764,0,0,0
27070,43590,22620,0,0,0
26978,43510,22505,0,0,0
26894,43453,22410,0,0,0
26808,43387,22300,0,0,0
26736,43320,22188,0,0,0
26683,43280,22105,0,0,0
26621,43248,22032,0,0,0
26533,43188,21931,0,0,0
26444,43117,21823,0,0,0
26374,43071,21743,0,0,0
26309,43036,21672,0,0,0
26238,42981,21576,0,0,0
26175,42923,21477,0,0,0
26123,42888,21406,0,0,0
26060,42854,21338,0,0,0
25984,42796,21248,0,0,0
25914,42738,21156,0,0,0
25851,42696,21079,0,0,0
25779,42647,20997,0,0,0
25700,42574,20893,0,0,0
25633,42506,20795,0,0,0
25573,42459,20721,0,0,0
25496,42401,20634,0,0,0
25408,42321,20520,0,0,0
25330,42247,20410,0,0,0
25253,42192,20318,0,0,0
25158,42126,20213,0,0,0
25052,42041,20083,0,0,0
24963,41967,19966,0,0,0
24889,41920,19879,0,0,0
24810,41871,19787,0,0,0
24731,41807,19678,0,0,0
24669,41755,19589,0,0,0
24616,41722,19529,0,0,0
24561,41687,19467,0,0,0
24516,41650,19404,0,0,0
24497,41639,19378,0,0,0
24499,41657,19389,0,0,0
24511,41680,19408,0,0,0
24552,41714,19452,0,0,0
24638,41787,19564,0,0,0
24758,41895,19742,0,0,0
24901,42012,19949,0,0,0
25080,42143,20192,0,0,0
25300,42311,20499,0,0,0
25539,42506,20857,0,0,0
25784,42698,21228,0,0,0
26042,42892,21617,0,0,0
26327,43114,22048,0,0,0
26619,43352,22498,0,0,0
26902,43571,22923,0,0,0
27187,43785,23336,0,0,0
27475,44017,23760,0,0,0
27739,44238,24169,0,0,0
27964,44412,24524,0,0,0
28160,44554,24836,0,0,0
28332,44689,25131,0,0,0
28463,44805,25382,0,0,0
28556,44878,25565,0,0,0
28637,44933,25709,0,0,0
28708,44992,25834,0,0,0
28752,45034,25920,0,0,0
28773,45050,25960,0,0,0
28790,45061,25985,0,0,0
28798,45080,26010,0,0,0
28778,45076,26003,0,0,0
28738,45040,25957,0,0,0
28703,45004,25907,0,0,0
28674,44986,25872,0,0,0
28641,44964,25823,0,0,0
28613,44934,25759,0,0,0
28594,44917,25709,0,0,0
28571,44915,25676,0,0,0
28528,44894,25629,0,0,0
28472,44848,25560,0,0,0
28417,44804,25497,0,0,0
28356,44764,25437,0,0,0
28272,44700,25347,0,0,0
28177,44614,25228,0,0,0
28090,44537,25118,0,0,0
28002,44470,25012,0,0,0
27900,44388,24880,0,0,0
27796,44295,24733,0,0,0
27700,44216,24605,0,0,0
27598,44145,24484,0,0,0
27479,44048,24337,0,0,0
27362,43935,24176,0,0,0
27266,43845,24037,0,0,0
27180,43771,23915,0,0,0
27090,43685,23781,0,0,0
27008,43600,23653,0,0,0
26938,43539,23561,0,0,0
26862,43484,23482,0,0,0
26776,43410,23387,0,0,0
26706,43344,23299,0,0,0
26661,43313,23248,0,0,0
26626,43298,23213,0,0,0
26594,43271,23166,0,0,0
26575,43250,23127,0,0,0
26564,43252,23116,0,0,0
26538,43246,23100,0,0,0
26496,43213,23057,0,0,0
26462,43180,23017,0,0,0
26436,43165,22995,0,0,0
26402,43142,22960,0,0,0
26367,43103,22905,0,0,0
26346,43075,22863,0,0,0
26326,43064,22843,0,0,0
26282,43036,22807,0,0,0
26220,42977,22738,0,0,0
26164,42920,22674,0,0,0
26109,42875,22626,0,0,0
26038,42817,22559,0,0,0
25961,42740,22466,0,0,0
25899,42677,22382,0,0,0
25842,42629,22312,0,0,0
25769,42569,22222,0,0,0
25690,42497,22115,0,0,0
25622,42440,22024,0,0,0
25554,42396,21945,0,0,0
25471,42334,21842,0,0,0
