green_channel,red_channel,ir_channel,Anomaly_ch0,Anomaly_ch1,Anomaly_ch2
6464,53052,18148,0,0,0
6678,53232,18485,0,0,0
6846,53374,18749,0,0,0
6967,53476,18939,0,0,0
7050,53543,19068,0,0,0
7105,53584,19149,0,0,0
7135,53604,19188,0,0,0
7143,53601,19190,0,0,0
7134,53577,19165,0,0,0
7112,53542,19120,0,0,0
7074,53502,19056,0,0,0
7023,53456,18974,0,0,0
6963,53404,18882,0,0,0
6905,53348,18788,0,0,0
6851,53291,18687,0,0,0
6794,53228,18582,0,0,0
6734,53164,18479,0,0,0
6678,53106,18384,0,0,0
6627,53053,18298,0,0,0
6581,53001,18223,0,0,0
6544,52960,18163,0,0,0
6516,52933,18118,0,0,0
6493,52914,18078,0,0,0
6472,52895,18039,0,0,0
6456,52877,18005,0,0,0
6444,52865,17978,0,0,0
6428,52853,17952,0,0,0
6406,52836,17921,0,0,0
6383,52814,17889,0,0,0
6362,52794,17855,0,0,0
6343,52774,17813,0,0,0
6320,52752,17764,0,0,0
6297,52729,17714,0,0,0
6275,52708,17666,0,0,0
6252,52688,17622,0,0,0
6226,52668,17584,0,0,0
6204,52649,17552,0,0,0
6189,52635,17529,0,0,0
6179,52622,17512,0,0,0
6174,52611,17504,0,0,0
6176,52607,17506,0,0,0
6183,52615,17516,0,0,0
6193,52629,17529,0,0,0
6209,52647,17550,0,0,0
6231,52671,17577,0,0,0
6256,52699,17603,0,0,0
6281,52724,17629,0,0,0
6305,52743,17660,0,0,0
6332,52762,17698,0,0,0
6359,52784,17734,0,0,0
6384,52805,17765,0,0,0
6408,52821,17795,0,0,0
6429,52834,17816,0,0,0
6442,52838,17818,0,0,0
6445,52829,17807,0,0,0
6440,52812,17787,0,0,0
6432,52790,17756,0,0,0
6417,52759,17710,0,0,0
6389,52717,17650,0,0,0
6351,52671,17583,0,0,0
6303,52625,17510,0,0,0
6246,52575,17422,0,0,0
6179,52515,17320,0,0,0
6106,52449,17211,0,0,0
6031,52383,17099,0,0,0
5949,52313,16978,0,0,0
5860,52237,16848,0,0,0
5771,52161,16717,0,0,0
5682,52086,16583,0,0,0
5589,52009,16443,0,0,0
5494,51929,16298,0,0,0
5404,51852,16155,0,0,0
5319,51780,16014,0,0,0
5232,51705,15871,0,0,0
5145,51623,15729,0,0,0
5063,51544,15591,0,0,0
4985,51471,15458,0,0,0
4908,51399,15324,0,0,0
4832,51326,15192,0,0,0
4760,51260,15065,0,0,0
4688,51199,14943,0,0,0
4607,51134,14823,0,0,0
4521,51065,14708,0,0,0
4439,51002,14599,0,0,0
4363,50944,14494,0,0,0
4290,50887,14393,0,0,0
4222,50829,14295,0,0,0
4164,50775,14203,0,0,0
4114,50726,14116,0,0,0
4064,50678,14029,0,0,0
4011,50632,13948,0,0,0
3959,50589,13873,0,0,0
3909,50547,13798,0,0,0
3857,50503,13718,0,0,0
3807,50462,13638,0,0,0
3761,50424,13561,0,0,0
3716,50384,13485,0,0,0
3669,50341,13408,0,0,0
3626,50296,13335,0,0,0
3589,50255,13268,0,0,0
3552,50218,13201,0,0,0
3513,50179,13129,0,0,0
3474,50145,13058,0,0,0
3438,50116,12993,0,0,0
3398,50085,12929,0,0,0
3349,50047,12861,0,0,0
3294,50009,12794,0,0,0
3243,49975,12730,0,0,0
3192,49943,12662,0,0,0
3139,49911,12590,0,0,0
3092,49878,12521,0,0,0
3053,49846,12453,0,0,0
3017,49812,12384,0,0,0
2974,49772,12314,0,0,0
2927,49730,12249,0,0,0
2882,49687,12185,0,0,0
2838,49643,12119,0,0,0
2792,49598,12050,0,0,0
2748,49559,11982,0,0,0
2711,49526,11914,0,0,0
2676,49494,11843,0,0,0
2640,49460,11770,0,0,0
2602,49427,11703,0,0,0
2561,49396,11639,0,0,0
2515,49365,11569,0,0,0
2464,49329,11494,0,0,0
2412,49291,11417,0,0,0
2362,49255,11338,0,0,0
2314,49220,11258,0,0,0
2268,49180,11182,0,0,0
2220,49136,11109,0,0,0
2172,49090,11032,0,0,0
2122,49043,10949,0,0,0
2072,48992,10861,0,0,0
2023,48942,10772,0,0,0
1974,48891,10680,0,0,0
1917,48836,10583,0,0,0
1854,48779,10487,0,0,0
1792,48725,10394,0,0,0
1724,48669,10295,0,0,0
1645,48605,10182,0,0,0
1562,48536,10061,0,0,0
1482,48468,9941,0,0,0
1405,48403,9821,0,0,0
1331,48339,9705,0,0,0
1267,48281,9605,0,0,0
1218,48237,9530,0,0,0
1185,48212,9481,0,0,0
1172,48212,9471,0,0,0
1197,48252,9528,0,0,0
1284,48346,9680,0,0,0
1445,48500,9945,0,0,0
1683,48722,10339,0,0,0
2002,49019,10874,0,0,0
2405,49388,11540,0,0,0
2883,49818,12316,0,0,0
3417,50299,13178,0,0,0
3990,50813,14096,0,0,0
4581,51335,15025,0,0,0
5160,51839,15923,0,0,0
5701,52306,16760,0,0,0
6189,52726,17517,0,0,0
6617,53095,18181,0,0,0
6980,53405,18742,0,0,0
7278,53658,19203,0,0,0
7519,53864,19575,0,0,0
7706,54025,19862,0,0,0
7840,54137,20067,0,0,0
7933,54207,20205,0,0,0
7997,54248,20286,0,0,0
8035,54269,20321,0,0,0
8047,54268,20319,0,0,0
8034,54250,20295,0,0,0
8013,54226,20258,0,0,0
7988,54200,20211,0,0,0
7955,54169,20156,0,0,0
7916,54137,20101,0,0,0
7880,54109,20052,0,0,0
7847,54083,20005,0,0,0
7811,54051,19957,0,0,0
7776,54018,19915,0,0,0
7754,53994,19884,0,0,0
7745,53977,19863,0,0,0
7745,53964,19848,0,0,0
7753,53959,19844,0,0,0
7768,53963,19853,0,0,0
7789,53972,19871,0,0,0
7810,53982,19893,0,0,0
7836,53998,19928,0,0,0
7868,54021,19974,0,0,0
7900,54048,20019,0,0,0
7931,54074,20060,0,0,0
7961,54101,20102,0,0,0
7991,54127,20141,0,0,0
8014,54149,20173,0,0,0
8027,54163,20197,0,0,0
8033,54171,20214,0,0,0
8034,54176,20220,0,0,0
8027,54172,20210,0,0,0
8014,54159,20191,0,0,0
7995,54138,20168,0,0,0
7974,54113,20136,0,0,0
7949,54083,20093,0,0,0
7920,54049,20043,0,0,0
7890,54017,19994,0,0,0
7861,53988,19943,0,0,0
7830,53960,19892,0,0,0
7802,53935,19847,0,0,0
7780,53916,19814,0,0,0
7768,53904,19787,0,0,0
7760,53896,19766,0,0,0
7757,53891,19756,0,0,0
7764,53894,19762,0,0,0
7777,53905,19773,0,0,0
7788,53918,19779,0,0,0
7794,53927,19786,0,0,0
7804,53935,19799,0,0,0
7818,53947,19810,0,0,0
7830,53959,19814,0,0,0
7835,53968,19814,0,0,0
7836,53974,19816,0,0,0
7836,53976,19816,0,0,0
7832,53972,19810,0,0,0
7824,53965,19804,0,0,0
7813,53957,19801,0,0,0
7796,53942,19790,0,0,0
7772,53917,19764,0,0,0
7746,53888,19729,0,0,0
7723,53859,19688,0,0,0
7697,53829,19638,0,0,0
7667,53794,19576,0,0,0
7636,53756,19507,0,0,0
7606,53720,19436,0,0,0
7578,53681,19359,0,0,0
7543,53633,19278,0,0,0
7502,53582,19198,0,0,0
7462,53535,19121,0,0,0
7418,53490,19041,0,0,0
7365,53443,18957,0,0,0
7311,53399,18873,0,0,0
7261,53358,18792,0,0,0
7215,53319,18710,0,0,0
7165,53278,18627,0,0,0
7115,53238,18551,0,0,0
7067,53202,18481,0,0,0
7021,53166,18414,0,0,0
6978,53125,18349,0,0,0
6937,53084,18289,0,0,0
6900,53046,18229,0,0,0
6865,53010,18166,0,0,0
6827,52974,18104,0,0,0
6789,52943,18048,0,0,0
6753,52916,17995,0,0,0
6717,52888,17941,0,0,0
6684,52859,17891,0,0,0
6659,52839,17849,0,0,0
6642,52826,17811,0,0,0
6625,52812,17774,0,0,0
6606,52795,17741,0,0,0
6588,52779,17710,0,0,0
6570,52763,17678,0,0,0
6549,52742,17640,0,0,0
6529,52717,17601,0,0,0
6513,52697,17566,0,0,0
6499,52679,17529,0,0,0
6479,52656,17487,0,0,0
6454,52625,17443,0,0,0
6431,52596,17403,0,0,0
6408,52573,17366,0,0,0
6381,52547,17327,0,0,0
6351,52517,17287,0,0,0
6324,52491,17245,0,0,0
6301,52468,17199,0,0,0
6276,52445,17149,0,0,0
6250,52424,17103,0,0,0
6224,52406,17061,0,0,0
6196,52386,17017,0,0,0
6163,52356,16968,0,0,0
6130,52321,16915,0,0,0
6102,52292,16859,0,0,0
6076,52265,16798,0,0,0
6044,52231,16732,0,0,0
6007,52198,16668,0,0,0
5970,52173,16610,0,0,0
5930,52151,16549,0,0,0
5886,52127,16484,0,0,0
5845,52098,16419,0,0,0
5808,52068,16356,0,0,0
5771,52035,16291,0,0,0
5732,51999,16225,0,0,0
5696,51962,16160,0,0,0
5665,51928,16100,0,0,0
5631,51890,16037,0,0,0
5590,51847,15969,0,0,0
5545,51804,15905,0,0,0
5502,51767,15845,0,0,0
5458,51731,15787,0,0,0
5415,51694,15729,0,0,0
5382,51661,15676,0,0,0
5356,51635,15629,0,0,0
5330,51607,15580,0,0,0
5301,51574,15529,0,0,0
5272,51542,15476,0,0,0
5244,51515,15417,0,0,0
5214,51488,15351,0,0,0
5181,51457,15280,0,0,0
5146,51426,15210,0,0,0
5106,51393,15137,0,0,0
5056,51351,15058,0,0,0
5000,51304,14978,0,0,0
4946,51258,14902,0,0,0
4893,51215,14823,0,0,0
4839,51171,14738,0,0,0
4785,51129,14650,0,0,0
4736,51091,14562,0,0,0
4685,51050,14472,0,0,0
4630,51002,14381,0,0,0
4576,50952,14296,0,0,0
4528,50909,14215,0,0,0
4481,50866,14129,0,0,0
4428,50819,14036,0,0,0
4376,50770,13945,0,0,0
4327,50723,13856,0,0,0
4280,50676,13772,0,0,0
4235,50634,13699,0,0,0
4202,50607,13649,0,0,0
4190,50601,13634,0,0,0
4209,50623,13671,0,0,0
4275,50690,13788,0,0,0
4411,50821,14013,0,0,0
4624,51023,14358,0,0,0
4910,51292,14820,0,0,0
5267,51620,15386,0,0,0
5683,51997,16033,0,0,0
6135,52404,16724,0,0,0
6593,52816,17424,0,0,0
7036,53214,18106,0,0,0
7454,53591,18754,0,0,0
7838,53939,19347,0,0,0
8178,54246,19873,0,0,0
8475,54509,20335,0,0,0
8734,54735,20741,0,0,0
8956,54925,21087,0,0,0
9139,55080,21366,0,0,0
9286,55201,21588,0,0,0
9405,55296,21764,0,0,0
9498,55366,21899,0,0,0
9563,55413,21995,0,0,0
9602,55440,22063,0,0,0
9623,55453,22104,0,0,0
9629,55451,22117,0,0,0
9621,55437,22107,0,0,0
9608,55418,22087,0,0,0
9595,55401,22061,0,0,0
9580,55382,22022,0,0,0
9559,55356,21973,0,0,0
9537,55327,21926,0,0,0
9518,55303,21885,0,0,0
9500,55285,21848,0,0,0
9485,55271,21817,0,0,0
9480,55262,21801,0,0,0
9484,55263,21800,0,0,0
9494,55270,21806,0,0,0
9503,55279,21818,0,0,0
9516,55293,21843,0,0,0
9540,55315,21881,0,0,0
9570,55340,21921,0,0,0
9603,55363,21962,0,0,0
9642,55388,22010,0,0,0
9686,55416,22060,0,0,0
9728,55439,22108,0,0,0
9764,55458,22154,0,0,0
9802,55480,22200,0,0,0
9840,55506,22241,0,0,0
9871,55532,22273,0,0,0
9887,55551,22296,0,0,0
9892,55562,22310,0,0,0
9891,55563,22310,0,0,0
9883,55550,22294,0,0,0
9871,55529,22268,0,0,0
9857,55506,22239,0,0,0
9842,55483,22206,0,0,0
9818,55458,22168,0,0,0
9789,55431,22128,0,0,0
9764,55409,22092,0,0,0
9750,55394,22056,0,0,0
9739,55379,22021,0,0,0
9727,55364,21995,0,0,0
9722,55353,21978,0,0,0
9723,55348,21969,0,0,0
9729,55348,21965,0,0,0
9741,55351,21966,0,0,0
9757,55357,21974,0,0,0
9772,55367,21986,0,0,0
9784,55376,21998,0,0,0
9795,55385,22013,0,0,0
9809,55400,22030,0,0,0
9824,55416,22047,0,0,0
9836,55427,22062,0,0,0
9846,55436,22076,0,0,0
9858,55444,22088,0,0,0
9867,55447,22092,0,0,0
9870,55443,22087,0,0,0
9870,55436,22076,0,0,0
9870,55430,22066,0,0,0
9867,55425,22049,0,0,0
9857,55415,22023,0,0,0
9844,55404,21996,0,0,0
9831,55393,21969,0,0,0
9813,55375,21939,0,0,0
9791,55351,21902,0,0,0
9770,55324,21861,0,0,0
9751,55299,21813,0,0,0
9731,55271,21755,0,0,0
9708,55240,21692,0,0,0
9685,55211,21630,0,0,0
9664,55183,21569,0,0,0
9640,55152,21507,0,0,0
9609,55115,21450,0,0,0
9576,55081,21402,0,0,0
9545,55057,21357,0,0,0
9516,55035,21310,0,0,0
9491,55013,21262,0,0,0
9473,54992,21215,0,0,0
9461,54977,21170,0,0,0
9449,54960,21126,0,0,0
9433,54940,21083,0,0,0
9414,54923,21045,0,0,0
9391,54907,21013,0,0,0
9364,54886,20982,0,0,0
9341,54860,20951,0,0,0
9325,54835,20923,0,0,0
9313,54813,20893,0,0,0
9302,54793,20858,0,0,0
9289,54770,20819,0,0,0
9277,54748,20781,0,0,0
9263,54730,20741,0,0,0
9246,54714,20698,0,0,0
9229,54700,20661,0,0,0
9217,54689,20632,0,0,0
9208,54681,20606,0,0,0
9194,54670,20579,0,0,0
9178,54657,20551,0,0,0
9165,54645,20522,0,0,0
9155,54633,20491,0,0,0
9141,54622,20458,0,0,0
9125,54613,20430,0,0,0
9113,54606,20406,0,0,0
9105,54596,20378,0,0,0
9095,54581,20342,0,0,0
9083,54566,20307,0,0,0
9071,54555,20280,0,0,0
9058,54543,20258,0,0,0
9041,54527,20237,0,0,0
9022,54507,20217,0,0,0
9005,54489,20198,0,0,0
8989,54472,20174,0,0,0
8971,54450,20143,0,0,0
8954,54424,20106,0,0,0
8935,54398,20062,0,0,0
8911,54368,20010,0,0,0
8882,54330,19954,0,0,0
8852,54294,19898,0,0,0
8825,54265,19840,0,0,0
8798,54238,19781,0,0,0
8771,54209,19724,0,0,0
8745,54181,19671,0,0,0
8718,54157,19618,0,0,0
8691,54132,19564,0,0,0
8661,54104,19509,0,0,0
8629,54076,19456,0,0,0
8597,54050,19403,0,0,0
8562,54020,19348,0,0,0
8524,53987,19294,0,0,0
8487,53957,19243,0,0,0
8451,53937,19197,0,0,0
8414,53918,19148,0,0,0
8375,53891,19095,0,0,0
8345,53861,19043,0,0,0
8326,53830,18999,0,0,0
8307,53795,18956,0,0,0
8284,53762,18913,0,0,0
8261,53736,18870,0,0,0
8238,53714,18821,0,0,0
8207,53691,18767,0,0,0
8171,53663,18711,0,0,0
8138,53633,18656,0,0,0
8105,53602,18594,0,0,0
8066,53567,18524,0,0,0
8023,53527,18451,0,0,0
7979,53490,18379,0,0,0
7935,53453,18307,0,0,0
7889,53412,18236,0,0,0
7849,53371,18170,0,0,0
7815,53330,18107,0,0,0
7781,53291,18042,0,0,0
7744,53251,17974,0,0,0
7706,53209,17907,0,0,0
7669,53167,17840,0,0,0
7628,53125,17770,0,0,0
7583,53079,17697,0,0,0
7538,53033,17622,0,0,0
7495,52992,17547,0,0,0
7450,52952,17468,0,0,0
7403,52911,17391,0,0,0
7363,52875,17321,0,0,0
7336,52848,17261,0,0,0
7318,52829,17217,0,0,0
7314,52822,17198,0,0,0
7336,52839,17221,0,0,0
7395,52889,17299,0,0,0
7494,52978,17444,0,0,0
7642,53117,17675,0,0,0
7848,53312,17995,0,0,0
8105,53555,18390,0,0,0
8398,53833,18839,0,0,0
8711,54128,19325,0,0,0
9037,54430,19828,0,0,0
9363,54726,20329,0,0,0
9676,55006,20810,0,0,0
9973,55272,21265,0,0,0
10254,55525,21693,0,0,0
10516,55759,22085,0,0,0
10752,55968,22435,0,0,0
10962,56154,22743,0,0,0
11145,56317,23009,0,0,0
11298,56454,23229,0,0,0
11419,56557,23400,0,0,0
11510,56630,23527,0,0,0
11578,56678,23618,0,0,0
11623,56701,23674,0,0,0
11647,56701,23697,0,0,0
11655,56689,23698,0,0,0
11654,56673,23683,0,0,0
11644,56652,23654,0,0,0
11624,56625,23615,0,0,0
11599,56595,23569,0,0,0
11574,56566,23522,0,0,0
11546,56536,23470,0,0,0
11514,56502,23415,0,0,0
11484,56472,23366,0,0,0
11460,56449,23328,0,0,0
11440,56430,23297,0,0,0
11421,56413,23269,0,0,0
11406,56402,23249,0,0,0
11402,56401,23242,0,0,0
11406,56407,23245,0,0,0
11416,56416,23253,0,0,0
11432,56427,23269,0,0,0
11452,56443,23297,0,0,0
11474,56460,23328,0,0,0
11497,56473,23356,0,0,0
11528,56489,23385,0,0,0
11570,56511,23422,0,0,0
11617,56533,23461,0,0,0
11659,56551,23494,0,0,0
11697,56569,23521,0,0,0
11727,56583,23538,0,0,0
11746,56589,23543,0,0,0
11754,56585,23533,0,0,0
11754,56579,23511,0,0,0
11749,56572,23483,0,0,0
11736,56561,23451,0,0,0
11718,56547,23418,0,0,0
11704,56535,23386,0,0,0
11691,56523,23355,0,0,0
11673,56507,23322,0,0,0
11653,56489,23287,0,0,0
11636,56472,23256,0,0,0
11622,56454,23234,0,0,0
11608,56433,23214,0,0,0
11601,56415,23199,0,0,0
11603,56402,23193,0,0,0
11610,56394,23194,0,0,0
11620,56390,23195,0,0,0
11635,56393,23198,0,0,0
11655,56402,23207,0,0,0
11679,56416,23220,0,0,0
11702,56428,23228,0,0,0
11723,56438,23233,0,0,0
11744,56449,23242,0,0,0
11762,56459,23251,0,0,0
11772,56462,23253,0,0,0
11777,56464,23252,0,0,0
11783,56464,23250,0,0,0
11784,56458,23243,0,0,0
11780,56446,23227,0,0,0
11776,56433,23210,0,0,0
11771,56422,23197,0,0,0
11762,56409,23181,0,0,0
11746,56390,23156,0,0,0
11727,56368,23124,0,0,0
11709,56348,23089,0,0,0
11686,56325,23048,0,0,0
11658,56297,22999,0,0,0
11630,56269,22950,0,0,0
11601,56242,22902,0,0,0
11570,56212,22850,0,0,0
11539,56182,22793,0,0,0
11513,56157,22736,0,0,0
11487,56132,22683,0,0,0
11456,56102,22627,0,0,0
11422,56068,22567,0,0,0
11389,56034,22508,0,0,0
11356,55999,22449,0,0,0
11319,55960,22384,0,0,0
11278,55919,22316,0,0,0
11240,55880,22252,0,0,0
11207,55843,22193,0,0,0
11172,55808,22137,0,0,0
11139,55775,22085,0,0,0
11113,55748,22039,0,0,0
11089,55723,21998,0,0,0
11067,55694,21956,0,0,0
11051,55669,21917,0,0,0
11044,55653,21883,0,0,0
11035,55641,21851,0,0,0
11023,55630,21819,0,0,0
11010,55621,21788,0,0,0
11001,55617,21759,0,0,0
10988,55608,21729,0,0,0
10970,55591,21692,0,0,0
10948,55571,21652,0,0,0
10923,55550,21613,0,0,0
10889,55523,21571,0,0,0
10850,55489,21527,0,0,0
10810,55454,21481,0,0,0
10770,55420,21434,0,0,0
10730,55384,21385,0,0,0
10687,55344,21330,0,0,0
10644,55301,21268,0,0,0
10599,55256,21205,0,0,0
10550,55207,21136,0,0,0
10502,55151,21059,0,0,0
10457,55097,20981,0,0,0
10414,55048,20907,0,0,0
10368,55000,20832,0,0,0
10319,54948,20754,0,0,0
10272,54900,20677,0,0,0
10227,54858,20601,0,0,0
10176,54813,20521,0,0,0
10124,54765,20440,0,0,0
10076,54723,20364,0,0,0
10033,54683,20294,0,0,0
9989,54640,20225,0,0,0
9940,54592,20157,0,0,0
9889,54547,20095,0,0,0
9836,54504,20033,0,0,0
9780,54460,19967,0,0,0
9725,54416,19897,0,0,0
9672,54373,19827,0,0,0
9614,54326,19750,0,0,0
9547,54271,19665,0,0,0
9477,54213,19578,0,0,0
9411,54160,19490,0,0,0
9347,54109,19400,0,0,0
9281,54056,19308,0,0,0
9216,54001,19216,0,0,0
9156,53950,19125,0,0,0
9100,53899,19031,0,0,0
9044,53843,18934,0,0,0
8985,53785,18836,0,0,0
8927,53728,18741,0,0,0
8865,53671,18643,0,0,0
8795,53613,18540,0,0,0
8720,53555,18437,0,0,0
8648,53499,18337,0,0,0
8577,53441,18235,0,0,0
8506,53378,18129,0,0,0
8437,53317,18027,0,0,0
8375,53258,17932,0,0,0
8313,53199,17839,0,0,0
8245,53135,17745,0,0,0
8171,53072,17647,0,0,0
8098,53016,17545,0,0,0
8029,52959,17439,0,0,0
7959,52897,17327,0,0,0
7886,52837,17216,0,0,0
7820,52782,17111,0,0,0
7761,52732,17013,0,0,0
7705,52683,16921,0,0,0
7650,52636,16831,0,0,0
7594,52593,16740,0,0,0
7532,52545,16641,0,0,0
7461,52489,16537,0,0,0
7389,52430,16433,0,0,0
7318,52370,16329,0,0,0
7243,52307,16219,0,0,0
7164,52239,16103,0,0,0
7085,52170,15988,0,0,0
7005,52100,15870,0,0,0
6920,52024,15747,0,0,0
6831,51944,15628,0,0,0
6746,51869,15519,0,0,0
6676,51808,15428,0,0,0
6630,51768,15369,0,0,0
6625,51764,15369,0,0,0
6678,51814,15459,0,0,0
6802,51930,15661,0,0,0
7005,52117,15987,0,0,0
7295,52382,16447,0,0,0
7669,52725,17028,0,0,0
8106,53126,17700,0,0,0
8576,53554,18419,0,0,0
9052,53984,19146,0,0,0
9514,54397,19848,0,0,0
9942,54778,20498,0,0,0
10322,55115,21079,0,0,0
10654,55407,21590,0,0,0
10938,55659,22028,0,0,0
11171,55866,22386,0,0,0
11353,56026,22663,0,0,0
11489,56142,22868,0,0,0
11582,56222,23012,0,0,0
11637,56267,23100,0,0,0
11659,56278,23135,0,0,0
11658,56267,23133,0,0,0
11641,56239,23104,0,0,0
11605,56196,23050,0,0,0
11554,56141,22977,0,0,0
11492,56081,22891,0,0,0
11425,56018,22798,0,0,0
11352,55951,22702,0,0,0
11275,55884,22601,0,0,0
11202,55815,22499,0,0,0
11139,55750,22405,0,0,0
11081,55688,22317,0,0,0
11029,55628,22229,0,0,0
10988,55578,22153,0,0,0
10954,55543,22094,0,0,0
10925,55520,22047,0,0,0
10901,55505,22010,0,0,0
10888,55500,21989,0,0,0
10887,55501,21982,0,0,0
10891,55502,21982,0,0,0
10903,55508,21988,0,0,0
10923,55524,22003,0,0,0
10947,55546,22025,0,0,0
10973,55564,22052,0,0,0
10999,55574,22079,0,0,0
11017,55578,22098,0,0,0
11024,55579,22108,0,0,0
11019,55570,22102,0,0,0
11001,55552,22080,0,0,0
10976,55528,22049,0,0,0
10949,55498,22011,0,0,0
10916,55462,21963,0,0,0
10882,55423,21908,0,0,0
10847,55384,21850,0,0,0
10809,55348,21790,0,0,0
10767,55313,21725,0,0,0
10727,55280,21660,0,0,0
10695,55254,21605,0,0,0
10666,55230,21558,0,0,0
10638,55205,21512,0,0,0
10615,55183,21472,0,0,0
10600,55168,21443,0,0,0
10590,55159,21424,0,0,0
10581,55150,21409,0,0,0
10578,55141,21396,0,0,0
10581,55137,21387,0,0,0
10586,55137,21380,0,0,0
10590,55136,21373,0,0,0
10591,55133,21370,0,0,0
10590,55131,21373,0,0,0
10584,55128,21371,0,0,0
10572,55119,21359,0,0,0
10556,55108,21344,0,0,0
10540,55096,21331,0,0,0
10521,55080,21309,0,0,0
10495,55056,21275,0,0,0
10464,55027,21232,0,0,0
10430,54995,21184,0,0,0
10390,54958,21124,0,0,0
10340,54913,21052,0,0,0
10286,54863,20975,0,0,0
10228,54810,20893,0,0,0
10165,54750,20803,0,0,0
10098,54686,20706,0,0,0
10032,54623,20608,0,0,0
9965,54561,20511,0,0,0
9895,54495,20413,0,0,0
9821,54425,20314,0,0,0
9749,54357,20214,0,0,0
9677,54288,20109,0,0,0
9600,54213,19991,0,0,0
9517,54136,19866,0,0,0
9433,54063,19737,0,0,0
9352,53995,19608,0,0,0
9270,53926,19480,0,0,0
9190,53859,19357,0,0,0
9114,53796,19242,0,0,0
9041,53735,19130,0,0,0
8968,53671,19019,0,0,0
8896,53610,18913,0,0,0
8833,53559,18813,0,0,0
8776,53512,18717,0,0,0
8721,53464,18625,0,0,0
8668,53421,18540,0,0,0
8620,53382,18460,0,0,0
8573,53340,18383,0,0,0
8526,53296,18311,0,0,0
8483,53258,18247,0,0,0
8447,53230,18191,0,0,0
8415,53204,18139,0,0,0
8383,53178,18091,0,0,0
8355,53153,18052,0,0,0
8332,53129,18016,0,0,0
8309,53103,17977,0,0,0
8286,53076,17934,0,0,0
8265,53054,17894,0,0,0
8245,53037,17854,0,0,0
8220,53019,17810,0,0,0
8193,52999,17763,0,0,0
8167,52979,17716,0,0,0
8141,52957,17665,0,0,0
8113,52930,17606,0,0,0
8081,52900,17546,0,0,0
8047,52871,17489,0,0,0
8011,52839,17430,0,0,0
7969,52800,17360,0,0,0
7925,52756,17288,0,0,0
7879,52714,17214,0,0,0
7830,52673,17134,0,0,0
7775,52626,17046,0,0,0
7716,52575,16960,0,0,0
7657,52525,16876,0,0,0
7592,52474,16786,0,0,0
7519,52416,16687,0,0,0
7445,52353,16585,0,0,0
7376,52294,16484,0,0,0
7308,52233,16381,0,0,0
7241,52168,16275,0,0,0
7177,52104,16172,0,0,0
7116,52045,16071,0,0,0
7049,51989,15964,0,0,0
6976,51931,15851,0,0,0
6906,51873,15738,0,0,0
6841,51821,15629,0,0,0
6771,51765,15518,0,0,0
6699,51704,15409,0,0,0
6634,51641,15306,0,0,0
6577,51580,15205,0,0,0
6516,51515,15103,0,0,0
6447,51448,14997,0,0,0
6377,51384,14894,0,0,0
6306,51327,14793,0,0,0
6231,51271,14691,0,0,0
6155,51214,14587,0,0,0
6082,51160,14487,0,0,0
6013,51110,14387,0,0,0
5941,51057,14283,0,0,0
5866,50997,14176,0,0,0
5793,50937,14074,0,0,0
5720,50880,13975,0,0,0
5649,50824,13876,0,0,0
5581,50767,13780,0,0,0
5519,50711,13686,0,0,0
5459,50657,13592,0,0,0
5399,50602,13498,0,0,0
5341,50547,13406,0,0,0
5287,50495,13320,0,0,0
5234,50447,13238,0,0,0
5180,50399,13155,0,0,0
5132,50355,13074,0,0,0
5096,50318,13001,0,0,0
5063,50287,12928,0,0,0
5029,50252,12851,0,0,0
4993,50214,12777,0,0,0
4956,50176,12710,0,0,0
4915,50138,12647,0,0,0
4871,50104,12583,0,0,0
4834,50074,12521,0,0,0
4802,50052,12463,0,0,0
4767,50036,12401,0,0,0
4729,50017,12336,0,0,0
4693,49996,12277,0,0,0
4664,49976,12228,0,0,0
4639,49959,12185,0,0,0
4624,49945,12154,0,0,0
4628,49943,12154,0,0,0
4659,49968,12200,0,0,0
4722,50031,12307,0,0,0
4832,50139,12497,0,0,0
5013,50305,12801,0,0,0
5278,50548,13238,0,0,0
5633,50871,13812,0,0,0
6073,51268,14516,0,0,0
6594,51731,15334,0,0,0
7171,52244,16228,0,0,0
7769,52778,17149,0,0,0
8359,53302,18052,0,0,0
8917,53795,18901,0,0,0
9424,54244,19666,0,0,0
9866,54637,20331,0,0,0
10235,54967,20891,0,0,0
10535,55236,21348,0,0,0
10770,55444,21704,0,0,0
10941,55592,21964,0,0,0
11057,55687,22137,0,0,0
11130,55742,22239,0,0,0
11166,55767,22281,0,0,0
11166,55761,22272,0,0,0
11135,55729,22222,0,0,0
11084,55680,22147,0,0,0
11017,55616,22053,0,0,0
10940,55541,21940,0,0,0
10857,55461,21813,0,0,0
10774,55381,21681,0,0,0
10688,55304,21547,0,0,0
10599,55225,21411,0,0,0
10515,55150,21280,0,0,0
10440,55083,21162,0,0,0
10371,55023,21058,0,0,0
10307,54968,20968,0,0,0
10251,54924,20895,0,0,0
10209,54890,20843,0,0,0
10178,54864,20806,0,0,0
10158,54843,20777,0,0,0
10151,54829,20761,0,0,0
10156,54824,20759,0,0,0
10165,54824,20765,0,0,0
10175,54823,20776,0,0,0
10188,54824,20793,0,0,0
10205,54830,20818,0,0,0
10221,54835,20840,0,0,0
10227,54834,20849,0,0,0
10223,54829,20846,0,0,0
10210,54822,20838,0,0,0
10190,54809,20818,0,0,0
10162,54784,20783,0,0,0
10131,54755,20741,0,0,0
10100,54729,20697,0,0,0
10069,54702,20645,0,0,0
10035,54671,20585,0,0,0
10003,54639,20526,0,0,0
9978,54611,20477,0,0,0
9957,54587,20437,0,0,0
9936,54562,20403,0,0,0
9917,54541,20377,0,0,0
9903,54528,20357,0,0,0
9892,54515,20340,0,0,0
9884,54500,20328,0,0,0
9882,54488,20324,0,0,0
9885,54484,20325,0,0,0
9888,54486,20329,0,0,0
9892,54489,20337,0,0,0
9899,54498,20350,0,0,0
9910,54512,20362,0,0,0
9916,54521,20369,0,0,0
9918,54525,20372,0,0,0
9916,54527,20367,0,0,0
9910,54524,20349,0,0,0
9899,54513,20325,0,0,0
9882,54496,20301,0,0,0
9856,54476,20273,0,0,0
9825,54448,20235,0,0,0
9788,54409,20182,0,0,0
9745,54361,20117,0,0,0
9699,54308,20044,0,0,0
9645,54254,19964,0,0,0
9581,54195,19874,0,0,0
9514,54132,19778,0,0,0
9444,54069,19677,0,0,0
9370,54003,19567,0,0,0
9291,53930,19445,0,0,0
9211,53854,19319,0,0,0
9132,53775,19190,0,0,0
9049,53695,19057,0,0,0
8960,53612,18921,0,0,0
8869,53532,18788,0,0,0
8782,53459,18654,0,0,0
8696,53386,18518,0,0,0
8608,53310,18383,0,0,0
8524,53231,18253,0,0,0
8444,53153,18120,0,0,0
8365,53076,17988,0,0,0
8289,53005,17866,0,0,0
8217,52941,17756,0,0,0
8153,52888,17653,0,0,0
8087,52837,17552,0,0,0
8020,52785,17457,0,0,0
7959,52736,17372,0,0,0
7904,52692,17291,0,0,0
7849,52648,17207,0,0,0
7793,52600,17127,0,0,0
7737,52548,17051,0,0,0
7683,52495,16972,0,0,0
7625,52435,16885,0,0,0
7565,52373,16797,0,0,0
7509,52316,16712,0,0,0
7453,52266,16628,0,0,0
7396,52219,16544,0,0,0
7341,52175,16466,0,0,0
7296,52140,16398,0,0,0
7259,52109,16336,0,0,0
7223,52077,16273,0,0,0
7187,52047,16213,0,0,0
7155,52023,16158,0,0,0
7129,52001,16100,0,0,0
7103,51974,16039,0,0,0
7074,51940,15980,0,0,0
7042,51907,15921,0,0,0
7008,51875,15859,0,0,0
6969,51838,15790,0,0,0
6927,51799,15718,0,0,0
6883,51761,15643,0,0,0
6831,51719,15560,0,0,0
6772,51674,15471,0,0,0
6711,51631,15381,0,0,0
6653,51587,15294,0,0,0
6589,51539,15204,0,0,0
6524,51486,15111,0,0,0
6464,51432,15022,0,0,0
6409,51380,14937,0,0,0
6356,51327,14850,0,0,0
6301,51274,14758,0,0,0
6243,51224,14667,0,0,0
6186,51173,14575,0,0,0
6124,51116,14474,0,0,0
6055,51049,14368,0,0,0
5985,50983,14263,0,0,0
5915,50923,14159,0,0,0
5846,50867,14055,0,0,0
5782,50812,13957,0,0,0
5722,50760,13866,0,0,0
5664,50709,13772,0,0,0
5602,50653,13676,0,0,0
5539,50594,13582,0,0,0
5474,50536,13490,0,0,0
5406,50480,13396,0,0,0
5333,50425,13299,0,0,0
5261,50372,13203,0,0,0
5195,50324,13110,0,0,0
5135,50279,13019,0,0,0
5073,50233,12925,0,0,0
5012,50185,12832,0,0,0
4957,50141,12743,0,0,0
4903,50097,12655,0,0,0
4848,50050,12568,0,0,0
4799,50003,12486,0,0,0
4758,49962,12411,0,0,0
4721,49923,12338,0,0,0
4681,49881,12265,0,0,0
4641,49837,12195,0,0,0
4607,49799,12130,0,0,0
4576,49761,12064,0,0,0
4541,49718,11993,0,0,0
4505,49671,11924,0,0,0
4469,49631,11858,0,0,0
4430,49594,11792,0,0,0
4382,49555,11725,0,0,0
4328,49517,11656,0,0,0
4275,49483,11584,0,0,0
4222,49449,11506,0,0,0
4165,49409,11424,0,0,0
4108,49367,11344,0,0,0
4055,49328,11265,0,0,0
4002,49286,11187,0,0,0
3943,49238,11107,0,0,0
3881,49186,11029,0,0,0
3822,49136,10948,0,0,0
3763,49087,10862,0,0,0
3702,49037,10772,0,0,0
3647,48988,10680,0,0,0
3601,48941,10589,0,0,0
3556,48893,10502,0,0,0
3508,48846,10418,0,0,0
3465,48804,10345,0,0,0
3427,48772,10288,0,0,0
3396,48747,10244,0,0,0
3381,48731,10220,0,0,0
3396,48738,10241,0,0,0
3455,48786,10330,0,0,0
3567,48885,10510,0,0,0
3744,49048,10804,0,0,0
4001,49287,11229,0,0,0
4345,49608,11788,0,0,0
4774,50002,12478,0,0,0
5281,50463,13293,0,0,0
5855,50983,14208,0,0,0
6472,51537,15175,0,0,0
7097,52097,16149,0,0,0
7703,52636,17088,0,0,0
8267,53137,17958,0,0,0
8768,53583,18727,0,0,0
9192,53961,19378,0,0,0
9538,54267,19908,0,0,0
9812,54507,20322,0,0,0
10018,54684,20626,0,0,0
10159,54801,20829,0,0,0
10244,54870,20950,0,0,0
10280,54901,21007,0,0,0
10273,54894,21004,0,0,0
10228,54853,20945,0,0,0
10157,54789,20847,0,0,0
10071,54710,20723,0,0,0
9971,54615,20577,0,0,0
9859,54506,20416,0,0,0
9744,54392,20251,0,0,0
9632,54279,20082,0,0,0
9518,54161,19907,0,0,0
9400,54043,19732,0,0,0
9288,53933,19571,0,0,0
9189,53839,19427,0,0,0
9103,53761,19297,0,0,0
9032,53696,19186,0,0,0
8973,53648,19100,0,0,0
8929,53616,19037,0,0,0
8897,53593,18991,0,0,0
8878,53579,18964,0,0,0
8874,53578,18956,0,0,0
8883,53590,18965,0,0,0
8896,53608,18982,0,0,0
8914,53629,19010,0,0,0
8938,53653,19047,0,0,0
8964,53676,19080,0,0,0
8982,53691,19104,0,0,0
8992,53695,19119,0,0,0
8997,53696,19127,0,0,0
8997,53692,19120,0,0,0
8983,53677,19092,0,0,0
8957,53649,19051,0,0,0
8922,53614,19001,0,0,0
8882,53577,18943,0,0,0
8837,53538,18878,0,0,0
8789,53498,18812,0,0,0
8742,53461,18743,0,0,0
8695,53424,18670,0,0,0
8651,53384,18598,0,0,0
8616,53349,18535,0,0,0
8590,53322,18485,0,0,0
8568,53298,18443,0,0,0
8545,53277,18410,0,0,0
8527,53263,18389,0,0,0
8515,53258,18376,0,0,0
8506,53255,18367,0,0,0
8498,53248,18357,0,0,0
8494,53239,18349,0,0,0
8496,53234,18343,0,0,0
8497,53232,18335,0,0,0
8489,53227,18328,0,0,0
8480,53222,18324,0,0,0
8474,53215,18316,0,0,0
8464,53202,18299,0,0,0
8448,53181,18273,0,0,0
8428,53158,18241,0,0,0
8404,53134,18204,0,0,0
8368,53104,18157,0,0,0
8320,53064,18096,0,0,0
8264,53020,18021,0,0,0
8203,52973,17934,0,0,0
8133,52916,17834,0,0,0
8053,52849,17722,0,0,0
7969,52777,17602,0,0,0
7884,52702,17471,0,0,0
7793,52618,17325,0,0,0
7697,52527,17169,0,0,0
7599,52433,17005,0,0,0
7498,52337,16831,0,0,0
7393,52236,16648,0,0,0
7283,52132,16467,0,0,0
7171,52031,16291,0,0,0
7055,51934,16113,0,0,0
6937,51834,15933,0,0,0
6819,51735,15759,0,0,0
6709,51643,15596,0,0,0
6608,51557,15438,0,0,0
6512,51472,15281,0,0,0
6420,51390,15131,0,0,0
6333,51315,14990,0,0,0
6250,51244,14854,0,0,0
6167,51174,14719,0,0,0
6089,51109,14591,0,0,0
6017,51050,14474,0,0,0
5950,50994,14364,0,0,0
5887,50935,14260,0,0,0
5829,50879,14169,0,0,0
5776,50832,14090,0,0,0
5726,50791,14016,0,0,0
5676,50751,13945,0,0,0
5631,50714,13880,0,0,0
5588,50681,13816,0,0,0
5542,50645,13746,0,0,0
5492,50606,13674,0,0,0
5445,50569,13607,0,0,0
5400,50537,13541,0,0,0
5354,50501,13471,0,0,0
5307,50462,13402,0,0,0
5261,50426,13339,0,0,0
5215,50386,13277,0,0,0
5164,50342,13209,0,0,0
5108,50296,13139,0,0,0
5054,50252,13067,0,0,0
5005,50208,12991,0,0,0
4957,50164,12913,0,0,0
4906,50122,12837,0,0,0
4855,50082,12764,0,0,0
4808,50046,12692,0,0,0
4760,50006,12618,0,0,0
4710,49959,12544,0,0,0
4661,49910,12474,0,0,0
4621,49869,12407,0,0,0
4584,49831,12337,0,0,0
4545,49794,12268,0,0,0
4511,49763,12206,0,0,0
4477,49734,12148,0,0,0
4438,49702,12085,0,0,0
4394,49669,12019,0,0,0
4351,49636,11952,0,0,0
4308,49602,11882,0,0,0
4261,49561,11805,0,0,0
4210,49517,11726,0,0,0
4167,49476,11649,0,0,0
4127,49436,11572,0,0,0
4084,49391,11494,0,0,0
4043,49348,11418,0,0,0
4007,49313,11345,0,0,0
3974,49282,11274,0,0,0
3939,49248,11204,0,0,0
3905,49216,11142,0,0,0
3873,49189,11088,0,0,0
3841,49162,11035,0,0,0
3806,49127,10981,0,0,0
3770,49090,10928,0,0,0
3739,49056,10874,0,0,0
3705,49022,10811,0,0,0
3664,48986,10743,0,0,0
3622,48950,10676,0,0,0
3580,48916,10610,0,0,0
3534,48880,10539,0,0,0
3485,48838,10469,0,0,0
3439,48799,10406,0,0,0
3392,48763,10343,0,0,0
3344,48725,10274,0,0,0
3296,48686,10203,0,0,0
3255,48651,10135,0,0,0
3216,48619,10066,0,0,0
3173,48580,9992,0,0,0
3123,48537,9920,0,0,0
3071,48494,9852,0,0,0
3021,48451,9779,0,0,0
2967,48404,9696,0,0,0
2908,48356,9614,0,0,0
2852,48312,9539,0,0,0
2800,48270,9465,0,0,0
2750,48226,9387,0,0,0
2702,48182,9310,0,0,0
2657,48139,9234,0,0,0
2611,48097,9155,0,0,0
2559,48052,9070,0,0,0
2507,48006,8987,0,0,0
2457,47962,8905,0,0,0
2409,47917,8822,0,0,0
2358,47869,8738,0,0,0
2309,47823,8660,0,0,0
2268,47786,8591,0,0,0
2234,47760,8529,0,0,0
2212,47743,8480,0,0,0
2212,47739,8463,0,0,0
2248,47765,8502,0,0,0
2327,47836,8614,0,0,0
2455,47956,8815,0,0,0
2649,48134,9129,0,0,0
2917,48381,9567,0,0,0
3259,48697,10131,0,0,0
3673,49074,10819,0,0,0
4155,49512,11624,0,0,0
4698,50003,12521,0,0,0
5283,50527,13478,0,0,0
5886,51063,14458,0,0,0
6485,51593,15420,0,0,0
7058,52100,16324,0,0,0
7581,52559,17134,0,0,0
8034,52955,17831,0,0,0
8410,53284,18407,0,0,0
8707,53544,18860,0,0,0
8923,53732,19190,0,0,0
9063,53855,19413,0,0,0
9140,53921,19545,0,0,0
9169,53938,19598,0,0,0
9157,53913,19584,0,0,0
9107,53854,19515,0,0,0
9026,53775,19402,0,0,0
8919,53682,19251,0,0,0
8791,53574,19069,0,0,0
8653,53457,18871,0,0,0
8513,53338,18667,0,0,0
8371,53214,18456,0,0,0
8225,53091,18237,0,0,0
8082,52977,18022,0,0,0
7956,52870,17823,0,0,0
7849,52769,17643,0,0,0
7753,52673,17484,0,0,0
7674,52590,17348,0,0,0
7616,52524,17235,0,0,0
7574,52471,17144,0,0,0
7543,52431,17072,0,0,0
7523,52403,17027,0,0,0
7516,52386,17010,0,0,0
7518,52378,17010,0,0,0
7523,52374,17018,0,0,0
7533,52380,17037,0,0,0
7555,52397,17067,0,0,0
7580,52418,17099,0,0,0
7598,52433,17122,0,0,0
7610,52445,17133,0,0,0
7619,52456,17133,0,0,0
7617,52457,17117,0,0,0
7600,52442,17081,0,0,0
7569,52413,17030,0,0,0
7525,52379,16967,0,0,0
7469,52337,16889,0,0,0
7401,52286,16800,0,0,0
7331,52229,16713,0,0,0
7265,52172,16631,0,0,0
7204,52118,16552,0,0,0
7147,52065,16477,0,0,0
7097,52020,16407,0,0,0
7057,51987,16345,0,0,0
7022,51960,16293,0,0,0
6993,51937,16255,0,0,0
6974,51922,16234,0,0,0
6968,51915,16223,0,0,0
6968,51910,16214,0,0,0
6969,51903,16210,0,0,0
6974,51900,16212,0,0,0
6984,51906,16216,0,0,0
6994,51916,16221,0,0,0
7004,51925,16228,0,0,0
7017,51937,16238,0,0,0
7029,51947,16241,0,0,0
7034,51948,16235,0,0,0
7032,51939,16224,0,0,0
7025,51925,16208,0,0,0
7007,51906,16176,0,0,0
6975,51877,16125,0,0,0
6930,51838,16061,0,0,0
6878,51792,15984,0,0,0
6818,51741,15892,0,0,0
6748,51680,15780,0,0,0
6668,51607,15652,0,0,0
6581,51531,15511,0,0,0
6485,51453,15359,0,0,0
6382,51368,15197,0,0,0
6276,51280,15032,0,0,0
6171,51191,14868,0,0,0
6062,51099,14701,0,0,0
5948,51000,14529,0,0,0
5836,50901,14356,0,0,0
5732,50807,14186,0,0,0
5632,50717,14017,0,0,0
5530,50628,13855,0,0,0
5432,50542,13700,0,0,0
5343,50462,13552,0,0,0
5261,50386,13409,0,0,0
5181,50310,13274,0,0,0
5107,50239,13150,0,0,0
5036,50177,13036,0,0,0
4967,50120,12927,0,0,0
4895,50064,12822,0,0,0
4828,50009,12724,0,0,0
4769,49958,12634,0,0,0
4715,49908,12549,0,0,0
4661,49860,12472,0,0,0
4614,49821,12404,0,0,0
4575,49790,12341,0,0,0
4540,49760,12275,0,0,0
4505,49728,12213,0,0,0
4470,49695,12159,0,0,0
4433,49664,12107,0,0,0
4395,49633,12052,0,0,0
4358,49602,11999,0,0,0
4327,49576,11951,0,0,0
4300,49554,11903,0,0,0
4272,49529,11852,0,0,0
4243,49505,11805,0,0,0
4215,49483,11763,0,0,0
4187,49463,11720,0,0,0
4156,49440,11672,0,0,0
4125,49416,11626,0,0,0
4096,49390,11582,0,0,0
4067,49361,11534,0,0,0
4035,49326,11478,0,0,0
4002,49289,11417,0,0,0
3968,49256,11356,0,0,0
3931,49223,11290,0,0,0
3891,49188,11220,0,0,0
3854,49154,11151,0,0,0
3818,49123,11084,0,0,0
3779,49092,11016,0,0,0
3733,49055,10946,0,0,0
3684,49016,10879,0,0,0
3636,48977,10816,0,0,0
3586,48936,10746,0,0,0
3536,48890,10671,0,0,0
3488,48846,10598,0,0,0
3443,48808,10528,0,0,0
3397,48770,10459,0,0,0
3353,48727,10390,0,0,0
3314,48685,10324,0,0,0
3278,48646,10259,0,0,0
3235,48604,10187,0,0,0
3186,48555,10111,0,0,0
3137,48508,10037,0,0,0
3090,48464,9961,0,0,0
3043,48420,9882,0,0,0
2995,48372,9802,0,0,0
2951,48326,9724,0,0,0
2912,48286,9646,0,0,0
2871,48247,9564,0,0,0
2822,48207,9481,0,0,0
2769,48166,9398,0,0,0
2715,48124,9315,0,0,0
2659,48079,9228,0,0,0
2600,48033,9144,0,0,0
2544,47992,9067,0,0,0
2491,47955,8989,0,0,0
2439,47916,8906,0,0,0
2388,47876,8826,0,0,0
2344,47840,8755,0,0,0
2303,47805,8690,0,0,0
2266,47770,8630,0,0,0
2235,47740,8577,0,0,0
2207,47714,8530,0,0,0
2179,47687,8479,0,0,0
2144,47653,8419,0,0,0
2107,47617,8361,0,0,0
2071,47586,8305,0,0,0
2035,47553,8243,0,0,0
1996,47516,8175,0,0,0
1960,47483,8111,0,0,0
1928,47453,8053,0,0,0
1896,47425,7992,0,0,0
1861,47393,7929,0,0,0
1825,47358,7868,0,0,0
1787,47324,7802,0,0,0
1744,47285,7723,0,0,0
1699,47240,7634,0,0,0
1657,47195,7547,0,0,0
1615,47154,7462,0,0,0
1568,47112,7376,0,0,0
1519,47067,7292,0,0,0
1471,47023,7214,0,0,0
1428,46981,7143,0,0,0
1386,46939,7074,0,0,0
1351,46901,7014,0,0,0
1328,46878,6978,0,0,0
1320,46875,6971,0,0,0
1334,46895,7004,0,0,0
1383,46950,7100,0,0,0
1481,47053,7282,0,0,0
1640,47209,7566,0,0,0
1869,47422,7960,0,0,0
2170,47698,8474,0,0,0
2546,48041,9113,0,0,0
2993,48450,9867,0,0,0
3502,48910,10712,0,0,0
4062,49411,11626,0,0,0
4653,49935,12577,0,0,0
5250,50464,13531,0,0,0
5832,50971,14453,0,0,0
6376,51438,15314,0,0,0
6867,51858,16084,0,0,0
7294,52221,16740,0,0,0
7645,52519,17269,0,0,0
7916,52752,17675,0,0,0
8111,52922,17968,0,0,0
8232,53031,18152,0,0,0
8287,53080,18237,0,0,0
8290,53080,18245,0,0,0
8254,53046,18192,0,0,0
8184,52985,18091,0,0,0
8090,52900,17949,0,0,0
7981,52799,17780,0,0,0
7866,52691,17595,0,0,0
7740,52577,17393,0,0,0
7604,52455,17182,0,0,0
7464,52331,16975,0,0,0
7327,52212,16776,0,0,0
7196,52101,16584,0,0,0
7069,51992,16401,0,0,0
6953,51889,16236,0,0,0
6855,51803,16090,0,0,0
6773,51734,15965,0,0,0
6703,51677,15865,0,0,0
6649,51636,15793,0,0,0
6614,51610,15742,0,0,0
6590,51594,15711,0,0,0
6575,51586,15697,0,0,0
6574,51589,15702,0,0,0
6586,51604,15718,0,0,0
6609,51620,15738,0,0,0
6634,51631,15757,0,0,0
6656,51640,15779,0,0,0
6675,51651,15799,0,0,0
6688,51657,15805,0,0,0
6689,51655,15793,0,0,0
6679,51644,15768,0,0,0
6655,51623,15730,0,0,0
6614,51589,15676,0,0,0
6562,51547,15609,0,0,0
6506,51501,15535,0,0,0
6449,51451,15452,0,0,0
6387,51393,15363,0,0,0
6323,51335,15277,0,0,0
6267,51285,15198,0,0,0
6219,51239,15124,0,0,0
6177,51194,15053,0,0,0
6140,51151,14986,0,0,0
6107,51115,14924,0,0,0
6078,51085,14866,0,0,0
6055,51060,14816,0,0,0
6039,51045,14780,0,0,0
6026,51041,14758,0,0,0
6013,51041,14742,0,0,0
5998,51038,14728,0,0,0
5985,51033,14717,0,0,0
5976,51029,14709,0,0,0
5967,51022,14698,0,0,0
5949,51008,14679,0,0,0
5925,50990,14652,0,0,0
5898,50969,14618,0,0,0
5863,50941,14572,0,0,0
5819,50903,14514,0,0,0
5772,50859,14443,0,0,0
5722,50812,14361,0,0,0
5666,50755,14265,0,0,0
5601,50690,14160,0,0,0
5533,50626,14049,0,0,0
5465,50563,13934,0,0,0
5392,50499,13812,0,0,0
5314,50429,13682,0,0,0
5236,50360,13548,0,0,0
5159,50294,13412,0,0,0
5082,50229,13277,0,0,0
5002,50160,13145,0,0,0
4924,50091,13018,0,0,0
4848,50022,12889,0,0,0
4769,49952,12755,0,0,0
4687,49881,12616,0,0,0
4608,49812,12483,0,0,0
4531,49743,12352,0,0,0
4450,49669,12220,0,0,0
4367,49592,12087,0,0,0
4284,49519,11961,0,0,0
4202,49453,11844,0,0,0
4122,49389,11733,0,0,0
4049,49328,11632,0,0,0
3984,49273,11540,0,0,0
3924,49225,11451,0,0,0
3865,49178,11363,0,0,0
3810,49134,11282,0,0,0
3768,49096,11210,0,0,0
3738,49065,11140,0,0,0
3711,49037,11070,0,0,0
3684,49011,11008,0,0,0
3662,48989,10953,0,0,0
3643,48967,10902,0,0,0
3618,48942,10852,0,0,0
3589,48918,10804,0,0,0
3558,48897,10758,0,0,0
3523,48877,10708,0,0,0
3479,48847,10652,0,0,0
3432,48812,10594,0,0,0
3387,48778,10538,0,0,0
3346,48745,10479,0,0,0
3305,48710,10414,0,0,0
3265,48673,10349,0,0,0
3225,48638,10289,0,0,0
3181,48600,10229,0,0,0
3130,48556,10167,0,0,0
3077,48509,10098,0,0,0
3028,48461,10025,0,0,0
2982,48413,9947,0,0,0
2932,48360,9868,0,0,0
2881,48307,9796,0,0,0
2835,48261,9729,0,0,0
2791,48219,9664,0,0,0
2745,48178,9600,0,0,0
2701,48136,9536,0,0,0
2660,48096,9469,0,0,0
2618,48058,9401,0,0,0
2574,48022,9334,0,0,0
2534,47990,9268,0,0,0
2498,47964,9199,0,0,0
2460,47935,9124,0,0,0
2419,47901,9048,0,0,0
2378,47866,8977,0,0,0
2337,47831,8904,0,0,0
2294,47792,8826,0,0,0
2246,47750,8750,0,0,0
2198,47709,8677,0,0,0
2149,47670,8600,0,0,0
2097,47630,8519,0,0,0
2045,47588,8436,0,0,0
1999,47547,8354,0,0,0
1955,47508,8274,0,0,0
1908,47468,8194,0,0,0
1861,47428,8115,0,0,0
1818,47393,8040,0,0,0
1776,47358,7965,0,0,0
1729,47318,7890,0,0,0
1680,47279,7815,0,0,0
1634,47244,7742,0,0,0
1589,47210,7665,0,0,0
1540,47172,7589,0,0,0
1488,47130,7516,0,0,0
1438,47090,7445,0,0,0
1390,47050,7372,0,0,0
1340,47007,7296,0,0,0
1291,46962,7220,0,0,0
1245,46922,7148,0,0,0
1202,46883,7077,0,0,0
1155,46841,7010,0,0,0
1109,46796,6945,0,0,0
1068,46753,6880,0,0,0
1028,46709,6812,0,0,0
984,46664,6741,0,0,0
941,46619,6670,0,0,0
902,46578,6598,0,0,0
860,46539,6520,0,0,0
812,46507,6439,0,0,0
765,46482,6360,0,0,0
722,46457,6282,0,0,0
678,46425,6201,0,0,0
629,46388,6117,0,0,0
581,46352,6032,0,0,0
535,46315,5945,0,0,0
486,46274,5855,0,0,0
437,46234,5768,0,0,0
396,46198,5694,0,0,0
367,46165,5638,0,0,0
350,46142,5604,0,0,0
350,46140,5604,0,0,0
380,46170,5657,0,0,0
454,46240,5785,0,0,0
581,46358,6006,0,0,0
772,46538,6338,0,0,0
1034,46782,6792,0,0,0
1368,47085,7365,0,0,0
1770,47444,8046,0,0,0
2231,47856,8826,0,0,0
2740,48313,9684,0,0,0
3283,48797,10591,0,0,0
3840,49287,11515,0,0,0
4393,49771,12426,0,0,0
4926,50235,13296,0,0,0
5423,50663,14099,0,0,0
5868,51043,14813,0,0,0
6253,51373,15428,0,0,0
6570,51651,15930,0,0,0
6815,51867,16314,0,0,0
6986,52019,16583,0,0,0
7094,52116,16752,0,0,0
7150,52164,16834,0,0,0
7155,52168,16837,0,0,0
7116,52132,16775,0,0,0
7045,52070,16664,0,0,0
6950,51990,16518,0,0,0
6839,51892,16342,0,0,0
6718,51781,16148,0,0,0
6592,51667,15948,0,0,0
6464,51554,15748,0,0,0
6335,51438,15544,0,0,0
6210,51319,15345,0,0,0
6098,51208,15160,0,0,0
5998,51109,14990,0,0,0
5905,51016,14835,0,0,0
5820,50932,14698,0,0,0
5746,50863,14585,0,0,0
5686,50808,14494,0,0,0
5642,50766,14425,0,0,0
5616,50741,14384,0,0,0
5609,50736,14369,0,0,0
5616,50746,14369,0,0,0
5633,50764,14382,0,0,0
5659,50786,14413,0,0,0
5692,50810,14457,0,0,0
5724,50833,14500,0,0,0
5747,50848,14534,0,0,0
5761,50857,14558,0,0,0
5769,50862,14568,0,0,0
5764,50857,14555,0,0,0
5739,50833,14519,0,0,0
5698,50796,14465,0,0,0
5647,50754,14394,0,0,0
5588,50706,14302,0,0,0
5517,50645,14191,0,0,0
5443,50580,14074,0,0,0
5374,50522,13962,0,0,0
5308,50469,13857,0,0,0
5244,50418,13761,0,0,0
5189,50374,13676,0,0,0
5145,50340,13600,0,0,0
5107,50311,13534,0,0,0
5074,50283,13476,0,0,0
5048,50255,13426,0,0,0
5027,50230,13387,0,0,0
5009,50209,13358,0,0,0
4988,50189,13335,0,0,0
4966,50172,13323,0,0,0
4950,50162,13317,0,0,0
4937,50155,13307,0,0,0
4922,50141,13293,0,0,0
4905,50123,13280,0,0,0
4887,50109,13262,0,0,0
4862,50091,13230,0,0,0
4827,50063,13184,0,0,0
4788,50029,13127,0,0,0
4744,49990,13059,0,0,0
4692,49943,12976,0,0,0
4632,49891,12883,0,0,0
4569,49835,12785,0,0,0
4502,49773,12676,0,0,0
4432,49704,12553,0,0,0
4358,49635,12423,0,0,0
4279,49568,12289,0,0,0
4195,49498,12151,0,0,0
4109,49424,12006,0,0,0
4017,49346,11855,0,0,0
3919,49265,11697,0,0,0
3825,49183,11537,0,0,0
3733,49100,11379,0,0,0
3646,49020,11231,0,0,0
3569,48950,11101,0,0,0
3497,48886,10979,0,0,0
3425,48821,10861,0,0,0
3354,48758,10749,0,0,0
3287,48699,10643,0,0,0
3217,48637,10537,0,0,0
3141,48572,10427,0,0,0
3066,48510,10321,0,0,0
3001,48457,10223,0,0,0
2942,48408,10131,0,0,0
2886,48358,10044,0,0,0
2835,48311,9961,0,0,0
2788,48271,9881,0,0,0
2738,48229,9802,0,0,0
2684,48181,9725,0,0,0
2631,48135,9655,0,0,0
2583,48093,9588,0,0,0
2539,48053,9522,0,0,0
2498,48015,9461,0,0,0
2469,47985,9410,0,0,0
2449,47963,9362,0,0,0
2428,47941,9311,0,0,0
2403,47919,9262,0,0,0
2379,47901,9220,0,0,0
2355,47887,9176,0,0,0
2327,47871,9132,0,0,0
2300,47853,9093,0,0,0
2278,47838,9061,0,0,0
2260,47824,9026,0,0,0
2238,47804,8982,0,0,0
2208,47780,8938,0,0,0
2177,47758,8895,0,0,0
2144,47737,8844,0,0,0
2105,47711,8786,0,0,0
2067,47680,8731,0,0,0
2034,47651,8680,0,0,0
2001,47624,8623,0,0,0
1967,47594,8558,0,0,0
1936,47560,8498,0,0,0
1908,47528,8444,0,0,0
1881,47497,8390,0,0,0
1851,47464,8335,0,0,0
1820,47432,8283,0,0,0
1794,47403,8234,0,0,0
1766,47372,8177,0,0,0
1733,47340,8117,0,0,0
1700,47308,8059,0,0,0
1670,47281,8002,0,0,0
1638,47253,7938,0,0,0
1604,47224,7872,0,0,0
1573,47197,7811,0,0,0
1544,47175,7755,0,0,0
1512,47154,7696,0,0,0
1477,47126,7637,0,0,0
1444,47095,7581,0,0,0
1409,47064,7523,0,0,0
1371,47032,7459,0,0,0
1332,46998,7395,0,0,0
1300,46969,7337,0,0,0
1276,46946,7282,0,0,0
1249,46922,7225,0,0,0
1218,46895,7171,0,0,0
1189,46870,7124,0,0,0
1165,46849,7077,0,0,0
1141,46827,7029,0,0,0
1116,46803,6983,0,0,0
1094,46779,6939,0,0,0
1071,46756,6895,0,0,0
1041,46727,6847,0,0,0
1008,46695,6803,0,0,0
975,46666,6762,0,0,0
945,46641,6714,0,0,0
914,46619,6654,0,0,0
885,46600,6588,0,0,0
860,46585,6521,0,0,0
835,46570,6458,0,0,0
804,46549,6394,0,0,0
769,46527,6330,0,0,0
734,46509,6270,0,0,0
699,46487,6211,0,0,0
658,46456,6144,0,0,0
616,46423,6074,0,0,0
577,46393,6004,0,0,0
536,46360,5935,0,0,0
496,46325,5864,0,0,0
459,46291,5796,0,0,0
427,46257,5731,0,0,0
392,46220,5667,0,0,0
354,46182,5603,0,0,0
320,46147,5543,0,0,0
294,46117,5490,0,0,0
274,46094,5447,0,0,0
265,46085,5426,0,0,0
283,46108,5451,0,0,0
341,46169,5542,0,0,0
444,46269,5718,0,0,0
601,46417,5996,0,0,0
827,46625,6391,0,0,0
1127,46893,6906,0,0,0
1488,47214,7533,0,0,0
1904,47584,8265,0,0,0
2375,48007,9088,0,0,0
2892,48474,9979,0,0,0
3436,48966,10908,0,0,0
3987,49458,11838,0,0,0
4530,49935,12737,0,0,0
5046,50387,13574,0,0,0
5517,50795,14327,0,0,0
5932,51151,14985,0,0,0
6291,51456,15541,0,0,0
6589,51710,15991,0,0,0
6817,51906,16332,0,0,0
6974,52042,16568,0,0,0
7071,52127,16709,0,0,0
7114,52163,16764,0,0,0
7109,52151,16743,0,0,0
7065,52101,16665,0,0,0
6991,52024,16546,0,0,0
6889,51925,16388,0,0,0
6766,51807,16202,0,0,0
6636,51678,16002,0,0,0
6508,51549,15796,0,0,0
6381,51427,15589,0,0,0
6255,51310,15389,0,0,0
6138,51202,15204,0,0,0
6034,51109,15041,0,0,0
5941,51024,14893,0,0,0
5858,50946,14763,0,0,0
5796,50882,14660,0,0,0
5757,50842,14588,0,0,0
5733,50821,14540,0,0,0
5724,50816,14516,0,0,0
5732,50828,14520,0,0,0
5754,50856,14551,0,0,0
5784,50890,14598,0,0,0
5817,50927,14657,0,0,0
5858,50967,14729,0,0,0
5902,51007,14803,0,0,0
5940,51046,14864,0,0,0
5970,51075,14904,0,0,0
5991,51090,14925,0,0,0
5996,51087,14924,0,0,0
5980,51068,14896,0,0,0
5946,51031,14840,0,0,0
5902,50981,14765,0,0,0
5846,50923,14671,0,0,0
5777,50857,14558,0,0,0
5700,50785,14437,0,0,0
5626,50715,14321,0,0,0
5557,50650,14211,0,0,0
5488,50585,14106,0,0,0
5423,50526,14014,0,0,0
5368,50481,13936,0,0,0
5327,50448,13869,0,0,0
5294,50421,13812,0,0,0
5266,50398,13766,0,0,0
5246,50381,13732,0,0,0
5229,50371,13701,0,0,0
5210,50361,13672,0,0,0
5193,50350,13649,0,0,0
5183,50340,13632,0,0,0
5174,50331,13613,0,0,0
5162,50319,13589,0,0,0
5148,50307,13566,0,0,0
5133,50297,13545,0,0,0
5114,50285,13520,0,0,0
5088,50270,13483,0,0,0
5059,50252,13436,0,0,0
5030,50230,13382,0,0,0
4996,50201,13316,0,0,0
4953,50161,13240,0,0,0
4902,50113,13159,0,0,0
4849,50063,13071,0,0,0
4795,50008,12971,0,0,0
4735,49942,12854,0,0,0
4669,49871,12730,0,0,0
4599,49802,12602,0,0,0
4521,49732,12470,0,0,0
4429,49655,12334,0,0,0
4331,49573,12195,0,0,0
4234,49491,12051,0,0,0
4136,49406,11901,0,0,0
4036,49316,11748,0,0,0
3941,49228,11597,0,0,0
3852,49143,11448,0,0,0
3764,49059,11298,0,0,0
3675,48976,11153,0,0,0
3590,48898,11016,0,0,0
3511,48829,10889,0,0,0
3436,48769,10770,0,0,0
3364,48713,10657,0,0,0
3299,48661,10553,0,0,0
3242,48615,10456,0,0,0
3186,48570,10364,0,0,0
3133,48525,10279,0,0,0
3089,48486,10205,0,0,0
3048,48452,10137,0,0,0
3006,48417,10071,0,0,0
2963,48381,10010,0,0,0
2924,48349,9955,0,0,0
2889,48325,9902,0,0,0
2857,48303,9846,0,0,0
2827,48282,9792,0,0,0
2799,48263,9745,0,0,0
2767,48241,9701,0,0,0
2728,48212,9653,0,0,0
2689,48178,9603,0,0,0
2656,48145,9554,0,0,0
2627,48118,9508,0,0,0
2601,48091,9463,0,0,0
2581,48064,9422,0,0,0
2566,48041,9386,0,0,0
2551,48021,9347,0,0,0
2531,48000,9301,0,0,0
2507,47976,9253,0,0,0
2483,47955,9205,0,0,0
2460,47934,9155,0,0,0
2434,47911,9103,0,0,0
2406,47885,9050,0,0,0
2378,47860,9000,0,0,0
2348,47837,8947,0,0,0
2312,47811,8891,0,0,0
2274,47782,8834,0,0,0
2236,47752,8774,0,0,0
2192,47720,8708,0,0,0
2143,47683,8637,0,0,0
2092,47642,8564,0,0,0
2042,47604,8488,0,0,0
1992,47564,8408,1,0,0
1939,47519,8329,1,0,0
1886,47471,8255,1,0,0
1833,47419,8175,1,0,0
1776,47365,8087,1,0,0
1714,47309,7997,1,0,0
1653,47257,7910,1,0,0
1594,47207,7820,1,0,0
1532,47153,7726,1,0,0
1467,47095,7633,1,0,0
1407,47044,7548,1,0,0
1354,46998,7465,1,0,0
1302,46955,7379,1,0,0
1251,46913,7298,1,0,0
1210,46874,7224,1,0,0
1172,46838,7150,1,0,0
1133,46800,7073,1,0,0
1096,46762,7002,1,0,0
1065,46725,6937,1,0,0
1035,46688,6871,1,0,0
1001,46651,6804,1,0,0
965,46619,6741,1,0,0
933,46592,6682,1,0,0
903,46570,6617,1,0,0
870,46549,6545,1,0,0
835,46531,6470,1,0,0
800,46513,6398,1,0,0
765,46489,6324,1,0,0
722,46459,6246,1,0,0
677,46430,6171,1,0,0
634,46406,6105,1,0,0
591,46378,6038,1,0,0
542,46344,5964,1,0,0
492,46307,5890,1,0,0
442,46269,5817,1,0,0
389,46226,5743,1,0,0
332,46182,5665,1,0,0
280,46140,5586,1,0,0
1552,46100,5506,1,0,0
6195,46057,5426,1,0,0
12624,46011,5348,1,0,0
17051,45970,5278,1,0,0
19840,45936,5216,1,0,0
23982,45903,5161,1,0,0
28659,45874,5117,1,0,0
30677,45858,5096,1,0,0
29523,45864,5104,1,0,0
26439,45896,5156,1,0,0
22390,45961,5279,1,0,0
18084,46072,5500,1,0,0
13996,46239,5828,1,0,0
10414,46461,6264,1,0,0
7491,46739,6812,1,0,0
5273,47077,7470,1,0,0
3732,47471,8224,1,0,0
2792,47909,9053,1,0,0
2357,48376,9940,1,0,0
2323,48863,10861,1,0,0
2583,49352,11776,1,0,0
3029,49817,12642,1,0,0
3577,50245,13435,1,0,0
4162,50630,14142,1,0,0
4735,50967,14754,1,0,0
5257,51246,15263,1,0,0
5708,51467,15669,1,0,0
6076,51630,15974,1,0,0
6354,51740,16184,1,0,0
6545,51799,16303,1,0,0
6660,51814,16340,1,0,0
6709,51793,16308,1,0,0
6700,51740,16220,1,0,0
6642,51659,16085,1,0,0
6551,51561,15920,1,0,0
6441,51453,15741,1,0,0
6314,51339,15546,1,0,0
6175,51219,15341,1,0,0
6037,51101,15137,1,0,0
5908,50992,14940,1,0,0
5786,50890,14751,1,0,0
5669,50790,14573,1,0,0
5567,50702,14415,1,0,0
5481,50633,14284,1,0,0
5409,50577,14177,1,0,0
5348,50533,14100,1,0,0
5306,50504,14056,1,0,0
5283,50494,14038,1,0,0
5274,50496,14038,1,0,0
5280,50507,14058,1,0,0
5306,50530,14100,1,0,0
5349,50563,14153,1,0,0
5396,50598,14206,1,0,0
5441,50627,14256,1,0,0
5480,50647,14301,1,0,0
5505,50659,14330,1,0,0
5510,50658,14330,1,0,0
5494,50640,14297,1,0,0
5462,50608,14238,1,0,0
5412,50564,14150,1,0,0
5341,50505,14036,1,0,0
5255,50432,13907,1,0,0
5162,50357,13773,1,0,0
5066,50282,13630,1,0,0
4969,50203,13477,1,0,0
4876,50122,13325,1,0,0
4793,50043,13184,1,0,0
4717,49971,13053,1,0,0
4646,49907,12931,1,0,0
4584,49855,12827,1,0,0
4537,49819,12746,1,0,0
4502,49792,12684,1,0,0
4471,49768,12638,1,0,0
4446,49749,12613,1,0,0
4435,49741,12604,1,0,0
4435,49739,12599,1,0,0
4438,49739,12595,1,0,0
4445,49742,12598,1,0,0
4457,49751,12606,1,0,0
4465,49758,12606,1,0,0
4464,49760,12596,1,0,0
4458,49757,12577,1,0,0
4446,49751,12551,1,0,0
4421,49735,12513,1,0,0
4381,49707,12464,1,0,0
4333,49670,12408,1,0,0
4282,49625,12340,1,0,0
4222,49570,12259,1,0,0
4158,49505,12169,1,0,0
4095,49440,12074,1,0,0
4033,49376,11970,1,0,0
3968,49310,11858,1,0,0
3900,49241,11743,1,0,0
3833,49173,11628,1,0,0
3766,49103,11503,1,0,0
3692,49028,11368,1,0,0
3611,48953,11230,1,0,0
3532,48887,11098,1,0,0
3456,48829,10971,1,0,0
3375,48765,10845,1,0,0
3294,48696,10723,1,0,0
3219,48632,10611,1,0,0
3151,48573,10499,1,0,0
3088,48516,10388,1,0,0
3033,48462,10286,1,0,0
2988,48416,10194,1,0,0
2947,48378,10106,1,0,0
2905,48341,10017,1,0,0
2864,48306,9936,1,0,0
2827,48277,9865,1,0,0
2791,48250,9800,1,0,0
2753,48221,9737,1,0,0
2717,48195,9684,1,0,0
2686,48175,9640,1,0,0
2658,48157,9599,1,0,0
2632,48137,9554,1,0,0
2609,48119,9513,1,0,0
2590,48101,9475,1,0,0
2570,48082,9432,1,0,0
2546,48058,9382,1,0,0
2522,48037,9334,1,0,0
2501,48021,9289,1,0,0
2475,48002,9239,1,0,0
2443,47975,9185,1,0,0
2410,47944,9134,1,0,0
2378,47911,9084,1,0,0
2344,47872,9030,1,0,0
2305,47831,8975,1,0,0
2268,47794,8926,1,0,0
2236,47766,8879,1,0,0
2205,47741,8832,1,0,0
2176,47718,8789,1,0,0
2155,47701,8753,1,0,0
2139,47687,8720,1,0,0
2121,47672,8686,1,0,0
2103,47657,8652,1,0,0
2088,47643,8618,1,0,0
2078,47630,8583,1,0,0
2068,47616,8547,1,0,0
2055,47602,8511,1,0,0
2039,47590,8478,1,0,0
2019,47576,8441,1,0,0
1991,47556,8396,1,0,0
1954,47530,8346,1,0,0
1915,47503,8293,1,0,0
1877,47477,8230,1,0,0
1837,47444,8158,1,0,0
1797,47403,8086,1,0,0
1755,47359,8012,1,0,0
1710,47311,7929,1,0,0
1658,47256,7834,1,0,0
1600,47197,7736,1,0,0
1539,47139,7636,1,0,0
1474,47085,7535,1,0,0
1411,47032,7433,1,0,0
1353,46981,7336,1,0,0
1303,46934,7246,1,0,0
1255,46892,7158,1,0,0
1208,46852,7073,1,0,0
1162,46812,6994,1,0,0
1120,46774,6922,1,0,0
1080,46737,6847,1,0,0
1039,46697,6768,1,0,0
998,46658,6691,1,0,0
959,46625,6619,1,0,0
918,46592,6548,1,0,0
874,46558,6479,1,0,0
834,46525,6411,1,0,0
798,46501,6341,1,0,0
762,46479,6272,1,0,0
723,46455,6204,1,0,0
684,46431,6138,1,0,0
650,46409,6076,1,0,0
620,46386,6013,1,0,0
587,46361,5945,1,0,0
550,46332,5878,1,0,0
513,46300,5814,1,0,0
474,46261,5747,1,0,0
433,46219,5673,1,0,0
392,46178,5594,1,0,0
350,46139,5514,1,0,0
1617,46097,5431,1,0,0
6245,46049,5346,1,0,0
12657,45999,5259,1,0,0
18382,45946,5172,1,0,0
24516,45889,5081,1,0,0
31730,45828,4986,1,0,0
39055,45770,4894,1,0,0
45860,45721,4806,1,0,0
51778,45672,4717,1,0,0
56648,45626,4632,1,0,0
60453,45588,4558,1,0,0
63274,45562,4496,1,0,0
65247,45550,4458,1,0,0
65214,45560,4465,1,0,0
61287,45606,4538,1,0,0
53892,45700,4693,1,0,0
44897,45844,4950,1,0,0
35637,46042,5324,1,0,0
26997,46301,5818,1,0,0
19491,46618,6424,1,0,0
13361,46985,7131,1,0,0
8657,47401,7930,1,0,0
5297,47862,8806,1,0,0
3109,48352,9733,1,0,0
1890,48854,10683,1,0,0
1427,49354,11629,1,0,0
1515,49836,12531,1,0,0
1960,50279,13353,1,0,0
2607,50665,14073,1,0,0
3344,50993,14687,1,0,0
4086,51268,15199,1,0,0
4769,51489,15608,1,0,0
5360,51654,15916,1,0,0
5848,51770,16132,1,0,0
6229,51842,16264,1,0,0
6499,51871,16314,1,0,0
6659,51853,16292,1,0,0
6731,51802,16213,1,0,0
6735,51732,16087,1,0,0
6685,51647,15925,1,0,0
6594,51546,15739,1,0,0
6477,51435,15542,1,0,0
6344,51320,15342,1,0,0
6202,51202,15143,1,0,0
6063,51089,14954,1,0,0
5939,50990,14787,1,0,0
5830,50907,14639,1,0,0
5734,50839,14510,1,0,0
5656,50782,14407,1,0,0
5602,50739,14335,1,0,0
5569,50710,14288,1,0,0
5553,50697,14263,1,0,0
5554,50700,14265,1,0,0
5573,50718,14292,1,0,0
5604,50747,14334,1,0,0
5639,50780,14386,1,0,0
5675,50815,14448,1,0,0
5714,50852,14516,1,0,0
5748,50887,14576,1,0,0
5771,50912,14619,1,0,0
5786,50924,14649,1,0,0
5794,50929,14663,1,0,0
5789,50922,14653,1,0,0
5768,50900,14616,1,0,0
5735,50866,14559,1,0,0
5692,50824,14484,1,0,0
5637,50774,14389,1,0,0
5574,50718,14282,1,0,0
5511,50659,14172,1,0,0
5453,50604,14064,1,0,0
5394,50551,13957,1,0,0
5333,50501,13856,1,0,0
5277,50459,13769,1,0,0
5231,50425,13693,1,0,0
5192,50392,13621,1,0,0
5160,50361,13559,1,0,0
5139,50341,13515,1,0,0
5127,50331,13489,1,0,0
5115,50325,13475,1,0,0
5105,50316,13470,1,0,0
5101,50306,13472,1,0,0
5102,50297,13475,1,0,0
5099,50288,13474,1,0,0
5091,50281,13475,1,0,0
5084,50278,13478,1,0,0
5080,50280,13470,1,0,0
5072,50276,13447,1,0,0
5058,50265,13422,1,0,0
5045,50253,13399,1,0,0
5033,50241,13372,1,0,0
5015,50223,13334,1,0,0
4986,50197,13284,1,0,0
4948,50168,13225,1,0,0
4905,50134,13153,1,0,0
4857,50091,13067,1,0,0
4808,50040,12974,1,0,0
4757,49988,12878,1,0,0
4698,49930,12772,1,0,0
4624,49863,12653,1,0,0
4540,49788,12524,1,0,0
4455,49716,12392,1,0,0
4370,49648,12254,1,0,0
4283,49576,12112,1,0,0
4196,49503,11974,1,0,0
4111,49431,11843,1,0,0
4026,49356,11713,1,0,0
3942,49280,11582,1,0,0
3867,49210,11461,1,0,0
3806,49148,11354,1,0,0
3751,49089,11255,1,0,0
3695,49029,11158,1,0,0
3642,48973,11068,1,0,0
3594,48930,10986,1,0,0
3550,48894,10909,1,0,0
3504,48853,10833,1,0,0
3458,48810,10757,1,0,0
3419,48776,10682,1,0,0
3383,48748,10607,1,0,0
3348,48717,10536,1,0,0
3317,48689,10472,1,0,0
3289,48667,10416,1,0,0
3260,48646,10368,1,0,0
3226,48621,10320,1,0,0
3192,48596,10271,1,0,0
3160,48574,10221,1,0,0
3125,48545,10171,1,0,0
3087,48508,10122,1,0,0
3049,48470,10073,1,0,0
3013,48433,10020,1,0,0
2976,48398,9963,1,0,0
2938,48366,9908,1,0,0
2902,48339,9859,1,0,0
2868,48317,9811,1,0,0
2834,48293,9755,1,0,0
2798,48265,9698,1,0,0
2766,48238,9642,1,0,0
2737,48213,9584,1,0,0
2710,48187,9522,1,0,0
2683,48163,9461,1,0,0
2658,48142,9405,1,0,0
2627,48120,9350,1,0,0
2590,48093,9293,1,0,0
2552,48062,9235,1,0,0
2515,48029,9176,1,0,0
2477,47993,9109,1,0,0
2436,47955,9037,1,0,0
2396,47918,8967,1,0,0
2362,47884,8901,1,0,0
2328,47847,8829,1,0,0
2291,47806,8751,1,0,0
2251,47764,8674,1,0,0
2210,47727,8601,1,0,0
2165,47694,8531,1,0,0
2117,47661,8463,1,0,0
2070,47630,8394,1,0,0
2027,47599,8323,1,0,0
1985,47564,8249,0,0,0
1941,47523,8176,0,0,0
1899,47485,8109,0,0,0
1862,47454,8042,0,0,0
1824,47421,7971,0,0,0
1786,47383,7900,0,0,0
1749,47343,7831,0,0,0
1713,47306,7760,0,0,0
1672,47266,7682,0,0,0
1624,47221,7603,0,0,0
1574,47176,7528,0,0,0
1522,47131,7451,0,0,0
1465,47081,7368,0,0,0
1408,47030,7283,0,0,0
1355,46983,7200,0,0,0
1304,46941,7113,0,0,0
1251,46899,7021,0,0,0
1193,46854,6931,0,0,0
1138,46812,6844,0,0,0
1090,46776,6756,0,0,0
1043,46739,6666,0,0,0
998,46698,6581,0,0,0
955,46657,6501,0,0,0
910,46614,6420,0,0,0
859,46570,6334,0,0,0
807,46528,6245,0,0,0
760,46489,6157,0,0,0
717,46450,6070,0,0,0
675,46411,5982,0,0,0
634,46374,5899,0,0,0
593,46338,5821,0,0,0
550,46298,5745,0,0,0
503,46252,5665,0,0,0
458,46211,5588,0,0,0
422,46176,5529,0,0,0
395,46148,5489,0,0,0
386,46136,5473,0,0,0
407,46153,5501,0,0,0
469,46208,5595,0,0,0
576,46303,5769,0,0,0
733,46445,6036,0,0,0
954,46648,6414,0,0,0
1244,46916,6912,0,0,0
1600,47243,7523,0,0,0
2015,47622,8238,0,0,0
2487,48049,9045,0,0,0
3004,48515,9921,0,0,0
3547,49003,10839,0,0,0
4100,49497,11774,0,0,0
4648,49985,12690,0,0,0
5170,50446,13548,0,0,0
5644,50860,14316,0,0,0
6056,51220,14987,0,0,0
6412,51526,15562,0,0,0
6711,51780,16036,0,0,0
6950,51978,16406,0,0,0
7129,52118,16678,0,0,0
7255,52209,16867,0,0,0
7331,52257,16976,0,0,0
7359,52266,17012,0,0,0
7345,52242,16986,0,0,0
7303,52196,16915,0,0,0
7240,52134,16808,0,0,0
7159,52058,16669,0,0,0
7065,51974,16511,0,0,0
6964,51885,16346,0,0,0
6862,51793,16179,0,0,0
6758,51695,16014,0,0,0
6660,51604,15864,0,0,0
6574,51529,15735,0,0,0
6500,51467,15623,0,0,0
6438,51416,15529,0,0,0
6392,51381,15465,0,0,0
6366,51363,15427,0,0,0
6357,51357,15408,0,0,0
6358,51362,15404,0,0,0
6368,51377,15422,0,0,0
6389,51405,15463,0,0,0
6416,51438,15514,0,0,0
6446,51469,15567,0,0,0
6481,51497,15624,0,0,0
6519,51526,15683,0,0,0
6551,51549,15733,0,0,0
6575,51563,15771,0,0,0
6592,51571,15797,0,0,0
6599,51569,15801,0,0,0
6593,51551,15776,0,0,0
6571,51516,15724,0,0,0
6536,51474,15652,0,0,0
6490,51432,15562,0,0,0
6430,51382,15456,0,0,0
6358,51322,15341,0,0,0
6285,51261,15228,0,0,0
6218,51204,15117,0,0,0
6153,51149,15007,0,0,0
6092,51098,14908,0,0,0
6041,51056,14829,0,0,0
6002,51022,14766,0,0,0
5970,50991,14711,0,0,0
5942,50963,14669,0,0,0
5920,50945,14643,0,0,0
5905,50935,14629,0,0,0
5896,50925,14619,0,0,0
5896,50916,14613,0,0,0
5905,50911,14612,0,0,0
5915,50910,14612,0,0,0
5916,50906,14607,0,0,0
5909,50901,14600,0,0,0
5898,50895,14590,0,0,0
5880,50884,14570,0,0,0
5852,50864,14538,0,0,0
5816,50838,14499,0,0,0
5778,50808,14456,0,0,0
5739,50774,14404,0,0,0
5696,50737,14341,0,0,0
5652,50700,14273,0,0,0
5611,50664,14203,0,0,0
5570,50627,14125,0,0,0
5526,50584,14038,0,0,0
5478,50537,13946,0,0,0
5427,50491,13850,0,0,0
5367,50441,13746,0,0,0
5298,50382,13632,0,0,0
5227,50319,13517,0,0,0
5158,50258,13401,0,0,0
5090,50197,13278,0,0,0
5019,50130,13145,0,0,0
4945,50061,13010,0,0,0
4869,49994,12876,0,0,0
4790,49925,12738,0,0,0
4709,49851,12596,0,0,0
4630,49776,12458,0,0,0
4551,49702,12324,0,0,0
4468,49628,12191,0,0,0
4381,49553,12060,0,0,0
4297,49483,11939,0,0,0
4217,49422,11827,0,0,0
4138,49364,11718,0,0,0
4063,49307,11615,0,0,0
3993,49256,11525,0,0,0
3932,49210,11441,0,0,0
3879,49164,11358,0,0,0
3831,49117,11279,0,0,0
3789,49075,11209,0,0,0
3752,49037,11138,0,0,0
3716,49000,11065,0,0,0
3682,48965,10998,0,0,0
3655,48937,10942,0,0,0
3631,48913,10895,0,0,0
3606,48890,10853,0,0,0
3582,48869,10815,0,0,0
3560,48848,10778,0,0,0
3538,48828,10732,0,0,0
3513,48806,10681,0,0,0
3486,48783,10632,0,0,0
3460,48761,10588,0,0,0
3432,48736,10542,0,0,0
3397,48705,10489,0,0,0
3361,48670,10431,0,0,0
3322,48634,10372,0,0,0
3275,48594,10302,0,0,0
3221,48553,10224,0,0,0
3165,48510,10148,0,0,0
3113,48470,10075,0,0,0
3066,48434,10001,0,0,0
3023,48399,9927,0,0,0
2982,48366,9859,0,0,0
2942,48335,9792,0,0,0
2905,48301,9720,0,0,0
2866,48265,9649,0,0,0
2827,48229,9583,0,0,0
2788,48195,9518,0,0,0
2748,48159,9447,0,0,0
2708,48116,9369,0,0,0
2668,48070,9286,0,0,0
2627,48026,9201,0,0,0
2583,47984,9114,0,0,0
2534,47939,9027,0,0,0
2486,47892,8941,0,0,0
2439,47846,8856,0,0,0
2389,47799,8773,0,0,0
2334,47749,8691,0,0,0
2277,47700,8612,0,0,0
2218,47653,8532,0,0,0
2158,47607,8449,0,0,0
2096,47560,8368,0,0,0
2036,47516,8294,0,0,0
1980,47478,8222,0,0,0
1927,47440,8146,0,0,0
1877,47401,8073,0,0,0
1833,47366,8007,0,0,0
1795,47332,7941,0,0,0
1759,47295,7874,0,0,0
1726,47256,7807,0,0,0
1699,47219,7742,0,0,0
1676,47189,7674,0,0,0
1651,47162,7601,0,0,0
1624,47136,7528,0,0,0
1595,47110,7459,0,0,0
1562,47081,7390,0,0,0
1526,47046,7317,0,0,0
1488,47008,7246,0,0,0
1449,46971,7175,0,0,0
1404,46932,7095,0,0,0
1350,46888,7010,0,0,0
1292,46841,6922,0,0,0
1238,46796,6832,0,0,0
1186,46756,6740,0,0,0
1130,46714,6644,0,0,0
1074,46670,6550,0,0,0
1024,46628,6461,0,0,0
974,46584,6371,0,0,0
920,46536,6277,0,0,0
867,46491,6180,0,0,0
815,46450,6085,0,0,0
760,46406,5989,0,0,0
700,46357,5890,0,0,0
639,46313,5796,0,0,0
587,46278,5716,0,0,0
548,46253,5656,0,0,0
531,46245,5627,0,0,0
547,46264,5646,0,0,0
606,46320,5741,0,0,0
717,46422,5936,0,0,0
887,46580,6244,0,0,0
1124,46798,6670,0,0,0
1428,47073,7204,0,0,0
1794,47400,7841,0,0,0
2216,47777,8577,0,0,0
2691,48205,9400,0,0,0
3206,48675,10283,0,0,0
3745,49164,11198,0,0,0
4290,49654,12123,0,0,0
4819,50130,13023,0,0,0
5315,50574,13858,0,0,0
5761,50969,14600,0,0,0
6152,51305,15235,0,0,0
6487,51587,15768,0,0,0
6766,51817,16200,0,0,0
6982,51992,16530,0,0,0
7134,52111,16763,0,0,0
7233,52182,16910,0,0,0
7283,52213,16976,0,0,0
7287,52210,16972,0,0,0
7256,52175,16914,0,0,0
7201,52116,16818,0,0,0
7126,52044,16689,0,0,0
7034,51958,16534,0,0,0
6932,51865,16365,0,0,0
6827,51770,16192,0,0,0
6721,51674,16018,0,0,0
6615,51576,15850,0,0,0
6515,51485,15696,0,0,0
6428,51408,15560,0,0,0
6354,51344,15441,0,0,0
6293,51292,15344,0,0,0
6254,51254,15275,0,0,0
6236,51234,15234,0,0,0
6236,51230,15220,0,0,0
6248,51238,15230,0,0,0
6270,51258,15263,0,0,0
6301,51291,15314,0,0,0
6337,51331,15375,0,0,0
6374,51373,15446,0,0,0
6414,51419,15523,0,0,0
6456,51468,15598,0,0,0
6492,51508,15660,0,0,0
6518,51533,15705,0,0,0
6534,51551,15735,0,0,0
6539,51558,15742,0,0,0
6524,51543,15716,0,0,0
6487,51505,15657,0,0,0
6432,51452,15575,0,0,0
6361,51389,15471,0,0,0
6276,51313,15344,0,0,0
6180,51229,15206,0,0,0
6079,51141,15065,0,0,0
5979,51051,14920,0,0,0
5882,50963,14774,0,0,0
5790,50880,14635,0,0,0
5708,50808,14508,0,0,0
5638,50746,14392,0,0,0
5578,50694,14288,0,0,0
5532,50655,14205,0,0,0
5502,50628,14144,0,0,0
5482,50610,14096,0,0,0
5468,50595,14059,0,0,0
5460,50582,14037,0,0,0
5458,50574,14029,0,0,0
5462,50571,14028,0,0,0
5470,50569,14028,0,0,0
5483,50572,14027,0,0,0
5495,50578,14024,0,0,0
5497,50579,14011,0,0,0
5489,50572,13989,0,0,0
5476,50557,13962,0,0,0
5460,50538,13928,0,0,0
5434,50510,13878,0,0,0
5397,50473,13815,0,0,0
5351,50432,13742,0,0,0
5303,50388,13655,0,0,0
5246,50338,13554,0,0,0
5176,50278,13442,0,0,0
5097,50212,13324,0,0,0
5013,50145,13199,0,0,0
4922,50071,13062,0,0,0
4826,49987,12916,0,0,0
4730,49899,12768,0,0,0
4632,49807,12613,0,0,0
4529,49712,12448,0,0,0
4424,49616,12282,0,0,0
4321,49524,12123,0,0,0
4217,49436,11967,0,0,0
4111,49352,11812,1,0,0
4008,49273,11663,1,0,0
3915,49204,11523,1,0,0
3832,49143,11390,1,0,0
3753,49086,11260,1,0,0
3681,49030,11138,1,0,0
3618,48976,11027,1,0,0
3564,48927,10923,1,0,0
3514,48882,10826,1,0,0
3467,48840,10739,1,0,0
3428,48802,10664,1,0,0
3393,48767,10594,1,0,0
3354,48730,10524,1,0,0
3310,48688,10458,1,0,0
3268,48647,10395,1,0,0
3222,48603,10322,1,0,0
3168,48554,10239,1,0,0
3116,48506,10153,1,0,0
3067,48460,10069,1,0,0
3015,48412,9982,1,0,0
2958,48362,9893,1,0,0
2901,48313,9809,1,0,0
2845,48268,9728,1,0,0
2788,48222,9642,1,0,0
2728,48171,9551,1,0,0
2673,48123,9460,1,0,0
2623,48082,9369,1,0,0
2573,48039,9275,1,0,0
2519,47994,9184,1,0,0
2466,47952,9101,1,0,0
2415,47913,9022,1,0,0
2366,47871,8939,1,0,0
2315,47825,8857,1,0,0
2269,47779,8781,1,0,0
2225,47735,8706,1,0,0
2178,47690,8628,1,0,0
2128,47641,8549,1,0,0
2079,47595,8473,1,0,0
2025,47553,8400,1,0,0
1964,47508,8321,1,0,0
1899,47460,8234,1,0,0
1839,47416,8143,1,0,0
1785,47375,8046,1,0,0
1728,47331,7942,1,0,0
1668,47281,7837,1,0,0
1609,47231,7733,1,0,0
1553,47183,7628,1,0,0
1500,47137,7528,1,0,0
1453,47091,7435,1,0,0
1406,47046,7350,1,0,0
1359,47004,7265,1,0,0
1309,46961,7173,1,0,0
1258,46918,7080,1,0,0
1211,46878,6991,1,0,0
1166,46842,6905,1,0,0
1118,46804,6823,1,0,0
1069,46766,6748,1,0,0
1026,46732,6680,1,0,0
990,46702,6614,1,0,0
954,46670,6544,1,0,0
914,46639,6470,1,0,0
871,46610,6395,1,0,0
823,46576,6318,1,0,0
769,46533,6232,1,0,0
714,46486,6143,1,0,0
661,46442,6058,1,0,0
607,46396,5971,1,0,0
549,46344,5875,1,0,0
491,46290,5773,1,0,0
437,46238,5674,1,0,0
382,46187,5576,1,0,0
323,46134,5477,1,0,0
266,46083,5380,1,0,0
1529,46038,5290,1,0,0
6164,45996,5204,1,0,0
13900,45950,5116,1,0,0
23001,45905,5026,1,0,0
32241,45865,4938,1,0,0
40826,45822,4851,1,0,0
48294,45771,4764,1,0,0
54445,45720,4682,1,0,0
59257,45675,4605,1,0,0
62819,45633,4532,1,0,0
65287,45589,4461,1,0,0
1321,45545,4392,1,0,0
2184,45508,4323,1,0,0
2521,45478,4255,1,0,0
2497,45455,4196,1,0,0
2252,45444,4156,1,0,0
1891,45449,4143,1,0,0
177,45475,4171,1,0,0
60658,45533,4262,1,0,0
52581,45638,4443,1,0,0
43253,45800,4733,1,0,0
33917,46019,5145,1,0,0
25370,46296,5681,1,0,0
18063,46632,6332,1,0,0
12182,47018,7080,1,0,0
7733,47445,7905,1,0,0
4605,47906,8797,1,0,0
2619,48394,9736,1,0,0
1566,48894,10691,1,0,0
1233,49389,11639,1,0,0
1419,49867,12556,1,0,0
1944,50313,13409,1,0,0
2659,50715,14165,1,0,0
3445,51061,14808,1,0,0
4224,51350,15337,1,0,0
4941,51588,15756,1,0,0
5557,51770,16066,1,0,0
6053,51894,16282,1,0,0
6435,51973,16423,1,0,0
6713,52016,16496,1,0,0
6889,52023,16506,1,0,0
6977,51997,16465,1,0,0
6998,51943,16389,1,0,0
6969,51872,16284,1,0,0
6898,51787,16151,1,0,0
6797,51694,16001,1,0,0
6680,51601,15844,1,0,0
6558,51515,15686,1,0,0
6438,51434,15531,1,0,0
6328,51356,15393,1,0,0
6239,51289,15282,1,0,0
6170,51238,15195,1,0,0
6118,51199,15128,1,0,0
6081,51171,15086,1,0,0
6065,51157,15071,1,0,0
6066,51154,15079,1,0,0
6079,51159,15104,1,0,0
6101,51169,15144,1,0,0
6134,51190,15199,1,0,0
6172,51221,15261,1,0,0
6206,51252,15319,1,0,0
6235,51281,15371,1,0,0
6262,51307,15416,1,0,0
6283,51327,15448,1,0,0
6293,51334,15458,1,0,0
6292,51323,15446,1,0,0
6281,51299,15411,1,0,0
6254,51262,15348,1,0,0
6209,51214,15257,1,0,0
6152,51157,15144,1,0,0
6086,51098,15019,1,0,0
6011,51035,14885,1,0,0
5925,50966,14744,1,0,0
5838,50896,14605,1,0,0
5757,50833,14476,1,0,0
5681,50776,14354,1,0,0
5611,50722,14240,1,0,0
5550,50673,14145,1,0,0
5500,50632,14073,1,0,0
5459,50599,14018,1,0,0
5424,50570,13977,1,0,0
5400,50551,13952,1,0,0
5389,50542,13940,1,0,0
5387,50543,13934,1,0,0
5393,50548,13934,1,0,0
5401,50557,13941,1,0,0
5409,50569,13952,1,0,0
5415,50579,13965,1,0,0
5418,50580,13975,1,0,0
5422,50579,13982,1,0,0
5424,50577,13981,1,0,0
5418,50569,13965,1,0,0
5402,50551,13935,1,0,0
5376,50524,13890,1,0,0
5346,50491,13830,1,0,0
5306,50450,13758,1,0,0
5257,50402,13676,1,0,0
5202,50350,13584,1,0,0
5146,50296,13482,1,0,0
5084,50238,13371,1,0,0
5014,50175,13256,1,0,0
4939,50110,13138,1,0,0
4861,50045,13015,1,0,0
4779,49978,12888,1,0,0
4695,49904,12755,1,0,0
4611,49829,12614,1,0,0
4527,49755,12468,1,0,0
4443,49678,12317,1,0,0
4359,49597,12168,1,0,0
4276,49521,12029,1,0,0
4195,49452,11897,1,0,0
4117,49387,11768,1,0,0
4047,49328,11651,1,0,0
3987,49277,11546,1,0,0
3935,49235,11445,1,0,0
3884,49193,11347,1,0,0
3836,49152,11259,1,0,0
3794,49116,11184,1,0,0
3755,49086,11114,1,0,0
3716,49057,11046,1,0,0
3682,49026,10984,1,0,0
3653,49000,10930,1,0,0
3624,48977,10880,1,0,0
3595,48952,10829,1,0,0
3570,48926,10782,1,0,0
3555,48907,10740,1,0,0
3544,48893,10701,1,0,0
3530,48874,10662,1,0,0
3513,48851,10626,1,0,0
3496,48827,10590,1,0,0
3478,48801,10549,1,0,0
3456,48773,10506,1,0,0
3436,48749,10465,1,0,0
3414,48723,10421,1,0,0
3383,48693,10370,1,0,0
3349,48660,10316,1,0,0
3317,48632,10266,1,0,0
3289,48609,10217,1,0,0
3259,48587,10164,1,0,0
3226,48564,10112,1,0,0
3192,48543,10066,1,0,0
3158,48524,10019,1,0,0
3119,48500,9966,1,0,0
3078,48469,9912,1,0,0
3042,48436,9859,1,0,0
3007,48405,9804,1,0,0
2970,48370,9740,1,0,0
2929,48329,9671,1,0,0
2889,48290,9604,1,0,0
2849,48252,9531,1,0,0
2804,48211,9450,1,0,0
2754,48164,9366,1,0,0
2706,48118,9279,1,0,0
2657,48070,9183,1,0,0
2601,48018,9080,1,0,0
2540,47964,8980,1,0,0
2482,47914,8886,1,0,0
2426,47865,8788,1,0,0
2366,47810,8685,1,0,0
2307,47758,8586,1,0,0
2254,47716,8497,1,0,0
2203,47679,8414,1,0,0
2148,47639,8331,1,0,0
2095,47596,8252,1,0,0
2047,47554,8178,0,0,0
2003,47513,8101,0,0,0
1960,47473,8022,0,0,0
1921,47437,7946,0,0,0
1884,47407,7873,0,0,0
1848,47378,7797,0,0,0
1812,47348,7720,0,0,0
1776,47318,7650,0,0,0
1739,47287,7585,0,0,0
1693,47252,7514,0,0,0
1641,47209,7433,0,0,0
1591,47163,7350,0,0,0
1545,47116,7265,0,0,0
1496,47065,7178,0,0,0
1442,47012,7093,0,0,0
1389,46960,7012,0,0,0
1333,46908,6929,0,0,0
1270,46854,6839,0,0,0
1205,46800,6746,0,0,0
1145,46750,6653,0,0,0
1088,46704,6557,0,0,0
1032,46658,6454,0,0,0
978,46612,6350,0,0,0
928,46569,6251,0,0,0
879,46526,6155,0,0,0
830,46481,6056,0,0,0
783,46439,5958,0,0,0
746,46405,5869,0,0,0
716,46375,5791,0,0,0
690,46348,5728,0,0,0
672,46333,5685,0,0,0
675,46338,5681,0,0,0
702,46367,5729,0,0,0
768,46432,5845,0,0,0
888,46548,6051,0,0,0
1073,46724,6369,0,0,0
1324,46962,6807,0,0,0
1638,47256,7361,0,0,0
2015,47603,8027,0,0,0
2452,48002,8796,0,0,0
2935,48442,9644,0,0,0
3455,48913,10551,0,0,0
4006,49407,11498,0,0,0
4574,49912,12458,0,0,0
5131,50405,13384,0,0,0
5654,50864,14241,0,0,0
6134,51277,15016,0,0,0
6565,51644,15698,0,0,0
6940,51958,16277,0,0,0
7251,52216,16754,0,0,0
7502,52425,17134,0,0,0
7698,52586,17419,0,0,0
7834,52693,17615,0,0,0
7913,52750,17732,0,0,0
7952,52771,17781,0,0,0
7955,52764,17772,0,0,0
7922,52731,17716,0,0,0
7862,52676,17627,0,0,0
7790,52609,17516,0,0,0
7711,52538,17390,0,0,0
7627,52465,17254,0,0,0
7541,52392,17118,0,0,0
7462,52323,16991,0,0,0
7393,52258,16874,0,0,0
7330,52198,16772,0,0,0
7276,52147,16691,0,0,0
7241,52111,16636,0,0,0
7219,52087,16601,0,0,0
7206,52073,16579,0,0,0
7204,52070,16576,0,0,0
7219,52082,16599,0,0,0
7253,52107,16641,0,0,0
7296,52139,16698,0,0,0
7343,52178,16771,0,0,0
7400,52221,16855,0,0,0
7461,52265,16939,0,0,0
7515,52304,17018,0,0,0
7561,52338,17092,0,0,0
7601,52370,17157,0,0,0
7632,52396,17205,0,0,0
7647,52409,17226,0,0,0
7643,52406,17218,0,0,0
7626,52389,17183,0,0,0
7592,52357,17117,0,0,0
7540,52305,17022,0,0,0
7476,52241,16911,0,0,0
7410,52177,16796,0,0,0
7342,52111,16676,0,0,0
7273,52041,16553,0,0,0
7207,51974,16436,0,0,0
7146,51911,16327,0,0,0
7087,51855,16224,0,0,0
7032,51808,16130,0,0,0
6986,51774,16053,0,0,0
6947,51753,15994,0,0,0
6913,51738,15949,0,0,0
6883,51724,15916,0,0,0
6861,51713,15897,0,0,0
6850,51710,15888,0,0,0
6845,51709,15884,0,0,0
6841,51707,15886,0,0,0
6841,51703,15893,0,0,0
6850,51704,15899,0,0,0
6868,51707,15900,0,0,0
6886,51710,15899,0,0,0
6902,51712,15901,0,0,0
6913,51715,15900,0,0,0
6916,51713,15892,0,0,0
6912,51704,15878,0,0,0
6904,51689,15856,0,0,0
6890,51670,15824,0,0,0
6864,51643,15780,0,0,0
6827,51610,15728,0,0,0
6786,51578,15667,0,0,0
6742,51545,15595,0,0,0
6691,51501,15507,0,0,0
6633,51446,15404,0,0,0
6574,51389,15293,0,0,0
6514,51334,15178,0,0,0
6451,51277,15058,0,0,0
6385,51219,14938,0,0,0
6318,51161,14821,0,0,0
6247,51100,14699,0,0,0
6169,51031,14570,0,0,0
6084,50958,14439,0,0,0
6002,50889,14309,0,0,0
5924,50822,14180,0,0,0
5845,50753,14050,0,0,0
5768,50685,13927,0,0,0
5699,50620,13813,0,0,0
5635,50560,13703,0,0,0
5572,50504,13597,0,0,0
5514,50455,13501,0,0,0
5465,50413,13413,0,0,0
5422,50373,13327,0,0,0
5377,50332,13246,0,0,0
5333,50294,13176,0,0,0
5294,50262,13112,0,0,0
5261,50232,13051,0,0,0
5228,50200,12992,0,0,0
5196,50169,12937,0,0,0
5167,50140,12882,0,0,0
5140,50107,12826,0,0,0
5110,50070,12772,0,0,0
5078,50038,12722,0,0,0
5051,50012,12672,0,0,0
5025,49983,12616,0,0,0
4996,49952,12563,0,0,0
4966,49926,12519,0,0,0
4941,49905,12478,0,0,0
4918,49884,12435,0,0,0
4894,49861,12394,0,0,0
4873,49841,12357,0,0,0
4853,49825,12318,0,0,0
4828,49806,12276,0,0,0
4800,49787,12235,0,0,0
4773,49771,12195,0,0,0
4746,49755,12147,0,0,0
4717,49737,12091,0,0,0
4690,49717,12038,0,0,0
4667,49696,11990,0,0,0
4643,49670,11939,0,0,0
4614,49638,11885,0,0,0
4584,49608,11834,0,0,0
4557,49582,11784,0,0,0
4526,49555,11728,0,0,0
4493,49524,11665,0,0,0
4463,49494,11606,0,0,0
4433,49468,11544,0,0,0
4399,49442,11474,0,0,0
4362,49406,11398,0,0,0
4329,49367,11328,0,0,0
4300,49336,11265,0,0,0
4272,49311,11204,0,0,0
4242,49285,11144,0,0,0
4214,49259,11086,0,0,0
4186,49238,11033,0,0,0
4157,49217,10979,0,0,0
4126,49192,10926,0,0,0
4096,49166,10872,0,0,0
4070,49142,10817,0,0,0
4048,49119,10761,0,0,0
4026,49097,10707,0,0,0
4005,49077,10657,0,0,0
3985,49058,10606,0,0,0
3964,49036,10556,0,0,0
3936,49010,10511,0,0,0
3904,48981,10473,0,0,0
3873,48952,10432,0,0,0
3844,48921,10383,0,0,0
3815,48890,10332,0,0,0
3785,48862,10284,0,0,0
3758,48843,10237,0,0,0
3730,48823,10185,0,0,0
3698,48799,10131,0,0,0
3668,48776,10074,0,0,0
3639,48757,10015,0,0,0
3606,48735,9956,0,0,0
3570,48707,9898,0,0,0
3532,48677,9837,0,0,0
3493,48646,9766,0,0,0
3447,48607,9685,0,0,0
3394,48559,9597,0,0,0
3340,48506,9503,0,0,0
3283,48454,9404,0,0,0
3224,48397,9303,0,0,0
3165,48334,9203,0,0,0
3111,48272,9103,0,0,0
3059,48213,9005,0,0,0
3006,48157,8908,0,0,0
2955,48105,8819,0,0,0
2911,48062,8740,0,0,0
2875,48028,8675,0,0,0
2846,48002,8633,0,0,0
2836,47994,8625,0,0,0
2858,48019,8671,0,0,0
2923,48085,8790,0,0,0
3038,48196,9002,0,0,0
3215,48365,9320,0,0,0
3463,48598,9755,0,0,0
3774,48893,10305,0,0,0
4147,49246,10966,0,0,0
4584,49656,11727,0,0,0
5076,50112,12561,0,0,0
5598,50589,13430,0,0,0
6130,51068,14304,0,0,0
6661,51539,15161,0,0,0
7175,51992,15976,0,0,0
7650,52410,16724,0,0,0
8074,52781,17389,0,0,0
8443,53100,17958,0,0,0
8752,53359,18421,0,0,0
8992,53554,18775,0,0,0
9168,53692,19032,0,0,0
9289,53785,19211,0,0,0
9360,53840,19320,0,0,0
9387,53860,19368,0,0,0
9383,53849,19364,0,0,0
9363,53816,19322,0,0,0
9329,53766,19246,0,0,0
9279,53703,19145,0,0,0
9219,53630,19034,0,0,0
9154,53556,18922,0,0,0
9088,53487,18810,0,0,0
9020,53423,18701,0,0,0
8953,53363,18603,0,0,0
8895,53310,18517,0,0,0
8850,53268,18442,0,0,0
8816,53235,18379,0,0,0
8792,53213,18336,0,0,0
8783,53206,18320,0,0,0
8788,53212,18321,0,0,0
8798,53225,18337,0,0,0
8816,53242,18371,0,0,0
8841,53264,18421,0,0,0
8871,53290,18480,0,0,0
8903,53319,18543,0,0,0
8943,53352,18609,0,0,0
8990,53390,18676,0,0,0
9039,53429,18740,0,0,0
9082,53462,18798,0,0,0
9119,53487,18851,0,0,0
9150,53507,18891,0,0,0
9168,53517,18909,0,0,0
9172,53515,18909,0,0,0
9167,53510,18895,0,0,0
9153,53501,18864,0,0,0
9129,53480,18813,0,0,0
9097,53447,18749,0,0,0
9061,53409,18677,0,0,0
9023,53368,18597,0,0,0
8979,53323,18517,0,0,0
8934,53280,18444,0,0,0
8900,53245,18381,0,0,0
8874,53220,18324,0,0,0
8849,53197,18274,0,0,0
8826,53175,18237,0,0,0
8813,53159,18220,0,0,0
8813,53155,18218,0,0,0
8821,53159,18226,0,0,0
8832,53164,18240,0,0,0
8849,53177,18263,0,0,0
8873,53198,18290,0,0,0
8896,53218,18315,0,0,0
8916,53234,18338,0,0,0
8940,53252,18362,0,0,0
8967,53271,18387,0,0,0
8992,53288,18407,0,0,0
9012,53302,18421,0,0,0
9027,53313,18426,0,0,0
9039,53321,18423,0,0,0
9042,53320,18412,0,0,0
9034,53309,18396,0,0,0
9023,53291,18377,0,0,0
9013,53270,18353,0,0,0
8998,53244,18319,0,0,0
8974,53215,18276,0,0,0
8941,53185,18228,0,0,0
8903,53151,18167,0,0,0
8859,53107,18093,0,0,0
8815,53061,18013,0,0,0
8771,53018,17933,0,0,0
8723,52975,17849,0,0,0
8669,52926,17759,0,0,0
8614,52875,17671,0,0,0
8561,52826,17583,0,0,0
8507,52777,17490,0,0,0
8452,52727,17396,0,0,0
8399,52679,17309,0,0,0
8347,52634,17227,0,0,0
8293,52588,17145,0,0,0
8243,52545,17066,0,0,0
8201,52510,16996,0,0,0
8166,52481,16931,0,0,0
8129,52449,16868,0,0,0
8091,52416,16809,0,0,0
8059,52385,16756,0,0,0
8032,52354,16704,0,0,0
8003,52322,16648,0,0,0
7972,52288,16593,0,0,0
7944,52257,16540,0,0,0
7916,52226,16490,0,0,0
7882,52192,16441,0,0,0
7845,52160,16395,0,0,0
7812,52135,16356,0,0,0
7782,52113,16317,0,0,0
7755,52092,16275,0,0,0
7729,52072,16230,0,0,0
7707,52055,16186,0,0,0
7688,52039,16137,0,0,0
7666,52016,16083,0,0,0
7640,51990,16031,0,0,0
7610,51964,15978,0,0,0
7571,51934,15916,0,0,0
7529,51899,15844,0,0,0
7489,51864,15771,0,0,0
7450,51831,15700,0,0,0
7409,51799,15624,0,0,0
7367,51764,15546,0,0,0
7328,51730,15470,0,0,0
7289,51697,15395,0,0,0
7245,51660,15320,0,0,0
7193,51618,15244,0,0,0
7142,51577,15169,0,0,0
7094,51540,15097,0,0,0
7046,51501,15025,0,0,0
6996,51457,14947,0,0,0
6945,51411,14869,0,0,0
6893,51365,14788,0,0,0
6837,51314,14702,0,0,0
6776,51257,14614,0,0,0
6716,51198,14530,0,0,0
6656,51143,14446,0,0,0
6594,51087,14358,0,0,0
6536,51031,14271,0,0,0
6487,50983,14189,0,0,0
6445,50945,14112,0,0,0
6403,50912,14035,0,0,0
6363,50880,13959,0,0,0
6325,50849,13883,0,0,0
6286,50817,13805,0,0,0
6244,50781,13726,0,0,0
6203,50739,13647,0,0,0
6166,50698,13572,0,0,0
6133,50657,13500,0,0,0
6096,50615,13431,0,0,0
6058,50573,13369,0,0,0
6026,50534,13315,0,0,0
6001,50503,13258,0,0,0
5978,50473,13200,0,0,0
5952,50438,13144,0,0,0
5923,50403,13087,0,0,0
5888,50370,13019,0,0,0
5843,50339,12943,0,0,0
5789,50307,12863,0,0,0
5732,50276,12784,0,0,0
5673,50242,12701,0,0,0
5611,50202,12614,0,0,0
5549,50157,12526,0,0,0
5489,50112,12441,0,0,0
5428,50068,12354,0,0,0
5364,50023,12263,0,0,0
5300,49978,12173,0,0,0
5238,49932,12087,0,0,0
5180,49886,11999,0,0,0
5121,49837,11905,0,0,0
5065,49786,11813,0,0,0
5013,49738,11724,0,0,0
4961,49689,11636,0,0,0
4899,49635,11541,0,0,0
4830,49577,11444,0,0,0
4767,49524,11349,0,0,0
4712,49472,11251,0,0,0
4655,49416,11152,0,0,0
4599,49365,11059,0,0,0
4552,49327,10972,0,0,0
4513,49300,10895,0,0,0
4480,49280,10836,0,0,0
4464,49275,10809,0,0,0
4475,49292,10827,0,0,0
4518,49337,10901,0,0,0
4604,49419,11057,0,0,0
4747,49557,11319,0,0,0
4955,49763,11698,0,0,0
5232,50032,12192,0,0,0
5576,50356,12798,0,0,0
5985,50730,13498,0,0,0
6442,51143,14262,0,0,0
6926,51578,15062,0,0,0
7420,52021,15875,0,0,0
7909,52454,16674,0,0,0
8374,52864,17426,0,0,0
8799,53236,18106,0,0,0
9171,53564,18704,0,0,0
9487,53843,19212,0,0,0
9742,54069,19619,0,0,0
9938,54240,19927,0,0,0
10086,54362,20153,0,0,0
10192,54446,20314,0,0,0
10261,54496,20414,0,0,0
10295,54511,20456,0,0,0
10302,54501,20450,0,0,0
10290,54478,20412,0,0,0
10257,54442,20346,0,0,0
10207,54391,20256,0,0,0
10150,54332,20154,0,0,0
10094,54277,20054,0,0,0
10037,54223,19956,0,0,0
9976,54168,19862,0,0,0
9922,54118,19779,0,0,0
9883,54079,19713,0,0,0
9857,54049,19660,0,0,0
9837,54023,19623,0,0,0
9825,54007,19605,0,0,0
9821,54005,19603,0,0,0
9823,54011,19611,0,0,0
9833,54023,19634,0,0,0
9852,54043,19672,0,0,0
9878,54069,19719,0,0,0
9905,54095,19767,0,0,0
9932,54121,19821,0,0,0
9964,54151,19883,0,0,0
9999,54182,19942,0,0,0
10031,54208,19992,0,0,0
10056,54224,20034,0,0,0
10076,54234,20067,0,0,0
10085,54237,20086,0,0,0
10079,54231,20083,0,0,0
10062,54217,20060,0,0,0
10041,54197,20024,0,0,0
10015,54171,19977,0,0,0
9982,54139,19919,0,0,0
9944,54103,19855,0,0,0
9906,54067,19788,0,0,0
9867,54028,19716,0,0,0
9827,53987,19644,0,0,0
9787,53945,19581,0,0,0
9750,53906,19527,0,0,0
9717,53870,19477,0,0,0
9687,53835,19429,0,0,0
9662,53808,19388,0,0,0
9647,53795,19356,0,0,0
9637,53790,19330,0,0,0
9632,53789,19314,0,0,0
9636,53794,19315,0,0,0
9649,53806,19330,0,0,0
9665,53818,19352,0,0,0
9680,53828,19375,0,0,0
9698,53840,19402,0,0,0
9716,53858,19430,0,0,0
9730,53874,19453,0,0,0
9736,53880,19466,0,0,0
9740,53882,19476,0,0,0
9746,53885,19482,0,0,0
9748,53885,19476,0,0,0
9742,53879,19459,0,0,0
9731,53868,19438,0,0,0
9717,53851,19409,0,0,0
9698,53826,19367,0,0,0
9672,53793,19313,0,0,0
9643,53758,19253,0,0,0
9611,53721,19190,0,0,0
9573,53681,19121,0,0,0
9527,53637,19049,0,0,0
9479,53591,18972,0,0,0
9431,53546,18891,0,0,0
9380,53497,18805,0,0,0
9327,53445,18716,0,0,0
9274,53396,18628,0,0,0
9222,53350,18540,0,0,0
9170,53305,18450,0,0,0
9115,53258,18361,0,0,0
9065,53212,18274,0,0,0
9021,53171,18185,0,0,0
8976,53130,18092,0,0,0
8930,53084,17997,0,0,0
8888,53038,17909,0,0,0
8847,52996,17827,0,0,0
8805,52954,17748,0,0,0
8766,52916,17674,0,0,0
8733,52881,17606,0,0,0
8698,52847,17541,0,0,0
8658,52813,17477,0,0,0
8617,52781,17422,0,0,0
8583,52754,17375,0,0,0
8550,52728,17329,0,0,0
8516,52702,17282,0,0,0
8484,52680,17240,0,0,0
8460,52666,17203,0,0,0
8441,52654,17166,0,0,0
8421,52641,17128,0,0,0
8402,52628,17092,0,0,0
8385,52618,17060,0,0,0
8368,52606,17027,0,0,0
8342,52587,16990,0,0,0
8315,52566,16949,0,0,0
8294,52549,16908,0,0,0
8273,52529,16865,0,0,0
8249,52501,16820,0,0,0
8223,52467,16775,0,0,0
8195,52434,16727,0,0,0
8161,52403,16672,0,0,0
8124,52369,16609,0,0,0
8086,52334,16545,0,0,0
8050,52300,16479,0,0,0
8011,52264,16412,0,0,0
7967,52225,16342,0,0,0
7926,52187,16272,0,0,0
7885,52150,16201,0,0,0
7839,52109,16128,0,0,0
7788,52062,16053,0,0,0
7737,52015,15979,0,0,0
7689,51973,15905,0,0,0
7642,51932,15823,0,0,0
7596,51886,15738,0,0,0
7552,51841,15656,0,0,0
7508,51798,15577,0,0,0
7461,51753,15495,0,0,0
7409,51704,15411,0,0,0
7352,51655,15327,0,0,0
7291,51606,15241,0,0,0
7223,51551,15144,0,0,0
7152,51492,15040,0,0,0
7085,51435,14939,0,0,0
7024,51380,14838,0,0,0
6963,51327,14731,0,0,0
6905,51277,14623,0,0,0
6854,51231,14525,0,0,0
6802,51186,14435,0,0,0
6744,51137,14345,0,0,0
6689,51088,14259,0,0,0
6641,51044,14177,0,0,0
6597,51005,14096,0,0,0
6551,50967,14015,0,0,0
6504,50931,13933,0,0,0
6459,50900,13855,0,0,0
6418,50871,13780,0,0,0
6375,50837,13704,0,0,0
6329,50799,13629,0,0,0
6286,50760,13554,0,0,0
6246,50719,13480,0,0,0
6207,50674,13406,0,0,0
6164,50629,13338,0,0,0
6115,50591,13273,0,0,0
6060,50554,13201,0,0,0
6006,50509,13122,0,0,0
5953,50458,13042,0,0,0
5901,50409,12960,0,0,0
5844,50361,12868,0,0,0
5784,50307,12770,0,0,0
5727,50255,12673,0,0,0
5673,50207,12579,0,0,0
5615,50159,12486,0,0,0
5555,50109,12397,0,0,0
5500,50060,12311,0,0,0
5453,50015,12227,0,0,0
5407,49970,12142,0,0,0
5358,49925,12061,0,0,0
5313,49885,11990,0,0,0
5276,49851,11930,0,0,0
5247,49822,11883,0,0,0
5233,49808,11868,0,0,0
5247,49824,11903,0,0,0
5299,49880,11998,0,0,0
5395,49981,12169,0,0,0
5544,50132,12441,0,0,0
5757,50345,12829,0,0,0
6037,50619,13328,0,0,0
6378,50949,13927,0,0,0
6770,51321,14606,0,0,0
7202,51725,15340,0,0,0
7658,52144,16098,0,0,0
8121,52562,16858,0,0,0
8576,52966,17600,0,0,0
9007,53346,18298,0,0,0
9393,53689,18924,0,0,0
9729,53983,19462,0,0,0
10015,54229,19913,0,0,0
10249,54431,20282,0,0,0
10429,54587,20570,0,0,0
10556,54698,20777,0,0,0
10643,54770,20914,0,0,0
10699,54813,20994,0,0,0
10723,54829,21022,0,0,0
10719,54818,21004,0,0,0
10696,54786,20954,0,0,0
10660,54742,20887,0,0,0
10610,54688,20806,0,0,0
10546,54625,20714,0,0,0
10477,54557,20612,0,0,0
10405,54489,20506,0,0,0
10333,54419,20395,0,0,0
10263,54348,20283,0,0,0
10199,54284,20183,0,0,0
10147,54232,20102,0,0,0
10107,54190,20040,0,0,0
10076,54153,19988,0,0,0
10060,54125,19951,0,0,0
10057,54113,19934,0,0,0
10061,54112,19935,0,0,0
10070,54121,19950,0,0,0
10089,54141,19978,0,0,0
10117,54171,20019,0,0,0
10145,54201,20065,0,0,0
10171,54228,20110,0,0,0
10198,54253,20157,0,0,0
10222,54274,20202,0,0,0
10236,54287,20238,0,0,0
10242,54295,20260,0,0,0
10244,54300,20269,0,0,0
10242,54298,20265,0,0,0
10231,54284,20243,0,0,0
10210,54262,20207,0,0,0
10184,54236,20162,0,0,0
10151,54203,20102,0,0,0
10107,54163,20030,0,0,0
10060,54121,19958,0,0,0
10020,54086,19896,0,0,0
9984,54054,19840,0,0,0
9951,54020,19786,0,0,0
9925,53989,19740,0,0,0
9906,53966,19704,0,0,0
9891,53949,19675,0,0,0
9877,53934,19655,0,0,0
9871,53924,19650,0,0,0
9875,53923,19658,0,0,0
9884,53926,19668,0,0,0
9893,53928,19678,0,0,0
9907,53932,19692,0,0,0
9919,53937,19704,0,0,0
9921,53939,19710,0,0,0
9913,53937,19708,0,0,0
9905,53931,19702,0,0,0
9897,53923,19688,0,0,0
9882,53908,19663,0,0,0
9860,53887,19633,0,0,0
9833,53864,19601,0,0,0
9800,53839,19560,0,0,0
9758,53807,19503,0,0,0
9707,53764,19436,0,0,0
9655,53716,19363,0,0,0
9606,53668,19282,0,0,0
9556,53618,19195,0,0,0
9503,53563,19108,0,0,0
9449,53505,19016,0,0,0
9391,53446,18913,0,0,0
9323,53379,18798,0,0,0
9248,53306,18676,0,0,0
9172,53232,18549,0,0,0
9094,53154,18413,0,0,0
9010,53069,18269,0,0,0
8925,52982,18122,0,0,0
8839,52897,17973,0,0,0
8749,52814,17818,0,0,0
8654,52732,17657,0,0,0
8560,52651,17499,0,0,0
8473,52574,17349,0,0,0
8389,52502,17203,0,0,0
8304,52431,17059,0,0,0
8218,52363,16924,0,0,0
8134,52301,16800,0,0,0
8050,52240,16680,0,0,0
7964,52172,16560,0,0,0
7884,52106,16449,0,0,0
7814,52046,16347,0,0,0
7747,51990,16247,0,0,0
7682,51934,16147,0,0,0
7626,51884,16059,0,0,0
7583,51843,15986,0,0,0
7547,51807,15921,0,0,0
7513,51773,15859,0,0,0
7481,51741,15801,0,0,0
7454,51716,15749,0,0,0
7429,51695,15700,0,0,0
7405,51675,15650,0,0,0
7382,51657,15605,0,0,0
7362,51644,15566,0,0,0
7342,51630,15532,0,0,0
7324,51612,15502,0,0,0
7312,51597,15477,0,0,0
7307,51592,15456,0,0,0
7301,51591,15436,0,0,0
7292,51586,15418,0,0,0
7285,51579,15402,0,0,0
7283,51575,15384,0,0,0
7281,51571,15358,0,0,0
7270,51559,15328,0,0,0
7250,51544,15296,0,0,0
7221,51524,15256,0,0,0
7179,51495,15202,0,0,0
7129,51457,15137,0,0,0
7076,51417,15065,0,0,0
7019,51372,14984,0,0,0
6955,51320,14891,0,0,0
6887,51266,14794,0,0,0
6817,51210,14694,0,0,0
6745,51151,14587,0,0,0
6668,51086,14473,0,0,0
6591,51018,14361,0,0,0
6519,50951,14248,0,0,0
6449,50885,14129,0,0,0
6378,50816,14005,0,0,0
6312,50748,13883,0,0,0
6249,50682,13765,0,0,0
6179,50613,13642,0,0,0
6099,50537,13513,0,0,0
6017,50462,13382,0,0,0
5934,50394,13250,0,0,0
5847,50323,13114,0,0,0
5752,50246,12972,0,0,0
5654,50166,12828,0,0,0
5554,50086,12679,0,0,0
5449,50002,12524,0,0,0
5340,49911,12362,0,0,0
5231,49818,12200,0,0,0
5122,49726,12037,0,0,0
5010,49635,11866,0,0,0
4896,49540,11693,0,0,0
4784,49445,11522,0,0,0
4672,49352,11351,0,0,0
4559,49258,11174,0,0,0
4444,49160,10995,0,0,0
4333,49060,10820,0,0,0
4229,48966,10651,0,0,0
4128,48875,10485,0,0,0
4025,48783,10321,0,0,0
3927,48693,10164,0,0,0
3833,48612,10015,0,0,0
3739,48532,9869,0,0,0
3645,48449,9723,0,0,0
3558,48368,9580,0,0,0
3482,48294,9443,0,0,0
3411,48220,9309,0,0,0
3340,48147,9181,0,0,0
3273,48080,9061,0,0,0
3210,48021,8946,0,0,0
3147,47968,8834,0,0,0
3085,47918,8730,0,0,0
3028,47872,8637,0,0,0
2978,47831,8551,0,0,0
2935,47798,8483,0,0,0
2908,47784,8458,0,0,0
2911,47802,8492,0,0,0
2954,47861,8594,0,0,0
3042,47967,8785,0,0,0
3185,48130,9087,0,0,0
3392,48351,9504,0,0,0
3664,48623,10032,0,0,0
3997,48945,10663,0,0,0
4392,49315,11386,0,0,0
4840,49731,12184,0,0,0
5327,50178,13036,0,0,0
5834,50636,13917,0,0,0
6346,51093,14795,0,0,0
6850,51538,15633,0,0,0
7324,51955,16405,0,0,0
7753,52333,17097,0,0,0
8132,52667,17704,0,0,0
8458,52955,18221,0,0,0
8724,53194,18640,0,0,0
8929,53376,18961,0,0,0
9076,53506,19192,0,0,0
9170,53589,19337,0,0,0
9213,53624,19401,0,0,0
9211,53616,19396,0,0,0
9178,53577,19343,0,0,0
9121,53515,19252,0,0,0
9046,53434,19131,0,0,0
8958,53339,18989,0,0,0
8863,53244,18843,0,0,0
8771,53155,18699,0,0,0
8685,53071,18558,0,0,0
8608,52998,18429,0,0,0
8549,52941,18320,0,0,0
8510,52902,18233,0,0,0
8487,52877,18173,0,0,0
8480,52866,18145,0,0,0
8493,52874,18149,0,0,0
8524,52900,18180,0,0,0
8566,52937,18232,0,0,0
8617,52981,18300,0,0,0
8680,53034,18380,0,0,0
8750,53092,18465,0,0,0
8816,53143,18546,0,0,0
8873,53187,18624,0,0,0
8923,53227,18697,0,0,0
8961,53258,18754,0,0,0
8984,53276,18793,0,0,0
8995,53285,18817,0,0,0
8999,53291,18825,0,0,0
8996,53290,18813,0,0,0
8980,53275,18780,0,0,0
8950,53248,18728,0,0,0
8913,53212,18660,0,0,0
8868,53168,18577,0,0,0
8815,53114,18484,0,0,0
8761,53058,18395,0,0,0
8712,53009,18314,0,0,0
8665,52964,18236,0,0,0
8622,52923,18165,0,0,0
8590,52892,18108,0,0,0
8571,52870,18062,0,0,0
8558,52850,18019,0,0,0
8544,52834,17982,0,0,0
8534,52825,17955,0,0,0
8531,52822,17931,0,0,0
8527,52818,17910,0,0,0
8522,52811,17898,0,0,0
8519,52807,17895,0,0,0
8520,52808,17892,0,0,0
8523,52812,17886,0,0,0
8527,52817,17885,0,0,0
8537,52826,17894,0,0,0
8551,52839,17909,0,0,0
8563,52851,17925,0,0,0
8573,52860,17943,0,0,0
8587,52871,17962,0,0,0
8601,52882,17972,0,0,0
8612,52887,17970,0,0,0
8621,52887,17964,0,0,0
8631,52891,17958,0,0,0
8637,52899,17943,0,0,0
8632,52900,17915,0,0,0
8621,52895,17878,0,0,0
8606,52885,17835,0,0,0
8581,52866,17780,0,0,0
8541,52831,17708,0,0,0
8492,52783,17626,0,0,0
8436,52732,17536,0,0,0
8370,52676,17432,0,0,0
8290,52609,17312,0,0,0
8202,52536,17183,0,0,0
8117,52463,17050,0,0,0
8031,52387,16911,0,0,0
7939,52305,16769,0,0,0
7847,52222,16631,0,0,0
7760,52147,16501,0,0,0
7677,52075,16372,0,0,0
7597,52003,16244,0,0,0
7527,51935,16121,0,0,0
7466,51875,16007,0,0,0
7409,51824,15904,0,0,0
7355,51776,15810,0,0,0
7306,51731,15727,0,0,0
7266,51695,15656,0,0,0
7233,51663,15598,0,0,0
7206,51634,15547,0,0,0
7187,51611,15502,0,0,0
7177,51598,15462,0,0,0
7166,51586,15423,0,0,0
7146,51567,15385,0,0,0
7121,51540,15346,0,0,0
7096,51512,15303,0,0,0
7065,51482,15253,0,0,0
7025,51445,15199,0,0,0
6980,51405,15143,0,0,0
6935,51364,15082,0,0,0
6887,51322,15011,0,0,0
6839,51282,14939,0,0,0
6797,51249,14874,0,0,0
6759,51223,14810,0,0,0
6718,51194,14746,0,0,0
6676,51161,14686,0,0,0
6640,51131,14634,0,0,0
6610,51104,14585,0,0,0
6583,51078,14537,0,0,0
6560,51052,14493,0,0,0
6544,51032,14454,0,0,0
6535,51015,14415,0,0,0
6525,50999,14372,0,0,0
6512,50983,14328,0,0,0
6495,50970,14286,0,0,0
6473,50956,14243,0,0,0
6444,50934,14196,0,0,0
6410,50908,14149,0,0,0
6375,50883,14105,0,0,0
6337,50857,14054,0,0,0
6296,50825,13991,0,0,0
6253,50788,13918,0,0,0
6213,50750,13837,0,0,0
6173,50711,13749,0,0,0
6132,50667,13661,0,0,0
6092,50622,13579,0,0,0
6050,50581,13502,0,0,0
6004,50542,13424,0,0,0
5953,50500,13348,0,0,0
5907,50460,13280,0,0,0
5870,50427,13221,0,0,0
5837,50398,13165,0,0,0
5808,50374,13113,0,0,0
5785,50359,13070,0,0,0
5767,50350,13030,0,0,0
5750,50340,12991,0,0,0
5730,50325,12954,0,0,0
5711,50310,12919,0,0,0
5691,50293,12878,0,0,0
5663,50267,12826,0,0,0
5628,50233,12768,0,0,0
5590,50198,12708,0,0,0
5550,50164,12643,0,0,0
5505,50126,12572,0,0,0
5460,50082,12499,0,0,0
5416,50035,12426,0,0,0
5370,49989,12345,0,0,0
5322,49945,12260,0,0,0
5276,49905,12177,0,0,0
5235,49872,12098,0,0,0
5197,49842,12021,0,0,0
5158,49807,11944,0,0,0
5119,49773,11871,0,0,0
5081,49745,11803,0,0,0
5045,49716,11737,0,0,0
5011,49687,11674,0,0,0
4984,49660,11619,0,0,0
4963,49640,11576,0,0,0
4942,49625,11537,0,0,0
4920,49608,11499,0,0,0
4907,49595,11470,0,0,0
4908,49593,11462,0,0,0
4923,49606,11483,0,0,0
4954,49640,11549,0,0,0
5018,49708,11680,0,0,0
5130,49823,11889,0,0,0
5294,49987,12184,0,0,0
5516,50201,12576,0,0,0
5799,50470,13076,0,0,0
6145,50795,13681,0,0,0
6539,51165,14370,0,0,0
6970,51562,15115,0,0,0
7428,51977,15889,0,0,0
7901,52401,16671,0,0,0
8369,52819,17438,0,0,0
8815,53213,18165,0,0,0
9226,53573,18833,0,0,0
9593,53893,19426,0,0,0
9912,54166,19932,0,0,0
10179,54386,20348,0,0,0
10391,54561,20676,0,0,0
10547,54698,20926,0,0,0
10653,54794,21103,0,0,0
10719,54852,21213,0,0,0
10756,54885,21270,0,0,0
10773,54900,21291,0,0,0
10774,54892,21281,0,0,0
10761,54862,21244,0,0,0
10740,54824,21189,0,0,0
10715,54782,21124,0,0,0
10685,54735,21051,0,0,0
10649,54687,20974,0,0,0
10612,54646,20902,0,0,0
10574,54611,20834,0,0,0
10536,54578,20768,0,0,0
10500,54547,20710,0,0,0
10474,54524,20668,0,0,0
10456,54508,20639,0,0,0
10444,54495,20618,0,0,0
10441,54487,20607,0,0,0
10448,54487,20611,0,0,0
10459,54491,20623,0,0,0
10467,54495,20641,0,0,0
10479,54506,20672,0,0,0
10501,54527,20715,0,0,0
10527,54553,20763,0,0,0
10551,54576,20810,0,0,0
10575,54599,20860,0,0,0
10602,54626,20909,0,0,0
10627,54650,20952,0,0,0
10650,54666,20983,0,0,0
10671,54676,21005,0,0,0
10687,54683,21017,0,0,0
10691,54682,21012,0,0,0
10679,54667,20982,0,0,0
10657,54642,20932,0,0,0
10628,54613,20874,0,0,0
10590,54579,20810,0,0,0
10549,54543,20741,0,0,0
10511,54510,20676,0,0,0
10475,54479,20616,0,0,0
10442,54452,20562,0,0,0
10417,54429,20512,0,0,0
10402,54413,20476,0,0,0
10400,54407,20459,0,0,0
10403,54406,20456,0,0,0
10411,54408,20463,0,0,0
10426,54416,20484,0,0,0
10443,54429,20515,0,0,0
10456,54440,20542,0,0,0
10461,54444,20558,0,0,0
10465,54445,20568,0,0,0
10471,54445,20578,0,0,0
10478,54442,20580,0,0,0
10483,54440,20576,0,0,0
10487,54443,20572,0,0,0
10489,54446,20565,0,0,0
10483,54446,20553,0,0,0
10475,54442,20537,0,0,0
10470,54440,20519,0,0,0
10467,54437,20501,0,0,0
10462,54429,20477,0,0,0
10456,54420,20449,0,0,0
10452,54412,20425,0,0,0
10447,54402,20401,0,0,0
10437,54390,20370,0,0,0
10427,54378,20336,0,0,0
10417,54366,20304,0,0,0
10402,54351,20268,0,0,0
10378,54328,20225,0,0,0
10347,54298,20177,0,0,0
10311,54268,20128,0,0,0
10270,54236,20070,0,0,0
10221,54197,20001,0,0,0
10169,54154,19928,0,0,0
10121,54111,19857,0,0,0
10077,54070,19787,0,0,0
10033,54028,19714,0,0,0
9988,53988,19640,0,0,0
9946,53951,19571,0,0,0
9906,53915,19507,0,0,0
9871,53883,19450,0,0,0
9846,53861,19404,0,0,0
9831,53849,19368,0,0,0
9820,53843,19340,0,0,0
9819,53840,19324,0,0,0
9831,53844,19320,0,0,0
9850,53856,19322,0,0,0
9867,53869,19327,0,0,0
9885,53884,19340,0,0,0
9912,53904,19363,0,0,0
9947,53929,19387,0,0,0
9979,53953,19409,0,0,0
10006,53976,19438,0,0,0
10036,54002,19474,0,0,0
10071,54033,19509,0,0,0
10104,54062,19537,0,0,0
10137,54087,19561,0,0,0
10174,54111,19588,0,0,0
10209,54137,19613,0,0,0
10241,54160,19633,0,0,0
10273,54183,19656,0,0,0
10308,54212,19691,0,0,0
10344,54247,19730,0,0,0
10381,54283,19770,0,0,0
10424,54323,19818,0,0,0
10477,54373,19876,0,0,0
10532,54429,19939,0,0,0
10583,54479,20000,0,0,0
10637,54528,20057,0,0,0
10697,54580,20119,0,0,0
10755,54630,20179,0,0,0
10801,54671,20230,0,0,0
10841,54705,20274,0,0,0
10877,54735,20316,0,0,0
10908,54757,20354,0,0,0
10933,54768,20382,0,0,0
10954,54777,20399,0,0,0
10971,54787,20409,0,0,0
10981,54795,20414,0,0,0
10986,54796,20412,0,0,0
10985,54794,20406,0,0,0
10979,54790,20396,0,0,0
10968,54784,20379,0,0,0
10953,54775,20358,0,0,0
10939,54766,20335,0,0,0
10925,54753,20313,0,0,0
10908,54738,20290,0,0,0
10888,54720,20266,0,0,0
10872,54703,20240,0,0,0
10853,54685,20211,0,0,0
10825,54661,20173,0,0,0
10788,54629,20123,0,0,0
10749,54595,20072,0,0,0
10710,54561,20023,0,0,0
10666,54524,19968,0,0,0
10615,54481,19904,0,0,0
10563,54435,19837,0,0,0
10512,54388,19770,0,0,0
10457,54337,19699,0,0,0
10396,54281,19622,0,0,0
10330,54224,19539,0,0,0
10261,54168,19451,0,0,0
10185,54108,19356,0,0,0
10106,54043,19252,0,0,0
10029,53975,19148,0,0,0
9952,53911,19045,0,0,0
9869,53845,18941,0,0,0
9782,53777,18838,0,0,0
9696,53710,18734,0,0,0
9611,53642,18622,0,0,0
9523,53572,18500,0,0,0
9432,53495,18372,0,0,0
9340,53415,18240,0,0,0
9243,53329,18096,0,0,0
9137,53236,17938,0,0,0
9022,53139,17772,0,0,0
8906,53043,17600,0,0,0
8789,52949,17423,0,0,0
8670,52852,17246,0,0,0
8553,52759,17076,0,0,0
8443,52674,16917,0,0,0
8342,52594,16770,0,0,0
8251,52520,16643,0,0,0
8179,52466,16550,0,0,0
8136,52439,16505,0,0,0
8128,52444,16519,0,0,0
8165,52488,16613,0,0,0
8264,52587,16807,0,0,0
8437,52748,17103,0,0,0
8677,52969,17502,0,0,0
8975,53241,17994,0,0,0
9323,53559,18559,0,0,0
9700,53907,19162,0,0,0
10084,54261,19771,0,0,0
10459,54603,20368,0,0,0
10823,54929,20935,0,0,0
11168,55238,21464,0,0,0
11483,55521,21946,0,0,0
11763,55772,22379,0,0,0
12017,55996,22767,0,0,0
12244,56193,23111,0,0,0
12440,56361,23405,0,0,0
12609,56502,23651,0,0,0
12758,56620,23856,0,0,0
12882,56714,24021,0,0,0
12985,56786,24148,0,0,0
13067,56840,24246,0,0,0
13131,56881,24322,0,0,0
13175,56906,24374,0,0,0
13197,56914,24402,0,0,0
13206,56913,24416,0,0,0
13213,56908,24423,0,0,0
13217,56897,24422,0,0,0
13217,56879,24409,0,0,0
13215,56859,24393,0,0,0
13217,56848,24384,0,0,0
13220,56847,24378,0,0,0
13222,56844,24373,0,0,0
13230,56842,24372,0,0,0
13245,56846,24384,0,0,0
13260,56855,24405,0,0,0
13273,56862,24426,0,0,0
13292,56870,24451,0,0,0
13322,56884,24486,0,0,0
13357,56906,24527,0,0,0
13392,56932,24572,0,0,0
13431,56963,24624,0,0,0
13472,56998,24685,0,0,0
13515,57031,24752,0,0,0
13559,57055,24819,0,0,0
13602,57078,24880,0,0,0
13642,57104,24933,0,0,0
13675,57129,24977,0,0,0
13700,57148,25014,0,0,0
13720,57166,25049,0,0,0
13738,57184,25080,0,0,0
13747,57196,25097,0,0,0
13749,57198,25101,0,0,0
13754,57197,25099,0,0,0
13763,57199,25094,0,0,0
13770,57198,25085,0,0,0
13777,57196,25076,0,0,0
13786,57198,25071,0,0,0
13795,57202,25070,0,0,0
13803,57204,25067,0,0,0
13811,57206,25062,0,0,0
13818,57206,25053,0,0,0
13818,57198,25037,0,0,0
13803,57177,25009,0,0,0
13777,57145,24972,0,0,0
13746,57109,24938,0,0,0
13711,57069,24905,0,0,0
13672,57023,24868,0,0,0
13634,56976,24827,0,0,0
13603,56936,24789,0,0,0
13576,56902,24752,0,0,0
13548,56868,24712,0,0,0
13523,56836,24673,0,0,0
13504,56810,24640,0,0,0
13487,56792,24610,0,0,0
13471,56778,24578,0,0,0
13462,56770,24551,0,0,0
13459,56769,24530,0,0,0
13455,56768,24512,0,0,0
13447,56761,24493,0,0,0
13441,56751,24473,0,0,0
13437,56742,24451,0,0,0
13427,56730,24421,0,0,0
13403,56709,24380,0,0,0
13372,56677,24332,0,0,0
13335,56635,24272,0,0,0
13282,56576,24189,0,0,0
13213,56505,24084,0,0,0
13139,56432,23973,0,0,0
13060,56359,23862,0,0,0
12975,56281,23748,0,0,0
12885,56204,23629,0,0,0
12798,56130,23511,0,0,0
12714,56056,23396,0,0,0
12634,55982,23282,0,0,0
12559,55907,23171,0,0,0
12495,55839,23068,0,0,0
12441,55782,22972,0,0,0
12392,55731,22883,0,0,0
12350,55687,22802,0,0,0
12320,55654,22735,0,0,0
12300,55630,22682,0,0,0
12284,55608,22638,0,0,0
12272,55588,22604,0,0,0
12269,55577,22579,0,0,0
12271,55579,22557,0,0,0
12271,55586,22534,0,0,0
12271,55594,22512,0,0,0
12272,55600,22494,0,0,0
12266,55600,22475,0,0,0
12255,55590,22451,0,0,0
12245,55573,22425,0,0,0
12235,55556,22402,0,0,0
12222,55539,22376,0,0,0
12204,55520,22345,0,0,0
12188,55502,22315,0,0,0
12179,55492,22293,0,0,0
12174,55489,22276,0,0,0
12171,55490,22261,0,0,0
12177,55498,22255,0,0,0
12194,55513,22259,0,0,0
12217,55529,22268,0,0,0
12242,55546,22281,0,0,0
12272,55571,22300,0,0,0
12305,55602,22325,0,0,0
12339,55632,22350,0,0,0
12372,55660,22372,0,0,0
12414,55692,22400,0,0,0
12465,55730,22434,0,0,0
12517,55768,22469,0,0,0
12568,55802,22497,0,0,0
12617,55832,22521,0,0,0
12658,55861,22543,0,0,0
12689,55883,22556,0,0,0
12714,55896,22561,0,0,0
12739,55908,22565,0,0,0
12760,55921,22570,0,0,0
12772,55928,22572,0,0,0
12774,55928,22563,0,0,0
12769,55921,22550,0,0,0
12758,55907,22532,0,0,0
12741,55885,22505,0,0,0
12720,55859,22472,0,0,0
12697,55835,22445,0,0,0
12674,55812,22420,0,0,0
12652,55792,22390,0,0,0
12634,55774,22355,0,0,0
12619,55762,22323,0,0,0
12606,55753,22293,0,0,0
12591,55745,22263,0,0,0
12576,55735,22233,0,0,0
12562,55726,22203,0,0,0
12546,55711,22170,0,0,0
12523,55690,22130,0,0,0
12498,55666,22089,0,0,0
12475,55645,22051,0,0,0
12450,55621,22012,0,0,0
12418,55589,21963,0,0,0
12379,55550,21907,0,0,0
12339,55510,21850,0,0,0
12293,55465,21790,0,0,0
12241,55407,21719,0,0,0
12185,55341,21641,0,0,0
12128,55275,21559,0,0,0
12066,55211,21470,0,0,0
11997,55146,21372,0,0,0
11924,55081,21268,0,0,0
11849,55018,21168,0,0,0
11775,54959,21069,0,0,0
11705,54900,20968,0,0,0
11645,54845,20870,0,0,0
11592,54796,20779,0,0,0
11537,54748,20692,0,0,0
11482,54698,20608,0,0,0
11433,54653,20532,0,0,0
11390,54616,20468,0,0,0
11351,54585,20411,0,0,0
11318,54558,20360,0,0,0
11293,54538,20320,0,0,0
11279,54530,20296,0,0,0
11278,54535,20286,0,0,0
11293,54553,20297,0,0,0
11333,54590,20342,0,0,0
11398,54651,20429,0,0,0
11490,54735,20563,0,0,0
11608,54843,20746,0,0,0
11758,54979,20977,0,0,0
11938,55140,21252,0,0,0
12137,55317,21558,0,0,0
12349,55505,21887,0,0,0
12573,55705,22236,0,0,0
12803,55914,22598,0,0,0
13036,56121,22961,0,0,0
13267,56323,23319,0,0,0
13495,56521,23672,0,0,0
13713,56711,24012,0,0,0
13917,56889,24332,0,0,0
14107,57055,24634,0,0,0
14284,57212,24922,0,0,0
14439,57357,25191,0,0,0
14572,57482,25429,0,0,0
14690,57585,25634,0,0,0
14797,57673,25809,0,0,0
14890,57744,25949,0,0,0
14966,57795,26057,0,0,0
15031,57832,26139,0,0,0
15086,57862,26201,0,0,0
15128,57882,26242,0,0,0
15153,57889,26260,0,0,0
15167,57888,26260,0,0,0
15178,57885,26249,0,0,0
15182,57876,26231,0,0,0
15180,57859,26205,0,0,0
15175,57842,26175,0,0,0
15170,57828,26147,0,0,0
15165,57814,26121,0,0,0
15158,57801,26096,0,0,0
15156,57795,26081,0,0,0
15161,57800,26083,0,0,0
15171,57808,26095,0,0,0
15182,57814,26112,0,0,0
15197,57824,26138,0,0,0
15217,57840,26178,0,0,0
15237,57859,26224,0,0,0
15259,57879,26268,0,0,0
15288,57904,26312,0,0,0
15320,57932,26355,0,0,0
15347,57956,26392,0,0,0
15367,57971,26419,0,0,0
15386,57982,26439,0,0,0
15398,57989,26451,0,0,0
15400,57989,26449,0,0,0
15393,57980,26435,0,0,0
15386,57965,26415,0,0,0
15374,57947,26392,0,0,0
15352,57921,26360,0,0,0
15325,57893,26321,0,0,0
15301,57868,26285,0,0,0
15282,57843,26250,0,0,0
15267,57815,26214,0,0,0
15256,57788,26184,0,0,0
15250,57767,26166,0,0,0
15245,57752,26149,0,0,0
15240,57744,26128,0,0,0
15238,57747,26112,0,0,0
15244,57759,26106,0,0,0
15257,57773,26105,0,0,0
15267,57780,26100,0,0,0
15275,57781,26093,0,0,0
15281,57779,26089,0,0,0
15279,57768,26081,0,0,0
15270,57750,26068,0,0,0
15259,57735,26055,0,0,0
15250,57723,26044,0,0,0
15235,57709,26032,0,0,0
15213,57690,26016,0,0,0
15193,57674,26001,0,0,0
15176,57662,25987,0,0,0
15160,57652,25969,0,0,0
15143,57647,25945,0,0,0
15130,57647,25923,0,0,0
15121,57647,25901,0,0,0
15109,57639,25871,0,0,0
15092,57622,25838,0,0,0
15074,57606,25808,0,0,0
15055,57588,25779,0,0,0
15031,57561,25741,0,0,0
14999,57525,25695,0,0,0
14965,57484,25642,0,0,0
14929,57437,25581,0,0,0
14885,57382,25510,0,0,0
14834,57321,25434,0,0,0
14781,57260,25358,0,0,0
14724,57199,25280,0,0,0
14661,57136,25193,0,0,0
14599,57076,25102,0,0,0
14542,57026,25017,0,0,0
14488,56984,24938,0,0,0
14437,56945,24860,0,0,0
14390,56910,24784,0,0,0
14348,56881,24716,0,0,0
14307,56853,24651,0,0,0
14267,56824,24589,0,0,0
14235,56801,24533,0,0,0
14213,56790,24492,0,0,0
14199,56783,24462,0,0,0
14185,56770,24438,0,0,0
14177,56756,24415,0,0,0
14176,56747,24399,0,0,0
14174,56744,24385,0,0,0
14167,56741,24367,0,0,0
14158,56737,24347,0,0,0
14152,56736,24332,0,0,0
14143,56736,24319,0,0,0
14131,56734,24304,0,0,0
14125,56735,24288,0,0,0
14123,56739,24276,0,0,0
14116,56737,24262,0,0,0
14105,56728,24242,0,0,0
14096,56716,24217,0,0,0
14092,56703,24196,0,0,0
14094,56690,24181,0,0,0
14097,56676,24168,0,0,0
14101,56669,24160,0,0,0
14105,56667,24158,0,0,0
14103,56666,24153,0,0,0
14098,56664,24142,0,0,0
14097,56663,24130,0,0,0
14102,56665,24124,0,0,0
14107,56666,24117,0,0,0
14111,56667,24105,0,0,0
14119,56672,24094,0,0,0
14132,56682,24086,0,0,0
14148,56690,24080,0,0,0
14159,56691,24073,0,0,0
14166,56688,24067,0,0,0
14172,56686,24062,0,0,0
14171,56683,24054,0,0,0
14165,56677,24040,0,0,0
14159,56672,24025,0,0,0
14151,56664,24010,0,0,0
14140,56651,23988,0,0,0
14122,56634,23959,0,0,0
14103,56617,23927,0,0,0
14082,56599,23892,0,0,0
14056,56575,23848,0,0,0
14025,56547,23797,0,0,0
13993,56520,23747,0,0,0
13959,56492,23699,0,0,0
13919,56458,23646,0,0,0
13879,56421,23593,0,0,0
13840,56387,23541,0,0,0
13798,56352,23485,0,0,0
13752,56312,23424,0,0,0
13707,56272,23360,0,0,0
13668,56235,23296,0,0,0
13629,56199,23229,0,0,0
13585,56160,23159,0,0,0
13540,56120,23089,0,0,0
13498,56085,23024,0,0,0
13456,56047,22959,0,0,0
13409,56005,22890,0,0,0
13365,55964,22822,0,0,0
13326,55927,22760,0,0,0
13288,55894,22699,0,0,0
13250,55862,22636,0,0,0
13218,55834,22580,0,0,0
13191,55815,22534,0,0,0
13166,55801,22495,0,0,0
13148,55794,22464,0,0,0
13147,55801,22458,0,0,0
13169,55828,22490,0,0,0
13213,55874,22561,0,0,0
13286,55942,22676,0,0,0
13394,56040,22846,0,0,0
13534,56166,23068,0,0,0
13695,56308,23327,0,0,0
13875,56466,23612,0,0,0
14073,56642,23922,0,0,0
14284,56833,24250,0,0,0
14500,57026,24583,0,0,0
14717,57218,24912,0,0,0
14932,57411,25240,0,0,0
15139,57599,25564,0,0,0
15333,57773,25871,0,0,0
15513,57932,26159,0,0,0
15681,58081,26428,0,0,0
15835,58214,26670,0,0,0
15972,58327,26881,0,0,0
16092,58422,27064,0,0,0
16195,58503,27222,0,0,0
16278,58568,27351,0,0,0
16341,58614,27449,0,0,0
16393,58653,27521,0,0,0
16440,58687,27575,0,0,0
16478,58712,27611,0,0,0
16510,58725,27633,0,0,0
16538,58731,27646,0,0,0
16565,58738,27655,0,0,0
16588,58744,27659,0,0,0
16607,58749,27659,0,0,0
16627,58758,27663,0,0,0
16650,58774,27673,0,0,0
16672,58788,27685,0,0,0
16695,58797,27693,0,0,0
16719,58805,27702,0,0,0
16744,58817,27719,0,0,0
16764,58831,27743,0,0,0
16782,58848,27767,0,0,0
16798,58867,27791,0,0,0
16811,58883,27815,0,0,0
16821,58889,27836,0,0,0
16831,58888,27855,0,0,0
16849,58895,27877,0,0,0
16870,58911,27903,0,0,0
16888,58930,27927,0,0,0
16904,58946,27951,0,0,0
16920,58960,27976,0,0,0
16933,58972,27997,0,0,0
16943,58975,28009,0,0,0
16948,58968,28011,0,0,0
16948,58960,28003,0,0,0
16942,58949,27987,0,0,0
16928,58929,27962,0,0,0
16908,58905,27929,0,0,0
16888,58884,27892,0,0,0
16868,58864,27852,0,0,0
16844,58839,27809,0,0,0
16816,58811,27764,0,0,0
16787,58786,27724,0,0,0
16759,58761,27693,0,0,0
16732,58734,27667,0,0,0
16714,58711,27646,0,0,0
16709,58697,27632,0,0,0
16710,58690,27619,0,0,0
16712,58684,27606,0,0,0
16717,58682,27595,0,0,0
16728,58691,27593,0,0,0
16736,58707,27602,0,0,0
16740,58722,27615,0,0,0
16746,58737,27630,0,0,0
16758,58753,27645,0,0,0
16770,58766,27655,0,0,0
16778,58773,27654,0,0,0
16785,58774,27647,0,0,0
16791,58774,27640,0,0,0
16790,58772,27633,0,0,0
16777,58761,27616,0,0,0
16759,58743,27590,0,0,0
16738,58722,27561,0,0,0
16712,58695,27527,0,0,0
16681,58661,27483,0,0,0
16648,58626,27436,0,0,0
16614,58594,27388,0,0,0
16576,58559,27333,0,0,0
16535,58517,27272,0,0,0
16498,58478,27211,0,0,0
16464,58446,27153,0,0,0
16428,58413,27094,0,0,0
16392,58382,27035,0,0,0
16360,58360,26983,0,0,0
16335,58347,26940,0,0,0
16312,58335,26898,0,0,0
16288,58318,26856,0,0,0
16263,58299,26817,0,0,0
16237,58279,26777,0,0,0
16207,58254,26731,0,0,0
16175,58221,26682,0,0,0
16143,58183,26632,0,0,0
16107,58144,26582,0,0,0
16065,58106,26529,0,0,0
16022,58076,26476,0,0,0
15987,58051,26426,0,0,0
15960,58026,26378,0,0,0
15934,58000,26331,0,0,0
15908,57979,26288,0,0,0
15887,57965,26252,0,0,0
15873,57954,26221,0,0,0
15859,57938,26188,0,0,0
15846,57919,26155,0,0,0
15835,57903,26127,0,0,0
15824,57890,26100,0,0,0
15812,57874,26068,0,0,0
15801,57857,26034,0,0,0
15789,57842,26007,0,0,0
15775,57830,25982,0,0,0
15760,57817,25952,0,0,0
15746,57800,25921,0,0,0
15732,57783,25893,0,0,0
15713,57762,25866,0,0,0
15687,57736,25836,0,0,0
15659,57709,25805,0,0,0
15632,57685,25776,0,0,0
15604,57662,25746,0,0,0
15576,57638,25709,0,0,0
15552,57617,25670,0,0,0
15533,57605,25632,0,0,0
15514,57593,25595,0,0,0
15489,57579,25558,0,0,0
15462,57565,25527,0,0,0
15433,57550,25501,0,0,0
15400,57529,25473,0,0,0
15363,57503,25437,0,0,0
15327,57478,25397,0,0,0
15294,57453,25353,0,0,0
15259,57423,25305,0,0,0
15228,57392,25262,0,0,0
15199,57367,25227,0,0,0
15171,57348,25199,0,0,0
15144,57327,25170,0,0,0
15118,57303,25135,0,0,0
15094,57281,25099,0,0,0
15068,57260,25058,0,0,0
15037,57234,25009,0,0,0
15003,57204,24955,0,0,0
14971,57174,24903,0,0,0
14935,57143,24851,0,0,0
14894,57106,24791,0,0,0
14855,57066,24725,0,0,0
14819,57027,24659,0,0,0
14781,56985,24592,0,0,0
14736,56939,24527,0,0,0
14693,56898,24466,0,0,0
14654,56868,24413,0,0,0
14619,56847,24362,0,0,0
14586,56827,24310,0,0,0
14556,56807,24256,0,0,0
14528,56788,24200,0,0,0
14494,56763,24139,0,0,0
14454,56729,24073,0,0,0
14413,56693,24008,0,0,0
14371,56659,23945,0,0,0
14324,56617,23880,0,0,0
14277,56573,23813,0,0,0
14236,56534,23753,0,0,0
14197,56497,23701,0,0,0
14155,56457,23648,0,0,0
14113,56419,23595,0,0,0
14075,56387,23546,0,0,0
14041,56363,23502,0,0,0
14010,56341,23458,0,0,0
13984,56323,23418,0,0,0
13975,56319,23400,0,0,0
13990,56333,23414,0,0,0
14023,56366,23460,0,0,0
14077,56420,23545,0,0,0
14165,56506,23678,0,0,0
14287,56621,23858,0,0,0
14429,56757,24082,0,0,0
14591,56912,24344,0,0,0
14774,57084,24639,0,0,0
14966,57263,24957,0,0,0
15160,57440,25288,0,0,0
15356,57617,25625,0,0,0
15557,57797,25968,0,0,0
15754,57976,26305,0,0,0
15945,58148,26627,0,0,0
16133,58311,26930,0,0,0
16318,58468,27216,0,0,0
16490,58613,27478,0,0,0
16642,58740,27711,0,0,0
16776,58853,27915,0,0,0
16899,58955,28098,0,0,0
17006,59045,28256,0,0,0
17091,59115,28380,0,0,0
17154,59165,28477,0,0,0
17204,59202,28549,0,0,0
17238,59226,28593,0,0,0
17254,59234,28608,0,0,0
17258,59230,28600,0,0,0
17257,59218,28578,0,0,0
17245,59201,28545,0,0,0
17223,59182,28502,0,0,0
17202,59165,28459,0,0,0
17185,59149,28423,0,0,0
17164,59130,28389,0,0,0
17136,59105,28353,0,0,0
17105,59078,28318,0,0,0
17078,59052,28290,0,0,0
17054,59027,28266,0,0,0
17028,59000,28242,0,0,0
16999,58973,28221,0,0,0
16974,58951,28204,0,0,0
16952,58929,28185,0,0,0
16933,58906,28164,0,0,0
16920,58887,28151,0,0,0
16911,58875,28147,0,0,0
16903,58865,28142,0,0,0
16890,58849,28134,0,0,0
16878,58830,28128,0,0,0
16868,58812,28121,0,0,0
16852,58792,28106,0,0,0
16830,58769,28083,0,0,0
16807,58747,28054,0,0,0
16782,58724,28019,0,0,0
16755,58698,27974,0,0,0
16728,58669,27923,0,0,0
16700,58641,27875,0,0,0
16666,58616,27828,0,0,0
16625,58589,27776,0,0,0
16578,58558,27719,0,0,0
16535,58529,27665,0,0,0
16497,58503,27614,0,0,0
16461,58478,27563,0,0,0
16429,58453,27518,0,0,0
16403,58433,27487,0,0,0
16381,58418,27467,0,0,0
16361,58403,27453,0,0,0
16346,58393,27446,0,0,0
16341,58391,27447,0,0,0
16342,58394,27452,0,0,0
16343,58397,27453,0,0,0
16343,58398,27451,0,0,0
16351,58401,27451,0,0,0
16358,58401,27447,0,0,0
16356,58395,27435,0,0,0
16347,58384,27419,0,0,0
16336,58375,27406,0,0,0
16324,58365,27389,0,0,0
16310,58351,27365,0,0,0
16296,58339,27338,0,0,0
16285,58331,27313,0,0,0
16271,58320,27284,0,0,0
16253,58302,27249,0,0,0
16238,58281,27211,0,0,0
16229,58260,27174,0,0,0
16217,58239,27130,0,0,0
16199,58215,27075,0,0,0
16176,58189,27019,0,0,0
16148,58158,26965,0,0,0
16107,58121,26907,0,0,0
16053,58076,26842,0,0,0
15996,58029,26775,0,0,0
15941,57983,26708,0,0,0
15885,57935,26634,0,0,0
15830,57885,26553,0,0,0
15779,57839,26473,0,0,0
15730,57799,26397,0,0,0
15683,57760,26325,0,0,0
15642,57723,26260,0,0,0
15611,57694,26203,0,0,0
15586,57672,26152,0,0,0
15562,57648,26101,0,0,0
15539,57625,26053,0,0,0
15519,57608,26014,0,0,0
15502,57596,25982,0,0,0
15485,57582,25948,0,0,0
15468,57566,25914,0,0,0
15449,57555,25882,0,0,0
15426,57542,25852,0,0,0
15396,57517,25817,0,0,0
15361,57486,25776,0,0,0
15324,57457,25732,0,0,0
15282,57425,25683,0,0,0
15233,57387,25627,0,0,0
15186,57349,25568,0,0,0
15147,57317,25512,0,0,0
15105,57288,25453,0,0,0
15056,57260,25387,0,0,0
15007,57235,25321,0,0,0
14962,57215,25255,0,0,0
14919,57193,25187,0,0,0
14878,57165,25119,0,0,0
14841,57136,25057,0,0,0
14809,57108,25002,0,0,0
14777,57078,24951,0,0,0
14742,57045,24904,0,0,0
14710,57013,24862,0,0,0
14678,56984,24825,0,0,0
14642,56955,24782,0,0,0
14602,56919,24730,0,0,0
14558,56878,24672,0,0,0
14509,56835,24610,0,0,0
14451,56788,24541,0,0,0
14388,56736,24464,0,0,0
14324,56687,24380,0,0,0
14259,56641,24293,0,0,0
14186,56590,24203,0,0,0
14106,56535,24109,0,0,0
14029,56478,24012,0,0,0
13956,56420,23912,0,0,0
13882,56357,23808,0,0,0
13813,56292,23707,0,0,0
13752,56231,23617,0,0,0
13692,56176,23534,0,0,0
13628,56121,23447,0,0,0
13566,56067,23356,0,0,0
13505,56018,23266,0,0,0
13439,55970,23177,0,0,0
13369,55919,23085,0,0,0
13301,55868,22997,0,0,0
13241,55819,22916,0,0,0
13183,55772,22839,0,0,0
13123,55724,22761,0,0,0
13069,55677,22682,0,0,0
13020,55630,22603,0,0,0
12967,55581,22520,0,0,0
12912,55531,22433,0,0,0
12860,55484,22346,0,0,0
12809,55441,22265,0,0,0
12757,55397,22187,0,0,0
12705,55352,22109,0,0,0
12655,55309,22035,0,0,0
12607,55266,21960,0,0,0
12555,55219,21881,0,0,0
12501,55169,21798,0,0,0
12449,55124,21720,0,0,0
12395,55079,21643,0,0,0
12332,55029,21562,0,0,0
12262,54977,21474,0,0,0
12193,54931,21386,0,0,0
12131,54889,21301,0,0,0
12077,54845,21212,0,0,0
12029,54798,21118,0,0,0
11985,54757,21031,0,0,0
11945,54723,20958,0,0,0
11905,54688,20895,0,0,0
11872,54659,20845,0,0,0
11855,54647,20819,0,0,0
11852,54653,20821,0,0,0
11871,54678,20855,0,0,0
11923,54728,20934,0,0,0
12022,54816,21082,0,0,0
12168,54947,21311,0,0,0
12360,55121,21617,0,0,0
12596,55335,21994,0,0,0
12872,55586,22434,0,0,0
13172,55860,22912,0,0,0
13480,56142,23404,0,0,0
13789,56428,23902,0,0,0
14093,56712,24393,0,0,0
14379,56976,24858,0,0,0
14638,57214,25288,0,0,0
14878,57432,25681,0,0,0
15098,57629,26037,0,0,0
15288,57795,26346,0,0,0
15446,57928,26606,0,0,0
15581,58036,26824,0,0,0
15693,58121,27005,0,0,0
15779,58182,27149,0,0,0
15840,58220,27254,0,0,0
15884,58246,27324,0,0,0
15916,58264,27367,0,0,0
15926,58269,27382,0,0,0
15916,58259,27375,0,0,0
15897,58240,27348,0,0,0
15877,58217,27305,0,0,0
15850,58189,27252,0,0,0
15817,58154,27193,0,0,0
15787,58122,27136,0,0,0
15757,58095,27083,0,0,0
15724,58065,27028,0,0,0
15690,58033,26971,0,0,0
15659,58003,26922,0,0,0
15632,57976,26885,0,0,0
15608,57951,26857,0,0,0
15587,57928,26834,0,0,0
15574,57915,26818,0,0,0
15565,57910,26812,0,0,0
15554,57907,26811,0,0,0
15542,57905,26815,0,0,0
15539,57908,26825,0,0,0
15541,57915,26841,0,0,0
15541,57921,26854,0,0,0
15540,57929,26865,0,0,0
15541,57941,26883,0,0,0
15544,57954,26905,0,0,0
15543,57959,26918,0,0,0
15535,57953,26916,0,0,0
15518,57941,26903,0,0,0
15492,57923,26879,0,0,0
15457,57897,26843,0,0,0
15423,57868,26803,0,0,0
15395,57842,26763,0,0,0
15365,57815,26719,0,0,0
15329,57786,26668,0,0,0
15294,57760,26615,0,0,0
15261,57737,26568,0,0,0
15227,57716,26526,0,0,0
15192,57694,26485,0,0,0
15162,57674,26447,0,0,0
15139,57656,26419,0,0,0
15117,57640,26395,0,0,0
15093,57624,26369,0,0,0
15075,57612,26348,0,0,0
15066,57607,26335,0,0,0
15063,57602,26326,0,0,0
15064,57599,26317,0,0,0
15070,57600,26312,0,0,0
15079,57607,26315,0,0,0
15085,57613,26323,0,0,0
15088,57612,26326,0,0,0
15089,57607,26323,0,0,0
15085,57600,26318,0,0,0
15076,57586,26310,0,0,0
15062,57566,26297,0,0,0
15044,57545,26277,0,0,0
15018,57524,26250,0,0,0
14985,57499,26214,0,0,0
14949,57469,26167,0,0,0
14912,57438,26114,0,0,0
14873,57410,26055,0,0,0
14830,57381,25990,0,0,0
14784,57346,25917,0,0,0
14738,57312,25844,0,0,0
14694,57280,25773,0,0,0
14649,57241,25698,0,0,0
14599,57193,25612,0,0,0
14549,57146,25526,0,0,0
14501,57103,25448,0,0,0
14451,57059,25371,0,0,0
14404,57012,25295,0,0,0
14360,56968,25224,0,0,0
14319,56926,25155,0,0,0
14276,56883,25083,0,0,0
14234,56840,25008,0,0,0
14196,56800,24938,0,0,0
14159,56759,24869,0,0,0
14115,56713,24795,0,0,0
14065,56668,24722,0,0,0
14016,56630,24651,0,0,0
13964,56595,24582,0,0,0
13909,56556,24508,0,0,0
13853,56513,24435,0,0,0
13798,56473,24367,0,0,0
13744,56434,24298,0,0,0
13691,56398,24227,0,0,0
13646,56365,24163,0,0,0
13606,56336,24111,0,0,0
13566,56306,24060,0,0,0
13526,56275,24006,0,0,0
13491,56248,23953,0,0,0
13459,56223,23905,0,0,0
13424,56196,23855,0,0,0
13390,56168,23804,0,0,0
13362,56144,23760,0,0,0
13336,56121,23717,0,0,0
13302,56088,23666,0,0,0
13260,56051,23608,0,0,0
13217,56018,23557,0,0,0
13177,55991,23513,0,0,0
13134,55961,23465,0,0,0
13090,55929,23412,0,0,0
13051,55900,23362,0,0,0
13020,55878,23317,0,0,0
12993,55856,23272,0,0,0
12974,55833,23226,0,0,0
12960,55810,23185,0,0,0
12946,55788,23147,0,0,0
12926,55765,23111,0,0,0
12908,55746,23078,0,0,0
12896,55734,23049,0,0,0
12884,55724,23018,0,0,0
12864,55710,22982,0,0,0
12840,55692,22942,0,0,0
12816,55675,22906,0,0,0
12789,55657,22871,0,0,0
12755,55629,22832,0,0,0
12720,55598,22794,0,0,0
12688,55568,22757,0,0,0
12658,55539,22712,0,0,0
12629,55508,22663,0,0,0
12604,55482,22617,0,0,0
12583,55461,22572,0,0,0
12559,55441,22521,0,0,0
12531,55416,22464,0,0,0
12502,55389,22407,0,0,0
12473,55362,22353,0,0,0
12440,55331,22295,0,0,0
12404,55296,22225,0,0,0
12366,55263,22153,0,0,0
12327,55233,22088,0,0,0
12288,55201,22030,0,0,0
12248,55165,21977,0,0,0
12212,55132,21930,0,0,0
12180,55105,21889,0,0,0
12147,55081,21850,0,0,0
12115,55055,21808,0,0,0
12086,55029,21765,0,0,0
12059,55005,21723,0,0,0
12031,54979,21679,0,0,0
12006,54950,21629,0,0,0
11986,54920,21581,0,0,0
11968,54893,21536,0,0,0
11946,54866,21484,0,0,0
11915,54834,21420,0,0,0
11877,54804,21355,0,0,0
11836,54774,21293,0,0,0
11794,54740,21231,0,0,0
11754,54704,21168,0,0,0
11722,54673,21114,0,0,0
11696,54644,21070,0,0,0
11675,54620,21038,0,0,0
11664,54607,21026,0,0,0
11673,54616,21049,0,0,0
11710,54654,21118,0,0,0
11780,54724,21238,0,0,0
11892,54831,21422,0,0,0
12049,54981,21679,0,0,0
12249,55168,22003,0,0,0
12484,55384,22383,0,0,0
12748,55621,22805,0,0,0
13032,55876,23252,0,0,0
13322,56136,23706,0,0,0
13606,56387,24148,0,0,0
13878,56629,24570,0,0,0
14136,56860,24972,0,0,0
14375,57076,25345,0,0,0
14592,57272,25681,0,0,0
14790,57450,25984,0,0,0
14971,57606,26256,0,0,0
15129,57736,26490,0,0,0
15263,57843,26684,0,0,0
15377,57932,26849,0,0,0
15468,58003,26988,0,0,0
15533,58049,27096,0,0,0
15573,58077,27173,0,0,0
15598,58098,27229,0,0,0
15613,58112,27263,0,0,0
15612,58110,27273,0,0,0
15598,58091,27263,0,0,0
15579,58062,27242,0,0,0
15553,58026,27212,0,0,0
15517,57986,27167,0,0,0
15479,57947,27111,0,0,0
15445,57916,27054,0,0,0
15412,57890,27004,0,0,0
15377,57863,26958,0,0,0
15347,57840,26917,0,0,0
15327,57828,26891,0,0,0
15317,57824,26880,0,0,0
15312,57820,26877,0,0,0
15310,57816,26883,0,0,0
15317,57820,26900,0,0,0
15334,57832,26926,0,0,0
15355,57845,26954,0,0,0
15380,57858,26983,0,0,0
15411,57878,27017,0,0,0
15444,57900,27054,0,0,0
15473,57920,27088,0,0,0
15501,57941,27116,0,0,0
15525,57965,27141,0,0,0
15540,57984,27158,0,0,0
15544,57995,27159,0,0,0
15543,58000,27150,0,0,0
15540,58001,27137,0,0,0
15529,57992,27116,0,0,0
15505,57970,27082,0,0,0
15474,57943,27039,0,0,0
15443,57916,26994,0,0,0
15410,57887,26947,0,0,0
15375,57852,26897,0,0,0
15339,57818,26850,0,0,0
15307,57791,26808,0,0,0
15278,57765,26768,0,0,0
15250,57738,26730,0,0,0
15229,57717,26701,0,0,0
15222,57706,26686,0,0,0
15223,57698,26679,0,0,0
15224,57691,26675,0,0,0
15227,57692,26677,0,0,0
15236,57700,26684,0,0,0
15247,57706,26688,0,0,0
15255,57709,26692,0,0,0
15263,57712,26700,0,0,0
15276,57718,26712,0,0,0
15289,57722,26724,0,0,0
15300,57723,26732,0,0,0
15313,57726,26741,0,0,0
15323,57730,26749,0,0,0
15324,57731,26748,0,0,0
15318,57730,26742,0,0,0
15310,57731,26736,0,0,0
15298,57729,26723,0,0,0
15280,57720,26697,0,0,0
15261,57706,26662,0,0,0
15240,57688,26626,0,0,0
15217,57665,26585,0,0,0
15187,57635,26535,0,0,0
15154,57604,26480,0,0,0
15124,57575,26424,0,0,0
15093,57546,26363,0,0,0
15054,57510,26290,0,0,0
15011,57469,26211,0,0,0
14971,57427,26137,0,0,0
14929,57382,26067,0,0,0
14882,57335,25995,0,0,0
14834,57289,25923,0,0,0
14786,57247,25856,0,0,0
14733,57205,25787,0,0,0
14671,57157,25711,0,0,0
14609,57108,25634,0,0,0
14554,57065,25564,0,0,0
14501,57026,25497,0,0,0
14448,56987,25433,0,0,0
14403,56949,25374,0,0,0
14366,56915,25321,0,0,0
14333,56881,25267,0,0,0
14304,56847,25211,0,0,0
14280,56817,25158,0,0,0
14261,56793,25112,0,0,0
14241,56773,25072,0,0,0
14218,56753,25033,0,0,0
14198,56737,24998,0,0,0
14185,56727,24970,0,0,0
14175,56720,24947,0,0,0
14163,56713,24925,0,0,0
14150,56705,24904,0,0,0
14136,56698,24884,0,0,0
14117,56688,24861,0,0,0
14095,56671,24831,0,0,0
14078,56650,24797,0,0,0
14065,56631,24761,0,0,0
14049,56612,24722,0,0,0
14028,56589,24683,0,0,0
14002,56567,24644,0,0,0
13970,56544,24601,0,0,0
13932,56515,24553,0,0,0
13893,56482,24503,0,0,0
13856,56451,24454,0,0,0
13820,56421,24408,0,0,0
13779,56388,24355,0,0,0
13733,56350,24293,0,0,0
13692,56315,24228,0,0,0
13656,56281,24165,0,0,0
13622,56245,24101,0,0,0
13588,56205,24037,0,0,0
13556,56168,23979,0,0,0
13522,56134,23924,0,0,0
13484,56100,23867,0,0,0
13448,56069,23808,0,0,0
13417,56046,23756,0,0,0
13386,56026,23706,0,0,0
13352,56000,23651,0,0,0
13318,55971,23594,0,0,0
13284,55945,23539,0,0,0
13246,55919,23482,0,0,0
13199,55885,23421,0,0,0
13148,55844,23358,0,0,0
13101,55803,23297,0,0,0
13057,55765,23237,0,0,0
13007,55725,23174,0,0,0
12957,55687,23105,0,0,0
12911,55654,23035,0,0,0
12866,55618,22965,0,0,0
12815,55576,22892,0,0,0
12763,55536,22818,0,0,0
12716,55502,22750,0,0,0
12669,55467,22685,0,0,0
12623,55427,22618,0,0,0
12582,55387,22558,0,0,0
12547,55352,22508,0,0,0
12511,55318,22460,0,0,0
12474,55282,22405,0,0,0
12442,55251,22351,0,0,0
12411,55228,22304,0,0,0
12374,55207,22256,0,0,0
12331,55181,22201,0,0,0
12290,55146,22144,0,0,0
12252,55103,22089,0,0,0
12218,55053,22032,0,0,0
12192,55002,21971,0,0,0
12169,54956,21910,0,0,0
12142,54916,21847,0,0,0
12112,54881,21793,0,0,0
12091,54859,21758,0,0,0
12091,54860,21758,0,0,0
12120,54890,21804,0,0,0
12182,54952,21905,0,0,0
12284,55050,22070,0,0,0
12430,55188,22306,0,0,0
12617,55361,22607,0,0,0
12838,55565,22957,0,0,0
13091,55798,23345,0,0,0
13363,56052,23760,0,0,0
13634,56308,24184,0,0,0
13898,56553,24602,0,0,0
14158,56790,25008,0,0,0
14413,57019,25398,0,0,0
14652,57233,25765,0,0,0
14871,57427,26101,0,0,0
15075,57603,26407,0,0,0
15262,57761,26684,0,0,0
15423,57894,26927,0,0,0
15557,58000,27131,0,0,0
15670,58083,27300,0,0,0
15767,58147,27440,0,0,0
15842,58195,27550,0,0,0
15896,58230,27631,0,0,0
15936,58258,27693,0,0,0
15965,58278,27740,0,0,0
15980,58289,27766,0,0,0
15983,58291,27772,0,0,0
15982,58286,27766,0,0,0
15976,58275,27753,0,0,0
15964,58257,27733,0,0,0
15952,58238,27708,0,0,0
15946,58225,27687,0,0,0
15944,58217,27672,0,0,0
15940,58209,27659,0,0,0
15938,58205,27650,0,0,0
15943,58209,27650,0,0,0
15960,58222,27662,0,0,0
15983,58238,27682,0,0,0
16013,58263,27712,0,0,0
16055,58299,27752,0,0,0
16109,58340,27799,0,0,0
16166,58379,27850,0,0,0
16223,58418,27910,0,0,0
16281,58464,27972,0,0,0
16337,58508,28030,0,0,0
16384,58546,28080,0,0,0
16429,58580,28128,0,0,0
16475,58614,28178,0,0,0
16514,58638,28220,0,0,0
16540,58651,28249,0,0,0
16555,58658,28265,0,0,0
16561,58661,28270,0,0,0
16559,58659,28265,0,0,0
16554,58652,28251,0,0,0
16551,58644,28233,0,0,0
16551,58635,28213,0,0,0
16545,58621,28186,0,0,0
16535,58604,28154,0,0,0
16528,58592,28128,0,0,0
16526,58588,28109,0,0,0
16524,58581,28088,0,0,0
16522,58570,28067,0,0,0
16524,58565,28058,0,0,0
16530,58566,28061,0,0,0
16538,58569,28068,0,0,0
16546,58573,28075,0,0,0
16558,58581,28083,0,0,0
16572,58593,28091,0,0,0
16583,58607,28098,0,0,0
16594,58619,28108,0,0,0
16606,58635,28124,0,0,0
16615,58651,28147,0,0,0
16617,58661,28168,0,0,0
16620,58665,28183,0,0,0
16629,58668,28192,0,0,0
16637,58669,28194,0,0,0
16640,58664,28185,0,0,0
16639,58654,28171,0,0,0
16633,58642,28155,0,0,0
16622,58629,28134,0,0,0
16606,58611,28103,0,0,0
16589,58590,28065,0,0,0
16570,58568,28022,0,0,0
16544,58537,27974,0,0,0
16510,58498,27920,0,0,0
16474,58456,27865,0,0,0
16438,58414,27808,0,0,0
16399,58369,27745,0,0,0
16356,58323,27679,0,0,1
16311,58280,27612,0,0,1
16266,58240,27546,0,0,1
16221,58198,27477,0,0,1
16175,58155,27406,0,0,1
16133,58113,27338,0,0,1
16098,58078,27275,0,0,1
16067,58043,27212,0,0,1
16035,58007,27150,0,0,1
16008,57975,27096,0,0,1
15988,57952,27055,0,0,1
15969,57933,27020,0,0,1
15948,57912,26986,0,0,1
15928,57895,26953,0,0,1
15912,57883,26924,0,0,1
15895,57870,26894,0,0,1
15874,57852,26857,0,0,1
15854,57834,26821,0,0,1
15836,57819,26789,0,0,1
15812,57800,26759,0,0,1
15783,57774,26726,0,0,1
15755,57749,26694,0,0,1
15732,57726,26665,0,0,1
15706,57699,26631,0,0,1
15679,57664,26588,0,0,1
15653,57630,26540,0,0,1
15627,57599,26494,0,0,1
15598,57565,26448,0,0,1
15565,57528,26401,0,0,1
15532,57493,26355,0,0,1
15502,57461,26308,0,0,1
15472,57425,26258,0,0,1
15443,57387,26209,0,0,1
15417,57349,26164,0,0,1
15397,57318,26123,0,0,1
15376,57287,26078,0,0,1
15354,57257,26032,0,0,1
15333,57230,25992,0,0,1
15312,57206,25956,0,0,1
15288,57179,25919,0,0,1
15263,57149,25882,0,0,1
15245,57124,25848,0,0,1
15234,57105,25817,0,0,1
15224,57088,25785,0,0,1
15216,57072,25750,0,0,1
15209,57058,25716,0,0,1
