green_channel,red_channel,ir_channel,Anomaly_ch0,Anomaly_ch1,Anomaly_ch2
21575,48860,15637,0,0,0
22045,49339,16453,0,0,0
22494,49805,17219,0,0,0
22883,50208,17880,0,0,0
23203,50539,18430,0,0,0
23484,50834,18909,0,0,0
23720,51091,19309,0,0,0
23891,51276,19596,0,0,0
24010,51406,19794,0,0,0
24105,51519,19952,0,0,0
24169,51603,20061,0,0,0
24181,51622,20090,0,0,0
24160,51598,20061,0,0,0
24139,51576,20018,0,0,0
24104,51541,19951,0,0,0
24036,51462,19833,0,0,0
23953,51364,19690,0,0,0
23881,51285,19560,0,0,0
23808,51205,19426,0,0,0
23714,51092,19255,0,0,0
23611,50969,19068,0,0,0
23522,50871,18903,0,0,0
23436,50779,18741,0,0,0
23333,50661,18554,0,0,0
23223,50535,18364,0,0,0
23124,50431,18196,0,0,0
23027,50329,18027,0,0,0
22925,50213,17842,0,0,0
22831,50107,17669,0,0,0
22748,50022,17522,0,0,0
22659,49932,17364,0,0,0
22560,49818,17179,0,0,0
22467,49709,16998,0,0,0
22381,49618,16833,0,0,0
22280,49513,16647,0,0,0
22162,49381,16429,0,0,0
22052,49257,16216,0,0,0
21953,49152,16024,0,0,0
21844,49036,15823,0,0,0
21722,48902,15610,0,0,0
21617,48790,15426,0,0,0
21536,48709,15280,0,0,0
21457,48626,15140,0,0,0
21378,48536,15006,0,0,0
21320,48471,14913,0,0,0
21284,48434,14853,0,0,0
21249,48396,14797,0,0,0
21222,48360,14756,0,0,0
21223,48361,14761,0,0,0
21241,48389,14798,0,0,0
21254,48402,14831,0,0,0
21270,48407,14868,0,0,0
21307,48440,14939,0,0,0
21353,48488,15022,0,0,0
21380,48511,15073,0,0,0
21398,48525,15111,0,0,0
21428,48563,15173,0,0,0
21464,48608,15242,0,0,0
21482,48624,15277,0,0,0
21488,48624,15290,0,0,0
21501,48644,15314,0,0,0
21515,48665,15332,0,0,0
21507,48654,15309,0,0,0
21482,48625,15264,0,0,0
21460,48602,15219,0,0,0
21429,48568,15151,0,0,0
21379,48505,15045,0,0,0
21325,48440,14931,0,0,0
21275,48388,14827,0,0,0
21209,48319,14704,0,0,0
21119,48220,14550,0,0,0
21032,48127,14399,0,0,0
20957,48056,14262,0,0,0
20867,47972,14101,0,0,0
20754,47858,13907,0,0,0
20648,47753,13721,0,0,0
20559,47669,13559,0,0,0
20457,47573,13382,0,0,0
20335,47451,13184,0,0,0
20223,47341,13002,0,0,0
20127,47252,12841,0,0,0
20021,47149,12664,0,0,0
19900,47023,12468,0,0,0
19792,46913,12290,0,0,0
19699,46825,12132,0,0,0
19591,46720,11953,0,0,0
19468,46598,11756,0,0,0
19360,46498,11585,0,0,0
19265,46414,11439,0,0,0
19154,46308,11278,0,0,0
19039,46189,11110,0,0,0
18954,46105,10977,0,0,0
18890,46047,10867,0,0,0
18815,45972,10736,0,0,0
18737,45890,10595,0,0,0
18685,45837,10486,0,0,0
18641,45796,10392,0,0,0
18576,45730,10280,0,0,0
18511,45662,10173,0,0,0
18469,45624,10102,0,0,0
18425,45585,10036,0,0,0
18353,45511,9941,0,0,0
18284,45438,9853,0,0,0
18240,45407,9801,0,0,0
18197,45382,9749,0,0,0
18137,45327,9665,0,0,0
18080,45275,9582,0,0,0
18043,45250,9528,0,0,0
18001,45216,9461,0,0,0
17937,45152,9357,0,0,0
17876,45094,9258,0,0,0
17831,45059,9188,0,0,0
17779,45013,9111,0,0,0
17716,44942,9010,0,0,0
17670,44886,8924,0,0,0
17645,44861,8868,0,0,0
17614,44830,8805,0,0,0
17572,44786,8736,0,0,0
17551,44770,8713,0,0,0
17563,44795,8751,0,0,0
17593,44838,8828,0,0,0
17657,44905,8962,0,0,0
17794,45051,9217,0,0,0
18016,45291,9607,0,0,0
18291,45576,10090,0,0,0
18617,45896,10660,0,0,0
19011,46288,11342,0,0,0
19449,46736,12109,0,0,0
19886,47185,12898,0,0,0
20326,47638,13707,0,0,0
20788,48128,14557,0,0,0
21250,48623,15406,0,0,0
21677,49075,16184,0,0,0
22076,49488,16893,0,0,0
22460,49890,17555,0,0,0
22803,50253,18139,0,0,0
23080,50539,18603,0,0,0
23305,50770,18974,0,0,0
23502,50980,19288,0,0,0
23657,51151,19528,0,0,0
23751,51254,19666,0,0,0
23798,51304,19737,0,0,0
23825,51337,19780,0,0,0
23829,51344,19776,0,0,0
23799,51299,19702,0,0,0
23745,51228,19596,0,0,0
23686,51164,19487,0,0,0
23612,51084,19349,0,0,0
23517,50974,19170,0,0,0
23421,50862,18990,0,0,0
23332,50768,18830,0,0,0
23234,50667,18657,0,0,0
23125,50544,18459,0,0,0
23030,50433,18274,0,0,0
22953,50348,18121,0,0,0
22873,50254,17963,0,0,0
22781,50138,17784,0,0,0
22698,50037,17619,0,0,0
22627,49960,17473,0,0,0
22546,49871,17310,0,0,0
22447,49758,17123,0,0,0
22351,49653,16943,0,0,0
22259,49559,16772,0,0,0
22150,49445,16576,0,0,0
22025,49310,16357,0,0,0
21908,49194,16149,0,0,0
21802,49093,15954,0,0,0
21685,48969,15737,0,0,0
21559,48826,15513,0,0,0
21456,48710,15322,0,0,0
21372,48621,15159,0,0,0
21278,48523,14994,0,0,0
21181,48422,14837,0,0,0
21112,48360,14725,0,0,0
21070,48326,14654,0,0,0
21028,48280,14583,0,0,0
20991,48234,14524,0,0,0
20983,48225,14514,0,0,0
20997,48245,14544,0,0,0
21007,48256,14575,0,0,0
21021,48267,14613,0,0,0
21059,48306,14680,0,0,0
21108,48356,14763,0,0,0
21146,48390,14835,0,0,0
21185,48422,14915,0,0,0
21235,48474,15019,0,0,0
21280,48523,15117,0,0,0
21308,48547,15183,0,0,0
21340,48576,15243,0,0,0
21383,48626,15313,0,0,0
21411,48665,15360,0,0,0
21415,48669,15367,0,0,0
21420,48670,15362,0,0,0
21432,48683,15359,0,0,0
21424,48674,15326,0,0,0
21389,48625,15255,0,0,0
21356,48574,15184,0,0,0
21336,48539,15121,0,0,0
21301,48483,15024,0,0,0
21242,48397,14891,0,0,0
21177,48318,14763,0,0,0
21111,48252,14639,0,0,0
21029,48167,14485,0,0,0
20934,48064,14309,0,0,0
20849,47980,14153,0,0,0
20770,47914,14010,0,0,0
20675,47829,13844,0,0,0
20572,47733,13666,0,0,0
20483,47658,13514,0,0,0
20396,47589,13368,0,0,0
20291,47488,13193,0,0,0
20189,47376,13014,0,0,0
20112,47298,12872,0,0,0
20043,47235,12741,0,0,0
19957,47145,12580,0,0,0
19868,47047,12415,0,0,0
19797,46973,12284,0,0,0
19726,46902,12158,0,0,0
19635,46802,12002,0,0,0
19546,46705,11850,0,0,0
19482,46649,11740,0,0,0
19422,46600,11640,0,0,0
19344,46522,11515,0,0,0
19273,46445,11397,0,0,0
19230,46401,11319,0,0,0
19190,46362,11247,0,0,0
19134,46302,11153,0,0,0
19086,46254,11076,0,0,0
19061,46242,11034,0,0,0
19026,46218,10979,0,0,0
18967,46158,10891,0,0,0
18913,46106,10813,0,0,0
18876,46084,10760,0,0,0
18831,46051,10691,0,0,0
18774,45991,10595,0,0,0
18731,45942,10512,0,0,0
18702,45917,10453,0,0,0
18661,45877,10376,0,0,0
18603,45812,10273,0,0,0
18556,45763,10188,0,0,0
18524,45743,10130,0,0,0
18481,45707,10056,0,0,0
18427,45650,9962,0,0,0
18392,45613,9896,0,0,0
18378,45601,9864,0,0,0
18359,45578,9833,0,0,0
18344,45556,9814,0,0,0
18374,45589,9871,0,0,0
18457,45682,10016,0,0,0
18565,45798,10221,0,0,0
18717,45951,10503,0,0,0
18951,46189,10913,0,0,0
19252,46498,11436,0,0,0
19583,46831,12026,0,0,0
19950,47200,12685,0,0,0
20373,47639,13441,0,0,0
20831,48123,14260,0,0,0
21289,48604,15082,0,0,0
21753,49089,15898,0,0,0
22232,49594,16713,0,0,0
22686,50075,17476,0,0,0
23081,50485,18140,0,0,0
23431,50847,18722,0,0,0
23754,51188,19244,0,0,0
24025,51472,19679,0,0,0
24225,51674,20005,0,0,0
24384,51829,20257,0,0,0
24522,51969,20464,0,0,0
24613,52061,20599,0,0,0
24645,52085,20648,0,0,0
24652,52083,20656,0,0,0
24655,52082,20651,0,0,0
24632,52056,20609,0,0,0
24579,51993,20523,0,0,0
24526,51934,20428,0,0,0
24484,51897,20340,0,0,0
24424,51840,20226,0,0,0
24341,51748,20080,0,0,0
24263,51659,19942,0,0,0
24199,51587,19822,0,0,0
24123,51498,19690,0,0,0
24029,51387,19538,0,0,0
23947,51291,19399,0,0,0
23881,51217,19278,0,0,0
23802,51129,19141,0,0,0
23714,51026,18988,0,0,0
23649,50951,18858,0,0,0
23603,50898,18743,0,0,0
23538,50812,18593,0,0,0
23451,50700,18416,0,0,0
23377,50610,18257,0,0,0
23308,50533,18109,0,0,0
23210,50425,17931,0,0,0
23097,50299,17733,0,0,0
23004,50200,17556,0,0,0
22922,50117,17395,0,0,0
22824,50008,17208,0,0,0
22722,49893,17011,0,0,0
22642,49809,16849,0,0,0
22572,49738,16710,0,0,0
22489,49649,16570,0,0,0
22412,49564,16450,0,0,0
22365,49514,16379,0,0,0
22336,49480,16332,0,0,0
22310,49442,16288,0,0,0
22304,49425,16274,0,0,0
22331,49451,16310,0,0,0
22366,49487,16361,0,0,0
22393,49509,16406,0,0,0
22433,49546,16471,0,0,0
22494,49615,16570,0,0,0
22551,49681,16668,0,0,0
22592,49723,16749,0,0,0
22644,49776,16843,0,0,0
22715,49853,16959,0,0,0
22774,49914,17055,0,0,0
22808,49943,17109,0,0,0
22839,49969,17152,0,0,0
22873,50004,17196,0,0,0
22885,50014,17208,0,0,0
22871,49990,17182,0,0,0
22857,49964,17153,0,0,0
22846,49948,17127,0,0,0
22815,49909,17068,0,0,0
22765,49846,16978,0,0,0
22727,49799,16895,0,0,0
22697,49766,16816,0,0,0
22645,49705,16701,0,0,0
22574,49618,16553,0,0,0
22510,49544,16416,0,0,0
22448,49477,16289,0,0,0
22359,49379,16134,0,0,0
22253,49260,15956,0,0,0
22164,49165,15796,0,0,0
22085,49085,15647,0,0,0
21985,48980,15471,0,0,0
21872,48857,15275,0,0,0
21774,48753,15098,0,0,0
21684,48655,14927,0,0,0
21580,48535,14734,0,0,0
21470,48412,14535,0,0,0
21376,48317,14365,0,0,0
21289,48232,14205,0,0,0
21188,48129,14029,0,0,0
21095,48034,13862,0,0,0
21026,47969,13725,0,0,0
20956,47902,13593,0,0,0
20871,47810,13447,0,0,0
20796,47727,13315,0,0,0
20740,47673,13213,0,0,0
20672,47609,13105,0,0,0
20582,47518,12973,0,0,0
20506,47439,12855,0,0,0
20455,47392,12767,0,0,0
20394,47338,12672,0,0,0
20313,47260,12554,0,0,0
20245,47194,12447,0,0,0
20200,47151,12366,0,0,0
20148,47100,12278,0,0,0
20085,47031,12175,0,0,0
20037,46978,12091,0,0,0
20005,46949,12033,0,0,0
19962,46906,11960,0,0,0
19909,46842,11870,0,0,0
19875,46800,11804,0,0,0
19861,46788,11762,0,0,0
19829,46759,11697,0,0,0
19778,46708,11610,0,0,0
19740,46675,11548,0,0,0
19712,46660,11506,0,0,0
19661,46620,11443,0,0,0
19599,46564,11365,0,0,0
19563,46534,11315,0,0,0
19539,46519,11281,0,0,0
19494,46478,11219,0,0,0
19447,46429,11145,0,0,0
19424,46410,11097,0,0,0
19402,46395,11051,0,0,0
19358,46346,10972,0,0,0
19313,46290,10885,0,0,0
19284,46258,10824,0,0,0
19246,46223,10758,0,0,0
19181,46154,10653,0,0,0
19118,46084,10546,0,0,0
19083,46050,10473,0,0,0
19052,46021,10399,0,0,0
19005,45966,10301,0,0,0
18968,45923,10222,0,0,0
18961,45924,10203,0,0,0
18968,45942,10220,0,0,0
18986,45963,10270,0,0,0
19059,46038,10414,0,0,0
19211,46202,10692,0,0,0
19421,46427,11078,0,0,0
19682,46697,11559,0,0,0
20022,47044,12167,0,0,0
20443,47475,12904,0,0,0
20903,47947,13713,0,0,0
21384,48437,14562,0,0,0
21898,48969,15460,0,0,0
22429,49530,16380,0,0,0
22931,50061,17252,0,0,0
23388,50542,18046,0,0,0
23819,51004,18785,0,0,0
24217,51437,19463,0,0,0
24549,51789,20027,0,0,0
24818,52063,20474,0,0,0
25056,52304,20855,0,0,0
25255,52507,21173,0,0,0
25387,52636,21390,0,0,0
25472,52711,21526,0,0,0
25550,52780,21635,0,0,0
25612,52840,21713,0,0,0
25630,52852,21725,0,0,0
25617,52835,21692,0,0,0
25609,52828,21660,0,0,0
25592,52813,21614,0,0,0
25545,52760,21526,0,0,0
25495,52698,21427,0,0,0
25468,52665,21354,0,0,0
25440,52635,21283,0,0,0
25384,52572,21182,0,0,0
25329,52509,21085,0,0,0
25302,52483,21027,0,0,0
25278,52458,20975,0,0,0
25236,52401,20895,0,0,0
25200,52344,20822,0,0,0
25185,52316,20782,0,0,0
25164,52280,20735,0,0,0
25118,52218,20656,0,0,0
25077,52166,20585,0,0,0
25056,52146,20545,0,0,0
25024,52117,20493,0,0,0
24968,52061,20410,0,0,0
24918,52010,20326,0,0,0
24881,51978,20252,0,0,0
24826,51923,20150,0,0,0
24746,51834,20013,0,0,0
24670,51748,19874,0,0,0
24597,51670,19740,0,0,0
24504,51566,19576,0,0,0
24393,51437,19385,0,0,0
24297,51330,19217,0,0,0
24219,51249,19081,0,0,0
24134,51153,18935,0,0,0
24049,51049,18785,0,0,0
23990,50981,18675,0,0,0
23949,50942,18596,0,0,0
23903,50888,18512,0,0,0
23863,50831,18440,0,0,0
23850,50815,18419,0,0,0
23850,50827,18429,0,0,0
23840,50826,18428,0,0,0
23836,50827,18435,0,0,0
23864,50862,18487,0,0,0
23904,50907,18551,0,0,0
23929,50924,18585,0,0,0
23952,50935,18611,0,0,0
23992,50974,18663,0,0,0
24034,51019,18719,0,0,0
24058,51034,18744,0,0,0
24070,51035,18758,0,0,0
24086,51052,18790,0,0,0
24096,51064,18815,0,0,0
24084,51041,18806,0,0,0
24061,51008,18783,0,0,0
24045,50990,18766,0,0,0
24024,50968,18725,0,0,0
23987,50922,18641,0,0,0
23947,50871,18545,0,0,0
23910,50828,18457,0,0,0
23858,50767,18346,0,0,0
23785,50675,18198,0,0,0
23710,50585,18049,0,0,0
23641,50512,17918,0,0,0
23558,50424,17766,0,0,0
23452,50310,17584,0,0,0
23350,50203,17410,0,0,0
23262,50116,17255,0,0,0
23168,50017,17088,0,0,0
23067,49901,16903,0,0,0
22982,49803,16733,0,0,0
22912,49728,16579,0,0,0
22831,49644,16414,0,0,0
22736,49547,16237,0,0,0
22653,49465,16083,0,0,0
22579,49397,15949,0,0,0
22486,49305,15793,0,0,0
22378,49192,15618,0,0,0
22290,49104,15469,0,0,0
22221,49037,15341,0,0,0
22138,48950,15194,0,0,0
22046,48850,15035,0,0,0
21978,48777,14905,0,0,0
21922,48717,14791,0,0,0
21849,48632,14653,0,0,0
21772,48540,14509,0,0,0
21714,48478,14393,0,0,0
21654,48423,14288,0,0,0
21571,48337,14162,0,0,0
21489,48250,14038,0,0,0
21435,48196,13948,0,0,0
21383,48151,13869,0,0,0
21314,48086,13774,0,0,0
21257,48032,13688,0,0,0
21227,48012,13633,0,0,0
21192,47986,13568,0,0,0
21138,47927,13470,0,0,0
21091,47875,13380,0,0,0
21064,47855,13322,0,0,0
21026,47830,13259,0,0,0
20968,47778,13172,0,0,0
20919,47730,13098,0,0,0
20889,47704,13050,0,0,0
20851,47663,12989,0,0,0
20798,47597,12900,0,0,0
20752,47543,12821,0,0,0
20718,47510,12762,0,0,0
20672,47457,12682,0,0,0
20609,47377,12572,0,0,0
20553,47311,12476,0,0,0
20512,47268,12397,0,0,0
20458,47210,12296,0,0,0
20391,47137,12177,0,0,0
20338,47089,12087,0,0,0
20298,47061,12018,0,0,0
20244,47012,11927,0,0,0
20185,46953,11829,0,0,0
20145,46922,11768,0,0,0
20122,46909,11733,0,0,0
20099,46883,11695,0,0,0
20095,46870,11685,0,0,0
20139,46920,11762,0,0,0
20228,47026,11931,0,0,0
20352,47160,12173,0,0,0
20529,47344,12511,0,0,0
20789,47615,12982,0,0,0
21121,47959,13568,0,0,0
21495,48339,14228,0,0,0
21909,48762,14963,0,0,0
22373,49250,15781,0,0,0
22860,49769,16633,0,0,0
23330,50266,17459,0,0,0
23780,50744,18244,0,0,0
24216,51214,18988,0,0,0
24613,51641,19658,0,0,0
24954,51996,20228,0,0,0
25252,52306,20721,0,0,0
25519,52589,21152,0,0,0
25732,52814,21493,0,0,0
25882,52963,21732,0,0,0
25998,53075,21912,0,0,0
26094,53175,22058,0,0,0
26149,53233,22140,0,0,0
26161,53238,22152,0,0,0
26162,53230,22140,0,0,0
26164,53232,22125,0,0,0
26144,53209,22079,0,0,0
26103,53155,22001,0,0,0
26067,53108,21927,0,0,0
26039,53078,21868,0,0,0
25996,53029,21791,0,0,0
25938,52958,21693,0,0,0
25891,52906,21610,0,0,0
25857,52872,21545,0,0,0
25802,52809,21455,0,0,0
25730,52721,21345,0,0,0
25679,52657,21264,0,0,0
25644,52618,21209,0,0,0
25593,52559,21130,0,0,0
25541,52489,21032,0,0,0
25519,52444,20954,0,0,0
25502,52406,20890,0,0,0
25457,52341,20803,0,0,0
25400,52268,20707,0,0,0
25355,52221,20632,0,0,0
25303,52177,20549,0,0,0
25225,52096,20417,0,0,0
25135,51998,20263,0,0,0
25055,51917,20124,0,0,0
24969,51830,19973,0,0,0
24857,51707,19782,0,0,0
24734,51575,19583,0,0,0
24625,51468,19411,0,0,0
24523,51365,19245,0,0,0
24416,51244,19065,0,0,0
24320,51134,18902,0,0,0
24249,51061,18777,0,0,0
24186,50998,18665,0,0,0
24125,50925,18550,0,0,0
24081,50870,18464,0,0,0
24060,50848,18421,0,0,0
24039,50830,18392,0,0,0
24017,50801,18364,0,0,0
24014,50793,18362,0,0,0
24034,50815,18390,0,0,0
24051,50831,18418,0,0,0
24057,50831,18433,0,0,0
24078,50853,18469,0,0,0
24119,50904,18533,0,0,0
24151,50940,18585,0,0,0
24167,50950,18616,0,0,0
24187,50971,18657,0,0,0
24211,51002,18704,0,0,0
24209,51001,18715,0,0,0
24183,50965,18689,0,0,0
24165,50940,18665,0,0,0
24152,50923,18641,0,0,0
24113,50871,18577,0,0,0
24052,50792,18481,0,0,0
24001,50736,18397,0,0,0
23953,50694,18315,0,0,0
23877,50621,18190,0,0,0
23790,50532,18038,0,0,0
23721,50468,17903,0,0,0
23650,50407,17770,0,0,0
23552,50310,17601,0,0,0
23447,50201,17420,0,0,0
23354,50114,17261,0,0,0
23255,50024,17097,0,0,0
23132,49901,16895,0,0,0
23012,49777,16694,0,0,0
22921,49686,16526,0,0,0
22833,49597,16358,0,0,0
22723,49477,16155,0,0,0
22612,49355,15953,0,0,0
22523,49261,15780,0,0,0
22432,49162,15600,0,0,0
22318,49032,15390,0,0,0
22207,48911,15191,0,0,0
22114,48821,15024,0,0,0
22014,48722,14852,0,0,0
21895,48595,14657,0,0,0
21787,48482,14482,0,0,0
21704,48403,14344,0,0,0
21616,48315,14199,0,0,0
21512,48202,14033,0,0,0
21418,48103,13884,0,0,0
21342,48029,13760,0,0,0
21261,47943,13622,0,0,0
21172,47841,13468,0,0,0
21103,47763,13341,0,0,0
21054,47715,13248,0,0,0
20989,47654,13140,0,0,0
20909,47577,13016,0,0,0
20846,47526,12918,0,0,0
20797,47493,12837,0,0,0
20734,47435,12729,0,0,0
20662,47364,12607,0,0,0
20604,47315,12510,0,0,0
20547,47275,12424,0,0,0
20474,47208,12312,0,0,0
20402,47132,12197,0,0,0
20354,47085,12118,0,0,0
20314,47050,12054,0,0,0
20253,46993,11965,0,0,0
20187,46928,11874,0,0,0
20144,46892,11814,0,0,0
20110,46863,11764,0,0,0
20059,46805,11686,0,0,0
19998,46733,11593,0,0,0
19947,46681,11517,0,0,0
19898,46636,11443,0,0,0
19834,46564,11345,0,0,0
19768,46486,11242,0,0,0
19715,46429,11156,0,0,0
19653,46371,11060,0,0,0
19571,46285,10934,0,0,0
19494,46206,10812,0,0,0
19435,46156,10718,0,0,0
19367,46101,10619,0,0,0
19281,46020,10493,0,0,0
19204,45949,10373,0,0,0
19149,45903,10277,0,0,0
19085,45848,10174,0,0,0
19005,45772,10056,0,0,0
18948,45719,9975,0,0,0
18930,45711,9954,0,0,0
18928,45718,9968,0,0,0
18949,45743,10027,0,0,0
19032,45834,10187,0,0,0
19190,46007,10470,0,0,0
19400,46229,10853,0,0,0
19662,46499,11335,0,0,0
19999,46852,11948,0,0,0
20401,47276,12672,0,0,0
20826,47719,13442,0,0,0
21266,48176,14242,0,0,0
21748,48686,15101,0,0,0
22253,49229,15988,0,0,0
22730,49737,16827,0,0,0
23178,50202,17603,0,0,0
23617,50654,18336,0,0,0
24022,51073,19003,0,0,0
24351,51412,19554,0,0,0
24618,51683,20003,0,0,0
24852,51925,20385,0,0,0
25037,52124,20689,0,0,0
25152,52248,20886,0,0,0
25228,52328,21011,0,0,0
25295,52401,21104,0,0,0
25332,52443,21144,0,0,0
25319,52424,21114,0,0,0
25289,52385,21051,0,0,0
25265,52357,20989,0,0,0
25222,52305,20898,0,0,0
25140,52206,20755,0,0,0
25050,52100,20606,0,0,0
24976,52021,20484,0,0,0
24894,51935,20351,0,0,0
24791,51818,20188,0,0,0
24697,51711,20035,0,0,0
24629,51634,19914,0,0,0
24559,51551,19787,0,0,0
24475,51444,19640,0,0,0
24400,51354,19506,0,0,0
24340,51290,19397,0,0,0
24264,51212,19275,0,0,0
24173,51113,19132,0,0,0
24094,51031,19004,0,0,0
24031,50973,18897,0,0,0
23954,50899,18768,0,0,0
23859,50800,18607,0,0,0
23772,50709,18447,0,0,0
23689,50629,18291,0,0,0
23581,50518,18097,0,0,0
23453,50375,17871,0,0,0
23341,50250,17662,0,0,0
23245,50145,17473,0,0,0
23132,50016,17264,0,0,0
23007,49874,17045,0,0,0
22906,49768,16864,0,0,0
22826,49688,16713,0,0,0
22738,49591,16554,0,0,0
22649,49493,16403,0,0,0
22590,49435,16300,0,0,0
22551,49403,16234,0,0,0
22507,49358,16169,0,0,0
22474,49322,16121,0,0,0
22475,49328,16123,0,0,0
22491,49352,16151,0,0,0
22494,49358,16173,0,0,0
22504,49367,16203,0,0,0
22539,49408,16265,0,0,0
22575,49450,16327,0,0,0
22592,49456,16366,0,0,0
22613,49462,16408,0,0,0
22648,49497,16474,0,0,0
22667,49522,16522,0,0,0
22659,49516,16529,0,0,0
22654,49509,16527,0,0,0
22659,49518,16534,0,0,0
22648,49509,16514,0,0,0
22609,49464,16453,0,0,0
22571,49421,16389,0,0,0
22545,49399,16337,0,0,0
22503,49358,16262,0,0,0
22442,49289,16153,0,0,0
22388,49228,16041,0,0,0
22342,49183,15933,0,0,0
22278,49115,15796,0,0,0
22189,49017,15629,0,0,0
22102,48928,15469,0,0,0
22022,48852,15324,0,0,0
21927,48755,15161,0,0,0
21819,48641,14981,0,0,0
21721,48545,14814,0,0,0
21633,48460,14652,0,0,0
21529,48347,14459,0,0,0
21413,48218,14250,0,0,0
21310,48113,14065,0,0,0
21215,48022,13893,0,0,0
21099,47904,13696,0,0,0
20969,47769,13488,0,0,0
20858,47662,13308,0,0,0
20765,47579,13146,0,0,0
20663,47480,12965,0,0,0
20555,47369,12777,0,0,0
20463,47279,12616,0,0,0
20379,47198,12471,0,0,0
20283,47094,12312,0,0,0
20187,46991,12155,0,0,0
20111,46921,12029,0,0,0
20038,46859,11910,0,0,0
19948,46776,11771,0,0,0
19865,46696,11641,0,0,0
19807,46645,11543,0,0,0
19749,46592,11446,0,0,0
19675,46515,11328,0,0,0
19610,46447,11222,0,0,0
19568,46408,11144,0,0,0
19517,46362,11055,0,0,0
19444,46289,10942,0,0,0
19381,46227,10851,0,0,0
19339,46196,10795,0,0,0
19287,46152,10730,0,0,0
19220,46082,10639,0,0,0
19168,46025,10561,0,0,0
19134,45994,10504,0,0,0
19084,45950,10434,0,0,0
19017,45884,10342,0,0,0
18961,45833,10261,0,0,0
18920,45804,10196,0,0,0
18864,45754,10110,0,0,0
18790,45677,9998,0,0,0
18731,45617,9900,0,0,0
18690,45573,9817,0,0,0
18632,45503,9707,0,0,0
18555,45414,9576,0,0,0
18495,45351,9471,0,0,0
18446,45306,9388,0,0,0
18375,45242,9288,0,0,0
18302,45172,9189,0,0,0
18265,45146,9139,0,0,0
18254,45150,9132,0,0,0
18247,45151,9137,0,0,0
18269,45177,9189,0,0,0
18353,45274,9343,0,0,0
18491,45432,9594,0,0,0
18665,45624,9920,0,0,0
18900,45874,10350,0,0,0
19216,46214,10911,0,0,0
19584,46603,11565,0,0,0
19968,46997,12263,0,0,0
20382,47413,13012,0,0,0
20841,47879,13823,0,0,0
21310,48353,14648,0,0,0
21765,48803,15445,0,0,0
22217,49252,16223,0,0,0
22661,49708,16981,0,0,0
23059,50122,17665,0,0,0
23392,50467,18245,0,0,0
23687,50776,18753,0,0,0
23951,51063,19205,0,0,0
24155,51289,19561,0,0,0
24300,51441,19809,0,0,0
24419,51560,19989,0,0,0
24516,51661,20121,0,0,0
24567,51711,20180,0,0,0
24572,51705,20162,0,0,0
24560,51682,20109,0,0,0
24534,51654,20038,0,0,0
24473,51587,19926,0,0,0
24382,51486,19775,0,0,0
24296,51400,19629,0,0,0
24222,51332,19496,0,0,0
24132,51242,19335,0,0,0
24030,51132,19151,0,0,0
23947,51045,18988,0,0,0
23875,50977,18848,0,0,0
23781,50885,18689,0,0,0
23678,50773,18515,0,0,0
23600,50686,18369,0,0,0
23537,50616,18239,0,0,0
23452,50521,18082,0,0,0
23353,50410,17909,0,0,0
23272,50321,17756,0,0,0
23192,50237,17608,0,0,0
23084,50119,17425,0,0,0
22966,49984,17219,0,0,0
22863,49870,17020,0,0,0
22758,49758,16814,0,0,0
22630,49617,16576,0,0,0
22502,49472,16332,0,0,0
22395,49353,16113,0,0,0
22288,49237,15900,0,0,0
22166,49102,15678,0,0,0
22059,48980,15482,0,0,0
21983,48896,15332,0,0,0
21911,48816,15198,0,0,0
21826,48724,15062,0,0,0
21762,48661,14964,0,0,0
21736,48652,14922,0,0,0
21717,48654,14898,0,0,0
21692,48640,14873,0,0,0
21692,48645,14883,0,0,0
21724,48684,14938,0,0,0
21749,48716,14993,0,0,0
21763,48729,15034,0,0,0
21799,48763,15099,0,0,0
21856,48824,15191,0,0,0
21904,48870,15266,0,0,0
21933,48888,15321,0,0,0
21973,48923,15395,0,0,0
22026,48979,15484,0,0,0
22060,49011,15540,0,0,0
22074,49013,15560,0,0,0
22096,49026,15582,0,0,0
22121,49046,15604,0,0,0
22113,49030,15585,0,0,0
22080,48987,15531,0,0,0
22057,48962,15486,0,0,0
22035,48945,15439,0,0,0
21983,48894,15350,0,0,0
21918,48825,15232,0,0,0
21869,48774,15128,0,0,0
21812,48719,15018,0,0,0
21726,48626,14866,0,0,0
21634,48523,14696,0,0,0
21561,48447,14546,0,0,0
21478,48368,14388,0,0,0
21363,48248,14189,0,0,0
21244,48120,13984,0,0,0
21148,48019,13808,0,0,0
21050,47918,13628,0,0,0
20933,47792,13418,0,0,0
20825,47673,13215,0,0,0
20743,47585,13046,0,0,0
20656,47493,12872,0,0,0
20545,47375,12673,0,0,0
20439,47269,12489,0,0,0
20352,47192,12339,0,0,0
20259,47105,12186,0,0,0
20150,46994,12013,0,0,0
20058,46900,11860,0,0,0
19992,46838,11743,0,0,0
19922,46768,11623,0,0,0
19842,46679,11485,0,0,0
19777,46608,11365,0,0,0
19724,46560,11271,0,0,0
19653,46494,11160,0,0,0
19563,46402,11025,0,0,0
19490,46332,10914,0,0,0
19438,46285,10827,0,0,0
19375,46224,10724,0,0,0
19306,46152,10611,0,0,0
19257,46105,10533,0,0,0
19219,46079,10483,0,0,0
19162,46030,10415,0,0,0
19097,45963,10334,0,0,0
19054,45921,10281,0,0,0
19021,45892,10242,0,0,0
18970,45838,10174,0,0,0
18916,45777,10094,0,0,0
18887,45749,10042,0,0,0
18861,45731,9995,0,0,0
18813,45683,9917,0,0,0
18762,45629,9829,0,0,0
18730,45605,9770,0,0,0
18694,45582,9709,0,0,0
18631,45523,9610,0,0,0
18565,45458,9507,0,0,0
18525,45422,9432,0,0,0
18485,45385,9354,0,0,0
18423,45320,9247,0,0,0
18369,45265,9149,0,0,0
18345,45247,9090,0,0,0
18319,45230,9036,0,0,0
18279,45192,8975,0,0,0
18260,45179,8955,0,0,0
18292,45222,9011,0,0,0
18357,45293,9123,0,0,0
18455,45383,9295,0,0,0
18618,45542,9584,0,0,0
18862,45797,10018,0,0,0
19165,46112,10557,0,0,0
19517,46466,11178,0,0,0
19929,46881,11904,0,0,0
20390,47350,12717,0,0,0
20858,47826,13551,0,0,0
21320,48294,14381,0,0,0
21795,48786,15230,0,0,0
22274,49292,16079,0,0,0
22721,49757,16859,0,0,0
23123,50169,17555,0,0,0
23496,50557,18194,0,0,0
23830,50914,18763,0,0,0
24105,51206,19221,0,0,0
24331,51440,19584,0,0,0
24529,51652,19898,0,0,0
24688,51827,20145,0,0,0
24789,51929,20293,0,0,0
24846,51982,20374,0,0,0
24890,52030,20433,0,0,0
24911,52058,20455,0,0,0
24892,52034,20410,0,0,0
24854,51979,20328,0,0,0
24817,51930,20247,0,0,0
24768,51871,20144,0,0,0
24689,51773,19991,0,0,0
24598,51662,19819,0,0,0
24520,51576,19669,0,0,0
24441,51495,19518,0,0,0
24345,51387,19338,0,0,0
24249,51275,19164,0,0,0
24173,51186,19025,0,0,0
24100,51099,18885,0,0,0
24022,50996,18723,0,0,0
23951,50908,18574,0,0,0
23894,50845,18456,0,0,0
23830,50771,18329,0,0,0
23749,50669,18170,0,0,0
23670,50572,18014,0,0,0
23599,50493,17875,0,0,0
23513,50400,17714,0,0,0
23410,50282,17519,0,0,0
23309,50174,17327,0,0,0
23210,50085,17148,0,0,0
23092,49978,16945,0,0,0
22960,49844,16712,0,0,0
22839,49722,16496,0,0,0
22734,49622,16306,0,0,0
22620,49506,16107,0,0,0
22506,49378,15907,0,0,0
22420,49283,15751,0,0,0
22360,49223,15636,0,0,0
22302,49159,15523,0,0,0
22250,49099,15426,0,0,0
22225,49076,15382,0,0,0
22220,49077,15372,0,0,0
22213,49066,15356,0,0,0
22209,49053,15350,0,0,0
22227,49073,15390,0,0,0
22258,49111,15456,0,0,0
22281,49133,15507,0,0,0
22309,49151,15558,0,0,0
22362,49199,15640,0,0,0
22420,49257,15727,0,0,0
22458,49287,15783,0,0,0
22481,49302,15823,0,0,0
22509,49335,15877,0,0,0
22534,49367,15924,0,0,0
22536,49363,15930,0,0,0
22526,49341,15917,0,0,0
22520,49332,15911,0,0,0
22510,49321,15891,0,0,0
22481,49288,15837,0,0,0
22443,49250,15769,0,0,0
22408,49223,15706,0,0,0
22363,49178,15621,0,0,0
22302,49102,15501,0,0,0
22242,49030,15378,0,0,0
22187,48978,15269,0,0,0
22121,48912,15140,0,0,0
22038,48819,14978,0,0,0
21959,48735,14820,0,0,0
21892,48675,14681,0,0,0
21815,48604,14526,0,0,0
21726,48508,14345,0,0,0
21645,48421,14172,0,0,0
21569,48344,14011,0,0,0
21476,48244,13827,0,0,0
21364,48118,13620,0,0,0
21258,48007,13432,0,0,0
21166,47913,13264,0,0,0
21071,47805,13087,0,0,0
20972,47692,12910,0,0,0
20887,47605,12762,0,0,0
20809,47531,12623,0,0,0
20720,47435,12457,0,0,0
20629,47331,12285,0,0,0
20558,47255,12150,0,0,0
20491,47192,12033,0,0,0
20409,47105,11898,0,0,0
20327,47016,11762,0,0,0
20266,46960,11657,0,0,0
20205,46914,11560,0,0,0
20128,46841,11433,0,0,0
20051,46764,11307,0,0,0
19994,46718,11220,0,0,0
19939,46681,11141,0,0,0
19864,46615,11030,0,0,0
19785,46548,10923,0,0,0
19727,46512,10854,0,0,0
19674,46476,10785,0,0,0
19607,46409,10684,0,0,0
19543,46340,10585,0,0,0
19497,46299,10520,0,0,0
19449,46256,10453,0,0,0
19387,46184,10361,0,0,0
19331,46118,10280,0,0,0
19295,46081,10230,0,0,0
19259,46039,10170,0,0,0
19215,45980,10088,0,0,0
19183,45938,10017,0,0,0
19164,45922,9967,0,0,0
19134,45894,9902,0,0,0
19089,45842,9816,0,0,0
19052,45802,9749,0,0,0
19027,45784,9707,0,0,0
18993,45754,9654,0,0,0
18944,45704,9583,0,0,0
18905,45669,9528,0,0,0
18877,45649,9487,0,0,0
18838,45609,9427,0,0,0
18786,45549,9353,0,0,0
18742,45502,9293,0,0,0
18705,45465,9236,0,0,0
18652,45406,9148,0,0,0
18586,45334,9042,0,0,0
18536,45287,8957,0,0,0
18495,45255,8885,0,0,0
18433,45199,8787,0,0,0
18357,45131,8680,0,0,0
18305,45096,8616,0,0,0
18285,45093,8592,0,0,0
18276,45093,8582,0,0,0
18293,45114,8614,0,0,0
18369,45201,8744,0,0,0
18505,45350,8977,0,0,0
18689,45539,9305,0,0,0
18946,45798,9762,0,0,0
19296,46158,10375,0,0,0
19714,46588,11110,0,0,0
20167,47047,11920,0,0,0
20661,47549,12805,0,0,0
21201,48107,13759,0,0,0
21748,48672,14718,0,0,0
22273,49209,15635,0,0,0
22793,49741,16523,0,0,0
23306,50273,17379,0,0,0
23766,50751,18145,0,0,0
24152,51144,18793,0,0,0
24491,51492,19354,0,0,0
24794,51810,19838,0,0,0
25032,52056,20214,0,0,0
25202,52219,20479,0,0,0
25336,52338,20680,0,0,0
25442,52429,20830,0,0,0
25496,52465,20899,0,0,0
25501,52451,20896,0,0,0
25496,52434,20876,0,0,0
25489,52421,20848,0,0,0
25449,52371,20770,0,0,0
25378,52286,20648,0,0,0
25316,52215,20536,0,0,0
25260,52158,20436,0,0,0
25182,52074,20306,0,0,0
25092,51975,20157,0,0,0
25023,51909,20035,0,0,0
24965,51860,19933,0,0,0
24893,51786,19809,0,0,0
24821,51706,19682,0,0,0
24773,51661,19597,0,0,0
24733,51627,19528,0,0,0
24679,51564,19429,0,0,0
24625,51492,19320,0,0,0
24590,51443,19237,0,0,0
24552,51395,19152,0,0,0
24486,51311,19028,0,0,0
24411,51218,18894,0,0,0
24348,51148,18780,0,0,0
24280,51075,18651,0,0,0
24182,50966,18472,0,0,0
24071,50841,18275,0,0,0
23972,50732,18097,0,0,0
23871,50621,17911,0,0,0
23757,50487,17695,0,0,0
23644,50356,17484,0,0,0
23542,50251,17297,0,0,0
23435,50141,17104,0,0,0
23319,50013,16894,0,0,0
23216,49903,16710,0,0,0
23132,49829,16572,0,0,0
23049,49758,16444,0,0,0
22967,49675,16311,0,0,0
22907,49615,16206,0,0,0
22872,49587,16141,0,0,0
22839,49554,16081,0,0,0
22802,49508,16019,0,0,0
22781,49485,15988,0,0,0
22780,49492,15992,0,0,0
22776,49493,15996,0,0,0
22770,49482,15996,0,0,0
22782,49490,16020,0,0,0
22814,49519,16067,0,0,0
22839,49534,16101,0,0,0
22853,49535,16123,0,0,0
22878,49556,16163,0,0,0
22909,49588,16207,0,0,0
22915,49591,16214,0,0,0
22899,49573,16193,0,0,0
22892,49571,16182,0,0,0
22886,49575,16169,0,0,0
22855,49543,16112,0,0,0
22807,49488,16029,0,0,0
22773,49448,15959,0,0,0
22741,49411,15888,0,0,0
22681,49341,15780,0,0,0
22606,49255,15653,0,0,0
22544,49190,15538,0,0,0
22475,49123,15410,0,0,0
22381,49025,15242,0,0,0
22284,48921,15066,0,0,0
22200,48838,14913,0,0,0
22105,48747,14748,0,0,0
21982,48621,14544,0,0,0
21862,48497,14340,0,0,0
21762,48404,14163,0,0,0
21654,48301,13975,0,0,0
21526,48165,13757,0,0,0
21407,48037,13550,0,0,0
21312,47942,13371,0,0,0
21213,47842,13181,0,0,0
21100,47720,12969,0,0,0
20992,47610,12776,0,0,0
20895,47522,12612,0,0,0
20787,47420,12440,0,0,0
20667,47295,12252,0,0,0
20561,47193,12089,0,0,0
20473,47122,11956,0,0,0
20381,47040,11812,0,0,0
20285,46938,11656,0,0,0
20207,46855,11527,0,0,0
20143,46791,11417,0,0,0
20069,46712,11287,0,0,0
19989,46622,11148,0,0,0
19924,46552,11036,0,0,0
19869,46495,10941,0,0,0
19802,46417,10826,0,0,0
19732,46332,10701,0,0,0
19683,46281,10605,0,0,0
19645,46250,10526,0,0,0
19587,46197,10423,0,0,0
19518,46132,10310,0,0,0
19471,46095,10229,0,0,0
19436,46069,10167,0,0,0
19383,46015,10086,0,0,0
19326,45953,9999,0,0,0
19293,45923,9942,0,0,0
19261,45899,9888,0,0,0
19207,45844,9807,0,0,0
19156,45789,9728,0,0,0
19126,45766,9682,0,0,0
19098,45746,9633,0,0,0
19050,45696,9552,0,0,0
19005,45643,9474,0,0,0
18977,45615,9424,0,0,0
18946,45583,9366,0,0,0
18898,45526,9279,0,0,0
18851,45473,9200,0,0,0
18814,45445,9146,0,0,0
18766,45410,9085,0,0,0
18706,45350,9000,0,0,0
18657,45299,8919,0,0,0
18623,45269,8856,0,0,0
18577,45228,8781,0,0,0
18514,45167,8680,0,0,0
18457,45116,8589,0,0,0
18412,45085,8522,0,0,0
18360,45041,8445,0,0,0
18300,44977,8352,0,0,0
18263,44940,8289,0,0,0
18253,44941,8276,0,0,0
18250,44948,8286,0,0,0
18264,44968,8333,0,0,0
18338,45052,8480,0,0,0
18482,45208,8745,0,0,0
18674,45404,9102,0,0,0
18927,45658,9568,0,0,0
19269,46013,10190,0,0,0
19685,46450,10940,0,0,0
20138,46915,11750,0,0,0
20627,47409,12614,0,0,0
21158,47955,13545,0,0,0
21708,48524,14502,0,0,0
22241,49064,15422,0,0,0
22750,49574,16289,0,0,0
23242,50075,17118,0,0,0
23700,50544,17879,0,0,0
24095,50941,18530,0,0,0
24434,51279,19080,0,0,0
24739,51588,19557,0,0,0
24991,51847,19942,0,0,0
25168,52032,20220,0,0,0
25301,52174,20429,0,0,0
25412,52296,20594,0,0,0
25481,52370,20688,0,0,0
25496,52378,20700,0,0,0
25494,52367,20680,0,0,0
25496,52362,20659,0,0,0
25472,52329,20606,0,0,0
25415,52256,20506,0,0,0
25355,52184,20392,0,0,0
25303,52136,20287,0,0,0
25235,52071,20159,0,0,0
25150,51977,20001,0,0,0
25074,51890,19857,0,0,0
25014,51821,19737,0,0,0
24946,51737,19605,0,0,0
24865,51635,19457,0,0,0
24792,51548,19326,0,0,0
24733,51486,19216,0,0,0
24666,51415,19097,0,0,0
24587,51326,18967,0,0,0
24512,51250,18855,0,0,0
24441,51187,18753,0,0,0
24351,51099,18624,0,0,0
24244,50989,18475,0,0,0
24149,50897,18339,0,0,0
24064,50819,18203,0,0,0
23959,50709,18024,0,0,0
23836,50571,17813,0,0,0
23728,50447,17613,0,0,0
23628,50334,17419,0,0,0
23508,50195,17194,0,0,0
23374,50045,16955,0,0,0
23257,49925,16744,0,0,0
23148,49817,16547,0,0,0
23025,49687,16334,0,0,0
22910,49563,16136,0,0,0
22829,49480,15991,0,0,0
22761,49410,15869,0,0,0
22682,49321,15736,0,0,0
22617,49246,15627,0,0,0
22587,49213,15571,0,0,0
22568,49195,15531,0,0,0
22545,49160,15479,0,0,0
22534,49138,15451,0,0,0
22545,49150,15468,0,0,0
22555,49165,15490,0,0,0
22553,49160,15495,0,0,0
22562,49169,15512,0,0,0
22591,49205,15554,0,0,0
22614,49233,15585,0,0,0
22623,49235,15594,0,0,0
22642,49246,15612,0,0,0
22671,49273,15647,0,0,0
22684,49281,15660,0,0,0
22674,49263,15641,0,0,0
22664,49255,15628,0,0,0
22659,49260,15625,0,0,0
22636,49243,15595,0,0,0
22591,49195,15528,0,0,0
22551,49152,15456,0,0,0
22519,49118,15384,0,0,0
22468,49057,15279,0,0,0
22397,48972,15146,0,0,0
22332,48901,15026,0,0,0
22269,48842,14913,0,0,0
22178,48755,14762,0,0,0
22070,48645,14582,0,0,0
21982,48557,14417,0,0,0
21902,48479,14257,0,0,0
21801,48370,14063,0,0,0
21697,48247,13856,0,0,0
21614,48149,13677,0,0,0
21528,48057,13506,0,0,0
21413,47933,13305,0,0,0
21291,47805,13099,0,0,0
21184,47710,12927,0,0,0
21080,47623,12758,0,0,0
20961,47509,12557,0,0,0
20840,47392,12353,0,0,0
20736,47300,12181,0,0,0
20638,47211,12021,0,0,0
20533,47099,11848,0,0,0
20435,46994,11685,0,0,0
20354,46917,11550,0,0,0
20273,46840,11413,0,0,0
20183,46743,11255,0,0,0
20103,46657,11109,0,0,0
20040,46596,10989,0,0,0
19971,46530,10865,0,0,0
19891,46448,10728,0,0,0
19823,46379,10608,0,0,0
19772,46331,10516,0,0,0
19714,46273,10415,0,0,0
19644,46193,10293,0,0,0
19584,46127,10189,0,0,0
19541,46086,10113,0,0,0
19486,46032,10026,0,0,0
19417,45958,9920,0,0,0
19358,45901,9828,0,0,0
19312,45866,9752,0,0,0
19257,45818,9665,0,0,0
19195,45755,9570,0,0,0
19147,45709,9502,0,0,0
19110,45682,9450,0,0,0
19063,45636,9377,0,0,0
19011,45575,9293,0,0,0
18982,45540,9235,0,0,0
18961,45523,9195,0,0,0
18915,45481,9131,0,0,0
18854,45419,9050,0,0,0
18811,45378,8990,0,0,0
18777,45352,8942,0,0,0
18723,45304,8873,0,0,0
18662,45244,8793,0,0,0
18623,45210,8736,0,0,0
18595,45191,8689,0,0,0
18550,45149,8618,0,0,0
18498,45096,8537,0,0,0
18460,45060,8474,0,0,0
18416,45020,8406,0,0,0
18352,44952,8309,0,0,0
18291,44884,8212,0,0,0
18246,44841,8136,0,0,0
18195,44793,8053,0,0,0
18127,44724,7948,0,0,0
18071,44670,7860,0,0,0
18040,44652,7810,0,0,0
18005,44631,7765,0,0,0
17962,44594,7712,0,0,0
17946,44583,7695,0,0,0
17973,44620,7740,0,0,0
18024,44678,7829,0,0,0
18105,44758,7971,0,0,0
18251,44907,8221,0,0,0
18481,45147,8612,0,0,0
18774,45449,9120,0,0,0
19126,45804,9739,0,0,0
19554,46242,10488,0,0,0
20048,46754,11350,0,0,0
20563,47285,12258,0,0,0
21083,47816,13185,0,0,0
21621,48373,14142,0,0,0
22164,48937,15099,0,0,0
22668,49449,15986,0,0,0
23124,49909,16788,0,0,0
23559,50357,17534,0,0,0
23959,50775,18210,0,0,0
24286,51111,18764,0,0,0
24550,51378,19207,0,0,0
24784,51621,19583,0,0,0
24973,51823,19881,0,0,0
25094,51948,20070,0,0,0
25170,52021,20183,0,0,0
25231,52084,20264,0,0,0
25260,52115,20297,0,0,0
25239,52084,20258,0,0,0
25196,52027,20180,0,0,0
25158,51987,20104,0,0,0
25107,51938,20002,0,0,0
25020,51849,19847,0,0,0
24921,51744,19680,0,0,0
24836,51654,19536,0,0,0
24752,51558,19384,0,0,0
24655,51441,19200,0,0,0
24563,51331,19020,0,0,0
24487,51245,18867,0,0,0
24404,51151,18708,0,0,0
24309,51035,18529,0,0,0
24223,50934,18368,0,0,0
24153,50863,18235,0,0,0
24073,50787,18094,0,0,0
23979,50689,17932,0,0,0
23895,50600,17784,0,0,0
23819,50527,17652,0,0,0
23730,50432,17496,0,0,0
23624,50309,17309,0,0,0
23525,50197,17131,0,0,0
23433,50101,16965,0,0,0
23324,49981,16772,0,0,0
23197,49838,16552,0,0,0
23080,49714,16351,0,0,0
22975,49609,16166,0,0,0
22859,49488,15964,0,0,0
22743,49358,15757,0,0,0
22645,49256,15584,0,0,0
22559,49172,15436,0,0,0
22467,49069,15281,0,0,0
22385,48971,15134,0,0,0
22331,48915,15035,0,0,0
22295,48886,14966,0,0,0
22251,48843,14889,0,0,0
22211,48797,14819,0,0,0
22195,48783,14792,0,0,0
22197,48788,14791,0,0,0
22192,48779,14779,0,0,0
22184,48769,14768,0,0,0
22190,48786,14790,0,0,0
22209,48814,14833,0,0,0
22224,48822,14860,0,0,0
22237,48824,14885,0,0,0
22258,48845,14930,0,0,0
22273,48865,14973,0,0,0
22270,48859,14986,0,0,0
22269,48854,14990,0,0,0
22278,48871,15001,0,0,0
22273,48875,14991,0,0,0
22250,48843,14945,0,0,0
22230,48809,14896,0,0,0
22213,48789,14860,0,0,0
22175,48751,14801,0,0,0
22109,48682,14704,0,0,0
22044,48614,14601,0,0,0
21992,48559,14502,0,0,0
21925,48487,14374,0,0,0
21836,48387,14209,0,0,0
21750,48291,14046,0,0,0
21670,48209,13892,0,0,0
21572,48111,13715,0,0,0
21455,47990,13517,0,0,0
21347,47881,13332,0,0,0
21251,47792,13164,0,0,0
21144,47687,12977,0,0,0
21024,47562,12776,0,0,0
20919,47458,12596,0,0,0
20827,47371,12430,0,0,0
20721,47260,12239,0,0,0
20606,47135,12034,0,0,0
20508,47040,11857,0,0,0
20423,46964,11701,0,0,0
20324,46868,11526,0,0,0
20218,46760,11343,0,0,0
20136,46678,11190,0,0,0
20066,46613,11058,0,0,0
19978,46527,10911,0,0,0
19885,46432,10757,0,0,0
19811,46365,10627,0,0,0
19746,46304,10503,0,0,0
19665,46217,10357,0,0,0
19582,46127,10210,0,0,0
19516,46064,10092,0,0,0
19450,46005,9982,0,0,0
19370,45923,9856,0,0,0
19300,45850,9743,0,0,0
19253,45805,9661,0,0,0
19199,45752,9577,0,0,0
19123,45672,9469,0,0,0
19055,45601,9374,0,0,0
19008,45562,9310,0,0,0
18952,45514,9238,0,0,0
18876,45437,9143,0,0,0
18816,45374,9061,0,0,0
18780,45343,9007,0,0,0
18738,45307,8944,0,0,0
18682,45251,8860,0,0,0
18639,45208,8789,0,0,0
18615,45189,8741,0,0,0
18580,45157,8682,0,0,0
18528,45101,8602,0,0,0
18485,45056,8536,0,0,0
18451,45030,8488,0,0,0
18398,44988,8424,0,0,0
18329,44923,8337,0,0,0
18278,44877,8269,0,0,0
18245,44852,8219,0,0,0
18199,44807,8142,0,0,0
18140,44742,8041,0,0,0
18098,44700,7960,0,0,0
18066,44674,7894,0,0,0
18014,44619,7803,0,0,0
17951,44546,7698,0,0,0
17906,44498,7622,0,0,0
17868,44466,7565,0,0,0
17810,44416,7490,0,0,0
17753,44366,7418,0,0,0
17728,44355,7387,0,0,0
17722,44359,7382,0,0,0
17720,44355,7382,0,0,0
17756,44381,7438,0,0,0
17855,44480,7595,0,0,0
17994,44629,7833,0,0,0
18161,44806,8142,0,0,0
18400,45053,8577,0,0,0
18742,45406,9177,0,0,0
19151,45825,9894,0,0,0
19593,46270,10676,0,0,0
20079,46760,11533,0,0,0
20606,47303,12457,0,0,0
21134,47846,13385,0,0,0
21637,48360,14276,0,0,0
22129,48869,15147,0,0,0
22610,49381,15991,0,0,0
23043,49845,16754,0,0,0
23415,50237,17408,0,0,0
23754,50590,17985,0,0,0
24060,50909,18490,0,0,0
24300,51155,18879,0,0,0
24475,51325,19154,0,0,0
24615,51464,19367,0,0,0
24723,51579,19528,0,0,0
24770,51629,19601,0,0,0
24762,51615,19592,0,0,0
24737,51586,19552,0,0,0
24700,51546,19484,0,0,0
24628,51465,19354,0,0,0
24533,51356,19184,0,0,0
24443,51264,19021,0,0,0
24349,51175,18861,0,0,0
24230,51054,18667,0,0,0
24106,50920,18458,0,0,0
24000,50808,18272,0,0,0
23899,50700,18086,0,0,0
23782,50566,17868,0,0,0
23667,50427,17650,0,0,0
23576,50321,17470,0,0,0
23490,50225,17302,0,0,0
23390,50109,17110,0,0,0
23291,49997,16923,0,0,0
23212,49920,16767,0,0,0
23132,49846,16607,0,0,0
23030,49736,16406,0,0,0
22916,49613,16192,0,0,0
22811,49504,15994,0,0,0
22699,49383,15781,0,0,0
22565,49228,15533,0,0,0
22427,49072,15288,0,0,0
22300,48941,15067,0,0,0
22172,48809,14841,0,0,0
22035,48668,14597,0,0,0
21910,48545,14376,0,0,0
21805,48453,14199,0,0,0
21701,48355,14029,0,0,0
21594,48239,13852,0,0,0
21510,48149,13709,0,0,0
21456,48097,13613,0,0,0
21404,48045,13527,0,0,0
21349,47981,13445,0,0,0
21317,47942,13402,0,0,0
21311,47940,13404,0,0,0
21307,47941,13409,0,0,0
21303,47936,13414,0,0,0
21321,47956,13453,0,0,0
21359,47998,13517,0,0,0
21390,48024,13562,0,0,0
21414,48038,13597,0,0,0
21446,48074,13657,0,0,0
21481,48121,13726,0,0,0
21499,48142,13768,0,0,0
21509,48148,13793,0,0,0
21528,48174,13834,0,0,0
21547,48206,13870,0,0,0
21540,48203,13861,0,0,0
21519,48172,13822,0,0,0
21505,48154,13788,0,0,0
21490,48136,13747,0,0,0
21446,48082,13663,0,0,0
21380,48007,13552,0,0,0
21317,47951,13450,0,0,0
21252,47898,13340,0,0,0
21169,47813,13192,0,0,0
21076,47713,13028,0,0,0
20992,47627,12877,0,0,0
20904,47535,12717,0,0,0
20796,47412,12525,0,0,0
20683,47284,12329,0,0,0
20580,47175,12151,0,0,0
20477,47067,11967,0,0,0
20366,46947,11765,0,0,0
20263,46841,11571,0,0,0
20172,46757,11397,0,0,0
20070,46660,11212,0,0,0
19949,46539,11007,0,0,0
19833,46427,10818,0,0,0
19730,46334,10657,0,0,0
19615,46229,10485,0,0,0
19482,46104,10292,0,0,0
19358,45996,10116,0,0,0
19255,45914,9967,0,0,0
19152,45824,9813,0,0,0
19048,45720,9651,0,0,0
18966,45635,9513,0,0,0
18906,45574,9399,0,0,0
18841,45498,9273,0,0,0
18765,45408,9134,0,0,0
18703,45345,9024,0,0,0
18656,45304,8937,0,0,0
18594,45241,8829,0,0,0
18518,45159,8707,0,0,0
18460,45099,8613,0,0,0
18414,45058,8542,0,0,0
18353,44997,8456,0,0,0
18282,44925,8360,0,0,0
18234,44880,8291,0,0,0
18201,44848,8235,0,0,0
18152,44790,8154,0,0,0
18099,44725,8063,0,0,0
18065,44694,8005,0,0,0
18033,44677,7956,0,0,0
17979,44634,7880,0,0,0
17926,44589,7803,0,0,0
17892,44574,7755,0,0,0
17855,44556,7707,0,0,0
17797,44505,7630,0,0,0
17749,44458,7562,0,0,0
17729,44441,7526,0,0,0
17707,44418,7482,0,0,0
17664,44363,7404,0,0,0
17625,44311,7331,0,0,0
17601,44287,7283,0,0,0
17563,44255,7222,0,0,0
17504,44198,7133,0,0,0
17453,44150,7055,0,0,0
17419,44127,7002,0,0,0
17381,44095,6939,0,0,0
17337,44040,6855,0,0,0
17312,44007,6798,0,0,0
17309,44010,6784,0,0,0
17304,44014,6780,0,0,0
17307,44019,6791,0,0,0
17360,44074,6879,0,0,0
17468,44192,7063,0,0,0
17609,44343,7320,0,0,0
17794,44539,7668,0,0,0
18057,44824,8158,0,0,0
18399,45189,8786,0,0,0
18798,45595,9504,0,0,0
19252,46041,10302,0,0,0
19761,46548,11182,0,0,0
20290,47084,12100,0,0,0
20802,47599,12996,0,0,0
21298,48095,13864,0,0,0
21790,48597,14717,0,0,0
22256,49081,15520,0,0,0
22661,49499,16222,0,0,0
23013,49859,16831,0,0,0
23333,50194,17377,0,0,0
23608,50489,17841,0,0,0
23816,50710,18195,0,0,0
23973,50871,18458,0,0,0
24105,51009,18667,0,0,0
24203,51113,18807,0,0,0
24251,51155,18855,0,0,0
24262,51158,18843,0,0,0
24252,51150,18802,0,0,0
24207,51106,18713,0,0,0
24122,51009,18566,0,0,0
24026,50900,18397,0,0,0
23936,50808,18233,0,0,0
23830,50702,18046,0,0,0
23702,50563,17822,0,0,0
23581,50427,17598,0,0,0
23478,50314,17392,0,0,0
23364,50186,17170,0,0,0
23229,50028,16921,0,0,0
23102,49881,16678,0,0,0
22992,49759,16453,0,0,0
22868,49624,16213,0,0,0
22725,49467,15950,0,0,0
22590,49322,15700,0,0,0
22465,49196,15469,0,0,0
22321,49050,15221,0,0,0
22161,48881,14952,0,0,0
22017,48731,14703,0,0,0
21893,48603,14475,0,0,0
21751,48452,14220,0,0,0
21593,48282,13944,0,0,0
21455,48139,13697,0,0,0
21332,48015,13473,0,0,0
21196,47870,13232,0,0,0
21061,47722,12997,0,0,0
20953,47610,12812,0,0,0
20860,47519,12662,0,0,0
20762,47415,12509,0,0,0
20679,47324,12378,0,0,0
20629,47284,12305,0,0,0
20591,47263,12264,0,0,0
20542,47223,12216,0,0,0
20511,47194,12190,0,0,0
20518,47209,12220,0,0,0
20543,47242,12276,0,0,0
20561,47261,12326,0,0,0
20587,47290,12394,0,0,0
20639,47357,12503,0,0,0
20699,47431,12615,0,0,0
20749,47479,12700,0,0,0
20805,47525,12789,0,0,0
20875,47590,12898,0,0,0
20936,47643,12988,0,0,0
20975,47665,13035,0,0,0
21009,47684,13074,0,0,0
21043,47713,13119,0,0,0
21056,47718,13131,0,0,0
21039,47688,13098,0,0,0
21024,47667,13061,0,0,0
21020,47667,13032,0,0,0
20997,47648,12971,0,0,0
20945,47595,12871,0,0,0
20890,47544,12771,0,0,0
20838,47501,12674,0,0,0
20763,47430,12544,0,0,0
20666,47331,12381,0,0,0
20576,47244,12229,0,0,0
20492,47171,12088,0,0,0
20392,47074,11918,0,0,0
20283,46957,11727,0,0,0
20191,46863,11559,0,0,0
20111,46785,11408,0,0,0
20017,46684,11233,0,0,0
19921,46575,11049,0,0,0
19842,46492,10893,0,0,0
19764,46415,10746,0,0,0
19665,46307,10570,0,0,0
19559,46192,10385,0,0,0
19472,46110,10233,0,0,0
19392,46041,10093,0,0,0
19296,45945,9928,0,0,0
19201,45845,9764,0,0,0
19127,45777,9639,0,0,0
19057,45720,9522,0,0,0
18971,45642,9381,0,0,0
18888,45561,9246,0,0,0
18826,45510,9150,0,0,0
18772,45466,9062,0,0,0
18707,45400,8956,0,0,0
18642,45336,8860,0,0,0
18594,45297,8793,0,0,0
18548,45255,8722,0,0,0
18490,45189,8626,0,0,0
18439,45132,8537,0,0,0
18401,45097,8473,0,0,0
18356,45055,8403,0,0,0
18303,44993,8309,0,0,0
18266,44944,8227,0,0,0
18248,44924,8175,0,0,0
18224,44894,8116,0,0,0
18189,44841,8032,0,0,0
18166,44792,7957,0,0,0
18151,44761,7904,0,0,0
18112,44721,7835,0,0,0
18050,44664,7740,0,0,0
17999,44621,7657,0,0,0
17961,44594,7593,0,0,0
17915,44553,7514,0,0,0
17863,44501,7430,0,0,0
17830,44478,7380,0,0,0
17811,44479,7357,0,0,0
17790,44469,7330,0,0,0
17782,44462,7320,0,0,0
17817,44501,7376,0,0,0
17891,44583,7497,0,0,0
17989,44684,7666,0,0,0
18130,44827,7921,0,0,0
18349,45061,8319,0,0,0
18644,45379,8850,0,0,0
18996,45740,9474,0,0,0
19402,46152,10202,0,0,0
19868,46636,11048,0,0,0
20368,47158,11953,0,0,0
20869,47669,12852,0,0,0
21372,48178,13746,0,0,0
21884,48705,14646,0,0,0
22378,49214,15507,0,0,0
22826,49667,16276,0,0,0
23234,50081,16968,0,0,0
23613,50473,17597,0,0,0
23941,50809,18131,0,0,0
24205,51071,18550,0,0,0
24420,51286,18888,0,0,0
24595,51468,19165,0,0,0
24719,51591,19355,0,0,0
24790,51647,19451,0,0,0
24834,51677,19493,0,0,0
24857,51700,19505,0,0,0
24840,51680,19456,0,0,0
24781,51607,19341,0,0,0
24710,51521,19204,0,0,0
24637,51436,19060,0,0,0
24541,51328,18879,0,0,0
24421,51191,18666,0,0,0
24302,51062,18462,0,0,0
24190,50948,18268,0,0,0
24067,50816,18050,0,0,0
23934,50666,17815,0,0,0
23812,50538,17598,0,0,0
23699,50424,17393,0,0,0
23571,50290,17163,0,0,0
23436,50142,16918,0,0,0
23314,50013,16697,0,0,0
23192,49892,16480,0,0,0
23053,49746,16232,0,0,0
22911,49589,15973,0,0,0
22786,49459,15743,0,0,0
22662,49337,15520,0,0,0
22517,49186,15264,0,0,0
22368,49024,14996,0,0,0
22237,48886,14750,0,0,0
22111,48755,14511,0,0,0
21971,48596,14251,0,0,0
21833,48436,13997,0,0,0
21718,48312,13787,0,0,0
21615,48205,13600,0,0,0
21508,48083,13412,0,0,0
21415,47972,13251,0,0,0
21352,47903,13146,0,0,0
21304,47856,13069,0,0,0
21257,47807,12997,0,0,0
21227,47780,12962,0,0,0
21227,47793,12980,0,0,0
21238,47818,13016,0,0,0
21254,47832,13051,0,0,0
21294,47871,13118,0,0,0
21359,47947,13225,0,0,0
21421,48019,13329,0,0,0
21475,48067,13408,0,0,0
21538,48122,13496,0,0,0
21607,48189,13599,0,0,0
21659,48237,13680,0,0,0
21691,48258,13730,0,0,0
21726,48290,13790,0,0,0
21763,48335,13865,0,0,0
21776,48353,13908,0,0,0
21764,48341,13914,0,0,0
21757,48335,13918,0,0,0
21753,48332,13912,0,0,0
21724,48298,13858,0,0,0
21675,48240,13767,0,0,0
21631,48191,13678,0,0,0
21580,48142,13579,0,0,0
21500,48060,13438,0,0,0
21411,47959,13271,0,0,0
21339,47878,13116,0,0,0
21271,47803,12966,0,0,0
21184,47700,12788,0,0,0
21087,47581,12596,0,0,0
21004,47482,12425,0,0,0
20922,47391,12258,0,0,0
20819,47273,12062,0,0,0
20700,47145,11857,0,0,0
20587,47040,11676,0,0,0
20476,46944,11504,0,0,0
20350,46828,11312,0,0,0
20223,46710,11121,0,0,0
20112,46615,10955,0,0,0
20005,46524,10791,0,0,0
19888,46416,10609,0,0,0
19778,46314,10435,0,0,0
19689,46233,10287,0,0,0
19599,46144,10135,0,0,0
19497,46033,9962,0,0,0
19407,45933,9802,0,0,0
19337,45861,9672,0,0,0
19262,45783,9536,0,0,0
19169,45686,9385,0,0,0
19088,45604,9256,0,0,0
19030,45553,9159,0,0,0
18968,45496,9059,0,0,0
18894,45422,8946,0,0,0
18832,45364,8849,0,0,0
18786,45329,8778,0,0,0
18737,45281,8702,0,0,0
18682,45215,8614,0,0,0
18642,45169,8550,0,0,0
18615,45150,8506,0,0,0
18575,45116,8440,0,0,0
18520,45060,8354,0,0,0
18479,45023,8290,0,0,0
18453,45005,8244,0,0,0
18413,44961,8170,0,0,0
18365,44893,8074,0,0,0
18336,44848,8001,0,0,0
18313,44821,7944,0,0,0
18266,44771,7862,0,0,0
18206,44708,7766,0,0,0
18167,44673,7699,0,0,0
18135,44651,7650,0,0,0
18085,44607,7583,0,0,0
18033,44558,7507,0,0,0
18005,44537,7455,0,0,0
17984,44524,7414,0,0,0
17949,44489,7360,0,0,0
17925,44460,7321,0,0,0
17937,44475,7339,0,0,0
17968,44513,7398,0,0,0
18008,44557,7490,0,0,0
18099,44653,7668,0,0,0
18275,44842,7981,0,0,0
18515,45097,8416,0,0,0
18808,45402,8961,0,0,0
19184,45793,9654,0,0,0
19653,46279,10497,0,0,0
20171,46810,11416,0,0,0
20708,47350,12363,0,0,0
21271,47925,13348,0,0,0
21851,48533,14358,0,0,0
22403,49116,15325,0,0,0
22909,49643,16210,0,0,0
23391,50141,17033,0,0,0
23844,50611,17789,0,0,0
24231,51009,18430,0,0,0
24550,51325,18947,0,0,0
24826,51599,19380,0,0,0
25059,51836,19733,0,0,0
25221,51997,19968,0,0,0
25313,52082,20098,0,0,0
25372,52144,20185,0,0,0
25408,52185,20237,0,0,0
25398,52169,20214,0,0,0
25353,52110,20130,0,0,0
25310,52057,20040,0,0,0
25259,52002,19940,0,0,0
25175,51905,19789,0,0,0
25075,51786,19609,0,0,0
24987,51686,19444,0,0,0
24894,51589,19278,0,0,0
24774,51460,19075,0,0,0
24650,51325,18866,0,0,0
24548,51221,18689,0,0,0
24449,51123,18518,0,0,0
24332,50997,18320,0,0,0
24224,50874,18124,0,0,0
24145,50787,17962,0,0,0
24067,50700,17802,0,0,0
23966,50577,17613,0,0,0
23862,50450,17423,0,0,0
23776,50349,17258,0,0,0
23685,50244,17084,0,0,0
23570,50109,16873,0,0,0
23453,49980,16665,0,0,0
23348,49879,16481,0,0,0
23235,49767,16285,0,0,0
23107,49626,16053,0,0,0
22985,49491,15827,0,0,0
22876,49380,15627,0,0,0
22758,49261,15421,0,0,0
22629,49123,15195,0,0,0
22515,49001,14995,0,0,0
22423,48912,14838,0,0,0
22331,48823,14685,0,0,0
22237,48727,14531,0,0,0
22164,48659,14416,0,0,0
22119,48622,14346,0,0,0
22080,48580,14281,0,0,0
22047,48532,14221,0,0,0
22038,48514,14204,0,0,0
22047,48522,14222,0,0,0
22051,48517,14230,0,0,0
22055,48506,14237,0,0,0
22079,48526,14282,0,0,0
22112,48566,14350,0,0,0
22131,48588,14397,0,0,0
22150,48606,14439,0,0,0
22190,48654,14512,0,0,0
22237,48712,14592,0,0,0
22264,48738,14635,0,0,0
22276,48744,14654,0,0,0
22294,48762,14683,0,0,0
22312,48782,14705,0,0,0
22306,48769,14684,0,0,0
22281,48734,14631,0,0,0
22257,48710,14582,0,0,0
22227,48684,14524,0,0,0
22170,48626,14427,0,0,0
22104,48554,14309,0,0,0
22046,48495,14197,0,0,0
21978,48425,14070,0,0,0
21888,48322,13912,0,0,0
21797,48217,13749,0,0,0
21713,48132,13599,0,0,0
21611,48034,13429,0,0,0
21484,47903,13226,0,0,0
21367,47781,13030,0,0,0
21271,47684,12861,0,0,0
21167,47576,12682,0,0,0
21045,47447,12480,0,0,0
20936,47336,12291,0,0,0
20848,47255,12127,0,0,0
20748,47161,11949,0,0,0
20629,47041,11747,0,0,0
20519,46937,11559,0,0,0
20424,46854,11394,0,0,0
20317,46757,11218,0,0,0
20192,46638,11027,0,0,0
20082,46538,10857,0,0,0
19992,46462,10710,0,0,0
19894,46372,10548,0,0,0
19790,46268,10374,0,0,0
19714,46193,10236,0,0,0
19659,46142,10129,0,0,0
19591,46067,10003,0,0,0
19511,45977,9867,0,0,0
19452,45918,9768,0,0,0
19405,45879,9691,0,0,0
19337,45819,9592,0,0,0
19266,45749,9486,0,0,0
19215,45702,9408,0,0,0
19167,45657,9335,0,0,0
19097,45578,9227,0,0,0
19028,45492,9115,0,0,0
18983,45441,9038,0,0,0
18939,45396,8962,0,0,0
18868,45322,8850,0,0,0
18796,45248,8731,0,0,0
18748,45206,8645,0,0,0
18700,45164,8560,0,0,0
18630,45091,8446,0,0,0
18562,45015,8334,0,0,0
18514,44965,8253,0,0,0
18462,44911,8169,0,0,0
18393,44834,8063,0,0,0
18336,44775,7975,0,0,0
18305,44756,7929,0,0,0
18283,44746,7894,0,0,0
18265,44731,7861,0,0,0
18279,44753,7880,0,0,0
18339,44832,7986,0,0,0
18432,44942,8158,0,0,0
18566,45082,8405,0,0,0
18774,45302,8784,0,0,0
19069,45619,9318,0,0,0
19425,45995,9970,0,0,0
19833,46413,10719,0,0,0
20305,46899,11580,0,0,0
20826,47440,12521,0,0,0
21359,47989,13475,0,0,0
21889,48533,14420,0,0,0
22425,49090,15360,0,0,0
22946,49637,16259,0,0,0
23417,50130,17063,0,0,0
23835,50565,17768,0,0,0
24219,50966,18401,0,0,0
24557,51319,18949,0,0,0
24820,51589,19375,0,0,0
25019,51783,19692,0,0,0
25185,51939,19945,0,0,0
25315,52058,20131,0,0,0
25384,52109,20221,0,0,0
25402,52111,20234,0,0,0
25398,52103,20214,0,0,0
25371,52079,20160,0,0,0
25307,52011,20051,0,0,0
25221,51915,19909,0,0,0
25135,51825,19766,0,0,0
25036,51724,19605,0,0,0
24906,51589,19405,0,0,0
24775,51451,19196,0,0,0
24663,51339,19003,0,0,0
24544,51223,18797,0,0,0
24404,51078,18562,0,0,0
24275,50938,18336,0,0,0
24173,50829,18142,0,0,0
24067,50714,17946,0,0,0
23944,50573,17725,0,0,0
23832,50441,17516,0,0,0
23740,50339,17337,0,0,0
23632,50228,17145,0,0,0
23501,50091,16917,0,0,0
23377,49962,16692,0,0,0
23267,49851,16482,0,0,0
23140,49720,16249,0,0,0
22994,49561,15988,0,0,0
22861,49414,15740,0,0,0
22739,49282,15512,0,0,0
22602,49129,15263,0,0,0
22449,48958,14998,0,0,0
22316,48818,14770,0,0,0
22207,48713,14581,0,0,0
22091,48594,14384,0,0,0
21970,48468,14184,0,0,0
21877,48379,14034,0,0,0
21806,48321,13923,0,0,0
21731,48250,13809,0,0,0
21665,48177,13712,0,0,0
21631,48141,13671,0,0,0
21612,48127,13660,0,0,0
21587,48100,13639,0,0,0
21578,48081,13631,0,0,0
21605,48105,13674,0,0,0
21647,48150,13737,0,0,0
21679,48179,13779,0,0,0
21708,48208,13826,0,0,0
21753,48264,13911,0,0,0
21798,48324,14003,0,0,0
21824,48353,14064,0,0,0
21843,48372,14115,0,0,0
21867,48408,14178,0,0,0
21888,48438,14223,0,0,0
21893,48434,14228,0,0,0
21889,48417,14224,0,0,0
21886,48412,14234,0,0,0
21869,48394,14217,0,0,0
21831,48345,14154,0,0,0
21787,48293,14076,0,0,0
21745,48251,13998,0,0,0
21689,48192,13887,0,0,0
21612,48102,13736,0,0,0
21537,48015,13582,0,0,0
21468,47942,13437,0,0,0
21379,47849,13267,0,0,0
21268,47726,13064,0,0,0
21164,47614,12871,0,0,0
21077,47524,12697,0,0,0
20982,47423,12509,0,0,0
20869,47306,12303,0,0,0
20758,47200,12110,0,0,0
20653,47104,11929,0,0,0
20534,46988,11728,0,0,0
20405,46856,11517,0,0,0
20288,46745,11329,0,0,0
20179,46650,11158,0,0,0
20057,46533,10966,0,0,0
19927,46398,10762,0,0,0
19817,46287,10585,0,0,0
19725,46200,10429,0,0,0
19624,46099,10255,0,0,0
19513,45988,10076,0,0,0
19420,45905,9930,0,0,0
19340,45840,9803,0,0,0
19250,45755,9657,0,0,0
19159,45663,9508,0,0,0
19090,45598,9392,0,0,0
19027,45543,9290,0,0,0
18949,45465,9174,0,0,0
18876,45392,9070,0,0,0
18831,45354,9003,0,0,0
18787,45318,8939,0,0,0
18725,45257,8848,0,0,0
18673,45204,8761,0,0,0
18649,45182,8702,0,0,0
18615,45147,8635,0,0,0
18556,45073,8537,0,0,0
18502,45006,8449,0,0,0
18468,44971,8391,0,0,0
18424,44929,8325,0,0,0
18357,44858,8229,0,0,0
18298,44798,8142,0,0,0
18254,44764,8080,0,0,0
18198,44715,8000,0,0,0
18125,44642,7892,0,0,0
18064,44583,7799,0,0,0
18022,44552,7736,0,0,0
17970,44509,7663,0,0,0
17912,44446,7576,0,0,0
17881,44413,7525,0,0,0
17885,44421,7523,0,0,0
17899,44434,7540,0,0,0
17935,44464,7597,0,0,0
18029,44566,7756,0,0,0
18186,44745,8032,0,0,0
18388,44965,8400,0,0,0
18648,45241,8881,0,0,0
19003,45619,9524,0,0,0
19436,46078,10303,0,0,0
19899,46559,11147,0,0,0
20395,47062,12040,0,0,0
20941,47617,13000,0,0,0
21506,48193,13984,0,0,0
22043,48737,14922,0,0,0
22554,49251,15803,0,0,0
23048,49759,16640,0,0,0
23496,50229,17397,0,0,0
23870,50619,18030,0,0,0
24192,50949,18561,0,0,0
24482,51252,19025,0,0,0
24717,51502,19397,0,0,0
24876,51667,19650,0,0,0
24994,51785,19824,0,0,0
25094,51886,19953,0,0,0
25147,51939,20007,0,0,0
25138,51922,19973,0,0,0
25105,51878,19902,0,0,0
25071,51838,19828,0,0,0
25011,51769,19715,0,0,0
24912,51654,19546,0,0,0
24806,51536,19363,0,0,0
24709,51434,19188,0,0,0
24593,51314,18986,0,0,0
24452,51164,18748,0,0,0
24321,51026,18519,0,0,0
24208,50909,18308,0,0,0
24079,50777,18081,0,0,0
23932,50621,17834,0,0,0
23798,50478,17605,0,0,0
23681,50355,17398,0,0,0
23553,50218,17176,0,0,0
23414,50064,16937,0,0,0
23292,49930,16715,0,0,0
23184,49815,16506,0,0,0
23059,49672,16263,0,0,0
22916,49504,15993,0,0,0
22786,49361,15747,0,0,0
22667,49235,15522,0,0,0
22529,49085,15274,0,0,0
22382,48921,15010,0,0,0
22262,48790,14778,0,0,0
22159,48680,14575,0,0,0
22049,48554,14365,0,0,0
21944,48432,14165,0,0,0
21870,48352,14015,0,0,0
21810,48293,13899,0,0,0
21738,48221,13786,0,0,0
21678,48161,13698,0,0,0
21660,48147,13665,0,0,0
21659,48150,13660,0,0,0
21651,48136,13655,0,0,0
21658,48136,13677,0,0,0
21694,48177,13745,0,0,0
21728,48224,13821,0,0,0
21746,48253,13880,0,0,0
21783,48297,13959,0,0,0
21853,48376,14078,0,0,0
21923,48448,14195,0,0,0
21973,48489,14286,0,0,0
22032,48538,14384,0,0,0
22108,48614,14504,0,0,0
22165,48674,14600,0,0,0
22190,48698,14652,0,0,0
22212,48720,14694,0,0,0
22237,48752,14736,0,0,0
22238,48756,14739,0,0,0
22211,48722,14696,0,0,0
22189,48693,14648,0,0,0
22174,48680,14607,0,0,0
22138,48646,14533,0,0,0
22079,48581,14421,0,0,0
22023,48522,14311,0,0,0
21972,48472,14203,0,0,0
21894,48387,14052,0,0,0
21796,48272,13868,0,0,0
21711,48177,13699,0,0,0
21636,48100,13543,0,0,0
21534,47998,13356,0,0,0
21416,47875,13146,0,0,0
21319,47776,12963,0,0,0
21235,47692,12798,0,0,0
21129,47581,12609,0,0,0
21012,47456,12406,0,0,0
20918,47357,12231,0,0,0
20835,47273,12075,0,0,0
20735,47168,11902,0,0,0
20627,47054,11722,0,0,0
20538,46966,11566,0,0,0
20453,46883,11420,0,0,0
20349,46774,11255,0,0,0
20242,46664,11092,0,0,0
20151,46585,10958,0,0,0
20066,46513,10830,0,0,0
19975,46422,10689,0,0,0
19899,46340,10561,0,0,0
19849,46287,10465,0,0,0
19794,46230,10364,0,0,0
19722,46151,10241,0,0,0
19661,46085,10132,0,0,0
19622,46051,10051,0,0,0
19571,46006,9959,0,0,0
19498,45930,9840,0,0,0
19432,45867,9738,0,0,0
19387,45835,9672,0,0,0
19338,45798,9602,0,0,0
19277,45741,9516,0,0,0
19230,45699,9444,0,0,0
19201,45677,9393,0,0,0
19162,45637,9325,0,0,0
19111,45572,9233,0,0,0
19075,45525,9159,0,0,0
19051,45501,9104,0,0,0
19004,45456,9023,0,0,0
18935,45387,8919,0,0,0
18885,45340,8845,0,0,0
18856,45317,8801,0,0,0
18819,45277,8745,0,0,0
18788,45237,8692,0,0,0
18799,45252,8702,0,0,0
18847,45311,8775,0,0,0
18914,45381,8884,0,0,0
19023,45491,9071,0,0,0
19211,45688,9396,0,0,0
19463,45960,9853,0,0,0
19758,46272,10404,0,0,0
20115,46641,11068,0,0,0
20551,47096,11863,0,0,0
21037,47607,12740,0,0,0
21541,48128,13643,0,0,0
22066,48672,14574,0,0,0
22616,49249,15533,0,0,0
23155,49810,16456,0,0,0
23645,50308,17285,0,0,0
24093,50762,18034,0,0,0
24510,51194,18717,0,0,0
24869,51566,19291,0,0,0
25153,51850,19733,0,0,0
25381,52077,20088,0,0,0
25567,52271,20383,0,0,0
25702,52405,20590,0,0,0
25787,52474,20700,0,0,0
25846,52512,20756,0,0,0
25880,52537,20781,0,0,0
25870,52518,20747,0,0,0
25813,52451,20651,0,0,0
25742,52375,20539,0,0,0
25670,52305,20424,0,0,0
25578,52210,20274,0,0,0
25466,52087,20090,0,0,0
25357,51969,19912,0,0,0
25260,51864,19743,0,0,0
25154,51741,19549,0,0,0
25038,51603,19338,0,0,0
24930,51484,19149,0,0,0
24827,51381,18974,0,0,0
24712,51260,18777,0,0,0
24590,51123,18566,0,0,0
24484,51010,18378,0,0,0
24389,50912,18203,0,0,0
24279,50790,18005,0,0,0
24157,50654,17789,0,0,0
24048,50539,17592,0,0,0
23948,50435,17400,0,0,0
23829,50300,17176,0,0,0
23696,50147,16929,0,0,0
23576,50014,16698,0,0,0
23463,49891,16479,0,0,0
23335,49745,16243,0,0,0
23202,49593,16007,0,0,0
23091,49469,15802,0,0,0
22994,49361,15615,0,0,0
22895,49243,15429,0,0,0
22806,49138,15267,0,0,0
22743,49069,15151,0,0,0
22693,49017,15052,0,0,0
22646,48960,14954,0,0,0
22618,48923,14890,0,0,0
22616,48925,14877,0,0,0
22621,48934,14885,0,0,0
22621,48933,14898,0,0,0
22637,48950,14943,0,0,0
22677,48995,15027,0,0,0
22719,49036,15112,0,0,0
22754,49059,15180,0,0,0
22796,49094,15261,0,0,0
22847,49153,15363,0,0,0
22888,49200,15447,0,0,0
22913,49223,15501,0,0,0
22941,49254,15558,0,0,0
22974,49298,15619,0,0,0
22993,49323,15650,0,0,0
22995,49326,15652,0,0,0
22995,49340,15660,0,0,0
22996,49357,15666,0,0,0
22979,49341,15626,0,0,0
22942,49296,15548,0,0,0
22905,49256,15474,0,0,0
22862,49215,15399,0,0,0
22794,49140,15292,0,0,0
22714,49048,15167,0,0,0
22646,48977,15056,0,0,0
22587,48917,14946,0,0,0
22510,48831,14799,0,0,0
22415,48727,14625,0,0,0
22327,48641,14460,0,0,0
22242,48561,14293,0,0,0
22136,48451,14093,0,0,0
22015,48325,13877,0,0,0
21905,48218,13683,0,0,0
21801,48117,13499,0,0,0
21681,47995,13295,0,0,0
21562,47872,13090,0,0,0
21460,47774,12910,0,0,0
21359,47679,12729,0,0,0
21245,47564,12529,0,0,0
21140,47454,12339,0,0,0
21056,47367,12178,0,0,0
20968,47276,12015,0,0,0
20862,47165,11839,0,0,0
20764,47066,11685,0,0,0
20686,46995,11562,0,0,0
20599,46923,11434,0,0,0
20500,46831,11288,0,0,0
20414,46754,11161,0,0,0
20351,46707,11067,0,0,0
20285,46654,10967,0,0,0
20210,46579,10849,0,0,0
20148,46510,10746,0,0,0
20104,46460,10664,0,0,0
20055,46403,10573,0,0,0
19999,46334,10470,0,0,0
19953,46282,10389,0,0,0
19915,46245,10325,0,0,0
19865,46193,10243,0,0,0
19804,46125,10145,0,0,0
19754,46077,10068,0,0,0
19713,46044,10005,0,0,0
19653,45987,9917,0,0,0
19583,45914,9815,0,0,0
19532,45867,9736,0,0,0
19491,45838,9672,0,0,0
19430,45783,9579,0,0,0
19360,45710,9470,0,0,0
19310,45664,9387,0,0,0
19275,45637,9321,0,0,0
19226,45591,9240,0,0,0
19178,45541,9158,0,0,0
19162,45528,9116,0,0,0
19169,45542,9113,0,0,0
19186,45559,9138,0,0,0
19242,45615,9232,0,0,0
19372,45753,9450,0,0,0
19567,45960,9793,0,0,0
19819,46215,10250,0,0,0
20150,46551,10851,0,0,0
20569,46988,11601,0,0,0
21037,47479,12443,0,0,0
21529,47984,13333,0,0,0
22059,48530,14282,0,0,0
22630,49122,15276,0,0,0
23192,49705,16241,0,0,0
23711,50240,17134,0,0,0
24200,50750,17968,0,0,0
24662,51239,18741,0,0,0
25064,51657,19404,0,0,0
25395,51987,19942,0,0,0
25675,52271,20397,0,0,0
25910,52520,20779,0,0,0
26075,52694,21052,0,0,0
26174,52792,21217,0,0,0
26242,52859,21325,0,0,0
26287,52909,21391,0,0,0
26289,52912,21389,0,0,0
26258,52873,21330,0,0,0
26225,52834,21261,0,0,0
26187,52798,21182,0,0,0
26119,52722,21054,0,0,0
26031,52616,20891,0,0,0
25954,52527,20744,0,0,0
25879,52445,20605,0,0,0
25777,52326,20434,0,0,0
25664,52189,20251,0,0,0
25570,52080,20094,0,0,0
25482,51983,19946,0,0,0
25378,51863,19770,0,0,0
25278,51745,19592,0,0,0
25206,51664,19452,0,0,0
25135,51590,19316,0,0,0
25040,51483,19144,0,0,0
24943,51368,18968,0,0,0
24865,51281,18822,0,0,0
24783,51192,18673,0,0,0
24674,51066,18479,0,0,0
24555,50927,18271,0,0,0
24447,50806,18080,0,0,0
24337,50684,17879,0,0,0
24213,50542,17650,0,0,0
24091,50405,17431,0,0,0
23981,50293,17244,0,0,0
23868,50178,17055,0,0,0
23752,50047,16847,0,0,0
23651,49935,16660,0,0,0
23569,49855,16511,0,0,0
23487,49776,16369,0,0,0
23403,49691,16223,0,0,0
23340,49632,16111,0,0,0
23301,49607,16043,0,0,0
23267,49580,15987,0,0,0
23234,49541,15937,0,0,0
23227,49528,15929,0,0,0
23250,49551,15961,0,0,0
23277,49573,15996,0,0,0
23297,49582,16027,0,0,0
23331,49611,16087,0,0,0
23376,49658,16172,0,0,0
23411,49693,16242,0,0,0
23436,49715,16302,0,0,0
23470,49755,16380,0,0,0
23509,49807,16464,0,0,0
23531,49834,16517,0,0,0
23540,49840,16542,0,0,0
23559,49860,16576,0,0,0
23584,49887,16607,0,0,0
23584,49879,16594,0,0,0
23568,49845,16546,0,0,0
23562,49830,16505,0,0,0
23550,49819,16459,0,0,0
23504,49772,16376,0,0,0
23445,49704,16269,0,0,0
23397,49652,16169,0,0,0
23334,49593,16054,0,0,0
23237,49494,15897,0,0,0
23137,49390,15732,0,0,0
23057,49314,15589,0,0,0
22966,49231,15429,0,0,0
22847,49109,15227,0,0,0
22730,48982,15022,0,0,0
22631,48880,14843,0,0,0
22528,48775,14659,0,0,0
22410,48647,14448,0,0,0
22298,48526,14247,0,0,0
22200,48429,14075,0,0,0
22099,48324,13894,0,0,0
21987,48196,13688,0,0,0
21888,48084,13497,0,0,0
21810,48002,13337,0,0,0
21726,47912,13173,0,0,0
21628,47803,12994,0,0,0
21540,47709,12835,0,0,0
21466,47637,12701,0,0,0
21381,47554,12554,0,0,0
21282,47455,12388,0,0,0
21193,47371,12238,0,0,0
21115,47308,12109,0,0,0
21028,47230,11967,0,0,0
20937,47138,11819,0,0,0
20860,47066,11701,0,0,0
20791,47009,11601,0,0,0
20713,46930,11481,0,0,0
20633,46840,11353,0,0,0
20575,46778,11256,0,0,0
20536,46736,11177,0,0,0
20487,46674,11078,0,0,0
20425,46598,10969,0,0,0
20377,46545,10889,0,0,0
20339,46509,10827,0,0,0
20284,46453,10746,0,0,0
20220,46388,10652,0,0,0
20174,46346,10579,0,0,0
20133,46312,10513,0,0,0
20071,46252,10423,0,0,0
20008,46189,10330,0,0,0
19969,46154,10264,0,0,0
19929,46120,10195,0,0,0
19868,46057,10096,0,0,0
19815,45999,10000,0,0,0
19788,45968,9934,0,0,0
19753,45932,9858,0,0,0
19691,45869,9751,0,0,0
19634,45819,9660,0,0,0
19605,45807,9617,0,0,0
19588,45808,9594,0,0,0
19583,45807,9584,0,0,0
19625,45851,9642,0,0,0
19727,45966,9810,0,0,0
19876,46130,10070,0,0,0
20082,46341,10428,0,0,0
20369,46634,10933,0,0,0
20735,47013,11587,0,0,0
21150,47439,12337,0,0,0
21601,47896,13160,0,0,0
22101,48410,14066,0,0,0
22637,48969,15026,0,0,0
23167,49519,15968,0,0,0
23671,50042,16865,0,0,0
24160,50559,17729,0,0,0
24624,51055,18534,0,0,0
25033,51486,19230,0,0,0
25384,51853,19823,0,0,0
25694,52185,20342,0,0,0
25953,52472,20777,0,0,0
26141,52677,21092,0,0,0
26270,52811,21303,0,0,0
26376,52919,21460,0,0,0
26453,52997,21566,0,0,0
26474,53009,21590,0,0,0
26457,52979,21557,0,0,0
26436,52955,21518,0,0,0
26398,52917,21456,0,0,0
26322,52833,21338,0,0,0
26235,52732,21197,0,0,0
26166,52653,21076,0,0,0
26091,52573,20950,0,0,0
25993,52460,20791,0,0,0
25900,52347,20632,0,0,0
25834,52261,20501,0,0,0
25762,52174,20364,0,0,0
25667,52063,20197,0,0,0
25585,51966,20037,0,0,0
25532,51903,19910,0,0,0
25476,51836,19780,0,0,0
25401,51744,19626,0,0,0
25331,51662,19485,0,0,0
25276,51605,19372,0,0,0
25202,51531,19240,0,0,0
25096,51422,19065,0,0,0
24991,51313,18884,0,0,0
24896,51215,18712,0,0,0
24785,51095,18514,0,0,0
24656,50945,18284,0,0,0
24533,50804,18058,0,0,0
24418,50681,17848,0,0,0
24289,50542,17621,0,0,0
24150,50386,17380,0,0,0
24032,50258,17172,0,0,0
23935,50162,17004,0,0,0
23831,50059,16831,0,0,0
23730,49950,16660,0,0,0
23662,49883,16543,0,0,0
23620,49847,16474,0,0,0
23572,49799,16404,0,0,0
23531,49751,16345,0,0,0
23524,49744,16338,0,0,0
23534,49760,16361,0,0,0
23535,49759,16370,0,0,0
23547,49759,16385,0,0,0
23593,49795,16445,0,0,0
23642,49840,16521,0,0,0
23665,49858,16571,0,0,0
23686,49874,16619,0,0,0
23729,49923,16697,0,0,0
23768,49976,16771,0,0,0
23778,49997,16809,0,0,0
23788,50011,16838,0,0,0
23819,50047,16885,0,0,0
23842,50076,16916,0,0,0
23832,50063,16900,0,0,0
23816,50041,16872,0,0,0
23811,50036,16859,0,0,0
23793,50016,16825,0,0,0
23750,49958,16742,0,0,0
23703,49902,16648,0,0,0
23663,49868,16565,0,0,0
23599,49812,16454,0,0,0
23504,49713,16296,0,0,0
23413,49613,16135,0,0,0
23335,49533,15988,0,0,0
23242,49437,15818,0,0,0
23128,49312,15617,0,0,0
23025,49202,15426,0,0,0
22935,49112,15251,0,0,0
22828,49004,15055,0,0,0
22703,48869,14833,0,0,0
22592,48748,14630,0,0,0
22496,48648,14449,0,0,0
22384,48529,14247,0,0,0
22255,48392,14027,0,0,0
22137,48280,13834,0,0,0
22031,48188,13666,0,0,0
21913,48075,13478,0,0,0
21798,47949,13280,0,0,0
21710,47854,13115,0,0,0
21633,47780,12967,0,0,0
21541,47684,12798,0,0,0
21447,47585,12629,0,0,0
21373,47520,12498,0,0,0
21303,47463,12381,0,0,0
21214,47373,12236,0,0,0
21125,47276,12090,0,0,0
21059,47211,11980,0,0,0
20997,47154,11877,0,0,0
20917,47070,11748,0,0,0
20838,46987,11625,0,0,0
20784,46936,11542,0,0,0
20734,46890,11460,0,0,0
20670,46817,11344,0,0,0
20608,46747,11232,0,0,0
20565,46706,11151,0,0,0
20518,46662,11065,0,0,0
20453,46592,10953,0,0,0
20392,46529,10855,0,0,0
20347,46494,10789,0,0,0
20296,46452,10719,0,0,0
20233,46387,10625,0,0,0
20181,46331,10541,0,0,0
20145,46297,10483,0,0,0
20099,46251,10410,0,0,0
20037,46182,10307,0,0,0
19982,46125,10214,0,0,0
19939,46088,10143,0,0,0
19881,46036,10055,0,0,0
19806,45962,9939,0,0,0
19741,45900,9836,0,0,0
19689,45859,9757,0,0,0
19633,45807,9670,0,0,0
19575,45743,9576,0,0,0
19540,45706,9509,0,0,0
19530,45700,9476,0,0,0
19526,45691,9452,0,0,0
19537,45690,9455,0,0,0
19597,45745,9542,0,0,0
19705,45864,9726,0,0,0
19845,46016,9995,0,0,0
20036,46222,10378,0,0,0
20314,46523,10920,0,0,0
20676,46910,11602,0,0,0
21090,47334,12364,0,0,0
21549,47799,13193,0,0,0
22062,48336,14106,0,0,0
22603,48914,15066,0,0,0
23132,49474,16004,0,0,0
23646,50013,16906,0,0,0
24151,50549,17772,0,0,0
24614,51047,18560,0,0,0
25004,51466,19227,0,0,0
25339,51825,19791,0,0,0
25634,52148,20275,0,0,0
25867,52403,20654,0,0,0
26026,52564,20916,0,0,0
26142,52676,21105,0,0,0
26238,52774,21254,0,0,0
26291,52825,21336,0,0,0
26292,52813,21333,0,0,0
26273,52778,21290,0,0,0
26250,52745,21229,0,0,0
26195,52682,21123,0,0,0
26104,52575,20967,0,0,0
26013,52467,20808,0,0,0
25934,52376,20663,0,0,0
25839,52267,20496,0,0,0
25721,52130,20301,0,0,0
25611,52004,20114,0,0,0
25512,51899,19941,0,0,0
25400,51773,19745,0,0,0
25275,51624,19523,0,0,0
25167,51494,19322,0,0,0
25071,51382,19140,0,0,0
24962,51254,18940,0,0,0
24843,51116,18730,0,0,0
24738,51005,18549,0,0,0
24636,50911,18382,0,0,0
24516,50793,18183,0,0,0
24390,50663,17964,0,0,0
24276,50554,17765,0,0,0
24158,50449,17567,0,0,0
24017,50312,17333,0,0,0
23872,50160,17082,0,0,0
23751,50035,16855,0,0,0
23643,49923,16644,0,0,0
23518,49789,16415,0,0,0
23390,49648,16184,0,0,0
23284,49541,15992,0,0,0
23196,49455,15829,0,0,0
23104,49358,15671,0,0,0
23021,49268,15538,0,0,0
22967,49215,15459,0,0,0
22923,49173,15397,0,0,0
22872,49115,15324,0,0,0
22836,49071,15277,0,0,0
22831,49069,15282,0,0,0
22831,49072,15302,0,0,0
22822,49055,15309,0,0,0
22830,49057,15339,0,0,0
22865,49097,15406,0,0,0
22897,49133,15471,0,0,0
22913,49145,15514,0,0,0
22939,49171,15568,0,0,0
22980,49220,15639,0,0,0
23006,49249,15684,0,0,0
23011,49241,15689,0,0,0
23016,49238,15694,0,0,0
23025,49251,15710,0,0,0
23012,49244,15698,0,0,0
22982,49211,15653,0,0,0
22964,49190,15611,0,0,0
22951,49178,15566,0,0,0
22910,49130,15480,0,0,0
22848,49051,15357,0,0,0
22792,48983,15240,0,0,0
22732,48921,15121,0,0,0
22647,48825,14962,0,0,0
22546,48709,14781,0,0,0
22451,48614,14622,0,0,0
22356,48530,14469,0,0,0
22244,48424,14286,0,0,0
22128,48305,14088,0,0,0
22031,48209,13912,0,0,0
21943,48122,13742,0,0,0
21840,48011,13541,0,0,0
21725,47886,13327,0,0,0
21621,47783,13138,0,0,0
21524,47691,12962,0,0,0
21411,47578,12762,0,0,0
21290,47458,12552,0,0,0
21183,47360,12364,0,0,0
21076,47265,12184,0,0,0
20952,47144,11990,0,0,0
20834,47026,11807,0,0,0
20740,46935,11653,0,0,0
20644,46842,11498,0,0,0
20527,46727,11322,0,0,0
20420,46623,11159,0,0,0
20343,46555,11035,0,0,0
20263,46483,10909,0,0,0
20165,46382,10755,0,0,0
20081,46293,10616,0,0,0
20023,46235,10509,0,0,0
19963,46171,10393,0,0,0
19893,46087,10258,0,0,0
19838,46022,10147,0,0,0
19799,45983,10067,0,0,0
19749,45932,9977,0,0,0
19686,45863,9868,0,0,0
19634,45813,9781,0,0,0
19596,45785,9724,0,0,0
19547,45740,9653,0,0,0
19488,45678,9569,0,0,0
19443,45635,9509,0,0,0
19411,45612,9464,0,0,0
19369,45571,9394,0,0,0
19317,45513,9306,0,0,0
19280,45474,9238,0,0,0
19250,45449,9183,0,0,0
19200,45400,9103,0,0,0
19137,45331,9007,0,0,0
19091,45283,8933,0,0,0
19056,45249,8877,0,0,0
19003,45194,8800,0,0,0
18942,45131,8711,0,0,0
18899,45098,8649,0,0,0
18859,45076,8595,0,0,0
18800,45028,8513,0,0,0
18748,44981,8433,0,0,0
18727,44974,8397,0,0,0
18722,44985,8387,0,0,0
18717,44987,8386,0,0,0
18744,45015,8444,0,0,0
18832,45115,8612,0,0,0
18975,45271,8877,0,0,0
19170,45467,9234,0,0,0
19437,45738,9727,0,0,0
19788,46104,10374,0,0,0
20201,46527,11128,0,0,0
20657,46981,11944,0,0,0
21157,47482,12828,0,0,0
21691,48035,13768,0,0,0
22222,48590,14705,0,0,0
22730,49115,15597,0,0,0
23226,49628,16454,0,0,0
23705,50130,17267,0,0,0
24130,50578,17983,0,0,0
24488,50953,18585,0,0,0
24800,51285,19105,0,0,0
25070,51578,19547,0,0,0
25273,51795,19876,0,0,0
25410,51932,20094,0,0,0
25509,52034,20250,0,0,0
25578,52107,20358,0,0,0
25592,52117,20383,0,0,0
25559,52075,20334,0,0,0
25517,52032,20267,0,0,0
25470,51989,20184,0,0,0
25390,51902,20046,0,0,0
25290,51783,19869,0,0,0
25200,51680,19697,0,0,0
25113,51583,19520,0,0,0
25007,51457,19306,0,0,0
24893,51322,19079,0,0,0
24795,51214,18876,0,0,0
24698,51108,18675,0,0,0
24581,50969,18442,0,0,0
24454,50816,18202,0,0,0
24337,50688,17992,0,0,0
24223,50569,17792,0,0,0
24092,50425,17562,0,0,0
23951,50269,17320,0,0,0
23822,50135,17098,0,0,0
23695,50007,16875,0,0,0
23556,49856,16623,0,0,0
23416,49703,16367,0,0,0
23291,49572,16127,0,0,0
23166,49437,15884,0,0,0
23033,49280,15626,0,0,0
22917,49139,15392,0,0,0
22825,49033,15197,0,0,0
22728,48927,15007,0,0,0
22613,48804,14806,0,0,0
22514,48703,14637,0,0,0
22446,48646,14518,0,0,0
22383,48591,14414,0,0,0
22318,48528,14318,0,0,0
22279,48492,14269,0,0,0
22267,48494,14272,0,0,0
22257,48495,14287,0,0,0
22249,48488,14300,0,0,0
22267,48510,14348,0,0,0
22309,48562,14433,0,0,0
22348,48600,14509,0,0,0
22384,48623,14570,0,0,0
22438,48671,14656,0,0,0
22501,48738,14755,0,0,0
22547,48780,14823,0,0,0
22581,48802,14871,0,0,0
22620,48840,14935,0,0,0
22654,48882,14998,0,0,0
22665,48894,15022,0,0,0
22660,48886,15022,0,0,0
22661,48888,15033,0,0,0
22661,48891,15038,0,0,0
22632,48858,15001,0,0,0
22583,48802,14931,0,0,0
22543,48762,14861,0,0,0
22507,48725,14781,0,0,0
22448,48657,14658,0,0,0
22373,48567,14512,0,0,0
22304,48490,14372,0,0,0
22229,48409,14219,0,0,0
22133,48299,14032,0,0,0
22035,48186,13842,0,0,0
21952,48095,13675,0,0,0
21860,47999,13501,0,0,0
21741,47875,13302,0,0,0
21629,47761,13118,0,0,0
21542,47684,12969,0,0,0
21452,47603,12812,0,0,0
21346,47496,12625,0,0,0
21250,47401,12450,0,0,0
21173,47333,12302,0,0,0
21089,47254,12146,0,0,0
20987,47155,11969,0,0,0
20895,47067,11809,0,0,0
20817,47000,11675,0,0,0
20733,46922,11529,0,0,0
20639,46824,11365,0,0,0
20557,46735,11216,0,0,0
20490,46666,11091,0,0,0
20414,46586,10956,0,0,0
20329,46490,10810,0,0,0
20258,46412,10691,0,0,0
20204,46359,10594,0,0,0
20145,46297,10481,0,0,0
20084,46226,10362,0,0,0
20039,46183,10275,0,0,0
20004,46158,10211,0,0,0
19952,46108,10133,0,0,0
19891,46040,10046,0,0,0
19850,45996,9986,0,0,0
19819,45971,9941,0,0,0
19767,45923,9870,0,0,0
19703,45859,9783,0,0,0
19658,45821,9719,0,0,0
19619,45791,9664,0,0,0
19559,45732,9578,0,0,0
19501,45667,9484,0,0,0
19467,45634,9418,0,0,0
19432,45604,9351,0,0,0
19372,45542,9250,0,0,0
19314,45479,9151,0,0,0
19280,45449,9085,0,0,0
19244,45420,9017,0,0,0
19186,45362,8917,0,0,0
19128,45305,8826,0,0,0
19089,45276,8772,0,0,0
19055,45247,8722,0,0,0
19017,45202,8659,0,0,0
19002,45183,8628,0,0,0
19024,45216,8665,0,0,0
19072,45277,8754,0,0,0
19149,45362,8899,0,0,0
19285,45513,9152,0,0,0
19496,45750,9541,0,0,0
19768,46047,10042,0,0,0
20098,46388,10644,0,0,0
20499,46799,11367,0,0,0
20961,47279,12197,0,0,0
21447,47782,13073,0,0,0
21942,48287,13962,0,0,0
22458,48815,14869,0,0,0
22978,49355,15775,0,0,0
23466,49862,16626,0,0,0
23916,50323,17401,0,0,0
24348,50763,18120,0,0,0
24749,51172,18771,0,0,0
25081,51507,19305,0,0,0
25346,51770,19726,0,0,0
25574,52004,20080,0,0,0
25759,52204,20365,0,0,0
25875,52326,20545,0,0,0
25937,52380,20640,0,0,0
25980,52417,20699,0,0,0
26004,52434,20717,0,0,0
25984,52399,20660,0,0,0
25940,52335,20560,0,0,0
25897,52281,20460,0,0,0
25836,52216,20342,0,0,0
25740,52108,20177,0,0,0
25638,51991,20003,0,0,0
25558,51903,19855,0,0,0
25473,51815,19700,0,0,0
25363,51696,19507,0,0,0
25251,51572,19310,0,0,0
25161,51472,19140,0,0,0
25076,51371,18964,0,0,0
24980,51251,18764,0,0,0
24887,51136,18571,0,0,0
24802,51043,18402,0,0,0
24707,50938,18224,0,0,0
24591,50806,18021,0,0,0
24474,50684,17827,0,0,0
24366,50583,17648,0,0,0
24247,50465,17446,0,0,0
24109,50315,17205,0,0,0
23978,50170,16965,0,0,0
23861,50046,16739,0,0,0
23736,49908,16498,0,0,0
23602,49750,16238,0,0,0
23487,49611,15999,0,0,0
23392,49505,15793,0,0,0
23297,49396,15593,0,0,0
23203,49283,15403,0,0,0
23135,49204,15266,0,0,0
23090,49160,15180,0,0,0
23042,49113,15102,0,0,0
22999,49065,15041,0,0,0
22993,49061,15036,0,0,0
23011,49093,15075,0,0,0
23017,49114,15105,0,0,0
23024,49130,15137,0,0,0
23064,49172,15210,0,0,0
23116,49223,15303,0,0,0
23150,49249,15374,0,0,0
23183,49274,15440,0,0,0
23237,49330,15535,0,0,0
23293,49391,15630,0,0,0
23328,49416,15685,0,0,0
23349,49422,15721,0,0,0
23376,49443,15771,0,0,0
23404,49470,15815,0,0,0
23413,49475,15823,0,0,0
23414,49474,15816,0,0,0
23423,49488,15819,0,0,0
23419,49486,15802,0,0,0
23386,49445,15742,0,0,0
23350,49396,15669,0,0,0
23327,49365,15602,0,0,0
23284,49317,15505,0,0,0
23205,49232,15362,0,0,0
23124,49146,15217,0,0,0
23057,49082,15086,0,0,0
22977,49002,14932,0,0,0
22875,48890,14741,0,0,0
22774,48783,14556,0,0,0
22681,48692,14389,0,0,0
22573,48580,14199,0,0,0
22446,48442,13978,0,0,0
22332,48319,13773,0,0,0
22236,48223,13591,0,0,0
22134,48114,13395,0,0,0
22019,47985,13186,0,0,0
21913,47872,13000,0,0,0
21818,47778,12835,0,0,0
21715,47668,12652,0,0,0
21604,47545,12458,0,0,0
21505,47443,12291,0,0,0
21417,47358,12144,0,0,0
21315,47252,11976,0,0,0
21204,47135,11795,0,0,0
21116,47049,11645,0,0,0
21041,46979,11516,0,0,0
20954,46885,11367,0,0,0
20871,46789,11216,0,0,0
20812,46730,11104,0,0,0
20756,46684,11001,0,0,0
20677,46610,10869,0,0,0
20597,46531,10738,0,0,0
20539,46482,10643,0,0,0
20480,46434,10554,0,0,0
20400,46358,10437,0,0,0
20321,46281,10322,0,0,0
20260,46234,10242,0,0,0
20203,46191,10165,0,0,0
20136,46127,10065,0,0,0
20074,46063,9969,0,0,0
20031,46022,9901,0,0,0
19991,45979,9828,0,0,0
19944,45912,9731,0,0,0
19900,45850,9641,0,0,0
19868,45807,9578,0,0,0
19828,45759,9511,0,0,0
19773,45694,9424,0,0,0
19725,45643,9345,0,0,0
19691,45616,9284,0,0,0
19644,45577,9207,0,0,0
19577,45512,9102,0,0,0
19515,45458,9006,0,0,0
19469,45429,8936,0,0,0
19411,45388,8854,0,0,0
19340,45323,8747,0,0,0
19282,45266,8651,0,0,0
19238,45225,8573,0,0,0
19184,45169,8484,0,0,0
19121,45099,8389,0,0,0
19080,45059,8330,0,0,0
19063,45053,8314,0,0,0
19049,45048,8315,0,0,0
19060,45061,8360,0,0,0
19141,45148,8510,0,0,0
19294,45312,8776,0,0,0
19489,45515,9131,0,0,0
19743,45778,9604,0,0,0
20089,46146,10245,0,0,0
20515,46596,11023,0,0,0
20980,47078,11875,0,0,0
21487,47598,12787,0,0,0
22042,48177,13766,0,0,0
22604,48769,14756,0,0,0
23131,49320,15691,0,0,0
23640,49846,16575,0,0,0
24147,50371,17424,0,0,0
24613,50853,18187,0,0,0
25002,51244,18819,0,0,0
25332,51570,19349,0,0,0
25621,51861,19803,0,0,0
25855,52093,20154,0,0,0
26019,52246,20392,0,0,0
26134,52350,20553,0,0,0
26210,52426,20659,0,0,0
26239,52455,20693,0,0,0
26222,52428,20655,0,0,0
26186,52382,20591,0,0,0
26148,52338,20519,0,0,0
26086,52266,20408,0,0,0
25993,52155,20251,0,0,0
25898,52050,20092,0,0,0
25813,51966,19946,0,0,0
25713,51866,19781,0,0,0
25597,51742,19589,0,0,0
25492,51633,19407,0,0,0
25400,51545,19246,0,0,0
25294,51440,19066,0,0,0
25177,51314,18866,0,0,0
25081,51204,18686,0,0,0
25004,51110,18525,0,0,0
24913,50995,18340,0,0,0
24807,50863,18139,0,0,0
24707,50753,17963,0,0,0
24605,50650,17792,0,0,0
24479,50517,17582,0,0,0
24345,50370,17350,0,0,0
24227,50246,17140,0,0,0
24110,50131,16932,0,0,0
23972,49990,16691,0,0,0
23830,49838,16437,0,0,0
23710,49710,16210,0,0,0
23600,49595,15999,0,0,0
23479,49458,15774,0,0,0
23354,49317,15554,0,0,0
23250,49208,15371,0,0,0
23161,49120,15213,0,0,0
23070,49022,15052,0,0,0
22986,48932,14910,0,0,0
22923,48876,14812,0,0,0
22867,48831,14736,0,0,0
22804,48772,14660,0,0,0
22760,48730,14611,0,0,0
22749,48726,14606,0,0,0
22742,48729,14616,0,0,0
22727,48716,14618,0,0,0
22736,48724,14642,0,0,0
22777,48768,14698,0,0,0
22813,48806,14746,0,0,0
22831,48818,14773,0,0,0
22857,48840,14818,0,0,0
22895,48885,14887,0,0,0
22914,48913,14933,0,0,0
22904,48906,14941,0,0,0
22896,48901,14947,0,0,0
22895,48909,14960,0,0,0
22877,48890,14939,0,0,0
22842,48844,14879,0,0,0
22815,48809,14822,0,0,0
22788,48784,14765,0,0,0
22736,48731,14669,0,0,0
22662,48652,14539,0,0,0
22592,48586,14419,0,0,0
22522,48519,14295,0,0,0
22430,48414,14130,0,0,0
22328,48288,13941,0,0,0
22238,48183,13767,0,0,0
22145,48087,13595,0,0,0
22026,47965,13391,0,0,0
21896,47834,13175,0,0,0
21780,47733,12985,0,0,0
21676,47646,12808,0,0,0
21562,47537,12610,0,0,0
21445,47416,12403,0,0,0
21346,47317,12224,0,0,0
21254,47228,12056,0,0,0
21145,47112,11865,0,0,0
21032,46989,11667,0,0,0
20937,46892,11491,0,0,0
20840,46796,11315,0,0,0
20722,46675,11116,0,0,0
20608,46556,10926,0,0,0
20513,46463,10766,0,0,0
20412,46364,10604,0,0,0
20294,46242,10418,0,0,0
20195,46138,10254,0,0,0
20130,46075,10135,0,0,0
20064,46011,10014,0,0,0
19980,45923,9871,0,0,0
19910,45848,9747,0,0,0
19860,45804,9657,0,0,0
19804,45752,9562,0,0,0
19736,45677,9450,0,0,0
19682,45617,9359,0,0,0
19642,45583,9296,0,0,0
19591,45537,9216,0,0,0
19526,45471,9119,0,0,0
19471,45419,9045,0,0,0
19426,45382,8991,0,0,0
19369,45327,8913,0,0,0
19301,45261,8817,0,0,0
19244,45219,8747,0,0,0
19199,45193,8697,0,0,0
19147,45146,8626,0,0,0
19093,45088,8540,0,0,0
19057,45053,8476,0,0,0
19027,45029,8420,0,0,0
18973,44978,8332,0,0,0
18903,44906,8224,0,0,0
18847,44852,8137,0,0,0
18804,44816,8067,0,0,0
18747,44763,7976,0,0,0
18686,44699,7876,0,0,0
18649,44663,7807,0,0,0
18627,44648,7759,0,0,0
18599,44617,7707,0,0,0
18584,44597,7676,0,0,0
18608,44626,7705,0,0,0
18656,44686,7786,0,0,0
18720,44757,7912,0,0,0
18837,44882,8130,0,0,0
19035,45097,8484,0,0,0
19296,45376,8954,0,0,0
19607,45697,9522,0,0,0
19988,46091,10220,0,0,0
20437,46567,11044,0,0,0
20914,47072,11924,0,0,0
21399,47572,12810,0,0,0
21905,48090,13717,0,0,0
22424,48630,14635,0,0,0
22917,49139,15500,0,0,0
23368,49595,16279,0,0,0
23787,50025,16997,0,0,0
24175,50433,17655,0,0,0
24504,50776,18208,0,0,0
24766,51040,18639,0,0,0
24983,51258,18985,0,0,0
25158,51440,19260,0,0,0
25270,51558,19437,0,0,0
25324,51610,19524,0,0,0
25352,51635,19564,0,0,0
25356,51639,19562,0,0,0
25317,51593,19491,0,0,0
25245,51509,19368,0,0,0
25170,51430,19238,0,0,0
25092,51354,19099,0,0,0
24983,51240,18915,0,0,0
24855,51096,18698,0,0,0
24741,50969,18493,0,0,0
24634,50853,18291,0,0,0
24505,50704,18054,0,0,0
24366,50539,17800,0,0,0
24249,50404,17575,0,0,0
24135,50280,17359,0,0,0
23999,50130,17116,0,0,0
23863,49978,16872,0,0,0
23746,49861,16666,0,0,0
23628,49750,16462,0,0,0
23488,49612,16223,0,0,0
23346,49471,15980,0,0,0
23222,49358,15766,0,0,0
23103,49241,15547,0,0,0
22969,49091,15295,0,0,0
22832,48936,15045,0,0,0
22707,48804,14813,0,0,0
22577,48667,14571,0,0,0
22435,48510,14310,0,0,0
22304,48367,14070,0,0,0
22192,48257,13867,0,0,0
22079,48149,13672,0,0,0
21964,48028,13475,0,0,0
21873,47930,13314,0,0,0
21811,47874,13204,0,0,0
21753,47825,13112,0,0,0
21697,47770,13028,0,0,0
21668,47742,12983,0,0,0
21670,47746,12988,0,0,0
21673,47742,12999,0,0,0
21674,47727,13007,0,0,0
21700,47748,13056,0,0,0
21749,47806,13143,0,0,0
21787,47849,13218,0,0,0
21815,47869,13279,0,0,0
21863,47913,13366,0,0,0
21916,47971,13467,0,0,0
21944,48002,13537,0,0,0
21961,48019,13588,0,0,0
21989,48055,13655,0,0,0
22015,48097,13716,0,0,0
22018,48106,13734,0,0,0
22010,48096,13726,0,0,0
22013,48103,13729,0,0,0
22009,48105,13714,0,0,0
21974,48063,13643,0,0,0
21920,47991,13533,0,0,0
21871,47932,13426,0,0,0
21819,47880,13315,0,0,0
21745,47801,13166,0,0,0
21660,47709,12998,0,0,0
21584,47635,12846,0,0,0
21504,47561,12695,0,0,0
21408,47462,12521,0,0,0
21311,47364,12349,0,0,0
21221,47286,12196,0,0,0
21120,47196,12031,0,0,0
20995,47077,11837,0,0,0
20874,46963,11648,0,0,0
20775,46878,11485,0,0,0
20671,46784,11315,0,0,0
20552,46663,11120,0,0,0
20443,46554,10937,0,0,0
20355,46468,10781,0,0,0
20256,46371,10612,0,0,0
20139,46249,10420,0,0,0
20038,46142,10247,0,0,0
19960,46062,10108,0,0,0
19877,45974,9960,0,0,0
19782,45868,9800,0,0,0
19703,45787,9669,0,0,0
19644,45738,9570,0,0,0
19577,45680,9457,0,0,0
19502,45607,9327,0,0,0
19448,45556,9224,0,0,0
19408,45523,9143,0,0,0
19350,45463,9036,0,0,0
19277,45386,8915,0,0,0
19223,45339,8827,0,0,0
19179,45304,8765,0,0,0
19117,45236,8683,0,0,0
19052,45159,8592,0,0,0
19013,45118,8532,0,0,0
18980,45088,8481,0,0,0
18931,45031,8403,0,0,0
18882,44970,8317,0,0,0
18851,44940,8256,0,0,0
18817,44915,8196,0,0,0
18756,44854,8102,0,0,0
18693,44785,8003,0,0,0
18652,44748,7937,0,0,0
18620,44721,7877,0,0,0
18574,44667,7793,0,0,0
18526,44612,7711,0,0,0
18499,44588,7661,0,0,0
18479,44576,7620,0,0,0
18456,44553,7569,0,0,0
18446,44541,7542,0,0,0
18460,44564,7572,0,0,0
18491,44605,7642,0,0,0
18546,44660,7752,0,0,0
18658,44772,7952,0,0,0
18838,44963,8277,0,0,0
19065,45205,8704,0,0,0
19337,45489,9226,0,0,0
19686,45853,9875,0,0,0
20108,46298,10642,0,0,0
20567,46772,11466,0,0,0
21044,47253,12314,0,0,0
21548,47766,13196,0,0,0
22062,48303,14094,0,0,0
22549,48810,14946,0,0,0
23000,49272,15729,0,0,0
23430,49719,16465,0,0,0
23828,50141,17137,0,0,0
24158,50488,17694,0,0,0
24425,50756,18138,0,0,0
24659,50989,18515,0,0,0
24851,51184,18820,0,0,0
24979,51305,19017,0,0,0
25058,51367,19128,0,0,0
25113,51413,19201,0,0,0
25134,51431,19225,0,0,0
25106,51394,19173,0,0,0
25051,51325,19072,0,0,0
24995,51263,18960,0,0,0
24927,51194,18825,0,0,0
24830,51084,18639,0,0,0
24710,50948,18424,0,0,0
24595,50828,18221,0,0,0
24484,50713,18017,0,0,0
24358,50574,17783,0,0,0
24227,50427,17537,0,0,0
24109,50301,17309,0,0,0
23994,50176,17083,0,0,0
23866,50033,16840,0,0,0
23742,49897,16606,0,0,0
23633,49781,16398,0,0,0
23514,49651,16179,0,0,0
23373,49493,15930,0,0,0
23236,49343,15685,0,0,0
23120,49225,15462,0,0,0
22995,49097,15227,0,0,0
22849,48937,14961,0,0,0
22710,48783,14701,0,0,0
22586,48659,14464,0,0,0
22450,48527,14219,0,0,0
22303,48372,13960,0,0,0
22171,48238,13728,0,0,0
22059,48137,13539,0,0,0
21946,48028,13357,0,0,0
21833,47908,13178,0,0,0
21750,47822,13049,0,0,0
21700,47778,12970,0,0,0
21655,47737,12899,0,0,0
21620,47695,12840,0,0,0
21616,47691,12834,0,0,0
21634,47715,12870,0,0,0
21649,47729,12904,0,0,0
21667,47743,12945,0,0,0
21709,47786,13026,0,0,0
21765,47848,13133,0,0,0
21814,47894,13225,0,0,0
21866,47935,13314,0,0,0
21935,48006,13426,0,0,0
22006,48087,13543,0,0,0
22050,48138,13624,0,0,0
22077,48166,13681,0,0,0
22113,48207,13748,0,0,0
22149,48253,13810,0,0,0
22166,48267,13831,0,0,0
22172,48261,13822,0,0,0
22179,48261,13811,0,0,0
22173,48249,13779,0,0,0
22140,48203,13704,0,0,0
22091,48148,13614,0,0,0
22039,48104,13529,0,0,0
21964,48039,13414,0,0,0
21859,47933,13253,0,0,0
21758,47825,13087,0,0,0
21679,47742,12944,0,0,0
21591,47651,12786,0,0,0
21482,47532,12593,0,0,0
21381,47422,12404,0,0,0
21296,47336,12236,0,0,0
21202,47238,12055,0,0,0
21096,47117,11854,0,0,0
21002,47011,11667,0,0,0
20923,46929,11501,0,0,0
20830,46830,11318,0,0,0
20718,46705,11112,0,0,0
20615,46592,10929,0,0,0
20523,46498,10770,0,0,0
20417,46386,10592,0,0,0
20301,46259,10398,0,0,0
20203,46157,10228,0,0,0
20119,46077,10080,0,0,0
20027,45983,9917,0,0,0
19933,45885,9752,0,0,0
19854,45812,9619,0,0,0
19781,45754,9505,0,0,0
19693,45678,9370,0,0,0
19605,45590,9228,0,0,0
19541,45528,9118,0,0,0
19495,45488,9032,0,0,0
19441,45435,8936,0,0,0
19383,45375,8839,0,0,0
19345,45344,8775,0,0,0
19317,45331,8733,0,0,0
19275,45300,8675,0,0,0
19228,45261,8608,0,0,0
19194,45242,8559,0,0,0
19157,45223,8509,0,0,0
19101,45172,8432,0,0,0
19051,45120,8355,0,0,0
19022,45092,8305,0,0,0
18987,45054,8246,0,0,0
18924,44980,8149,0,0,0
18866,44908,8053,0,0,0
18833,44870,7986,0,0,0
18795,44831,7912,0,0,0
18732,44767,7810,0,0,0
18678,44710,7718,0,0,0
18646,44678,7657,0,0,0
18608,44638,7590,0,0,0
18556,44574,7501,0,0,0
18515,44525,7431,0,0,0
18492,44504,7392,0,0,0
18461,44475,7344,0,0,0
18423,44429,7281,0,0,0
18409,44409,7254,0,0,0
18427,44430,7282,0,0,0
18459,44468,7341,0,0,0
18517,44531,7448,0,0,0
18642,44669,7663,0,0,0
18838,44890,8010,0,0,0
19087,45160,8466,0,0,0
19404,45490,9045,0,0,0
19813,45916,9784,0,0,0
20291,46413,10647,0,0,0
20797,46926,11558,0,0,0
21326,47456,12499,0,0,0
21883,48024,13477,0,0,0
22435,48596,14450,0,0,0
22946,49121,15350,0,0,0
23425,49609,16178,0,0,0
23887,50090,16953,0,0,0
24308,50532,17645,0,0,0
24659,50892,18211,0,0,0
24948,51184,18672,0,0,0
25194,51441,19067,0,0,0
25389,51653,19378,0,0,0
25515,51790,19577,0,0,0
25589,51868,19695,0,0,0
25637,51923,19770,0,0,0
25654,51947,19788,0,0,0
25632,51921,19736,0,0,0
25591,51868,19652,0,0,0
25546,51813,19563,0,0,0
25484,51736,19443,0,0,0
25399,51623,19277,0,0,0
25314,51507,19101,0,0,0
25236,51404,18933,0,0,0
25141,51286,18748,0,0,0
25020,51137,18536,0,0,0
24903,50998,18330,0,0,0
24799,50886,18144,0,0,0
24681,50768,17951,0,0,0
24548,50634,17744,0,0,0
24432,50522,17558,0,0,0
24341,50443,17404,0,0,0
24245,50358,17243,0,0,0
24137,50252,17068,0,0,0
24045,50161,16911,0,0,0
23967,50086,16768,0,0,0
23871,49981,16590,0,0,0
23754,49844,16375,0,0,0
23647,49721,16171,0,0,0
23544,49608,15975,0,0,0
23420,49468,15747,0,0,0
23284,49314,15502,0,0,0
23169,49189,15291,0,0,0
23068,49087,15105,0,0,0
22957,48966,14905,0,0,0
22850,48840,14705,0,0,0
22774,48752,14547,0,0,0
22708,48682,14415,0,0,0
22628,48591,14274,0,0,0
22555,48505,14149,0,0,0
22510,48463,14076,0,0,0
22476,48440,14029,0,0,0
22433,48399,13973,0,0,0
22405,48366,13934,0,0,0
22414,48377,13947,0,0,0
22433,48403,13980,0,0,0
22438,48406,13996,0,0,0
22448,48412,14021,0,0,0
22482,48448,14081,0,0,0
22519,48486,14141,0,0,0
22542,48500,14178,0,0,0
22564,48513,14219,0,0,0
22590,48541,14278,0,0,0
22605,48558,14319,0,0,0
22604,48549,14325,0,0,0
22608,48547,14327,0,0,0
22621,48563,14338,0,0,0
22619,48560,14320,0,0,0
22596,48526,14262,0,0,0
22568,48495,14204,0,0,0
22538,48474,14150,0,0,0
22485,48427,14061,0,0,0
22406,48345,13934,0,0,0
22326,48266,13806,0,0,0
22251,48198,13683,0,0,0
22162,48107,13534,0,0,0
22059,47995,13362,0,0,0
21962,47898,13199,0,0,0
21873,47811,13042,0,0,0
21772,47702,12859,0,0,0
21660,47578,12662,0,0,0
21561,47475,12487,0,0,0
21467,47385,12321,0,0,0
21353,47272,12128,0,0,0
21230,47146,11923,0,0,0
21123,47044,11741,0,0,0
21025,46957,11568,0,0,0
20909,46842,11368,0,0,0
20780,46711,11153,0,0,0
20672,46606,10966,0,0,0
20581,46519,10799,0,0,0
20479,46413,10619,0,0,0
20377,46300,10439,0,0,0
20292,46214,10286,0,0,0
20211,46140,10145,0,0,0
20122,46047,9988,0,0,0
20044,45960,9839,0,0,0
19990,45903,9725,0,0,0
19930,45845,9618,0,0,0
19848,45761,9492,0,0,0
19774,45690,9382,0,0,0
19729,45658,9309,0,0,0
19682,45627,9238,0,0,0
19616,45569,9146,0,0,0
19558,45514,9067,0,0,0
19524,45482,9014,0,0,0
19484,45442,8948,0,0,0
19427,45381,8858,0,0,0
19379,45334,8781,0,0,0
19346,45310,8728,0,0,0
19299,45268,8658,0,0,0
19235,45197,8563,0,0,0
19181,45139,8483,0,0,0
19141,45105,8426,0,0,0
19090,45056,8350,0,0,0
19027,44988,8254,0,0,0
18977,44938,8178,0,0,0
18940,44905,8118,0,0,0
18892,44852,8034,0,0,0
18838,44787,7934,0,0,0
18801,44746,7858,0,0,0
18770,44717,7792,0,0,0
18719,44662,7695,0,0,0
18662,44595,7587,0,0,0
18621,44555,7509,0,0,0
18588,44529,7448,0,0,0
18540,44483,7375,0,0,0
18495,44436,7309,0,0,0
18483,44428,7287,0,0,0
18496,44450,7306,0,0,0
18520,44475,7346,0,0,0
18570,44527,7437,0,0,0
18683,44657,7637,0,0,0
18864,44860,7955,0,0,0
19098,45107,8372,0,0,0
19393,45416,8910,0,0,0
19769,45814,9594,0,0,0
20209,46273,10393,0,0,0
20687,46758,11259,0,0,0
21200,47280,12185,0,0,0
21745,47843,13158,0,0,0
22287,48399,14116,0,0,0
22800,48918,15011,0,0,0
23292,49419,15854,0,0,0
23765,49909,16646,0,0,0
24179,50340,17341,0,0,0
24518,50687,17913,0,0,0
24813,50987,18397,0,0,0
25074,51260,18809,0,0,0
25273,51473,19123,0,0,0
25405,51612,19336,0,0,0
25503,51711,19485,0,0,0
25575,51783,19586,0,0,0
25601,51800,19614,0,0,0
25582,51761,19571,0,0,0
25552,51714,19503,0,0,0
25518,51672,19419,0,0,0
25452,51597,19288,0,0,0
25356,51489,19116,0,0,0
25260,51389,18945,0,0,0
25166,51293,18775,0,0,0
25044,51161,18567,0,0,0
24904,51002,18334,0,0,0
24780,50864,18129,0,0,0
24667,50743,17941,0,0,0
24538,50597,17729,0,0,0
24403,50444,17508,0,0,0
24293,50329,17322,0,0,0
24194,50234,17152,0,0,0
24081,50116,16953,0,0,0
23973,49996,16751,0,0,0
23891,49906,16584,0,0,0
23806,49818,16423,0,0,0
23693,49693,16223,0,0,0
23572,49560,16011,0,0,0
23468,49455,15821,0,0,0
23356,49345,15618,0,0,0
23218,49195,15370,0,0,0
23079,49039,15119,0,0,0
22960,48912,14901,0,0,0
22839,48784,14686,0,0,0
22702,48634,14450,0,0,0
22574,48499,14234,0,0,0
22475,48407,14066,0,0,0
22383,48322,13913,0,0,0
22294,48225,13755,0,0,0
22233,48153,13631,0,0,0
22204,48120,13556,0,0,0
22176,48092,13491,0,0,0
22140,48052,13423,0,0,0
22122,48035,13395,0,0,0
22126,48049,13413,0,0,0
22127,48058,13432,0,0,0
22125,48051,13445,0,0,0
22145,48067,13489,0,0,0
22184,48111,13564,0,0,0
22212,48145,13623,0,0,0
22232,48156,13659,0,0,0
22268,48181,13711,0,0,0
22314,48220,13771,0,0,0
22339,48238,13800,0,0,0
22347,48233,13802,0,0,0
22357,48241,13812,0,0,0
22360,48252,13818,0,0,0
22337,48232,13785,0,0,0
22297,48192,13728,0,0,0
22256,48165,13681,0,0,0
22213,48136,13632,0,0,0
22153,48072,13549,0,0,0
22085,47992,13445,0,0,0
22030,47934,13350,0,0,0
21976,47886,13251,0,0,0
21897,47809,13112,0,0,0
21803,47711,12945,0,0,0
21713,47628,12782,0,0,0
21618,47545,12612,0,0,0
21502,47435,12408,0,0,0
21384,47319,12196,0,0,0
21281,47222,12009,0,0,0
21177,47121,11825,0,0,0
21058,46994,11618,0,0,0
20946,46872,11418,0,0,0
20856,46777,11249,0,0,0
20763,46679,11075,0,0,0
20649,46556,10880,0,0,0
20540,46443,10700,0,0,0
20451,46356,10551,0,0,0
20358,46263,10397,0,0,0
20251,46148,10222,0,0,0
20157,46050,10064,0,0,0
20084,45984,9934,0,0,0
20003,45906,9795,0,0,0
19907,45804,9636,0,0,0
19825,45720,9493,0,0,0
19762,45660,9374,0,0,0
19688,45586,9241,0,0,0
19599,45494,9094,0,0,0
19524,45422,8970,0,0,0
19466,45371,8870,0,0,0
19396,45300,8755,0,0,0
19313,45211,8628,0,0,0
19253,45153,8537,0,0,0
19214,45121,8480,0,0,0
19161,45068,8402,0,0,0
19100,45000,8309,0,0,0
19062,44961,8245,0,0,0
19030,44936,8196,0,0,0
18975,44885,8118,0,0,0
18918,44825,8028,0,0,0
18887,44796,7966,0,0,0
18861,44774,7910,0,0,0
18815,44720,7824,0,0,0
18768,44659,7733,0,0,0
18740,44629,7680,0,0,0
18709,44605,7634,0,0,0
18653,44548,7555,0,0,0
18596,44485,7471,0,0,0
18559,44451,7418,0,0,0
18523,44420,7361,0,0,0
18465,44358,7270,0,0,0
18401,44292,7178,0,0,0
18349,44253,7115,0,0,0
18300,44217,7048,0,0,0
18248,44165,6961,0,0,0
18213,44132,6895,0,0,0
18204,44136,6872,0,0,0
18205,44146,6865,0,0,0
18219,44155,6872,0,0,0
18268,44202,6944,0,0,0
18363,44309,7109,0,0,0
18497,44456,7349,0,0,0
18677,44642,7675,0,0,0
18938,44913,8145,0,0,0
19286,45283,8774,0,0,0
19691,45708,9512,0,0,0
20135,46163,10326,0,0,0
20628,46671,11226,0,0,0
21156,47221,12179,0,0,0
21681,47762,13116,0,0,0
22191,48279,14014,0,0,0
22691,48792,14883,0,0,0
23166,49288,15695,0,0,0
23586,49720,16399,0,0,0
23948,50088,17002,0,0,0
24272,50419,17542,0,0,0
24550,50710,17999,0,0,0
24762,50924,18336,0,0,0
24916,51070,18572,0,0,0
25040,51192,18757,0,0,0
25129,51283,18881,0,0,0
25162,51309,18918,0,0,0
25149,51286,18893,0,0,0
25118,51254,18845,0,0,0
25068,51205,18762,0,0,0
24983,51114,18616,0,0,0
24877,50997,18430,0,0,0
24777,50892,18245,0,0,0
24675,50788,18051,0,0,0
24551,50654,17826,0,0,0
24420,50508,17594,0,0,0
24300,50378,17378,0,0,0
24181,50247,17154,0,0,0
24054,50099,16910,0,0,0
23935,49958,16679,0,0,0
23828,49844,16482,0,0,0
23715,49727,16284,0,0,0
23586,49591,16061,0,0,0
23461,49460,15846,0,0,0
23351,49349,15651,0,0,0
23236,49226,15444,0,0,0
23108,49080,15209,0,0,0
22984,48943,14976,0,0,0
22867,48824,14757,0,0,0
22738,48690,14522,0,0,0
22595,48536,14269,0,0,0
22465,48400,14036,0,0,0
22355,48289,13827,0,0,0
22242,48168,13609,0,0,0
22121,48034,13385,0,0,0
22015,47918,13195,0,0,0
21925,47827,13040,0,0,0
21834,47730,12889,0,0,0
21747,47630,12750,0,0,0
21683,47564,12656,0,0,0
21639,47528,12598,0,0,0
21595,47492,12539,0,0,0
21560,47462,12490,0,0,0
21556,47464,12486,0,0,0
21574,47486,12512,0,0,0
21584,47493,12531,0,0,0
21589,47494,12554,0,0,0
21614,47528,12614,0,0,0
21656,47583,12693,0,0,0
21688,47619,12753,0,0,0
21710,47638,12800,0,0,0
21741,47676,12864,0,0,0
21772,47721,12929,0,0,0
21783,47737,12962,0,0,0
21787,47738,12980,0,0,0
21801,47753,13004,0,0,0
21803,47755,13007,0,0,0
21776,47721,12964,0,0,0
21744,47680,12906,0,0,0
21719,47652,12855,0,0,0
21672,47602,12776,0,0,0
21590,47512,12647,0,0,0
21505,47423,12510,0,0,0
21436,47357,12392,0,0,0
21354,47279,12252,0,0,0
21250,47171,12077,0,0,0
21152,47070,11909,0,0,0
21070,46989,11762,0,0,0
20973,46891,11596,0,0,0
20858,46766,11399,0,0,0
20750,46654,11212,0,0,0
20650,46562,11041,0,0,0
20534,46452,10847,0,0,0
20402,46316,10627,0,0,0
20284,46195,10424,0,0,0
20177,46097,10242,0,0,0
20052,45980,10039,0,0,0
19916,45844,9821,0,0,0
19799,45729,9635,0,0,0
19698,45630,9473,0,0,0
19586,45514,9291,0,0,0
19477,45392,9101,0,0,0
19389,45303,8946,0,0,0
19305,45231,8812,0,0,0
19202,45138,8658,0,0,0
19104,45041,8504,0,0,0
19036,44974,8387,0,0,0
18979,44919,8284,0,0,0
18908,44843,8158,0,0,0
18833,44763,8033,0,0,0
18773,44713,7945,0,0,0
18716,44674,7868,0,0,0
18647,44616,7768,0,0,0
18577,44553,7663,0,0,0
18528,44515,7587,0,0,0
18487,44484,7520,0,0,0
18437,44431,7431,0,0,0
18389,44379,7345,0,0,0
18357,44350,7285,0,0,0
18322,44320,7223,0,0,0
18270,44267,7137,0,0,0
18225,44222,7061,0,0,0
18197,44204,7014,0,0,0
18161,44178,6964,0,0,0
18106,44123,6887,0,0,0
18063,44073,6819,0,0,0
18039,44046,6777,0,0,0
18002,44007,6726,0,0,0
17940,43943,6645,0,0,0
17879,43892,6569,0,0,0
17831,43859,6509,0,0,0
17772,43808,6432,0,0,0
17704,43737,6336,0,0,0
17654,43684,6262,0,0,0
17626,43657,6216,0,0,0
17590,43617,6154,0,0,0
17548,43562,6074,0,0,0
17528,43536,6026,0,0,0
17530,43543,6012,0,0,0
17526,43541,5992,0,0,0
17531,43542,5989,0,0,0
17588,43602,6066,0,0,0
17691,43716,6223,0,0,0
17818,43850,6435,0,0,0
17987,44030,6739,0,0,0
18232,44300,7188,0,0,0
18541,44643,7766,0,0,0
18888,45019,8429,0,0,0
19287,45437,9183,0,0,0
19748,45918,10037,0,0,0
20243,46429,10933,0,0,0
20733,46919,11804,0,0,0
21212,47393,12652,0,0,0
21688,47877,13494,0,0,0
22145,48347,14290,0,0,0
22553,48758,14990,0,0,0
22909,49116,15602,0,0,0
23221,49442,16142,0,0,0
23477,49712,16591,0,0,0
23672,49910,16930,0,0,0
23827,50068,17193,0,0,0
23950,50203,17400,0,0,0
24020,50285,17522,0,0,0
24036,50301,17550,0,0,0
24032,50293,17527,0,0,0
24019,50282,17475,0,0,0
23968,50231,17365,0,0,0
23871,50125,17191,0,0,0
23764,50009,16999,0,0,0
23663,49900,16805,0,0,0
23543,49770,16581,0,0,0
23404,49612,16324,0,0,0
23272,49468,16072,0,0,0
23151,49343,15830,0,0,0
23015,49198,15565,0,0,0
22866,49029,15279,0,0,0
22731,48881,15023,0,0,0
22610,48756,14794,0,0,0
22472,48606,14544,0,0,0
22323,48432,14274,0,0,0
22193,48285,14030,0,0,0
22074,48155,13802,0,0,0
21933,47999,13544,0,0,0
21782,47831,13269,0,0,0
21647,47686,13016,0,0,0
21513,47548,12767,0,0,0
21357,47384,12491,0,0,0
21194,47215,12211,0,0,0
21052,47079,11970,0,0,0
20923,46964,11755,0,0,0
20788,46834,11530,0,0,0
20659,46699,11311,0,0,0
20557,46596,11135,0,0,0
20476,46516,10992,0,0,0
20394,46428,10852,0,0,0
20319,46346,10733,0,0,0
20272,46296,10664,0,0,0
20243,46265,10624,0,0,0
20218,46231,10592,0,0,0
20212,46221,10595,0,0,0
20236,46256,10650,0,0,0
20266,46302,10717,0,0,0
20287,46335,10772,0,0,0
20326,46386,10855,0,0,0
20392,46471,10979,0,0,0
20450,46546,11094,0,0,0
20488,46594,11179,0,0,0
20534,46649,11269,0,0,0
20595,46719,11369,0,0,0
20634,46761,11437,0,0,0
20645,46765,11466,0,0,0
20658,46773,11493,0,0,0
20674,46795,11526,0,0,0
20664,46787,11519,0,0,0
20624,46743,11463,0,0,0
20589,46707,11405,0,0,0
20560,46682,11350,0,0,0
20507,46623,11261,0,0,0
20433,46537,11140,0,0,0
20374,46470,11034,0,0,0
20324,46414,10936,0,0,0
20253,46326,10804,0,0,0
20169,46220,10647,0,0,0
20096,46139,10504,0,0,0
20017,46066,10363,0,0,0
19910,45960,10190,0,0,0
19797,45843,10007,0,0,0
19706,45758,9852,0,0,0
19623,45686,9704,0,0,0
19522,45586,9525,0,0,0
19416,45474,9337,0,0,0
19327,45386,9177,0,0,0
19247,45309,9028,0,0,0
19154,45210,8854,0,0,0
19056,45102,8673,0,0,0
18971,45018,8520,0,0,0
18888,44942,8375,0,0,0
18795,44844,8212,0,0,0
18705,44748,8056,0,0,0
18633,44680,7933,0,0,0
18563,44616,7815,0,0,0
18480,44533,7679,0,0,0
18411,44461,7560,0,0,0
18370,44420,7476,0,0,0
18330,44374,7392,0,0,0
18274,44306,7292,0,0,0
18230,44256,7208,0,0,0
18209,44241,7156,0,0,0
18178,44215,7097,0,0,0
18125,44163,7015,0,0,0
18081,44125,6950,0,0,0
18056,44112,6910,0,0,0
18018,44083,6852,0,0,0
17965,44026,6769,0,0,0
17927,43982,6705,0,0,0
17904,43959,6668,0,0,0
17869,43919,6612,0,0,0
17819,43858,6533,0,0,0
17784,43817,6475,0,0,0
17758,43798,6437,0,0,0
17709,43753,6368,0,0,0
17649,43687,6276,0,0,0
17610,43646,6211,0,0,0
17581,43622,6165,0,0,0
17533,43571,6095,0,0,0
17483,43512,6020,0,0,0
17456,43485,5983,0,0,0
17438,43474,5961,0,0,0
17415,43447,5924,0,0,0
17405,43431,5907,0,0,0
17433,43466,5957,0,0,0
17494,43541,6063,0,0,0
17576,43633,6203,0,0,0
17699,43762,6418,0,0,0
17892,43972,6756,0,0,0
18149,44251,7212,0,0,0
18453,44568,7761,0,0,0
18813,44938,8417,0,0,0
19237,45375,9183,0,0,0
19701,45849,10009,0,0,0
20176,46326,10847,0,0,0
20661,46818,11696,0,0,0
21149,47326,12554,0,0,0
21609,47809,13370,0,0,0
22025,48241,14107,0,0,0
22415,48646,14784,0,0,0
22781,49033,15406,0,0,0
23090,49359,15933,0,0,0
23331,49605,16340,0,0,0
23531,49805,16661,0,0,0
23696,49972,16919,0,0,0
23804,50083,17088,0,0,0
23855,50139,17161,0,0,0
23879,50178,17183,0,0,0
23891,50206,17181,0,0,0
23871,50187,17128,0,0,0
23816,50116,17015,0,0,0
23747,50028,16872,0,0,0
23668,49934,16710,0,0,0
23561,49809,16505,0,0,0
23437,49657,16265,0,0,0
23320,49517,16033,0,0,0
23206,49389,15805,0,0,0
23070,49231,15546,0,0,0
22919,49053,15266,0,0,0
22784,48903,15010,0,0,0
22663,48776,14774,0,0,0
22523,48623,14513,0,0,0
22367,48453,14232,0,0,0
22223,48306,13971,0,0,0
22082,48166,13713,0,0,0
21917,47991,13423,0,0,0
21744,47804,13120,0,0,0
21592,47646,12840,0,0,0
21442,47496,12563,0,0,0
21277,47321,12260,0,0,0
21119,47152,11968,0,0,0
20986,47019,11719,0,0,0
20856,46887,11480,0,0,0
20710,46729,11226,0,0,0
20581,46584,10999,0,0,0
20484,46481,10825,0,0,0
20391,46384,10672,0,0,0
20290,46276,10515,0,0,0
20215,46198,10403,0,0,0
20178,46174,10359,0,0,0
20151,46161,10338,0,0,0
20128,46138,10318,0,0,0
20138,46145,10342,0,0,0
20187,46197,10420,0,0,0
20242,46254,10509,0,0,0
20292,46300,10592,0,0,0
20361,46370,10704,0,0,0
20449,46467,10847,0,0,0
20523,46549,10972,0,0,0
20573,46605,11069,0,0,0
20627,46666,11173,0,0,0
20685,46737,11282,0,0,0
20721,46779,11355,0,0,0
20739,46790,11394,0,0,0
20765,46808,11439,0,0,0
20789,46828,11479,0,0,0
20788,46813,11473,0,0,0
20764,46769,11433,0,0,0
20738,46735,11393,0,0,0
20706,46703,11340,0,0,0
20646,46636,11241,0,0,0
20568,46545,11111,0,0,0
20499,46469,10987,0,0,0
20428,46404,10862,0,0,0
20330,46314,10702,0,0,0
20214,46203,10525,0,0,0
20112,46111,10366,0,0,0
20019,46031,10214,0,0,0
19906,45927,10037,0,0,0
19789,45812,9849,0,0,0
19693,45719,9683,0,0,0
19599,45633,9521,0,0,0
19488,45524,9341,0,0,0
19383,45419,9167,0,0,0
19299,45339,9017,0,0,0
19209,45251,8859,0,0,0
19099,45130,8672,0,0,0
19000,45018,8497,0,0,0
18928,44939,8353,0,0,0
18849,44856,8204,0,0,0
18753,44748,8034,0,0,0
18672,44657,7882,0,0,0
18615,44595,7763,0,0,0
18553,44523,7642,0,0,0
18479,44431,7504,0,0,0
18416,44361,7390,0,0,0
18371,44325,7312,0,0,0
18317,44282,7230,0,0,0
18255,44224,7136,0,0,0
18208,44186,7063,0,0,0
18180,44176,7018,0,0,0
18142,44151,6956,0,0,0
18095,44105,6873,0,0,0
18063,44074,6808,0,0,0
18042,44057,6760,0,0,0
18000,44014,6688,0,0,0
17940,43949,6597,0,0,0
17901,43907,6531,0,0,0
17877,43883,6487,0,0,0
17833,43834,6420,0,0,0
17778,43773,6338,0,0,0
17747,43742,6282,0,0,0
17729,43728,6241,0,0,0
17694,43691,6177,0,0,0
17654,43642,6105,0,0,0
17633,43619,6060,0,0,0
17609,43600,6019,0,0,0
17559,43548,5944,0,0,0
17508,43491,5863,0,0,0
17480,43467,5817,0,0,0
17448,43444,5774,0,0,0
17389,43387,5698,0,0,0
17333,43329,5625,0,0,0
17303,43305,5587,0,0,0
17273,43281,5543,0,0,0
17221,43226,5463,0,0,0
17173,43176,5389,0,0,0
17153,43162,5352,0,0,0
17137,43152,5319,0,0,0
17117,43125,5280,0,0,0
17126,43126,5289,0,0,0
17183,43184,5378,0,0,0
17270,43274,5521,0,0,0
17383,43394,5722,0,0,0
17560,43584,6035,0,0,0
17816,43863,6489,0,0,0
18128,44202,7054,0,0,0
18489,44586,7719,0,0,0
18924,45043,8510,0,0,0
19423,45565,9405,0,0,0
19939,46095,10328,0,0,0
20457,46615,11251,0,0,0
20993,47157,12187,0,0,0
21528,47706,13108,0,0,0
22021,48212,13948,0,0,0
22463,48664,14696,0,0,0
22875,49090,15385,0,0,0
23240,49473,15994,0,0,0
23530,49773,16477,0,0,0
23763,50003,16851,0,0,0
23967,50203,17166,0,0,0
24131,50364,17408,0,0,0
24234,50455,17547,0,0,0
24293,50497,17612,0,0,0
24332,50524,17646,0,0,0
24341,50524,17632,0,0,0
24306,50465,17542,0,0,0
24239,50372,17404,0,0,0
24166,50287,17259,0,0,0
24080,50197,17095,0,0,0
23963,50069,16884,0,0,0
23830,49921,16653,0,0,0
23708,49788,16438,0,0,0
23590,49658,16219,0,0,0
23460,49510,15974,0,0,0
23330,49365,15734,0,0,0
23214,49244,15524,0,0,0
23098,49122,15316,0,0,0
22973,48984,15090,0,0,0
22857,48859,14877,0,0,0
22758,48764,14690,0,0,0
22654,48664,14496,0,0,0
22533,48538,14279,0,0,0
22415,48418,14069,0,0,0
22307,48318,13875,0,0,0
22185,48203,13662,0,0,0
22045,48061,13423,0,0,0
21915,47926,13193,0,0,0
21801,47812,12985,0,0,0
21681,47684,12766,0,0,0
21548,47530,12535,0,0,0
21429,47391,12329,0,0,0
21330,47279,12155,0,0,0
21230,47168,11983,0,0,0
21129,47057,11815,0,0,0
21052,46982,11688,0,0,0
21000,46941,11600,0,0,0
20950,46895,11512,0,0,0
20904,46841,11431,0,0,0
20886,46821,11399,0,0,0
20892,46836,11412,0,0,0
20889,46840,11425,0,0,0
20888,46839,11443,0,0,0
20922,46873,11505,0,0,0
20976,46927,11595,0,0,0
21015,46957,11668,0,0,0
21049,46978,11733,0,0,0
21098,47027,11827,0,0,0
21144,47078,11922,0,0,0
21158,47095,11981,0,0,0
21168,47103,12026,0,0,0
21198,47135,12085,0,0,0
21219,47161,12119,0,0,0
21204,47141,12096,0,0,0
21179,47109,12054,0,0,0
21164,47100,12024,0,0,0
21137,47077,11972,0,0,0
21081,47013,11871,0,0,0
21016,46944,11759,0,0,0
20957,46892,11666,0,0,0
20885,46829,11556,0,0,0
20797,46741,11414,0,0,0
20717,46661,11277,0,0,0
20648,46599,11155,0,0,0
20565,46517,11011,0,0,0
20463,46405,10836,0,0,0
20368,46304,10670,0,0,0
20287,46228,10526,0,0,0
20192,46140,10363,0,0,0
20077,46025,10169,0,0,0
19968,45920,9983,0,0,0
19871,45827,9814,0,0,0
19765,45717,9633,0,0,0
19651,45592,9441,0,0,0
19555,45492,9270,0,0,0
19474,45416,9122,0,0,0
19382,45324,8957,0,0,0
19281,45216,8779,0,0,0
19200,45135,8632,0,0,0
19133,45073,8507,0,0,0
19046,44986,8357,0,0,0
18942,44882,8191,0,0,0
18856,44803,8056,0,0,0
18780,44740,7943,0,0,0
18684,44656,7812,0,0,0
18587,44568,7679,0,0,0
18517,44516,7582,0,0,0
18462,44481,7505,0,0,0
18396,44419,7406,0,0,0
18330,44348,7303,0,0,0
18287,44303,7229,0,0,0
18243,44258,7153,0,0,0
18176,44179,7041,0,0,0
18107,44099,6927,0,0,0
18059,44049,6840,0,0,0
18006,44000,6748,0,0,0
17931,43922,6631,0,0,0
17859,43848,6529,0,0,0
17807,43799,6461,0,0,0
17751,43745,6387,0,0,0
17682,43668,6286,0,0,0
17623,43602,6201,0,0,0
17583,43567,6147,0,0,0
17537,43529,6083,0,0,0
17477,43467,5992,0,0,0
17426,43416,5914,0,0,0
17387,43388,5856,0,0,0
17341,43345,5780,0,0,0
17283,43276,5682,0,0,0
17238,43224,5605,0,0,0
17210,43197,5558,0,0,0
17177,43159,5500,0,0,0
17141,43109,5436,0,0,0
17127,43093,5414,0,0,0
17139,43114,5437,0,0,0
17164,43141,5476,0,0,0
17211,43185,5549,0,0,0
17307,43286,5706,0,0,0
17453,43452,5959,0,0,0
17641,43657,6294,0,0,0
17887,43917,6733,0,0,0
18218,44267,7318,0,0,0
18623,44695,8033,0,0,0
19063,45150,8817,0,0,0
19529,45623,9649,0,0,0
20036,46136,10538,0,0,0
20556,46663,11449,0,0,0
21050,47157,12318,0,0,0
21512,47618,13132,0,0,0
21957,48070,13904,0,0,0
22363,48490,14605,0,0,0
22705,48837,15195,0,0,0
22995,49131,15693,0,0,0
23254,49399,16125,0,0,0
23463,49617,16466,0,0,0
23606,49756,16695,0,0,0
23713,49853,16853,0,0,0
23810,49936,16969,0,0,0
23866,49977,17018,0,0,0
23869,49961,16985,0,0,0
23848,49927,16915,0,0,0
23821,49898,16834,0,0,0
23761,49841,16711,0,0,0
23658,49736,16531,0,0,0
23548,49622,16339,0,0,0
23442,49519,16159,0,0,0
23315,49389,15952,0,0,0
23162,49224,15707,0,0,0
23018,49068,15469,0,0,0
22893,48936,15252,0,0,0
22758,48788,15013,0,0,0
22612,48620,14751,0,0,0
22483,48474,14511,0,0,0
22370,48358,14291,0,0,0
22241,48224,14045,0,0,0
22097,48066,13777,0,0,0
21964,47925,13533,0,0,0
21836,47801,13307,0,0,0
21691,47656,13052,0,0,0
21534,47494,12782,0,0,0
21387,47349,12534,0,0,0
21244,47215,12297,0,0,0
21088,47060,12034,0,0,0
20930,46899,11767,0,0,0
20794,46765,11536,0,0,0
20672,46645,11326,0,0,0
20539,46509,11103,0,0,0
20407,46370,10886,0,0,0
20303,46266,10717,0,0,0
20217,46184,10580,0,0,0
20129,46091,10444,0,0,0
20046,46000,10325,0,0,0
19994,45949,10259,0,0,0
19966,45923,10226,0,0,0
19941,45894,10195,0,0,0
19931,45879,10185,0,0,0
19951,45901,10223,0,0,0
19980,45934,10279,0,0,0
20000,45953,10329,0,0,0
20036,45991,10396,0,0,0
20099,46061,10497,0,0,0
20152,46122,10587,0,0,0
20176,46149,10638,0,0,0
20199,46181,10692,0,0,0
20232,46232,10762,0,0,0
20248,46259,10803,0,0,0
20237,46241,10799,0,0,0
20227,46221,10791,0,0,0
20223,46213,10788,0,0,0
20199,46184,10752,0,0,0
20150,46126,10677,0,0,0
20099,46078,10605,0,0,0
20054,46046,10541,0,0,0
19991,45990,10441,0,0,0
19912,45906,10304,0,0,0
19841,45829,10174,0,0,0
19780,45768,10053,0,0,0
19704,45689,9906,0,0,0
19613,45593,9736,0,0,0
19528,45514,9579,0,0,0
19443,45446,9433,0,0,0
19330,45349,9258,0,0,0
19197,45229,9062,0,0,0
19084,45128,8886,0,0,0
18988,45044,8728,0,0,0
18877,44938,8549,0,0,0
18761,44823,8363,0,0,0
18669,44736,8207,0,0,0
18584,44656,8056,0,0,0
18484,44548,7875,0,0,0
18388,44437,7695,0,0,0
18315,44359,7556,0,0,0
18244,44290,7427,0,0,0
18154,44197,7274,0,0,0
18067,44107,7129,0,0,0
18010,44055,7026,0,0,0
17963,44017,6938,0,0,0
17907,43961,6835,0,0,0
17851,43901,6739,0,0,0
17805,43858,6667,0,0,0
17751,43809,6588,0,0,0
17688,43741,6488,0,0,0
17637,43686,6402,0,0,0
17605,43659,6348,0,0,0
17565,43622,6288,0,0,0
17508,43557,6205,0,0,0
17461,43502,6133,0,0,0
17434,43476,6088,0,0,0
17402,43446,6034,0,0,0
17356,43400,5967,0,0,0
17327,43373,5922,0,0,0
17315,43369,5899,0,0,0
17287,43346,5858,0,0,0
17241,43295,5792,0,0,0
17204,43255,5738,0,0,0
17178,43237,5699,0,0,0
17133,43200,5635,0,0,0
17072,43136,5545,0,0,0
17029,43089,5479,0,0,0
16999,43060,5430,0,0,0
16952,43006,5354,0,0,0
16896,42941,5262,0,0,0
16859,42909,5200,0,0,0
16830,42893,5151,0,0,0
16790,42855,5083,0,0,0
16756,42813,5018,0,0,0
16749,42804,4996,0,0,0
16759,42817,5001,0,0,0
16770,42825,5006,0,0,0
16801,42854,5048,0,0,0
16884,42950,5183,0,0,0
17015,43103,5410,0,0,0
17177,43282,5706,0,0,0
17385,43506,6097,0,0,0
17668,43815,6620,0,0,0
18020,44193,7263,0,0,0
18423,44609,7990,0,0,0
18879,45069,8797,0,0,0
19384,45574,9670,0,0,0
19895,46083,10549,0,0,0
20382,46563,11394,0,0,0
20864,47039,12221,0,0,0
21342,47522,13033,0,0,0
21777,47964,13776,0,0,0
22146,48335,14416,0,0,0
22477,48670,14977,0,0,0
22780,48984,15471,0,0,0
23022,49236,15864,0,0,0
23194,49409,16149,0,0,0
23328,49547,16371,0,0,0
23436,49664,16545,0,0,0
23497,49728,16636,0,0,0
23515,49735,16639,0,0,0
23516,49727,16607,0,0,0
23505,49715,16554,0,0,0
23462,49663,16447,0,0,0
23388,49575,16291,0,0,0
23313,49495,16134,0,0,0
23238,49420,15974,0,0,0
23141,49318,15780,0,0,0
23030,49193,15564,0,0,0
22930,49082,15365,0,0,0
22834,48977,15172,0,0,0
22721,48849,14957,0,0,0
22602,48711,14731,0,0,0
22500,48601,14531,0,0,0
22408,48510,14344,0,0,0
22300,48398,14134,0,0,0
22179,48269,13908,0,0,0
22075,48159,13699,0,0,0
21979,48058,13496,0,0,0
21858,47924,13261,0,0,0
21724,47770,13008,0,0,0
21603,47632,12774,0,0,0
21477,47494,12545,0,0,0
21329,47330,12295,0,0,0
21180,47168,12055,0,0,0
21054,47039,11852,0,0,0
20932,46915,11651,0,0,0
20798,46769,11433,0,0,0
20682,46642,11243,0,0,0
20603,46567,11112,0,0,0
20535,46503,11000,0,0,0
20461,46426,10885,0,0,0
20410,46376,10807,0,0,0
20394,46370,10784,0,0,0
20383,46367,10775,0,0,0
20365,46349,10766,0,0,0
20367,46352,10794,0,0,0
20396,46393,10865,0,0,0
20424,46432,10935,0,0,0
20449,46454,10991,0,0,0
20496,46500,11075,0,0,0
20563,46576,11192,0,0,0
20617,46635,11290,0,0,0
20652,46669,11361,0,0,0
20699,46715,11445,0,0,0
20754,46772,11535,0,0,0
20786,46796,11582,0,0,0
20793,46791,11592,0,0,0
20797,46792,11604,0,0,0
20796,46791,11608,0,0,0
20770,46754,11567,0,0,0
20727,46694,11493,0,0,0
20684,46649,11427,0,0,0
20638,46608,11356,0,0,0
20567,46535,11242,0,0,0
20480,46442,11099,0,0,0
20408,46371,10968,0,0,0
20345,46311,10843,0,0,0
20261,46224,10686,0,0,0
20160,46120,10510,0,0,0
20068,46034,10347,0,0,0
19974,45948,10183,0,0,0
19859,45831,9986,0,0,0
19743,45712,9784,0,0,0
19647,45623,9611,0,0,0
19548,45533,9435,0,0,0
19424,45409,9229,0,0,0
19303,45287,9029,0,0,0
19208,45197,8867,0,0,0
19111,45108,8705,0,0,0
18996,44996,8520,0,0,0
18891,44898,8354,0,0,0
18815,44835,8229,0,0,0
18740,44770,8106,0,0,0
18655,44685,7964,0,0,0
18585,44613,7844,0,0,0
18534,44565,7757,0,0,0
18473,44508,7662,0,0,0
18399,44430,7545,0,0,0
18343,44371,7451,0,0,0
18309,44338,7386,0,0,0
18266,44290,7304,0,0,0
18211,44225,7205,0,0,0
18170,44180,7131,0,0,0
18144,44158,7080,0,0,0
18108,44123,7013,0,0,0
18067,44075,6936,0,0,0
18043,44044,6880,0,0,0
18030,44030,6838,0,0,0
18003,43998,6774,0,0,0
17963,43953,6695,0,0,0
17935,43934,6639,0,0,0
17911,43927,6600,0,0,0
17860,43888,6535,0,0,0
17792,43823,6450,0,0,0
17741,43775,6387,0,0,0
17699,43740,6337,0,0,0
17637,43685,6266,0,0,0
17574,43623,6188,0,0,0
17538,43591,6136,0,0,0
17506,43564,6091,0,0,0
17455,43509,6019,0,0,0
17412,43459,5954,0,0,0
17405,43455,5934,0,0,0
17411,43466,5931,0,0,0
17409,43460,5918,0,0,0
17434,43480,5944,0,0,0
17519,43567,6060,0,0,0
17647,43701,6249,0,0,0
17806,43863,6505,0,0,0
18026,44090,6882,0,0,0
18325,44413,7415,0,0,0
18686,44801,8067,0,0,0
19097,45227,8801,0,0,0
19566,45700,9623,0,0,0
20075,46221,10516,0,0,0
20586,46740,11413,0,0,0
21082,47231,12277,0,0,0
21577,47719,13125,0,0,0
22063,48209,13944,0,0,0
22503,48651,14679,0,0,0
22879,49025,15309,0,0,0
23210,49359,15859,0,0,0
23499,49657,16335,0,0,0
23729,49887,16709,0,0,0
23903,50050,16984,0,0,0
24044,50187,17198,0,0,0
24159,50306,17357,0,0,0
24232,50368,17435,0,0,0
24262,50379,17445,0,0,0
24279,50386,17433,0,0,0
24280,50386,17401,0,0,0
24240,50336,17314,0,0,0
24168,50245,17182,0,0,0
24094,50163,17045,0,0,0
24014,50078,16897,0,0,0
23903,49951,16706,0,0,0
23778,49806,16494,0,0,0
23672,49687,16304,0,0,0
23567,49576,16116,0,0,0
23437,49435,15893,0,0,0
23301,49286,15657,0,0,0
23187,49168,15443,0,0,0
23069,49053,15227,0,0,0
22925,48901,14976,0,0,0
22780,48740,14721,0,0,0
22654,48604,14493,0,0,0
22520,48465,14256,0,0,0
22359,48297,13981,0,0,0
22204,48132,13710,0,0,0
22073,48000,13472,0,0,0
21935,47860,13228,0,0,0
21772,47688,12956,0,0,0
21620,47527,12694,0,0,0
21493,47400,12467,0,0,0
21366,47273,12241,0,0,0
21230,47131,12005,0,0,0
21117,47016,11806,0,0,0
21040,46947,11665,0,0,0
20971,46881,11541,0,0,0
20900,46801,11421,0,0,0
20857,46748,11343,0,0,0
20848,46737,11315,0,0,0
20839,46726,11293,0,0,0
20824,46706,11268,0,0,0
20836,46715,11282,0,0,0
20870,46756,11339,0,0,0
20893,46785,11392,0,0,0
20903,46798,11441,0,0,0
20932,46837,11527,0,0,0
20980,46900,11641,0,0,0
21016,46939,11729,0,0,0
21043,46958,11792,0,0,0
21090,47002,11871,0,0,0
21140,47054,11947,0,0,0
21160,47070,11974,0,0,0
21158,47064,11972,0,0,0
21164,47080,11988,0,0,0
21164,47093,11995,0,0,0
21135,47065,11951,0,0,0
21102,47021,11886,0,0,0
21087,47000,11840,0,0,0
21064,46972,11782,0,0,0
21003,46902,11673,0,0,0
20928,46820,11543,0,0,0
20864,46761,11426,0,0,0
20798,46696,11299,0,0,0
20708,46600,11139,0,0,0
20611,46499,10973,0,0,0
20522,46417,10825,0,0,0
20427,46331,10666,0,0,0
20317,46222,10480,0,0,0
20210,46115,10302,0,0,0
20112,46028,10150,0,0,0
20002,45928,9986,0,0,0
19880,45804,9792,0,0,0
19768,45688,9607,0,0,0
19672,45598,9443,0,0,0
19571,45500,9269,0,0,0
19461,45381,9074,0,0,0
19364,45279,8895,0,0,0
19284,45203,8748,0,0,0
19198,45116,8594,0,0,0
19100,45010,8425,0,0,0
19018,44926,8285,0,0,0
18953,44866,8173,0,0,0
18882,44791,8047,0,0,0
18802,44701,7910,0,0,0
18737,44635,7803,0,0,0
18682,44593,7721,0,0,0
18614,44535,7622,0,0,0
18541,44467,7519,0,0,0
18490,44431,7452,0,0,0
18454,44411,7401,0,0,0
18407,44366,7321,0,0,0
18361,44312,7230,0,0,0
18332,44282,7166,0,0,0
18306,44255,7110,0,0,0
18264,44199,7027,0,0,0
18222,44135,6942,0,0,0
18195,44100,6893,0,0,0
18169,44075,6854,0,0,0
18122,44022,6786,0,0,0
18069,43961,6713,0,0,0
18034,43931,6673,0,0,0
18007,43911,6638,0,0,0
17964,43869,6571,0,0,0
17916,43824,6499,0,0,0
17881,43802,6450,0,0,0
17847,43778,6393,0,0,0
17795,43729,6305,0,0,0
17745,43680,6224,0,0,0
17710,43654,6171,0,0,0
17671,43622,6111,0,0,0
17620,43567,6028,0,0,0
17579,43522,5953,0,0,0
17554,43500,5899,0,0,0
17520,43471,5836,0,0,0
17472,43421,5759,0,0,0
17440,43388,5703,0,0,0
17436,43391,5689,0,0,0
17441,43401,5691,0,0,0
17458,43415,5716,0,0,0
17521,43481,5818,0,0,0
17644,43616,6024,0,0,0
17810,43795,6313,0,0,0
18024,44017,6694,0,0,0
18318,44327,7216,0,0,0
18700,44731,7886,0,0,0
19135,45181,8653,0,0,0
19612,45663,9492,0,0,0
20141,46196,10414,0,0,0
20696,46761,11377,0,0,0
21228,47299,12304,0,0,0
21733,47806,13181,0,0,0
22230,48312,14035,0,0,0
22697,48794,14832,0,0,0
23097,49203,15517,0,0,0
23448,49553,16103,0,0,0
23773,49881,16628,0,0,0
24050,50163,17065,0,0,0
24257,50365,17380,0,0,0
24416,50516,17608,0,0,0
24549,50651,17795,0,0,0
24646,50752,17925,0,0,0
24691,50790,17969,0,0,0
24696,50787,17956,0,0,0
24686,50777,17922,0,0,0
24656,50746,17851,0,0,0
24592,50665,17725,0,0,0
24509,50560,17577,0,0,0
24425,50463,17433,0,0,0
24327,50354,17271,0,0,0
24213,50221,17079,0,0,0
24107,50096,16889,0,0,0
24018,49997,16718,0,0,0
23921,49890,16536,0,0,0
23811,49759,16332,0,0,0
23715,49642,16145,0,0,0
23639,49554,15991,0,0,0
23553,49459,15828,0,0,0
23445,49340,15639,0,0,0
23341,49235,15459,0,0,0
23250,49152,15299,0,0,0
23141,49048,15119,0,0,0
23013,48911,14909,0,0,0
22893,48784,14705,0,0,0
22782,48676,14510,0,0,0
22649,48551,14285,0,0,0
22502,48405,14034,0,0,0
22377,48278,13808,0,0,0
22269,48170,13604,0,0,0
22146,48039,13379,0,0,0
22019,47898,13151,0,0,0
21923,47795,12973,0,0,0
21844,47717,12834,0,0,0
21755,47624,12691,0,0,0
21676,47537,12565,0,0,0
21630,47495,12492,0,0,0
21600,47472,12449,0,0,0
21560,47428,12399,0,0,0
21526,47387,12363,0,0,0
21522,47387,12378,0,0,0
21530,47407,12416,0,0,0
21527,47408,12439,0,0,0
21527,47412,12466,0,0,0
21552,47450,12526,0,0,0
21586,47495,12590,0,0,0
21601,47508,12620,0,0,0
21606,47508,12639,0,0,0
21615,47519,12669,0,0,0
21613,47519,12682,0,0,0
21591,47487,12662,0,0,0
21565,47455,12634,0,0,0
21542,47436,12613,0,0,0
21499,47397,12568,0,0,0
21429,47321,12486,0,0,0
21359,47246,12394,0,0,0
21300,47193,12305,0,0,0
21222,47121,12187,0,0,0
21119,47014,12031,0,0,0
21020,46911,11874,0,0,0
20931,46825,11728,0,0,0
20823,46721,11558,0,0,0
20693,46592,11357,0,0,0
20569,46476,11163,0,0,0
20457,46381,10984,0,0,0
20328,46269,10782,0,0,0
20183,46134,10557,0,0,0
20054,46021,10355,0,0,0
19942,45932,10174,0,0,0
19818,45820,9963,0,0,0
19686,45686,9732,0,0,0
19578,45576,9532,0,0,0
19483,45484,9356,0,0,0
19372,45369,9160,0,0,0
19259,45246,8964,0,0,0
19168,45158,8807,0,0,0
19084,45084,8669,0,0,0
18984,44987,8510,0,0,0
18889,44891,8353,0,0,0
18824,44838,8236,0,0,0
18771,44799,8134,0,0,0
18704,44730,8008,0,0,0
18637,44656,7888,0,0,0
18592,44613,7810,0,0,0
18556,44582,7740,0,0,0
18505,44527,7639,0,0,0
18446,44463,7530,0,0,0
18398,44413,7444,0,0,0
18352,44363,7357,0,0,0
18298,44296,7250,0,0,0
18247,44231,7150,0,0,0
18209,44186,7075,0,0,0
18165,44135,6994,0,0,0
18110,44063,6890,0,0,0
18066,44008,6798,0,0,0
18038,43985,6735,0,0,0
18002,43955,6668,0,0,0
17947,43899,6584,0,0,0
17901,43854,6517,0,0,0
17876,43835,6479,0,0,0
17842,43805,6431,0,0,0
17786,43751,6361,0,0,0
17737,43709,6304,0,0,0
17706,43690,6266,0,0,0
17665,43660,6213,0,0,0
17611,43608,6141,0,0,0
17569,43570,6080,0,0,0
17539,43548,6031,0,0,0
17492,43506,5958,0,0,0
17432,43444,5864,0,0,0
17389,43402,5792,0,0,0
17359,43376,5740,0,0,0
17313,43326,5669,0,0,0
17259,43260,5593,0,0,0
17238,43236,5564,0,0,0
17245,43247,5579,0,0,0
17253,43256,5607,0,0,0
17283,43289,5676,0,0,0
17373,43396,5842,0,0,0
17516,43555,6094,0,0,0
17692,43736,6405,0,0,0
17926,43972,6817,0,0,0
18239,44299,7371,0,0,0
18603,44685,8030,0,0,0
18989,45083,8739,0,0,0
19410,45508,9505,0,0,0
19879,45983,10332,0,0,0
20352,46465,11158,0,0,0
20792,46906,11933,0,0,0
21214,47326,12679,0,0,0
21629,47746,13409,0,0,0
22003,48124,14072,0,0,0
22315,48431,14625,0,0,0
22589,48698,15100,0,0,0
22832,48947,15516,0,0,0
23016,49140,15837,0,0,0
23133,49261,16054,0,0,0
23217,49351,16212,0,0,0
23285,49433,16333,0,0,0
23313,49471,16385,0,0,0
23293,49452,16362,0,0,0
23255,49419,16311,0,0,0
23208,49382,16243,0,0,0
23126,49305,16118,0,0,0
23011,49184,15934,0,0,0
22897,49065,15740,0,0,0
22788,48956,15547,0,0,0
22661,48821,15320,0,0,0
22522,48665,15065,0,0,0
22399,48531,14829,0,0,0
22285,48418,14611,0,0,0
22154,48290,14371,0,0,0
22021,48157,14127,0,0,0
21909,48049,13914,0,0,0
21804,47946,13713,0,0,0
21679,47811,13481,0,0,0
21548,47660,13239,0,0,0
21429,47531,13025,0,0,0
21310,47409,12814,0,0,0
21165,47262,12567,0,0,0
21009,47104,12304,0,0,0
20866,46966,12064,0,0,0
20726,46831,11825,0,0,0
20567,46667,11554,0,0,0
20401,46494,11276,0,0,0
20254,46352,11030,0,0,0
20122,46226,10804,0,0,0
19987,46086,10570,0,0,0
19861,45953,10353,0,0,0
19764,45854,10180,0,0,0
19679,45772,10033,0,0,0
19594,45686,9894,0,0,0
19530,45623,9790,0,0,0
19498,45600,9737,0,0,0
19474,45584,9704,0,0,0
19447,45557,9674,0,0,0
19445,45553,9680,0,0,0
19473,45590,9738,0,0,0
19494,45626,9803,0,0,0
19499,45640,9855,0,0,0
19519,45668,9928,0,0,0
19565,45724,10031,0,0,0
19608,45771,10120,0,0,0
19640,45798,10182,0,0,0
19678,45841,10251,0,0,0
19727,45904,10332,0,0,0
19759,45947,10387,0,0,0
19771,45960,10409,0,0,0
19789,45981,10435,0,0,0
19812,46013,10460,0,0,0
19813,46013,10444,0,0,0
19789,45981,10393,0,0,0
19765,45954,10345,0,0,0
19738,45931,10294,0,0,0
19682,45871,10203,0,0,0
19601,45785,10078,0,0,0
19528,45718,9963,0,0,0
19457,45659,9852,0,0,0
19358,45562,9703,0,0,0
19243,45442,9526,0,0,0
19144,45347,9367,0,0,0
19051,45263,9215,0,0,0
18938,45151,9036,0,0,0
18827,45034,8852,0,0,0
18743,44951,8700,0,0,0
18660,44874,8553,0,0,0
18552,44766,8376,0,0,0
18444,44658,8199,0,0,0
18359,44584,8052,0,0,0
18274,44508,7898,0,0,0
18169,44393,7709,0,0,0
18070,44278,7529,0,0,0
17995,44199,7391,0,0,0
17919,44121,7257,0,0,0
17826,44017,7101,0,0,0
17749,43927,6965,0,0,0
17698,43874,6867,0,0,0
17640,43815,6765,0,0,0
17560,43729,6638,0,0,0
17486,43659,6529,0,0,0
17434,43624,6452,0,0,0
17374,43582,6367,0,0,0
17300,43518,6261,0,0,0
17241,43471,6176,0,0,0
17200,43447,6122,0,0,0
17148,43406,6054,0,0,0
17082,43339,5964,0,0,0
17033,43284,5891,0,0,0
16998,43248,5841,0,0,0
16946,43189,5768,0,0,0
16883,43110,5669,0,0,0
16841,43053,5591,0,0,0
16807,43011,5528,0,0,0
16751,42940,5434,0,0,0
16683,42856,5326,0,0,0
16631,42801,5250,0,0,0
16578,42758,5186,0,0,0
16503,42689,5091,0,0,0
16426,42613,4984,0,0,0
16371,42570,4909,0,0,0
16323,42539,4842,0,0,0
16259,42481,4744,0,0,0
16198,42416,4643,0,0,0
16163,42384,4583,0,0,0
16143,42372,4548,0,0,0
16121,42351,4510,0,0,0
16112,42347,4504,0,0,0
16146,42400,4580,0,0,0
16224,42500,4732,0,0,0
16336,42626,4942,0,0,0
16500,42804,5239,0,0,0
16734,43062,5653,0,0,0
17026,43379,6168,0,0,0
17365,43731,6766,0,0,0
17761,44140,7462,0,0,0
18213,44611,8247,0,0,0
18685,45095,9061,0,0,0
19153,45558,9861,0,0,0
19624,46021,10661,0,0,0
20091,46491,11452,0,0,0
20515,46924,12182,0,0,0
20884,47297,12827,0,0,0
21224,47643,13420,0,0,0
21540,47971,13960,0,0,0
21802,48238,14405,0,0,0
21998,48429,14739,0,0,0
22156,48581,14996,0,0,0
22279,48703,15186,0,0,0
22343,48763,15283,0,0,0
22358,48769,15298,0,0,0
22359,48765,15277,0,0,0
22341,48751,15224,0,0,0
22277,48685,15103,0,0,0
22175,48574,14930,0,0,0
22071,48472,14762,0,0,0
21970,48380,14596,0,0,0
21840,48257,14387,0,0,0
21695,48114,14150,0,0,0
21563,47991,13928,0,0,0
21428,47866,13698,0,0,0
