green_channel,red_channel,ir_channel,Anomaly_ch0,Anomaly_ch1,Anomaly_ch2
56482,53238,29060,0,0,0
56485,53241,29054,0,0,0
56487,53241,29045,0,0,0
56483,53236,29029,0,0,0
56473,53228,29006,0,0,0
56463,53222,28986,0,0,0
56451,53216,28974,0,0,0
56437,53208,28967,0,0,0
56422,53198,28960,0,0,0
56410,53190,28959,0,0,0
56402,53183,28961,0,0,0
56394,53176,28959,0,0,0
56385,53166,28952,0,0,0
56378,53156,28940,0,0,0
56370,53145,28923,0,0,0
56358,53131,28901,0,0,0
56344,53115,28879,0,0,0
56327,53102,28855,0,0,0
56311,53092,28828,0,0,0
56292,53080,28795,0,0,0
56264,53063,28756,0,0,0
56231,53038,28714,0,0,0
56198,53013,28671,0,0,0
56169,52994,28631,0,0,0
56144,52976,28597,0,0,0
56123,52959,28572,0,0,0
56106,52945,28551,0,0,0
56091,52930,28529,0,0,0
56081,52917,28513,0,0,0
56077,52909,28501,0,0,0
56073,52899,28484,0,0,0
56063,52888,28462,0,0,0
56049,52881,28440,0,0,0
56033,52877,28422,0,0,0
56014,52869,28402,0,0,0
55995,52859,28380,0,0,0
55979,52852,28359,0,0,0
55966,52847,28340,0,0,0
55954,52837,28319,0,0,0
55948,52824,28296,0,0,0
55946,52812,28274,0,0,0
55940,52798,28250,0,0,0
55930,52780,28220,0,0,0
55921,52759,28187,0,0,0
55912,52740,28163,0,0,0
55903,52722,28146,0,0,0
55893,52708,28124,0,0,0
55879,52698,28101,0,0,0
55865,52695,28081,0,0,0
55855,52696,28062,0,0,0
55846,52694,28040,0,0,0
55837,52689,28017,0,0,0
55831,52684,27997,0,0,0
55825,52678,27980,0,0,0
55813,52665,27963,0,0,0
55795,52647,27945,0,0,0
55775,52630,27927,0,0,0
55753,52612,27909,0,0,0
55728,52591,27886,0,0,0
55702,52568,27859,0,0,0
55670,52545,27831,0,0,0
55635,52524,27799,0,0,0
55602,52505,27766,0,0,0
55574,52487,27737,0,0,0
55550,52469,27715,0,0,0
55533,52454,27701,0,0,0
55524,52443,27696,0,0,0
55524,52439,27704,0,0,0
55536,52442,27725,0,0,0
55560,52458,27758,0,0,0
55596,52487,27805,0,0,0
55642,52526,27868,0,0,0
55703,52576,27948,0,0,0
55774,52636,28044,0,0,0
55852,52706,28151,0,0,0
55934,52779,28269,0,0,0
56014,52850,28390,0,0,0
56089,52916,28511,0,0,0
56160,52980,28631,0,0,0
56227,53047,28752,0,0,0
56292,53113,28873,0,0,0
56356,53176,28986,0,0,0
56413,53233,29091,0,0,0
56463,53284,29186,0,0,0
56506,53331,29269,0,0,0
56545,53372,29341,0,0,0
56582,53405,29407,0,0,0
56615,53432,29466,0,0,0
56645,53459,29518,0,0,0
56673,53487,29561,0,0,0
56694,53510,29596,0,0,0
56708,53528,29624,0,0,0
56722,53545,29649,0,0,0
56735,53557,29672,0,0,0
56747,53565,29693,0,0,0
56759,53572,29713,0,0,0
56769,53580,29733,0,0,0
56776,53585,29752,0,0,0
56783,53590,29772,0,0,0
56789,53596,29794,0,0,0
56795,53603,29816,0,0,0
56798,53611,29837,0,0,0
56798,53618,29859,0,0,0
56799,53625,29887,0,0,0
56803,53634,29919,0,0,0
56812,53646,29956,0,0,0
56826,53662,29998,0,0,0
56843,53680,30039,0,0,0
56868,53703,30080,0,0,0
56900,53729,30122,0,0,0
56932,53754,30168,0,0,0
56964,53780,30216,0,0,0
56998,53807,30262,0,0,0
57035,53838,30309,0,0,0
57075,53870,30358,0,0,0
57113,53898,30399,0,0,0
57145,53920,30430,0,0,0
57170,53936,30457,0,0,0
57189,53949,30484,0,0,0
57210,53963,30513,0,0,0
57228,53977,30538,0,0,0
57236,53986,30555,0,0,0
57236,53990,30565,0,0,0
57231,53994,30573,0,0,0
57226,54001,30582,0,0,0
57221,54010,30591,0,0,0
57211,54012,30594,0,0,0
57198,54007,30589,0,0,0
57187,54001,30584,0,0,0
57178,53996,30582,0,0,0
57171,53995,30582,0,0,0
57167,53998,30586,0,0,0
57166,54003,30594,0,0,0
57169,54005,30607,0,0,0
57177,54007,30623,0,0,0
57189,54011,30639,0,0,0
57201,54018,30648,0,0,0
57215,54026,30655,0,0,0
57226,54034,30663,0,0,0
57228,54036,30667,0,0,0
57228,54035,30665,0,0,0
57227,54034,30665,0,0,0
57225,54033,30671,0,0,0
57228,54035,30679,0,0,0
57236,54041,30685,0,0,0
57243,54047,30689,0,0,0
57248,54050,30694,0,0,0
57254,54050,30700,0,0,0
57260,54047,30705,0,0,0
57264,54046,30709,0,0,0
57267,54047,30716,0,0,0
57270,54049,30722,0,0,0
57269,54047,30722,0,0,0
57263,54041,30717,0,0,0
57255,54037,30711,0,0,0
57248,54038,30709,0,0,0
57239,54041,30706,0,0,0
57227,54040,30703,0,0,0
57208,54034,30696,0,0,0
57190,54025,30685,0,0,0
57179,54020,30674,0,0,0
57171,54018,30665,0,0,0
57165,54012,30658,0,0,0
57161,54000,30648,0,0,0
57159,53986,30633,0,0,0
57160,53975,30620,0,0,0
57161,53966,30608,0,0,0
57161,53955,30593,0,0,0
57152,53942,30574,0,0,0
57139,53929,30551,0,0,0
57121,53914,30525,0,0,0
57101,53900,30498,0,0,0
57082,53889,30475,0,0,0
57069,53880,30457,0,0,0
57057,53870,30440,0,0,0
57044,53859,30425,0,0,0
57031,53849,30411,0,0,0
57021,53841,30401,0,0,0
57012,53835,30389,0,0,0
57005,53829,30375,0,0,0
56997,53823,30360,0,0,0
56988,53816,30344,0,0,0
56974,53810,30324,0,0,0
56954,53800,30301,0,0,0
56932,53787,30279,0,0,0
56909,53772,30260,0,0,0
56888,53757,30240,0,0,0
56871,53745,30221,0,0,0
56859,53739,30210,0,0,0
56852,53736,30205,0,0,0
56845,53732,30198,0,0,0
56837,53727,30185,0,0,0
56828,53723,30172,0,0,0
56817,53720,30162,0,0,0
56803,53717,30152,0,0,0
56790,53712,30141,0,0,0
56776,53702,30131,0,0,0
56760,53690,30123,0,0,0
56743,53675,30111,0,0,0
56729,53656,30091,0,0,0
56718,53639,30069,0,0,0
56712,53628,30050,0,0,0
56710,53621,30033,0,0,0
56711,53615,30017,0,0,0
56709,53610,30001,0,0,0
56704,53601,29985,0,0,0
56694,53587,29967,0,0,0
56681,53574,29947,0,0,0
56669,53567,29930,0,0,0
56659,53560,29915,0,0,0
56648,53552,29898,0,0,0
56637,53547,29881,0,0,0
56627,53551,29867,0,0,0
56614,53553,29851,0,0,0
56599,53550,29830,0,0,0
56587,53545,29805,0,0,0
56580,53540,29781,0,0,0
56577,53536,29757,0,0,0
56571,53529,29730,0,0,0
56559,53516,29700,0,0,0
56541,53498,29667,0,0,0
56520,53479,29629,0,0,0
56499,53460,29592,0,0,0
56478,53443,29560,0,0,0
56457,53428,29532,0,0,0
56433,53413,29502,0,0,0
56409,53395,29469,0,0,0
56386,53374,29439,0,0,0
56368,53356,29415,0,0,0
56354,53344,29393,0,0,0
56340,53335,29374,0,0,0
56322,53325,29355,0,0,0
56303,53311,29337,0,0,0
56287,53300,29320,0,0,0
56273,53291,29301,0,0,0
56258,53284,29283,0,0,0
56244,53276,29263,0,0,0
56227,53263,29237,0,0,0
56203,53244,29205,0,0,0
56174,53223,29172,0,0,0
56143,53201,29142,0,0,0
56115,53182,29114,0,0,0
56091,53165,29085,0,0,0
56068,53148,29058,0,0,0
56045,53128,29030,0,0,0
56024,53106,29003,0,0,0
56010,53089,28979,0,0,0
55998,53079,28960,0,0,0
55987,53074,28940,0,0,0
55980,53072,28920,0,0,0
55976,53069,28902,0,0,0
55971,53063,28882,0,0,0
55963,53057,28862,0,0,0
55959,53051,28842,0,0,0
55953,53041,28820,0,0,0
55939,53021,28794,0,0,0
55916,52992,28756,0,0,0
55889,52962,28707,0,0,0
55857,52934,28658,0,0,0
55830,52915,28619,0,0,0
55813,52902,28590,0,0,0
55800,52889,28563,0,0,0
55787,52876,28539,0,0,0
55771,52862,28519,0,0,0
55755,52850,28498,0,0,0
55741,52842,28476,0,0,0
55726,52831,28453,0,0,0
55705,52818,28434,0,0,0
55680,52802,28412,0,0,0
55656,52785,28387,0,0,0
55635,52772,28362,0,0,0
55614,52758,28340,0,0,0
55594,52742,28319,0,0,0
55577,52722,28295,0,0,0
55563,52699,28267,0,0,0
55545,52673,28237,0,0,0
55523,52647,28203,0,0,0
55500,52624,28165,0,0,0
55474,52602,28130,0,0,0
55450,52583,28101,0,0,0
55435,52570,28079,0,0,0
55425,52557,28058,0,0,0
55417,52547,28036,0,0,0
55411,52539,28016,0,0,0
55404,52533,27995,0,0,0
55395,52525,27974,0,0,0
55383,52517,27956,0,0,0
55372,52512,27941,0,0,0
55361,52507,27923,0,0,0
55348,52498,27898,0,0,0
55332,52485,27871,0,0,0
55312,52467,27843,0,0,0
55289,52447,27816,0,0,0
55266,52426,27788,0,0,0
55241,52407,27760,0,0,0
55218,52392,27733,0,0,0
55197,52379,27708,0,0,0
55178,52367,27684,0,0,0
55162,52360,27663,0,0,0
55150,52357,27649,0,0,0
55143,52355,27643,0,0,0
55143,52361,27648,0,0,0
55159,52378,27673,0,0,0
55193,52408,27716,0,0,0
55242,52453,27775,0,0,0
55301,52510,27853,0,0,0
55372,52580,27953,0,0,0
55453,52658,28071,0,0,0
55536,52735,28199,0,0,0
55617,52808,28331,0,0,0
55696,52879,28467,0,0,0
55776,52950,28605,0,0,0
55852,53017,28741,0,0,0
55926,53080,28873,0,0,0
56001,53143,29004,0,0,0
56071,53202,29129,0,0,0
56133,53256,29245,0,0,0
56188,53307,29351,0,0,0
56239,53355,29447,0,0,0
56289,53399,29531,0,0,0
56332,53437,29602,0,0,0
56364,53467,29661,0,0,0
56387,53488,29706,0,0,0
56400,53503,29741,0,0,0
56409,53515,29772,0,0,0
56419,53528,29801,0,0,0
56427,53541,29828,0,0,0
56435,53552,29847,0,0,0
56443,53562,29861,0,0,0
56450,53569,29880,0,0,0
56459,53577,29908,0,0,0
56471,53586,29939,0,0,0
56482,53597,29972,0,0,0
56494,53611,30008,0,0,0
56508,53622,30039,0,0,0
56524,53631,30061,0,0,0
56542,53638,30078,0,0,0
56562,53648,30100,0,0,0
56586,53667,30130,0,0,0
56610,53692,30167,0,0,0
56635,53715,30209,0,0,0
56663,53737,30256,0,0,0
56695,53762,30310,0,0,0
56729,53791,30368,0,0,0
56762,53819,30426,0,0,0
56792,53847,30478,0,0,0
56820,53873,30523,0,0,0
56847,53899,30565,0,0,0
56875,53927,30616,0,0,0
56903,53955,30672,0,0,0
56928,53982,30723,0,0,0
56949,54010,30768,0,0,0
56968,54037,30809,0,0,0
56989,54061,30845,0,0,0
57011,54081,30877,0,0,0
57030,54098,30906,0,0,0
57050,54114,30929,0,0,0
57069,54131,30945,0,0,0
57086,54144,30956,0,0,0
57100,54152,30962,0,0,0
57112,54158,30970,0,0,0
57121,54160,30980,0,0,0
57124,54157,30986,0,0,0
57118,54148,30983,0,0,0
57109,54137,30976,0,0,0
57097,54127,30967,0,0,0
57086,54118,30958,0,0,0
57080,54113,30955,0,0,0
57080,54109,30959,0,0,0
57083,54108,30965,0,0,0
57091,54109,30972,0,0,0
57099,54109,30979,0,0,0
57104,54112,30991,0,0,0
57110,54123,31012,0,0,0
57119,54139,31034,0,0,0
57125,54156,31055,0,0,0
57132,54171,31077,0,0,0
57140,54184,31101,0,0,0
57147,54192,31119,0,0,0
57152,54197,31132,0,0,0
57157,54202,31145,0,0,0
57162,54208,31155,0,0,0
57166,54215,31163,0,0,0
57167,54224,31171,0,0,0
57162,54231,31178,0,0,0
57154,54234,31181,0,0,0
57148,54236,31177,0,0,0
57139,54234,31168,0,0,0
57128,54228,31158,0,0,0
57119,54221,31150,0,0,0
57114,54214,31147,0,0,0
57111,54209,31147,0,0,0
57111,54205,31147,0,0,0
57113,54201,31146,0,0,0
57111,54197,31141,0,0,0
57105,54193,31134,0,0,0
57098,54188,31126,0,0,0
57096,54184,31118,0,0,0
57094,54180,31109,0,0,0
57091,54174,31102,0,0,0
57089,54168,31096,0,0,0
57086,54163,31087,0,0,0
57082,54157,31074,0,0,0
57075,54150,31058,0,0,0
57067,54143,31037,0,0,0
57058,54136,31010,0,0,0
57048,54129,30983,0,0,0
57039,54123,30961,0,0,0
57031,54116,30940,0,0,0
57021,54105,30919,0,0,0
57015,54097,30898,0,0,0
57009,54090,30881,0,0,0
57001,54082,30867,0,0,0
56992,54074,30855,0,0,0
56983,54064,30842,0,0,0
56972,54053,30827,0,0,0
56959,54042,30812,0,0,0
56942,54027,30793,0,0,0
56923,54006,30771,0,0,0
56909,53987,30755,0,0,0
56901,53976,30746,0,0,0
56891,53970,30737,0,0,0
56878,53963,30727,0,0,0
56865,53956,30717,0,0,0
56851,53947,30703,0,0,0
56835,53933,30687,0,0,0
56823,53923,30671,0,0,0
56814,53917,30657,0,0,0
56806,53915,30646,0,0,0
56797,53914,30635,0,0,0
56784,53911,30621,0,0,0
56766,53903,30603,0,0,0
56750,53890,30580,0,0,0
56739,53875,30558,0,0,0
56734,53863,30540,0,0,0
56729,53853,30524,0,0,0
56728,53845,30504,0,0,0
56730,53840,30478,0,0,0
56732,53835,30451,0,0,0
56727,53828,30423,0,0,0
56717,53819,30400,0,0,0
56703,53808,30381,0,0,0
56689,53797,30362,0,0,0
56675,53790,30346,0,0,0
56667,53788,30335,0,0,0
56662,53786,30329,0,0,0
56653,53778,30322,0,0,0
56637,53761,30309,0,0,0
56621,53740,30291,0,0,0
56607,53723,30270,0,0,0
56592,53709,30247,0,0,0
56577,53695,30222,0,0,0
56562,53682,30195,0,0,0
56547,53673,30169,0,0,0
56533,53666,30144,0,0,0
56519,53657,30118,0,0,0
56510,53646,30088,0,0,0
56505,53634,30058,0,0,0
56498,53623,30030,0,0,0
56489,53611,29999,0,0,0
56480,53602,29968,0,0,0
56469,53596,29945,0,0,0
56459,53594,29931,0,0,0
56449,53595,29925,0,0,0
56437,53595,29918,0,0,0
56421,53591,29910,0,0,0
56403,53582,29897,0,0,0
56386,53572,29879,0,0,0
56373,53561,29857,0,0,0
56362,53549,29832,0,0,0
56354,53537,29807,0,0,0
56349,53529,29785,0,0,0
56338,53523,29764,0,0,0
56328,53516,29742,0,0,0
56323,53508,29720,0,0,0
56323,53499,29695,0,0,0
56319,53485,29668,0,0,0
56310,53467,29640,0,0,0
56297,53449,29615,0,0,0
56283,53435,29596,0,0,0
56269,53427,29581,0,0,0
56257,53422,29568,0,0,0
56249,53418,29557,0,0,0
56245,53413,29547,0,0,0
56237,53405,29537,0,0,0
56224,53394,29529,0,0,0
56209,53383,29520,0,0,0
56193,53374,29504,0,0,0
56180,53364,29483,0,0,0
56166,53350,29463,0,0,0
56148,53335,29442,0,0,0
56130,53318,29417,0,0,0
56112,53300,29391,0,0,0
56091,53280,29366,0,0,0
56072,53261,29343,0,0,0
56055,53248,29317,0,0,0
56035,53231,29284,0,0,0
56012,53213,29247,0,0,0
55989,53197,29208,0,0,0
55967,53179,29166,0,0,0
55944,53156,29123,0,0,0
55920,53134,29086,0,0,0
55893,53113,29052,0,0,0
55866,53089,29016,0,0,0
55843,53067,28985,0,0,0
55825,53053,28964,0,0,0
55810,53047,28949,0,0,0
55800,53042,28932,0,0,0
55788,53035,28912,0,0,0
55770,53022,28891,0,0,0
55751,53006,28870,0,0,0
55733,52988,28847,0,0,0
55717,52970,28821,0,0,0
55703,52954,28793,0,0,0
55691,52939,28765,0,0,0
55679,52926,28736,0,0,0
55664,52911,28708,0,0,0
55642,52891,28679,0,0,0
55616,52865,28644,0,0,0
55590,52835,28600,0,0,0
55568,52805,28556,0,0,0
55546,52777,28516,0,0,0
55523,52753,28477,0,0,0
55503,52735,28446,0,0,0
55491,52726,28433,0,0,0
55491,52727,28438,0,0,0
55504,52739,28460,0,0,0
55525,52762,28498,0,0,0
55556,52797,28558,0,0,0
55597,52844,28639,0,0,0
55651,52898,28735,0,0,0
55725,52964,28845,0,0,0
55816,53045,28973,0,0,0
55915,53133,29113,0,0,0
56012,53219,29257,0,0,0
56107,53302,29401,0,0,0
56199,53382,29546,0,0,0
56285,53454,29687,0,0,0
56364,53521,29819,0,0,0
56437,53584,29945,0,0,0
56501,53640,30064,0,0,0
56557,53688,30168,0,0,0
56611,53732,30261,0,0,0
56664,53777,30347,0,0,0
56712,53820,30426,0,0,0
56751,53857,30497,0,0,0
56784,53887,30559,0,0,0
56813,53911,30610,0,0,0
56831,53927,30653,0,0,0
56843,53939,30689,0,0,0
56850,53948,30715,0,0,0
56854,53954,30733,0,0,0
56859,53963,30750,0,0,0
56868,53973,30767,0,0,0
56880,53983,30782,0,0,0
56892,53993,30792,0,0,0
56900,54001,30804,0,0,0
56903,54007,30819,0,0,0
56904,54014,30835,0,0,0
56912,54024,30853,0,0,0
56926,54038,30877,0,0,0
56943,54053,30906,0,0,0
56961,54068,30936,0,0,0
56985,54088,30973,0,0,0
57014,54115,31020,0,0,0
57046,54147,31071,0,0,0
57078,54182,31125,0,0,0
57109,54215,31183,0,0,0
57136,54245,31239,0,0,0
57159,54274,31290,0,0,0
57186,54306,31342,0,0,0
57219,54341,31396,0,0,0
57255,54377,31450,0,0,0
57290,54411,31500,0,0,0
57324,54444,31544,0,0,0
57356,54474,31586,0,0,0
57384,54502,31626,0,0,0
57403,54521,31660,0,0,0
57414,54531,31685,0,0,0
57423,54538,31703,0,0,0
57428,54545,31716,0,0,0
57431,54550,31725,0,0,0
57430,54549,31730,0,0,0
57427,54546,31734,0,0,0
57427,54545,31742,0,0,0
57429,54544,31750,0,0,0
57430,54544,31758,0,0,0
57430,54546,31769,0,0,0
57427,54547,31780,0,0,0
57422,54546,31785,0,0,0
57416,54542,31787,0,0,0
57410,54535,31789,0,0,0
57406,54529,31793,0,0,0
57403,54526,31797,0,0,0
57403,54526,31800,0,0,0
57408,54529,31805,0,0,0
57416,54535,31814,0,0,0
57421,54542,31824,0,0,0
57422,54548,31833,0,0,0
57424,54556,31843,0,0,0
57430,54567,31856,0,0,0
57438,54578,31870,0,0,0
57444,54585,31883,0,0,0
57446,54587,31895,0,0,0
57449,54588,31904,0,0,0
57454,54585,31903,0,0,0
57461,54585,31897,0,0,0
57470,54587,31894,0,0,0
57474,54590,31892,0,0,0
57472,54593,31893,0,0,0
57465,54597,31896,0,0,0
57453,54597,31898,0,0,0
57440,54589,31898,0,0,0
57432,54582,31897,0,0,0
57428,54580,31896,0,0,0
57421,54577,31890,0,0,0
57407,54569,31878,0,0,0
57387,54558,31862,0,0,0
57368,54546,31843,0,0,0
57356,54537,31822,0,0,0
57346,54530,31799,0,0,0
57332,54520,31776,0,0,0
57313,54507,31755,0,0,0
57293,54489,31733,0,0,0
57274,54470,31706,0,0,0
57262,54453,31677,0,0,0
57257,54441,31656,0,0,0
57250,54426,31643,0,0,0
57240,54408,31630,0,0,0
57231,54390,31616,0,0,0
57223,54377,31604,0,0,0
57219,54372,31593,0,0,0
57215,54372,31582,0,0,0
57205,54370,31574,0,0,0
57194,54372,31573,0,0,0
57187,54374,31572,0,0,0
57181,54372,31566,0,0,0
57173,54366,31555,0,0,0
57161,54360,31544,0,0,0
57152,54355,31534,0,0,0
57149,54353,31524,0,0,0
57145,54348,31510,0,0,0
57136,54337,31491,0,0,0
57125,54324,31467,0,0,0
57113,54310,31438,0,0,0
57108,54300,31413,0,0,0
57108,54289,31391,0,0,0
57108,54275,31370,0,0,0
57103,54259,31349,0,0,0
57091,54243,31328,0,0,0
57076,54230,31311,0,0,0
57063,54221,31296,0,0,0
57053,54216,31283,0,0,0
57043,54211,31271,0,0,0
57028,54204,31259,0,0,0
57008,54192,31242,0,0,0
56989,54177,31219,0,0,0
56978,54168,31197,0,0,0
56969,54163,31179,0,0,0
56956,54154,31158,0,0,0
56943,54140,31134,0,0,0
56927,54122,31114,0,0,0
56907,54103,31095,0,0,0
56889,54087,31073,0,0,0
56873,54074,31051,0,0,0
56859,54062,31031,0,0,0
56846,54051,31011,0,0,0
56834,54042,30992,0,0,0
56823,54034,30974,0,0,0
56811,54025,30956,0,0,0
56799,54013,30934,0,0,0
56786,54000,30908,0,0,0
56770,53985,30880,0,0,0
56750,53968,30852,0,0,0
56729,53950,30826,0,0,0
56709,53931,30800,0,0,0
56689,53912,30772,0,0,0
56668,53895,30740,0,0,0
56644,53876,30701,0,0,0
56619,53853,30656,0,0,0
56591,53831,30614,0,0,0
56560,53809,30577,0,0,0
56525,53784,30539,0,0,0
56491,53757,30501,0,0,0
56460,53729,30467,0,0,0
56435,53705,30436,0,0,0
56412,53684,30406,0,0,0
56386,53667,30378,0,0,0
56361,53651,30351,0,0,0
56340,53636,30325,0,0,0
56323,53621,30299,0,0,0
56309,53606,30274,0,0,0
56299,53593,30249,0,0,0
56289,53578,30226,0,0,0
56282,53560,30199,0,0,0
56277,53548,30173,0,0,0
56271,53541,30152,0,0,0
56260,53535,30132,0,0,0
56241,53524,30109,0,0,0
56221,53510,30083,0,0,0
56204,53497,30056,0,0,0
56184,53483,30030,0,0,0
56159,53468,30001,0,0,0
56133,53454,29970,0,0,0
56113,53444,29945,0,0,0
56097,53437,29922,0,0,0
56082,53427,29896,0,0,0
56064,53412,29865,0,0,0
56046,53397,29835,0,0,0
56030,53383,29808,0,0,0
56014,53368,29779,0,0,0
55996,53350,29746,0,0,0
55977,53333,29716,0,0,0
55954,53317,29689,0,0,0
55927,53299,29661,0,0,0
55902,53284,29632,0,0,0
55880,53271,29604,0,0,0
55860,53256,29578,0,0,0
55841,53238,29555,0,0,0
55823,53218,29530,0,0,0
55799,53192,29495,0,0,0
55769,53159,29453,0,0,0
55737,53126,29412,0,0,0
55707,53098,29378,0,0,0
55681,53079,29350,0,0,0
55663,53067,29328,0,0,0
55653,53061,29314,0,0,0
55651,53062,29317,0,0,0
55659,53073,29336,0,0,0
55678,53094,29366,0,0,0
55711,53125,29408,0,0,0
55757,53166,29467,0,0,0
55816,53220,29544,0,0,0
55883,53282,29636,0,0,0
55959,53350,29745,0,0,0
56039,53423,29870,0,0,0
56119,53496,30008,0,0,0
56201,53570,30154,0,0,0
56287,53648,30302,0,0,0
56378,53727,30451,0,0,0
56469,53808,30599,0,0,0
56555,53887,30741,0,0,0
56630,53959,30872,0,0,0
56699,54023,30993,0,0,0
56762,54081,31104,0,0,0
56820,54134,31202,0,0,0
56875,54182,31289,0,0,0
56926,54225,31369,0,0,0
56970,54263,31443,0,0,0
57004,54294,31508,0,0,0
57028,54317,31560,0,0,0
57044,54329,31601,0,0,0
57058,54336,31634,0,0,0
57068,54341,31663,0,0,0
57073,54346,31690,0,0,0
57080,54358,31716,0,0,0
57091,54375,31741,0,0,0
57104,54392,31764,0,0,0
57117,54407,31790,0,0,0
57130,54421,31821,0,0,0
57139,54433,31848,0,0,0
57146,54438,31868,0,0,0
57157,54445,31892,0,0,0
57172,54458,31922,0,0,0
57190,54475,31958,0,0,0
57210,54496,31999,0,0,0
57230,54517,32042,0,0,0
57251,54539,32091,0,0,0
57276,54565,32146,0,0,0
57303,54592,32203,0,0,0
57331,54619,32264,0,0,0
57363,54650,32329,0,0,0
57395,54685,32392,0,0,0
57423,54720,32452,0,0,0
57450,54751,32510,0,0,0
57481,54778,32567,0,0,0
57517,54805,32623,0,0,0
57556,54832,32680,0,0,0
57592,54858,32734,0,0,0
57625,54879,32778,0,0,0
57655,54895,32810,0,0,0
57676,54907,32833,0,0,0
57684,54910,32850,0,0,0
57683,54909,32864,0,0,0
57686,54909,32874,0,0,0
57690,54913,32882,0,0,0
57695,54918,32890,0,0,0
57700,54925,32898,0,0,0
57704,54935,32904,0,0,0
57708,54948,32910,0,0,0
57714,54964,32920,0,0,0
57720,54983,32932,0,0,0
57723,54994,32940,0,0,0
57719,54996,32945,0,0,0
57715,54994,32947,0,0,0
57715,54990,32948,0,0,0
57717,54984,32950,0,0,0
57722,54980,32961,0,0,0
57734,54982,32980,0,0,0
57745,54987,33001,0,0,0
57754,54993,33016,0,0,0
57759,54998,33025,0,0,0
57760,54998,33028,0,0,0
57763,54997,33030,0,0,0
57768,54999,33032,0,0,0
57770,55006,33034,0,0,0
57773,55014,33038,0,0,0
57772,55020,33042,0,0,0
57765,55020,33042,0,0,0
57755,55014,33036,0,0,0
57746,55007,33030,0,0,0
57744,55006,33029,0,0,0
57746,55008,33032,0,0,0
57745,55009,33038,0,0,0
57744,55008,33046,0,0,0
57747,55007,33053,0,0,0
57748,55005,33058,0,0,0
57745,55003,33059,0,0,0
57738,54996,33055,0,0,0
57731,54985,33043,0,0,0
57722,54973,33027,0,0,0
57706,54960,33008,0,0,0
57685,54949,32989,0,0,0
57669,54942,32974,0,0,0
57657,54938,32958,0,0,0
57645,54933,32939,0,0,0
57630,54926,32918,0,0,0
57613,54917,32892,0,0,0
57592,54902,32864,0,0,0
57570,54883,32837,0,0,0
57551,54861,32808,0,0,0
57538,54843,32782,0,0,0
57531,54832,32764,0,0,0
57526,54827,32751,0,0,0
57516,54823,32739,0,0,0
57502,54817,32725,0,0,0
57489,54810,32711,0,0,0
57477,54803,32697,0,0,0
57465,54796,32681,0,0,0
57455,54791,32663,0,0,0
57448,54783,32645,0,0,0
57442,54774,32629,0,0,0
57438,54764,32612,0,0,0
57427,54752,32595,0,0,0
57411,54738,32578,0,0,0
57399,54729,32566,0,0,0
57389,54722,32556,0,0,0
57375,54712,32542,0,0,0
57359,54699,32525,0,0,0
57346,54687,32512,0,0,0
57332,54670,32502,0,0,0
57319,54648,32492,0,0,0
57312,54628,32483,0,0,0
57312,54613,32470,0,0,0
57309,54603,32450,0,0,0
57299,54596,32425,0,0,0
57279,54585,32399,0,0,0
57250,54567,32372,0,0,0
57219,54545,32341,0,0,0
57187,54521,32308,0,0,0
57151,54496,32274,0,0,0
57117,54470,32238,0,0,0
57093,54445,32201,0,0,0
57074,54419,32166,0,0,0
57055,54394,32133,0,0,0
57040,54375,32102,0,0,0
57031,54364,32073,0,0,0
57027,54357,32051,0,0,0
57027,54350,32037,0,0,0
57027,54346,32027,0,0,0
57025,54348,32016,0,0,0
57020,54348,32000,0,0,0
57012,54345,31982,0,0,0
56999,54340,31961,0,0,0
56984,54332,31938,0,0,0
56967,54320,31914,0,0,0
56951,54307,31890,0,0,0
56931,54288,31860,0,0,0
56906,54265,31823,0,0,0
56882,54241,31785,0,0,0
56862,54221,31753,0,0,0
56844,54201,31720,0,0,0
56821,54178,31683,0,0,0
56792,54153,31644,0,0,0
56759,54127,31606,0,0,0
56725,54102,31565,0,0,0
56694,54079,31525,0,0,0
56668,54060,31493,0,0,0
56650,54044,31468,0,0,0
56635,54032,31444,0,0,0
56617,54018,31417,0,0,0
56596,54001,31384,0,0,0
56571,53985,31351,0,0,0
56541,53967,31317,0,0,0
56511,53944,31279,0,0,0
56479,53914,31238,0,0,0
56445,53885,31198,0,0,0
56414,53861,31161,0,0,0
56388,53842,31125,0,0,0
56366,53824,31091,0,0,0
56350,53809,31056,0,0,0
56339,53797,31020,0,0,0
56332,53786,30985,0,0,0
56328,53772,30955,0,0,0
56322,53760,30926,0,0,0
56316,53752,30897,0,0,0
56305,53742,30869,0,0,0
56290,53729,30841,0,0,0
56274,53717,30812,0,0,0
56257,53706,30782,0,0,0
56237,53696,30753,0,0,0
56216,53687,30729,0,0,0
56201,53680,30706,0,0,0
56188,53672,30681,0,0,0
56174,53656,30655,0,0,0
56159,53638,30627,0,0,0
56145,53621,30594,0,0,0
56127,53602,30555,0,0,0
56104,53580,30516,0,0,0
56079,53558,30480,0,0,0
56055,53539,30446,0,0,0
56030,53519,30412,0,0,0
56007,53498,30378,0,0,0
55983,53478,30342,0,0,0
55956,53455,30306,0,0,0
55927,53431,30271,0,0,0
55897,53405,30239,0,0,0
55867,53381,30210,0,0,0
55840,53359,30182,0,0,0
55816,53337,30153,0,0,0
55795,53315,30124,0,0,0
55779,53298,30099,0,0,0
55769,53287,30078,0,0,0
55760,53278,30057,0,0,0
55748,53270,30033,0,0,0
55735,53262,30007,0,0,0
55718,53251,29978,0,0,0
55694,53234,29949,0,0,0
55665,53214,29919,0,0,0
55638,53195,29889,0,0,0
55613,53176,29855,0,0,0
55590,53155,29817,0,0,0
55565,53132,29777,0,0,0
55538,53106,29734,0,0,0
55508,53079,29689,0,0,0
55478,53056,29647,0,0,0
55452,53038,29611,0,0,0
55425,53018,29573,0,0,0
55397,52993,29531,0,0,0
55369,52963,29488,0,0,0
55345,52937,29452,0,0,0
55325,52919,29425,0,0,0
55308,52907,29405,0,0,0
55297,52900,29392,0,0,0
55298,52903,29391,0,0,0
55312,52916,29401,0,0,0
55336,52935,29422,0,0,0
55368,52960,29457,0,0,0
55408,52991,29508,0,0,0
55450,53029,29573,0,0,0
55499,53076,29657,0,0,0
55562,53137,29758,0,0,0
55641,53213,29879,0,0,0
55731,53296,30011,0,0,0
55823,53380,30151,0,0,0
55915,53466,30304,0,0,0
56006,53553,30463,0,0,0
56095,53636,30622,0,0,0
56184,53715,30780,0,0,0
56277,53794,30940,0,0,0
56372,53873,31100,0,0,0
56461,53950,31249,0,0,0
56540,54021,31382,0,0,0
56610,54085,31505,0,0,0
56670,54140,31619,0,0,0
56722,54192,31722,0,0,0
56775,54244,31814,0,0,0
56827,54293,31897,0,0,0
56873,54332,31969,0,0,0
56909,54361,32029,0,0,0
56934,54384,32076,0,0,0
56952,54403,32118,0,0,0
56967,54420,32157,0,0,0
56979,54433,32194,0,0,0
56989,54443,32225,0,0,0
56999,54454,32257,0,0,0
57011,54468,32290,0,0,0
57025,54484,32322,0,0,0
57040,54501,32351,0,0,0
57056,54521,32383,0,0,0
57074,54544,32420,0,0,0
57091,54564,32459,0,0,0
57105,54581,32499,0,0,0
57115,54595,32542,0,0,0
57124,54611,32587,0,0,0
57136,54630,32635,0,0,0
57152,54652,32687,0,0,0
57175,54676,32745,0,0,0
57206,54703,32807,0,0,0
57243,54735,32874,0,0,0
57285,54774,32946,0,0,0
57328,54816,33024,0,0,0
57374,54862,33105,0,0,0
57420,54910,33184,0,0,0
57468,54956,33259,0,0,0
57516,55000,33333,0,0,0
57561,55042,33402,0,0,0
57600,55081,33468,0,0,0
57634,55115,33529,0,0,0
57665,55144,33584,0,0,0
57691,55167,33631,0,0,0
57709,55184,33666,0,0,0
57719,55196,33693,0,0,0
57725,55206,33712,0,0,0
57730,55216,33721,0,0,0
57730,55220,33722,0,0,0
57722,55218,33717,0,0,0
57712,55212,33709,0,0,0
57702,55204,33699,0,0,0
57687,55190,33686,0,0,0
57667,55174,33672,0,0,0
57646,55161,33657,0,0,0
57629,55152,33645,0,0,0
57614,55148,33635,0,0,0
57601,55144,33630,0,0,0
57592,55137,33631,0,0,0
57585,55127,33632,0,0,0
57582,55121,33634,0,0,0
57586,55124,33642,0,0,0
57595,55130,33654,0,0,0
57607,55138,33671,0,0,0
57624,55149,33692,0,0,0
57640,55160,33712,0,0,0
57651,55167,33726,0,0,0
57659,55171,33731,0,0,0
57664,55175,33733,0,0,0
57669,55182,33740,0,0,0
57673,55187,33750,0,0,0
57672,55185,33754,0,0,0
57668,55180,33756,0,0,0
57667,55180,33765,0,0,0
57674,55186,33777,0,0,0
57681,55196,33785,0,0,0
57686,55204,33789,0,0,0
57691,55210,33793,0,0,0
57694,55213,33796,0,0,0
57695,55213,33795,0,0,0
57696,55212,33798,0,0,0
57702,55216,33807,0,0,0
57714,55226,33814,0,0,0
57727,55238,33815,0,0,0
57739,55248,33816,0,0,0
57750,55258,33818,0,0,0
57754,55263,33815,0,0,0
57747,55257,33798,0,0,0
57733,55243,33773,0,0,0
57718,55231,33751,0,0,0
57704,55218,33732,0,0,0
57687,55203,33712,0,0,0
57666,55185,33691,0,0,0
57644,55167,33673,0,0,0
57623,55152,33655,0,0,0
57598,55137,33634,0,0,0
57569,55119,33609,0,0,0
57542,55099,33580,0,0,0
57526,55082,33548,0,0,0
57516,55068,33514,0,0,0
57504,55051,33485,0,0,0
57487,55033,33463,0,0,0
57469,55014,33441,0,0,0
57453,54998,33416,0,0,0
57438,54983,33391,0,0,0
57425,54970,33367,0,0,0
57416,54963,33346,0,0,0
57408,54961,33331,0,0,0
57399,54960,33319,0,0,0
57388,54958,33305,0,0,0
57378,54952,33285,0,0,0
57365,54940,33259,0,0,0
57345,54921,33231,0,0,0
57324,54903,33203,0,0,0
57305,54890,33176,0,0,0
57288,54878,33151,0,0,0
57274,54868,33130,0,0,0
57265,54860,33111,0,0,0
57259,54853,33093,0,0,0
57255,54847,33079,0,0,0
57255,54843,33074,0,0,0
57255,54838,33074,0,0,0
57251,54832,33071,0,0,0
57245,54826,33063,0,0,0
57238,54818,33054,0,0,0
57228,54806,33039,0,0,0
57213,54790,33014,0,0,0
57199,54775,32983,0,0,0
57186,54762,32951,0,0,0
57167,54747,32917,0,0,0
57142,54730,32883,0,0,0
57118,54711,32851,0,0,0
57096,54694,32823,0,0,0
57080,54679,32798,0,0,0
57067,54664,32775,0,0,0
57054,54651,32752,0,0,0
57037,54639,32727,0,0,0
57020,54625,32698,0,0,0
57001,54609,32664,0,0,0
56977,54592,32628,0,0,0
56948,54569,32589,0,0,0
56918,54539,32547,0,0,0
56889,54508,32506,0,0,0
56865,54481,32471,0,0,0
56850,54463,32442,0,0,0
56836,54447,32415,0,0,0
56817,54428,32381,0,0,0
56797,54409,32342,0,0,0
56783,54397,32305,0,0,0
56774,54386,32269,0,0,0
56764,54373,32236,0,0,0
56753,54358,32206,0,0,0
56744,54342,32177,0,0,0
56735,54326,32148,0,0,0
56725,54310,32122,0,0,0
56711,54296,32099,0,0,0
56692,54282,32075,0,0,0
56669,54269,32050,0,0,0
56648,54260,32027,0,0,0
56629,54251,32004,0,0,0
56611,54242,31979,0,0,0
56597,54232,31955,0,0,0
56583,54220,31932,0,0,0
56567,54208,31908,0,0,0
56551,54194,31884,0,0,0
56537,54181,31856,0,0,0
56520,54168,31822,0,0,0
56497,54156,31785,0,0,0
56476,54143,31749,0,0,0
56455,54124,31712,0,0,0
56437,54101,31675,0,0,0
56422,54082,31643,0,0,0
56408,54066,31612,0,0,0
56392,54050,31583,0,0,0
56375,54033,31557,0,0,0
56359,54016,31533,0,0,0
56338,53994,31504,0,0,0
56308,53966,31469,0,0,0
56270,53934,31429,0,0,0
56232,53899,31385,0,0,0
56198,53869,31339,0,0,0
56171,53847,31297,0,0,0
56149,53831,31261,0,0,0
56132,53820,31231,0,0,0
56118,53811,31203,0,0,0
56106,53803,31176,0,0,0
56097,53798,31149,0,0,0
56088,53793,31119,0,0,0
56077,53779,31084,0,0,0
56059,53756,31044,0,0,0
56035,53729,31004,0,0,0
56015,53706,30968,0,0,0
56000,53686,30937,0,0,0
55988,53670,30909,0,0,0
55977,53659,30883,0,0,0
55966,53651,30856,0,0,0
55952,53640,30827,0,0,0
55937,53624,30801,0,0,0
55921,53609,30779,0,0,0
55901,53594,30755,0,0,0
55879,53576,30721,0,0,0
55858,53557,30680,0,0,0
55836,53538,30641,0,0,0
55811,53519,30603,0,0,0
55783,53499,30560,0,0,0
55755,53477,30514,0,0,0
55730,53454,30474,0,0,0
55706,53432,30438,0,0,0
55684,53415,30404,0,0,0
55664,53404,30374,0,0,0
55644,53397,30348,0,0,0
55620,53386,30316,0,0,0
55592,53369,30279,0,0,0
55563,53348,30239,0,0,0
55534,53323,30201,0,0,0
55506,53294,30165,0,0,0
55480,53266,30129,0,0,0
55456,53240,30094,0,0,0
55431,53217,30057,0,0,0
55407,53194,30019,0,0,0
55382,53173,29981,0,0,0
55359,53155,29947,0,0,0
55341,53142,29920,0,0,0
55323,53132,29900,0,0,0
55309,53126,29885,0,0,0
55299,53122,29881,0,0,0
55299,53125,29893,0,0,0
55314,53145,29926,0,0,0
55343,53177,29979,0,0,0
55382,53216,30051,0,0,0
55434,53264,30143,0,0,0
55503,53323,30255,0,0,0
55583,53390,30381,0,0,0
55673,53464,30520,0,0,0
55774,53547,30673,0,0,0
55878,53635,30833,0,0,0
55979,53723,30996,0,0,0
56079,53812,31162,0,0,0
56179,53905,31326,0,0,0
56277,53997,31482,0,0,0
56367,54082,31631,0,0,0
56448,54158,31771,0,0,0
56524,54224,31902,0,0,0
56600,54284,32022,0,0,0
56677,54340,32135,0,0,0
56746,54390,32241,0,0,0
56801,54432,32336,0,0,0
56845,54470,32421,0,0,0
56887,54508,32498,0,0,0
56927,54543,32566,0,0,0
56956,54568,32617,0,0,0
56974,54584,32650,0,0,0
56983,54596,32674,0,0,0
56987,54606,32692,0,0,0
56990,54617,32708,0,0,0
56996,54631,32725,0,0,0
57006,54646,32744,0,0,0
57019,54662,32766,0,0,0
57031,54680,32794,0,0,0
57045,54700,32828,0,0,0
57064,54725,32869,0,0,0
57089,54754,32912,0,0,0
57118,54785,32956,0,0,0
57154,54817,33004,0,0,0
57191,54848,33062,0,0,0
57226,54876,33125,0,0,0
57262,54905,33186,0,0,0
57303,54935,33250,0,0,0
57346,54967,33318,0,0,0
57390,54999,33389,0,0,0
57433,55028,33456,0,0,0
57469,55057,33517,0,0,0
57505,55089,33575,0,0,0
57538,55121,33632,0,0,0
57566,55153,33685,0,0,0
57594,55185,33736,0,0,0
57620,55219,33786,0,0,0
57644,55250,33835,0,0,0
57666,55280,33880,0,0,0
57683,55306,33922,0,0,0
57693,55324,33961,0,0,0
57698,55334,33991,0,0,0
57696,55333,34009,0,0,0
57690,55328,34021,0,0,0
57687,55325,34030,0,0,0
57686,55323,34037,0,0,0
57681,55317,34039,0,0,0
57672,55311,34039,0,0,0
57665,55306,34039,0,0,0
57661,55302,34038,0,0,0
57658,55301,34036,0,0,0
57656,55300,34033,0,0,0
57652,55297,34029,0,0,0
57646,55290,34024,0,0,0
57640,55281,34020,0,0,0
57633,55270,34014,0,0,0
57631,55262,34007,0,0,0
57636,55259,34003,0,0,0
57642,55256,34003,0,0,0
57645,55253,34008,0,0,0
57651,55253,34019,0,0,0
57661,55259,34030,0,0,0
57672,55268,34038,0,0,0
57683,55280,34049,0,0,0
57696,55294,34059,0,0,0
57708,55306,34065,0,0,0
57716,55315,34069,0,0,0
57719,55325,34073,0,0,0
57718,55332,34075,0,0,0
57716,55335,34072,0,0,0
57712,55335,34067,0,0,0
57710,55338,34064,0,0,0
57706,55343,34065,0,0,0
57701,55346,34067,0,0,0
57695,55345,34067,0,0,0
57689,55343,34065,0,0,0
57685,55344,34065,0,0,0
57682,55345,34063,0,0,0
57676,55340,34058,0,0,0
57670,55333,34052,0,0,0
57665,55328,34047,0,0,0
57657,55323,34040,0,0,0
57644,55315,34028,0,0,0
57627,55303,34014,0,0,0
57613,55290,33996,0,0,0
57597,55277,33967,0,0,0
57578,55263,33932,0,0,0
57558,55248,33901,0,0,0
57538,55233,33870,0,0,0
57519,55217,33838,0,0,0
57499,55201,33811,0,0,0
57482,55187,33786,0,0,0
57472,55176,33765,0,0,0
57463,55164,33743,0,0,0
57451,55145,33719,0,0,0
57439,55126,33696,0,0,0
57426,55110,33680,0,0,0
57412,55096,33664,0,0,0
57394,55081,33647,0,0,0
57377,55067,33627,0,0,0
57361,55055,33604,0,0,0
57346,55045,33583,0,0,0
57331,55037,33566,0,0,0
57319,55033,33556,0,0,0
57313,55033,33549,0,0,0
57308,55035,33542,0,0,0
57306,55040,33537,0,0,0
57307,55049,33532,0,0,0
57307,55052,33521,0,0,0
57300,55053,33505,0,0,0
57291,55052,33487,0,0,0
57280,55045,33466,0,0,0
57267,55027,33439,0,0,0
57247,55003,33404,0,0,0
57221,54974,33368,0,0,0
57192,54941,33332,0,0,0
57163,54907,33296,0,0,0
57143,54880,33260,0,0,0
57131,54859,33228,0,0,0
57119,54839,33199,0,0,0
57103,54821,33171,0,0,0
57084,54804,33148,0,0,0
57058,54786,33126,0,0,0
57030,54768,33104,0,0,0
57002,54749,33082,0,0,0
56975,54730,33059,0,0,0
56953,54716,33038,0,0,0
56937,54705,33016,0,0,0
56922,54693,32991,0,0,0
56911,54681,32964,0,0,0
56902,54667,32934,0,0,0
56892,54653,32904,0,0,0
56884,54640,32876,0,0,0
56873,54632,32849,0,0,0
56855,54625,32823,0,0,0
56831,54612,32791,0,0,0
56805,54592,32751,0,0,0
56780,54567,32706,0,0,0
56758,54539,32662,0,0,0
56734,54509,32619,0,0,0
56709,54476,32576,0,0,0
56685,54447,32535,0,0,0
56663,54423,32497,0,0,0
56644,54405,32461,0,0,0
56624,54392,32426,0,0,0
56608,54385,32396,0,0,0
56591,54380,32369,0,0,0
56573,54371,32339,0,0,0
56555,54358,32307,0,0,0
56535,54341,32275,0,0,0
56512,54322,32240,0,0,0
56485,54300,32201,0,0,0
56458,54279,32162,0,0,0
56437,54262,32127,0,0,0
56419,54249,32099,0,0,0
56396,54235,32074,0,0,0
56373,54223,32051,0,0,0
56353,54209,32027,0,0,0
56330,54189,31996,0,0,0
56305,54166,31959,0,0,0
56281,54145,31919,0,0,0
56261,54126,31885,0,0,0
56245,54108,31855,0,0,0
56232,54091,31823,0,0,0
56219,54074,31792,0,0,0
56208,54055,31760,0,0,0
56195,54031,31722,0,0,0
56173,54002,31679,0,0,0
56144,53973,31639,0,0,0
56111,53949,31603,0,0,0
56075,53924,31567,0,0,0
56041,53899,31527,0,0,0
56011,53874,31487,0,0,0
55984,53852,31455,0,0,0
55963,53834,31428,0,0,0
55946,53821,31407,0,0,0
55933,53811,31385,0,0,0
55920,53800,31362,0,0,0
55902,53784,31337,0,0,0
55879,53766,31308,0,0,0
55858,53750,31276,0,0,0
55838,53736,31244,0,0,0
55818,53719,31208,0,0,0
55796,53696,31172,0,0,0
55773,53671,31138,0,0,0
55752,53647,31104,0,0,0
55734,53627,31069,0,0,0
55713,53607,31033,0,0,0
55688,53585,30994,0,0,0
55662,53564,30955,0,0,0
55638,53544,30919,0,0,0
55615,53523,30883,0,0,0
55592,53496,30843,0,0,0
55567,53470,30801,0,0,0
55544,53450,30762,0,0,0
55525,53437,30733,0,0,0
55516,53436,30723,0,0,0
55517,53444,30735,0,0,0
55528,53463,30766,0,0,0
55555,53499,30818,0,0,0
55602,53551,30895,0,0,0
55667,53617,30995,0,0,0
55747,53694,31117,0,0,0
55841,53781,31260,0,0,0
55944,53877,31419,0,0,0
56051,53975,31587,0,0,0
56158,54069,31757,0,0,0
56266,54161,31927,0,0,0
56375,54251,32097,0,0,0
56485,54341,32266,0,0,0
56594,54433,32434,0,0,0
56696,54523,32596,0,0,0
56787,54605,32749,0,0,0
56869,54680,32893,0,0,0
56940,54746,33023,0,0,0
57000,54807,33136,0,0,0
57054,54862,33234,0,0,0
57098,54910,33322,0,0,0
57134,54952,33400,0,0,0
57163,54988,33468,0,0,0
57184,55016,33529,0,0,0
57197,55037,33580,0,0,0
57208,55052,33619,0,0,0
57220,55062,33646,0,0,0
57235,55070,33669,0,0,0
57252,55078,33692,0,0,0
57264,55082,33709,0,0,0
57272,55086,33724,0,0,0
57283,55096,33744,0,0,0
57297,55111,33766,0,0,0
57313,55127,33790,0,0,0
57330,55141,33816,0,0,0
57347,55153,33846,0,0,0
57369,55170,33882,0,0,0
57394,55189,33925,0,0,0
57420,55211,33974,0,0,0
57449,55235,34028,0,0,0
57480,55261,34085,0,0,0
57510,55287,34145,0,0,0
57538,55316,34209,0,0,0
57566,55347,34270,0,0,0
57595,55379,34329,0,0,0
57629,55413,34389,0,0,0
57665,55451,34452,0,0,0
57700,55487,34512,0,0,0
57731,55521,34566,0,0,0
57760,55555,34617,0,0,0
57791,55591,34669,0,0,0
57821,55626,34717,0,0,0
57849,55655,34757,0,0,0
57874,55676,34787,0,0,0
57896,55691,34809,0,0,0
57909,55698,34823,0,0,0
57917,55701,34831,0,0,0
57925,55705,34839,0,0,0
57931,55705,34847,0,0,0
57926,55699,34851,0,0,0
57909,55690,34847,0,0,0
57890,55680,34838,0,0,0
57873,55671,34828,0,0,0
57863,55665,34824,0,0,0
57858,55662,34824,0,0,0
57853,55657,34819,0,0,0
57852,55650,34811,0,0,0
57854,55644,34806,0,0,0
57855,55642,34804,0,0,0
57852,55644,34802,0,0,0
57851,55647,34801,0,0,0
57855,55650,34802,0,0,0
57862,55650,34808,0,0,0
57870,55650,34819,0,0,0
57877,55653,34833,0,0,0
57880,55655,34843,0,0,0
57882,55661,34852,0,0,0
57887,55670,34863,0,0,0
57894,55681,34874,0,0,0
57900,55691,34883,0,0,0
57906,55700,34890,0,0,0
57912,55707,34897,0,0,0
57911,55713,34902,0,0,0
57902,55719,34904,0,0,0
57893,55723,34902,0,0,0
57891,55724,34900,0,0,0
57895,55725,34901,0,0,0
57900,55726,34903,0,0,0
57902,55725,34899,0,0,0
57902,55723,34888,0,0,0
57900,55718,34876,0,0,0
57891,55706,34864,0,0,0
57873,55689,34849,0,0,0
57849,55673,34830,0,0,0
57825,55657,34809,0,0,0
57806,55641,34789,0,0,0
57791,55626,34775,0,0,0
57775,55613,34759,0,0,0
57758,55601,34735,0,0,0
57744,55589,34708,0,0,0
57728,55574,34679,0,0,0
57711,55556,34651,0,0,0
57695,55539,34624,0,0,0
57678,55520,34595,0,0,0
57659,55496,34562,0,0,0
57643,55477,34532,0,0,0
57629,55466,34502,0,0,0
57613,55456,34474,0,0,0
57592,55442,34454,0,0,0
57569,55428,34442,0,0,0
57554,55413,34430,0,0,0
57541,55396,34418,0,0,0
57521,55376,34408,0,0,0
57498,55357,34391,0,0,0
57479,55342,34366,0,0,0
57459,55328,34338,0,0,0
57437,55313,34308,0,0,0
57414,55298,34278,0,0,0
57396,55283,34249,0,0,0
57381,55267,34220,0,0,0
57362,55248,34190,0,0,0
57342,55227,34157,0,0,0
57327,55207,34120,0,0,0
57316,55191,34082,0,0,0
57305,55175,34050,0,0,0
57290,55157,34028,0,0,0
57268,55136,34012,0,0,0
57239,55111,33998,0,0,0
57210,55090,33985,0,0,0
57187,55079,33973,0,0,0
57170,55073,33958,0,0,0
57158,55069,33942,0,0,0
57146,55064,33924,0,0,0
57129,55053,33897,0,0,0
57107,55035,33861,0,0,0
57086,55018,33823,0,0,0
57068,55006,33788,0,0,0
57053,54996,33757,0,0,0
57038,54986,33732,0,0,0
57026,54974,33712,0,0,0
57016,54958,33686,0,0,0
57004,54937,33646,0,0,0
56991,54914,33603,0,0,0
56980,54892,33561,0,0,0
56967,54872,33520,0,0,0
56954,54855,33481,0,0,0
56939,54841,33448,0,0,0
56923,54829,33420,0,0,0
56903,54817,33394,0,0,0
56880,54800,33366,0,0,0
56851,54779,33334,0,0,0
56813,54753,33297,0,0,0
56767,54726,33255,0,0,0
56728,54706,33214,0,0,0
56698,54689,33174,0,0,0
56670,54673,33133,0,0,0
56643,54655,33095,0,0,0
56621,54633,33064,0,0,0
56605,54613,33039,0,0,0
56597,54599,33014,0,0,0
56593,54587,32985,0,0,0
56587,54571,32947,0,0,0
56576,54551,32906,0,0,0
56562,54530,32865,0,0,0
56545,54508,32819,0,0,0
56529,54485,32772,0,0,0
56511,54467,32733,0,0,0
56486,54448,32700,0,0,0
56458,54430,32664,0,0,0
56428,54411,32627,0,0,0
56396,54393,32592,0,0,0
56364,54378,32560,0,0,0
56337,54366,32526,0,0,0
56315,54353,32489,0,0,0
56298,54340,32452,0,0,0
56280,54326,32420,0,0,0
56261,54309,32391,0,0,0
56243,54292,32364,0,0,0
56230,54275,32337,0,0,0
56217,54257,32308,0,0,0
56205,54234,32273,0,0,0
56193,54211,32236,0,0,0
56182,54187,32201,0,0,0
56167,54165,32169,0,0,0
56149,54143,32139,0,0,0
56125,54120,32108,0,0,0
56093,54096,32074,0,0,0
56056,54071,32037,0,0,0
56020,54046,31998,0,0,0
55987,54025,31957,0,0,0
55962,54011,31920,0,0,0
55942,53997,31889,0,0,0
55922,53980,31857,0,0,0
55904,53962,31830,0,0,0
55893,53943,31805,0,0,0
55880,53925,31775,0,0,0
55861,53903,31733,0,0,0
55834,53878,31684,0,0,0
55800,53850,31633,0,0,0
55765,53824,31584,0,0,0
55733,53799,31536,0,0,0
55702,53772,31493,0,0,0
55671,53745,31453,0,0,0
55640,53719,31414,0,0,0
55609,53694,31373,0,0,0
55581,53673,31337,0,0,0
55561,53658,31311,0,0,0
55546,53645,31286,0,0,0
55529,53630,31259,0,0,0
55516,53618,31232,0,0,0
55506,53611,31203,0,0,0
55499,53604,31172,0,0,0
55496,53596,31134,0,0,0
55490,53585,31091,0,0,0
55474,53565,31050,0,0,0
55447,53537,31012,0,0,0
55414,53506,30976,0,0,0
55382,53477,30944,0,0,0
55351,53451,30912,0,0,0
55319,53425,30875,0,0,0
55289,53401,30836,0,0,0
55261,53380,30799,0,0,0
55237,53363,30770,0,0,0
55221,53350,30742,0,0,0
55207,53341,30710,0,0,0
55194,53334,30681,0,0,0
55188,53334,30665,0,0,0
55189,53340,30664,0,0,0
55198,53351,30678,0,0,0
55218,53367,30709,0,0,0
55248,53390,30762,0,0,0
55289,53424,30834,0,0,0
55344,53473,30928,0,0,0
55416,53540,31048,0,0,0
55502,53623,31195,0,0,0
55598,53715,31357,0,0,0
55698,53812,31532,0,0,0
55801,53910,31715,0,0,0
55908,54007,31900,0,0,0
56017,54101,32081,0,0,0
56122,54196,32259,0,0,0
56223,54292,32437,0,0,0
56326,54387,32613,0,0,0
56429,54479,32778,0,0,0
56522,54562,32926,0,0,0
56603,54634,33057,0,0,0
56675,54694,33171,0,0,0
56737,54742,33267,0,0,0
56788,54783,33351,0,0,0
56826,54818,33426,0,0,0
56855,54845,33491,0,0,0
56878,54866,33545,0,0,0
56901,54884,33592,0,0,0
56921,54901,33633,0,0,0
56940,54916,33668,0,0,0
56955,54925,33696,0,0,0
56965,54932,33720,0,0,0
56974,54937,33743,0,0,0
56988,54944,33765,0,0,0
57006,54955,33787,0,0,0
57026,54968,33817,0,0,0
57051,54988,33856,0,0,0
57078,55015,33901,0,0,0
57105,55048,33949,0,0,0
57133,55087,34005,0,0,0
57164,55131,34072,0,0,0
57200,55176,34143,0,0,0
57242,55223,34218,0,0,0
57288,55270,34297,0,0,0
57334,55315,34375,0,0,0
57378,55357,34447,0,0,0
57421,55396,34517,0,0,0
57463,55435,34584,0,0,0
57503,55472,34646,0,0,0
57544,55507,34706,0,0,0
57584,55541,34766,0,0,0
57620,55576,34821,0,0,0
57650,55609,34873,0,0,0
57680,55640,34931,0,0,0
57713,55673,34993,0,0,0
57749,55707,35053,0,0,0
57782,55737,35108,0,0,0
57808,55759,35154,0,0,0
57826,55773,35188,0,0,0
57832,55783,35210,0,0,0
57831,55788,35224,0,0,0
57833,55789,35236,0,0,0
57836,55789,35246,0,0,0
57835,55792,35255,0,0,0
57832,55796,35261,0,0,0
57828,55797,35264,0,0,0
57821,55794,35258,0,0,0
57813,55787,35244,0,0,0
57803,55779,35227,0,0,0
57797,55770,35216,0,0,0
57797,55763,35213,0,0,0
57802,55761,35215,0,0,0
57804,55758,35215,0,0,0
57803,55754,35215,0,0,0
57802,55755,35218,0,0,0
57800,55761,35225,0,0,0
57796,55766,35232,0,0,0
57790,55767,35239,0,0,0
57789,55772,35249,0,0,0
57791,55784,35260,0,0,0
57796,55801,35266,0,0,0
57801,55814,35264,0,0,0
57807,55819,35259,0,0,0
57810,55819,35256,0,0,0
57815,55819,35255,0,0,0
57823,55820,35253,0,0,0
57835,55822,35252,0,0,0
57847,55826,35259,0,0,0
57858,55835,35272,0,0,0
57867,55846,35279,0,0,0
57873,55853,35278,0,0,0
57882,55856,35278,0,0,0
57889,55854,35283,0,0,0
57891,55850,35285,0,0,0
57888,55849,35284,0,0,0
57882,55852,35282,0,0,0
57876,55850,35278,0,0,0
57869,55839,35269,0,0,0
57860,55824,35256,0,0,0
57848,55813,35238,0,0,0
57837,55805,35214,0,0,0
57824,55798,35187,0,0,0
57808,55788,35157,0,0,0
57789,55772,35125,0,0,0
57766,55752,35093,0,0,0
57738,55732,35065,0,0,0
57712,55715,35038,0,0,0
57684,55696,35010,0,0,0
57655,55671,34979,0,0,0
57633,55643,34948,0,0,0
57614,55618,34917,0,0,0
57594,55597,34889,0,0,0
57578,55581,34864,0,0,0
57570,55568,34842,0,0,0
57572,55561,34825,0,0,0
57579,55559,34810,0,0,0
57584,55560,34795,0,0,0
57585,55564,34783,0,0,0
57584,55567,34774,0,0,0
57580,55563,34766,0,0,0
57574,55557,34756,0,0,0
57564,55552,34737,0,0,0
57547,55542,34710,0,0,0
57527,55525,34676,0,0,0
57504,55506,34644,0,0,0
57480,55491,34614,0,0,0
57458,55480,34587,0,0,0
57441,55469,34565,0,0,0
57423,55459,34546,0,0,0
57402,55449,34524,0,0,0
57382,55437,34496,0,0,0
57364,55420,34468,0,0,0
57349,55402,34443,0,0,0
57333,55384,34425,0,0,0
57313,55365,34411,0,0,0
57295,55348,34396,0,0,0
57284,55335,34379,0,0,0
57273,55320,34361,0,0,0
57255,55302,34341,0,0,0
57233,55282,34315,0,0,0
57213,55260,34286,0,0,0
57195,55237,34256,0,0,0
57179,55219,34228,0,0,0
57167,55204,34201,0,0,0
57157,55188,34171,0,0,0
57148,55175,34142,0,0,0
57140,55164,34116,0,0,0
57131,55152,34088,0,0,0
57120,55137,34059,0,0,0
57106,55120,34028,0,0,0
57089,55096,33987,0,0,0
57072,55064,33940,0,0,0
57049,55033,33896,0,0,0
57023,55009,33856,0,0,0
57002,54993,33818,0,0,0
56988,54982,33783,0,0,0
56979,54975,33755,0,0,0
56971,54970,33734,0,0,0
56959,54966,33715,0,0,0
56942,54960,33693,0,0,0
56924,54952,33665,0,0,0
56909,54944,33632,0,0,0
56897,54933,33598,0,0,0
56883,54918,33565,0,0,0
56868,54900,33533,0,0,0
56851,54880,33503,0,0,0
56831,54861,33474,0,0,0
56806,54839,33440,0,0,0
56776,54814,33399,0,0,0
56749,54790,33353,0,0,0
56729,54772,33301,0,0,0
56712,54757,33248,0,0,0
56693,54739,33200,0,0,0
56677,54725,33162,0,0,0
56664,54712,33131,0,0,0
56647,54695,33100,0,0,0
56624,54674,33068,0,0,0
56598,54653,33035,0,0,0
56574,54628,33001,0,0,0
56551,54602,32962,0,0,0
56530,54580,32924,0,0,0
56514,54564,32889,0,0,0
56499,54549,32857,0,0,0
56482,54533,32830,0,0,0
56465,54517,32806,0,0,0
56450,54502,32784,0,0,0
56438,54487,32759,0,0,0
56425,54472,32731,0,0,0
56407,54459,32703,0,0,0
56386,54444,32674,0,0,0
56365,54428,32645,0,0,0
56346,54414,32619,0,0,0
56329,54403,32598,0,0,0
56314,54391,32572,0,0,0
56298,54376,32538,0,0,0
56279,54355,32498,0,0,0
56251,54327,32455,0,0,0
56218,54294,32409,0,0,0
56190,54263,32361,0,0,0
56166,54234,32313,0,0,0
56141,54205,32267,0,0,0
56111,54174,32224,0,0,0
56078,54145,32186,0,0,0
56052,54124,32153,0,0,0
56032,54108,32123,0,0,0
56011,54092,32089,0,0,0
55989,54077,32050,0,0,0
55967,54067,32011,0,0,0
55944,54057,31973,0,0,0
55924,54046,31940,0,0,0
55905,54033,31907,0,0,0
55885,54017,31870,0,0,0
55868,54001,31829,0,0,0
55856,53984,31786,0,0,0
55844,53965,31747,0,0,0
55823,53941,31713,0,0,0
55796,53913,31677,0,0,0
55774,53883,31633,0,0,0
55754,53853,31590,0,0,0
55731,53823,31550,0,0,0
55706,53793,31513,0,0,0
55678,53763,31477,0,0,0
55647,53733,31440,0,0,0
55614,53703,31401,0,0,0
55583,53677,31364,0,0,0
55559,53655,31328,0,0,0
55542,53636,31293,0,0,0
55528,53619,31260,0,0,0
55512,53603,31229,0,0,0
55493,53587,31195,0,0,0
55471,53570,31158,0,0,0
55446,53551,31119,0,0,0
55420,53532,31084,0,0,0
55395,53512,31057,0,0,0
55375,53497,31041,0,0,0
55369,53497,31042,0,0,0
55383,53515,31066,0,0,0
55413,53549,31111,0,0,0
55454,53594,31174,0,0,0
55513,53651,31256,0,0,0
55593,53722,31356,0,0,0
55691,53805,31477,0,0,0
55797,53897,31624,0,0,0
55912,53998,31796,0,0,0
56029,54101,31981,0,0,0
56146,54197,32167,0,0,0
56261,54289,32353,0,0,0
56374,54381,32541,0,0,0
56485,54476,32729,0,0,0
56590,54572,32913,0,0,0
56689,54661,33087,0,0,0
56786,54744,33253,0,0,0
56881,54826,33410,0,0,0
56971,54908,33557,0,0,0
57057,54988,33693,0,0,0
57136,55062,33811,0,0,0
57202,55127,33912,0,0,0
57258,55182,34001,0,0,0
57299,55227,34080,0,0,0
57326,55260,34142,0,0,0
57340,55280,34180,0,0,0
57346,55292,34201,0,0,0
57350,55300,34218,0,0,0
57357,55309,34236,0,0,0
57365,55320,34252,0,0,0
57374,55334,34269,0,0,0
57385,55349,34290,0,0,0
57396,55359,34312,0,0,0
57407,55363,34330,0,0,0
57420,55366,34350,0,0,0
57433,55373,34374,0,0,0
57447,55386,34402,0,0,0
57468,55408,34434,0,0,0
57495,55440,34473,0,0,0
57528,55474,34520,0,0,0
57558,55507,34573,0,0,0
57584,55536,34627,0,0,0
57609,55565,34684,0,0,0
57636,55597,34744,0,0,0
57667,55630,34804,0,0,0
57704,55658,34864,0,0,0
57743,55684,34923,0,0,0
57778,55713,34979,0,0,0
57811,55745,35033,0,0,0
57846,55779,35092,0,0,0
57885,55810,35150,0,0,0
57922,55836,35200,0,0,0
57954,55860,35244,0,0,0
57981,55879,35283,0,0,0
58002,55899,35315,0,0,0
58023,55921,35342,0,0,0
58044,55937,35364,0,0,0
58061,55950,35385,0,0,0
58072,55959,35402,0,0,0
58077,55969,35410,0,0,0
58076,55976,35413,0,0,0
58072,55978,35411,0,0,0
58062,55976,35408,0,0,0
58047,55974,35406,0,0,0
58034,55973,35404,0,0,0
58031,55974,35402,0,0,0
58033,55978,35402,0,0,0
58030,55983,35401,0,0,0
58025,55987,35397,0,0,0
58019,55987,35396,0,0,0
58015,55984,35401,0,0,0
58014,55983,35409,0,0,0
58012,55977,35412,0,0,0
58012,55964,35411,0,0,0
58017,55951,35409,0,0,0
58024,55940,35409,0,0,0
58030,55933,35412,0,0,0
58033,55929,35418,0,0,0
58031,55927,35424,0,0,0
58027,55930,35428,0,0,0
58024,55933,35431,0,0,0
58027,55932,35427,0,0,0
58036,55931,35421,0,0,0
58048,55936,35417,0,0,0
58059,55947,35417,0,0,0
58064,55958,35421,0,0,0
58067,55968,35429,0,0,0
58065,55974,35438,0,0,0
58052,55974,35441,0,0,0
58031,55968,35437,0,0,0
58012,55958,35430,0,0,0
57996,55951,35424,0,0,0
57980,55947,35413,0,0,0
57960,55938,35394,0,0,0
57941,55924,35372,0,0,0
57923,55909,35348,0,0,0
57901,55891,35324,0,0,0
57879,55870,35296,0,0,0
57860,55848,35263,0,0,0
57838,55826,35230,0,0,0
57813,55806,35198,0,0,0
57793,55790,35167,0,0,0
57785,55781,35142,0,0,0
57784,55774,35123,0,0,0
57781,55765,35104,0,0,0
57774,55754,35078,0,0,0
57768,55743,35050,0,0,0
57762,55731,35025,0,0,0
57753,55718,34998,0,0,0
57741,55707,34972,0,0,0
57730,55699,34950,0,0,0
57720,55690,34932,0,0,0
57708,55679,34910,0,0,0
57696,55670,34887,0,0,0
57684,55663,34864,0,0,0
57671,55654,34838,0,0,0
57661,55643,34812,0,0,0
57649,55631,34788,0,0,0
57628,55619,34764,0,0,0
57606,55606,34739,0,0,0
57590,55592,34713,0,0,0
57577,55579,34685,0,0,0
57564,55562,34652,0,0,0
57550,55541,34617,0,0,0
57534,55517,34584,0,0,0
57516,55494,34551,0,0,0
57496,55471,34518,0,0,0
57474,55446,34492,0,0,0
57445,55420,34472,0,0,0
57412,55393,34457,0,0,0
57377,55373,34445,0,0,0
57342,55357,34435,0,0,0
57315,55346,34425,0,0,0
57299,55336,34406,0,0,0
57287,55323,34377,0,0,0
57275,55310,34344,0,0,0
57265,55301,34316,0,0,0
57257,55296,34295,0,0,0
57252,55289,34272,0,0,0
57245,55278,34244,0,0,0
57230,55263,34215,0,0,0
57205,55243,34183,0,0,0
57177,55221,34147,0,0,0
57146,55199,34107,0,0,0
57112,55172,34064,0,0,0
57077,55137,34018,0,0,0
57042,55097,33972,0,0,0
57008,55056,33929,0,0,0
56976,55017,33889,0,0,0
56948,54984,33851,0,0,0
56924,54960,33814,0,0,0
56904,54942,33775,0,0,0
56889,54927,33739,0,0,0
56873,54911,33704,0,0,0
56849,54890,33668,0,0,0
56823,54868,33631,0,0,0
56800,54850,33595,0,0,0
56782,54833,33560,0,0,0
56765,54813,33520,0,0,0
56746,54791,33469,0,0,0
56720,54764,33410,0,0,0
56687,54733,33351,0,0,0
56647,54700,33295,0,0,0
56611,54672,33248,0,0,0
56581,54653,33208,0,0,0
56558,54640,33173,0,0,0
56541,54630,33147,0,0,0
56530,54622,33123,0,0,0
56522,54612,33100,0,0,0
56510,54600,33075,0,0,0
56492,54584,33045,0,0,0
56473,54566,33009,0,0,0
56459,54551,32969,0,0,0
56445,54536,32930,0,0,0
56431,54520,32896,0,0,0
56415,54504,32866,0,0,0
56394,54487,32835,0,0,0
56370,54470,32800,0,0,0
56345,54453,32763,0,0,0
56318,54436,32730,0,0,0
56291,54414,32700,0,0,0
56267,54389,32668,0,0,0
56248,54366,32635,0,0,0
56231,54348,32602,0,0,0
56214,54336,32567,0,0,0
56199,54326,32527,0,0,0
56179,54312,32482,0,0,0
56156,54297,32438,0,0,0
56133,54283,32402,0,0,0
56113,54270,32369,0,0,0
56089,54253,32332,0,0,0
56057,54229,32292,0,0,0
56021,54197,32247,0,0,0
55982,54160,32196,0,0,0
55945,54120,32143,0,0,0
55914,54082,32097,0,0,0
55890,54047,32059,0,0,0
55870,54014,32020,0,0,0
55851,53982,31977,0,0,0
55835,53956,31931,0,0,0
55821,53938,31889,0,0,0
55801,53920,31848,0,0,0
55773,53898,31806,0,0,0
55739,53873,31759,0,0,0
55707,53851,31708,0,0,0
55676,53828,31653,0,0,0
55647,53807,31598,0,0,0
55619,53789,31548,0,0,0
55590,53769,31502,0,0,0
55560,53747,31459,0,0,0
55531,53723,31424,0,0,0
55512,53705,31401,0,0,0
55509,53700,31401,0,0,0
55524,53712,31429,0,0,0
55557,53740,31482,0,0,0
55605,53785,31560,0,0,0
55671,53846,31662,0,0,0
55753,53920,31787,0,0,0
55846,54004,31933,0,0,0
55943,54094,32094,0,0,0
56044,54187,32266,0,0,0
56148,54284,32441,0,0,0
56253,54387,32621,0,0,0
56357,54491,32806,0,0,0
56460,54592,32991,0,0,0
56560,54689,33172,0,0,0
56658,54782,33347,0,0,0
56753,54872,33516,0,0,0
56847,54956,33675,0,0,0
56938,55035,33823,0,0,0
57025,55108,33960,0,0,0
57104,55172,34085,0,0,0
57173,55231,34196,0,0,0
57230,55281,34297,0,0,0
57275,55323,34388,0,0,0
57312,55357,34469,0,0,0
57342,55385,34534,0,0,0
57363,55405,34582,0,0,0
57383,55422,34621,0,0,0
57406,55440,34660,0,0,0
57429,55460,34697,0,0,0
57450,55484,34728,0,0,0
57469,55511,34754,0,0,0
57488,55536,34778,0,0,0
57502,55557,34801,0,0,0
57515,55576,34823,0,0,0
57530,55592,34844,0,0,0
57544,55606,34867,0,0,0
57557,55622,34896,0,0,0
57568,55638,34926,0,0,0
57582,55652,34961,0,0,0
57604,55669,35001,0,0,0
57628,55687,35041,0,0,0
57653,55704,35086,0,0,0
57682,55726,35142,0,0,0
57717,55751,35209,0,0,0
57754,55778,35278,0,0,0
57794,55809,35345,0,0,0
57836,55847,35413,0,0,0
57880,55889,35486,0,0,0
57926,55933,35561,0,0,0
57973,55981,35636,0,0,0
58018,56026,35709,0,0,0
58056,56066,35777,0,0,0
58087,56104,35841,0,0,0
58113,56137,35897,0,0,0
58134,56162,35941,0,0,0
58155,56181,35972,0,0,0
58174,56192,35992,0,0,0
58185,56197,36002,0,0,0
58185,56200,36007,0,0,0
58183,56204,36016,0,0,0
58183,56206,36029,0,0,0
58182,56208,36040,0,0,0
58180,56208,36046,0,0,0
58175,56201,36046,0,0,0
58168,56193,36041,0,0,0
58158,56188,36030,0,0,0
58146,56180,36016,0,0,0
58132,56169,36004,0,0,0
58117,56161,35992,0,0,0
58105,56159,35983,0,0,0
58101,56160,35983,0,0,0
58102,56165,35989,0,0,0
58104,56172,35994,0,0,0
58109,56178,35995,0,0,0
58114,56176,35993,0,0,0
58113,56164,35988,0,0,0
58110,56152,35984,0,0,0
58112,56150,35987,0,0,0
58117,56156,35997,0,0,0
58115,56161,36007,0,0,0
58102,56162,36009,0,0,0
58087,56157,36001,0,0,0
58073,56145,35987,0,0,0
58061,56131,35971,0,0,0
58051,56118,35957,0,0,0
58044,56110,35947,0,0,0
58038,56105,35939,0,0,0
58033,56105,35931,0,0,0
58028,56107,35919,0,0,0
58022,56104,35904,0,0,0
58016,56094,35891,0,0,0
58009,56084,35884,0,0,0
57998,56078,35879,0,0,0
57988,56071,35873,0,0,0
57981,56061,35866,0,0,0
57974,56048,35854,0,0,0
57967,56036,35840,0,0,0
57956,56023,35824,0,0,0
57941,56007,35801,0,0,0
57920,55989,35774,0,0,0
57895,55971,35741,0,0,0
57865,55951,35701,0,0,0
57832,55930,35658,0,0,0
57804,55911,35611,0,0,0
57788,55893,35567,0,0,0
57775,55874,35529,0,0,0
57757,55855,35495,0,0,0
57737,55839,35464,0,0,0
57719,55825,35433,0,0,0
57705,55812,35400,0,0,0
57698,55801,35369,0,0,0
57695,55793,35344,0,0,0
57686,55783,35318,0,0,0
57670,55773,35292,0,0,0
57652,55763,35267,0,0,0
57636,55754,35244,0,0,0
57622,55743,35221,0,0,0
57611,55731,35202,0,0,0
57597,55712,35186,0,0,0
57577,55689,35166,0,0,0
57552,55668,35142,0,0,0
57529,55649,35115,0,0,0
57510,55628,35082,0,0,0
57492,55607,35050,0,0,0
57474,55588,35016,0,0,0
57460,55573,34981,0,0,0
57445,55559,34948,0,0,0
57427,55540,34917,0,0,0
57407,55520,34881,0,0,0
57386,55499,34840,0,0,0
57366,55480,34798,0,0,0
57348,55462,34759,0,0,0
57326,55444,34724,0,0,0
57303,55429,34691,0,0,0
57280,55413,34657,0,0,0
57256,55397,34622,0,0,0
57230,55379,34583,0,0,0
57206,55359,34543,0,0,0
57188,55337,34504,0,0,0
57173,55317,34465,0,0,0
57159,55304,34429,0,0,0
57145,55294,34401,0,0,0
57135,55286,34384,0,0,0
57126,55277,34375,0,0,0
57114,55266,34366,0,0,0
57097,55251,34346,0,0,0
57077,55234,34316,0,0,0
57052,55213,34283,0,0,0
57024,55189,34248,0,0,0
56991,55161,34211,0,0,0
56952,55130,34173,0,0,0
56913,55096,34133,0,0,0
56878,55063,34094,0,0,0
56847,55031,34054,0,0,0
56816,54997,34009,0,0,0
56788,54966,33964,0,0,0
56763,54941,33923,0,0,0
56741,54926,33888,0,0,0
56722,54915,33855,0,0,0
56701,54900,33820,0,0,0
56675,54877,33778,0,0,0
56647,54849,33727,0,0,0
56616,54818,33671,0,0,0
56585,54787,33616,0,0,0
56555,54758,33558,0,0,0
56527,54731,33496,0,0,0
56503,54707,33439,0,0,0
56478,54683,33386,0,0,0
56451,54659,33335,0,0,0
56427,54639,33288,0,0,0
56406,54625,33251,0,0,0
56386,54614,33219,0,0,0
56369,54605,33184,0,0,0
56358,54595,33149,0,0,0
56344,54578,33116,0,0,0
56322,54550,33080,0,0,0
56293,54518,33039,0,0,0
56259,54485,32991,0,0,0
56223,54450,32940,0,0,0
56184,54410,32890,0,0,0
56147,54371,32838,0,0,0
56115,54337,32789,0,0,0
56084,54312,32753,0,0,0
56056,54297,32731,0,0,0
56035,54288,32718,0,0,0
56020,54281,32704,0,0,0
56002,54272,32684,0,0,0
55980,54257,32653,0,0,0
55958,54239,32612,0,0,0
55943,54224,32571,0,0,0
55928,54214,32538,0,0,0
55909,54201,32507,0,0,0
55891,54185,32472,0,0,0
55876,54168,32434,0,0,0
55859,54147,32397,0,0,0
55836,54121,32357,0,0,0
55809,54092,32311,0,0,0
55784,54065,32259,0,0,0
55761,54041,32203,0,0,0
55736,54016,32145,0,0,0
55709,53991,32092,0,0,0
55679,53967,32048,0,0,0
55650,53945,32015,0,0,0
55626,53924,31985,0,0,0
55606,53905,31953,0,0,0
55586,53885,31915,0,0,0
55562,53863,31871,0,0,0
55539,53843,31826,0,0,0
55518,53821,31786,0,0,0
55496,53796,31750,0,0,0
55474,53770,31712,0,0,0
55449,53742,31670,0,0,0
55423,53712,31624,0,0,0
55400,53687,31582,0,0,0
55376,53666,31545,0,0,0
55346,53641,31504,0,0,0
55312,53610,31456,0,0,0
55275,53575,31400,0,0,0
55236,53538,31335,0,0,0
55193,53502,31265,0,0,0
55151,53465,31199,0,0,0
55111,53431,31145,0,0,0
55072,53399,31103,0,0,0
55037,53369,31065,0,0,0
55010,53341,31026,0,0,0
54994,53319,30993,0,0,0
54990,53309,30974,0,0,0
54997,53311,30972,0,0,0
55015,53327,30985,0,0,0
55043,53358,31015,0,0,0
55084,53399,31067,0,0,0
55139,53451,31141,0,0,0
55206,53514,31237,0,0,0
55280,53582,31351,0,0,0
55362,53654,31482,0,0,0
55455,53733,31629,0,0,0
55557,53820,31795,0,0,0
55665,53915,31979,0,0,0
55779,54016,32174,0,0,0
55896,54121,32376,0,0,0
56010,54226,32578,0,0,0
56123,54332,32778,0,0,0
56234,54437,32972,0,0,0
56337,54536,33156,0,0,0
56432,54625,33328,0,0,0
56526,54713,33490,0,0,0
56619,54801,33643,0,0,0
56705,54884,33785,0,0,0
56784,54960,33916,0,0,0
56859,55030,34036,0,0,0
56926,55091,34139,0,0,0
56986,55142,34226,0,0,0
57035,55183,34301,0,0,0
57076,55220,34368,0,0,0
57107,55254,34426,0,0,0
57129,55281,34475,0,0,0
57144,55302,34516,0,0,0
57162,55323,34555,0,0,0
57182,55342,34595,0,0,0
57202,55360,34635,0,0,0
57225,55379,34674,0,0,0
57250,55399,34709,0,0,0
57273,55419,34743,0,0,0
57292,55436,34774,0,0,0
57308,55452,34801,0,0,0
57324,55469,34831,0,0,0
57343,55485,34870,0,0,0
57364,55503,34913,0,0,0
57388,55528,34956,0,0,0
57419,55561,35006,0,0,0
57452,55597,35066,0,0,0
57485,55633,35131,0,0,0
57521,55670,35199,0,0,0
57565,55706,35267,0,0,0
57611,55743,35336,0,0,0
57658,55785,35408,0,0,0
57706,55826,35485,0,0,0
57755,55869,35568,0,0,0
57804,55913,35654,0,0,0
57850,55954,35730,0,0,0
57890,55987,35794,0,0,0
57923,56013,35853,0,0,0
57948,56036,35906,0,0,0
57964,56053,35950,0,0,0
57976,56064,35986,0,0,0
57984,56072,36017,0,0,0
57989,56083,36042,0,0,0
57991,56096,36058,0,0,0
57991,56107,36069,0,0,0
57988,56112,36078,0,0,0
57980,56111,36082,0,0,0
57972,56110,36079,0,0,0
57965,56106,36073,0,0,0
57960,56097,36065,0,0,0
57953,56087,36058,0,0,0
57946,56083,36054,0,0,0
57942,56085,36054,0,0,0
57942,56087,36059,0,0,0
57943,56090,36067,0,0,0
57947,56096,36073,0,0,0
57958,56105,36082,0,0,0
57971,56115,36098,0,0,0
57977,56121,36112,0,0,0
57979,56124,36122,0,0,0
57986,56129,36135,0,0,0
57997,56135,36150,0,0,0
58006,56142,36158,0,0,0
58012,56146,36163,0,0,0
58016,56145,36165,0,0,0
58019,56138,36162,0,0,0
58023,56130,36152,0,0,0
58026,56122,36137,0,0,0
58024,56113,36116,0,0,0
58019,56103,36090,0,0,0
58017,56092,36065,0,0,0
58012,56079,36043,0,0,0
58003,56066,36026,0,0,0
57992,56053,36012,0,0,0
57980,56040,35998,0,0,0
57966,56034,35987,0,0,0
57952,56035,35981,0,0,0
57937,56037,35974,0,0,0
57924,56038,35970,0,0,0
57916,56043,35969,0,0,0
57909,56050,35970,0,0,0
57902,56052,35963,0,0,0
57893,56046,35943,0,0,0
57884,56034,35916,0,0,0
57874,56021,35892,0,0,0
57861,56009,35869,0,0,0
57848,56001,35841,0,0,0
57835,55989,35809,0,0,0
57824,55971,35776,0,0,0
57815,55950,35746,0,0,0
57806,55930,35718,0,0,0
57793,55914,35690,0,0,0
57776,55900,35660,0,0,0
57754,55882,35625,0,0,0
57727,55859,35585,0,0,0
57698,55835,35546,0,0,0
57674,55812,35509,0,0,0
57655,55791,35477,0,0,0
57637,55774,35446,0,0,0
57619,55765,35418,0,0,0
57606,55762,35395,0,0,0
57594,55756,35374,0,0,0
57580,55745,35353,0,0,0
57565,55733,35331,0,0,0
57554,55725,35314,0,0,0
57547,55722,35295,0,0,0
57537,55715,35265,0,0,0
57524,55699,35231,0,0,0
57507,55680,35196,0,0,0
57487,55663,35164,0,0,0
57462,55644,35134,0,0,0
57434,55619,35107,0,0,0
57405,55591,35078,0,0,0
57382,55567,35049,0,0,0
57367,55550,35023,0,0,0
57352,55533,34996,0,0,0
57331,55512,34960,0,0,0
57308,55494,34920,0,0,0
57285,55479,34883,0,0,0
57264,55465,34847,0,0,0
57244,55448,34812,0,0,0
57220,55425,34775,0,0,0
57193,55398,34736,0,0,0
57166,55373,34695,0,0,0
57145,55350,34656,0,0,0
57126,55325,34620,0,0,0
57104,55297,34582,0,0,0
57080,55268,34539,0,0,0
57052,55236,34491,0,0,0
57024,55204,34443,0,0,0
57002,55177,34397,0,0,0
56980,55154,34353,0,0,0
56959,55134,34317,0,0,0
56941,55117,34288,0,0,0
56922,55101,34261,0,0,0
56901,55087,34237,0,0,0
56879,55073,34216,0,0,0
56856,55063,34196,0,0,0
56835,55054,34174,0,0,0
56817,55045,34143,0,0,0
56802,55036,34109,0,0,0
56791,55023,34074,0,0,0
56778,55007,34040,0,0,0
56759,54985,34000,0,0,0
56731,54955,33953,0,0,0
56699,54921,33904,0,0,0
56668,54889,33855,0,0,0
56641,54860,33812,0,0,0
56613,54832,33771,0,0,0
56582,54805,33730,0,0,0
56552,54780,33689,0,0,0
56531,54762,33649,0,0,0
56517,54752,33610,0,0,0
56502,54746,33573,0,0,0
56483,54736,33535,0,0,0
56461,54723,33499,0,0,0
56440,54709,33463,0,0,0
56418,54691,33423,0,0,0
56397,54671,33382,0,0,0
56378,54651,33345,0,0,0
56357,54634,33307,0,0,0
56333,54620,33264,0,0,0
56303,54602,33215,0,0,0
56268,54581,33163,0,0,0
56229,54559,33114,0,0,0
56194,54535,33072,0,0,0
56169,54513,33034,0,0,0
56151,54493,32992,0,0,0
56133,54470,32948,0,0,0
56116,54448,32907,0,0,0
56097,54425,32864,0,0,0
56080,54399,32821,0,0,0
56066,54373,32783,0,0,0
56048,54351,32750,0,0,0
56028,54332,32719,0,0,0
56009,54311,32683,0,0,0
55989,54285,32643,0,0,0
55963,54257,32602,0,0,0
55932,54229,32557,0,0,0
55896,54202,32504,0,0,0
55853,54174,32451,0,0,0
55814,54142,32400,0,0,0
55783,54112,32349,0,0,0
55758,54081,32292,0,0,0
55733,54047,32233,0,0,0
55707,54014,32177,0,0,0
55683,53983,32127,0,0,0
55664,53957,32085,0,0,0
55651,53938,32051,0,0,0
55641,53926,32019,0,0,0
55632,53913,31984,0,0,0
55621,53899,31945,0,0,0
55608,53884,31905,0,0,0
55592,53867,31865,0,0,0
55569,53847,31819,0,0,0
55538,53823,31772,0,0,0
55506,53797,31730,0,0,0
55479,53775,31688,0,0,0
55456,53755,31644,0,0,0
55434,53734,31600,0,0,0
55410,53713,31557,0,0,0
55384,53693,31513,0,0,0
55357,53672,31466,0,0,0
55329,53650,31421,0,0,0
55299,53626,31379,0,0,0
55269,53595,31333,0,0,0
55243,53562,31286,0,0,0
55224,53538,31253,0,0,0
55216,53528,31237,0,0,0
55219,53527,31236,0,0,0
55231,53534,31254,0,0,0
55256,53555,31294,0,0,0
55294,53591,31349,0,0,0
55342,53637,31419,0,0,0
55406,53692,31511,0,0,0
55490,53761,31628,0,0,0
55587,53841,31765,0,0,0
55691,53930,31917,0,0,0
55803,54027,32081,0,0,0
55925,54130,32253,0,0,0
56050,54237,32434,0,0,0
56174,54346,32619,0,0,0
56291,54452,32804,0,0,0
56403,54553,32987,0,0,0
56511,54647,33162,0,0,0
56613,54737,33327,0,0,0
56708,54818,33484,0,0,0
56797,54893,33635,0,0,0
56880,54964,33773,0,0,0
56952,55023,33891,0,0,0
57010,55072,33989,0,0,0
57059,55117,34075,0,0,0
57106,55157,34154,0,0,0
57149,55192,34222,0,0,0
57184,55222,34276,0,0,0
57208,55250,34319,0,0,0
57230,55275,34360,0,0,0
57252,55299,34398,0,0,0
57266,55315,34427,0,0,0
57274,55325,34448,0,0,0
57287,55336,34469,0,0,0
57304,55350,34487,0,0,0
57319,55358,34500,0,0,0
57335,55364,34510,0,0,0
57355,55374,34526,0,0,0
57378,55388,34554,0,0,0
57402,55410,34592,0,0,0
57427,55438,34637,0,0,0
57454,55472,34687,0,0,0
57483,55511,34741,0,0,0
57516,55553,34797,0,0,0
57552,55595,34854,0,0,0
57589,55633,34914,0,0,0
57627,55667,34978,0,0,0
57668,55701,35044,0,0,0
57706,55735,35114,0,0,0
57739,55765,35181,0,0,0
57769,55793,35241,0,0,0
57800,55823,35301,0,0,0
57832,55858,35358,0,0,0
57867,55894,35413,0,0,0
57902,55927,35465,0,0,0
57931,55954,35510,0,0,0
57959,55973,35544,0,0,0
57979,55982,35566,0,0,0
57986,55982,35575,0,0,0
57985,55976,35579,0,0,0
57978,55968,35580,0,0,0
57972,55962,35581,0,0,0
57968,55957,35581,0,0,0
57967,55955,35581,0,0,0
57967,55957,35585,0,0,0
57970,55961,35591,0,0,0
57967,55959,35593,0,0,0
57959,55954,35587,0,0,0
57952,55947,35577,0,0,0
57944,55939,35567,0,0,0
57935,55930,35559,0,0,0
57931,55925,35556,0,0,0
57931,55923,35556,0,0,0
57934,55923,35555,0,0,0
57939,55922,35554,0,0,0
57940,55919,35554,0,0,0
57937,55918,35551,0,0,0
57932,55914,35547,0,0,0
57924,55911,35544,0,0,0
57913,55913,35545,0,0,0
57907,55918,35549,0,0,0
57904,55924,35554,0,0,0
57900,55928,35557,0,0,0
57897,55935,35558,0,0,0
57896,55941,35562,0,0,0
57893,55946,35567,0,0,0
57891,55948,35567,0,0,0
57888,55943,35561,0,0,0
57883,55932,35552,0,0,0
57878,55916,35540,0,0,0
57872,55901,35530,0,0,0
57869,55889,35517,0,0,0
57867,55879,35504,0,0,0
57866,55873,35496,0,0,0
57865,55870,35486,0,0,0
57867,55871,35471,0,0,0
57864,55872,35451,0,0,0
57853,55870,35427,0,0,0
57834,55861,35403,0,0,0
57811,55849,35378,0,0,0
57786,55831,35351,0,0,0
57760,55808,35322,0,0,0
57735,55784,35291,0,0,0
57711,55762,35257,0,0,0
57690,55740,35218,0,0,0
57669,55716,35178,0,0,0
57644,55690,35136,0,0,0
57625,55665,35095,0,0,0
57608,55644,35058,0,0,0
57589,55626,35023,0,0,0
57567,55613,34992,0,0,0
57545,55598,34966,0,0,0
57523,55587,34941,0,0,0
57502,55579,34916,0,0,0
57483,55567,34887,0,0,0
57465,55554,34857,0,0,0
57449,55540,34827,0,0,0
57437,55526,34796,0,0,0
57428,55515,34765,0,0,0
57420,55503,34737,0,0,0
57407,55489,34708,0,0,0
57386,55471,34677,0,0,0
57363,55446,34646,0,0,0
57341,55417,34615,0,0,0
57317,55389,34584,0,0,0
57293,55366,34555,0,0,0
57266,55346,34526,0,0,0
57235,55324,34492,0,0,0
57203,55300,34455,0,0,0
57172,55278,34417,0,0,0
57145,55259,34376,0,0,0
57127,55244,34337,0,0,0
57113,55232,34305,0,0,0
57097,55220,34270,0,0,0
57082,55208,34233,0,0,0
57071,55199,34195,0,0,0
57059,55191,34157,0,0,0
57044,55180,34120,0,0,0
57024,55162,34078,0,0,0
56999,55136,34031,0,0,0
56972,55105,33982,0,0,0
56950,55076,33939,0,0,0
56931,55048,33905,0,0,0
56909,55017,33875,0,0,0
56884,54987,33850,0,0,0
56856,54961,33836,0,0,0
56827,54938,33824,0,0,0
56802,54915,33804,0,0,0
56784,54893,33775,0,0,0
56771,54877,33741,0,0,0
56759,54866,33708,0,0,0
56747,54855,33675,0,0,0
56732,54841,33641,0,0,0
56711,54825,33606,0,0,0
56685,54808,33571,0,0,0
56660,54786,33536,0,0,0
56639,54761,33498,0,0,0
56615,54735,33453,0,0,0
56584,54706,33401,0,0,0
56548,54678,33345,0,0,0
56515,54654,33290,0,0,0
56487,54634,33244,0,0,0
56462,54614,33201,0,0,0
56434,54595,33160,0,0,0
56400,54572,33121,0,0,0
56364,54545,33083,0,0,0
56329,54516,33043,0,0,0
56298,54490,32999,0,0,0
56271,54471,32960,0,0,0
56248,54453,32926,0,0,0
56226,54432,32889,0,0,0
56203,54406,32848,0,0,0
56184,54381,32805,0,0,0
56166,54358,32763,0,0,0
56148,54336,32726,0,0,0
56131,54310,32690,0,0,0
56112,54282,32652,0,0,0
56089,54249,32609,0,0,0
56060,54211,32555,0,0,0
56027,54175,32491,0,0,0
55996,54146,32428,0,0,0
55970,54124,32375,0,0,0
55947,54105,32331,0,0,0
55921,54085,32297,0,0,0
55889,54066,32270,0,0,0
55857,54050,32245,0,0,0
55829,54037,32220,0,0,0
55807,54030,32192,0,0,0
55786,54022,32160,0,0,0
55761,54009,32120,0,0,0
55733,53987,32071,0,0,0
55702,53958,32016,0,0,0
55669,53924,31960,0,0,0
55643,53894,31907,0,0,0
55620,53867,31855,0,0,0
55595,53837,31802,0,0,0
55564,53799,31751,0,0,0
55531,53758,31700,0,0,0
55497,53721,31651,0,0,0
55465,53690,31604,0,0,0
55434,53664,31561,0,0,0
55410,53642,31529,0,0,0
55393,53626,31511,0,0,0
55389,53621,31506,0,0,0
55404,53633,31523,0,0,0
55435,53662,31562,0,0,0
55477,53700,31625,0,0,0
55528,53748,31709,0,0,0
55592,53810,31816,0,0,0
55670,53884,31941,0,0,0
55757,53967,32082,0,0,0
55852,54058,32236,0,0,0
55958,54156,32400,0,0,0
56073,54260,32575,0,0,0
56188,54364,32760,0,0,0
56301,54465,32952,0,0,0
56409,54564,33145,0,0,0
56514,54659,33332,0,0,0
56616,54751,33509,0,0,0
56715,54839,33679,0,0,0
56808,54924,33843,0,0,0
56898,55003,33994,0,0,0
56986,55079,34132,0,0,0
57066,55151,34261,0,0,0
57131,55212,34373,0,0,0
57181,55259,34458,0,0,0
57215,55294,34521,0,0,0
57236,55321,34566,0,0,0
57251,55341,34600,0,0,0
57268,55359,34631,0,0,0
57286,55379,34664,0,0,0
57303,55403,34695,0,0,0
57322,55426,34726,0,0,0
57341,55445,34755,0,0,0
57356,55458,34781,0,0,0
57365,55467,34806,0,0,0
57374,55478,34836,0,0,0
57387,55488,34870,0,0,0
57400,55497,34904,0,0,0
57419,55511,34937,0,0,0
57445,55530,34974,0,0,0
57472,55553,35021,0,0,0
57496,55581,35073,0,0,0
57520,55608,35130,0,0,0
57549,55636,35193,0,0,0
57575,55663,35255,0,0,0
57603,55691,35314,0,0,0
57640,55723,35374,0,0,0
57679,55755,35438,0,0,0
57715,55788,35504,0,0,0
57753,55824,35570,0,0,0
57797,55863,35638,0,0,0
57841,55901,35708,0,0,0
57883,55936,35777,0,0,0
57924,55973,35846,0,0,0
57959,56012,35910,0,0,0
57989,56045,35964,0,0,0
58018,56070,36009,0,0,0
58041,56088,36047,0,0,0
58053,56098,36072,0,0,0
58061,56105,36083,0,0,0
58070,56114,36093,0,0,0
58078,56122,36101,0,0,0
58079,56126,36100,0,0,0
58070,56124,36088,0,0,0
58057,56119,36073,0,0,0
58043,56111,36059,0,0,0
58026,56099,36044,0,0,0
58009,56086,36031,0,0,0
57992,56072,36020,0,0,0
57973,56059,36014,0,0,0
57950,56051,36010,0,0,0
57928,56044,36004,0,0,0
57912,56035,35995,0,0,0
57905,56029,35987,0,0,0
57905,56028,35980,0,0,0
57907,56028,35973,0,0,0
57908,56024,35966,0,0,0
57911,56019,35965,0,0,0
57914,56013,35965,0,0,0
57914,56007,35960,0,0,0
57915,56004,35952,0,0,0
57918,56002,35943,0,0,0
57920,55999,35935,0,0,0
57920,55996,35927,0,0,0
57913,55991,35919,0,0,0
57898,55982,35908,0,0,0
57885,55973,35896,0,0,0
57876,55965,35883,0,0,0
57871,55957,35871,0,0,0
57867,55952,35857,0,0,0
57862,55949,35841,0,0,0
57856,55944,35821,0,0,0
57846,55934,35798,0,0,0
57831,55918,35772,0,0,0
57812,55898,35746,0,0,0
57790,55877,35720,0,0,0
57764,55856,35689,0,0,0
57740,55841,35657,0,0,0
57725,55833,35630,0,0,0
57715,55826,35609,0,0,0
57702,55813,35584,0,0,0
57683,55796,35556,0,0,0
57663,55782,35527,0,0,0
57643,55770,35498,0,0,0
57622,55756,35470,0,0,0
57601,55739,35441,0,0,0
57579,55716,35409,0,0,0
57553,55688,35373,0,0,0
57522,55661,35332,0,0,0
57491,55634,35292,0,0,0
57463,55608,35255,0,0,0
57442,55585,35221,0,0,0
57420,55566,35185,0,0,0
57394,55548,35146,0,0,0
57363,55526,35102,0,0,0
57329,55502,35055,0,0,0
57299,55478,35011,0,0,0
57272,55454,34968,0,0,0
57247,55433,34927,0,0,0
57226,55415,34891,0,0,0
57208,55395,34857,0,0,0
57185,55373,34823,0,0,0
57162,55350,34787,0,0,0
57141,55329,34751,0,0,0
57123,55310,34715,0,0,0
57107,55293,34680,0,0,0
57093,55276,34645,0,0,0
57080,55256,34606,0,0,0
57067,55235,34566,0,0,0
57053,55217,34531,0,0,0
57042,55206,34503,0,0,0
57037,55199,34478,0,0,0
57031,55193,34459,0,0,0
57018,55184,34439,0,0,0
56999,55173,34413,0,0,0
56973,55158,34380,0,0,0
56942,55136,34341,0,0,0
56909,55109,34303,0,0,0
56880,55085,34273,0,0,0
56854,55066,34248,0,0,0
56828,55048,34220,0,0,0
56797,55027,34186,0,0,0
56764,55000,34149,0,0,0
56732,54973,34109,0,0,0
56704,54946,34066,0,0,0
56678,54921,34022,0,0,0
56654,54896,33979,0,0,0
56629,54870,33939,0,0,0
56606,54845,33899,0,0,0
56583,54822,33856,0,0,0
56562,54802,33812,0,0,0
56543,54785,33771,0,0,0
56522,54767,33730,0,0,0
56501,54746,33687,0,0,0
56480,54725,33643,0,0,0
56455,54703,33601,0,0,0
56424,54675,33558,0,0,0
56391,54641,33514,0,0,0
56360,54608,33471,0,0,0
56326,54579,33434,0,0,0
56287,54551,33395,0,0,0
56248,54522,33349,0,0,0
56210,54494,33297,0,0,0
56171,54464,33241,0,0,0
56132,54433,33183,0,0,0
56094,54398,33124,0,0,0
56056,54362,33065,0,0,0
56021,54326,33012,0,0,0
55992,54295,32967,0,0,0
55971,54273,32926,0,0,0
55958,54257,32891,0,0,0
55949,54242,32857,0,0,0
55936,54221,32820,0,0,0
55914,54195,32781,0,0,0
55890,54172,32744,0,0,0
55868,54154,32707,0,0,0
55843,54134,32665,0,0,0
55811,54106,32617,0,0,0
55777,54076,32566,0,0,0
55746,54046,32511,0,0,0
55716,54012,32452,0,0,0
55686,53979,32392,0,0,0
55658,53948,32336,0,0,0
55627,53916,32285,0,0,0
55594,53884,32236,0,0,0
55560,53854,32184,0,0,0
55525,53825,32132,0,0,0
55493,53797,32082,0,0,0
55468,53772,32035,0,0,0
55451,53755,31994,0,0,0
55440,53743,31961,0,0,0
55430,53737,31933,0,0,0
55416,53728,31908,0,0,0
55396,53712,31882,0,0,0
55374,53695,31856,0,0,0
55349,53680,31826,0,0,0
55319,53658,31784,0,0,0
55288,53632,31735,0,0,0
55254,53608,31682,0,0,0
55217,53582,31631,0,0,0
55178,53550,31580,0,0,0
55140,53514,31531,0,0,0
55102,53480,31485,0,0,0
55067,53448,31436,0,0,0
55034,53415,31383,0,0,0
55006,53383,31330,0,0,0
54982,53357,31280,0,0,0
54961,53335,31234,0,0,0
54939,53313,31189,0,0,0
54916,53294,31149,0,0,0
54897,53278,31116,0,0,0
54876,53265,31085,0,0,0
54851,53249,31049,0,0,0
54827,53232,31008,0,0,0
54805,53219,30966,0,0,0
54782,53204,30921,0,0,0
54759,53180,30875,0,0,0
54736,53155,30834,0,0,0
54712,53132,30797,0,0,0
54686,53112,30760,0,0,0
54656,53092,30721,0,0,0
54621,53067,30677,0,0,0
54584,53036,30629,0,0,0
54551,53004,30579,0,0,0
54523,52978,30536,0,0,0
54503,52961,30507,0,0,0
54499,52958,30496,0,0,0
54513,52972,30504,0,0,0
54539,52998,30531,0,0,0
54571,53033,30578,0,0,0
54612,53076,30644,0,0,0
54668,53130,30731,0,0,0
54740,53197,30842,0,0,0
54820,53272,30972,0,0,0
54909,53355,31115,0,0,0
55006,53443,31269,0,0,0
55107,53535,31437,0,0,0
55213,53633,31622,0,0,0
55326,53735,31815,0,0,0
55442,53837,32009,0,0,0
55558,53940,32204,0,0,0
55676,54044,32400,0,0,0
55792,54148,32595,0,0,0
55909,54246,32781,0,0,0
56022,54339,32960,0,0,0
56123,54424,33128,0,0,0
56205,54495,33277,0,0,0
56268,54553,33403,0,0,0
56321,54604,33513,0,0,0
56371,54653,33611,0,0,0
56419,54697,33701,0,0,0
56462,54737,33781,0,0,0
56497,54770,33850,0,0,0
56525,54799,33911,0,0,0
56548,54824,33965,0,0,0
56568,54845,34010,0,0,0
56589,54865,34049,0,0,0
56607,54882,34084,0,0,0
56627,54905,34115,0,0,0
56650,54934,34145,0,0,0
56673,54961,34175,0,0,0
56693,54985,34207,0,0,0
56717,55007,34240,0,0,0
56748,55033,34280,0,0,0
56788,55064,34330,0,0,0
56831,55098,34386,0,0,0
56871,55135,34443,0,0,0
56908,55171,34498,0,0,0
56941,55203,34551,0,0,0
56972,55231,34607,0,0,0
56998,55258,34672,0,0,0
57019,55286,34741,0,0,0
57040,55317,34808,0,0,0
57071,55352,34877,0,0,0
57113,55391,34949,0,0,0
57161,55432,35029,0,0,0
57208,55476,35117,0,0,0
57251,55520,35205,0,0,0
57290,55563,35285,0,0,0
57325,55602,35355,0,0,0
57356,55634,35416,0,0,0
57383,55658,35470,0,0,0
57404,55672,35519,0,0,0
57420,55681,35558,0,0,0
57437,55692,35589,0,0,0
57455,55710,35614,0,0,0
57470,55728,35634,0,0,0
57478,55738,35646,0,0,0
57480,55740,35651,0,0,0
57477,55737,35652,0,0,0
57468,55734,35648,0,0,0
57458,55732,35638,0,0,0
57454,55735,35628,0,0,0
57457,55736,35623,0,0,0
57461,55733,35621,0,0,0
57461,55726,35617,0,0,0
57458,55721,35607,0,0,0
57459,55722,35601,0,0,0
57464,55725,35601,0,0,0
57470,55733,35607,0,0,0
57477,55747,35617,0,0,0
57478,55760,35625,0,0,0
57471,55763,35626,0,0,0
57458,55762,35618,0,0,0
57447,55762,35609,0,0,0
57445,55764,35602,0,0,0
57451,55763,35602,0,0,0
57458,55759,35611,0,0,0
57464,55756,35620,0,0,0
57465,55753,35625,0,0,0
57460,55745,35622,0,0,0
57446,55728,35607,0,0,0
57427,55705,35586,0,0,0
57410,55685,35564,0,0,0
57393,55670,35543,0,0,0
57372,55660,35523,0,0,0
57350,55653,35503,0,0,0
57337,55647,35483,0,0,0
57338,55643,35469,0,0,0
57346,55643,35461,0,0,0
57357,55647,35458,0,0,0
57364,55646,35450,0,0,0
57364,55642,35434,0,0,0
57359,55640,35412,0,0,0
57352,55637,35387,0,0,0
57340,55629,35362,0,0,0
57322,55613,35338,0,0,0
57298,55591,35311,0,0,0
57270,55568,35280,0,0,0
57240,55546,35242,0,0,0
57213,55525,35202,0,0,0
57189,55504,35163,0,0,0
57166,55481,35124,0,0,0
57148,55456,35087,0,0,0
57135,55435,35055,0,0,0
57123,55420,35026,0,0,0
57116,55415,35002,0,0,0
57111,55414,34980,0,0,0
57105,55407,34956,0,0,0
57097,55396,34932,0,0,0
57086,55383,34911,0,0,0
57069,55366,34886,0,0,0
57046,55348,34855,0,0,0
57026,55332,34819,0,0,0
57007,55316,34778,0,0,0
56988,55296,34732,0,0,0
56969,55273,34684,0,0,0
56951,55249,34643,0,0,0
56928,55226,34608,0,0,0
56901,55206,34576,0,0,0
56874,55188,34544,0,0,0
56852,55173,34514,0,0,0
56841,55160,34489,0,0,0
56835,55145,34470,0,0,0
56827,55129,34452,0,0,0
56810,55111,34431,0,0,0
56786,55096,34404,0,0,0
56760,55083,34368,0,0,0
56734,55070,34326,0,0,0
56708,55058,34283,0,0,0
56685,55047,34242,0,0,0
56663,55036,34202,0,0,0
56644,55023,34163,0,0,0
56625,55003,34123,0,0,0
56603,54978,34082,0,0,0
56584,54954,34045,0,0,0
56573,54933,34018,0,0,0
56563,54916,33998,0,0,0
56547,54898,33975,0,0,0
56524,54876,33946,0,0,0
56498,54850,33915,0,0,0
56472,54824,33884,0,0,0
56444,54796,33849,0,0,0
56419,54770,33814,0,0,0
56397,54747,33781,0,0,0
56376,54726,33747,0,0,0
56354,54705,33712,0,0,0
56329,54681,33675,0,0,0
56301,54655,33636,0,0,0
56271,54631,33594,0,0,0
56245,54608,33550,0,0,0
56217,54580,33504,0,0,0
56187,54550,33457,0,0,0
56158,54516,33404,0,0,0
56128,54480,33347,0,0,0
56093,54444,33291,0,0,0
56057,54413,33243,0,0,0
56022,54387,33199,0,0,0
55991,54363,33155,0,0,0
55961,54339,33115,0,0,0
55933,54318,33078,0,0,0
55909,54301,33045,0,0,0
55886,54285,33011,0,0,0
55863,54270,32975,0,0,0
55841,54257,32936,0,0,0
55821,54246,32893,0,0,0
55803,54236,32848,0,0,0
55782,54221,32805,0,0,0
55761,54204,32766,0,0,0
55739,54185,32728,0,0,0
55714,54161,32691,0,0,0
55688,54130,32655,0,0,0
55661,54099,32616,0,0,0
55636,54071,32579,0,0,0
55611,54046,32545,0,0,0
55584,54021,32511,0,0,0
55556,53996,32474,0,0,0
55528,53971,32433,0,0,0
55500,53949,32394,0,0,0
55473,53930,32357,0,0,0
55452,53909,32323,0,0,0
55434,53888,32287,0,0,0
55418,53866,32248,0,0,0
55402,53847,32209,0,0,0
55385,53830,32167,0,0,0
55365,53814,32118,0,0,0
55340,53797,32068,0,0,0
55312,53783,32023,0,0,0
55286,53768,31980,0,0,0
55268,53752,31937,0,0,0
55253,53738,31896,0,0,0
55237,53722,31858,0,0,0
55221,53704,31816,0,0,0
55208,53684,31771,0,0,0
55192,53662,31732,0,0,0
55173,53643,31702,0,0,0
55152,53625,31674,0,0,0
55128,53604,31640,0,0,0
55103,53581,31601,0,0,0
55077,53559,31562,0,0,0
55051,53542,31526,0,0,0
55026,53526,31489,0,0,0
55002,53509,31451,0,0,0
54978,53493,31415,0,0,0
54952,53470,31379,0,0,0
54922,53441,31339,0,0,0
54893,53415,31300,0,0,0
54873,53397,31263,0,0,0
54858,53382,31223,0,0,0
54844,53365,31182,0,0,0
54831,53349,31143,0,0,0
54817,53332,31105,0,0,0
54800,53312,31063,0,0,0
54774,53285,31018,0,0,0
54741,53253,30969,0,0,0
54705,53220,30919,0,0,0
54668,53188,30867,0,0,0
54632,53157,30818,0,0,0
54599,53129,30774,0,0,0
54569,53103,30735,0,0,0
54541,53080,30699,0,0,0
54512,53056,30662,0,0,0
54486,53032,30622,0,0,0
54466,53009,30579,0,0,0
54454,52991,30539,0,0,0
54448,52983,30512,0,0,0
54450,52989,30511,0,0,0
54466,53009,30532,0,0,0
54498,53040,30572,0,0,0
54544,53083,30633,0,0,0
54602,53135,30717,0,0,0
54669,53199,30824,0,0,0
54749,53277,30957,0,0,0
54846,53370,31113,0,0,0
54956,53473,31288,0,0,0
55076,53583,31474,0,0,0
55204,53697,31666,0,0,0
55338,53815,31864,0,0,0
55474,53935,32070,0,0,0
55608,54052,32275,0,0,0
55734,54158,32472,0,0,0
55852,54257,32660,0,0,0
55964,54352,32840,0,0,0
56066,54434,33005,0,0,0
56149,54505,33151,0,0,0
56220,54568,33282,0,0,0
56280,54625,33389,0,0,0
56328,54675,33476,0,0,0
56371,54724,33554,0,0,0
56409,54770,33628,0,0,0
56442,54811,33698,0,0,0
56471,54843,33757,0,0,0
56491,54864,33803,0,0,0
56503,54878,33843,0,0,0
56513,54889,33882,0,0,0
56526,54897,33917,0,0,0
56539,54901,33950,0,0,0
56551,54907,33988,0,0,0
56562,54914,34028,0,0,0
56574,54923,34064,0,0,0
56589,54936,34100,0,0,0
56608,54955,34140,0,0,0
56629,54978,34183,0,0,0
56654,55005,34221,0,0,0
56682,55034,34257,0,0,0
56719,55063,34295,0,0,0
56762,55094,34340,0,0,0
56805,55126,34389,0,0,0
56844,55158,34436,0,0,0
56884,55194,34485,0,0,0
56927,55232,34541,0,0,0
56973,55269,34605,0,0,0
57020,55304,34671,0,0,0
57061,55340,34738,0,0,0
57092,55375,34805,0,0,0
57113,55404,34863,0,0,0
57127,55427,34912,0,0,0
57140,55444,34956,0,0,0
57155,55460,35000,0,0,0
57172,55480,35045,0,0,0
57191,55503,35086,0,0,0
57211,55526,35120,0,0,0
57227,55543,35145,0,0,0
57236,55551,35164,0,0,0
57242,55553,35179,0,0,0
57244,55550,35190,0,0,0
57240,55547,35196,0,0,0
57235,55544,35194,0,0,0
57233,55543,35190,0,0,0
57233,55543,35187,0,0,0
57233,55544,35185,0,0,0
57233,55547,35182,0,0,0
57233,55552,35179,0,0,0
57234,55557,35178,0,0,0
57239,55560,35182,0,0,0
57248,55563,35193,0,0,0
57257,55568,35206,0,0,0
57262,55572,35219,0,0,0
57260,55571,35230,0,0,0
57254,55566,35239,0,0,0
57247,55564,35247,0,0,0
57238,55566,35252,0,0,0
57225,55567,35249,0,0,0
57210,55564,35239,0,0,0
57195,55558,35227,0,0,0
57182,55552,35217,0,0,0
57173,55544,35207,0,0,0
57167,55538,35200,0,0,0
57163,55540,35200,0,0,0
57167,55547,35203,0,0,0
57180,55555,35207,0,0,0
57194,55561,35207,0,0,0
57200,55563,35196,0,0,0
57202,55561,35179,0,0,0
57205,55561,35160,0,0,0
57209,55563,35140,0,0,0
57214,55566,35121,0,0,0
57215,55565,35102,0,0,0
57212,55557,35080,0,0,0
57210,55547,35057,0,0,0
57207,55539,35037,0,0,0
57200,55529,35019,0,0,0
57190,55513,35000,0,0,0
57174,55493,34980,0,0,0
57150,55472,34956,0,0,0
57120,55449,34927,0,0,0
57089,55424,34891,0,0,0
57064,55403,34856,0,0,0
57043,55389,34824,0,0,0
57025,55378,34795,0,0,0
57008,55365,34769,0,0,0
56990,55353,34744,0,0,0
56972,55342,34719,0,0,0
56954,55330,34696,0,0,0
56940,55320,34674,0,0,0
56933,55316,34653,0,0,0
56927,55313,34634,0,0,0
56919,55306,34612,0,0,0
56905,55294,34588,0,0,0
56890,55277,34564,0,0,0
56875,55258,34544,0,0,0
56858,55238,34519,0,0,0
56842,55218,34486,0,0,0
56831,55199,34449,0,0,0
56821,55181,34418,0,0,0
56812,55165,34391,0,0,0
56803,55155,34368,0,0,0
56793,55149,34344,0,0,0
56778,55142,34322,0,0,0
56758,55128,34302,0,0,0
56736,55110,34281,0,0,0
56716,55092,34259,0,0,0
56698,55077,34233,0,0,0
56675,55059,34205,0,0,0
56649,55039,34174,0,0,0
56627,55020,34143,0,0,0
56607,55006,34111,0,0,0
56587,54992,34074,0,0,0
56570,54975,34033,0,0,0
56556,54960,33994,0,0,0
56545,54944,33962,0,0,0
56534,54925,33935,0,0,0
56524,54907,33910,0,0,0
56514,54891,33887,0,0,0
56497,54872,33860,0,0,0
56476,54851,33829,0,0,0
56455,54834,33799,0,0,0
56436,54822,33772,0,0,0
56414,54815,33751,0,0,0
56393,54807,33732,0,0,0
56375,54794,33708,0,0,0
56360,54777,33678,0,0,0
56345,54756,33644,0,0,0
56326,54734,33612,0,0,0
56302,54713,33581,0,0,0
56275,54690,33547,0,0,0
56247,54664,33514,0,0,0
56218,54637,33482,0,0,0
56187,54611,33448,0,0,0
56151,54584,33409,0,0,0
56113,54555,33362,0,0,0
56077,54528,33312,0,0,0
56043,54508,33267,0,0,0
56019,54494,33227,0,0,0
56000,54480,33187,0,0,0
55980,54460,33145,0,0,0
55966,54439,33108,0,0,0
55959,54422,33072,0,0,0
55950,54403,33034,0,0,0
55935,54378,32994,0,0,0
55919,54356,32959,0,0,0
55906,54339,32928,0,0,0
55895,54327,32897,0,0,0
55884,54317,32868,0,0,0
55872,54306,32842,0,0,0
55858,54296,32815,0,0,0
55842,54285,32785,0,0,0
55822,54270,32757,0,0,0
55801,54250,32727,0,0,0
55781,54230,32694,0,0,0
55762,54215,32662,0,0,0
55742,54203,32630,0,0,0
55718,54188,32591,0,0,0
55690,54167,32547,0,0,0
55661,54141,32503,0,0,0
55634,54114,32459,0,0,0
55609,54086,32416,0,0,0
55586,54058,32373,0,0,0
55563,54033,32332,0,0,0
55540,54013,32298,0,0,0
55519,53999,32269,0,0,0
55501,53988,32237,0,0,0
55484,53979,32201,0,0,0
55464,53965,32163,0,0,0
55442,53945,32124,0,0,0
55421,53920,32083,0,0,0
55400,53895,32042,0,0,0
55376,53868,32003,0,0,0
55348,53841,31962,0,0,0
55318,53815,31917,0,0,0
55283,53787,31869,0,0,0
55240,53755,31819,0,0,0
55195,53720,31769,0,0,0
55154,53686,31722,0,0,0
55128,53659,31683,0,0,0
55116,53645,31664,0,0,0
55121,53647,31668,0,0,0
55145,53669,31699,0,0,0
55184,53706,31754,0,0,0
55234,53752,31833,0,0,0
55297,53809,31934,0,0,0
55377,53879,32055,0,0,0
55470,53959,32195,0,0,0
55572,54049,32353,0,0,0
55683,54151,32529,0,0,0
55798,54258,32715,0,0,0
55914,54364,32907,0,0,0
56027,54469,33100,0,0,0
56138,54569,33288,0,0,0
56245,54660,33469,0,0,0
56346,54746,33647,0,0,0
56445,54832,33824,0,0,0
56543,54916,33995,0,0,0
56636,54994,34154,0,0,0
56719,55067,34301,0,0,0
56792,55131,34433,0,0,0
56857,55185,34547,0,0,0
56913,55230,34642,0,0,0
56961,55272,34721,0,0,0
57002,55314,34783,0,0,0
57036,55352,34832,0,0,0
57063,55384,34871,0,0,0
57087,55409,34903,0,0,0
57113,55429,34932,0,0,0
57138,55443,34965,0,0,0
57158,55456,35001,0,0,0
57179,55473,35041,0,0,0
57204,55496,35087,0,0,0
57234,55525,35133,0,0,0
57266,55556,35177,0,0,0
57297,55584,35219,0,0,0
57330,55607,35264,0,0,0
57363,55628,35318,0,0,0
57396,55652,35379,0,0,0
57433,55683,35445,0,0,0
57475,55719,35518,0,0,0
57518,55757,35600,0,0,0
57563,55798,35686,0,0,0
57604,55842,35771,0,0,0
57642,55887,35854,0,0,0
57683,55934,35939,0,0,0
57726,55983,36022,0,0,0
57768,56032,36101,0,0,0
57810,56076,36173,0,0,0
57846,56113,36238,0,0,0
57876,56149,36297,0,0,0
57904,56183,36351,0,0,0
57935,56211,36404,0,0,0
57962,56235,36455,0,0,0
57979,56251,36499,0,0,0
57985,56262,36533,0,0,0
57985,56266,36555,0,0,0
57982,56264,36570,0,0,0
57979,56262,36578,0,0,0
57981,56265,36583,0,0,0
57985,56270,36585,0,0,0
57986,56271,36579,0,0,0
57986,56264,36566,0,0,0
57989,56257,36555,0,0,0
57995,56257,36549,0,0,0
57996,56261,36545,0,0,0
57994,56268,36540,0,0,0
57996,56278,36538,0,0,0
58004,56289,36542,0,0,0
58016,56298,36548,0,0,0
58025,56301,36550,0,0,0
58025,56297,36546,0,0,0
58020,56286,36537,0,0,0
58015,56273,36528,0,0,0
58016,56263,36524,0,0,0
58021,56259,36527,0,0,0
58025,56259,36535,0,0,0
58022,56262,36543,0,0,0
58017,56268,36549,0,0,0
58010,56271,36550,0,0,0
58003,56269,36551,0,0,0
58001,56265,36555,0,0,0
58000,56263,36557,0,0,0
57998,56261,36551,0,0,0
57996,56258,36545,0,0,0
57996,56255,36539,0,0,0
57996,56256,36530,0,0,0
57991,56258,36517,0,0,0
57981,56256,36498,0,0,0
57967,56248,36477,0,0,0
57953,56237,36458,0,0,0
57934,56223,36436,0,0,0
57911,56209,36409,0,0,0
57892,56199,36383,0,0,0
57879,56191,36362,0,0,0
57867,56178,36341,0,0,0
57856,56162,36317,0,0,0
57845,56146,36288,0,0,0
57831,56131,36252,0,0,0
57811,56110,36211,0,0,0
57782,56084,36167,0,0,0
57747,56054,36122,0,0,0
57717,56028,36083,0,0,0
57694,56005,36048,0,0,0
57672,55979,36012,0,0,0
57647,55952,35975,0,0,0
57621,55926,35936,0,0,0
57594,55901,35897,0,0,0
57568,55877,35859,0,0,0
57542,55851,35820,0,0,0
57518,55821,35780,0,0,0
57493,55791,35736,0,0,0
57461,55763,35686,0,0,0
57429,55737,35637,0,0,0
57402,55715,35599,0,0,0
57378,55696,35569,0,0,0
57352,55682,35540,0,0,0
57331,55672,35508,0,0,0
57315,55658,35475,0,0,0
57297,55638,35444,0,0,0
57275,55618,35414,0,0,0
57258,55603,35382,0,0,0
57248,55590,35350,0,0,0
57238,55574,35315,0,0,0
57222,55555,35275,0,0,0
57203,55536,35230,0,0,0
57185,55518,35185,0,0,0
57166,55501,35146,0,0,0
57140,55485,35109,0,0,0
57112,55468,35072,0,0,0
57083,55446,35036,0,0,0
57054,55420,35006,0,0,0
57022,55391,34978,0,0,0
56990,55364,34947,0,0,0
56963,55343,34912,0,0,0
56945,55327,34876,0,0,0
56935,55314,34845,0,0,0
56927,55302,34817,0,0,0
56915,55289,34787,0,0,0
56896,55275,34754,0,0,0
56877,55262,34721,0,0,0
56862,55248,34687,0,0,0
56846,55229,34655,0,0,0
56826,55205,34618,0,0,0
56802,55177,34572,0,0,0
56780,55149,34526,0,0,0
56758,55124,34486,0,0,0
56734,55101,34443,0,0,0
56705,55073,34391,0,0,0
56671,55042,34336,0,0,0
56639,55012,34287,0,0,0
56613,54986,34243,0,0,0
56585,54965,34197,0,0,0
56553,54944,34153,0,0,0
56521,54922,34119,0,0,0
56489,54901,34090,0,0,0
56459,54882,34054,0,0,0
56434,54863,34015,0,0,0
56413,54844,33980,0,0,0
56388,54823,33947,0,0,0
56358,54798,33914,0,0,0
56326,54771,33883,0,0,0
56295,54741,33849,0,0,0
56263,54705,33810,0,0,0
56230,54667,33769,0,0,0
56201,54631,33729,0,0,0
56176,54599,33686,0,0,0
56150,54572,33639,0,0,0
56122,54547,33587,0,0,0
56090,54523,33531,0,0,0
56056,54504,33474,0,0,0
56022,54484,33419,0,0,0
55988,54463,33364,0,0,0
55952,54438,33310,0,0,0
55916,54406,33255,0,0,0
55881,54374,33204,0,0,0
55854,54350,33165,0,0,0
55835,54332,33134,0,0,0
55819,54315,33100,0,0,0
55802,54295,33060,0,0,0
55786,54275,33015,0,0,0
55771,54256,32968,0,0,0
55752,54234,32923,0,0,0
55727,54211,32882,0,0,0
55700,54188,32844,0,0,0
55672,54165,32804,0,0,0
55642,54138,32765,0,0,0
55614,54110,32732,0,0,0
55592,54087,32704,0,0,0
55574,54068,32677,0,0,0
55562,54051,32652,0,0,0
55549,54036,32623,0,0,0
55536,54024,32595,0,0,0
55522,54013,32566,0,0,0
55505,54000,32533,0,0,0
55487,53986,32502,0,0,0
55467,53972,32473,0,0,0
55448,53956,32440,0,0,0
55433,53940,32403,0,0,0
55419,53926,32367,0,0,0
55404,53909,32334,0,0,0
55389,53890,32298,0,0,0
55373,53870,32265,0,0,0
55354,53850,32236,0,0,0
55336,53831,32207,0,0,0
55320,53813,32178,0,0,0
55305,53796,32151,0,0,0
55286,53778,32126,0,0,0
55261,53758,32096,0,0,0
55234,53738,32061,0,0,0
55214,53725,32025,0,0,0
55202,53717,31989,0,0,0
55188,53706,31954,0,0,0
55170,53686,31918,0,0,0
55148,53659,31879,0,0,0
55128,53633,31841,0,0,0
55110,53608,31799,0,0,0
55091,53583,31755,0,0,0
55073,53562,31713,0,0,0
55060,53550,31679,0,0,0
55054,53546,31658,0,0,0
55052,53546,31649,0,0,0
55057,53553,31657,0,0,0
55076,53573,31688,0,0,0
55106,53603,31742,0,0,0
55150,53643,31817,0,0,0
55213,53696,31912,0,0,0
55294,53761,32027,0,0,0
55389,53837,32160,0,0,0
55496,53921,32313,0,0,0
55616,54014,32489,0,0,0
55750,54119,32680,0,0,0
55896,54234,32881,0,0,0
56044,54360,33093,0,0,0
56188,54489,33314,0,0,0
56325,54617,33535,0,0,0
56457,54743,33756,0,0,0
56585,54862,33972,0,0,0
56706,54972,34172,0,0,0
56816,55070,34356,0,0,0
56913,55153,34522,0,0,0
56997,55220,34668,0,0,0
57073,55277,34792,0,0,0
57141,55332,34900,0,0,0
57200,55382,34998,0,0,0
57248,55425,35082,0,0,0
57286,55465,35153,0,0,0
57320,55498,35222,0,0,0
57347,55522,35288,0,0,0
57367,55543,35347,0,0,0
57384,55566,35401,0,0,0
57401,55589,35452,0,0,0
57419,55609,35498,0,0,0
57439,55625,35542,0,0,0
57463,55645,35590,0,0,0
57491,55672,35643,0,0,0
57524,55701,35699,0,0,0
57560,55729,35755,0,0,0
57599,55756,35813,0,0,0
57635,55780,35873,0,0,0
57668,55803,35933,0,0,0
57698,55831,35995,0,0,0
57729,55866,36064,0,0,0
57764,55903,36142,0,0,0
57803,55943,36227,0,0,0
57847,55992,36317,0,0,0
57896,56046,36413,0,0,0
57950,56100,36512,0,0,0
58008,56151,36614,0,0,0
58067,56204,36721,0,0,0
58121,56261,36830,0,0,0
58173,56317,36936,0,0,0
58224,56368,37033,0,0,0
58267,56410,37117,0,0,0
58301,56446,37188,0,0,0
58336,56478,37245,0,0,0
58374,56505,37289,0,0,0
58404,56524,37320,0,0,0
58417,56534,37340,0,0,0
58418,56539,37350,0,0,0
58415,56545,37359,0,0,0
58415,56550,37372,0,0,0
58417,56554,37383,0,0,0
58417,56551,37384,0,0,0
58410,56542,37375,0,0,0
58402,56532,37363,0,0,0
58394,56522,37352,0,0,0
58388,56511,37340,0,0,0
58384,56504,37330,0,0,0
58380,56504,37325,0,0,0
58379,56512,37324,0,0,0
58379,56520,37321,0,0,0
58378,56523,37315,0,0,0
58379,56524,37311,0,0,0
58380,56528,37309,0,0,0
58378,56532,37307,0,0,0
58375,56537,37307,0,0,0
58379,56543,37313,0,0,0
58386,56550,37323,0,0,0
58394,56557,37335,0,0,0
58404,56564,37347,0,0,0
58420,56571,37359,0,0,0
58438,56575,37372,0,0,0
58454,56578,37383,0,0,0
58463,56582,37389,0,0,0
58466,56586,37390,0,0,0
58463,56586,37385,0,0,0
58458,56581,37376,0,0,0
58453,56573,37364,0,0,0
58448,56566,37350,0,0,0
58440,56560,37335,0,0,0
58426,56551,37321,0,0,0
58411,56541,37309,0,0,0
58399,56535,37298,0,0,0
58389,56534,37287,0,0,0
58379,56531,37272,0,0,0
58368,56524,37255,0,0,0
58363,56517,37242,0,0,0
58360,56510,37230,0,0,0
58352,56499,37209,0,0,0
58336,56481,37175,0,0,0
58320,56460,37136,0,0,0
58309,56440,37102,0,0,0
58297,56419,37073,0,0,0
58277,56396,37041,0,0,0
58254,56373,37006,0,0,0
58235,56350,36970,0,0,0
58215,56329,36934,0,0,0
58196,56311,36897,0,0,0
58174,56296,36859,0,0,0
58149,56283,36822,0,0,0
58122,56267,36786,0,0,0
58096,56245,36755,0,0,0
58072,56223,36729,0,0,0
58047,56200,36699,0,0,0
58022,56177,36661,0,0,0
58000,56155,36622,0,0,0
57978,56132,36587,0,0,0
57955,56111,36556,0,0,0
57935,56093,36526,0,0,0
57918,56082,36496,0,0,0
57903,56072,36466,0,0,0
57889,56059,36434,0,0,0
57873,56038,36396,0,0,0
57855,56013,36354,0,0,0
57832,55988,36311,0,0,0
57808,55967,36270,0,0,0
57784,55945,36234,0,0,0
57761,55922,36204,0,0,0
57746,55904,36178,0,0,0
57735,55890,36154,0,0,0
57722,55874,36126,0,0,0
57704,55853,36094,0,0,0
57686,55831,36061,0,0,0
57665,55811,36030,0,0,0
57637,55795,35995,0,0,0
57608,55779,35951,0,0,0
57584,55763,35902,0,0,0
57565,55744,35855,0,0,0
57548,55725,35814,0,0,0
57533,55711,35779,0,0,0
57519,55700,35748,0,0,0
57507,55691,35719,0,0,0
57497,55683,35693,0,0,0
57485,55673,35667,0,0,0
57470,55655,35639,0,0,0
57452,55628,35605,0,0,0
57431,55598,35572,0,0,0
57407,55573,35539,0,0,0
57379,55553,35502,0,0,0
57349,55534,35459,0,0,0
57321,55515,35415,0,0,0
57296,55491,35373,0,0,0
57270,55463,35332,0,0,0
57244,55433,35289,0,0,0
57219,55402,35245,0,0,0
57195,55373,35202,0,0,0
57169,55347,35162,0,0,0
57140,55326,35123,0,0,0
57115,55311,35083,0,0,0
57092,55297,35044,0,0,0
57069,55280,35000,0,0,0
57042,55255,34950,0,0,0
57012,55224,34894,0,0,0
56983,55192,34842,0,0,0
56960,55165,34795,0,0,0
56941,55142,34751,0,0,0
56921,55120,34707,0,0,0
56897,55098,34660,0,0,0
56875,55079,34611,0,0,0
56853,55059,34564,0,0,0
56831,55040,34523,0,0,0
56808,55020,34487,0,0,0
56784,54999,34455,0,0,0
56760,54978,34425,0,0,0
56739,54960,34398,0,0,0
56715,54944,34371,0,0,0
56686,54928,34341,0,0,0
56656,54911,34303,0,0,0
56628,54891,34255,0,0,0
56601,54871,34204,0,0,0
56573,54848,34153,0,0,0
56546,54824,34105,0,0,0
56520,54799,34064,0,0,0
56494,54774,34025,0,0,0
56467,54749,33984,0,0,0
56437,54718,33944,0,0,0
56405,54685,33906,0,0,0
56373,54653,33870,0,0,0
56345,54624,33834,0,0,0
56323,54599,33799,0,0,0
56305,54579,33765,0,0,0
56285,54560,33729,0,0,0
56266,54540,33690,0,0,0
56248,54519,33651,0,0,0
56234,54501,33612,0,0,0
56222,54485,33572,0,0,0
56211,54470,33530,0,0,0
56199,54455,33489,0,0,0
56186,54440,33450,0,0,0
56170,54422,33411,0,0,0
56146,54400,33369,0,0,0
56117,54377,33328,0,0,0
56088,54358,33292,0,0,0
56061,54342,33262,0,0,0
56032,54328,33234,0,0,0
56003,54312,33203,0,0,0
55969,54290,33167,0,0,0
55930,54262,33126,0,0,0
55895,54234,33086,0,0,0
55870,54213,33048,0,0,0
55850,54197,33012,0,0,0
55834,54183,32976,0,0,0
55821,54169,32941,0,0,0
55812,54150,32904,0,0,0
55798,54123,32861,0,0,0
55774,54088,32815,0,0,0
55742,54052,32768,0,0,0
55708,54018,32719,0,0,0
55675,53983,32666,0,0,0
55647,53952,32612,0,0,0
55624,53926,32562,0,0,0
55604,53902,32516,0,0,0
55584,53880,32473,0,0,0
55563,53858,32433,0,0,0
55538,53835,32396,0,0,0
55511,53812,32357,0,0,0
55479,53787,32311,0,0,0
55444,53756,32258,0,0,0
55414,53727,32204,0,0,0
55391,53704,32157,0,0,0
55375,53688,32121,0,0,0
55369,53683,32102,0,0,0
55373,53688,32103,0,0,0
55384,53700,32124,0,0,0
55406,53724,32167,0,0,0
55445,53762,32235,0,0,0
55506,53814,32329,0,0,0
55589,53883,32447,0,0,0
55685,53967,32584,0,0,0
55783,54058,32743,0,0,0
55886,54156,32921,0,0,0
55999,54262,33112,0,0,0
56116,54369,33310,0,0,0
56234,54474,33513,0,0,0
56352,54578,33720,0,0,0
56472,54683,33926,0,0,0
56595,54787,34124,0,0,0
56715,54886,34315,0,0,0
56824,54978,34501,0,0,0
56918,55061,34671,0,0,0
57001,55133,34821,0,0,0
57077,55202,34954,0,0,0
57146,55265,35071,0,0,0
57206,55318,35169,0,0,0
57254,55359,35250,0,0,0
57290,55390,35319,0,0,0
57322,55418,35384,0,0,0
57352,55445,35443,0,0,0
57377,55473,35493,0,0,0
57400,55500,35537,0,0,0
57426,55525,35578,0,0,0
57453,55546,35617,0,0,0
57477,55564,35655,0,0,0
57500,55584,35693,0,0,0
57523,55607,35728,0,0,0
57543,55630,35757,0,0,0
57565,55657,35789,0,0,0
57593,55689,35830,0,0,0
57625,55725,35882,0,0,0
57667,55764,35944,0,0,0
57714,55804,36015,0,0,0
57760,55846,36090,0,0,0
57805,55888,36168,0,0,0
57850,55929,36246,0,0,0
57890,55968,36320,0,0,0
57927,56008,36394,0,0,0
57964,56050,36470,0,0,0
58007,56094,36549,0,0,0
58056,56139,36634,0,0,0
58112,56184,36721,0,0,0
58168,56224,36809,0,0,0
58218,56260,36895,0,0,0
58262,56294,36977,0,0,0
58296,56326,37051,0,0,0
58323,56354,37112,0,0,0
58350,56378,37162,0,0,0
58378,56397,37204,0,0,0
58399,56413,37241,0,0,0
58409,56427,37271,0,0,0
58408,56439,37288,0,0,0
58400,56447,37292,0,0,0
58388,56448,37288,0,0,0
58375,56442,37283,0,0,0
58361,56438,37278,0,0,0
58351,56439,37272,0,0,0
58342,56441,37271,0,0,0
58337,56438,37270,0,0,0
58332,56429,37266,0,0,0
58330,56419,37257,0,0,0
58329,56411,37245,0,0,0
58325,56402,37228,0,0,0
58318,56394,37209,0,0,0
58313,56389,37195,0,0,0
58309,56381,37185,0,0,0
58299,56372,37181,0,0,0
58284,56365,37179,0,0,0
58268,56358,37175,0,0,0
58257,56352,37172,0,0,0
58251,56348,37172,0,0,0
58245,56343,37171,0,0,0
58238,56337,37163,0,0,0
58227,56331,37149,0,0,0
58215,56325,37133,0,0,0
58209,56321,37122,0,0,0
58209,56319,37118,0,0,0
58208,56317,37113,0,0,0
58208,56314,37102,0,0,0
58213,56314,37091,0,0,0
58220,56315,37083,0,0,0
58223,56313,37078,0,0,0
58216,56307,37070,0,0,0
58199,56300,37055,0,0,0
58178,56295,37034,0,0,0
58160,56292,37014,0,0,0
58146,56281,36995,0,0,0
58133,56267,36981,0,0,0
58120,56253,36970,0,0,0
58102,56238,36953,0,0,0
58081,56223,36925,0,0,0
58058,56207,36890,0,0,0
58034,56186,36854,0,0,0
58005,56160,36816,0,0,0
57975,56133,36777,0,0,0
57949,56115,36738,0,0,0
57930,56106,36700,0,0,0
57915,56098,36664,0,0,0
57898,56086,36629,0,0,0
57876,56071,36594,0,0,0
57850,56056,36558,0,0,0
57822,56038,36521,0,0,0
57794,56015,36482,0,0,0
57766,55987,36442,0,0,0
57738,55957,36406,0,0,0
57711,55929,36373,0,0,0
57689,55911,36343,0,0,0
57675,55901,36319,0,0,0
57663,55889,36299,0,0,0
57646,55868,36276,0,0,0
57624,55843,36245,0,0,0
57602,55816,36205,0,0,0
57578,55788,36163,0,0,0
57556,55758,36127,0,0,0
57539,55732,36096,0,0,0
57522,55713,36066,0,0,0
57500,55694,36033,0,0,0
57475,55673,35999,0,0,0
57453,55653,35965,0,0,0
57433,55638,35931,0,0,0
57417,55625,35896,0,0,0
57407,55611,35862,0,0,0
57400,55596,35833,0,0,0
57390,55581,35806,0,0,0
57374,55566,35777,0,0,0
57355,55552,35746,0,0,0
57333,55537,35712,0,0,0
57309,55520,35681,0,0,0
57282,55498,35650,0,0,0
57255,55475,35614,0,0,0
57229,55454,35569,0,0,0
57206,55434,35520,0,0,0
57189,55420,35478,0,0,0
57174,55409,35445,0,0,0
57157,55394,35411,0,0,0
57136,55375,35371,0,0,0
57109,55353,35329,0,0,0
57076,55326,35286,0,0,0
57041,55299,35241,0,0,0
57014,55276,35196,0,0,0
56994,55256,35154,0,0,0
56976,55233,35112,0,0,0
56956,55207,35074,0,0,0
56933,55182,35039,0,0,0
56904,55154,35004,0,0,0
56868,55121,34965,0,0,0
56834,55088,34925,0,0,0
56805,55060,34888,0,0,0
56779,55033,34853,0,0,0
56753,55008,34813,0,0,0
56724,54985,34769,0,0,0
56695,54960,34722,0,0,0
56666,54932,34673,0,0,0
56635,54905,34625,0,0,0
56599,54878,34577,0,0,0
56563,54852,34527,0,0,0
56533,54831,34480,0,0,0
56512,54815,34439,0,0,0
56498,54800,34402,0,0,0
56485,54783,34368,0,0,0
56473,54767,34336,0,0,0
56459,54755,34303,0,0,0
56439,54744,34263,0,0,0
56417,54730,34218,0,0,0
56392,54710,34172,0,0,0
56363,54687,34125,0,0,0
56330,54665,34077,0,0,0
56297,54642,34031,0,0,0
56269,54614,33986,0,0,0
56246,54586,33944,0,0,0
56227,54564,33905,0,0,0
56210,54543,33867,0,0,0
56190,54518,33830,0,0,0
56160,54490,33792,0,0,0
56127,54462,33755,0,0,0
56098,54435,33720,0,0,0
56076,54409,33687,0,0,0
56058,54383,33658,0,0,0
56043,54362,33633,0,0,0
56027,54345,33608,0,0,0
56006,54328,33579,0,0,0
55977,54304,33545,0,0,0
55943,54278,33508,0,0,0
55909,54251,33471,0,0,0
55875,54221,33425,0,0,0
55837,54189,33369,0,0,0
55795,54157,33308,0,0,0
55752,54124,33244,0,0,0
55711,54086,33184,0,0,0
55672,54046,33133,0,0,0
55638,54011,33089,0,0,0
55610,53983,33052,0,0,0
55595,53966,33028,0,0,0
55593,53960,33024,0,0,0
55603,53967,33040,0,0,0
55623,53986,33075,0,0,0
55654,54014,33129,0,0,0
55696,54055,33204,0,0,0
55756,54113,33302,0,0,0
55836,54187,33420,0,0,0
55930,54273,33557,0,0,0
56040,54370,33717,0,0,0
56159,54473,33893,0,0,0
56277,54578,34079,0,0,0
56394,54682,34273,0,0,0
56513,54789,34475,0,0,0
56639,54899,34682,0,0,0
56771,55009,34890,0,0,0
56899,55119,35093,0,0,0
57017,55226,35287,0,0,0
57128,55328,35472,0,0,0
57235,55421,35645,0,0,0
57331,55502,35800,0,0,0
57411,55572,35938,0,0,0
57481,55634,36061,0,0,0
57543,55691,36170,0,0,0
57593,55742,36266,0,0,0
57632,55787,36351,0,0,0
57664,55824,36426,0,0,0
57693,55854,36487,0,0,0
57718,55877,36536,0,0,0
57740,55899,36582,0,0,0
57759,55920,36625,0,0,0
57777,55941,36666,0,0,0
57796,55965,36706,0,0,0
57817,55993,36754,0,0,0
57837,56023,36805,0,0,0
57856,56054,36855,0,0,0
57881,56088,36909,0,0,0
57916,56123,36967,0,0,0
57959,56159,37031,0,0,0
58004,56200,37096,0,0,0
58049,56244,37165,0,0,0
58092,56289,37241,0,0,0
58136,56334,37326,0,0,0
58181,56383,37418,0,0,0
58227,56433,37508,0,0,0
58272,56479,37595,0,0,0
58313,56517,37682,0,0,0
58352,56552,37769,0,0,0
58391,56591,37855,0,0,0
58433,56631,37939,0,0,0
58471,56666,38019,0,0,0
58502,56699,38089,0,0,0
58532,56730,38149,0,0,0
58561,56758,38206,0,0,0
58586,56780,38256,0,0,0
58606,56797,38292,0,0,0
58620,56808,38315,0,0,0
58629,56810,38323,0,0,0
58634,56804,38318,0,0,0
58635,56794,38304,0,0,0
58631,56785,38286,0,0,0
58618,56774,38263,0,0,0
58600,56762,38238,0,0,0
58583,56752,38215,0,0,0
58568,56743,38197,0,0,0
58554,56736,38187,0,0,0
58535,56728,38177,0,0,0
58515,56720,38165,0,0,0
58497,56710,38152,0,0,0
58476,56699,38140,0,0,0
58455,56688,38127,0,0,0
58441,56683,38119,0,0,0
58436,56686,38117,0,0,0
58437,56696,38119,0,0,0
58448,56710,38124,0,0,0
58464,56722,38134,0,0,0
58474,56729,38143,0,0,0
58471,56728,38144,0,0,0
58460,56721,38136,0,0,0
58445,56709,38124,0,0,0
58428,56694,38113,0,0,0
58414,56680,38107,0,0,0
58401,56672,38101,0,0,0
58391,56667,38091,0,0,0
58382,56656,38077,0,0,0
58370,56640,38057,0,0,0
58358,56626,38037,0,0,0
58352,56619,38019,0,0,0
58349,56615,38003,0,0,0
58343,56609,37985,0,0,0
58327,56599,37961,0,0,0
58303,56589,37929,0,0,0
58279,56579,37896,0,0,0
58254,56564,37866,0,0,0
58228,56546,37837,0,0,0
58205,56527,37810,0,0,0
58189,56511,37784,0,0,0
58174,56493,37756,0,0,0
58152,56470,37717,0,0,0
58127,56447,37674,0,0,0
58109,56429,37634,0,0,0
58093,56413,37602,0,0,0
58071,56396,37570,0,0,0
58046,56379,37532,0,0,0
58022,56356,37491,0,0,0
57997,56326,37450,0,0,0
57973,56298,37413,0,0,0
57950,56278,37379,0,0,0
57931,56259,37345,0,0,0
57919,56239,37310,0,0,0
57906,56219,37271,0,0,0
57884,56197,37229,0,0,0
57859,56174,37185,0,0,0
57837,56153,37143,0,0,0
57816,56133,37107,0,0,0
57795,56113,37070,0,0,0
57770,56092,37027,0,0,0
57741,56069,36984,0,0,0
57710,56043,36944,0,0,0
57679,56017,36906,0,0,0
57647,55993,36866,0,0,0
57617,55969,36821,0,0,0
57592,55945,36775,0,0,0
57566,55920,36730,0,0,0
57537,55893,36683,0,0,0
57510,55865,36634,0,0,0
57488,55840,36587,0,0,0
57469,55819,36546,0,0,0
57446,55802,36507,0,0,0
57417,55784,36469,0,0,0
57386,55762,36437,0,0,0
57356,55739,36409,0,0,0
57330,55717,36381,0,0,0
57305,55696,36351,0,0,0
57284,55678,36319,0,0,0
57266,55662,36283,0,0,0
57248,55642,36242,0,0,0
57228,55615,36196,0,0,0
57204,55586,36143,0,0,0
57178,55557,36087,0,0,0
57155,55530,36034,0,0,0
57134,55504,35987,0,0,0
57108,55475,35942,0,0,0
57080,55447,35895,0,0,0
57050,55423,35845,0,0,0
57017,55398,35794,0,0,0
56982,55369,35745,0,0,0
56947,55337,35699,0,0,0
56910,55307,35651,0,0,0
56872,55277,35599,0,0,0
56835,55242,35548,0,0,0
56802,55207,35501,0,0,0
56776,55177,35454,0,0,0
56748,55150,35404,0,0,0
56716,55123,35352,0,0,0
56691,55098,35301,0,0,0
56677,55080,35255,0,0,0
56663,55062,35210,0,0,0
56641,55042,35161,0,0,0
56614,55020,35112,0,0,0
56587,54997,35066,0,0,0
56556,54970,35021,0,0,0
56522,54940,34977,0,0,0
56486,54911,34932,0,0,0
56453,54885,34885,0,0,0
56419,54861,34837,0,0,0
56384,54840,34788,0,0,0
56347,54818,34739,0,0,0
56310,54791,34688,0,0,0
56276,54763,34639,0,0,0
56246,54739,34593,0,0,0
56218,54714,34548,0,0,0
56189,54690,34502,0,0,0
56161,54668,34456,0,0,0
56137,54649,34411,0,0,0
56114,54630,34368,0,0,0
56092,54611,34325,0,0,0
56075,54590,34284,0,0,0
56061,54568,34247,0,0,0
56043,54545,34209,0,0,0
56017,54519,34160,0,0,0
55986,54490,34104,0,0,0
55957,54459,34048,0,0,0
55931,54430,33994,0,0,0
55905,54400,33945,0,0,0
55873,54369,33898,0,0,0
55834,54337,33851,0,0,0
55793,54304,33809,0,0,0
55750,54270,33768,0,0,0
55704,54236,33727,0,0,0
55658,54202,33686,0,0,0
55613,54171,33645,0,0,0
55575,54142,33605,0,0,0
55544,54119,33564,0,0,0
55516,54095,33518,0,0,0
55490,54069,33470,0,0,0
55463,54041,33426,0,0,0
55435,54016,33387,0,0,0
55411,53994,33349,0,0,0
55393,53975,33308,0,0,0
55374,53954,33264,0,0,0
55350,53929,33222,0,0,0
55325,53901,33179,0,0,0
55298,53875,33130,0,0,0
55269,53844,33076,0,0,0
55237,53806,33018,0,0,0
55205,53769,32955,0,0,0
55169,53733,32890,0,0,0
55129,53698,32828,0,0,0
55090,53663,32769,0,0,0
55053,53628,32710,0,0,0
55020,53596,32650,0,0,0
54996,53576,32596,0,0,0
54979,53564,32554,0,0,0
54962,53557,32519,0,0,0
54949,53552,32486,0,0,0
54936,53542,32452,0,0,0
54919,53525,32414,0,0,0
54901,53505,32372,0,0,0
54881,53485,32329,0,0,0
54855,53462,32285,0,0,0
54824,53434,32237,0,0,0
54792,53403,32183,0,0,0
54760,53372,32125,0,0,0
54728,53342,32071,0,0,0
54694,53313,32022,0,0,0
54657,53285,31973,0,0,0
54621,53258,31925,0,0,0
54587,53232,31878,0,0,0
54560,53207,31835,0,0,0
54538,53187,31797,0,0,0
54524,53174,31770,0,0,0
54520,53172,31759,0,0,0
54525,53180,31761,0,0,0
54544,53199,31786,0,0,0
54582,53234,31840,0,0,0
54635,53284,31921,0,0,0
54702,53348,32025,0,0,0
54782,53422,32147,0,0,0
54874,53503,32285,0,0,0
54973,53586,32437,0,0,0
55077,53672,32599,0,0,0
55189,53767,32778,0,0,0
55309,53871,32971,0,0,0
55428,53980,33172,0,0,0
55543,54088,33378,0,0,0
55656,54192,33587,0,0,0
55768,54294,33796,0,0,0
55875,54389,33999,0,0,0
55976,54479,34188,0,0,0
56068,54564,34362,0,0,0
56150,54643,34519,0,0,0
56225,54715,34656,0,0,0
56296,54786,34775,0,0,0
56360,54853,34874,0,0,0
56415,54911,34953,0,0,0
56459,54958,35018,0,0,0
56494,54999,35075,0,0,0
56526,55040,35126,0,0,0
56558,55076,35176,0,0,0
56592,55104,35227,0,0,0
56624,55124,35273,0,0,0
56654,55141,35309,0,0,0
56679,55156,35342,0,0,0
56699,55171,35379,0,0,0
56717,55188,35416,0,0,0
56738,55205,35453,0,0,0
56764,55228,35498,0,0,0
56793,55259,35551,0,0,0
56825,55289,35609,0,0,0
56859,55318,35674,0,0,0
56892,55346,35741,0,0,0
56924,55374,35810,0,0,0
56963,55407,35884,0,0,0
57007,55448,35966,0,0,0
57056,55495,36056,0,0,0
57110,55545,36150,0,0,0
57162,55590,36242,0,0,0
57209,55634,36331,0,0,0
57257,55683,36424,0,0,0
57305,55734,36518,0,0,0
57349,55782,36609,0,0,0
57387,55829,36694,0,0,0
57421,55872,36772,0,0,0
57452,55914,36844,0,0,0
57477,55949,36909,0,0,0
57497,55978,36962,0,0,0
57523,56003,37008,0,0,0
57554,56026,37052,0,0,0
57579,56046,37089,0,0,0
57593,56061,37116,0,0,0
57597,56069,37129,0,0,0
57597,56072,37134,0,0,0
57595,56068,37135,0,0,0
57592,56059,37130,0,0,0
57584,56051,37117,0,0,0
57571,56039,37097,0,0,0
57554,56020,37073,0,0,0
57538,56004,37050,0,0,0
57523,55994,37028,0,0,0
57505,55985,37004,0,0,0
57487,55976,36983,0,0,0
57473,55973,36964,0,0,0
57463,55976,36947,0,0,0
57456,55977,36934,0,0,0
57453,55973,36925,0,0,0
57456,55973,36921,0,0,0
57466,55977,36922,0,0,0
57482,55981,36928,0,0,0
57500,55983,36937,0,0,0
57518,55986,36949,0,0,0
57529,55990,36959,0,0,0
57530,55988,36961,0,0,0
57527,55979,36956,0,0,0
57524,55973,36951,0,0,0
57522,55970,36948,0,0,0
57515,55966,36946,0,0,0
57501,55961,36939,0,0,0
57487,55957,36927,0,0,0
57475,55956,36913,0,0,0
57462,55955,36898,0,0,0
57448,55954,36880,0,0,0
57436,55948,36858,0,0,0
57421,55936,36832,0,0,0
57403,55922,36804,0,0,0
57387,55912,36776,0,0,0
57378,55907,36752,0,0,0
57369,55900,36732,0,0,0
57356,55889,36710,0,0,0
57337,55876,36684,0,0,0
57318,55860,36654,0,0,0
57306,55841,36620,0,0,0
57296,55824,36589,0,0,0
57285,55815,36563,0,0,0
57273,55809,36539,0,0,0
57257,55793,36514,0,0,0
57235,55767,36486,0,0,0
57208,55740,36457,0,0,0
57187,55716,36427,0,0,0
57171,55693,36393,0,0,0
57154,55674,36355,0,0,0
57129,55657,36308,0,0,0
57099,55638,36255,0,0,0
57071,55616,36203,0,0,0
57043,55592,36159,0,0,0
57019,55571,36121,0,0,0
56999,55553,36084,0,0,0
56981,55532,36046,0,0,0
56963,55511,36009,0,0,0
56943,55493,35979,0,0,0
56924,55477,35953,0,0,0
56905,55457,35924,0,0,0
56883,55437,35892,0,0,0
56861,55425,35860,0,0,0
56842,55417,35830,0,0,0
56829,55410,35800,0,0,0
56816,55398,35767,0,0,0
56804,55384,35729,0,0,0
56796,55369,35693,0,0,0
56787,55352,35659,0,0,0
56780,55335,35626,0,0,0
56771,55322,35595,0,0,0
56755,55303,35558,0,0,0
56738,55278,35515,0,0,0
56721,55256,35473,0,0,0
56703,55242,35435,0,0,0
56681,55228,35395,0,0,0
56659,55209,35351,0,0,0
56637,55188,35308,0,0,0
56615,55168,35271,0,0,0
56589,55148,35237,0,0,0
56561,55125,35206,0,0,0
56534,55107,35180,0,0,0
56506,55094,35151,0,0,0
56477,55076,35113,0,0,0
56452,55050,35069,0,0,0
56434,55024,35024,0,0,0
56420,55000,34979,0,0,0
56405,54976,34937,0,0,0
56384,54949,34897,0,0,0
56358,54922,34856,0,0,0
56331,54899,34816,0,0,0
56299,54878,34771,0,0,0
56258,54854,34719,0,0,0
56212,54826,34662,0,0,0
56166,54792,34606,0,0,0
56123,54755,34552,0,0,0
56080,54717,34496,0,0,0
56040,54680,34437,0,0,0
56004,54644,34379,0,0,0
55970,54604,34324,0,0,0
55937,54567,34269,0,0,0
55905,54537,34221,0,0,0
55875,54515,34177,0,0,0
55853,54496,34136,0,0,0
55835,54475,34092,0,0,0
55815,54453,34046,0,0,0
55793,54431,34000,0,0,0
55770,54409,33958,0,0,0
55747,54387,33921,0,0,0
55730,54366,33885,0,0,0
55716,54347,33847,0,0,0
55704,54333,33810,0,0,0
55692,54323,33779,0,0,0
55678,54313,33751,0,0,0
55659,54300,33719,0,0,0
55641,54283,33685,0,0,0
55622,54265,33653,0,0,0
55600,54245,33618,0,0,0
55575,54225,33577,0,0,0
55550,54206,33534,0,0,0
55523,54188,33491,0,0,0
55498,54170,33450,0,0,0
55476,54152,33409,0,0,0
55456,54133,33372,0,0,0
55432,54111,33336,0,0,0
55406,54088,33299,0,0,0
55383,54063,33260,0,0,0
55362,54036,33219,0,0,0
55335,54004,33178,0,0,0
55306,53972,33135,0,0,0
55280,53943,33092,0,0,0
55258,53922,33048,0,0,0
55236,53905,33008,0,0,0
55213,53888,32973,0,0,0
55190,53871,32939,0,0,0
55164,53852,32901,0,0,0
55135,53830,32860,0,0,0
55109,53807,32817,0,0,0
55084,53784,32775,0,0,0
55054,53758,32734,0,0,0
55022,53731,32690,0,0,0
54995,53706,32646,0,0,0
54968,53680,32599,0,0,0
54942,53650,32552,0,0,0
54917,53619,32504,0,0,0
54888,53583,32451,0,0,0
54854,53545,32393,0,0,0
54816,53512,32337,0,0,0
54775,53480,32284,0,0,0
54738,53450,32233,0,0,0
54708,53427,32183,0,0,0
54682,53411,32139,0,0,0
54657,53396,32099,0,0,0
54634,53381,32060,0,0,0
54613,53363,32017,0,0,0
54590,53341,31970,0,0,0
54568,53319,31920,0,0,0
54546,53297,31868,0,0,0
54525,53277,31818,0,0,0
54508,53259,31775,0,0,0
54495,53245,31735,0,0,0
54484,53231,31696,0,0,0
54471,53218,31659,0,0,0
54453,53201,31625,0,0,0
54427,53179,31591,0,0,0
54395,53151,31552,0,0,0
54362,53124,31510,0,0,0
54332,53100,31469,0,0,0
54303,53075,31425,0,0,0
54270,53045,31377,0,0,0
54235,53014,31323,0,0,0
54200,52983,31266,0,0,0
54170,52953,31211,0,0,0
54146,52930,31167,0,0,0
54127,52917,31138,0,0,0
54116,52916,31132,0,0,0
54114,52925,31149,0,0,0
54125,52945,31183,0,0,0
54150,52972,31233,0,0,0
54191,53008,31299,0,0,0
54246,53054,31378,0,0,0
54316,53108,31470,0,0,0
54403,53175,31584,0,0,0
54506,53259,31725,0,0,0
54617,53353,31885,0,0,0
54734,53453,32061,0,0,0
54849,53555,32245,0,0,0
54957,53656,32432,0,0,0
55061,53753,32615,0,0,0
55164,53849,32792,0,0,0
55266,53944,32963,0,0,0
55369,54035,33132,0,0,0
55466,54116,33294,0,0,0
55557,54192,33445,0,0,0
55645,54264,33588,0,0,0
55725,54331,33722,0,0,0
55792,54389,33840,0,0,0
55849,54439,33940,0,0,0
55900,54483,34028,0,0,0
55941,54521,34106,0,0,0
55971,54551,34172,0,0,0
55995,54576,34230,0,0,0
56016,54595,34280,0,0,0
56031,54610,34318,0,0,0
56046,54624,34340,0,0,0
56065,54637,34356,0,0,0
56086,54650,34371,0,0,0
56108,54666,34390,0,0,0
56129,54685,34415,0,0,0
56149,54707,34445,0,0,0
56169,54729,34479,0,0,0
56194,54750,34520,0,0,0
56227,54775,34567,0,0,0
56262,54802,34618,0,0,0
56292,54828,34668,0,0,0
56320,54855,34719,0,0,0
56349,54889,34776,0,0,0
56385,54924,34840,0,0,0
56428,54959,34914,0,0,0
56472,54993,34995,0,0,0
56514,55032,35078,0,0,0
56561,55080,35163,0,0,0
56611,55133,35248,0,0,0
56659,55183,35327,0,0,0
56701,55229,35405,0,0,0
56742,55272,35481,0,0,0
56782,55314,35551,0,0,0
56818,55356,35613,0,0,0
56847,55392,35665,0,0,0
56873,55422,35705,0,0,0
56903,55449,35741,0,0,0
56933,55467,35772,0,0,0
56956,55476,35795,0,0,0
56971,55479,35812,0,0,0
56980,55484,35823,0,0,0
56980,55490,35826,0,0,0
56971,55490,35821,0,0,0
56958,55485,35811,0,0,0
56944,55479,35802,0,0,0
56928,55472,35794,0,0,0
56916,55468,35784,0,0,0
56909,55463,35776,0,0,0
56907,55453,35771,0,0,0
56903,55442,35766,0,0,0
56893,55430,35754,0,0,0
56879,55419,35734,0,0,0
56869,55409,35712,0,0,0
56868,55402,35695,0,0,0
56873,55397,35685,0,0,0
56877,55397,35682,0,0,0
56881,55403,35686,0,0,0
56883,55409,35693,0,0,0
56883,55410,35696,0,0,0
56883,55407,35695,0,0,0
56885,55403,35694,0,0,0
56886,55401,35696,0,0,0
56886,55399,35699,0,0,0
56889,55399,35703,0,0,0
56891,55400,35709,0,0,0
56889,55397,35708,0,0,0
56880,55391,35697,0,0,0
56868,55386,35680,0,0,0
56858,55382,35664,0,0,0
56848,55375,35645,0,0,0
56840,55367,35629,0,0,0
56835,55365,35625,0,0,0
56832,55373,35627,0,0,0
56829,55384,35629,0,0,0
56826,55393,35626,0,0,0
56826,55401,35620,0,0,0
56832,55406,35616,0,0,0
56839,55408,35607,0,0,0
56840,55404,35591,0,0,0
56836,55395,35573,0,0,0
56824,55382,35554,0,0,0
56804,55367,35530,0,0,0
56777,55348,35498,0,0,0
56751,55330,35461,0,0,0
56729,55315,35422,0,0,0
56707,55299,35382,0,0,0
56687,55283,35343,0,0,0
56674,55266,35306,0,0,0
56665,55246,35271,0,0,0
56653,55222,35239,0,0,0
56638,55197,35209,0,0,0
56618,55175,35180,0,0,0
56592,55154,35146,0,0,0
56562,55134,35107,0,0,0
56538,55121,35068,0,0,0
56517,55110,35034,0,0,0
56497,55098,35005,0,0,0
56482,55082,34980,0,0,0
56465,55061,34957,0,0,0
56448,55038,34933,0,0,0
56431,55019,34912,0,0,0
56412,55003,34893,0,0,0
56393,54988,34869,0,0,0
56377,54977,34840,0,0,0
56362,54968,34811,0,0,0
56346,54960,34780,0,0,0
56335,54952,34752,0,0,0
56330,54943,34727,0,0,0
56325,54931,34699,0,0,0
56319,54916,34671,0,0,0
56314,54900,34644,0,0,0
56307,54880,34614,0,0,0
56293,54856,34580,0,0,0
56271,54833,34542,0,0,0
56246,54812,34501,0,0,0
56223,54793,34466,0,0,0
56201,54774,34434,0,0,0
56178,54756,34401,0,0,0
56155,54736,34368,0,0,0
56132,54713,34334,0,0,0
56109,54690,34302,0,0,0
56086,54667,34271,0,0,0
56062,54645,34237,0,0,0
56036,54624,34201,0,0,0
56008,54606,34162,0,0,0
55978,54588,34121,0,0,0
55950,54570,34081,0,0,0
55927,54551,34045,0,0,0
55907,54532,34013,0,0,0
55884,54506,33980,0,0,0
55856,54475,33942,0,0,0
55828,54443,33899,0,0,0
55802,54417,33855,0,0,0
55784,54398,33819,0,0,0
55769,54383,33787,0,0,0
55753,54366,33749,0,0,0
55737,54347,33706,0,0,0
55719,54326,33666,0,0,0
55699,54306,33626,0,0,0
55676,54284,33581,0,0,0
55649,54261,33533,0,0,0
55622,54241,33490,0,0,0
55597,54225,33450,0,0,0
55570,54207,33408,0,0,0
55537,54180,33363,0,0,0
55504,54150,33320,0,0,0
55476,54123,33283,0,0,0
55451,54099,33248,0,0,0
55428,54076,33215,0,0,0
55408,54056,33187,0,0,0
55391,54039,33162,0,0,0
55374,54025,33138,0,0,0
55356,54011,33111,0,0,0
55333,53993,33082,0,0,0
55307,53969,33047,0,0,0
55279,53944,33007,0,0,0
55247,53922,32963,0,0,0
55213,53898,32919,0,0,0
55178,53868,32871,0,0,0
55146,53836,32819,0,0,0
55120,53809,32770,0,0,0
55096,53790,32728,0,0,0
55071,53776,32690,0,0,0
55045,53765,32655,0,0,0
55020,53752,32618,0,0,0
54997,53738,32582,0,0,0
54974,53721,32547,0,0,0
54953,53701,32510,0,0,0
54935,53677,32469,0,0,0
54915,53650,32426,0,0,0
54893,53624,32383,0,0,0
54872,53597,32343,0,0,0
54848,53569,32303,0,0,0
54823,53542,32262,0,0,0
54796,53515,32218,0,0,0
54770,53489,32173,0,0,0
54749,53465,32131,0,0,0
54732,53442,32088,0,0,0
54717,53417,32042,0,0,0
54701,53393,31998,0,0,0
54679,53373,31957,0,0,0
54660,53356,31917,0,0,0
54639,53336,31878,0,0,0
54611,53311,31840,0,0,0
54580,53284,31804,0,0,0
54548,53255,31770,0,0,0
54519,53227,31735,0,0,0
54497,53207,31706,0,0,0
54483,53196,31692,0,0,0
54479,53196,31696,0,0,0
54489,53209,31719,0,0,0
54515,53238,31763,0,0,0
54557,53282,31829,0,0,0
54614,53339,31918,0,0,0
54686,53410,32027,0,0,0
54773,53495,32156,0,0,0
54869,53591,32301,0,0,0
54971,53688,32457,0,0,0
55077,53784,32618,0,0,0
55184,53880,32787,0,0,0
55288,53973,32963,0,0,0
55387,54062,33138,0,0,0
55484,54149,33308,0,0,0
55580,54234,33476,0,0,0
55671,54313,33640,0,0,0
55755,54386,33797,0,0,0
55836,54452,33942,0,0,0
55913,54513,34075,0,0,0
55983,54569,34197,0,0,0
56041,54616,34300,0,0,0
56089,54658,34382,0,0,0
56134,54698,34447,0,0,0
56179,54734,34500,0,0,0
56219,54761,34541,0,0,0
56251,54781,34573,0,0,0
56276,54800,34604,0,0,0
56294,54821,34637,0,0,0
56307,54843,34670,0,0,0
56320,54866,34700,0,0,0
56336,54893,34731,0,0,0
56358,54922,34770,0,0,0
56385,54948,34813,0,0,0
56415,54970,34861,0,0,0
56448,54995,34912,0,0,0
56482,55024,34966,0,0,0
56518,55057,35025,0,0,0
56553,55095,35087,0,0,0
56585,55134,35148,0,0,0
56616,55171,35210,0,0,0
56649,55207,35277,0,0,0
56684,55239,35346,0,0,0
56717,55264,35418,0,0,0
56746,55286,35495,0,0,0
56773,55306,35573,0,0,0
56801,55330,35647,0,0,0
56833,55359,35717,0,0,0
56867,55394,35786,0,0,0
56904,55434,35851,0,0,0
56942,55476,35911,0,0,0
56978,55516,35965,0,0,0
57009,55548,36014,0,0,0
57033,55570,36053,0,0,0
57053,55581,36081,0,0,0
57067,55584,36107,0,0,0
57076,55582,36133,0,0,0
57076,55578,36151,0,0,0
57071,55569,36155,0,0,0
57063,55556,36150,0,0,0
57056,55545,36140,0,0,0
57047,55535,36128,0,0,0
57032,55530,36113,0,0,0
57021,55534,36099,0,0,0
57017,55541,36085,0,0,0
57016,55548,36071,0,0,0
57018,55556,36060,0,0,0
57022,55564,36053,0,0,0
57023,55570,36049,0,0,0
57020,55574,36047,0,0,0
57016,55579,36045,0,0,0
57016,55585,36042,0,0,0
57022,55591,36042,0,0,0
57031,55597,36044,0,0,0
57041,55596,36043,0,0,0
57045,55588,36038,0,0,0
57043,55575,36030,0,0,0
57037,55563,36019,0,0,0
57026,55554,36009,0,0,0
57013,55552,36003,0,0,0
57001,55554,35999,0,0,0
56989,55556,35989,0,0,0
56977,55556,35974,0,0,0
56967,55551,35958,0,0,0
56957,55541,35941,0,0,0
56949,55530,35928,0,0,0
56946,55522,35919,0,0,0
56945,55518,35913,0,0,0
56947,55519,35905,0,0,0
56950,55522,35895,0,0,0
56950,55520,35880,0,0,0
56947,55512,35857,0,0,0
56938,55496,35829,0,0,0
56926,55475,35803,0,0,0
56912,55454,35781,0,0,0
56896,55434,35759,0,0,0
56878,55418,35732,0,0,0
56855,55407,35700,0,0,0
56831,55397,35669,0,0,0
56808,55385,35640,0,0,0
56785,55367,35611,0,0,0
56765,55347,35584,0,0,0
56748,55328,35563,0,0,0
56729,55308,35542,0,0,0
56704,55285,35516,0,0,0
56676,55265,35487,0,0,0
56649,55248,35456,0,0,0
56622,55230,35422,0,0,0
56594,55210,35380,0,0,0
56564,55187,35334,0,0,0
56534,55163,35287,0,0,0
56512,55138,35240,0,0,0
56500,55113,35192,0,0,0
56490,55087,35146,0,0,0
56478,55061,35105,0,0,0
56464,55037,35068,0,0,0
56442,55014,35035,0,0,0
56414,54996,35003,0,0,0
56390,54983,34972,0,0,0
56375,54969,34944,0,0,0
56362,54955,34919,0,0,0
56350,54942,34895,0,0,0
56337,54929,34871,0,0,0
56322,54915,34843,0,0,0
56302,54901,34809,0,0,0
56278,54888,34777,0,0,0
56251,54874,34746,0,0,0
56219,54853,34712,0,0,0
56190,54829,34674,0,0,0
56172,54808,34637,0,0,0
56159,54787,34602,0,0,0
56140,54762,34566,0,0,0
56120,54738,34525,0,0,0
56100,54717,34479,0,0,0
56081,54697,34433,0,0,0
56065,54675,34395,0,0,0
56052,54653,34362,0,0,0
56040,54634,34331,0,0,0
56018,54618,34296,0,0,0
55987,54602,34258,0,0,0
55955,54584,34218,0,0,0
55928,54563,34175,0,0,0
55908,54540,34135,0,0,0
55888,54517,34099,0,0,0
55862,54490,34062,0,0,0
55829,54461,34021,0,0,0
55800,54432,33982,0,0,0
55772,54405,33946,0,0,0
55743,54382,33913,0,0,0
55719,54365,33883,0,0,0
55699,54350,33851,0,0,0
55675,54330,33816,0,0,0
55647,54309,33784,0,0,0
55617,54286,33753,0,0,0
55585,54257,33715,0,0,0
55550,54225,33668,0,0,0
55515,54196,33618,0,0,0
55480,54173,33571,0,0,0
55445,54152,33529,0,0,0
55416,54132,33490,0,0,0
55394,54114,33451,0,0,0
55376,54095,33407,0,0,0
55359,54074,33360,0,0,0
55343,54053,33311,0,0,0
55324,54033,33263,0,0,0
55304,54015,33220,0,0,0
55285,53997,33180,0,0,0
55263,53976,33142,0,0,0
55239,53955,33109,0,0,0
55216,53933,33077,0,0,0
55192,53910,33043,0,0,0
55166,53884,33005,0,0,0
55139,53857,32963,0,0,0
55112,53827,32923,0,0,0
55089,53799,32885,0,0,0
55068,53777,32846,0,0,0
55048,53761,32807,0,0,0
55030,53747,32772,0,0,0
55016,53736,32743,0,0,0
55005,53728,32716,0,0,0
54994,53720,32687,0,0,0
54983,53710,32656,0,0,0
54970,53697,32623,0,0,0
54955,53680,32587,0,0,0
54935,53660,32548,0,0,0
54913,53639,32506,0,0,0
54891,53617,32463,0,0,0
54870,53596,32422,0,0,0
54846,53572,32381,0,0,0
54820,53542,32336,0,0,0
54791,53509,32283,0,0,0
54760,53478,32225,0,0,0
54731,53450,32166,0,0,0
54707,53425,32108,0,0,0
54685,53404,32061,0,0,0
54663,53389,32026,0,0,0
54638,53378,31995,0,0,0
54613,53364,31964,0,0,0
54584,53346,31931,0,0,0
54552,53323,31897,0,0,0
54520,53301,31861,0,0,0
54490,53276,31817,0,0,0
54458,53249,31767,0,0,0
54425,53223,31717,0,0,0
54395,53198,31669,0,0,0
54368,53172,31621,0,0,0
54341,53145,31572,0,0,0
54314,53118,31526,0,0,0
54292,53093,31483,0,0,0
54276,53071,31444,0,0,0
54263,53052,31406,0,0,0
54250,53037,31370,0,0,0
54236,53028,31334,0,0,0
54223,53024,31298,0,0,0
54213,53020,31262,0,0,0
54203,53014,31228,0,0,0
54189,53003,31196,0,0,0
54168,52986,31163,0,0,0
54142,52964,31129,0,0,0
54118,52942,31100,0,0,0
54094,52918,31071,0,0,0
54068,52890,31034,0,0,0
54042,52865,30994,0,0,0
54019,52845,30956,0,0,0
53997,52824,30916,0,0,0
53972,52799,30869,0,0,0
53944,52769,30818,0,0,0
53917,52740,30771,0,0,0
53890,52717,30731,0,0,0
53862,52693,30693,0,0,0
53832,52669,30657,0,0,0
53803,52647,30624,0,0,0
53779,52629,30589,0,0,0
53757,52611,30552,0,0,0
53735,52592,30513,0,0,0
53713,52569,30472,0,0,0
53690,52543,30425,0,0,0
53663,52513,30375,0,0,0
53629,52485,30326,0,0,0
53592,52461,30282,0,0,0
53555,52441,30243,0,0,0
53525,52422,30207,0,0,0
53507,52407,30177,0,0,0
53500,52399,30158,0,0,0
53497,52396,30150,0,0,0
53501,52399,30159,0,0,0
53524,52416,30194,0,0,0
53569,52451,30254,0,0,0
53631,52502,30335,0,0,0
53704,52568,30438,0,0,0
53787,52645,30567,0,0,0
53876,52731,30718,0,0,0
53973,52824,30886,0,0,0
54077,52921,31066,0,0,0
54188,53021,31256,0,0,0
54304,53121,31450,0,0,0
54422,53223,31645,0,0,0
54539,53324,31837,0,0,0
54652,53420,32025,0,0,0
54760,53511,32204,0,0,0
54865,53598,32370,0,0,0
54961,53679,32524,0,0,0
55048,53753,32664,0,0,0
55123,53819,32789,0,0,0
55186,53873,32894,0,0,0
55236,53919,32983,0,0,0
55279,53961,33060,0,0,0
55314,53998,33127,0,0,0
55339,54026,33186,0,0,0
55357,54048,33237,0,0,0
55369,54065,33278,0,0,0
55381,54078,33312,0,0,0
55394,54089,33345,0,0,0
55409,54100,33378,0,0,0
55426,54113,33409,0,0,0
55443,54128,33437,0,0,0
55461,54144,33466,0,0,0
55482,54167,33502,0,0,0
55507,54194,33544,0,0,0
55531,54223,33588,0,0,0
55557,54254,33638,0,0,0
55585,54290,33701,0,0,0
55619,54325,33773,0,0,0
55661,54358,33844,0,0,0
55708,54392,33914,0,0,0
55758,54429,33988,0,0,0
55810,54467,34066,0,0,0
55861,54506,34149,0,0,0
55908,54544,34235,0,0,0
