green_channel,red_channel,ir_channel,Anomaly_ch0,Anomaly_ch1,Anomaly_ch2
60006,60902,29731,0,0,0
60453,61024,30360,0,0,0
60864,61137,30941,0,0,0
61239,61242,31473,0,0,0
61577,61337,31954,0,0,0
61878,61420,32382,0,0,0
62144,61493,32758,0,0,0
62378,61557,33085,0,0,0
62579,61612,33366,0,0,0
62748,61658,33603,0,0,0
62885,61697,33801,0,0,0
62994,61728,33959,0,0,0
63079,61752,34079,0,0,0
63140,61771,34165,0,0,0
63179,61783,34221,0,0,0
63202,61790,34251,0,0,0
63207,61792,34254,0,0,0
63192,61787,34228,0,0,0
63156,61775,34176,0,0,0
63105,61758,34105,0,0,0
63044,61737,34016,0,0,0
62977,61713,33912,0,0,0
62904,61688,33798,0,0,0
62825,61663,33677,0,0,0
62744,61637,33551,0,0,0
62661,61610,33422,0,0,0
62581,61585,33298,0,0,0
62506,61563,33182,0,0,0
62435,61540,33071,0,0,0
62365,61518,32961,0,0,0
62292,61497,32852,0,0,0
62218,61476,32748,0,0,0
62142,61456,32644,0,0,0
62066,61438,32538,0,0,0
61987,61422,32428,0,0,0
61906,61405,32316,0,0,0
61822,61386,32203,0,0,0
61737,61364,32090,0,0,0
61656,61341,31982,0,0,0
61585,61318,31884,0,0,0
61520,61296,31794,0,0,0
61461,61276,31712,0,0,0
61407,61258,31639,0,0,0
61360,61244,31577,0,0,0
61321,61235,31527,0,0,0
61294,61229,31489,0,0,0
61283,61225,31467,0,0,0
61285,61224,31462,0,0,0
61298,61229,31469,0,0,0
61319,61238,31486,0,0,0
61345,61249,31515,0,0,0
61378,61262,31556,0,0,0
61417,61278,31609,0,0,0
61459,61295,31668,0,0,0
61502,61309,31729,0,0,0
61544,61321,31791,0,0,0
61584,61332,31854,0,0,0
61622,61342,31913,0,0,0
61656,61353,31967,0,0,0
61688,61364,32012,0,0,0
61711,61374,32044,0,0,0
61722,61379,32063,0,0,0
61723,61382,32071,0,0,0
61719,61384,32072,0,0,0
61710,61383,32064,0,0,0
61695,61382,32044,0,0,0
61671,61377,32011,0,0,0
61636,61368,31968,0,0,0
61592,61356,31915,0,0,0
61540,61341,31846,0,0,0
61483,61324,31759,0,0,0
61415,61305,31659,0,0,0
61337,61282,31550,0,0,0
61253,61257,31435,0,0,0
61166,61230,31314,0,0,0
61072,61201,31184,0,0,0
60971,61170,31046,0,0,0
60868,61138,30902,0,0,0
60763,61110,30753,0,0,0
60657,61082,30599,0,0,0
60547,61053,30438,0,0,0
60438,61022,30276,0,0,0
60334,60993,30117,0,0,0
60233,60966,29962,0,0,0
60134,60937,29812,0,0,0
60037,60907,29666,0,0,0
59940,60876,29524,0,0,0
59846,60846,29386,0,0,0
59755,60818,29255,0,0,0
59667,60795,29133,0,0,0
59581,60775,29019,0,0,0
59499,60756,28910,0,0,0
59417,60738,28805,0,0,0
59335,60718,28700,0,0,0
59252,60699,28594,0,0,0
59171,60679,28485,0,0,0
59092,60661,28375,0,0,0
59013,60643,28267,0,0,0
58936,60625,28161,0,0,0
58859,60607,28054,0,0,0
58783,60589,27948,0,0,0
58706,60570,27841,0,0,0
58633,60553,27738,0,0,0
58564,60535,27639,0,0,0
58498,60518,27541,0,0,0
58434,60500,27444,0,0,0
58371,60481,27346,0,0,0
58307,60461,27251,0,0,0
58247,60440,27163,0,0,0
58194,60420,27083,0,0,0
58150,60404,27012,0,0,0
58114,60390,26949,0,0,0
58084,60378,26892,0,0,0
58057,60367,26839,0,0,0
58034,60357,26790,0,0,0
58012,60349,26744,0,0,0
57986,60343,26700,0,0,0
57953,60338,26655,0,0,0
57918,60332,26608,0,0,0
57881,60326,26558,0,0,0
57842,60319,26505,0,0,0
57797,60310,26449,0,0,0
57746,60299,26389,0,0,0
57692,60286,26325,0,0,0
57635,60273,26258,0,0,0
57577,60258,26191,0,0,0
57518,60245,26122,0,0,0
57456,60232,26047,0,0,0
57393,60217,25967,0,0,0
57327,60200,25882,0,0,0
57258,60181,25791,0,0,0
57185,60158,25694,0,0,0
57108,60137,25593,0,0,0
57028,60115,25490,0,0,0
56947,60094,25388,0,0,0
56864,60072,25284,0,0,0
56778,60050,25177,0,0,0
56690,60028,25068,0,0,0
56602,60009,24957,0,0,0
56516,59993,24844,0,0,0
56436,59976,24731,0,0,0
56362,59961,24623,0,0,0
56295,59945,24528,0,0,0
56241,59931,24457,0,0,0
56213,59923,24423,0,0,0
56224,59926,24442,0,0,0
56286,59943,24531,0,0,0
56411,59976,24711,0,0,0
56607,60028,24993,0,0,0
56876,60100,25379,0,0,0
57213,60190,25858,0,0,0
57607,60296,26413,0,0,0
58043,60414,27020,0,0,0
58501,60539,27657,0,0,0
58966,60667,28305,0,0,0
59423,60792,28945,0,0,0
59863,60914,29563,0,0,0
60281,61029,30148,0,0,0
60672,61134,30693,0,0,0
61029,61228,31196,0,0,0
61352,61310,31658,0,0,0
61641,61384,32074,0,0,0
61898,61450,32443,0,0,0
62123,61509,32767,0,0,0
62316,61561,33045,0,0,0
62478,61605,33278,0,0,0
62611,61643,33468,0,0,0
62720,61673,33615,0,0,0
62806,61693,33724,0,0,0
62867,61706,33797,0,0,0
62904,61713,33838,0,0,0
62920,61714,33850,0,0,0
62917,61710,33835,0,0,0
62896,61702,33795,0,0,0
62858,61691,33735,0,0,0
62804,61677,33656,0,0,0
62737,61656,33559,0,0,0
62661,61630,33445,0,0,0
62577,61599,33320,0,0,0
62486,61567,33186,0,0,0
62390,61534,33042,0,0,0
62294,61502,32894,0,0,0
62197,61470,32744,0,0,0
62096,61439,32593,0,0,0
61996,61410,32446,0,0,0
61898,61382,32301,0,0,0
61803,61354,32158,0,0,0
61712,61327,32019,0,0,0
61623,61300,31883,0,0,0
61527,61271,31743,0,0,0
61424,61240,31599,0,0,0
61318,61209,31452,0,0,0
61208,61178,31304,0,0,0
61097,61148,31158,0,0,0
60989,61121,31016,0,0,0
60886,61098,30884,0,0,0
60793,61079,30764,0,0,0
60712,61063,30657,0,0,0
60647,61050,30563,0,0,0
60597,61040,30486,0,0,0
60558,61032,30426,0,0,0
60527,61027,30386,0,0,0
60507,61023,30366,0,0,0
60502,61022,30368,0,0,0
60510,61024,30387,0,0,0
60532,61030,30420,0,0,0
60568,61040,30465,0,0,0
60613,61052,30523,0,0,0
60660,61066,30592,0,0,0
60710,61080,30666,0,0,0
60761,61096,30743,0,0,0
60815,61111,30820,0,0,0
60870,61126,30897,0,0,0
60922,61140,30970,0,0,0
60972,61153,31037,0,0,0
61017,61168,31099,0,0,0
61056,61182,31150,0,0,0
61087,61194,31188,0,0,0
61112,61204,31217,0,0,0
61127,61212,31234,0,0,0
61129,61214,31237,0,0,0
61119,61212,31227,0,0,0
61097,61206,31204,0,0,0
61061,61198,31167,0,0,0
61012,61186,31113,0,0,0
60950,61169,31041,0,0,0
60872,61147,30950,0,0,0
60786,61122,30845,0,0,0
60697,61096,30731,0,0,0
60604,61067,30613,0,0,0
60508,61037,30490,0,0,0
60408,61007,30361,0,0,0
60302,60975,30224,0,0,0
60192,60942,30078,0,0,0
60083,60909,29929,0,0,0
59977,60879,29780,0,0,0
59871,60851,29628,0,0,0
59764,60825,29473,0,0,0
59660,60800,29319,0,0,0
59558,60775,29165,0,0,0
59452,60748,29006,0,0,0
59343,60718,28847,0,0,0
59231,60687,28691,0,0,0
59119,60659,28535,0,0,0
59010,60633,28378,0,0,0
58904,60608,28225,0,0,0
58799,60581,28078,0,0,0
58695,60551,27937,0,0,0
58594,60522,27801,0,0,0
58499,60496,27670,0,0,0
58410,60473,27545,0,0,0
58328,60452,27429,0,0,0
58251,60435,27321,0,0,0
58181,60419,27220,0,0,0
58114,60403,27128,0,0,0
58052,60385,27042,0,0,0
57995,60366,26960,0,0,0
57944,60349,26884,0,0,0
57900,60334,26813,0,0,0
57860,60321,26747,0,0,0
57820,60307,26685,0,0,0
57781,60295,26626,0,0,0
57745,60286,26573,0,0,0
57709,60276,26522,0,0,0
57675,60266,26473,0,0,0
57644,60256,26427,0,0,0
57614,60247,26382,0,0,0
57583,60238,26338,0,0,0
57552,60230,26294,0,0,0
57518,60221,26251,0,0,0
57481,60212,26206,0,0,0
57445,60204,26159,0,0,0
57408,60196,26111,0,0,0
57369,60188,26059,0,0,0
57323,60178,26003,0,0,0
57273,60167,25941,0,0,0
57219,60155,25873,0,0,0
57162,60140,25802,0,0,0
57102,60126,25726,0,0,0
57039,60112,25645,0,0,0
56973,60096,25560,0,0,0
56904,60081,25473,0,0,0
56835,60067,25384,0,0,0
56761,60053,25293,0,0,0
56688,60039,25201,0,0,0
56622,60024,25116,0,0,0
56569,60011,25051,0,0,0
56535,60003,25020,0,0,0
56533,60003,25038,0,0,0
56577,60015,25119,0,0,0
56679,60043,25276,0,0,0
56849,60089,25521,0,0,0
57090,60152,25862,0,0,0
57396,60234,26295,0,0,0
57757,60330,26808,0,0,0
58160,60438,27381,0,0,0
58592,60555,27993,0,0,0
59040,60677,28626,0,0,0
59488,60800,29256,0,0,0
59925,60922,29867,0,0,0
60344,61038,30448,0,0,0
60737,61147,30995,0,0,0
61097,61248,31499,0,0,0
61424,61341,31956,0,0,0
61716,61425,32367,0,0,0
61973,61500,32735,0,0,0
62197,61565,33062,0,0,0
62392,61621,33347,0,0,0
62557,61668,33588,0,0,0
62693,61705,33786,0,0,0
62804,61735,33944,0,0,0
62889,61758,34064,0,0,0
62949,61771,34148,0,0,0
62983,61774,34198,0,0,0
62992,61770,34218,0,0,0
62983,61762,34210,0,0,0
62960,61752,34175,0,0,0
62923,61739,34114,0,0,0
62869,61723,34027,0,0,0
62800,61703,33918,0,0,0
62718,61680,33793,0,0,0
62627,61654,33659,0,0,0
62528,61626,33521,0,0,0
62427,61597,33376,0,0,0
62325,61568,33226,0,0,0
62219,61539,33073,0,0,0
62111,61509,32919,0,0,0
62002,61478,32767,0,0,0
61891,61446,32617,0,0,0
61779,61412,32465,0,0,0
61665,61378,32306,0,0,0
61548,61343,32137,0,0,0
61429,61307,31962,0,0,0
61305,61268,31784,0,0,0
61181,61230,31605,0,0,0
61060,61195,31429,0,0,0
60942,61163,31264,0,0,0
60827,61132,31110,0,0,0
60722,61103,30968,0,0,0
60632,61079,30843,0,0,0
60558,61060,30737,0,0,0
60498,61047,30653,0,0,0
60452,61037,30589,0,0,0
60422,61032,30546,0,0,0
60410,61032,30527,0,0,0
60414,61037,30534,0,0,0
60433,61046,30567,0,0,0
60465,61057,30618,0,0,0
60508,61071,30684,0,0,0
60561,61088,30761,0,0,0
60621,61106,30847,0,0,0
60688,61125,30942,0,0,0
60756,61146,31039,0,0,0
60820,61168,31133,0,0,0
60885,61188,31222,0,0,0
60951,61207,31305,0,0,0
61011,61224,31379,0,0,0
61059,61237,31440,0,0,0
61091,61247,31487,0,0,0
61115,61256,31524,0,0,0
61131,61262,31550,0,0,0
61137,61264,31562,0,0,0
61136,61263,31559,0,0,0
61125,61260,31541,0,0,0
61103,61253,31508,0,0,0
61072,61243,31462,0,0,0
61033,61231,31407,0,0,0
60986,61217,31341,0,0,0
60929,61202,31261,0,0,0
60860,61184,31163,0,0,0
60781,61161,31050,0,0,0
60697,61132,30927,0,0,0
60610,61103,30799,0,0,0
60519,61074,30661,0,0,0
60421,61046,30513,0,0,0
60315,61019,30357,0,0,0
60201,60991,30195,0,0,0
60077,60961,30028,0,0,0
59952,60929,29860,0,0,0
59827,60897,29692,0,0,0
59704,60864,29527,0,0,0
59583,60832,29367,0,0,0
59464,60801,29213,0,0,0
59349,60771,29065,0,0,0
59237,60743,28919,0,0,0
59127,60716,28771,0,0,0
59020,60687,28622,0,0,0
58917,60658,28475,0,0,0
58817,60628,28328,0,0,0
58722,60599,28182,0,0,0
58634,60574,28042,0,0,0
58550,60551,27912,0,0,0
58466,60529,27791,0,0,0
58383,60507,27673,0,0,0
58304,60485,27562,0,0,0
58231,60465,27459,0,0,0
58161,60445,27362,0,0,0
58092,60426,27269,0,0,0
58022,60409,27176,0,0,0
57955,60393,27085,0,0,0
57893,60375,26995,0,0,0
57834,60356,26907,0,0,0
57775,60335,26818,0,0,0
57712,60313,26731,0,0,0
57650,60292,26646,0,0,0
57592,60274,26563,0,0,0
57538,60259,26483,0,0,0
57484,60246,26403,0,0,0
57430,60235,26321,0,0,0
57377,60223,26241,0,0,0
57325,60211,26166,0,0,0
57273,60199,26094,0,0,0
57222,60188,26027,0,0,0
57173,60179,25962,0,0,0
57126,60169,25897,0,0,0
57083,60159,25830,0,0,0
57040,60148,25762,0,0,0
56996,60135,25694,0,0,0
56950,60120,25625,0,0,0
56899,60106,25555,0,0,0
56840,60091,25480,0,0,0
56779,60077,25403,0,0,0
56718,60064,25327,0,0,0
56659,60052,25250,0,0,0
56603,60038,25172,0,0,0
56553,60025,25102,0,0,0
56515,60015,25053,0,0,0
56496,60011,25038,0,0,0
56513,60018,25074,0,0,0
56585,60041,25183,0,0,0
56725,60080,25386,0,0,0
56939,60136,25696,0,0,0
57227,60213,26111,0,0,0
57582,60308,26618,0,0,0
57996,60418,27201,0,0,0
58455,60540,27842,0,0,0
58940,60670,28521,0,0,0
59434,60802,29213,0,0,0
59922,60933,29898,0,0,0
60394,61059,30559,0,0,0
60843,61180,31187,0,0,0
61267,61297,31779,0,0,0
61660,61409,32328,0,0,0
62015,61514,32831,0,0,0
62334,61610,33288,0,0,0
62621,61696,33701,0,0,0
62878,61773,34072,0,0,0
63104,61839,34398,0,0,0
63299,61893,34681,0,0,0
63461,61938,34921,0,0,0
63592,61976,35116,0,0,0
63695,62006,35268,0,0,0
63772,62028,35381,0,0,0
63822,62043,35459,0,0,0
63849,62050,35503,0,0,0
63854,62050,35513,0,0,0
63841,62045,35494,0,0,0
63813,62037,35453,0,0,0
63771,62025,35395,0,0,0
63718,62012,35323,0,0,0
63659,61997,35242,0,0,0
63597,61979,35155,0,0,0
63533,61959,35058,0,0,0
63468,61936,34957,0,0,0
63401,61913,34853,0,0,0
63332,61892,34747,0,0,0
63261,61869,34640,0,0,0
63190,61848,34534,0,0,0
63119,61828,34429,0,0,0
63050,61808,34326,0,0,0
62985,61789,34224,0,0,0
62924,61771,34128,0,0,0
62864,61752,34032,0,0,0
62804,61733,33935,0,0,0
62740,61714,33835,0,0,0
62674,61695,33731,0,0,0
62611,61675,33625,0,0,0
62548,61656,33522,0,0,0
62484,61638,33424,0,0,0
62421,61620,33332,0,0,0
62364,61601,33250,0,0,0
62316,61585,33179,0,0,0
62276,61571,33120,0,0,0
62245,61560,33072,0,0,0
62224,61551,33033,0,0,0
62209,61546,33002,0,0,0
62198,61542,32979,0,0,0
62189,61542,32964,0,0,0
62185,61545,32955,0,0,0
62186,61550,32954,0,0,0
62191,61555,32962,0,0,0
62200,61561,32980,0,0,0
62215,61566,33003,0,0,0
62237,61571,33031,0,0,0
62262,61577,33066,0,0,0
62288,61584,33106,0,0,0
62315,61593,33148,0,0,0
62342,61602,33188,0,0,0
62363,61609,33219,0,0,0
62377,61613,33242,0,0,0
62383,61615,33256,0,0,0
62382,61613,33261,0,0,0
62370,61610,33253,0,0,0
62349,61605,33230,0,0,0
62320,61595,33195,0,0,0
62282,61583,33149,0,0,0
62238,61569,33092,0,0,0
62187,61555,33025,0,0,0
62131,61542,32949,0,0,0
62069,61526,32862,0,0,0
62004,61507,32762,0,0,0
61935,61487,32653,0,0,0
61861,61465,32537,0,0,0
61780,61441,32411,0,0,0
61689,61415,32276,0,0,0
61593,61390,32133,0,0,0
61497,61364,31987,0,0,0
61401,61336,31841,0,0,0
61304,61307,31696,0,0,0
61204,61275,31551,0,0,0
61100,61243,31402,0,0,0
60993,61211,31248,0,0,0
60884,61180,31093,0,0,0
60776,61150,30940,0,0,0
60671,61120,30791,0,0,0
60568,61091,30644,0,0,0
60466,61061,30501,0,0,0
60367,61031,30365,0,0,0
60274,61002,30233,0,0,0
60187,60974,30103,0,0,0
60102,60949,29975,0,0,0
60018,60927,29853,0,0,0
59935,60905,29735,0,0,0
59850,60883,29617,0,0,0
59763,60861,29500,0,0,0
59677,60841,29387,0,0,0
59597,60820,29277,0,0,0
59521,60800,29172,0,0,0
59447,60780,29070,0,0,0
59376,60761,28972,0,0,0
59307,60745,28878,0,0,0
59243,60731,28791,0,0,0
59186,60717,28712,0,0,0
59133,60702,28639,0,0,0
59081,60685,28567,0,0,0
59032,60670,28497,0,0,0
58987,60656,28429,0,0,0
58947,60643,28363,0,0,0
58909,60628,28300,0,0,0
58869,60615,28240,0,0,0
58827,60605,28181,0,0,0
58784,60596,28120,0,0,0
58743,60588,28056,0,0,0
58700,60581,27993,0,0,0
58655,60571,27931,0,0,0
58608,60560,27869,0,0,0
58559,60548,27806,0,0,0
58509,60535,27740,0,0,0
58459,60521,27673,0,0,0
58409,60507,27603,0,0,0
58354,60492,27530,0,0,0
58292,60476,27450,0,0,0
58225,60463,27363,0,0,0
58156,60450,27271,0,0,0
58085,60436,27174,0,0,0
58011,60416,27072,0,0,0
57936,60393,26966,0,0,0
57857,60370,26855,0,0,0
57775,60347,26744,0,0,0
57692,60325,26636,0,0,0
57609,60304,26529,0,0,0
57527,60282,26423,0,0,0
57448,60260,26317,0,0,0
57376,60241,26217,0,0,0
57316,60226,26135,0,0,0
57276,60218,26083,0,0,0
57266,60218,26075,0,0,0
57299,60229,26132,0,0,0
57392,60256,26270,0,0,0
57554,60299,26502,0,0,0
57788,60361,26836,0,0,0
58094,60443,27272,0,0,0
58464,60544,27798,0,0,0
58887,60660,28393,0,0,0
59346,60786,29031,0,0,0
59820,60916,29691,0,0,0
60297,61046,30356,0,0,0
60767,61173,31011,0,0,0
61219,61295,31641,0,0,0
61645,61411,32239,0,0,0
62039,61519,32799,0,0,0
62399,61618,33316,0,0,0
62729,61708,33786,0,0,0
63026,61791,34211,0,0,0
63291,61867,34592,0,0,0
63523,61935,34924,0,0,0
63723,61994,35210,0,0,0
63895,62044,35455,0,0,0
64038,62083,35662,0,0,0
64151,62113,35829,0,0,0
64236,62132,35953,0,0,0
64294,62144,36040,0,0,0
64328,62151,36093,0,0,0
64341,62154,36117,0,0,0
64335,62153,36114,0,0,0
64314,62151,36087,0,0,0
64279,62147,36038,0,0,0
64230,62139,35973,0,0,0
64175,62127,35898,0,0,0
64120,62112,35815,0,0,0
64063,62094,35724,0,0,0
64001,62072,35630,0,0,0
63937,62048,35536,0,0,0
63878,62025,35444,0,0,0
63825,62003,35353,0,0,0
63772,61984,35263,0,0,0
63719,61968,35173,0,0,0
63665,61952,35085,0,0,0
63610,61934,35001,0,0,0
63553,61916,34914,0,0,0
63494,61897,34824,0,0,0
63431,61878,34730,0,0,0
63364,61857,34633,0,0,0
63292,61833,34530,0,0,0
63219,61809,34423,0,0,0
63149,61786,34317,0,0,0
63081,61764,34210,0,0,0
63013,61741,34104,0,0,0
62949,61722,34008,0,0,0
62889,61705,33923,0,0,0
62833,61687,33846,0,0,0
62787,61671,33777,0,0,0
62750,61657,33716,0,0,0
62721,61645,33664,0,0,0
62703,61638,33625,0,0,0
62696,61633,33597,0,0,0
62697,61629,33581,0,0,0
62704,61627,33576,0,0,0
62715,61625,33579,0,0,0
62728,61625,33589,0,0,0
62742,61628,33606,0,0,0
62758,61635,33627,0,0,0
62774,61642,33651,0,0,0
62788,61650,33681,0,0,0
62804,61656,33713,0,0,0
62820,61661,33743,0,0,0
62831,61662,33764,0,0,0
62837,61662,33776,0,0,0
62841,61661,33780,0,0,0
62846,61659,33779,0,0,0
62845,61656,33772,0,0,0
62835,61652,33755,0,0,0
62818,61650,33730,0,0,0
62793,61646,33695,0,0,0
62762,61640,33650,0,0,0
62728,61633,33594,0,0,0
62687,61623,33530,0,0,0
62635,61610,33458,0,0,0
62575,61593,33377,0,0,0
62508,61572,33284,0,0,0
62435,61550,33182,0,0,0
62360,61525,33072,0,0,0
62282,61498,32952,0,0,0
62203,61470,32827,0,0,0
62121,61442,32699,0,0,0
62034,61414,32568,0,0,0
61944,61387,32435,0,0,0
61854,61360,32301,0,0,0
61763,61333,32167,0,0,0
61669,61303,32031,0,0,0
61572,61273,31893,0,0,0
61474,61244,31752,0,0,0
61375,61218,31610,0,0,0
61277,61192,31467,0,0,0
61179,61165,31323,0,0,0
61082,61137,31182,0,0,0
60985,61111,31046,0,0,0
60884,61084,30910,0,0,0
60781,61055,30771,0,0,0
60678,61025,30632,0,0,0
60580,60997,30495,0,0,0
60489,60969,30358,0,0,0
60401,60940,30225,0,0,0
60312,60913,30099,0,0,0
60227,60891,29980,0,0,0
60144,60870,29863,0,0,0
60065,60851,29749,0,0,0
59990,60833,29637,0,0,0
59917,60813,29528,0,0,0
59846,60793,29425,0,0,0
59780,60774,29329,0,0,0
59716,60756,29239,0,0,0
59650,60738,29152,0,0,0
59584,60719,29070,0,0,0
59524,60700,28992,0,0,0
59466,60683,28919,0,0,0
59407,60667,28851,0,0,0
59349,60651,28786,0,0,0
59295,60636,28723,0,0,0
59245,60621,28660,0,0,0
59197,60607,28592,0,0,0
59148,60594,28520,0,0,0
59099,60579,28446,0,0,0
59047,60562,28371,0,0,0
58995,60545,28298,0,0,0
58941,60530,28226,0,0,0
58885,60514,28151,0,0,0
58828,60497,28073,0,0,0
58771,60480,27988,0,0,0
58707,60463,27899,0,0,0
58639,60446,27807,0,0,0
58570,60430,27714,0,0,0
58498,60415,27618,0,0,0
58420,60399,27520,0,0,0
58340,60383,27422,0,0,0
58264,60369,27328,0,0,0
58193,60353,27234,0,0,0
58121,60336,27138,0,0,0
58048,60320,27040,0,0,0
57976,60303,26942,0,0,0
57902,60283,26841,0,0,0
57825,60260,26738,0,0,0
57743,60237,26637,0,0,0
57660,60214,26534,0,0,0
57577,60190,26425,0,0,0
57495,60166,26310,0,0,0
57410,60144,26191,0,0,0
57321,60125,26068,0,0,0
57231,60104,25943,0,0,0
57146,60082,25822,0,0,0
57070,60061,25715,0,0,0
57011,60044,25632,0,0,0
56983,60035,25591,0,0,0
56999,60037,25612,0,0,0
57076,60056,25720,0,0,0
57230,60096,25937,0,0,0
57466,60158,26269,0,0,0
57783,60242,26710,0,0,0
58172,60346,27247,0,0,0
58618,60466,27859,0,0,0
59102,60597,28523,0,0,0
59606,60733,29216,0,0,0
60113,60871,29921,0,0,0
60611,61006,30618,0,0,0
61089,61136,31289,0,0,0
61541,61260,31921,0,0,0
61960,61377,32508,0,0,0
62340,61485,33045,0,0,0
62683,61582,33532,0,0,0
62991,61671,33974,0,0,0
63266,61751,34369,0,0,0
63505,61820,34714,0,0,0
63708,61880,35008,0,0,0
63875,61933,35255,0,0,0
64009,61975,35461,0,0,0
64113,62007,35627,0,0,0
64190,62030,35753,0,0,0
64239,62045,35845,0,0,0
64264,62055,35904,0,0,0
64274,62060,35933,0,0,0
64270,62061,35932,0,0,0
64251,62057,35906,0,0,0
64218,62047,35858,0,0,0
64172,62031,35789,0,0,0
64115,62012,35702,0,0,0
64052,61990,35601,0,0,0
63985,61967,35489,0,0,0
63912,61941,35367,0,0,0
63835,61914,35243,0,0,0
63756,61888,35123,0,0,0
63677,61864,35006,0,0,0
63601,61842,34891,0,0,0
63528,61822,34779,0,0,0
63458,61801,34674,0,0,0
63389,61780,34573,0,0,0
63317,61756,34472,0,0,0
63243,61732,34371,0,0,0
63165,61708,34268,0,0,0
63085,61686,34164,0,0,0
63001,61663,34055,0,0,0
62919,61642,33945,0,0,0
62841,61623,33837,0,0,0
62767,61604,33735,0,0,0
62698,61587,33637,0,0,0
62636,61571,33547,0,0,0
62582,61558,33465,0,0,0
62536,61546,33389,0,0,0
62495,61534,33319,0,0,0
62461,61521,33257,0,0,0
62437,61510,33205,0,0,0
62420,61503,33166,0,0,0
62407,61496,33133,0,0,0
62402,61493,33108,0,0,0
62401,61493,33097,0,0,0
62402,61494,33098,0,0,0
62407,61497,33108,0,0,0
62416,61502,33126,0,0,0
62427,61510,33149,0,0,0
62440,61517,33173,0,0,0
62460,61524,33198,0,0,0
62485,61533,33227,0,0,0
62513,61540,33258,0,0,0
62538,61545,33289,0,0,0
62557,61548,33316,0,0,0
62569,61549,33337,0,0,0
62576,61549,33348,0,0,0
62580,61550,33348,0,0,0
62577,61549,33341,0,0,0
62564,61544,33325,0,0,0
62543,61535,33296,0,0,0
62509,61523,33252,0,0,0
62464,61511,33195,0,0,0
62411,61498,33127,0,0,0
62354,61483,33047,0,0,0
62289,61463,32954,0,0,0
62217,61439,32849,0,0,0
62140,61415,32734,0,0,0
62059,61391,32612,0,0,0
61973,61366,32480,0,0,0
61881,61339,32340,0,0,0
61780,61310,32194,0,0,0
61675,61280,32041,0,0,0
61569,61247,31884,0,0,0
61461,61213,31721,0,0,0
61349,61179,31557,0,0,0
61233,61145,31393,0,0,0
61114,61109,31228,0,0,0
60991,61074,31063,0,0,0
60864,61041,30900,0,0,0
60737,61009,30738,0,0,0
60616,60980,30578,0,0,0
60501,60953,30420,0,0,0
60393,60928,30264,0,0,0
60289,60904,30112,0,0,0
60186,60880,29965,0,0,0
60082,60856,29819,0,0,0
59981,60833,29675,0,0,0
59883,60809,29533,0,0,0
59787,60783,29394,0,0,0
59694,60757,29258,0,0,0
59603,60730,29127,0,0,0
59509,60700,28998,0,0,0
59415,60671,28872,0,0,0
59325,60644,28751,0,0,0
59243,60620,28638,0,0,0
59166,60595,28529,0,0,0
59095,60571,28425,0,0,0
59025,60550,28325,0,0,0
58955,60533,28229,0,0,0
58885,60519,28137,0,0,0
58817,60506,28051,0,0,0
58754,60494,27971,0,0,0
58694,60482,27894,0,0,0
58633,60470,27819,0,0,0
58573,60458,27747,0,0,0
58516,60446,27678,0,0,0
58462,60435,27611,0,0,0
58411,60422,27541,0,0,0
58361,60409,27469,0,0,0
58313,60396,27399,0,0,0
58262,60383,27328,0,0,0
58208,60368,27254,0,0,0
58155,60352,27175,0,0,0
58100,60336,27090,0,0,0
58041,60320,27004,0,0,0
57979,60305,26918,0,0,0
57916,60291,26835,0,0,0
57857,60278,26755,0,0,0
57799,60264,26674,0,0,0
57739,60249,26591,0,0,0
57678,60232,26505,0,0,0
57616,60214,26418,0,0,0
57552,60196,26331,0,0,0
57487,60175,26242,0,0,0
57422,60156,26152,0,0,0
57355,60139,26062,0,0,0
57284,60121,25970,0,0,0
57207,60101,25873,0,0,0
57127,60080,25772,0,0,0
57043,60059,25669,0,0,0
56954,60039,25560,0,0,0
56863,60021,25445,0,0,0
56771,60003,25325,0,0,0
56674,59983,25201,0,0,0
56573,59961,25072,0,0,0
56467,59938,24938,0,0,0
56359,59914,24801,0,0,0
56256,59891,24665,0,0,0
56168,59868,24542,0,0,0
56099,59848,24447,0,0,0
56061,59837,24396,0,0,0
56069,59839,24409,0,0,0
56137,59855,24506,0,0,0
56277,59890,24705,0,0,0
56499,59946,25019,0,0,0
56806,60026,25451,0,0,0
57197,60130,25998,0,0,0
57666,60255,26643,0,0,0
58191,60395,27363,0,0,0
58747,60546,28126,0,0,0
59315,60700,28905,0,0,0
59881,60856,29678,0,0,0
60429,61007,30425,0,0,0
60943,61148,31131,0,0,0
61416,61277,31786,0,0,0
61846,61393,32384,0,0,0
62232,61497,32922,0,0,0
62574,61590,33403,0,0,0
62870,61672,33826,0,0,0
63123,61742,34191,0,0,0
63339,61800,34504,0,0,0
63521,61849,34766,0,0,0
63667,61890,34980,0,0,0
63780,61924,35150,0,0,0
63864,61952,35277,0,0,0
63924,61973,35363,0,0,0
63958,61987,35413,0,0,0
63967,61995,35432,0,0,0
63952,61994,35421,0,0,0
63919,61984,35381,0,0,0
63872,61968,35315,0,0,0
63813,61948,35230,0,0,0
63744,61924,35127,0,0,0
63662,61895,35007,0,0,0
63572,61864,34873,0,0,0
63478,61834,34731,0,0,0
63380,61806,34582,0,0,0
63278,61779,34431,0,0,0
63173,61752,34281,0,0,0
63076,61725,34136,0,0,0
62986,61699,33996,0,0,0
62899,61674,33858,0,0,0
62813,61648,33722,0,0,0
62728,61622,33591,0,0,0
62641,61598,33461,0,0,0
62548,61573,33327,0,0,0
62452,61546,33188,0,0,0
62351,61514,33047,0,0,0
62246,61478,32906,0,0,0
62141,61441,32767,0,0,0
62041,61407,32633,0,0,0
61952,61378,32511,0,0,0
61873,61352,32400,0,0,0
61804,61332,32301,0,0,0
61744,61316,32215,0,0,0
61694,61303,32142,0,0,0
61654,61292,32084,0,0,0
61624,61286,32041,0,0,0
61605,61284,32015,0,0,0
61598,61286,32007,0,0,0
61602,61292,32014,0,0,0
61616,61298,32032,0,0,0
61635,61305,32058,0,0,0
61659,61314,32094,0,0,0
61686,61323,32139,0,0,0
61720,61333,32192,0,0,0
61762,61345,32251,0,0,0
61808,61359,32314,0,0,0
61853,61372,32376,0,0,0
61895,61385,32434,0,0,0
61933,61395,32485,0,0,0
61967,61403,32529,0,0,0
61996,61407,32563,0,0,0
62016,61408,32582,0,0,0
62028,61405,32586,0,0,0
62030,61402,32579,0,0,0
62017,61396,32558,0,0,0
61992,61390,32525,0,0,0
61959,61383,32481,0,0,0
61919,61376,32425,0,0,0
61871,61367,32357,0,0,0
61812,61354,32277,0,0,0
61743,61335,32184,0,0,0
61666,61313,32076,0,0,0
61581,61289,31955,0,0,0
61490,61263,31823,0,0,0
61395,61236,31683,0,0,0
61296,61207,31533,0,0,0
61188,61176,31368,0,0,0
61071,61143,31192,0,0,0
60947,61109,31008,0,0,0
60818,61073,30821,0,0,0
60686,61035,30632,0,0,0
60552,60995,30442,0,0,0
60415,60955,30257,0,0,0
60278,60914,30075,0,0,0
60143,60875,29895,0,0,0
60013,60839,29718,0,0,0
59888,60806,29545,0,0,0
59769,60774,29372,0,0,0
59652,60744,29200,0,0,0
59537,60713,29033,0,0,0
59425,60685,28870,0,0,0
59316,60659,28710,0,0,0
59206,60634,28553,0,0,0
59094,60607,28400,0,0,0
58984,60579,28253,0,0,0
58875,60551,28111,0,0,0
58767,60523,27972,0,0,0
58665,60495,27837,0,0,0
58566,60467,27704,0,0,0
58472,60438,27571,0,0,0
58382,60412,27438,0,0,0
58296,60387,27310,0,0,0
58216,60363,27190,0,0,0
58140,60342,27078,0,0,0
58063,60323,26971,0,0,0
57984,60306,26869,0,0,0
57905,60289,26773,0,0,0
57827,60271,26683,0,0,0
57753,60253,26598,0,0,0
57688,60236,26519,0,0,0
57630,60220,26445,0,0,0
57576,60206,26375,0,0,0
57528,60195,26308,0,0,0
57482,60183,26244,0,0,0
57435,60168,26179,0,0,0
57388,60151,26112,0,0,0
57343,60135,26043,0,0,0
57300,60120,25973,0,0,0
57254,60107,25899,0,0,0
57202,60093,25819,0,0,0
57147,60079,25735,0,0,0
57091,60062,25649,0,0,0
57032,60045,25563,0,0,0
56968,60027,25476,0,0,0
56900,60010,25385,0,0,0
56829,59994,25291,0,0,0
56760,59977,25193,0,0,0
56692,59960,25094,0,0,0
56622,59944,24996,0,0,0
56548,59928,24896,0,0,0
56471,59912,24793,0,0,0
56392,59895,24687,0,0,0
56312,59877,24581,0,0,0
56226,59855,24472,0,0,0
56136,59831,24360,0,0,0
56043,59806,24242,0,0,0
55944,59781,24121,0,0,0
55844,59755,23998,0,0,0
55745,59729,23874,0,0,0
55646,59702,23751,0,0,0
55552,59676,23634,0,0,0
55470,59655,23529,0,0,0
55408,59640,23449,0,0,0
55377,59633,23408,0,0,0
55393,59638,23429,0,0,0
55470,59659,23538,0,0,0
55622,59699,23750,0,0,0
55861,59762,24073,0,0,0
56187,59848,24512,0,0,0
56596,59956,25061,0,0,0
57082,60084,25711,0,0,0
57628,60228,26445,0,0,0
58213,60382,27236,0,0,0
58816,60541,28055,0,0,0
59419,60700,28876,0,0,0
60000,60856,29672,0,0,0
60547,61004,30422,0,0,0
61050,61143,31111,0,0,0
61504,61269,31737,0,0,0
61906,61382,32301,0,0,0
62259,61481,32802,0,0,0
62565,61567,33242,0,0,0
62828,61643,33620,0,0,0
63051,61708,33941,0,0,0
63235,61761,34206,0,0,0
63385,61805,34420,0,0,0
63504,61840,34587,0,0,0
63592,61864,34713,0,0,0
63652,61880,34798,0,0,0
63684,61888,34846,0,0,0
63690,61889,34859,0,0,0
63675,61885,34839,0,0,0
63641,61875,34790,0,0,0
63590,61860,34715,0,0,0
63523,61839,34619,0,0,0
63444,61813,34506,0,0,0
63359,61785,34383,0,0,0
63267,61757,34249,0,0,0
63166,61726,34105,0,0,0
63062,61694,33949,0,0,0
62959,61664,33789,0,0,0
62856,61637,33630,0,0,0
62754,61609,33474,0,0,0
62655,61582,33326,0,0,0
62558,61552,33179,0,0,0
62459,61520,33028,0,0,0
62355,61486,32875,0,0,0
62246,61451,32718,0,0,0
62135,61415,32556,0,0,0
62020,61380,32387,0,0,0
61901,61344,32213,0,0,0
61781,61309,32037,0,0,0
61665,61276,31866,0,0,0
61551,61242,31702,0,0,0
61443,61210,31548,0,0,0
61348,61181,31408,0,0,0
61269,61157,31288,0,0,0
61205,61137,31189,0,0,0
61154,61121,31109,0,0,0
61116,61111,31050,0,0,0
61088,61105,31013,0,0,0
61074,61104,30993,0,0,0
61079,61108,30991,0,0,0
61100,61116,31006,0,0,0
61131,61126,31039,0,0,0
61170,61137,31089,0,0,0
61216,61148,31154,0,0,0
61269,61162,31230,0,0,0
61326,61178,31314,0,0,0
61386,61194,31401,0,0,0
61446,61212,31489,0,0,0
61507,61231,31571,0,0,0
61567,61249,31644,0,0,0
61621,61264,31704,0,0,0
61665,61276,31756,0,0,0
61698,61286,31800,0,0,0
61719,61295,31833,0,0,0
61730,61302,31855,0,0,0
61731,61306,31865,0,0,0
61722,61308,31863,0,0,0
61704,61306,31846,0,0,0
61675,61300,31809,0,0,0
61637,61291,31754,0,0,0
61587,61279,31686,0,0,0
61526,61264,31601,0,0,0
61451,61246,31499,0,0,0
61367,61225,31385,0,0,0
61275,61200,31259,0,0,0
61178,61169,31118,0,0,0
61072,61133,30964,0,0,0
60959,61096,30800,0,0,0
60840,61059,30628,0,0,0
60721,61023,30450,0,0,0
60601,60988,30270,0,0,0
60483,60952,30089,0,0,0
60364,60915,29910,0,0,0
60242,60878,29729,0,0,0
60118,60842,29547,0,0,0
59995,60807,29368,0,0,0
59873,60773,29191,0,0,0
59751,60738,29016,0,0,0
59627,60702,28841,0,0,0
59502,60667,28668,0,0,0
59376,60632,28497,0,0,0
59253,60599,28330,0,0,0
59134,60568,28167,0,0,0
59018,60539,28010,0,0,0
58907,60512,27855,0,0,0
58798,60485,27705,0,0,0
58692,60461,27559,0,0,0
58588,60441,27421,0,0,0
58490,60421,27287,0,0,0
58400,60399,27157,0,0,0
58313,60376,27031,0,0,0
58226,60353,26911,0,0,0
58141,60333,26798,0,0,0
58062,60316,26690,0,0,0
57990,60299,26586,0,0,0
57921,60283,26487,0,0,0
57852,60267,26394,0,0,0
57783,60250,26306,0,0,0
57715,60232,26221,0,0,0
57649,60213,26134,0,0,0
57583,60194,26045,0,0,0
57514,60175,25957,0,0,0
57447,60156,25874,0,0,0
57382,60138,25798,0,0,0
57319,60121,25726,0,0,0
57258,60106,25654,0,0,0
57200,60091,25582,0,0,0
57145,60077,25510,0,0,0
57092,60064,25441,0,0,0
57041,60052,25374,0,0,0
56995,60041,25307,0,0,0
56949,60031,25238,0,0,0
56900,60022,25164,0,0,0
56848,60013,25089,0,0,0
56794,60004,25013,0,0,0
56738,59994,24939,0,0,0
56679,59983,24864,0,0,0
56621,59969,24787,0,0,0
56563,59954,24707,0,0,0
56502,59938,24623,0,0,0
56435,59922,24534,0,0,0
56363,59905,24441,0,0,0
56286,59886,24343,0,0,0
56203,59865,24237,0,0,0
56115,59842,24125,0,0,0
56026,59821,24014,0,0,0
55940,59801,23905,0,0,0
55856,59782,23799,0,0,0
55777,59764,23703,0,0,0
55717,59751,23632,0,0,0
55688,59744,23601,0,0,0
55700,59748,23624,0,0,0
55770,59766,23722,0,0,0
55909,59800,23915,0,0,0
56130,59856,24220,0,0,0
56433,59935,24640,0,0,0
56817,60036,25174,0,0,0
57280,60159,25811,0,0,0
57810,60299,26536,0,0,0
58387,60452,27323,0,0,0
58989,60612,28142,0,0,0
59596,60776,28970,0,0,0
60188,60940,29780,0,0,0
60750,61094,30551,0,0,0
61268,61237,31267,0,0,0
61739,61368,31924,0,0,0
62161,61486,32518,0,0,0
62533,61590,33044,0,0,0
62855,61681,33506,0,0,0
63130,61758,33909,0,0,0
63363,61823,34252,0,0,0
63556,61877,34539,0,0,0
63712,61921,34773,0,0,0
63839,61957,34960,0,0,0
63942,61985,35105,0,0,0
64019,62003,35209,0,0,0
64069,62012,35279,0,0,0
64096,62015,35315,0,0,0
64099,62015,35316,0,0,0
64077,62009,35281,0,0,0
64033,61997,35217,0,0,0
63972,61980,35132,0,0,0
63897,61956,35025,0,0,0
63811,61931,34898,0,0,0
63718,61904,34760,0,0,0
63620,61878,34615,0,0,0
63519,61852,34465,0,0,0
63414,61823,34310,0,0,0
63306,61793,34152,0,0,0
63195,61763,33995,0,0,0
63085,61733,33841,0,0,0
62977,61704,33693,0,0,0
62871,61673,33545,0,0,0
62764,61642,33395,0,0,0
62654,61612,33244,0,0,0
62540,61582,33090,0,0,0
62425,61552,32931,0,0,0
62309,61519,32769,0,0,0
62193,61483,32605,0,0,0
62076,61447,32442,0,0,0
61961,61413,32288,0,0,0
61852,61380,32144,0,0,0
61752,61350,32011,0,0,0
61664,61323,31890,0,0,0
61589,61301,31783,0,0,0
61528,61285,31695,0,0,0
61479,61275,31625,0,0,0
61442,61268,31571,0,0,0
61418,61265,31532,0,0,0
61405,61262,31508,0,0,0
61400,61261,31496,0,0,0
61407,61262,31496,0,0,0
61427,61267,31512,0,0,0
61459,61277,31543,0,0,0
61500,61289,31583,0,0,0
61547,61301,31633,0,0,0
61593,61312,31692,0,0,0
61635,61325,31757,0,0,0
61674,61340,31824,0,0,0
61714,61354,31889,0,0,0
61757,61368,31953,0,0,0
61798,61380,32013,0,0,0
61830,61390,32060,0,0,0
61854,61397,32090,0,0,0
61868,61400,32110,0,0,0
61874,61400,32119,0,0,0
61873,61398,32116,0,0,0
61860,61392,32099,0,0,0
61832,61384,32064,0,0,0
61790,61374,32011,0,0,0
61735,61360,31942,0,0,0
61673,61346,31861,0,0,0
61603,61329,31768,0,0,0
61526,61308,31662,0,0,0
61440,61285,31541,0,0,0
61347,61259,31412,0,0,0
61251,61230,31279,0,0,0
61151,61199,31140,0,0,0
61044,61167,30990,0,0,0
60932,61135,30832,0,0,0
60814,61103,30667,0,0,0
60692,61071,30494,0,0,0
60565,61039,30313,0,0,0
60436,61005,30128,0,0,0
60305,60969,29942,0,0,0
60172,60933,29753,0,0,0
60037,60898,29564,0,0,0
59903,60863,29375,0,0,0
59771,60828,29187,0,0,0
59639,60793,29002,0,0,0
59509,60757,28816,0,0,0
59380,60722,28634,0,0,0
59250,60689,28457,0,0,0
59117,60655,28284,0,0,0
58986,60621,28112,0,0,0
58860,60588,27946,0,0,0
58740,60560,27786,0,0,0
58627,60533,27633,0,0,0
58523,60506,27486,0,0,0
58426,60479,27345,0,0,0
58330,60450,27209,0,0,0
58236,60421,27081,0,0,0
58143,60393,26960,0,0,0
58054,60367,26845,0,0,0
57970,60343,26735,0,0,0
57888,60321,26626,0,0,0
57806,60300,26516,0,0,0
57726,60280,26406,0,0,0
57648,60261,26300,0,0,0
57572,60242,26199,0,0,0
57498,60221,26103,0,0,0
57426,60201,26012,0,0,0
57357,60182,25923,0,0,0
57289,60164,25833,0,0,0
57221,60149,25745,0,0,0
57158,60137,25664,0,0,0
57102,60127,25591,0,0,0
57051,60116,25520,0,0,0
56997,60106,25449,0,0,0
56942,60095,25379,0,0,0
56886,60083,25308,0,0,0
56827,60070,25237,0,0,0
56768,60057,25166,0,0,0
56709,60045,25096,0,0,0
56645,60031,25025,0,0,0
56579,60013,24949,0,0,0
56514,59995,24870,0,0,0
56451,59977,24788,0,0,0
56389,59960,24700,0,0,0
56327,59943,24606,0,0,0
56263,59925,24509,0,0,0
56197,59909,24413,0,0,0
56126,59893,24321,0,0,0
56050,59875,24226,0,0,0
55971,59857,24127,0,0,0
55891,59837,24024,0,0,0
55810,59815,23916,0,0,0
55728,59794,23807,0,0,0
55645,59771,23703,0,0,0
55565,59751,23604,0,0,0
55491,59733,23511,0,0,0
55427,59718,23427,0,0,0
55375,59706,23361,0,0,0
55344,59699,23326,0,0,0
55346,59701,23342,0,0,0
55400,59716,23431,0,0,0
55523,59747,23615,0,0,0
55724,59796,23904,0,0,0
56007,59866,24303,0,0,0
56373,59962,24817,0,0,0
56820,60082,25439,0,0,0
57346,60223,26154,0,0,0
57932,60380,26944,0,0,0
58551,60547,27778,0,0,0
59179,60719,28628,0,0,0
59801,60890,29471,0,0,0
60399,61055,30283,0,0,0
60958,61208,31046,0,0,0
61470,61348,31750,0,0,0
61930,61474,32392,0,0,0
62337,61586,32969,0,0,0
62693,61684,33480,0,0,0
62999,61768,33924,0,0,0
63256,61841,34301,0,0,0
63467,61903,34616,0,0,0
63640,61955,34872,0,0,0
63781,62000,35077,0,0,0
63888,62035,35235,0,0,0
63965,62061,35349,0,0,0
64017,62079,35426,0,0,0
64047,62091,35469,0,0,0
64056,62096,35480,0,0,0
64047,62093,35460,0,0,0
64018,62083,35410,0,0,0
63967,62066,35334,0,0,0
63898,62043,35235,0,0,0
63815,62017,35120,0,0,0
63723,61990,34996,0,0,0
63627,61963,34865,0,0,0
63530,61936,34727,0,0,0
63429,61907,34583,0,0,0
63329,61877,34442,0,0,0
63231,61846,34305,0,0,0
63133,61815,34171,0,0,0
63039,61785,34038,0,0,0
62948,61754,33907,0,0,0
62858,61724,33776,0,0,0
62769,61695,33645,0,0,0
62681,61668,33515,0,0,0
62591,61644,33384,0,0,0
62496,61622,33250,0,0,0
62394,61600,33109,0,0,0
62292,61577,32964,0,0,0
62194,61553,32822,0,0,0
62097,61528,32684,0,0,0
62002,61502,32548,0,0,0
61912,61477,32417,0,0,0
61829,61453,32295,0,0,0
61754,61431,32188,0,0,0
61687,61412,32098,0,0,0
61632,61397,32025,0,0,0
61591,61385,31973,0,0,0
61565,61376,31938,0,0,0
61554,61372,31919,0,0,0
61556,61371,31913,0,0,0
61570,61374,31920,0,0,0
61591,61380,31942,0,0,0
61615,61385,31976,0,0,0
61641,61392,32018,0,0,0
61670,61399,32071,0,0,0
61701,61407,32130,0,0,0
61736,61413,32188,0,0,0
61773,61420,32242,0,0,0
61812,61430,32294,0,0,0
61847,61440,32341,0,0,0
61878,61448,32381,0,0,0
61903,61455,32414,0,0,0
61920,61461,32442,0,0,0
61927,61467,32458,0,0,0
61922,61469,32459,0,0,0
61910,61470,32446,0,0,0
61890,61470,32420,0,0,0
61862,61466,32378,0,0,0
61824,61456,32318,0,0,0
61773,61439,32240,0,0,0
61708,61417,32147,0,0,0
61632,61395,32042,0,0,0
61547,61372,31927,0,0,0
61453,61350,31803,0,0,0
61351,61325,31672,0,0,0
61240,61296,31530,0,0,0
61120,61263,31377,0,0,0
60994,61227,31212,0,0,0
60865,61189,31034,0,0,0
60735,61148,30848,0,0,0
60608,61109,30658,0,0,0
60483,61072,30468,0,0,0
60356,61036,30279,0,0,0
60229,61002,30092,0,0,0
60102,60969,29907,0,0,0
59974,60937,29724,0,0,0
59847,60907,29541,0,0,0
59724,60876,29360,0,0,0
59601,60845,29183,0,0,0
59476,60813,29011,0,0,0
59349,60781,28844,0,0,0
59223,60748,28682,0,0,0
59098,60714,28526,0,0,0
58978,60680,28377,0,0,0
58865,60647,28231,0,0,0
58758,60615,28087,0,0,0
58657,60586,27948,0,0,0
58563,60558,27814,0,0,0
58474,60529,27685,0,0,0
58389,60502,27562,0,0,0
58306,60477,27445,0,0,0
58228,60458,27334,0,0,0
58154,60442,27227,0,0,0
58079,60428,27123,0,0,0
58005,60413,27021,0,0,0
57932,60399,26922,0,0,0
57860,60384,26823,0,0,0
57788,60366,26726,0,0,0
57717,60347,26632,0,0,0
57650,60328,26541,0,0,0
57586,60308,26451,0,0,0
57522,60290,26361,0,0,0
57458,60272,26273,0,0,0
57393,60255,26189,0,0,0
57330,60237,26109,0,0,0
57268,60219,26031,0,0,0
57210,60204,25957,0,0,0
57155,60193,25890,0,0,0
57100,60183,25826,0,0,0
57043,60173,25765,0,0,0
56990,60163,25707,0,0,0
56942,60154,25649,0,0,0
56899,60144,25589,0,0,0
56859,60132,25526,0,0,0
56823,60120,25460,0,0,0
56781,60108,25391,0,0,0
56734,60095,25318,0,0,0
56683,60081,25244,0,0,0
56631,60064,25167,0,0,0
56577,60045,25086,0,0,0
56520,60026,25001,0,0,0
56460,60012,24914,0,0,0
56398,60000,24828,0,0,0
56332,59988,24742,0,0,0
56262,59974,24654,0,0,0
56192,59957,24562,0,0,0
56126,59940,24472,0,0,0
56059,59922,24382,0,0,0
55987,59904,24288,0,0,0
55910,59886,24192,0,0,0
55830,59869,24091,0,0,0
55750,59852,23983,0,0,0
55671,59834,23869,0,0,0
55589,59815,23753,0,0,0
55502,59795,23638,0,0,0
55414,59774,23520,0,0,0
55327,59752,23402,0,0,0
55241,59729,23283,0,0,0
55158,59706,23171,0,0,0
55081,59686,23072,0,0,0
55015,59672,22997,0,0,0
54978,59666,22966,0,0,0
54985,59672,22998,0,0,0
55052,59692,23111,0,0,0
55198,59731,23331,0,0,0
55433,59794,23673,0,0,0
55759,59880,24139,0,0,0
56178,59989,24723,0,0,0
56686,60122,25417,0,0,0
57269,60276,26206,0,0,0
57901,60443,27062,0,0,0
58558,60618,27953,0,0,0
59217,60794,28852,0,0,0
59858,60968,29732,0,0,0
60464,61133,30566,0,0,0
61022,61285,31338,0,0,0
61527,61424,32042,0,0,0
61978,61551,32678,0,0,0
62373,61666,33242,0,0,0
62714,61766,33730,0,0,0
63006,61852,34149,0,0,0
63255,61926,34507,0,0,0
63463,61988,34811,0,0,0
63631,62039,35062,0,0,0
63763,62078,35265,0,0,0
63861,62105,35424,0,0,0
63928,62123,35538,0,0,0
63966,62134,35608,0,0,0
63982,62140,35641,0,0,0
63980,62139,35642,0,0,0
63960,62132,35612,0,0,0
63922,62118,35552,0,0,0
63865,62099,35469,0,0,0
63794,62077,35370,0,0,0
63711,62053,35259,0,0,0
63620,62027,35137,0,0,0
63523,62001,35009,0,0,0
63427,61974,34874,0,0,0
63330,61945,34735,0,0,0
63233,61915,34596,0,0,0
63136,61885,34461,0,0,0
63043,61859,34328,0,0,0
62955,61833,34196,0,0,0
62872,61808,34066,0,0,0
62793,61784,33942,0,0,0
62716,61760,33821,0,0,0
62638,61738,33699,0,0,0
62558,61715,33572,0,0,0
62473,61691,33443,0,0,0
62384,61664,33312,0,0,0
62292,61636,33179,0,0,0
62201,61610,33045,0,0,0
62113,61586,32917,0,0,0
62028,61562,32799,0,0,0
61947,61539,32691,0,0,0
61874,61518,32595,0,0,0
61811,61499,32515,0,0,0
61756,61483,32450,0,0,0
61708,61468,32397,0,0,0
61670,61455,32356,0,0,0
61642,61447,32327,0,0,0
61625,61441,32309,0,0,0
61619,61437,32303,0,0,0
61622,61437,32309,0,0,0
61634,61441,32324,0,0,0
61656,61449,32350,0,0,0
61686,61461,32385,0,0,0
61722,61474,32429,0,0,0
61763,61488,32480,0,0,0
61809,61501,32536,0,0,0
61854,61512,32592,0,0,0
61894,61522,32643,0,0,0
61928,61531,32689,0,0,0
61955,61539,32731,0,0,0
61976,61547,32767,0,0,0
61989,61553,32794,0,0,0
61992,61557,32808,0,0,0
61987,61559,32804,0,0,0
61973,61557,32783,0,0,0
61949,61553,32749,0,0,0
61914,61548,32701,0,0,0
61872,61541,32642,0,0,0
61825,61530,32571,0,0,0
61773,61518,32492,0,0,0
61713,61502,32404,0,0,0
61644,61482,32308,0,0,0
61566,61456,32202,0,0,0
61483,61429,32086,0,0,0
61395,61402,31962,0,0,0
61298,61371,31827,0,0,0
61194,61340,31683,0,0,0
61085,61308,31532,0,0,0
60971,61275,31372,0,0,0
60853,61240,31205,0,0,0
60735,61206,31034,0,0,0
60614,61172,30862,0,0,0
60491,61140,30691,0,0,0
60370,61109,30522,0,0,0
60254,61079,30355,0,0,0
60141,61050,30189,0,0,0
60028,61022,30029,0,0,0
59914,60996,29875,0,0,0
59803,60970,29725,0,0,0
59694,60943,29576,0,0,0
59586,60916,29427,0,0,0
59478,60891,29280,0,0,0
59371,60866,29137,0,0,0
59272,60841,29001,0,0,0
59178,60815,28869,0,0,0
59084,60789,28737,0,0,0
58989,60763,28607,0,0,0
58895,60737,28482,0,0,0
58801,60710,28359,0,0,0
58709,60684,28240,0,0,0
58620,60658,28127,0,0,0
58538,60635,28019,0,0,0
58462,60614,27917,0,0,0
58393,60593,27821,0,0,0
58328,60572,27732,0,0,0
58268,60553,27644,0,0,0
58208,60535,27557,0,0,0
58148,60519,27471,0,0,0
58090,60505,27390,0,0,0
58032,60491,27316,0,0,0
57972,60476,27243,0,0,0
57911,60462,27168,0,0,0
57852,60448,27090,0,0,0
57795,60435,27012,0,0,0
57738,60423,26932,0,0,0
57679,60412,26851,0,0,0
57620,60400,26769,0,0,0
57563,60387,26690,0,0,0
57505,60374,26617,0,0,0
57445,60361,26548,0,0,0
57385,60348,26480,0,0,0
57324,60334,26413,0,0,0
57267,60321,26345,0,0,0
57212,60308,26274,0,0,0
57155,60293,26199,0,0,0
57094,60277,26123,0,0,0
57029,60261,26044,0,0,0
56962,60246,25961,0,0,0
56895,60231,25874,0,0,0
56830,60214,25788,0,0,0
56766,60197,25703,0,0,0
56702,60178,25617,0,0,0
56639,60159,25531,0,0,0
56579,60140,25441,0,0,0
56517,60122,25346,0,0,0
56452,60104,25250,0,0,0
56383,60086,25154,0,0,0
56310,60069,25054,0,0,0
56230,60051,24951,0,0,0
56145,60029,24846,0,0,0
56059,60006,24741,0,0,0
55974,59985,24630,0,0,0
55886,59964,24513,0,0,0
55796,59940,24393,0,0,0
55704,59914,24271,0,0,0
55609,59887,24143,0,0,0
55513,59860,24010,0,0,0
55420,59835,23882,0,0,0
55333,59814,23762,0,0,0
55253,59795,23657,0,0,0
55189,59779,23575,0,0,0
55150,59771,23529,0,0,0
55153,59774,23543,0,0,0
55215,59791,23640,0,0,0
55352,59827,23841,0,0,0
55571,59886,24158,0,0,0
55877,59969,24593,0,0,0
56265,60073,25142,0,0,0
56733,60198,25798,0,0,0
57272,60342,26548,0,0,0
57861,60498,27362,0,0,0
58474,60663,28207,0,0,0
59092,60830,29060,0,0,0
59701,60997,29902,0,0,0
60288,61161,30710,0,0,0
60837,61315,31466,0,0,0
61339,61459,32158,0,0,0
61791,61590,32786,0,0,0
62192,61709,33346,0,0,0
62539,61811,33834,0,0,0
62838,61899,34256,0,0,0
63090,61975,34616,0,0,0
63300,62039,34914,0,0,0
63469,62089,35156,0,0,0
63601,62129,35350,0,0,0
63702,62159,35501,0,0,0
63774,62178,35609,0,0,0
63817,62186,35678,0,0,0
63836,62187,35718,0,0,0
63832,62184,35731,0,0,0
63810,62176,35715,0,0,0
63773,62166,35674,0,0,0
63726,62154,35611,0,0,0
63671,62140,35530,0,0,0
63608,62120,35431,0,0,0
63533,62097,35316,0,0,0
63453,62071,35190,0,0,0
63367,62044,35058,0,0,0
63274,62014,34921,0,0,0
63175,61982,34779,0,0,0
63076,61951,34640,0,0,0
62975,61919,34507,0,0,0
62876,61887,34378,0,0,0
62780,61855,34253,0,0,0
62686,61826,34131,0,0,0
62590,61797,34010,0,0,0
62495,61769,33885,0,0,0
62400,61741,33755,0,0,0
62305,61714,33623,0,0,0
62208,61688,33490,0,0,0
62110,61661,33358,0,0,0
62018,61638,33230,0,0,0
61937,61616,33110,0,0,0
61866,61596,32998,0,0,0
61804,61577,32894,0,0,0
61751,61561,32803,0,0,0
61705,61546,32724,0,0,0
61665,61534,32657,0,0,0
61632,61525,32603,0,0,0
61608,61521,32567,0,0,0
61592,61519,32548,0,0,0
61583,61517,32544,0,0,0
61584,61517,32552,0,0,0
61596,61519,32570,0,0,0
61616,61524,32596,0,0,0
61644,61530,32629,0,0,0
61674,61537,32667,0,0,0
61706,61543,32709,0,0,0
61738,61552,32756,0,0,0
61771,61561,32805,0,0,0
61802,61571,32854,0,0,0
61833,61581,32900,0,0,0
61864,61592,32944,0,0,0
61893,61602,32983,0,0,0
61912,61612,33014,0,0,0
61920,61617,33036,0,0,0
61920,61618,33047,0,0,0
61910,61614,33044,0,0,0
61891,61608,33025,0,0,0
61868,61601,32990,0,0,0
61839,61594,32940,0,0,0
61801,61583,32876,0,0,0
61749,61569,32798,0,0,0
61684,61550,32706,0,0,0
61612,61528,32602,0,0,0
61534,61505,32487,0,0,0
61452,61482,32364,0,0,0
61366,61459,32234,0,0,0
61276,61436,32098,0,0,0
61179,61410,31955,0,0,0
61075,61381,31807,0,0,0
60969,61352,31653,0,0,0
60857,61323,31493,0,0,0
60736,61290,31326,0,0,0
60612,61255,31153,0,0,0
60484,61216,30977,0,0,0
60355,61174,30795,0,0,0
60226,61132,30610,0,0,0
60100,61093,30424,0,0,0
59977,61056,30242,0,0,0
59852,61021,30067,0,0,0
59727,60987,29898,0,0,0
59606,60956,29733,0,0,0
59489,60927,29572,0,0,0
59377,60898,29417,0,0,0
59270,60871,29266,0,0,0
59167,60845,29120,0,0,0
59068,60820,28981,0,0,0
58970,60796,28849,0,0,0
58874,60774,28720,0,0,0
58785,60754,28594,0,0,0
58703,60734,28473,0,0,0
58622,60711,28354,0,0,0
58541,60686,28239,0,0,0
58463,60664,28129,0,0,0
58389,60642,28024,0,0,0
58316,60622,27921,0,0,0
58246,60602,27819,0,0,0
58177,60583,27719,0,0,0
58108,60565,27623,0,0,0
58040,60548,27531,0,0,0
57971,60533,27444,0,0,0
57904,60520,27360,0,0,0
57836,60506,27279,0,0,0
57769,60491,27201,0,0,0
57702,60475,27123,0,0,0
57640,60459,27045,0,0,0
57581,60443,26966,0,0,0
57524,60426,26884,0,0,0
57467,60408,26801,0,0,0
57410,60394,26721,0,0,0
57352,60381,26644,0,0,0
57293,60366,26568,0,0,0
57233,60350,26489,0,0,0
57175,60332,26407,0,0,0
57115,60314,26320,0,0,0
57052,60296,26231,0,0,0
56989,60278,26143,0,0,0
56925,60262,26057,0,0,0
56864,60246,25975,0,0,0
56803,60230,25893,0,0,0
56741,60213,25810,0,0,0
56681,60197,25726,0,0,0
56626,60183,25643,0,0,0
56571,60169,25559,0,0,0
56513,60153,25472,0,0,0
56450,60138,25383,0,0,0
56380,60122,25291,0,0,0
56302,60104,25193,0,0,0
56221,60084,25092,0,0,0
56138,60063,24989,0,0,0
56049,60041,24882,0,0,0
55955,60017,24766,0,0,0
55857,59992,24643,0,0,0
55754,59967,24515,0,0,0
55649,59943,24384,0,0,0
55549,59918,24255,0,0,0
55456,59896,24127,0,0,0
55368,59876,24004,0,0,0
55285,59855,23884,0,0,0
55209,59834,23770,0,0,0
55142,59816,23672,0,0,0
55093,59806,23605,0,0,0
55074,59807,23587,0,0,0
55104,59818,23638,0,0,0
55201,59843,23781,0,0,0
55374,59886,24033,0,0,0
55627,59948,24397,0,0,0
55962,60031,24872,0,0,0
56375,60137,25453,0,0,0
56861,60264,26134,0,0,0
57409,60407,26899,0,0,0
58001,60563,27718,0,0,0
58614,60726,28559,0,0,0
59224,60888,29396,0,0,0
59816,61047,30209,0,0,0
60373,61198,30981,0,0,0
60884,61341,31699,0,0,0
61345,61474,32353,0,0,0
61754,61594,32937,0,0,0
62116,61700,33449,0,0,0
62433,61794,33896,0,0,0
62701,61874,34279,0,0,0
62922,61941,34599,0,0,0
63104,61994,34861,0,0,0
63253,62039,35071,0,0,0
63367,62074,35234,0,0,0
63445,62099,35350,0,0,0
63494,62116,35427,0,0,0
63520,62125,35469,0,0,0
63525,62127,35481,0,0,0
63515,62121,35464,0,0,0
63489,62109,35422,0,0,0
63445,62091,35354,0,0,0
63385,62070,35262,0,0,0
63314,62045,35151,0,0,0
63234,62018,35028,0,0,0
63143,61989,34891,0,0,0
63045,61959,34741,0,0,0
62945,61927,34582,0,0,0
62843,61894,34419,0,0,0
62743,61865,34261,0,0,0
62642,61837,34110,0,0,0
62543,61809,33962,0,0,0
62449,61781,33820,0,0,0
62359,61752,33684,0,0,0
62267,61723,33549,0,0,0
62170,61694,33411,0,0,0
62069,61665,33269,0,0,0
61968,61635,33126,0,0,0
61865,61608,32979,0,0,0
61759,61582,32831,0,0,0
61649,61556,32685,0,0,0
61541,61528,32542,0,0,0
61439,61499,32410,0,0,0
61350,61474,32293,0,0,0
61277,61452,32193,0,0,0
61217,61434,32107,0,0,0
61168,61421,32035,0,0,0
61128,61411,31979,0,0,0
61097,61404,31939,0,0,0
61078,61401,31915,0,0,0
61068,61401,31904,0,0,0
61066,61403,31906,0,0,0
61074,61408,31924,0,0,0
61092,61414,31958,0,0,0
61121,61421,32003,0,0,0
61162,61431,32059,0,0,0
61211,61445,32123,0,0,0
61264,61459,32188,0,0,0
61318,61472,32252,0,0,0
61374,61485,32314,0,0,0
61428,61498,32370,0,0,0
61474,61510,32418,0,0,0
61514,61518,32453,0,0,0
61544,61526,32474,0,0,0
61562,61533,32483,0,0,0
61568,61537,32482,0,0,0
61561,61535,32471,0,0,0
61543,61531,32448,0,0,0
61515,61525,32412,0,0,0
61475,61515,32357,0,0,0
61426,61501,32287,0,0,0
61371,61482,32203,0,0,0
61307,61461,32108,0,0,0
61233,61437,31999,0,0,0
61149,61411,31876,0,0,0
61057,61385,31745,0,0,0
60959,61358,31605,0,0,0
60858,61329,31459,0,0,0
60753,61298,31305,0,0,0
60644,61267,31142,0,0,0
60533,61236,30975,0,0,0
60420,61202,30807,0,0,0
60306,61167,30640,0,0,0
60190,61133,30474,0,0,0
60069,61099,30305,0,0,0
59940,61063,30129,0,0,0
59805,61026,29947,0,0,0
59667,60989,29764,0,0,0
59532,60952,29581,0,0,0
59399,60916,29399,0,0,0
59270,60882,29220,0,0,0
59148,60850,29044,0,0,0
59031,60819,28875,0,0,0
58917,60787,28714,0,0,0
58807,60757,28560,0,0,0
58703,60727,28411,0,0,0
58605,60698,28267,0,0,0
58513,60669,28129,0,0,0
58424,60642,27996,0,0,0
58336,60617,27869,0,0,0
58251,60593,27749,0,0,0
58167,60572,27637,0,0,0
58083,60551,27529,0,0,0
58004,60532,27424,0,0,0
57930,60515,27322,0,0,0
57856,60497,27221,0,0,0
57782,60479,27122,0,0,0
57709,60463,27028,0,0,0
57636,60447,26935,0,0,0
57565,60431,26841,0,0,0
57500,60414,26751,0,0,0
57438,60399,26665,0,0,0
57381,60385,26584,0,0,0
57329,60372,26506,0,0,0
57280,60358,26433,0,0,0
57230,60343,26362,0,0,0
57182,60328,26294,0,0,0
57133,60313,26231,0,0,0
57083,60298,26172,0,0,0
57034,60282,26110,0,0,0
56984,60265,26044,0,0,0
56932,60247,25974,0,0,0
56879,60231,25903,0,0,0
56825,60216,25831,0,0,0
56772,60203,25754,0,0,0
56717,60189,25673,0,0,0
56662,60175,25590,0,0,0
56604,60161,25507,0,0,0
56543,60148,25425,0,0,0
56480,60135,25345,0,0,0
56419,60124,25265,0,0,0
56359,60113,25184,0,0,0
56299,60101,25101,0,0,0
56239,60087,25015,0,0,0
56179,60073,24927,0,0,0
56116,60058,24833,0,0,0
56047,60040,24729,0,0,0
55973,60018,24618,0,0,0
55894,59995,24506,0,0,0
55808,59972,24393,0,0,0
55714,59949,24277,0,0,0
55619,59925,24159,0,0,0
55527,59902,24040,0,0,0
55435,59879,23918,0,0,0
55344,59856,23791,0,0,0
55255,59833,23664,0,0,0
55170,59810,23542,0,0,0
55092,59790,23433,0,0,0
55031,59775,23350,0,0,0
55001,59768,23312,0,0,0
55013,59773,23336,0,0,0
55081,59793,23443,0,0,0
55222,59831,23652,0,0,0
55449,59890,23975,0,0,0
55761,59971,24413,0,0,0
56153,60071,24958,0,0,0
56617,60191,25600,0,0,0
57144,60328,26328,0,0,0
57716,60479,27120,0,0,0
58313,60638,27944,0,0,0
58912,60797,28769,0,0,0
59496,60954,29574,0,0,0
60049,61104,30338,0,0,0
60563,61247,31049,0,0,0
61035,61383,31699,0,0,0
61461,61507,32284,0,0,0
61838,61617,32799,0,0,0
62166,61714,33248,0,0,0
62446,61796,33636,0,0,0
62681,61863,33966,0,0,0
62872,61913,34236,0,0,0
63020,61952,34450,0,0,0
63129,61980,34612,0,0,0
63204,62000,34729,0,0,0
63252,62013,34806,0,0,0
63275,62018,34844,0,0,0
63275,62016,34847,0,0,0
63249,62007,34818,0,0,0
63203,61994,34761,0,0,0
63143,61976,34678,0,0,0
63073,61955,34576,0,0,0
62990,61932,34460,0,0,0
62899,61907,34332,0,0,0
62801,61880,34195,0,0,0
62698,61851,34050,0,0,0
62590,61821,33895,0,0,0
62476,61789,33731,0,0,0
62358,61755,33561,0,0,0
62235,61722,33389,0,0,0
62110,61688,33216,0,0,0
61986,61655,33040,0,0,0
61864,61622,32862,0,0,0
61744,61587,32681,0,0,0
61624,61551,32496,0,0,0
61503,61514,32309,0,0,0
61380,61477,32124,0,0,0
61256,61439,31941,0,0,0
61133,61402,31762,0,0,0
61016,61367,31592,0,0,0
60908,61334,31436,0,0,0
60810,61306,31297,0,0,0
60723,61282,31178,0,0,0
60649,61262,31080,0,0,0
60593,61247,31003,0,0,0
60554,61238,30947,0,0,0
60531,61236,30913,0,0,0
60521,61236,30901,0,0,0
60526,61238,30910,0,0,0
60542,61243,30937,0,0,0
60566,61251,30979,0,0,0
60601,61261,31035,0,0,0
60646,61275,31106,0,0,0
60696,61290,31188,0,0,0
60753,61307,31276,0,0,0
60813,61326,31369,0,0,0
60876,61345,31464,0,0,0
60942,61364,31561,0,0,0
61010,61381,31655,0,0,0
61076,61396,31740,0,0,0
61135,61412,31817,0,0,0
61185,61426,31886,0,0,0
61225,61439,31942,0,0,0
61252,61449,31981,0,0,0
61264,61455,32004,0,0,0
61268,61460,32012,0,0,0
61263,61460,32002,0,0,0
61248,61453,31971,0,0,0
61221,61441,31920,0,0,0
61184,61425,31852,0,0,0
61135,61406,31768,0,0,0
61071,61383,31670,0,0,0
60995,61358,31560,0,0,0
60909,61329,31441,0,0,0
60814,61299,31312,0,0,0
60712,61271,31171,0,0,0
60603,61243,31022,0,0,0
60487,61214,30864,0,0,0
60369,61183,30696,0,0,0
60249,61151,30523,0,0,0
60125,61118,30344,0,0,0
59997,61084,30159,0,0,0
59869,61052,29975,0,0,0
59743,61020,29792,0,0,0
59619,60988,29610,0,0,0
59496,60955,29430,0,0,0
59373,60922,29253,0,0,0
59250,60891,29079,0,0,0
59132,60861,28912,0,0,0
59018,60831,28752,0,0,0
58901,60799,28594,0,0,0
58783,60767,28437,0,0,0
58669,60738,28285,0,0,0
58559,60708,28140,0,0,0
58452,60678,28001,0,0,0
58348,60650,27868,0,0,0
58250,60624,27740,0,0,0
58157,60602,27617,0,0,0
58066,60582,27497,0,0,0
57979,60560,27380,0,0,0
57899,60538,27263,0,0,0
57826,60515,27149,0,0,0
57757,60495,27043,0,0,0
57693,60477,26948,0,0,0
57634,60459,26863,0,0,0
57577,60441,26783,0,0,0
57523,60424,26708,0,0,0
57469,60410,26637,0,0,0
57416,60399,26567,0,0,0
57363,60389,26496,0,0,0
57310,60379,26425,0,0,0
57259,60369,26357,0,0,0
57209,60360,26294,0,0,0
57157,60349,26232,0,0,0
57103,60336,26166,0,0,0
57052,60324,26103,0,0,0
57004,60314,26044,0,0,0
56957,60303,25986,0,0,0
56909,60291,25927,0,0,0
56861,60281,25869,0,0,0
56815,60272,25812,0,0,0
56771,60262,25753,0,0,0
56729,60250,25692,0,0,0
56686,60236,25631,0,0,0
56643,60222,25567,0,0,0
56602,60207,25502,0,0,0
56563,60192,25437,0,0,0
56524,60176,25372,0,0,0
56486,60161,25305,0,0,0
56444,60146,25234,0,0,0
56394,60132,25159,0,0,0
56338,60120,25086,0,0,0
56278,60110,25013,0,0,0
56213,60099,24933,0,0,0
56143,60086,24846,0,0,0
56068,60070,24753,0,0,0
55988,60053,24654,0,0,0
55906,60035,24549,0,0,0
55826,60015,24441,0,0,0
55749,59995,24334,0,0,0
55673,59975,24226,0,0,0
55596,59956,24119,0,0,0
55518,59936,24012,0,0,0
55438,59917,23905,0,0,0
55356,59898,23797,0,0,0
55278,59881,23697,0,0,0
55215,59865,23614,0,0,0
55173,59853,23559,0,0,0
55162,59848,23549,0,0,0
55199,59857,23604,0,0,0
55301,59881,23749,0,0,0
55479,59925,24004,0,0,0
55738,59992,24374,0,0,0
56079,60083,24853,0,0,0
56500,60196,25443,0,0,0
56996,60331,26135,0,0,0
57551,60482,26901,0,0,0
58142,60642,27710,0,0,0
58748,60805,28538,0,0,0
59346,60966,29361,0,0,0
59920,61123,30155,0,0,0
60458,61272,30901,0,0,0
60950,61409,31589,0,0,0
61392,61531,32213,0,0,0
61787,61641,32771,0,0,0
62135,61739,33264,0,0,0
62436,61825,33694,0,0,0
62694,61898,34064,0,0,0
62911,61961,34376,0,0,0
63090,62015,34635,0,0,0
63239,62059,34844,0,0,0
63359,62094,35008,0,0,0
63451,62118,35129,0,0,0
63512,62134,35211,0,0,0
63547,62144,35258,0,0,0
63562,62150,35272,0,0,0
63557,62150,35252,0,0,0
63532,62144,35204,0,0,0
63490,62131,35137,0,0,0
63434,62115,35057,0,0,0
63365,62096,34961,0,0,0
63286,62072,34849,0,0,0
63198,62044,34726,0,0,0
63103,62014,34598,0,0,0
63006,61981,34467,0,0,0
62909,61949,34336,0,0,0
62812,61917,34203,0,0,0
62713,61886,34068,0,0,0
62616,61859,33931,0,0,0
62522,61835,33795,0,0,0
62429,61812,33659,0,0,0
62334,61789,33523,0,0,0
62233,61762,33384,0,0,0
62128,61734,33242,0,0,0
62023,61707,33098,0,0,0
61917,61683,32955,0,0,0
61809,61658,32812,0,0,0
61707,61633,32673,0,0,0
61615,61608,32544,0,0,0
61533,61583,32427,0,0,0
61461,61561,32322,0,0,0
61402,61542,32235,0,0,0
61357,61528,32165,0,0,0
61323,61518,32112,0,0,0
61301,61513,32075,0,0,0
61289,61511,32056,0,0,0
61288,61513,32055,0,0,0
61302,61516,32072,0,0,0
61331,61523,32105,0,0,0
61370,61536,32153,0,0,0
61416,61554,32214,0,0,0
61465,61577,32288,0,0,0
61517,61600,32372,0,0,0
61572,61624,32464,0,0,0
61628,61644,32558,0,0,0
61683,61661,32648,0,0,0
61734,61679,32735,0,0,0
61782,61697,32821,0,0,0
61826,61714,32899,0,0,0
61861,61729,32961,0,0,0
61886,61740,33009,0,0,0
61899,61747,33043,0,0,0
61902,61752,33060,0,0,0
61894,61755,33059,0,0,0
61876,61753,33040,0,0,0
61847,61748,33009,0,0,0
61808,61741,32965,0,0,0
61756,61732,32907,0,0,0
61691,61720,32833,0,0,0
61619,61708,32747,0,0,0
61541,61692,32647,0,0,0
61453,61672,32529,0,0,0
61355,61647,32399,0,0,0
61247,61621,32256,0,0,0
61131,61592,32099,0,0,0
61007,61559,31931,0,0,0
60877,61523,31755,0,0,0
60742,61484,31572,0,0,0
60605,61444,31383,0,0,0
60464,61402,31185,0,0,0
60323,61360,30985,0,0,0
60182,61317,30785,0,0,0
60041,61275,30585,0,0,0
59903,61236,30381,0,0,0
59766,61198,30177,0,0,0
59629,61162,29974,0,0,0
59487,61126,29773,0,0,0
59339,61091,29573,0,0,0
59191,61055,29377,0,0,0
59047,61020,29188,0,0,0
58908,60986,29004,0,0,0
58777,60952,28827,0,0,0
58653,60919,28660,0,0,0
58534,60887,28505,0,0,0
58419,60857,28361,0,0,0
58311,60831,28228,0,0,0
58213,60807,28104,0,0,0
58122,60786,27988,0,0,0
58036,60764,27880,0,0,0
57952,60742,27779,0,0,0
57873,60720,27684,0,0,0
57798,60700,27595,0,0,0
57729,60681,27508,0,0,0
57663,60663,27420,0,0,0
57599,60646,27333,0,0,0
57538,60628,27251,0,0,0
57478,60612,27170,0,0,0
57419,60598,27092,0,0,0
57358,60586,27018,0,0,0
57296,60575,26949,0,0,0
57233,60563,26879,0,0,0
57172,60551,26807,0,0,0
57113,60541,26734,0,0,0
57055,60531,26661,0,0,0
56998,60522,26589,0,0,0
56942,60513,26520,0,0,0
56887,60504,26454,0,0,0
56830,60494,26393,0,0,0
56776,60483,26335,0,0,0
56725,60474,26281,0,0,0
56677,60466,26230,0,0,0
56633,60460,26182,0,0,0
56592,60456,26136,0,0,0
56554,60454,26090,0,0,0
56517,60452,26039,0,0,0
56482,60447,25987,0,0,0
56450,60440,25934,0,0,0
56415,60431,25882,0,0,0
56374,60420,25828,0,0,0
56330,60408,25770,0,0,0
56285,60396,25709,0,0,0
56239,60385,25643,0,0,0
56191,60374,25574,0,0,0
56136,60363,25501,0,0,0
56072,60351,25422,0,0,0
56002,60337,25336,0,0,0
55928,60322,25246,0,0,0
55851,60306,25148,0,0,0
55771,60287,25041,0,0,0
55690,60269,24928,0,0,0
55604,60253,24810,0,0,0
55511,60235,24689,0,0,0
55414,60215,24563,0,0,0
55313,60194,24435,0,0,0
55210,60170,24304,0,0,0
55105,60145,24168,0,0,0
55001,60119,24030,0,0,0
54900,60094,23895,0,0,0
54805,60073,23766,0,0,0
54719,60055,23646,0,0,0
54642,60041,23538,0,0,0
54577,60030,23449,0,0,0
54532,60023,23389,0,0,0
54521,60024,23379,0,0,0
54559,60038,23441,0,0,0
54660,60067,23595,0,0,0
54838,60115,23859,0,0,0
55099,60186,24243,0,0,0
55445,60279,24747,0,0,0
55875,60396,25366,0,0,0
56385,60536,26088,0,0,0
56955,60692,26890,0,0,0
57566,60859,27744,0,0,0
58196,61032,28619,0,0,0
58824,61204,29491,0,0,0
59435,61372,30337,0,0,0
60015,61533,31139,0,0,0
60550,61686,31881,0,0,0
61033,61828,32556,0,0,0
61464,61955,33161,0,0,0
61844,62068,33697,0,0,0
62175,62167,34172,0,0,0
62461,62253,34584,0,0,0
62707,62327,34933,0,0,0
62912,62389,35224,0,0,0
63080,62442,35467,0,0,0
63216,62486,35666,0,0,0
63325,62521,35824,0,0,0
63407,62548,35943,0,0,0
63464,62569,36027,0,0,0
63498,62582,36079,0,0,0
63511,62587,36100,0,0,0
63506,62583,36092,0,0,0
63486,62575,36060,0,0,0
63451,62563,36010,0,0,0
63405,62547,35945,0,0,0
63353,62531,35869,0,0,0
63294,62514,35784,0,0,0
63229,62497,35691,0,0,0
63163,62477,35593,0,0,0
63097,62457,35495,0,0,0
63031,62439,35402,0,0,0
62969,62425,35313,0,0,0
62911,62411,35228,0,0,0
62851,62397,35147,0,0,0
62792,62383,35066,0,0,0
62737,62366,34987,0,0,0
62683,62347,34909,0,0,0
62625,62327,34827,0,0,0
62563,62307,34740,0,0,0
62499,62288,34649,0,0,0
62432,62271,34555,0,0,0
62363,62254,34460,0,0,0
62297,62235,34365,0,0,0
62234,62215,34273,0,0,0
62175,62196,34185,0,0,0
62123,62179,34108,0,0,0
62075,62163,34040,0,0,0
62032,62146,33978,0,0,0
61997,62131,33927,0,0,0
61968,62120,33884,0,0,0
61946,62110,33849,0,0,0
61931,62102,33821,0,0,0
61921,62095,33801,0,0,0
61915,62090,33793,0,0,0
61913,62088,33797,0,0,0
61919,62091,33814,0,0,0
61935,62097,33844,0,0,0
61960,62106,33886,0,0,0
61991,62117,33933,0,0,0
62024,62130,33984,0,0,0
62061,62143,34038,0,0,0
62102,62159,34093,0,0,0
62142,62174,34139,0,0,0
62176,62187,34175,0,0,0
62208,62197,34201,0,0,0
62235,62205,34221,0,0,0
62253,62209,34230,0,0,0
62259,62209,34228,0,0,0
62255,62203,34214,0,0,0
62240,62197,34186,0,0,0
62215,62190,34146,0,0,0
62179,62182,34095,0,0,0
62134,62172,34032,0,0,0
62078,62159,33960,0,0,0
62017,62144,33878,0,0,0
61950,62128,33788,0,0,0
61878,62110,33692,0,0,0
61801,62089,33589,0,0,0
61721,62067,33477,0,0,0
61637,62043,33359,0,0,0
61553,62019,33236,0,0,0
61467,61994,33107,0,0,0
61378,61968,32972,0,0,0
61285,61939,32830,0,0,0
61190,61908,32686,0,0,0
61092,61877,32538,0,0,0
60988,61845,32386,0,0,0
60883,61814,32234,0,0,0
60777,61783,32084,0,0,0
60671,61751,31933,0,0,0
60563,61719,31780,0,0,0
60455,61689,31628,0,0,0
60345,61661,31479,0,0,0
60237,61633,31336,0,0,0
60133,61606,31195,0,0,0
60031,61580,31057,0,0,0
59932,61553,30923,0,0,0
59839,61527,30795,0,0,0
59753,61503,30673,0,0,0
59677,61483,30560,0,0,0
59608,61466,30455,0,0,0
59541,61447,30358,0,0,0
59477,61427,30267,0,0,0
59420,61408,30185,0,0,0
59369,61391,30110,0,0,0
59321,61374,30038,0,0,0
59271,61358,29965,0,0,0
59217,61342,29890,0,0,0
59159,61327,29812,0,0,0
59099,61313,29732,0,0,0
59041,61299,29654,0,0,0
58985,61286,29577,0,0,0
58932,61272,29499,0,0,0
58879,61259,29421,0,0,0
58825,61247,29346,0,0,0
58773,61235,29273,0,0,0
58721,61221,29204,0,0,0
58670,61207,29140,0,0,0
58622,61193,29083,0,0,0
58578,61180,29027,0,0,0
58536,61169,28970,0,0,0
58497,61158,28909,0,0,0
58460,61147,28849,0,0,0
58423,61136,28789,0,0,0
58385,61126,28731,0,0,0
58344,61115,28677,0,0,0
58301,61104,28623,0,0,0
58255,61092,28563,0,0,0
58206,61079,28496,0,0,0
58154,61065,28424,0,0,0
58102,61051,28349,0,0,0
58055,61038,28275,0,0,0
58009,61025,28199,0,0,0
57963,61010,28119,0,0,0
57913,60994,28036,0,0,0
57855,60978,27954,0,0,0
57796,60961,27871,0,0,0
57737,60944,27789,0,0,0
57673,60926,27705,0,0,0
57603,60906,27614,0,0,0
57527,60885,27516,0,0,0
57447,60862,27413,0,0,0
57368,60841,27308,0,0,0
57289,60821,27200,0,0,0
57210,60801,27092,0,0,0
57131,60780,26986,0,0,0
57050,60757,26880,0,0,0
56966,60731,26769,0,0,0
56879,60705,26653,0,0,0
56791,60681,26533,0,0,0
56700,60659,26412,0,0,0
56609,60637,26292,0,0,0
56519,60615,26173,0,0,0
56430,60594,26055,0,0,0
56342,60574,25937,0,0,0
56256,60555,25819,0,0,0
56175,60539,25701,0,0,0
56104,60524,25596,0,0,0
56053,60512,25518,0,0,0
56030,60506,25484,0,0,0
56050,60511,25511,0,0,0
56128,60532,25624,0,0,0
56277,60572,25841,0,0,0
56503,60633,26172,0,0,0
56808,60717,26620,0,0,0
57194,60824,27182,0,0,0
57650,60950,27837,0,0,0
58160,61094,28559,0,0,0
58704,61248,29323,0,0,0
59262,61408,30107,0,0,0
59817,61569,30887,0,0,0
60348,61723,31644,0,0,0
60843,61870,32362,0,0,0
61301,62009,33034,0,0,0
61723,62137,33652,0,0,0
62103,62250,34208,0,0,0
62443,62349,34699,0,0,0
62744,62437,35132,0,0,0
63006,62514,35511,0,0,0
63231,62581,35837,0,0,0
63423,62636,36110,0,0,0
63581,62681,36335,0,0,0
63707,62718,36518,0,0,0
63804,62749,36659,0,0,0
63877,62772,36761,0,0,0
63926,62787,36826,0,0,0
63949,62795,36861,0,0,0
63947,62796,36868,0,0,0
63929,62793,36851,0,0,0
63901,62789,36812,0,0,0
63860,62779,36748,0,0,0
63808,62763,36666,0,0,0
63749,62743,36573,0,0,0
63687,62721,36474,0,0,0
63621,62699,36371,0,0,0
63553,62674,36265,0,0,0
63485,62649,36160,0,0,0
63417,62622,36057,0,0,0
63350,62596,35957,0,0,0
63289,62574,35861,0,0,0
63230,62555,35768,0,0,0
63171,62537,35676,0,0,0
63110,62520,35583,0,0,0
63044,62501,35488,0,0,0
62977,62480,35391,0,0,0
62911,62462,35293,0,0,0
62843,62444,35191,0,0,0
62776,62425,35084,0,0,0
62708,62406,34978,0,0,0
62640,62384,34873,0,0,0
62572,62361,34770,0,0,0
62506,62340,34672,0,0,0
62442,62323,34582,0,0,0
62386,62305,34503,0,0,0
62337,62289,34434,0,0,0
62296,62276,34376,0,0,0
62261,62265,34332,0,0,0
62233,62255,34300,0,0,0
62211,62248,34280,0,0,0
62198,62247,34270,0,0,0
62193,62249,34270,0,0,0
62193,62252,34277,0,0,0
62196,62254,34285,0,0,0
62201,62255,34296,0,0,0
62212,62256,34310,0,0,0
62232,62258,34326,0,0,0
62253,62259,34343,0,0,0
62272,62261,34365,0,0,0
62290,62264,34392,0,0,0
62310,62266,34421,0,0,0
62329,62268,34446,0,0,0
62345,62271,34468,0,0,0
62355,62274,34484,0,0,0
62359,62275,34490,0,0,0
62356,62274,34481,0,0,0
62345,62272,34460,0,0,0
62324,62270,34428,0,0,0
62294,62265,34388,0,0,0
62261,62256,34339,0,0,0
62225,62245,34282,0,0,0
62182,62230,34215,0,0,0
62130,62213,34137,0,0,0
62071,62193,34049,0,0,0
62007,62172,33951,0,0,0
61941,62152,33843,0,0,0
61871,62131,33725,0,0,0
61791,62108,33596,0,0,0
61703,62082,33459,0,0,0
61609,62054,33316,0,0,0
61513,62025,33169,0,0,0
61412,61994,33018,0,0,0
61310,61963,32865,0,0,0
61205,61933,32711,0,0,0
61094,61902,32556,0,0,0
60982,61868,32398,0,0,0
60871,61836,32240,0,0,0
60762,61805,32083,0,0,0
60654,61773,31924,0,0,0
60547,61740,31764,0,0,0
60446,61709,31607,0,0,0
60350,61681,31456,0,0,0
60254,61653,31313,0,0,0
60160,61626,31177,0,0,0
60064,61599,31048,0,0,0
59968,61571,30921,0,0,0
59878,61544,30795,0,0,0
59795,61519,30669,0,0,0
59710,61495,30547,0,0,0
59624,61472,30428,0,0,0
59543,61449,30312,0,0,0
59465,61426,30203,0,0,0
59392,61402,30101,0,0,0
59325,61378,30007,0,0,0
59264,61357,29920,0,0,0
59207,61338,29836,0,0,0
59149,61320,29753,0,0,0
59088,61303,29671,0,0,0
59024,61286,29589,0,0,0
58959,61270,29509,0,0,0
58898,61254,29429,0,0,0
58840,61239,29350,0,0,0
58784,61227,29271,0,0,0
58731,61215,29193,0,0,0
58679,61205,29118,0,0,0
58628,61195,29043,0,0,0
58576,61185,28969,0,0,0
58527,61175,28898,0,0,0
58480,61163,28832,0,0,0
58431,61150,28770,0,0,0
58382,61136,28711,0,0,0
58335,61121,28651,0,0,0
58288,61105,28587,0,0,0
58239,61088,28516,0,0,0
58190,61071,28443,0,0,0
58138,61054,28370,0,0,0
58084,61037,28294,0,0,0
58029,61021,28218,0,0,0
57973,61004,28143,0,0,0
57916,60987,28066,0,0,0
57857,60970,27985,0,0,0
57796,60952,27899,0,0,0
57736,60935,27811,0,0,0
57676,60919,27723,0,0,0
57616,60903,27637,0,0,0
57554,60888,27549,0,0,0
57490,60873,27457,0,0,0
57424,60858,27361,0,0,0
57353,60842,27263,0,0,0
57278,60825,27159,0,0,0
57201,60805,27051,0,0,0
57121,60783,26941,0,0,0
57038,60759,26830,0,0,0
56947,60732,26713,0,0,0
56851,60702,26587,0,0,0
56752,60670,26456,0,0,0
56652,60639,26320,0,0,0
56550,60609,26176,0,0,0
56444,60581,26026,0,0,0
56334,60555,25874,0,0,0
56223,60529,25721,0,0,0
56117,60504,25570,0,0,0
56019,60481,25430,0,0,0
55932,60461,25306,0,0,0
55860,60443,25205,0,0,0
55809,60430,25138,0,0,0
55793,60428,25125,0,0,0
55831,60440,25189,0,0,0
55936,60470,25347,0,0,0
56115,60520,25613,0,0,0
56377,60592,25993,0,0,0
56724,60685,26489,0,0,0
57154,60801,27092,0,0,0
57654,60938,27784,0,0,0
58200,61089,28541,0,0,0
58771,61249,29335,0,0,0
59346,61412,30137,0,0,0
59908,61572,30923,0,0,0
60442,61727,31676,0,0,0
60936,61872,32381,0,0,0
61389,62006,33028,0,0,0
61801,62127,33615,0,0,0
62172,62235,34140,0,0,0
62496,62329,34604,0,0,0
62775,62411,35006,0,0,0
63012,62480,35349,0,0,0
63211,62540,35636,0,0,0
63376,62590,35872,0,0,0
63504,62629,36058,0,0,0
63599,62657,36197,0,0,0
63664,62675,36294,0,0,0
63701,62684,36351,0,0,0
63714,62685,36369,0,0,0
63705,62679,36354,0,0,0
63678,62668,36314,0,0,0
63636,62654,36254,0,0,0
63583,62637,36176,0,0,0
63521,62618,36081,0,0,0
63449,62598,35972,0,0,0
63367,62574,35854,0,0,0
63279,62547,35730,0,0,0
63187,62518,35600,0,0,0
63092,62488,35465,0,0,0
62999,62459,35328,0,0,0
62910,62431,35197,0,0,0
62825,62406,35074,0,0,0
62741,62382,34955,0,0,0
62657,62359,34836,0,0,0
62573,62336,34715,0,0,0
62491,62313,34593,0,0,0
62411,62290,34470,0,0,0
62332,62268,34348,0,0,0
62253,62242,34223,0,0,0
62173,62214,34094,0,0,0
62090,62186,33964,0,0,0
62004,62157,33834,0,0,0
61920,62129,33705,0,0,0
61844,62104,33584,0,0,0
61775,62082,33478,0,0,0
61711,62063,33385,0,0,0
61654,62045,33304,0,0,0
61611,62030,33239,0,0,0
61578,62020,33189,0,0,0
61555,62014,33154,0,0,0
61543,62013,33136,0,0,0
61542,62015,33133,0,0,0
61550,62020,33143,0,0,0
61568,62028,33165,0,0,0
61595,62037,33202,0,0,0
61632,62047,33253,0,0,0
61675,62058,33314,0,0,0
61722,62070,33379,0,0,0
61771,62085,33442,0,0,0
61819,62099,33506,0,0,0
61863,62113,33567,0,0,0
61902,62125,33624,0,0,0
61939,62136,33678,0,0,0
61972,62144,33726,0,0,0
61999,62148,33762,0,0,0
62013,62150,33781,0,0,0
62015,62149,33782,0,0,0
62006,62146,33766,0,0,0
61986,62142,33737,0,0,0
61957,62135,33694,0,0,0
61921,62124,33637,0,0,0
61879,62110,33571,0,0,0
61832,62093,33494,0,0,0
61777,62074,33403,0,0,0
61710,62053,33297,0,0,0
61635,62031,33179,0,0,0
61550,62008,33050,0,0,0
61455,61982,32911,0,0,0
61352,61952,32761,0,0,0
61244,61920,32600,0,0,0
61128,61885,32428,0,0,0
61006,61848,32248,0,0,0
60881,61809,32065,0,0,0
60756,61771,31885,0,0,0
60631,61735,31708,0,0,0
60509,61699,31534,0,0,0
60388,61664,31361,0,0,0
60268,61629,31188,0,0,0
60147,61595,31017,0,0,0
60030,61563,30851,0,0,0
59921,61532,30690,0,0,0
59820,61502,30531,0,0,0
59726,61474,30378,0,0,0
59636,61448,30232,0,0,0
59548,61424,30096,0,0,0
59459,61400,29967,0,0,0
59368,61374,29842,0,0,0
59273,61346,29718,0,0,0
59180,61320,29598,0,0,0
59094,61295,29483,0,0,0
59016,61273,29374,0,0,0
58946,61253,29272,0,0,0
58887,61234,29180,0,0,0
58833,61216,29091,0,0,0
58778,61200,29003,0,0,0
58720,61186,28920,0,0,0
58663,61175,28841,0,0,0
58607,61164,28767,0,0,0
58551,61153,28695,0,0,0
58498,61141,28624,0,0,0
58452,61127,28554,0,0,0
58410,61111,28486,0,0,0
58369,61096,28423,0,0,0
58329,61082,28363,0,0,0
58290,61069,28306,0,0,0
58248,61057,28250,0,0,0
58204,61046,28193,0,0,0
58162,61035,28136,0,0,0
58123,61026,28084,0,0,0
58085,61018,28032,0,0,0
58046,61010,27979,0,0,0
58008,61003,27926,0,0,0
57969,60995,27873,0,0,0
57925,60985,27818,0,0,0
57878,60974,27760,0,0,0
57832,60962,27698,0,0,0
57785,60951,27633,0,0,0
57739,60940,27565,0,0,0
57694,60930,27492,0,0,0
57647,60917,27414,0,0,0
57599,60901,27333,0,0,0
57546,60884,27248,0,0,0
57487,60865,27158,0,0,0
57423,60844,27066,0,0,0
57354,60822,26972,0,0,0
57278,60799,26872,0,0,0
57196,60775,26766,0,0,0
57112,60750,26654,0,0,0
57023,60726,26537,0,0,0
56932,60702,26416,0,0,0
56841,60681,26293,0,0,0
56753,60660,26171,0,0,0
56665,60638,26048,0,0,0
56578,60619,25925,0,0,0
56493,60603,25802,0,0,0
56411,60588,25681,0,0,0
56334,60571,25566,0,0,0
56264,60553,25467,0,0,0
56207,60536,25393,0,0,0
56172,60525,25359,0,0,0
56175,60522,25385,0,0,0
56233,60534,25490,0,0,0
56361,60566,25690,0,0,0
56573,60620,25998,0,0,0
56870,60699,26418,0,0,0
57249,60801,26943,0,0,0
57699,60923,27561,0,0,0
58203,61062,28256,0,0,0
58741,61215,29002,0,0,0
59296,61376,29770,0,0,0
59849,61540,30538,0,0,0
60380,61699,31281,0,0,0
60878,61849,31984,0,0,0
61340,61987,32639,0,0,0
61763,62113,33242,0,0,0
62146,62225,33789,0,0,0
62487,62324,34275,0,0,0
62783,62410,34696,0,0,0
63034,62484,35055,0,0,0
63246,62546,35358,0,0,0
63420,62597,35608,0,0,0
63560,62640,35809,0,0,0
63669,62674,35964,0,0,0
63751,62700,36081,0,0,0
63806,62720,36158,0,0,0
63834,62730,36198,0,0,0
63840,62733,36205,0,0,0
63826,62729,36185,0,0,0
63797,62718,36137,0,0,0
63752,62702,36067,0,0,0
63694,62681,35979,0,0,0
63625,62658,35879,0,0,0
63546,62634,35769,0,0,0
63460,62609,35652,0,0,0
63370,62581,35526,0,0,0
63278,62552,35391,0,0,0
63183,62519,35252,0,0,0
63087,62486,35111,0,0,0
62991,62454,34973,0,0,0
62894,62424,34838,0,0,0
62796,62394,34703,0,0,0
62700,62365,34568,0,0,0
62603,62336,34430,0,0,0
62505,62305,34288,0,0,0
62408,62274,34143,0,0,0
62312,62245,33999,0,0,0
62216,62216,33853,0,0,0
62117,62186,33702,0,0,0
62020,62157,33551,0,0,0
61930,62131,33408,0,0,0
61849,62106,33276,0,0,0
61774,62083,33159,0,0,0
61708,62063,33058,0,0,0
61651,62045,32975,0,0,0
61605,62030,32910,0,0,0
61571,62020,32864,0,0,0
61553,62015,32835,0,0,0
61552,62015,32825,0,0,0
61563,62020,32834,0,0,0
61582,62032,32860,0,0,0
61607,62047,32899,0,0,0
61642,62064,32952,0,0,0
61684,62082,33017,0,0,0
61735,62099,33087,0,0,0
61793,62117,33163,0,0,0
61853,62134,33244,0,0,0
61911,62150,33326,0,0,0
61967,62167,33404,0,0,0
62022,62183,33479,0,0,0
62076,62197,33551,0,0,0
62129,62209,33614,0,0,0
62174,62221,33662,0,0,0
62206,62230,33695,0,0,0
62223,62236,33712,0,0,0
62224,62237,33710,0,0,0
62212,62231,33689,0,0,0
62186,62218,33652,0,0,0
62150,62202,33600,0,0,0
62105,62185,33536,0,0,0
62051,62167,33458,0,0,0
61988,62148,33367,0,0,0
61919,62127,33265,0,0,0
61845,62105,33153,0,0,0
61765,62081,33030,0,0,0
61679,62058,32897,0,0,0
61587,62034,32753,0,0,0
61487,62009,32602,0,0,0
61379,61982,32448,0,0,0
61270,61955,32293,0,0,0
61160,61925,32136,0,0,0
61047,61893,31974,0,0,0
60930,61859,31810,0,0,0
60810,61824,31650,0,0,0
60689,61789,31491,0,0,0
60572,61754,31331,0,0,0
60457,61719,31170,0,0,0
60343,61683,31008,0,0,0
60232,61646,30848,0,0,0
60125,61609,30691,0,0,0
60019,61574,30536,0,0,0
59917,61543,30386,0,0,0
59820,61515,30245,0,0,0
59730,61491,30108,0,0,0
59646,61468,29977,0,0,0
59571,61446,29855,0,0,0
59501,61424,29740,0,0,0
59432,61401,29629,0,0,0
59363,61378,29524,0,0,0
59292,61357,29425,0,0,0
59220,61337,29330,0,0,0
59148,61316,29240,0,0,0
59082,61294,29155,0,0,0
59022,61276,29076,0,0,0
58968,61261,29003,0,0,0
58918,61248,28932,0,0,0
58869,61234,28863,0,0,0
58819,61221,28795,0,0,0
58768,61208,28726,0,0,0
58720,61196,28657,0,0,0
58674,61186,28590,0,0,0
58628,61178,28524,0,0,0
58583,61170,28461,0,0,0
58540,61164,28401,0,0,0
58497,61156,28343,0,0,0
58457,61147,28288,0,0,0
58417,61136,28236,0,0,0
58378,61123,28181,0,0,0
58340,61109,28124,0,0,0
58304,61096,28065,0,0,0
58265,61083,28007,0,0,0
58222,61070,27947,0,0,0
58180,61059,27887,0,0,0
58138,61049,27826,0,0,0
58095,61038,27761,0,0,0
58053,61026,27697,0,0,0
58010,61014,27634,0,0,0
57963,61001,27570,0,0,0
57913,60987,27502,0,0,0
57860,60972,27428,0,0,0
57803,60956,27348,0,0,0
57744,60939,27262,0,0,0
57680,60919,27172,0,0,0
57609,60898,27080,0,0,0
57529,60877,26985,0,0,0
57445,60856,26883,0,0,0
57359,60834,26772,0,0,0
57271,60813,26657,0,0,0
57187,60794,26543,0,0,0
57105,60775,26427,0,0,0
57021,60755,26312,0,0,0
56933,60734,26197,0,0,0
56848,60713,26087,0,0,0
56770,60695,25988,0,0,0
56706,60678,25909,0,0,0
56667,60666,25863,0,0,0
56667,60664,25869,0,0,0
56720,60676,25950,0,0,0
56841,60707,26128,0,0,0
57043,60762,26419,0,0,0
57332,60843,26833,0,0,0
57706,60949,27366,0,0,0
58154,61075,28003,0,0,0
58662,61219,28717,0,0,0
59211,61375,29482,0,0,0
59777,61538,30270,0,0,0
60339,61701,31056,0,0,0
60884,61862,31819,0,0,0
61400,62014,32545,0,0,0
61879,62155,33220,0,0,0
62315,62283,33836,0,0,0
62708,62397,34390,0,0,0
63062,62500,34889,0,0,0
63376,62593,35333,0,0,0
63649,62677,35720,0,0,0
63882,62751,36056,0,0,0
64080,62813,36347,0,0,0
64243,62864,36592,0,0,0
64375,62905,36788,0,0,0
64479,62939,36942,0,0,0
64560,62964,37059,0,0,0
64618,62983,37141,0,0,0
64654,62993,37187,0,0,0
64668,62995,37200,0,0,0
64658,62988,37184,0,0,0
64628,62977,37142,0,0,0
64581,62963,37081,0,0,0
64520,62946,37003,0,0,0
64447,62925,36909,0,0,0
64368,62903,36804,0,0,0
64286,62879,36694,0,0,0
64206,62854,36581,0,0,0
64127,62828,36469,0,0,0
64050,62801,36359,0,0,0
63975,62776,36252,0,0,0
63905,62751,36148,0,0,0
63840,62728,36050,0,0,0
63778,62706,35957,0,0,0
63717,62686,35867,0,0,0
63655,62669,35775,0,0,0
63592,62654,35679,0,0,0
63523,62638,35581,0,0,0
63450,62619,35479,0,0,0
63378,62600,35371,0,0,0
63308,62579,35257,0,0,0
63237,62555,35141,0,0,0
63167,62532,35028,0,0,0
63099,62511,34922,0,0,0
63035,62489,34822,0,0,0
62976,62466,34733,0,0,0
62923,62444,34656,0,0,0
62876,62424,34589,0,0,0
62835,62409,34531,0,0,0
62802,62397,34482,0,0,0
62777,62389,34443,0,0,0
62762,62384,34416,0,0,0
62757,62383,34402,0,0,0
62758,62385,34401,0,0,0
62765,62389,34413,0,0,0
62780,62397,34434,0,0,0
62800,62406,34461,0,0,0
62827,62418,34495,0,0,0
62861,62432,34539,0,0,0
62898,62448,34592,0,0,0
62935,62465,34650,0,0,0
62969,62480,34708,0,0,0
62999,62492,34759,0,0,0
63026,62501,34801,0,0,0
63047,62509,34834,0,0,0
63059,62513,34854,0,0,0
63061,62513,34860,0,0,0
63050,62511,34853,0,0,0
63030,62506,34832,0,0,0
63006,62498,34800,0,0,0
62976,62488,34756,0,0,0
62940,62474,34698,0,0,0
62897,62456,34630,0,0,0
62846,62438,34551,0,0,0
62784,62418,34460,0,0,0
62709,62396,34354,0,0,0
62624,62373,34233,0,0,0
62535,62348,34100,0,0,0
62442,62321,33960,0,0,0
62345,62293,33812,0,0,0
62243,62265,33659,0,0,0
62137,62235,33503,0,0,0
62031,62204,33345,0,0,0
61923,62172,33188,0,0,0
61811,62138,33031,0,0,0
61696,62102,32870,0,0,0
61581,62066,32706,0,0,0
61465,62030,32539,0,0,0
61351,61994,32372,0,0,0
61240,61959,32208,0,0,0
61131,61925,32046,0,0,0
61024,61891,31887,0,0,0
60920,61858,31730,0,0,0
60817,61825,31576,0,0,0
60716,61794,31427,0,0,0
60615,61763,31281,0,0,0
60512,61732,31139,0,0,0
60413,61704,31003,0,0,0
60320,61678,30875,0,0,0
60230,61654,30754,0,0,0
60146,61632,30637,0,0,0
60064,61612,30525,0,0,0
59986,61590,30418,0,0,0
59915,61570,30317,0,0,0
59851,61550,30223,0,0,0
59791,61531,30137,0,0,0
59738,61516,30056,0,0,0
59689,61503,29975,0,0,0
59641,61489,29895,0,0,0
59591,61473,29820,0,0,0
59539,61457,29750,0,0,0
59485,61442,29680,0,0,0
59432,61427,29609,0,0,0
59379,61413,29536,0,0,0
59325,61399,29463,0,0,0
59273,61385,29391,0,0,0
59224,61370,29324,0,0,0
59174,61356,29262,0,0,0
59122,61343,29199,0,0,0
59068,61329,29132,0,0,0
59015,61314,29063,0,0,0
58962,61300,28998,0,0,0
58913,61288,28937,0,0,0
58867,61279,28877,0,0,0
58824,61269,28814,0,0,0
58777,61257,28749,0,0,0
58727,61241,28682,0,0,0
58675,61225,28611,0,0,0
58622,61209,28538,0,0,0
58565,61193,28465,0,0,0
58504,61175,28388,0,0,0
58437,61157,28306,0,0,0
58367,61139,28219,0,0,0
58298,61122,28129,0,0,0
58228,61106,28036,0,0,0
58156,61089,27940,0,0,0
58082,61073,27840,0,0,0
58007,61056,27737,0,0,0
57927,61037,27629,0,0,0
57843,61016,27516,0,0,0
57759,60992,27401,0,0,0
57676,60968,27286,0,0,0
57593,60945,27170,0,0,0
57506,60920,27048,0,0,0
57416,60895,26921,0,0,0
57322,60870,26789,0,0,0
57226,60845,26654,0,0,0
57131,60820,26519,0,0,0
57039,60797,26392,0,0,0
56949,60775,26275,0,0,0
56868,60756,26179,0,0,0
56811,60744,26119,0,0,0
56791,60745,26115,0,0,0
56828,60761,26189,0,0,0
56937,60794,26361,0,0,0
57130,60848,26645,0,0,0
57413,60926,27049,0,0,0
57786,61032,27570,0,0,0
58240,61159,28195,0,0,0
58756,61303,28906,0,0,0
59314,61461,29677,0,0,0
59890,61626,30480,0,0,0
60466,61794,31284,0,0,0
61028,61956,32067,0,0,0
61561,62112,32816,0,0,0
62053,62259,33518,0,0,0
62498,62396,34163,0,0,0
62899,62521,34749,0,0,0
63260,62634,35278,0,0,0
63580,62735,35747,0,0,0
63862,62823,36156,0,0,0
64106,62900,36512,0,0,0
64313,62967,36819,0,0,0
64480,63022,37076,0,0,0
64614,63066,37283,0,0,0
64720,63100,37447,0,0,0
64800,63124,37575,0,0,0
64856,63139,37667,0,0,0
64889,63147,37720,0,0,0
64900,63147,37734,0,0,0
64890,63140,37716,0,0,0
64862,63128,37672,0,0,0
64819,63113,37605,0,0,0
64763,63096,37520,0,0,0
64696,63077,37421,0,0,0
64621,63057,37315,0,0,0
64545,63034,37204,0,0,0
64469,63010,37093,0,0,0
64395,62987,36985,0,0,0
64321,62963,36878,0,0,0
64246,62936,36772,0,0,0
64173,62911,36670,0,0,0
64104,62887,36575,0,0,0
64037,62867,36482,0,0,0
63974,62850,36391,0,0,0
63915,62835,36299,0,0,0
63852,62820,36204,0,0,0
63783,62802,36102,0,0,0
63711,62781,35993,0,0,0
63638,62759,35881,0,0,0
63562,62736,35766,0,0,0
63486,62711,35648,0,0,0
63411,62686,35531,0,0,0
63336,62661,35418,0,0,0
63263,62636,35309,0,0,0
63196,62611,35207,0,0,0
63136,62589,35115,0,0,0
63084,62570,35033,0,0,0
63037,62554,34961,0,0,0
62994,62540,34902,0,0,0
62959,62527,34856,0,0,0
62937,62519,34824,0,0,0
62926,62515,34807,0,0,0
62922,62515,34805,0,0,0
62928,62516,34814,0,0,0
62945,62519,34834,0,0,0
62970,62525,34862,0,0,0
62998,62532,34895,0,0,0
63029,62543,34931,0,0,0
63061,62556,34970,0,0,0
63093,62569,35011,0,0,0
63123,62581,35050,0,0,0
63150,62594,35087,0,0,0
63171,62606,35121,0,0,0
63189,62614,35150,0,0,0
63203,62619,35170,0,0,0
63214,62622,35180,0,0,0
63219,62622,35178,0,0,0
63210,62618,35159,0,0,0
63187,62612,35128,0,0,0
63155,62602,35086,0,0,0
63117,62588,35031,0,0,0
63069,62571,34961,0,0,0
63010,62551,34879,0,0,0
62943,62528,34788,0,0,0
62872,62504,34688,0,0,0
62792,62478,34575,0,0,0
62701,62449,34449,0,0,0
62605,62417,34311,0,0,0
62506,62383,34162,0,0,0
62404,62350,34005,0,0,0
62298,62319,33842,0,0,0
62187,62289,33678,0,0,0
62072,62257,33512,0,0,0
61953,62220,33342,0,0,0
61833,62181,33167,0,0,0
61712,62141,32989,0,0,0
61591,62102,32810,0,0,0
61472,62064,32632,0,0,0
61358,62027,32456,0,0,0
61248,61991,32281,0,0,0
61137,61956,32110,0,0,0
61027,61921,31944,0,0,0
60917,61888,31784,0,0,0
60808,61857,31627,0,0,0
60698,61827,31474,0,0,0
60589,61798,31322,0,0,0
60482,61768,31171,0,0,0
60377,61739,31022,0,0,0
60272,61708,30874,0,0,0
60169,61677,30725,0,0,0
60070,61647,30582,0,0,0
59977,61619,30445,0,0,0
59886,61593,30314,0,0,0
59797,61568,30185,0,0,0
59709,61543,30060,0,0,0
59622,61517,29940,0,0,0
59538,61490,29826,0,0,0
59455,61465,29716,0,0,0
59375,61441,29611,0,0,0
59299,61420,29509,0,0,0
59225,61399,29407,0,0,0
59153,61378,29309,0,0,0
59087,61361,29216,0,0,0
59025,61345,29129,0,0,0
58963,61328,29048,0,0,0
58901,61309,28970,0,0,0
58838,61288,28895,0,0,0
58775,61268,28821,0,0,0
58710,61250,28744,0,0,0
58646,61231,28660,0,0,0
58583,61213,28571,0,0,0
58521,61195,28485,0,0,0
58459,61178,28402,0,0,0
58399,61160,28323,0,0,0
58341,61144,28249,0,0,0
58283,61129,28178,0,0,0
58227,61115,28108,0,0,0
58173,61100,28037,0,0,0
58117,61084,27960,0,0,0
58056,61070,27875,0,0,0
57992,61056,27783,0,0,0
57926,61042,27686,0,0,0
57857,61027,27587,0,0,0
57788,61011,27486,0,0,0
57722,60994,27382,0,0,0
57657,60973,27276,0,0,0
57587,60951,27171,0,0,0
57511,60930,27065,0,0,0
57431,60908,26955,0,0,0
57348,60885,26844,0,0,0
57263,60860,26733,0,0,0
57177,60835,26622,0,0,0
57091,60811,26509,0,0,0
57004,60787,26391,0,0,0
56913,60764,26269,0,0,0
56820,60739,26146,0,0,0
56726,60714,26025,0,0,0
56634,60689,25904,0,0,0
56544,60664,25780,0,0,0
56454,60640,25655,0,0,0
56365,60618,25536,0,0,0
56286,60598,25433,0,0,0
56226,60585,25359,0,0,0
56197,60580,25331,0,0,0
56215,60586,25367,0,0,0
56297,60609,25492,0,0,0
56457,60653,25722,0,0,0
56703,60724,26071,0,0,0
57036,60818,26538,0,0,0
57453,60933,27122,0,0,0
57945,61070,27810,0,0,0
58495,61224,28580,0,0,0
59081,61392,29401,0,0,0
59682,61563,30246,0,0,0
60277,61734,31086,0,0,0
60851,61900,31896,0,0,0
61391,62059,32658,0,0,0
61893,62207,33364,0,0,0
62351,62346,34006,0,0,0
62761,62474,34584,0,0,0
63120,62588,35094,0,0,0
63431,62688,35540,0,0,0
63697,62774,35926,0,0,0
63920,62843,36254,0,0,0
64104,62899,36526,0,0,0
64255,62943,36746,0,0,0
64374,62978,36917,0,0,0
64462,63003,37045,0,0,0
64523,63020,37134,0,0,0
64559,63030,37185,0,0,0
64570,63031,37198,0,0,0
64556,63025,37177,0,0,0
64523,63014,37124,0,0,0
64473,62997,37046,0,0,0
64409,62977,36951,0,0,0
64332,62952,36844,0,0,0
64244,62922,36728,0,0,0
64145,62887,36602,0,0,0
64042,62850,36466,0,0,0
63940,62816,36325,0,0,0
63842,62784,36184,0,0,0
63750,62755,36044,0,0,0
63662,62728,35906,0,0,0
63578,62702,35770,0,0,0
63494,62679,35639,0,0,0
63410,62656,35513,0,0,0
63326,62631,35389,0,0,0
63243,62605,35266,0,0,0
63157,62578,35140,0,0,0
63069,62553,35007,0,0,0
62977,62528,34865,0,0,0
62881,62502,34720,0,0,0
62782,62473,34576,0,0,0
62687,62442,34440,0,0,0
62598,62411,34311,0,0,0
62517,62382,34195,0,0,0
62444,62356,34092,0,0,0
62382,62334,34002,0,0,0
62330,62314,33924,0,0,0
62289,62297,33861,0,0,0
62260,62285,33814,0,0,0
62241,62277,33782,0,0,0
62231,62272,33763,0,0,0
62226,62271,33756,0,0,0
62226,62274,33761,0,0,0
62231,62277,33776,0,0,0
62242,62281,33801,0,0,0
62256,62288,33834,0,0,0
62276,62298,33875,0,0,0
62303,62312,33920,0,0,0
62335,62327,33968,0,0,0
62368,62343,34015,0,0,0
62400,62357,34058,0,0,0
62429,62369,34094,0,0,0
62450,62378,34120,0,0,0
62465,62383,34140,0,0,0
62478,62386,34158,0,0,0
62486,62387,34168,0,0,0
62488,62385,34168,0,0,0
62486,62379,34157,0,0,0
62475,62371,34129,0,0,0
62452,62359,34083,0,0,0
62414,62342,34022,0,0,0
62364,62321,33947,0,0,0
62302,62297,33857,0,0,0
62230,62273,33751,0,0,0
62151,62249,33633,0,0,0
62063,62224,33502,0,0,0
61969,62197,33359,0,0,0
61868,62166,33209,0,0,0
61760,62134,33054,0,0,0
61647,62101,32898,0,0,0
61529,62070,32740,0,0,0
61405,62038,32576,0,0,0
61278,62005,32405,0,0,0
61149,61970,32227,0,0,0
61019,61937,32044,0,0,0
60887,61903,31857,0,0,0
60753,61864,31666,0,0,0
60618,61825,31474,0,0,0
60484,61785,31283,0,0,0
60348,61743,31092,0,0,0
60213,61701,30904,0,0,0
60083,61659,30719,0,0,0
59956,61618,30539,0,0,0
59835,61580,30364,0,0,0
59720,61545,30200,0,0,0
59611,61513,30046,0,0,0
59507,61481,29897,0,0,0
59407,61448,29752,0,0,0
59308,61417,29612,0,0,0
59211,61386,29480,0,0,0
59120,61357,29356,0,0,0
59036,61331,29238,0,0,0
58957,61308,29128,0,0,0
58885,61290,29023,0,0,0
58819,61275,28925,0,0,0
58753,61261,28832,0,0,0
58689,61249,28745,0,0,0
58631,61237,28664,0,0,0
58573,61223,28584,0,0,0
58513,61206,28505,0,0,0
58450,61188,28429,0,0,0
58391,61172,28358,0,0,0
58335,61157,28289,0,0,0
58284,61144,28223,0,0,0
58234,61132,28161,0,0,0
58181,61118,28101,0,0,0
58123,61103,28038,0,0,0
58060,61088,27972,0,0,0
57995,61072,27901,0,0,0
57928,61050,27823,0,0,0
57862,61026,27736,0,0,0
57794,61004,27643,0,0,0
57726,60984,27547,0,0,0
57659,60965,27450,0,0,0
57595,60946,27354,0,0,0
57535,60929,27260,0,0,0
57479,60912,27170,0,0,0
57422,60895,27080,0,0,0
57362,60876,26985,0,0,0
57297,60855,26885,0,0,0
57231,60833,26784,0,0,0
57161,60808,26677,0,0,0
57082,60780,26563,0,0,0
56994,60751,26444,0,0,0
56898,60722,26324,0,0,0
56794,60693,26201,0,0,0
56685,60663,26075,0,0,0
56577,60634,25948,0,0,0
56473,60608,25820,0,0,0
56372,60585,25692,0,0,0
56276,60565,25568,0,0,0
56183,60548,25452,0,0,0
56097,60532,25346,0,0,0
56020,60518,25256,0,0,0
55961,60509,25192,0,0,0
55934,60508,25172,0,0,0
55952,60520,25216,0,0,0
56026,60548,25346,0,0,0
56175,60594,25583,0,0,0
56410,60662,25939,0,0,0
56734,60752,26411,0,0,0
57137,60863,26987,0,0,0
57612,60994,27654,0,0,0
58148,61144,28397,0,0,0
58724,61307,29190,0,0,0
59318,61475,30010,0,0,0
59911,61644,30833,0,0,0
60488,61809,31633,0,0,0
61036,61967,32390,0,0,0
61540,62115,33089,0,0,0
61994,62250,33724,0,0,0
62395,62370,34293,0,0,0
62741,62476,34790,0,0,0
63034,62568,35215,0,0,0
63278,62647,35572,0,0,0
63476,62712,35865,0,0,0
63631,62764,36099,0,0,0
63749,62804,36278,0,0,0
63832,62831,36408,0,0,0
63884,62847,36494,0,0,0
63906,62852,36539,0,0,0
63898,62849,36546,0,0,0
63868,62839,36519,0,0,0
63821,62824,36461,0,0,0
63757,62805,36372,0,0,0
63674,62784,36256,0,0,0
63578,62762,36121,0,0,0
63471,62736,35970,0,0,0
63353,62703,35801,0,0,0
63227,62667,35622,0,0,0
63097,62629,35439,0,0,0
62963,62593,35254,0,0,0
62827,62555,35066,0,0,0
62691,62518,34876,0,0,0
62554,62480,34686,0,0,0
62413,62440,34495,0,0,0
62267,62398,34303,0,0,0
62117,62355,34109,0,0,0
61963,62310,33910,0,0,0
61808,62265,33705,0,0,0
61651,62219,33495,0,0,0
61495,62176,33284,0,0,0
61340,62134,33075,0,0,0
61186,62092,32870,0,0,0
61035,62050,32669,0,0,0
60891,62010,32480,0,0,0
60758,61974,32308,0,0,0
60639,61943,32158,0,0,0
60538,61920,32030,0,0,0
60454,61901,31921,0,0,0
60383,61884,31830,0,0,0
60321,61868,31757,0,0,0
60273,61858,31702,0,0,0
60244,61853,31670,0,0,0
60233,61853,31659,0,0,0
60235,61857,31667,0,0,0
60248,61864,31689,0,0,0
60273,61872,31723,0,0,0
60307,61884,31768,0,0,0
60348,61898,31822,0,0,0
60394,61912,31883,0,0,0
60444,61926,31949,0,0,0
60495,61941,32020,0,0,0
60542,61956,32089,0,0,0
60581,61970,32154,0,0,0
60612,61982,32210,0,0,0
60636,61992,32256,0,0,0
60652,62001,32290,0,0,0
60659,62006,32309,0,0,0
60658,62006,32312,0,0,0
60651,62003,32300,0,0,0
60633,61995,32272,0,0,0
60603,61985,32231,0,0,0
60566,61972,32179,0,0,0
60523,61957,32116,0,0,0
60473,61940,32041,0,0,0
60413,61921,31950,0,0,0
60344,61898,31847,0,0,0
60265,61870,31734,0,0,0
60178,61840,31609,0,0,0
60083,61808,31472,0,0,0
59983,61775,31323,0,0,0
59878,61739,31163,0,0,0
59771,61700,30994,0,0,0
59661,61659,30821,0,0,0
59549,61620,30647,0,0,0
59438,61583,30474,0,0,0
59325,61547,30305,0,0,0
59213,61510,30139,0,0,0
59107,61472,29978,0,0,0
59006,61437,29821,0,0,0
58907,61404,29670,0,0,0
58808,61374,29522,0,0,0
58706,61343,29378,0,0,0
58605,61314,29237,0,0,0
58505,61287,29100,0,0,0
58406,61260,28964,0,0,0
58310,61231,28827,0,0,0
58217,61201,28693,0,0,0
58127,61170,28562,0,0,0
58042,61141,28438,0,0,0
57963,61114,28320,0,0,0
57890,61089,28211,0,0,0
57819,61065,28107,0,0,0
57748,61041,28005,0,0,0
57677,61019,27907,0,0,0
57607,60999,27806,0,0,0
57538,60980,27705,0,0,0
57473,60963,27606,0,0,0
57410,60945,27509,0,0,0
57347,60927,27412,0,0,0
57283,60906,27315,0,0,0
57220,60885,27219,0,0,0
57159,60866,27124,0,0,0
57100,60850,27035,0,0,0
57044,60835,26949,0,0,0
56988,60820,26863,0,0,0
56933,60806,26780,0,0,0
56879,60795,26704,0,0,0
56829,60785,26634,0,0,0
56782,60775,26570,0,0,0
56738,60765,26510,0,0,0
56696,60756,26451,0,0,0
56654,60747,26393,0,0,0
56613,60738,26335,0,0,0
56574,60728,26276,0,0,0
56536,60715,26214,0,0,0
56497,60700,26151,0,0,0
56456,60683,26084,0,0,0
56411,60665,26015,0,0,0
56361,60646,25942,0,0,0
56307,60627,25864,0,0,0
56248,60609,25782,0,0,0
56181,60591,25696,0,0,0
56107,60573,25604,0,0,0
56031,60556,25508,0,0,0
55954,60539,25411,0,0,0
55875,60521,25313,0,0,0
55797,60503,25212,0,0,0
55720,60486,25108,0,0,0
55647,60470,25002,0,0,0
55576,60454,24897,0,0,0
55507,60439,24796,0,0,0
55439,60424,24699,0,0,0
55373,60411,24606,0,0,0
55313,60400,24522,0,0,0
55266,60393,24460,0,0,0
55247,60390,24435,0,0,0
55267,60395,24465,0,0,0
55340,60413,24572,0,0,0
55480,60451,24776,0,0,0
55699,60510,25089,0,0,0
55999,60593,25518,0,0,0
56377,60699,26056,0,0,0
56828,60824,26697,0,0,0
57346,60968,27429,0,0,0
57923,61129,28229,0,0,0
58539,61303,29071,0,0,0
59169,61483,29927,0,0,0
59793,61664,30773,0,0,0
60394,61837,31589,0,0,0
60956,61999,32355,0,0,0
61470,62148,33060,0,0,0
61931,62285,33698,0,0,0
62339,62409,34266,0,0,0
62694,62519,34760,0,0,0
62996,62612,35182,0,0,0
63252,62689,35543,0,0,0
63467,62753,35849,0,0,0
63645,62804,36101,0,0,0
63785,62844,36300,0,0,0
63889,62876,36450,0,0,0
63957,62900,36553,0,0,0
63994,62915,36614,0,0,0
64006,62921,36640,0,0,0
63997,62919,36635,0,0,0
63971,62912,36602,0,0,0
63932,62902,36544,0,0,0
63881,62887,36467,0,0,0
63818,62867,36378,0,0,0
63745,62841,36277,0,0,0
63665,62814,36165,0,0,0
63582,62788,36045,0,0,0
63500,62762,35920,0,0,0
63418,62736,35789,0,0,0
63332,62708,35656,0,0,0
63244,62679,35525,0,0,0
63160,62650,35397,0,0,0
63083,62622,35272,0,0,0
63008,62594,35150,0,0,0
62936,62568,35031,0,0,0
62867,62542,34912,0,0,0
62798,62517,34793,0,0,0
62729,62492,34671,0,0,0
62658,62467,34549,0,0,0
62586,62442,34424,0,0,0
62511,62417,34292,0,0,0
62434,62391,34156,0,0,0
62351,62364,34024,0,0,0
62266,62338,33898,0,0,0
62183,62313,33782,0,0,0
62109,62293,33679,0,0,0
62042,62277,33591,0,0,0
61983,62261,33516,0,0,0
61932,62248,33455,0,0,0
61890,62238,33405,0,0,0
61859,62234,33370,0,0,0
61838,62233,33349,0,0,0
61823,62231,33342,0,0,0
61815,62229,33346,0,0,0
61819,62229,33361,0,0,0
61836,62232,33384,0,0,0
61863,62237,33415,0,0,0
61897,62243,33453,0,0,0
61936,62251,33498,0,0,0
61977,62261,33546,0,0,0
62017,62270,33594,0,0,0
62053,62279,33642,0,0,0
62088,62290,33690,0,0,0
62121,62301,33736,0,0,0
62148,62310,33773,0,0,0
62168,62315,33797,0,0,0
62181,62319,33809,0,0,0
62186,62320,33809,0,0,0
62180,62318,33795,0,0,0
62165,62314,33767,0,0,0
62141,62308,33725,0,0,0
62107,62298,33666,0,0,0
62062,62286,33590,0,0,0
62005,62271,33501,0,0,0
61939,62251,33406,0,0,0
61862,62227,33302,0,0,0
61774,62201,33187,0,0,0
61676,62175,33060,0,0,0
61572,62147,32924,0,0,0
61463,62116,32779,0,0,0
61354,62083,32622,0,0,0
61245,62050,32459,0,0,0
61131,62016,32291,0,0,0
61012,61980,32116,0,0,0
60889,61941,31933,0,0,0
60763,61902,31749,0,0,0
60636,61863,31567,0,0,0
60510,61825,31386,0,0,0
60384,61788,31205,0,0,0
60258,61751,31029,0,0,0
60137,61716,30859,0,0,0
60022,61683,30694,0,0,0
59914,61651,30531,0,0,0
59810,61620,30370,0,0,0
59706,61588,30213,0,0,0
59601,61555,30059,0,0,0
59500,61522,29911,0,0,0
59403,61493,29771,0,0,0
59309,61466,29637,0,0,0
59220,61440,29507,0,0,0
59133,61413,29384,0,0,0
59050,61386,29269,0,0,0
58968,61361,29159,0,0,0
58890,61338,29053,0,0,0
58818,61318,28949,0,0,0
58751,61302,28848,0,0,0
58687,61287,28751,0,0,0
58625,61273,28654,0,0,0
58564,61260,28559,0,0,0
58506,61246,28470,0,0,0
58449,61231,28387,0,0,0
58389,61214,28306,0,0,0
58329,61197,28226,0,0,0
58270,61180,28149,0,0,0
58209,61166,28071,0,0,0
58144,61152,27988,0,0,0
58076,61139,27901,0,0,0
58004,61124,27810,0,0,0
57928,61107,27716,0,0,0
57849,61088,27616,0,0,0
57765,61067,27511,0,0,0
57677,61045,27399,0,0,0
57586,61022,27282,0,0,0
57490,60997,27159,0,0,0
57391,60971,27030,0,0,0
57289,60943,26895,0,0,0
57182,60914,26754,0,0,0
57071,60882,26608,0,0,0
56953,60849,26458,0,0,0
56826,60813,26302,0,0,0
56688,60776,26134,0,0,0
56540,60739,25953,0,0,0
56386,60703,25762,0,0,0
56223,60666,25563,0,0,0
56054,60626,25357,0,0,0
55882,60584,25144,0,0,0
55707,60542,24930,0,0,0
55531,60501,24714,0,0,0
55357,60460,24494,0,0,0
55187,60420,24276,0,0,0
55023,60381,24066,0,0,0
54864,60346,23867,0,0,0
54714,60314,23679,0,0,0
54575,60285,23505,0,0,0
54450,60258,23349,0,0,0
54339,60232,23211,0,0,0
54251,60211,23104,0,0,0
54200,60199,23046,0,0,0
54195,60201,23059,0,0,0
54248,60220,23165,0,0,0
54374,60259,23382,0,0,0
54581,60321,23719,0,0,0
54869,60405,24173,0,0,0
55228,60508,24729,0,0,0
55643,60625,25366,0,0,0
56099,60752,26068,0,0,0
56584,60887,26812,0,0,0
57086,61030,27576,0,0,0
57595,61174,28338,0,0,0
58101,61318,29090,0,0,0
58594,61461,29821,0,0,0
59063,61600,30519,0,0,0
59498,61732,31171,0,0,0
59891,61856,31768,0,0,0
60236,61972,32301,0,0,0
60529,62077,32762,0,0,0
60770,62167,33152,0,0,0
60960,62239,33473,0,0,0
61104,62295,33727,0,0,0
61205,62339,33917,0,0,0
61265,62371,34049,0,0,0
61289,62390,34128,0,0,0
61282,62399,34155,0,0,0
61244,62397,34133,0,0,0
61180,62388,34073,0,0,0
61101,62375,33984,0,0,0
61007,62358,33867,0,0,0
60900,62335,33726,0,0,0
60782,62306,33565,0,0,0
60655,62272,33390,0,0,0
60523,62234,33204,0,0,0
60390,62194,33012,0,0,0
60261,62153,32817,0,0,0
60131,62113,32622,0,0,0
60001,62073,32426,0,0,0
59874,62033,32237,0,0,0
59753,61995,32059,0,0,0
59639,61959,31893,0,0,0
59530,61925,31738,0,0,0
59428,61892,31589,0,0,0
59332,61861,31446,0,0,0
59239,61831,31305,0,0,0
59142,61801,31159,0,0,0
59034,61771,31005,0,0,0
58915,61739,30840,0,0,0
58789,61707,30667,0,0,0
58656,61675,30488,0,0,0
58521,61641,30308,0,0,0
58388,61607,30132,0,0,0
58261,61575,29965,0,0,0
58144,61542,29809,0,0,0
58037,61511,29665,0,0,0
57942,61481,29537,0,0,0
57862,61455,29427,0,0,0
57796,61433,29334,0,0,0
57743,61415,29260,0,0,0
57704,61402,29203,0,0,0
57676,61393,29162,0,0,0
57660,61388,29137,0,0,0
57657,61387,29129,0,0,0
57667,61391,29140,0,0,0
57689,61398,29170,0,0,0
57722,61408,29216,0,0,0
57767,61422,29276,0,0,0
57821,61440,29346,0,0,0
57878,61460,29422,0,0,0
57935,61481,29500,0,0,0
57992,61501,29576,0,0,0
58047,61519,29647,0,0,0
58098,61535,29710,0,0,0
58148,61548,29761,0,0,0
58196,61561,29798,0,0,0
58238,61571,29823,0,0,0
58269,61580,29837,0,0,0
58289,61583,29838,0,0,0
58297,61582,29826,0,0,0
58293,61577,29800,0,0,0
58279,61570,29760,0,0,0
58254,61561,29706,0,0,0
58218,61550,29640,0,0,0
58174,61535,29563,0,0,0
58121,61516,29474,0,0,0
58060,61492,29372,0,0,0
57990,61463,29260,0,0,0
57911,61430,29140,0,0,0
57826,61397,29010,0,0,0
57734,61363,28870,0,0,0
57638,61330,28725,0,0,0
57541,61298,28576,0,0,0
57443,61269,28421,0,0,0
57342,61242,28261,0,0,0
57241,61215,28100,0,0,0
57139,61188,27938,0,0,0
57034,61157,27771,0,0,0
56927,61125,27604,0,0,0
56820,61093,27440,0,0,0
56715,61063,27283,0,0,0
56612,61034,27131,0,0,0
56513,61008,26981,0,0,0
56415,60982,26835,0,0,0
56317,60956,26692,0,0,0
56223,60930,26554,0,0,0
56133,60904,26424,0,0,0
56046,60879,26300,0,0,0
55962,60855,26177,0,0,0
55881,60832,26055,0,0,0
55805,60811,25937,0,0,0
55730,60793,25826,0,0,0
55658,60775,25724,0,0,0
55590,60757,25629,0,0,0
55528,60738,25540,0,0,0
55473,60721,25457,0,0,0
55422,60704,25379,0,0,0
55372,60689,25304,0,0,0
55324,60676,25234,0,0,0
55280,60664,25170,0,0,0
55237,60651,25111,0,0,0
55196,60639,25055,0,0,0
55158,60629,25003,0,0,0
55123,60622,24953,0,0,0
55089,60615,24903,0,0,0
55055,60606,24852,0,0,0
55024,60598,24803,0,0,0
54997,60592,24757,0,0,0
54972,60585,24713,0,0,0
54950,60579,24672,0,0,0
54930,60575,24638,0,0,0
54911,60570,24608,0,0,0
54891,60563,24576,0,0,0
54870,60553,24540,0,0,0
54846,60544,24504,0,0,0
54819,60535,24466,0,0,0
54791,60525,24426,0,0,0
54763,60513,24382,0,0,0
54734,60500,24334,0,0,0
54700,60488,24282,0,0,0
54665,60478,24226,0,0,0
54629,60467,24164,0,0,0
54590,60454,24096,0,0,0
54547,60441,24022,0,0,0
54496,60427,23944,0,0,0
54440,60412,23862,0,0,0
54381,60396,23775,0,0,0
54322,60381,23683,0,0,0
54260,60365,23587,0,0,0
54196,60349,23489,0,0,0
54132,60334,23391,0,0,0
54067,60319,23294,0,0,0
54000,60303,23197,0,0,0
53933,60286,23100,0,0,0
53866,60270,23005,0,0,0
53803,60255,22915,0,0,0
53748,60241,22834,0,0,0
53704,60228,22769,0,0,0
53679,60219,22734,0,0,0
53685,60218,22743,0,0,0
53738,60227,22819,0,0,0
53854,60253,22985,0,0,0
54049,60301,23260,0,0,0
54330,60372,23654,0,0,0
54698,60469,24166,0,0,0
55147,60590,24792,0,0,0
55667,60732,25516,0,0,0
56244,60890,26314,0,0,0
56865,61063,27166,0,0,0
57517,61247,28054,0,0,0
58183,61435,28955,0,0,0
58844,61623,29841,0,0,0
59478,61804,30691,0,0,0
60074,61974,31488,0,0,0
60622,62130,32219,0,0,0
61114,62269,32875,0,0,0
61544,62390,33450,0,0,0
61916,62497,33947,0,0,0
62231,62587,34369,0,0,0
62491,62661,34718,0,0,0
62702,62720,34999,0,0,0
62869,62768,35219,0,0,0
62990,62804,35383,0,0,0
63069,62830,35496,0,0,0
63111,62845,35566,0,0,0
63123,62848,35598,0,0,0
63111,62842,35596,0,0,0
63077,62827,35565,0,0,0
63026,62808,35507,0,0,0
62963,62786,35427,0,0,0
62889,62762,35326,0,0,0
62803,62735,35206,0,0,0
62707,62706,35067,0,0,0
62601,62676,34916,0,0,0
62489,62645,34758,0,0,0
62374,62611,34597,0,0,0
62260,62577,34434,0,0,0
62146,62542,34269,0,0,0
62034,62505,34102,0,0,0
61924,62468,33934,0,0,0
61814,62433,33768,0,0,0
61703,62400,33605,0,0,0
61593,62366,33442,0,0,0
61481,62330,33278,0,0,0
61365,62293,33110,0,0,0
61245,62255,32940,0,0,0
61124,62219,32766,0,0,0
61004,62184,32589,0,0,0
60886,62148,32415,0,0,0
60773,62111,32248,0,0,0
60664,62077,32092,0,0,0
60561,62045,31950,0,0,0
60469,62020,31826,0,0,0
60394,62000,31724,0,0,0
60339,61987,31641,0,0,0
60299,61978,31575,0,0,0
60272,61971,31531,0,0,0
60256,61967,31509,0,0,0
60251,61966,31502,0,0,0
60256,61968,31511,0,0,0
60272,61972,31536,0,0,0
60300,61977,31577,0,0,0
60337,61985,31628,0,0,0
60384,61997,31688,0,0,0
60438,62012,31760,0,0,0
60497,62028,31838,0,0,0
60558,62043,31916,0,0,0
60619,62056,31995,0,0,0
60675,62069,32071,0,0,0
60724,62083,32140,0,0,0
60765,62098,32197,0,0,0
60794,62111,32241,0,0,0
60815,62121,32272,0,0,0
60828,62129,32288,0,0,0
60831,62134,32287,0,0,0
60818,62132,32269,0,0,0
60791,62127,32234,0,0,0
60754,62117,32183,0,0,0
60704,62102,32115,0,0,0
60642,62084,32030,0,0,0
60569,62064,31930,0,0,0
60484,62042,31812,0,0,0
60386,62015,31676,0,0,0
60275,61983,31524,0,0,0
60153,61949,31360,0,0,0
60023,61914,31183,0,0,0
59886,61878,30993,0,0,0
59744,61838,30795,0,0,0
59599,61794,30594,0,0,0
59451,61749,30389,0,0,0
59303,61703,30176,0,0,0
59157,61656,29959,0,0,0
59012,61611,29743,0,0,0
58867,61565,29532,0,0,0
58721,61520,29323,0,0,0
58573,61475,29116,0,0,0
58423,61432,28911,0,0,0
58272,61389,28709,0,0,0
58121,61347,28510,0,0,0
57974,61306,28312,0,0,0
57832,61266,28118,0,0,0
57696,61228,27932,0,0,0
57565,61191,27754,0,0,0
57439,61156,27583,0,0,0
57320,61124,27419,0,0,0
57207,61095,27263,0,0,0
57100,61067,27116,0,0,0
57000,61042,26982,0,0,0
56908,61018,26861,0,0,0
56822,60994,26750,0,0,0
56745,60970,26647,0,0,0
56674,60947,26550,0,0,0
56607,60926,26457,0,0,0
56544,60908,26366,0,0,0
56486,60892,26276,0,0,0
56430,60876,26188,0,0,0
56372,60861,26104,0,0,0
56310,60845,26023,0,0,0
56247,60828,25945,0,0,0
56185,60811,25870,0,0,0
56125,60794,25795,0,0,0
56067,60777,25722,0,0,0
56010,60761,25652,0,0,0
55955,60747,25582,0,0,0
55901,60734,25510,0,0,0
55849,60723,25439,0,0,0
55797,60712,25365,0,0,0
55746,60700,25289,0,0,0
55695,60687,25213,0,0,0
55640,60672,25134,0,0,0
55581,60656,25055,0,0,0
55519,60641,24979,0,0,0
55454,60624,24905,0,0,0
55388,60608,24831,0,0,0
55323,60591,24754,0,0,0
55256,60574,24673,0,0,0
55186,60557,24589,0,0,0
55111,60540,24497,0,0,0
55037,60522,24398,0,0,0
54965,60507,24296,0,0,0
54890,60491,24191,0,0,0
54811,60473,24084,0,0,0
54732,60454,23976,0,0,0
54652,60436,23866,0,0,0
54570,60416,23753,0,0,0
54488,60394,23635,0,0,0
54408,60371,23518,0,0,0
54330,60349,23406,0,0,0
54254,60326,23301,0,0,0
54184,60305,23207,0,0,0
54131,60289,23138,0,0,0
54106,60282,23111,0,0,0
54125,60289,23148,0,0,0
54206,60314,23269,0,0,0
54359,60358,23488,0,0,0
54596,60423,23821,0,0,0
54915,60507,24273,0,0,0
55314,60612,24841,0,0,0
55790,60738,25510,0,0,0
56332,60882,26262,0,0,0
56921,61042,27075,0,0,0
57545,61214,27929,0,0,0
58183,61393,28800,0,0,0
58813,61573,29662,0,0,0
59421,61747,30493,0,0,0
59991,61911,31276,0,0,0
60513,62065,31996,0,0,0
60983,62206,32644,0,0,0
61397,62331,33216,0,0,0
61755,62438,33712,0,0,0
62057,62528,34134,0,0,0
62308,62603,34486,0,0,0
62514,62665,34772,0,0,0
62678,62714,34999,0,0,0
62800,62751,35173,0,0,0
62887,62778,35299,0,0,0
62946,62796,35379,0,0,0
62979,62806,35421,0,0,0
62986,62811,35430,0,0,0
62970,62809,35406,0,0,0
62932,62798,35351,0,0,0
62878,62780,35273,0,0,0
62810,62758,35176,0,0,0
62730,62733,35060,0,0,0
62639,62704,34929,0,0,0
62541,62674,34788,0,0,0
62435,62642,34640,0,0,0
62324,62608,34483,0,0,0
62213,62574,34321,0,0,0
62101,62541,34157,0,0,0
61988,62506,33994,0,0,0
61873,62471,33833,0,0,0
61760,62436,33674,0,0,0
61650,62401,33515,0,0,0
61540,62367,33355,0,0,0
61428,62332,33191,0,0,0
61314,62296,33025,0,0,0
61199,62260,32857,0,0,0
61085,62224,32683,0,0,0
60972,62187,32504,0,0,0
60861,62152,32326,0,0,0
60751,62120,32154,0,0,0
60645,62089,31993,0,0,0
60543,62061,31844,0,0,0
60447,62036,31710,0,0,0
60362,62016,31596,0,0,0
60290,61998,31506,0,0,0
60234,61984,31440,0,0,0
60194,61976,31396,0,0,0
60170,61972,31372,0,0,0
60158,61969,31366,0,0,0
60156,61968,31377,0,0,0
60169,61970,31407,0,0,0
60196,61979,31453,0,0,0
60235,61992,31515,0,0,0
60286,62008,31590,0,0,0
60347,62027,31675,0,0,0
60413,62048,31767,0,0,0
60484,62071,31862,0,0,0
60555,62094,31956,0,0,0
60622,62115,32045,0,0,0
60682,62133,32125,0,0,0
60737,62149,32194,0,0,0
60781,62163,32250,0,0,0
60813,62173,32291,0,0,0
60832,62178,32317,0,0,0
60839,62176,32326,0,0,0
60832,62171,32314,0,0,0
60813,62165,32284,0,0,0
60783,62155,32238,0,0,0
60743,62142,32173,0,0,0
60695,62125,32091,0,0,0
60637,62105,31997,0,0,0
60568,62082,31891,0,0,0
60487,62056,31770,0,0,0
60393,62026,31636,0,0,0
60291,61995,31491,0,0,0
60181,61963,31336,0,0,0
60064,61929,31170,0,0,0
59941,61896,30996,0,0,0
59815,61862,30815,0,0,0
59684,61826,30628,0,0,0
59549,61787,30438,0,0,0
59410,61747,30249,0,0,0
59269,61707,30056,0,0,0
59127,61665,29860,0,0,0
58986,61622,29663,0,0,0
58849,61578,29469,0,0,0
58716,61536,29280,0,0,0
58587,61496,29098,0,0,0
58462,61460,28922,0,0,0
58346,61428,28754,0,0,0
58235,61400,28596,0,0,0
58126,61374,28448,0,0,0
58018,61348,28307,0,0,0
57911,61321,28170,0,0,0
57806,61293,28036,0,0,0
57704,61264,27903,0,0,0
57603,61233,27769,0,0,0
57505,61202,27636,0,0,0
57412,61173,27504,0,0,0
57325,61144,27376,0,0,0
57242,61116,27249,0,0,0
57165,61090,27130,0,0,0
57093,61068,27018,0,0,0
57021,61047,26912,0,0,0
56948,61027,26811,0,0,0
56877,61009,26717,0,0,0
56811,60993,26627,0,0,0
56748,60977,26539,0,0,0
56688,60963,26456,0,0,0
56628,60949,26380,0,0,0
56565,60933,26305,0,0,0
56500,60918,26227,0,0,0
56433,60902,26146,0,0,0
56370,60889,26068,0,0,0
56314,60877,25993,0,0,0
56262,60864,25917,0,0,0
56213,60850,25842,0,0,0
56166,60836,25768,0,0,0
56117,60823,25692,0,0,0
56065,60811,25612,0,0,0
56011,60800,25533,0,0,0
55957,60789,25457,0,0,0
55898,60777,25380,0,0,0
55835,60762,25298,0,0,0
55770,60744,25214,0,0,0
55700,60726,25127,0,0,0
55627,60708,25035,0,0,0
55552,60689,24938,0,0,0
55475,60669,24837,0,0,0
55395,60649,24735,0,0,0
55313,60627,24632,0,0,0
55231,60604,24525,0,0,0
55150,60582,24418,0,0,0
55074,60562,24319,0,0,0
55007,60546,24236,0,0,0
54958,60536,24183,0,0,0
54943,60534,24178,0,0,0
54978,60544,24242,0,0,0
55081,60571,24397,0,0,0
55265,60620,24665,0,0,0
55531,60692,25054,0,0,0
55877,60787,25562,0,0,0
56301,60905,26173,0,0,0
56793,61042,26867,0,0,0
57337,61192,27624,0,0,0
57919,61354,28428,0,0,0
58520,61522,29258,0,0,0
59123,61694,30089,0,0,0
59716,61867,30904,0,0,0
60287,62035,31684,0,0,0
60821,62193,32408,0,0,0
61305,62336,33069,0,0,0
61734,62466,33665,0,0,0
62109,62582,34193,0,0,0
62433,62681,34650,0,0,0
62709,62766,35041,0,0,0
62936,62835,35369,0,0,0
63116,62892,35637,0,0,0
63257,62938,35849,0,0,0
63365,62975,36009,0,0,0
63445,63002,36126,0,0,0
63498,63022,36203,0,0,0
63525,63034,36244,0,0,0
63529,63037,36252,0,0,0
63517,63030,36232,0,0,0
63488,63018,36188,0,0,0
63445,63001,36124,0,0,0
63387,62980,36044,0,0,0
63321,62959,35954,0,0,0
63248,62937,35852,0,0,0
63166,62911,35737,0,0,0
63080,62883,35615,0,0,0
62990,62855,35487,0,0,0
62899,62829,35355,0,0,0
62810,62804,35225,0,0,0
62723,62780,35096,0,0,0
62636,62756,34966,0,0,0
62552,62732,34837,0,0,0
62469,62709,34712,0,0,0
62386,62685,34589,0,0,0
62303,62658,34465,0,0,0
62219,62628,34334,0,0,0
62130,62597,34200,0,0,0
62036,62567,34063,0,0,0
61938,62538,33924,0,0,0
61841,62508,33782,0,0,0
61747,62476,33641,0,0,0
61657,62444,33509,0,0,0
61573,62415,33390,0,0,0
61497,62389,33282,0,0,0
61430,62367,33184,0,0,0
61373,62349,33097,0,0,0
61325,62334,33023,0,0,0
61282,62322,32960,0,0,0
61248,62313,32911,0,0,0
61224,62308,32877,0,0,0
61209,62305,32859,0,0,0
61202,62305,32856,0,0,0
61202,62309,32865,0,0,0
61210,62317,32888,0,0,0
61228,62327,32920,0,0,0
61252,62338,32961,0,0,0
61281,62350,33010,0,0,0
61316,62362,33065,0,0,0
61354,62374,33119,0,0,0
61394,62384,33167,0,0,0
61430,62391,33210,0,0,0
61460,62396,33246,0,0,0
61483,62400,33272,0,0,0
61495,62403,33286,0,0,0
61495,62404,33289,0,0,0
61489,62404,33282,0,0,0
61477,62402,33263,0,0,0
61457,62396,33230,0,0,0
61427,62387,33180,0,0,0
61387,62375,33116,0,0,0
61337,62359,33041,0,0,0
61276,62342,32956,0,0,0
61208,62324,32861,0,0,0
61133,62303,32755,0,0,0
61050,62277,32630,0,0,0
60957,62246,32485,0,0,0
60855,62211,32327,0,0,0
60744,62173,32162,0,0,0
60624,62133,31992,0,0,0
60498,62091,31815,0,0,0
60370,62051,31632,0,0,0
60240,62014,31445,0,0,0
60111,61979,31258,0,0,0
59984,61945,31072,0,0,0
59859,61912,30887,0,0,0
59734,61879,30704,0,0,0
59609,61846,30524,0,0,0
59486,61811,30347,0,0,0
59370,61778,30175,0,0,0
59259,61745,30009,0,0,0
59148,61711,29845,0,0,0
59037,61679,29683,0,0,0
58926,61649,29523,0,0,0
58815,61619,29367,0,0,0
58703,61588,29216,0,0,0
58592,61559,29071,0,0,0
58487,61529,28930,0,0,0
58390,61502,28798,0,0,0
58300,61476,28673,0,0,0
58217,61450,28552,0,0,0
58137,61425,28436,0,0,0
58064,61402,28324,0,0,0
57994,61380,28218,0,0,0
57926,61359,28118,0,0,0
57862,61339,28024,0,0,0
57799,61319,27934,0,0,0
57737,61300,27847,0,0,0
57676,61281,27760,0,0,0
57618,61262,27673,0,0,0
57561,61244,27585,0,0,0
57500,61227,27499,0,0,0
57437,61209,27416,0,0,0
57375,61194,27339,0,0,0
57315,61180,27261,0,0,0
57254,61165,27183,0,0,0
57195,61151,27106,0,0,0
57142,61138,27031,0,0,0
57091,61125,26953,0,0,0
57041,61111,26872,0,0,0
56994,61098,26797,0,0,0
56947,61085,26727,0,0,0
56897,61072,26657,0,0,0
56846,61057,26587,0,0,0
56797,61039,26518,0,0,0
56748,61020,26448,0,0,0
56694,61002,26377,0,0,0
56637,60986,26304,0,0,0
56578,60970,26227,0,0,0
56517,60954,26143,0,0,0
56453,60938,26056,0,0,0
56386,60924,25965,0,0,0
56315,60910,25872,0,0,0
56240,60896,25773,0,0,0
56160,60880,25667,0,0,0
56078,60860,25556,0,0,0
55995,60837,25443,0,0,0
55909,60812,25327,0,0,0
55824,60786,25209,0,0,0
55742,60763,25093,0,0,0
55663,60743,24980,0,0,0
55589,60725,24872,0,0,0
55526,60710,24777,0,0,0
55480,60698,24708,0,0,0
55457,60693,24680,0,0,0
55472,60700,24713,0,0,0
55542,60720,24824,0,0,0
55683,60759,25037,0,0,0
55905,60820,25369,0,0,0
56209,60905,25819,0,0,0
56596,61014,26378,0,0,0
57059,61143,27034,0,0,0
57589,61291,27771,0,0,0
58168,61456,28569,0,0,0
58776,61631,29401,0,0,0
59388,61809,30243,0,0,0
59987,61987,31071,0,0,0
60558,62159,31864,0,0,0
61092,62321,32607,0,0,0
61583,62470,33288,0,0,0
62022,62605,33898,0,0,0
62407,62723,34437,0,0,0
62739,62824,34906,0,0,0
63020,62910,35306,0,0,0
63256,62983,35647,0,0,0
63456,63043,35932,0,0,0
63619,63093,36166,0,0,0
63747,63132,36355,0,0,0
63840,63160,36500,0,0,0
63906,63180,36604,0,0,0
63950,63192,36670,0,0,0
63975,63198,36708,0,0,0
63986,63199,36720,0,0,0
63981,63196,36705,0,0,0
63958,63188,36665,0,0,0
63919,63178,36607,0,0,0
63871,63166,36531,0,0,0
63816,63149,36443,0,0,0
63755,63128,36344,0,0,0
63690,63105,36240,0,0,0
63621,63082,36132,0,0,0
63546,63059,36022,0,0,0
63469,63034,35913,0,0,0
63391,63007,35805,0,0,0
63314,62981,35702,0,0,0
63244,62958,35602,0,0,0
63181,62937,35504,0,0,0
63120,62917,35406,0,0,0
63058,62896,35306,0,0,0
62991,62875,35202,0,0,0
62917,62853,35094,0,0,0
62841,62831,34982,0,0,0
62762,62808,34865,0,0,0
62681,62784,34744,0,0,0
62599,62759,34618,0,0,0
62514,62735,34492,0,0,0
62430,62711,34371,0,0,0
62351,62687,34256,0,0,0
62280,62665,34153,0,0,0
62217,62644,34061,0,0,0
62162,62625,33979,0,0,0
62115,62608,33905,0,0,0
62076,62591,33841,0,0,0
62045,62576,33789,0,0,0
62024,62566,33751,0,0,0
62011,62559,33727,0,0,0
62009,62556,33714,0,0,0
62016,62557,33713,0,0,0
62026,62559,33719,0,0,0
62039,62562,33729,0,0,0
62058,62567,33750,0,0,0
62079,62574,33783,0,0,0
62100,62582,33821,0,0,0
62122,62590,33857,0,0,0
62144,62599,33892,0,0,0
62163,62607,33925,0,0,0
62177,62614,33951,0,0,0
62189,62619,33967,0,0,0
62197,62622,33974,0,0,0
62199,62623,33971,0,0,0
62192,62619,33956,0,0,0
62177,62612,33931,0,0,0
62157,62603,33895,0,0,0
62130,62590,33845,0,0,0
62091,62574,33782,0,0,0
62040,62556,33706,0,0,0
61976,62537,33616,0,0,0
61902,62516,33514,0,0,0
61817,62492,33402,0,0,0
61724,62465,33281,0,0,0
61625,62436,33148,0,0,0
61521,62406,33007,0,0,0
61412,62374,32858,0,0,0
61300,62341,32701,0,0,0
61187,62307,32540,0,0,0
61070,62273,32375,0,0,0
60951,62238,32205,0,0,0
60832,62203,32032,0,0,0
60714,62168,31855,0,0,0
60594,62132,31674,0,0,0
60471,62095,31491,0,0,0
60347,62059,31311,0,0,0
60224,62023,31135,0,0,0
60103,61987,30961,0,0,0
59983,61952,30789,0,0,0
59865,61918,30621,0,0,0
59749,61885,30456,0,0,0
59638,61853,30296,0,0,0
59533,61824,30140,0,0,0
59433,61794,29987,0,0,0
59333,61762,29836,0,0,0
59235,61729,29688,0,0,0
59139,61697,29546,0,0,0
59046,61665,29413,0,0,0
58956,61637,29287,0,0,0
58868,61610,29164,0,0,0
58780,61584,29044,0,0,0
58693,61559,28926,0,0,0
58610,61535,28813,0,0,0
58531,61511,28704,0,0,0
58453,61486,28599,0,0,0
58376,61464,28497,0,0,0
58298,61445,28401,0,0,0
58221,61428,28306,0,0,0
58147,61412,28213,0,0,0
58078,61396,28125,0,0,0
58012,61380,28038,0,0,0
57949,61364,27950,0,0,0
57891,61348,27862,0,0,0
57833,61335,27776,0,0,0
57773,61321,27691,0,0,0
57710,61305,27608,0,0,0
57647,61288,27527,0,0,0
57590,61273,27450,0,0,0
57535,61260,27372,0,0,0
57479,61244,27290,0,0,0
57420,61227,27206,0,0,0
57359,61211,27122,0,0,0
57295,61195,27036,0,0,0
57227,61176,26950,0,0,0
57160,61158,26867,0,0,0
57096,61138,26786,0,0,0
57033,61119,26703,0,0,0
56969,61100,26615,0,0,0
56902,61079,26522,0,0,0
56833,61057,26422,0,0,0
56764,61035,26319,0,0,0
56695,61014,26216,0,0,0
56624,60993,26114,0,0,0
56548,60971,26010,0,0,0
56467,60946,25899,0,0,0
56379,60920,25779,0,0,0
56286,60894,25653,0,0,0
56193,60868,25524,0,0,0
56097,60843,25395,0,0,0
55996,60819,25264,0,0,0
55892,60798,25132,0,0,0
55787,60776,25000,0,0,0
55681,60753,24870,0,0,0
55578,60728,24740,0,0,0
55481,60705,24614,0,0,0
55391,60683,24498,0,0,0
55314,60665,24402,0,0,0
55264,60654,24339,0,0,0
55253,60653,24327,0,0,0
55296,60666,24388,0,0,0
55411,60698,24547,0,0,0
55610,60755,24823,0,0,0
55896,60838,25222,0,0,0
56265,60944,25740,0,0,0
56708,61071,26369,0,0,0
57216,61215,27092,0,0,0
57776,61375,27888,0,0,0
58375,61546,28728,0,0,0
58992,61724,29584,0,0,0
59604,61902,30433,0,0,0
60196,62076,31251,0,0,0
60751,62241,32020,0,0,0
61262,62395,32724,0,0,0
61724,62535,33361,0,0,0
62135,62659,33930,0,0,0
62493,62768,34431,0,0,0
62799,62861,34865,0,0,0
63057,62939,35237,0,0,0
63271,63004,35550,0,0,0
63446,63056,35805,0,0,0
63586,63097,36008,0,0,0
63693,63130,36164,0,0,0
63766,63155,36277,0,0,0
63809,63171,36348,0,0,0
63829,63179,36381,0,0,0
63829,63180,36384,0,0,0
63809,63174,36358,0,0,0
63774,63164,36305,0,0,0
63729,63150,36232,0,0,0
63674,63132,36145,0,0,0
63610,63112,36049,0,0,0
63537,63088,35943,0,0,0
63458,63061,35830,0,0,0
63378,63033,35714,0,0,0
63292,63005,35595,0,0,0
63201,62976,35474,0,0,0
63109,62947,35353,0,0,0
63020,62920,35231,0,0,0
62933,62895,35110,0,0,0
62847,62870,34988,0,0,0
62763,62845,34866,0,0,0
62680,62818,34745,0,0,0
62597,62792,34623,0,0,0
62513,62768,34496,0,0,0
62428,62742,34364,0,0,0
62340,62716,34228,0,0,0
62247,62690,34087,0,0,0
62150,62662,33943,0,0,0
62055,62631,33801,0,0,0
61967,62600,33668,0,0,0
61885,62570,33544,0,0,0
61808,62542,33430,0,0,0
61740,62518,33333,0,0,0
61682,62496,33251,0,0,0
61635,62477,33178,0,0,0
61597,62463,33117,0,0,0
61566,62455,33069,0,0,0
61541,62448,33035,0,0,0
61521,62442,33013,0,0,0
61508,62439,33005,0,0,0
61504,62439,33012,0,0,0
61513,62443,33031,0,0,0
61533,62452,33056,0,0,0
61561,62460,33087,0,0,0
61591,62469,33124,0,0,0
61620,62478,33164,0,0,0
61646,62485,33202,0,0,0
61670,62493,33236,0,0,0
61693,62500,33266,0,0,0
61714,62505,33293,0,0,0
61729,62507,33314,0,0,0
61739,62508,33327,0,0,0
61744,62509,33331,0,0,0
61740,62509,33324,0,0,0
61725,62507,33302,0,0,0
61701,62499,33264,0,0,0
61668,62486,33210,0,0,0
61625,62470,33143,0,0,0
61569,62451,33062,0,0,0
61504,62428,32969,0,0,0
61428,62403,32861,0,0,0
61343,62375,32741,0,0,0
61252,62344,32613,0,0,0
61159,62314,32480,0,0,0
61062,62284,32340,0,0,0
60958,62252,32193,0,0,0
60842,62218,32034,0,0,0
60718,62181,31863,0,0,0
60594,62144,31685,0,0,0
60468,62107,31503,0,0,0
60339,62068,31315,0,0,0
60206,62029,31125,0,0,0
60069,61989,30934,0,0,0
59928,61947,30740,0,0,0
59790,61906,30544,0,0,0
59656,61866,30348,0,0,0
59526,61826,30154,0,0,0
59398,61787,29960,0,0,0
59272,61748,29765,0,0,0
59149,61709,29574,0,0,0
59028,61672,29388,0,0,0
58908,61638,29211,0,0,0
58792,61605,29042,0,0,0
58680,61573,28879,0,0,0
58569,61541,28718,0,0,0
58460,61510,28559,0,0,0
58353,61480,28409,0,0,0
58250,61452,28269,0,0,0
58148,61425,28138,0,0,0
58047,61396,28012,0,0,0
57949,61368,27886,0,0,0
57859,61343,27761,0,0,0
57774,61319,27638,0,0,0
57691,61296,27519,0,0,0
57609,61274,27407,0,0,0
57530,61253,27303,0,0,0
57452,61232,27200,0,0,0
57374,61210,27097,0,0,0
57297,61187,26992,0,0,0
57220,61165,26890,0,0,0
57143,61146,26789,0,0,0
57067,61129,26687,0,0,0
56994,61113,26588,0,0,0
56921,61099,26492,0,0,0
56850,61086,26398,0,0,0
56784,61072,26305,0,0,0
56723,61056,26214,0,0,0
56663,61037,26124,0,0,0
56604,61018,26035,0,0,0
56543,60998,25946,0,0,0
56479,60974,25856,0,0,0
56416,60951,25764,0,0,0
56352,60929,25671,0,0,0
56287,60908,25579,0,0,0
56221,60888,25487,0,0,0
56154,60869,25395,0,0,0
56085,60850,25303,0,0,0
56014,60830,25208,0,0,0
55943,60811,25113,0,0,0
55874,60793,25017,0,0,0
55807,60778,24921,0,0,0
55740,60763,24823,0,0,0
55671,60746,24722,0,0,0
55597,60727,24617,0,0,0
55519,60708,24508,0,0,0
55440,60687,24397,0,0,0
55360,60666,24282,0,0,0
55276,60643,24162,0,0,0
55188,60619,24036,0,0,0
55096,60595,23910,0,0,0
55002,60573,23785,0,0,0
54907,60550,23661,0,0,0
54809,60526,23535,0,0,0
54709,60502,23408,0,0,0
54612,60479,23286,0,0,0
54522,60458,23173,0,0,0
54444,60441,23073,0,0,0
54386,60428,22994,0,0,0
54356,60422,22953,0,0,0
54365,60427,22970,0,0,0
54432,60444,23067,0,0,0
54572,60479,23268,0,0,0
54798,60535,23586,0,0,0
55109,60614,24027,0,0,0
55505,60720,24590,0,0,0
55976,60851,25260,0,0,0
56511,61003,26018,0,0,0
57095,61169,26838,0,0,0
57715,61343,27697,0,0,0
58351,61523,28570,0,0,0
58979,61702,29432,0,0,0
59583,61878,30263,0,0,0
60153,62045,31047,0,0,0
60676,62201,31768,0,0,0
61143,62341,32420,0,0,0
61554,62464,32997,0,0,0
61913,62571,33500,0,0,0
62222,62664,33929,0,0,0
62483,62744,34290,0,0,0
62698,62810,34586,0,0,0
62870,62863,34822,0,0,0
63004,62904,35007,0,0,0
63106,62936,35147,0,0,0
63175,62957,35241,0,0,0
63213,62969,35293,0,0,0
63224,62972,35310,0,0,0
63211,62967,35297,0,0,0
63176,62956,35256,0,0,0
63125,62939,35190,0,0,0
63062,62914,35102,0,0,0
62986,62885,34991,0,0,0
62900,62853,34864,0,0,0
62807,62820,34727,0,0,0
62708,62786,34579,0,0,0
62607,62754,34424,0,0,0
62504,62722,34264,0,0,0
62400,62689,34102,0,0,0
62293,62654,33940,0,0,0
62185,62619,33777,0,0,0
62077,62587,33613,0,0,0
61967,62554,33452,0,0,0
61850,62519,33291,0,0,0
61729,62483,33124,0,0,0
61607,62447,32953,0,0,0
61485,62410,32776,0,0,0
61359,62372,32594,0,0,0
61228,62332,32409,0,0,0
61094,62291,32224,0,0,0
60962,62250,32042,0,0,0
60836,62212,31868,0,0,0
60723,62178,31706,0,0,0
60623,62148,31556,0,0,0
60539,62123,31424,0,0,0
60470,62103,31312,0,0,0
60418,62087,31221,0,0,0
60376,62073,31149,0,0,0
60343,62063,31098,0,0,0
60321,62056,31066,0,0,0
60310,62052,31055,0,0,0
60309,62051,31061,0,0,0
60320,62054,31082,0,0,0
60344,62063,31118,0,0,0
60375,62076,31167,0,0,0
60413,62089,31227,0,0,0
60459,62105,31298,0,0,0
60511,62124,31375,0,0,0
60563,62145,31451,0,0,0
60612,62164,31520,0,0,0
60651,62180,31579,0,0,0
60683,62190,31625,0,0,0
60707,62196,31660,0,0,0
60726,62199,31686,0,0,0
60739,62201,31702,0,0,0
60741,62201,31705,0,0,0
60730,62196,31693,0,0,0
60710,62188,31666,0,0,0
60681,62178,31624,0,0,0
60642,62165,31565,0,0,0
60587,62149,31486,0,0,0
60518,62127,31387,0,0,0
60439,62102,31275,0,0,0
60349,62072,31149,0,0,0
60250,62040,31009,0,0,0
60144,62007,30859,0,0,0
60030,61974,30699,0,0,0
59909,61940,30530,0,0,0
59785,61904,30353,0,0,0
59657,61866,30170,0,0,0
59524,61827,29983,0,0,0
59387,61787,29794,0,0,0
59249,61745,29606,0,0,0
59113,61704,29417,0,0,0
58981,61664,29230,0,0,0
58849,61624,29042,0,0,0
58717,61583,28854,0,0,0
58585,61544,28668,0,0,0
58454,61508,28485,0,0,0
58321,61473,28302,0,0,0
58189,61439,28118,0,0,0
58058,61404,27937,0,0,0
57926,61368,27754,0,0,0
57797,61333,27574,0,0,0
57672,61300,27396,0,0,0
57547,61268,27216,0,0,0
57422,61236,27036,0,0,0
57300,61205,26862,0,0,0
57182,61175,26697,0,0,0
57069,61145,26545,0,0,0
56961,61117,26401,0,0,0
56854,61089,26261,0,0,0
56748,61062,26122,0,0,0
56648,61036,25988,0,0,0
56553,61010,25861,0,0,0
56462,60985,25738,0,0,0
56375,60962,25617,0,0,0
56290,60938,25500,0,0,0
56208,60915,25387,0,0,0
56132,60891,25282,0,0,0
56059,60867,25182,0,0,0
55988,60845,25084,0,0,0
55917,60823,24989,0,0,0
55845,60803,24898,0,0,0
55778,60788,24812,0,0,0
55716,60774,24731,0,0,0
55658,60760,24652,0,0,0
55603,60744,24578,0,0,0
55551,60729,24507,0,0,0
55501,60714,24441,0,0,0
55452,60701,24375,0,0,0
55403,60688,24306,0,0,0
55354,60676,24236,0,0,0
55304,60664,24163,0,0,0
55253,60651,24088,0,0,0
55198,60641,24010,0,0,0
55142,60631,23934,0,0,0
55088,60618,23861,0,0,0
55037,60603,23787,0,0,0
54986,60587,23712,0,0,0
54934,60570,23637,0,0,0
54876,60550,23558,0,0,0
54810,60530,23474,0,0,0
54739,60510,23390,0,0,0
54667,60491,23305,0,0,0
54593,60470,23218,0,0,0
54517,60448,23122,0,0,0
54440,60426,23021,0,0,0
54364,60407,22919,0,0,0
54289,60388,22816,0,0,0
54214,60370,22710,0,0,0
54139,60352,22603,0,0,0
54065,60336,22500,0,0,0
53997,60321,22404,0,0,0
53939,60308,22319,0,0,0
53897,60299,22258,0,0,0
53882,60297,22237,0,0,0
53910,60307,22275,0,0,0
53996,60330,22397,0,0,0
54156,60370,22623,0,0,0
54396,60432,22966,0,0,0
54720,60516,23429,0,0,0
55124,60624,24007,0,0,0
55601,60755,24682,0,0,0
56140,60905,25434,0,0,0
56722,61067,26243,0,0,0
57330,61236,27085,0,0,0
57946,61407,27938,0,0,0
58554,61581,28780,0,0,0
59139,61751,29589,0,0,0
59689,61913,30345,0,0,0
60195,62062,31035,0,0,0
60648,62197,31654,0,0,0
61039,62316,32199,0,0,0
61373,62417,32673,0,0,0
61655,62503,33076,0,0,0
61890,62576,33410,0,0,0
62080,62634,33679,0,0,0
62228,62680,33890,0,0,0
62339,62713,34050,0,0,0
62419,62736,34165,0,0,0
62470,62749,34238,0,0,0
62494,62754,34266,0,0,0
62493,62752,34257,0,0,0
62471,62742,34214,0,0,0
62426,62725,34140,0,0,0
62362,62701,34040,0,0,0
62282,62675,33918,0,0,0
62188,62645,33779,0,0,0
62082,62613,33627,0,0,0
61968,62578,33465,0,0,0
61846,62542,33296,0,0,0
61717,62504,33118,0,0,0
61585,62466,32932,0,0,0
61453,62429,32742,0,0,0
61320,62391,32549,0,0,0
61185,62353,32353,0,0,0
61048,62313,32156,0,0,0
60910,62269,31957,0,0,0
60766,62222,31755,0,0,0
60614,62176,31547,0,0,0
60463,62128,31332,0,0,0
60315,62080,31115,0,0,0
60171,62035,30899,0,0,0
60027,61992,30685,0,0,0
59886,61952,30475,0,0,0
59753,61913,30280,0,0,0
59633,61877,30103,0,0,0
59527,61845,29947,0,0,0
59431,61815,29810,0,0,0
59345,61790,29693,0,0,0
59272,61770,29596,0,0,0
59215,61754,29523,0,0,0
59175,61742,29475,0,0,0
59152,61733,29452,0,0,0
59146,61729,29452,0,0,0
59156,61732,29477,0,0,0
59184,61742,29526,0,0,0
59226,61756,29592,0,0,0
59280,61775,29674,0,0,0
59343,61794,29768,0,0,0
59417,61815,29871,0,0,0
59496,61838,29979,0,0,0
59580,61861,30090,0,0,0
59665,61885,30199,0,0,0
59748,61910,30303,0,0,0
59826,61934,30398,0,0,0
59896,61956,30481,0,0,0
59953,61974,30546,0,0,0
59992,61985,30591,0,0,0
60016,61992,30618,0,0,0
60028,61995,30630,0,0,0
60027,61994,30627,0,0,0
60011,61990,30606,0,0,0
59983,61980,30566,0,0,0
59944,61967,30509,0,0,0
59896,61952,30435,0,0,0
59838,61933,30340,0,0,0
59770,61911,30228,0,0,0
59688,61886,30100,0,0,0
59592,61857,29960,0,0,0
59488,61825,29812,0,0,0
59378,61793,29655,0,0,0
59261,61760,29486,0,0,0
59138,61726,29304,0,0,0
59011,61691,29116,0,0,0
58880,61653,28926,0,0,0
58744,61614,28733,0,0,0
58604,61573,28538,0,0,0
58464,61533,28343,0,0,0
58326,61495,28150,0,0,0
58187,61456,27960,0,0,0
58050,61417,27771,0,0,0
57915,61379,27584,0,0,0
57781,61343,27401,0,0,0
57648,61308,27220,0,0,0
57519,61275,27043,0,0,0
57395,61242,26872,0,0,0
57275,61209,26704,0,0,0
57159,61176,26538,0,0,0
57048,61144,26379,0,0,0
56940,61112,26228,0,0,0
56833,61081,26082,0,0,0
56727,61051,25940,0,0,0
56626,61022,25803,0,0,0
56532,60996,25675,0,0,0
56444,60973,25554,0,0,0
56357,60948,25435,0,0,0
56274,60923,25319,0,0,0
56196,60902,25209,0,0,0
56121,60883,25106,0,0,0
56049,60864,25007,0,0,0
55979,60845,24913,0,0,0
55911,60828,24823,0,0,0
55843,60810,24735,0,0,0
55775,60793,24649,0,0,0
55708,60775,24567,0,0,0
55642,60759,24488,0,0,0
55579,60743,24411,0,0,0
55518,60729,24333,0,0,0
55456,60714,24256,0,0,0
55393,60699,24181,0,0,0
55332,60684,24108,0,0,0
55274,60670,24036,0,0,0
55218,60657,23965,0,0,0
55165,60645,23897,0,0,0
55114,60633,23829,0,0,0
55065,60621,23761,0,0,0
55016,60610,23693,0,0,0
54964,60601,23624,0,0,0
54906,60588,23552,0,0,0
54842,60573,23474,0,0,0
54779,60557,23392,0,0,0
54713,60539,23306,0,0,0
54642,60520,23217,0,0,0
54570,60501,23123,0,0,0
54496,60482,23027,0,0,0
54418,60464,22927,0,0,0
54340,60446,22824,0,0,0
54265,60428,22721,0,0,0
54196,60409,22621,0,0,0
54130,60390,22529,0,0,0
54069,60374,22444,0,0,0
54018,60360,22374,0,0,0
53987,60353,22332,0,0,0
53992,60356,22338,0,0,0
54046,60372,22411,0,0,0
54163,60405,22577,0,0,0
54353,60459,22852,0,0,0
54623,60536,23244,0,0,0
54975,60635,23749,0,0,0
55403,60754,24356,0,0,0
55895,60891,25054,0,0,0
56440,61042,25826,0,0,0
57020,61203,26647,0,0,0
57617,61370,27489,0,0,0
58212,61540,28325,0,0,0
58795,61709,29135,0,0,0
