green_channel,red_channel,ir_channel,Anomaly_ch0,Anomaly_ch1,Anomaly_ch2
9511,57608,26567,0,0,0
9478,57568,26515,0,0,0
9449,57532,26471,0,0,0
9426,57503,26428,0,0,0
9401,57479,26380,0,0,0
9373,57459,26332,0,0,0
9350,57444,26288,0,0,0
9331,57429,26247,0,0,0
9309,57415,26204,0,0,0
9287,57399,26169,0,0,0
9264,57385,26146,0,0,0
9237,57369,26123,0,0,0
9206,57346,26090,0,0,0
9171,57315,26051,0,0,0
9138,57284,26009,0,0,0
9107,57253,25961,0,0,0
9078,57221,25905,0,0,0
9048,57191,25848,0,0,0
9021,57164,25796,0,0,0
8993,57142,25748,0,0,0
8963,57125,25709,0,0,0
8938,57111,25681,0,0,0
8917,57097,25655,0,0,0
8897,57083,25626,0,0,0
8874,57062,25589,0,0,0
8847,57034,25552,0,0,0
8817,57004,25510,0,0,0
8785,56975,25462,0,0,0
8755,56948,25414,0,0,0
8727,56923,25372,0,0,0
8706,56905,25340,0,0,0
8696,56899,25323,0,0,0
8708,56909,25337,0,0,0
8759,56949,25399,0,0,0
8856,57029,25513,0,0,0
9003,57155,25687,0,0,0
9200,57328,25932,0,0,0
9446,57549,26253,0,0,0
9735,57807,26632,0,0,0
10052,58084,27045,0,0,0
10388,58371,27483,0,0,0
10731,58657,27929,0,0,0
11069,58936,28362,0,0,0
11397,59204,28776,0,0,0
11713,59459,29175,0,0,0
12019,59702,29559,0,0,0
12306,59933,29915,0,0,0
12568,60146,30244,0,0,0
12804,60340,30552,0,0,0
13019,60515,30834,0,0,0
13205,60668,31080,0,0,0
13360,60793,31289,0,0,0
13490,60890,31468,0,0,0
13598,60964,31615,0,0,0
13681,61017,31728,0,0,0
13734,61048,31805,0,0,0
13760,61061,31857,0,0,0
13768,61059,31885,0,0,0
13756,61041,31884,0,0,0
13726,61006,31854,0,0,0
13690,60961,31805,0,0,0
13655,60916,31747,0,0,0
13613,60869,31678,0,0,0
13556,60814,31594,0,0,0
13489,60753,31500,0,0,0
13415,60689,31405,0,0,0
13333,60623,31308,0,0,0
13244,60556,31206,0,0,0
13157,60488,31108,0,0,0
13075,60421,31016,0,0,0
12993,60355,30921,0,0,0
12909,60285,30816,0,0,0
12826,60213,30710,0,0,0
12748,60146,30611,0,0,0
12676,60087,30517,0,0,0
12609,60034,30429,0,0,0
12551,59985,30355,0,0,0
12502,59943,30291,0,0,0
12459,59905,30227,0,0,0
12420,59868,30165,0,0,0
12386,59836,30109,0,0,0
12355,59806,30055,0,0,0
12322,59772,29995,0,0,0
12281,59732,29929,0,0,0
12237,59694,29862,0,0,0
12189,59657,29797,0,0,0
12132,59616,29725,0,0,0
12069,59569,29647,0,0,0
12012,59522,29570,0,0,0
11964,59480,29498,0,0,0
11918,59440,29430,0,0,0
11872,59398,29370,0,0,0
11835,59364,29325,0,0,0
11808,59345,29290,0,0,0
11788,59332,29264,0,0,0
11775,59324,29249,0,0,0
11771,59322,29244,0,0,0
11773,59321,29241,0,0,0
11778,59322,29242,0,0,0
11791,59328,29249,0,0,0
11817,59343,29270,0,0,0
11856,59369,29303,0,0,0
11902,59403,29342,0,0,0
11953,59438,29387,0,0,0
12005,59473,29440,0,0,0
12055,59512,29497,0,0,0
12106,59550,29551,0,0,0
12161,59586,29603,0,0,0
12221,59623,29658,0,0,0
12282,59660,29711,0,0,0
12336,59698,29760,0,0,0
12384,59738,29810,0,0,0
12423,59778,29857,0,0,0
12452,59813,29897,0,0,0
12470,59839,29930,0,0,0
12479,59854,29956,0,0,0
12479,59859,29971,0,0,0
12465,59856,29972,0,0,0
12441,59843,29962,0,0,0
12416,59824,29947,0,0,0
12390,59801,29921,0,0,0
12358,59772,29881,0,0,0
12322,59735,29834,0,0,0
12287,59697,29785,0,0,0
12251,59658,29732,0,0,0
12214,59619,29676,0,0,0
12177,59579,29622,0,0,0
12143,59542,29570,0,0,0
12111,59512,29518,0,0,0
12077,59488,29463,0,0,0
12042,59466,29407,0,0,0
12010,59447,29351,0,0,0
11980,59426,29295,0,0,0
11943,59397,29236,0,0,0
11893,59356,29175,0,0,0
11835,59307,29108,0,0,0
11773,59252,29030,0,0,0
11708,59193,28944,0,0,0
11648,59134,28858,0,0,0
11594,59075,28773,0,0,0
11536,59013,28681,0,0,0
11471,58953,28586,0,0,0
11405,58897,28501,0,0,0
11347,58854,28431,0,0,0
11294,58818,28364,0,0,0
11243,58780,28296,0,0,0
11195,58740,28230,0,0,0
11153,58704,28165,0,0,0
11114,58674,28100,0,0,0
11074,58644,28035,0,0,0
11030,58613,27974,0,0,0
10986,58580,27917,0,0,0
10938,58542,27859,0,0,0
10885,58499,27803,0,0,0
10835,58458,27748,0,0,0
10787,58419,27690,0,0,0
10735,58373,27624,0,0,0
10678,58320,27555,0,0,0
10622,58267,27484,0,0,0
10573,58221,27413,0,0,0
10529,58180,27343,0,0,0
10488,58139,27273,0,0,0
10452,58102,27205,0,0,0
10421,58072,27139,0,0,0
10388,58046,27075,0,0,0
10357,58024,27023,0,0,0
10334,58007,26987,0,0,0
10314,57996,26959,0,0,0
10292,57984,26928,0,0,0
10271,57969,26903,0,0,0
10253,57954,26888,0,0,0
10234,57939,26875,0,0,0
10214,57925,26857,0,0,0
10189,57906,26831,0,0,0
10159,57877,26796,0,0,0
10126,57843,26748,0,0,0
10091,57809,26696,0,0,0
10058,57777,26648,0,0,0
10029,57748,26605,0,0,0
10003,57723,26562,0,0,0
9979,57701,26518,0,0,0
9962,57683,26479,0,0,0
9953,57673,26450,0,0,0
9944,57668,26422,0,0,0
9934,57660,26389,0,0,0
9926,57650,26362,0,0,0
9918,57641,26343,0,0,0
9901,57632,26324,0,0,0
9877,57615,26304,0,0,0
9852,57595,26288,0,0,0
9825,57574,26269,0,0,0
9794,57550,26238,0,0,0
9759,57524,26200,0,0,0
9724,57492,26159,0,0,0
9690,57461,26113,0,0,0
9655,57430,26057,0,0,0
9618,57394,25997,0,0,0
9580,57359,25937,0,0,0
9540,57330,25876,0,0,0
9494,57301,25813,0,0,0
9449,57265,25747,0,0,0
9412,57227,25685,0,0,0
9380,57191,25630,0,0,0
9345,57155,25577,0,0,0
9307,57119,25532,0,0,0
9265,57083,25495,0,0,0
9219,57048,25458,0,0,0
9169,57015,25409,0,0,0
9116,56978,25350,0,0,0
9065,56936,25290,0,0,0
9010,56891,25223,0,0,0
8951,56844,25150,0,0,0
8898,56797,25083,0,0,0
8859,56754,25027,0,0,0
8835,56724,24988,0,0,0
8840,56722,24986,0,0,0
8895,56772,25044,0,0,0
9019,56883,25182,0,0,0
9211,57054,25403,0,0,0
9468,57279,25707,0,0,0
9789,57554,26099,0,0,0
10165,57870,26567,0,0,0
10572,58212,27082,0,0,0
10992,58566,27623,0,0,0
11412,58921,28172,0,0,0
11820,59268,28709,0,0,0
12207,59595,29219,0,0,0
12566,59896,29692,0,0,0
12896,60169,30130,0,0,0
13197,60417,30535,0,0,0
13467,60641,30901,0,0,0
13712,60842,31231,0,0,0
13934,61019,31530,0,0,0
14128,61169,31791,0,0,0
14293,61297,32014,0,0,0
14431,61401,32204,0,0,0
14543,61480,32357,0,0,0
14624,61538,32472,0,0,0
14676,61577,32557,0,0,0
14707,61599,32622,0,0,0
14724,61607,32668,0,0,0
14730,61606,32691,0,0,0
14724,61594,32684,0,0,0
14701,61566,32645,0,0,0
14666,61527,32583,0,0,0
14624,61482,32509,0,0,0
14571,61427,32421,0,0,0
14509,61361,32330,0,0,0
14440,61294,32241,0,0,0
14363,61226,32147,0,0,0
14276,61151,32045,0,0,0
14183,61073,31944,0,0,0
14092,60991,31848,0,0,0
14007,60907,31754,0,0,0
13924,60824,31657,0,0,0
13845,60748,31560,0,0,0
13778,60684,31470,0,0,0
13722,60637,31389,0,0,0
13673,60602,31320,0,0,0
13632,60576,31268,0,0,0
13598,60555,31226,0,0,0
13568,60536,31184,0,0,0
13535,60515,31146,0,0,0
13502,60494,31119,0,0,0
13472,60468,31088,0,0,0
13437,60433,31040,0,0,0
13393,60393,30979,0,0,0
13343,60354,30915,0,0,0
13295,60319,30848,0,0,0
13244,60283,30773,0,0,0
13190,60241,30694,0,0,0
13143,60200,30621,0,0,0
13104,60165,30560,0,0,0
13065,60133,30504,0,0,0
13019,60100,30450,0,0,0
12973,60071,30400,0,0,0
12931,60044,30358,0,0,0
12894,60017,30320,0,0,0
12862,59994,30289,0,0,0
12843,59979,30268,0,0,0
12839,59973,30259,0,0,0
12845,59974,30261,0,0,0
12860,59981,30274,0,0,0
12886,59996,30298,0,0,0
12923,60020,30330,0,0,0
12964,60049,30370,0,0,0
13007,60082,30420,0,0,0
13053,60121,30478,0,0,0
13099,60163,30534,0,0,0
13138,60199,30584,0,0,0
13166,60228,30627,0,0,0
13188,60249,30656,0,0,0
13209,60267,30674,0,0,0
13230,60285,30690,0,0,0
13250,60301,30709,0,0,0
13276,60318,30735,0,0,0
13304,60341,30761,0,0,0
13326,60362,30782,0,0,0
13341,60379,30799,0,0,0
13350,60390,30812,0,0,0
13351,60398,30822,0,0,0
13340,60397,30827,0,0,0
13325,60387,30827,0,0,0
13310,60370,30819,0,0,0
13290,60346,30794,0,0,0
13266,60318,30755,0,0,0
13245,60288,30715,0,0,0
13217,60258,30670,0,0,0
13178,60229,30611,0,0,0
13136,60203,30546,0,0,0
13097,60183,30495,0,0,0
13057,60163,30447,0,0,0
13011,60135,30396,0,0,0
12958,60099,30339,0,0,0
12902,60058,30275,0,0,0
12848,60013,30206,0,0,0
12789,59962,30133,0,0,0
12727,59902,30052,0,0,0
12666,59841,29966,0,0,0
12606,59785,29879,0,0,0
12544,59727,29791,0,0,0
12481,59669,29705,0,0,0
12424,59617,29626,0,0,0
12372,59573,29555,0,0,0
12319,59533,29489,0,0,0
12268,59493,29426,0,0,0
12221,59456,29369,0,0,0
12171,59417,29311,0,0,0
12113,59368,29247,0,0,0
12050,59312,29180,0,0,0
11987,59256,29111,0,0,0
11920,59201,29038,0,0,0
11852,59144,28958,0,0,0
11790,59086,28874,0,0,0
11743,59034,28790,0,0,0
11704,58987,28709,0,0,0
11665,58944,28630,0,0,0
11628,58906,28558,0,0,0
11597,58878,28498,0,0,0
11567,58856,28443,0,0,0
11536,58836,28389,0,0,0
11502,58815,28338,0,0,0
11464,58791,28284,0,0,0
11423,58762,28226,0,0,0
11379,58731,28164,0,0,0
11334,58697,28104,0,0,0
11290,58663,28050,0,0,0
11252,58630,27997,0,0,0
11221,58598,27944,0,0,0
11193,58566,27892,0,0,0
11166,58535,27842,0,0,0
11142,58509,27795,0,0,0
11121,58484,27753,0,0,0
11105,58461,27721,0,0,0
11088,58440,27696,0,0,0
11065,58418,27668,0,0,0
11034,58390,27632,0,0,0
10997,58357,27593,0,0,0
10956,58326,27550,0,0,0
10914,58293,27504,0,0,0
10875,58261,27460,0,0,0
10841,58229,27419,0,0,0
10811,58198,27377,0,0,0
10784,58165,27331,0,0,0
10760,58134,27287,0,0,0
10742,58109,27247,0,0,0
10725,58094,27207,0,0,0
10705,58082,27168,0,0,0
10684,58072,27134,0,0,0
10664,58063,27107,0,0,0
10641,58055,27079,0,0,0
10611,58043,27048,0,0,0
10571,58023,27013,0,0,0
10524,57995,26974,0,0,0
10472,57965,26926,0,0,0
10420,57930,26867,0,0,0
10371,57887,26800,0,0,0
10323,57837,26728,0,0,0
10271,57783,26650,0,0,0
10220,57732,26574,0,0,0
10176,57689,26508,0,0,0
10144,57653,26453,0,0,0
10116,57620,26404,0,0,0
10086,57590,26356,0,0,0
10058,57566,26316,0,0,0
10033,57544,26285,0,0,0
10002,57521,26251,0,0,0
9961,57489,26204,0,0,0
9918,57456,26150,0,0,0
9878,57424,26096,0,0,0
9832,57388,26033,0,0,0
9774,57343,25965,0,0,0
9714,57292,25901,0,0,0
9660,57245,25839,0,0,0
9608,57202,25773,0,0,0
9560,57163,25712,0,0,0
9520,57130,25662,0,0,0
9479,57101,25611,0,0,0
9431,57069,25551,0,0,0
9383,57037,25490,0,0,0
9337,57007,25437,0,0,0
9289,56974,25382,0,0,0
9233,56935,25315,0,0,0
9170,56889,25243,0,0,0
9105,56840,25168,0,0,0
9038,56787,25085,0,0,0
8972,56729,24993,0,0,0
8911,56667,24903,0,0,0
8858,56611,24820,0,0,0
8809,56563,24741,0,0,0
8757,56518,24657,0,0,0
8706,56476,24574,0,0,0
8662,56440,24501,0,0,0
8622,56410,24436,0,0,0
8586,56389,24385,0,0,0
8570,56389,24370,0,0,0
8594,56422,24411,0,0,0
8676,56501,24522,0,0,0
8831,56637,24723,0,0,0
9074,56841,25034,0,0,0
9410,57122,25459,0,0,0
9825,57468,25978,0,0,0
10294,57860,26562,0,0,0
10790,58273,27183,0,0,0
11290,58692,27817,0,0,0
11773,59100,28437,0,0,0
12226,59483,29029,0,0,0
12648,59832,29590,0,0,0
13029,60146,30109,0,0,0
13364,60422,30569,0,0,0
13651,60661,30967,0,0,0
13897,60868,31311,0,0,0
14116,61049,31611,0,0,0
14306,61198,31871,0,0,0
14466,61316,32100,0,0,0
14605,61415,32301,0,0,0
14722,61498,32472,0,0,0
14815,61565,32609,0,0,0
14883,61616,32715,0,0,0
14930,61650,32791,0,0,0
14958,61668,32834,0,0,0
14963,61670,32845,0,0,0
14942,61652,32824,0,0,0
14900,61616,32776,0,0,0
14840,61569,32709,0,0,0
14763,61510,32624,0,0,0
14676,61441,32522,0,0,0
14586,61371,32407,0,0,0
14496,61304,32288,0,0,0
14403,61237,32169,0,0,0
14311,61166,32054,0,0,0
14220,61094,31953,0,0,0
14128,61020,31859,0,0,0
14038,60946,31769,0,0,0
13950,60871,31681,0,0,0
13862,60795,31592,0,0,0
13772,60725,31501,0,0,0
13681,60658,31408,0,0,0
13598,60593,31317,0,0,0
13529,60533,31235,0,0,0
13471,60482,31157,0,0,0
13420,60435,31082,0,0,0
13371,60391,31019,0,0,0
13322,60348,30960,0,0,0
13271,60301,30901,0,0,0
13219,60250,30843,0,0,0
13164,60201,30783,0,0,0
13102,60150,30712,0,0,0
13031,60091,30625,0,0,0
12953,60026,30524,0,0,0
12870,59962,30413,0,0,0
12789,59901,30303,0,0,0
12713,59843,30202,0,0,0
12646,59793,30109,0,0,0
12592,59759,30029,0,0,0
12553,59736,29969,0,0,0
12529,59718,29929,0,0,0
12513,59706,29903,0,0,0
12502,59698,29891,0,0,0
12500,59696,29894,0,0,0
12506,59699,29907,0,0,0
12517,59704,29928,0,0,0
12537,59716,29954,0,0,0
12566,59737,29986,0,0,0
12599,59763,30018,0,0,0
12636,59792,30051,0,0,0
12684,59829,30093,0,0,0
12742,59872,30148,0,0,0
12801,59918,30209,0,0,0
12858,59965,30278,0,0,0
12913,60012,30353,0,0,0
12964,60057,30422,0,0,0
13005,60096,30481,0,0,0
13036,60128,30533,0,0,0
13062,60154,30574,0,0,0
13086,60173,30603,0,0,0
13104,60188,30623,0,0,0
13114,60196,30638,0,0,0
13122,60202,30651,0,0,0
13127,60206,30656,0,0,0
13125,60207,30656,0,0,0
13117,60209,30656,0,0,0
13104,60208,30656,0,0,0
13082,60200,30644,0,0,0
13051,60184,30619,0,0,0
13022,60166,30591,0,0,0
12993,60144,30558,0,0,0
12955,60108,30513,0,0,0
12908,60059,30459,0,0,0
12856,60005,30408,0,0,0
12804,59955,30355,0,0,0
12749,59905,30294,0,0,0
12690,59851,30222,0,0,0
12634,59797,30145,0,0,0
12579,59747,30063,0,0,0
12522,59699,29975,0,0,0
12464,59653,29887,0,0,0
12409,59612,29803,0,0,0
12354,59574,29721,0,0,0
12293,59533,29635,0,0,0
12224,59478,29543,0,0,0
12149,59413,29451,0,0,0
12068,59342,29363,0,0,0
11984,59268,29275,0,0,0
11896,59190,29178,0,0,0
11810,59111,29074,0,0,0
11724,59040,28970,0,0,0
11639,58974,28866,0,0,0
11555,58911,28763,0,0,0
11478,58850,28662,0,0,0
11403,58789,28563,0,0,0
11326,58727,28464,0,0,0
11250,58666,28365,0,0,0
11180,58610,28273,0,0,0
11115,58562,28185,0,0,0
11050,58513,28098,0,0,0
10985,58461,28014,0,0,0
10923,58409,27936,0,0,0
10861,58360,27859,0,0,0
10797,58307,27782,0,0,0
10735,58253,27709,0,0,0
10672,58201,27639,0,0,0
10609,58149,27563,0,0,0
10553,58099,27483,0,0,0
10507,58051,27409,0,0,0
10468,58006,27342,0,0,0
10428,57961,27273,0,0,0
10383,57916,27204,0,0,0
10343,57878,27143,0,0,0
10309,57851,27089,0,0,0
10276,57829,27039,0,0,0
10237,57802,26990,0,0,0
10194,57774,26945,0,0,0
10150,57751,26902,0,0,0
10103,57728,26855,0,0,0
10051,57696,26803,0,0,0
9998,57658,26751,0,0,0
9948,57620,26699,0,0,0
9898,57581,26640,0,0,0
9851,57538,26581,0,0,0
9811,57496,26531,0,0,0
9775,57460,26480,0,0,0
9739,57426,26423,0,0,0
9710,57395,26372,0,0,0
9687,57369,26329,0,0,0
9663,57348,26287,0,0,0
9630,57327,26244,0,0,0
9591,57300,26204,0,0,0
9550,57270,26164,0,0,0
9511,57241,26113,0,0,0
9470,57213,26053,0,0,0
9430,57182,25998,0,0,0
9396,57154,25951,0,0,0
9367,57126,25898,0,0,0
9334,57096,25839,0,0,0
9298,57067,25784,0,0,0
9263,57042,25736,0,0,0
9223,57018,25686,0,0,0
9179,56991,25636,0,0,0
9136,56959,25588,0,0,0
9093,56922,25537,0,0,0
9040,56880,25476,0,0,0
8978,56834,25407,0,0,0
8917,56788,25339,0,0,0
8860,56744,25275,0,0,0
8805,56703,25208,0,0,0
8746,56662,25137,0,0,0
8690,56621,25069,0,0,0
8642,56580,25006,0,0,0
8598,56543,24945,0,0,0
8553,56505,24886,0,0,0
8508,56465,24825,0,0,0
8459,56424,24755,0,0,0
8401,56379,24674,0,0,0
8336,56328,24589,0,0,0
8267,56272,24507,0,0,0
8197,56215,24424,0,0,0
8122,56153,24333,0,0,0
8045,56088,24244,0,0,0
7975,56026,24160,0,0,0
7917,55969,24075,0,0,0
7860,55913,23986,0,0,0
7804,55858,23903,0,0,0
7753,55808,23833,0,0,0
7709,55768,23769,0,0,0
7668,55736,23713,0,0,0
7641,55715,23690,0,0,0
7649,55724,23720,0,0,0
7714,55781,23812,0,0,0
7848,55898,23980,0,0,0
8063,56086,24252,0,0,0
8375,56356,24644,0,0,0
8778,56704,25143,0,0,0
9248,57111,25731,0,0,0
9763,57556,26390,0,0,0
10297,58015,27085,0,0,0
10820,58465,27772,0,0,0
11312,58889,28424,0,0,0
11766,59277,29029,0,0,0
12172,59625,29577,0,0,0
12523,59928,30061,0,0,0
12824,60183,30481,0,0,0
13089,60395,30844,0,0,0
13324,60576,31160,0,0,0
13526,60730,31429,0,0,0
13692,60855,31651,0,0,0
13830,60959,31835,0,0,0
13940,61043,31989,0,0,0
14020,61107,32113,0,0,0
14072,61150,32208,0,0,0
14101,61175,32276,0,0,0
14108,61181,32316,0,0,0
14091,61166,32323,0,0,0
14054,61135,32299,0,0,0
14007,61091,32251,0,0,0
13953,61036,32180,0,0,0
13884,60971,32090,0,0,0
13804,60898,31993,0,0,0
13720,60822,31894,0,0,0
13629,60744,31786,0,0,0
13528,60659,31663,0,0,0
13419,60566,31528,0,0,0
13307,60471,31385,0,0,0
13193,60377,31238,0,0,0
13075,60280,31089,0,0,0
12953,60178,30943,0,0,0
12832,60077,30801,0,0,0
12717,59983,30662,0,0,0
12608,59891,30527,0,0,0
12507,59803,30404,0,0,0
12417,59724,30292,0,0,0
12332,59655,30181,0,0,0
12249,59589,30076,0,0,0
12171,59530,29989,0,0,0
12099,59474,29908,0,0,0
12025,59413,29818,0,0,0
11945,59343,29718,0,0,0
11860,59267,29615,0,0,0
11771,59186,29504,0,0,0
11675,59099,29379,0,0,0
11576,59011,29246,0,0,0
11481,58926,29114,0,0,0
11395,58852,28993,0,0,0
11319,58790,28886,0,0,0
11254,58738,28792,0,0,0
11203,58697,28717,0,0,0
11170,58674,28662,0,0,0
11156,58669,28626,0,0,0
11155,58674,28609,0,0,0
11161,58687,28608,0,0,0
11176,58706,28620,0,0,0
11198,58730,28640,0,0,0
11232,58761,28675,0,0,0
11283,58801,28733,0,0,0
11348,58851,28804,0,0,0
11423,58908,28882,0,0,0
11503,58971,28973,0,0,0
11591,59042,29078,0,0,0
11677,59115,29187,0,0,0
11753,59181,29288,0,0,0
11821,59238,29384,0,0,0
11885,59290,29477,0,0,0
11945,59340,29562,0,0,0
11998,59385,29636,0,0,0
12042,59424,29702,0,0,0
12088,59466,29766,0,0,0
12134,59512,29823,0,0,0
12175,59551,29870,0,0,0
12208,59579,29912,0,0,0
12234,59598,29948,0,0,0
12251,59610,29966,0,0,0
12253,59607,29965,0,0,0
12242,59593,29952,0,0,0
12221,59572,29928,0,0,0
12198,59548,29892,0,0,0
12170,59521,29847,0,0,0
12138,59492,29798,0,0,0
12110,59466,29753,0,0,0
12083,59443,29703,0,0,0
12048,59417,29645,0,0,0
12007,59390,29589,0,0,0
11961,59357,29532,0,0,0
11908,59315,29464,0,0,0
11845,59262,29386,0,0,0
11776,59208,29304,0,0,0
11706,59157,29222,0,0,0
11636,59102,29132,0,0,0
11563,59039,29032,0,0,0
11493,58974,28929,0,0,0
11427,58911,28828,0,0,0
11360,58849,28725,0,0,0
11285,58782,28624,0,0,0
11206,58711,28525,0,0,0
11125,58639,28425,0,0,0
11041,58567,28321,0,0,0
10952,58494,28218,0,0,0
10861,58422,28124,0,0,0
10775,58360,28039,0,0,0
10693,58302,27952,0,0,0
10615,58244,27858,0,0,0
10548,58188,27765,0,0,0
10489,58134,27672,0,0,0
10431,58077,27575,0,0,0
10373,58018,27481,0,0,0
10320,57961,27397,0,0,0
10274,57913,27321,0,0,0
10236,57872,27248,0,0,0
10201,57837,27184,0,0,0
10167,57804,27129,0,0,0
10129,57774,27070,0,0,0
10083,57741,27010,0,0,0
10035,57705,26956,0,0,0
9994,57670,26901,0,0,0
9960,57636,26841,0,0,0
9928,57601,26779,0,0,0
9896,57565,26721,0,0,0
9870,57537,26671,0,0,0
9847,57519,26627,0,0,0
9828,57503,26589,0,0,0
9816,57490,26560,0,0,0
9806,57478,26533,0,0,0
9794,57466,26504,0,0,0
9777,57448,26471,0,0,0
9754,57430,26439,0,0,0
9730,57413,26408,0,0,0
9702,57389,26364,0,0,0
9667,57357,26308,0,0,0
9628,57323,26260,0,0,0
9591,57293,26222,0,0,0
9556,57268,26186,0,0,0
9520,57244,26146,0,0,0
9485,57219,26105,0,0,0
9452,57197,26061,0,0,0
9417,57173,26010,0,0,0
9377,57141,25952,0,0,0
9333,57099,25893,0,0,0
9288,57055,25830,0,0,0
9241,57014,25766,0,0,0
9195,56976,25709,0,0,0
9155,56944,25656,0,0,0
9124,56918,25606,0,0,0
9103,56898,25560,0,0,0
9093,56887,25529,0,0,0
9110,56896,25529,0,0,0
9158,56932,25572,0,0,0
9243,57002,25668,0,0,0
9375,57115,25837,0,0,0
9570,57281,26091,0,0,0
9831,57504,26427,0,0,0
10148,57778,26838,0,0,0
10513,58094,27318,0,0,0
10919,58444,27845,0,0,0
11347,58807,28389,0,0,0
11775,59168,28932,0,0,0
12191,59515,29466,0,0,0
12591,59849,29981,0,0,0
12966,60164,30466,0,0,0
13305,60454,30911,0,0,0
13607,60713,31318,0,0,0
13876,60940,31691,0,0,0
14110,61137,32024,0,0,0
14312,61303,32316,0,0,0
14488,61441,32573,0,0,0
14645,61559,32792,0,0,0
14780,61654,32971,0,0,0
14889,61727,33115,0,0,0
14974,61783,33230,0,0,0
15038,61827,33314,0,0,0
15078,61857,33368,0,0,0
15097,61873,33394,0,0,0
15102,61882,33402,0,0,0
15096,61882,33395,0,0,0
15073,61867,33369,0,0,0
15031,61832,33322,0,0,0
14973,61777,33257,0,0,0
14901,61708,33174,0,0,0
14816,61629,33076,0,0,0
14726,61544,32968,0,0,0
14639,61463,32857,0,0,0
14559,61389,32750,0,0,0
14484,61321,32643,0,0,0
14413,61257,32537,0,0,0
14348,61197,32436,0,0,0
14282,61138,32341,0,0,0
14212,61077,32250,0,0,0
14142,61013,32162,0,0,0
14075,60952,32077,0,0,0
14006,60894,31992,0,0,0
13933,60837,31906,0,0,0
13861,60779,31822,0,0,0
13797,60723,31744,0,0,0
13737,60672,31667,0,0,0
13677,60624,31590,0,0,0
13615,60575,31515,0,0,0
13553,60525,31438,0,0,0
13488,60472,31355,0,0,0
13416,60414,31266,0,0,0
13336,60350,31173,0,0,0
13257,60283,31075,0,0,0
13179,60211,30971,0,0,0
13101,60137,30865,0,0,0
13030,60070,30771,0,0,0
12973,60017,30689,0,0,0
12930,59977,30615,0,0,0
12900,59949,30553,0,0,0
12887,59934,30512,0,0,0
12888,59929,30495,0,0,0
12899,59938,30497,0,0,0
12916,59958,30517,0,0,0
12944,59987,30555,0,0,0
12982,60023,30600,0,0,0
13020,60053,30644,0,0,0
13057,60075,30687,0,0,0
13096,60100,30732,0,0,0
13142,60133,30779,0,0,0
13193,60173,30830,0,0,0
13247,60218,30889,0,0,0
13307,60272,30960,0,0,0
13370,60334,31037,0,0,0
13431,60398,31115,0,0,0
13488,60456,31193,0,0,0
13541,60507,31266,0,0,0
13587,60551,31327,0,0,0
13624,60585,31375,0,0,0
13653,60610,31416,0,0,0
13682,60628,31452,0,0,0
13708,60638,31474,0,0,0
13725,60643,31480,0,0,0
13736,60643,31480,0,0,0
13743,60640,31476,0,0,0
13741,60634,31466,0,0,0
13731,60626,31452,0,0,0
13722,60617,31444,0,0,0
13711,60605,31433,0,0,0
13691,60586,31409,0,0,0
13656,60553,31370,0,0,0
13612,60510,31319,0,0,0
13561,60462,31260,0,0,0
13504,60410,31186,0,0,0
13443,60354,31098,0,0,0
13382,60295,31007,0,0,0
13325,60241,30922,0,0,0
13270,60193,30840,0,0,0
13216,60148,30760,0,0,0
13165,60110,30688,0,0,0
13115,60074,30618,0,0,0
13058,60029,30538,0,0,0
12992,59972,30446,0,0,0
12919,59907,30349,0,0,0
12846,59841,30254,0,0,0
12768,59772,30158,0,0,0
12686,59700,30061,0,0,0
12606,59630,29966,0,0,0
12534,59566,29872,0,0,0
12469,59506,29776,0,0,0
12405,59449,29681,0,0,0
12341,59399,29589,0,0,0
12281,59356,29503,0,0,0
12223,59319,29423,0,0,0
12167,59279,29351,0,0,0
12114,59240,29287,0,0,0
12064,59200,29222,0,0,0
12009,59154,29153,0,0,0
11952,59100,29082,0,0,0
11903,59047,29010,0,0,0
11857,58996,28933,0,0,0
11811,58947,28854,0,0,0
11769,58904,28783,0,0,0
11735,58869,28725,0,0,0
11706,58843,28675,0,0,0
11678,58818,28627,0,0,0
11650,58791,28582,0,0,0
11620,58766,28540,0,0,0
11589,58744,28500,0,0,0
11556,58721,28458,0,0,0
11525,58696,28416,0,0,0
11493,58669,28373,0,0,0
11461,58640,28325,0,0,0
11437,58616,28275,0,0,0
11426,58599,28226,0,0,0
11422,58588,28181,0,0,0
11414,58573,28137,0,0,0
11400,58549,28093,0,0,0
11382,58520,28058,0,0,0
11357,58492,28022,0,0,0
11321,58462,27977,0,0,0
11272,58424,27924,0,0,0
11220,58385,27869,0,0,0
11172,58353,27819,0,0,0
11126,58328,27772,0,0,0
11082,58310,27727,0,0,0
11048,58299,27683,0,0,0
11021,58291,27638,0,0,0
10995,58278,27590,0,0,0
10964,58256,27543,0,0,0
10930,58226,27498,0,0,0
10895,58195,27454,0,0,0
10860,58164,27414,0,0,0
10827,58132,27377,0,0,0
10802,58102,27341,0,0,0
10787,58081,27307,0,0,0
10781,58067,27282,0,0,0
10794,58069,27288,0,0,0
10846,58105,27344,0,0,0
10952,58188,27456,0,0,0
11116,58322,27638,0,0,0
11340,58511,27905,0,0,0
11621,58756,28258,0,0,0
11951,59050,28684,0,0,0
12315,59376,29164,0,0,0
12706,59724,29680,0,0,0
13115,60079,30213,0,0,0
13523,60428,30738,0,0,0
13917,60761,31250,0,0,0
14293,61076,31746,0,0,0
14644,61372,32219,0,0,0
14968,61646,32662,0,0,0
15259,61892,33064,0,0,0
15517,62110,33424,0,0,0
15741,62301,33744,0,0,0
15936,62466,34026,0,0,0
16105,62607,34269,0,0,0
16250,62725,34477,0,0,0
16368,62821,34651,0,0,0
16456,62887,34784,0,0,0
16517,62924,34879,0,0,0
16566,62941,34948,0,0,0
16609,62951,34999,0,0,0
16641,62957,35035,0,0,0
16656,62957,35052,0,0,0
16657,62950,35050,0,0,0
16646,62935,35033,0,0,0
16620,62908,35002,0,0,0
16574,62865,34953,0,0,0
16511,62810,34889,0,0,0
16440,62750,34817,0,0,0
16361,62684,34732,0,0,0
16276,62610,34635,0,0,0
16193,62536,34531,0,0,0
16115,62469,34427,0,0,0
16040,62408,34325,0,0,0
15972,62352,34229,0,0,0
15913,62303,34142,0,0,0
15862,62261,34064,0,0,0
15816,62222,33996,0,0,0
15775,62185,33938,0,0,0
15735,62146,33883,0,0,0
15691,62101,33823,0,0,0
15642,62052,33755,0,0,0
15593,62001,33683,0,0,0
15545,61951,33616,0,0,0
15495,61900,33554,0,0,0
15443,61850,33491,0,0,0
15394,61803,33424,0,0,0
15348,61758,33358,0,0,0
15297,61713,33290,0,0,0
15238,61665,33215,0,0,0
15174,61615,33134,0,0,0
15109,61565,33050,0,0,0
15042,61511,32966,0,0,0
14976,61459,32884,0,0,0
14917,61411,32807,0,0,0
14868,61374,32737,0,0,0
14830,61348,32678,0,0,0
14802,61331,32632,0,0,0
14786,61328,32602,0,0,0
14783,61337,32588,0,0,0
14786,61349,32586,0,0,0
14791,61360,32591,0,0,0
14802,61374,32604,0,0,0
14818,61390,32623,0,0,0
14834,61404,32647,0,0,0
14854,61418,32675,0,0,0
14884,61435,32708,0,0,0
14921,61454,32743,0,0,0
14963,61476,32780,0,0,0
15012,61503,32821,0,0,0
15067,61537,32869,0,0,0
15122,61579,32928,0,0,0
15168,61620,32988,0,0,0
15204,61656,33041,0,0,0
15236,61689,33086,0,0,0
15265,61720,33124,0,0,0
15285,61738,33151,0,0,0
15298,61744,33162,0,0,0
15308,61745,33163,0,0,0
15313,61744,33158,0,0,0
15311,61740,33146,0,0,0
15303,61733,33128,0,0,0
15292,61725,33114,0,0,0
15276,61721,33107,0,0,0
15259,61714,33100,0,0,0
15243,61702,33089,0,0,0
15225,61685,33072,0,0,0
15196,61663,33048,0,0,0
15157,61635,33016,0,0,0
15112,61603,32973,0,0,0
15067,61566,32919,0,0,0
15018,61520,32856,0,0,0
14965,61470,32783,0,0,0
14914,61423,32707,0,0,0
14866,61379,32628,0,0,0
14815,61330,32544,0,0,0
14763,61282,32460,0,0,0
14715,61242,32388,0,0,0
14670,61204,32324,0,0,0
14620,61164,32261,0,0,0
14562,61118,32191,0,0,0
14496,61068,32117,0,0,0
14425,61010,32042,0,0,0
14346,60940,31962,0,0,0
14260,60867,31878,0,0,0
14178,60798,31794,0,0,0
14102,60735,31708,0,0,0
14028,60673,31619,0,0,0
13952,60608,31527,0,0,0
13885,60547,31436,0,0,0
13824,60489,31342,0,0,0
13762,60432,31246,0,0,0
13701,60377,31158,0,0,0
13641,60329,31080,0,0,0
13584,60288,31006,0,0,0
13530,60252,30934,0,0,0
13481,60214,30866,0,0,0
13436,60175,30801,0,0,0
13391,60136,30731,0,0,0
13345,60095,30658,0,0,0
13299,60050,30589,0,0,0
13248,59998,30519,0,0,0
13193,59940,30446,0,0,0
13140,59886,30369,0,0,0
13094,59841,30296,0,0,0
13061,59810,30234,0,0,0
13035,59785,30178,0,0,0
13008,59763,30123,0,0,0
12980,59745,30077,0,0,0
12953,59731,30037,0,0,0
12929,59719,29997,0,0,0
12905,59706,29959,0,0,0
12882,59694,29927,0,0,0
12857,59679,29897,0,0,0
12825,59656,29861,0,0,0
12790,59625,29818,0,0,0
12757,59592,29775,0,0,0
12726,59560,29732,0,0,0
12695,59525,29686,0,0,0
12665,59490,29637,0,0,0
12642,59462,29592,0,0,0
12622,59440,29552,0,0,0
12601,59421,29511,0,0,0
12578,59404,29472,0,0,0
12555,59392,29438,0,0,0
12530,59382,29404,0,0,0
12499,59368,29367,0,0,0
12469,59352,29335,0,0,0
12446,59336,29313,0,0,0
12425,59318,29291,0,0,0
12397,59295,29260,0,0,0
12368,59271,29226,0,0,0
12343,59250,29194,0,0,0
12317,59226,29154,0,0,0
12285,59199,29106,0,0,0
12250,59168,29055,0,0,0
12223,59140,29006,0,0,0
12203,59119,28960,0,0,0
12180,59102,28914,0,0,0
12155,59082,28871,0,0,0
12127,59062,28833,0,0,0
12094,59041,28794,0,0,0
12057,59015,28750,0,0,0
12017,58983,28703,0,0,0
11977,58946,28650,0,0,0
11935,58909,28587,0,0,0
11887,58872,28513,0,0,0
11840,58842,28438,0,0,0
11795,58816,28369,0,0,0
11747,58785,28298,0,0,0
11700,58749,28228,0,0,0
11660,58711,28169,0,0,0
11619,58669,28115,0,0,0
11573,58622,28057,0,0,0
11525,58572,27993,0,0,0
11482,58524,27929,0,0,0
11445,58484,27868,0,0,0
11408,58450,27813,0,0,0
11373,58421,27767,0,0,0
11350,58401,27739,0,0,0
11355,58408,27745,0,0,0
11398,58451,27802,0,0,0
11497,58541,27931,0,0,0
11668,58688,28143,0,0,0
11916,58896,28445,0,0,0
12233,59163,28832,0,0,0
12607,59479,29295,0,0,0
13026,59836,29818,0,0,0
13469,60217,30375,0,0,0
13913,60598,30938,0,0,0
14343,60962,31492,0,0,0
14756,61307,32028,0,0,0
15144,61629,32533,0,0,0
15495,61922,32994,0,0,0
15805,62184,33406,0,0,0
16080,62413,33771,0,0,0
16322,62611,34092,0,0,0
16531,62778,34369,0,0,0
16715,62917,34609,0,0,0
16878,63035,34820,0,0,0
17014,63132,35003,0,0,0
17122,63209,35155,0,0,0
17205,63268,35281,0,0,0
17264,63312,35383,0,0,0
17300,63342,35453,0,0,0
17311,63354,35492,0,0,0
17300,63348,35502,0,0,0
17271,63325,35488,0,0,0
17226,63286,35453,0,0,0
17168,63236,35400,0,0,0
17106,63180,35336,0,0,0
17044,63126,35264,0,0,0
16976,63067,35179,0,0,0
16904,63000,35078,0,0,0
16838,62932,34971,0,0,0
16776,62866,34871,0,0,0
16713,62803,34778,0,0,0
16646,62741,34689,0,0,0
16577,62685,34606,0,0,0
16511,62636,34527,0,0,0
16445,62589,34450,0,0,0
16376,62538,34369,0,0,0
16308,62484,34291,0,0,0
16239,62430,34215,0,0,0
16166,62373,34138,0,0,0
16094,62315,34061,0,0,0
16035,62263,33990,0,0,0
15988,62220,33925,0,0,0
15942,62181,33861,0,0,0
15899,62141,33791,0,0,0
15860,62098,33719,0,0,0
15825,62057,33652,0,0,0
15788,62016,33589,0,0,0
15744,61975,33525,0,0,0
15696,61936,33460,0,0,0
15645,61900,33398,0,0,0
15592,61864,33339,0,0,0
15539,61826,33282,0,0,0
15491,61791,33229,0,0,0
15448,61760,33180,0,0,0
15405,61733,33134,0,0,0
15367,61711,33098,0,0,0
15340,61694,33070,0,0,0
15324,61681,33045,0,0,0
15313,61672,33027,0,0,0
15311,61667,33015,0,0,0
15325,61674,33017,0,0,0
15349,61692,33032,0,0,0
15378,61717,33056,0,0,0
15414,61749,33088,0,0,0
15455,61788,33129,0,0,0
15495,61828,33172,0,0,0
15529,61863,33217,0,0,0
15556,61897,33264,0,0,0
15584,61928,33311,0,0,0
15610,61954,33350,0,0,0
15634,61976,33380,0,0,0
15660,61998,33408,0,0,0
15683,62022,33434,0,0,0
15704,62044,33455,0,0,0
15727,62065,33468,0,0,0
15752,62084,33481,0,0,0
15775,62100,33495,0,0,0
15787,62106,33502,0,0,0
15785,62101,33496,0,0,0
15771,62087,33484,0,0,0
15750,62067,33471,0,0,0
15723,62043,33452,0,0,0
15692,62016,33419,0,0,0
15659,61984,33375,0,0,0
15622,61947,33329,0,0,0
15584,61911,33283,0,0,0
15551,61882,33236,0,0,0
15522,61860,33196,0,0,0
15492,61837,33161,0,0,0
15454,61811,33126,0,0,0
15407,61783,33085,0,0,0
15353,61751,33032,0,0,0
15292,61707,32967,0,0,0
15227,61655,32894,0,0,0
15162,61601,32821,0,0,0
15099,61550,32748,0,0,0
15038,61499,32673,0,0,0
14980,61446,32591,0,0,0
14922,61389,32501,0,0,0
14867,61337,32413,0,0,0
14815,61290,32332,0,0,0
14756,61243,32253,0,0,0
14690,61191,32175,0,0,0
14621,61139,32097,0,0,0
14551,61088,32018,0,0,0
14479,61034,31937,0,0,0
14407,60977,31856,0,0,0
14336,60916,31770,0,0,0
14260,60847,31675,0,0,0
14183,60777,31577,0,0,0
14110,60711,31485,0,0,0
14043,60651,31395,0,0,0
13978,60594,31302,0,0,0
13914,60540,31210,0,0,0
13848,60488,31127,0,0,0
13780,60436,31049,0,0,0
13712,60386,30969,0,0,0
13650,60340,30893,0,0,0
13597,60300,30827,0,0,0
13549,60264,30766,0,0,0
13501,60226,30706,0,0,0
13456,60191,30651,0,0,0
13417,60162,30605,0,0,0
13375,60131,30556,0,0,0
13326,60093,30498,0,0,0
13274,60050,30436,0,0,0
13229,60009,30377,0,0,0
13191,59975,30322,0,0,0
13157,59945,30267,0,0,0
13127,59918,30216,0,0,0
13104,59898,30176,0,0,0
13081,59882,30141,0,0,0
13055,59861,30105,0,0,0
13027,59838,30076,0,0,0
13001,59819,30053,0,0,0
12973,59803,30026,0,0,0
12941,59782,29990,0,0,0
12912,59757,29954,0,0,0
12887,59729,29915,0,0,0
12862,59700,29869,0,0,0
12838,59671,29821,0,0,0
12819,59641,29779,0,0,0
12807,59616,29741,0,0,0
12795,59597,29706,0,0,0
12780,59583,29673,0,0,0
12764,59574,29644,0,0,0
12744,59565,29617,0,0,0
12721,59550,29586,0,0,0
12693,59528,29553,0,0,0
12659,59503,29519,0,0,0
12618,59474,29482,0,0,0
12564,59443,29436,0,0,0
12503,59409,29384,0,0,0
12441,59372,29331,0,0,0
12385,59333,29276,0,0,0
12332,59292,29214,0,0,0
12279,59246,29144,0,0,0
12229,59195,29068,0,0,0
12182,59146,28990,0,0,0
12136,59104,28913,0,0,0
12092,59067,28844,0,0,0
12055,59039,28782,0,0,0
12021,59016,28720,0,0,0
11982,58990,28657,0,0,0
11943,58959,28607,0,0,0
11911,58933,28574,0,0,0
11890,58918,28552,0,0,0
11881,58915,28548,0,0,0
11896,58934,28578,0,0,0
11949,58985,28657,0,0,0
12049,59077,28793,0,0,0
12207,59218,29000,0,0,0
12430,59411,29292,0,0,0
12720,59656,29660,0,0,0
13062,59945,30081,0,0,0
13434,60256,30536,0,0,0
13820,60579,31012,0,0,0
14213,60908,31500,0,0,0
14592,61225,31977,0,0,0
14946,61519,32434,0,0,0
15278,61789,32871,0,0,0
15586,62032,33269,0,0,0
15862,62247,33619,0,0,0
16094,62439,33928,0,0,0
16287,62614,34198,0,0,0
16452,62769,34431,0,0,0
16587,62894,34625,0,0,0
16695,62988,34775,0,0,0
16782,63053,34888,0,0,0
16848,63093,34969,0,0,0
16893,63110,35023,0,0,0
16920,63111,35052,0,0,0
16931,63103,35061,0,0,0
16922,63087,35051,0,0,0
16894,63059,35023,0,0,0
16851,63020,34976,0,0,0
16797,62971,34921,0,0,0
16737,62919,34861,0,0,0
16663,62859,34790,0,0,0
16574,62790,34701,0,0,0
16476,62716,34599,0,0,0
16376,62641,34488,0,0,0
16273,62562,34374,0,0,0
16171,62479,34257,0,0,0
16073,62400,34137,0,0,0
15983,62331,34018,0,0,0
15896,62269,33899,0,0,0
15815,62211,33787,0,0,0
15745,62158,33691,0,0,0
15682,62109,33607,0,0,0
15622,62061,33525,0,0,0
15558,62007,33445,0,0,0
15495,61952,33369,0,0,0
15433,61898,33299,0,0,0
15371,61839,33227,0,0,0
15306,61770,33148,0,0,0
15236,61694,33063,0,0,0
15157,61614,32972,0,0,0
15071,61532,32872,0,0,0
14983,61456,32768,0,0,0
14900,61391,32666,0,0,0
14818,61333,32564,0,0,0
14738,61280,32459,0,0,0
14668,61232,32357,0,0,0
14613,61192,32271,0,0,0
14574,61161,32206,0,0,0
14544,61139,32157,0,0,0
14522,61128,32126,0,0,0
14509,61130,32110,0,0,0
14505,61138,32105,0,0,0
14506,61147,32107,0,0,0
14512,61157,32122,0,0,0
14525,61169,32144,0,0,0
14541,61180,32165,0,0,0
14561,61193,32189,0,0,0
14587,61210,32224,0,0,0
14620,61232,32268,0,0,0
14654,61251,32317,0,0,0
14688,61267,32365,0,0,0
14727,61286,32409,0,0,0
14768,61313,32452,0,0,0
14807,61343,32492,0,0,0
14843,61377,32531,0,0,0
14878,61417,32573,0,0,0
14913,61460,32616,0,0,0
14936,61492,32651,0,0,0
14948,61512,32674,0,0,0
14957,61528,32693,0,0,0
14961,61540,32707,0,0,0
14955,61539,32709,0,0,0
14941,61525,32699,0,0,0
14920,61505,32681,0,0,0
14892,61484,32659,0,0,0
14859,61463,32626,0,0,0
14828,61444,32582,0,0,0
14804,61428,32537,0,0,0
14781,61411,32493,0,0,0
14753,61388,32446,0,0,0
14722,61359,32397,0,0,0
14686,61324,32346,0,0,0
14644,61285,32294,0,0,0
14592,61242,32239,0,0,0
14536,61197,32180,0,0,0
14479,61148,32115,0,0,0
14412,61092,32039,0,0,0
14334,61027,31951,0,0,0
14250,60960,31860,0,0,0
14169,60895,31773,0,0,0
14092,60833,31689,0,0,0
14020,60773,31611,0,0,0
13954,60720,31541,0,0,0
13893,60678,31475,0,0,0
13833,60638,31405,0,0,0
13772,60594,31335,0,0,0
13712,60549,31267,0,0,0
13651,60503,31195,0,0,0
13585,60454,31115,0,0,0
13517,60402,31034,0,0,0
13449,60345,30951,0,0,0
13378,60284,30863,0,0,0
13303,60220,30767,0,0,0
13229,60155,30671,0,0,0
13161,60096,30583,0,0,0
13100,60045,30502,0,0,0
13042,59997,30424,0,0,0
12992,59951,30353,0,0,0
12957,59913,30295,0,0,0
12935,59887,30244,0,0,0
12917,59873,30201,0,0,0
12905,59872,30171,0,0,0
12898,59877,30154,0,0,0
12889,59880,30138,0,0,0
12872,59871,30118,0,0,0
12848,59850,30096,0,0,0
12821,59822,30068,0,0,0
12791,59794,30032,0,0,0
12758,59767,29993,0,0,0
12724,59740,29957,0,0,0
12690,59715,29919,0,0,0
12657,59688,29873,0,0,0
12626,59658,29823,0,0,0
12601,59627,29775,0,0,0
12585,59603,29733,0,0,0
12573,59584,29692,0,0,0
12558,59568,29651,0,0,0
12548,59561,29619,0,0,0
12543,59559,29599,0,0,0
12534,59556,29582,0,0,0
12513,59544,29559,0,0,0
12488,59527,29529,0,0,0
12465,59507,29492,0,0,0
12437,59486,29448,0,0,0
12408,59463,29402,0,0,0
12378,59438,29357,0,0,0
12347,59413,29312,0,0,0
12314,59386,29265,0,0,0
12281,59357,29218,0,0,0
12254,59332,29178,0,0,0
12234,59315,29143,0,0,0
12215,59302,29116,0,0,0
12205,59299,29102,0,0,0
12214,59313,29114,0,0,0
12250,59349,29156,0,0,0
12315,59409,29238,0,0,0
12419,59499,29371,0,0,0
12573,59629,29564,0,0,0
12774,59804,29817,0,0,0
13018,60016,30125,0,0,0
13299,60255,30480,0,0,0
13605,60509,30868,0,0,0
13924,60773,31273,0,0,0
14247,61041,31680,0,0,0
14567,61306,32085,0,0,0
14880,61560,32478,0,0,0
15178,61800,32847,0,0,0
15457,62023,33187,0,0,0
15713,62227,33501,0,0,0
15945,62409,33787,0,0,0
16146,62564,34041,0,0,0
16316,62694,34258,0,0,0
16461,62805,34440,0,0,0
16586,62901,34593,0,0,0
16685,62979,34722,0,0,0
16753,63033,34822,0,0,0
16797,63065,34894,0,0,0
16820,63079,34939,0,0,0
16818,63076,34956,0,0,0
16791,63053,34945,0,0,0
16746,63012,34910,0,0,0
16688,62961,34859,0,0,0
16618,62900,34794,0,0,0
16539,62831,34714,0,0,0
16454,62762,34622,0,0,0
16368,62694,34524,0,0,0
16283,62624,34418,0,0,0
16206,62554,34308,0,0,0
16136,62488,34202,0,0,0
16067,62427,34103,0,0,0
15995,62368,34007,0,0,0
15920,62308,33909,0,0,0
15845,62249,33811,0,0,0
15775,62194,33719,0,0,0
15708,62143,33632,0,0,0
15645,62092,33551,0,0,0
15585,62041,33476,0,0,0
15527,61990,33402,0,0,0
15465,61938,33323,0,0,0
15398,61885,33243,0,0,0
15331,61834,33163,0,0,0
15266,61786,33083,0,0,0
15201,61737,33001,0,0,0
15135,61687,32914,0,0,0
15073,61637,32824,0,0,0
15016,61590,32733,0,0,0
14961,61545,32646,0,0,0
14909,61500,32559,0,0,0
14857,61452,32472,0,0,0
14802,61402,32389,0,0,0
14746,61351,32314,0,0,0
14700,61304,32249,0,0,0
14659,61265,32200,0,0,0
14617,61234,32167,0,0,0
14580,61210,32145,0,0,0
14557,61193,32137,0,0,0
14553,61190,32145,0,0,0
14562,61197,32160,0,0,0
14577,61205,32175,0,0,0
14600,61217,32191,0,0,0
14632,61239,32211,0,0,0
14670,61271,32237,0,0,0
14710,61311,32268,0,0,0
14758,61359,32308,0,0,0
14809,61410,32356,0,0,0
14856,61459,32404,0,0,0
14901,61505,32453,0,0,0
14949,61550,32503,0,0,0
14995,61592,32556,0,0,0
15035,61626,32607,0,0,0
15063,61648,32645,0,0,0
15082,61659,32670,0,0,0
15097,61666,32688,0,0,0
15111,61668,32696,0,0,0
15122,61662,32691,0,0,0
15126,61653,32679,0,0,0
15125,61647,32667,0,0,0
15121,61640,32656,0,0,0
15115,61629,32642,0,0,0
15107,61617,32627,0,0,0
15097,61604,32613,0,0,0
15076,61584,32592,0,0,0
15045,61557,32563,0,0,0
15004,61527,32528,0,0,0
14957,61498,32486,0,0,0
14903,61464,32432,0,0,0
14848,61427,32368,0,0,0
14797,61393,32303,0,0,0
14748,61361,32234,0,0,0
14698,61323,32160,0,0,0
14643,61276,32080,0,0,0
14591,61228,32003,0,0,0
14546,61181,31933,0,0,0
14501,61133,31866,0,0,0
14456,61086,31804,0,0,0
14404,61041,31746,0,0,0
14342,60991,31685,0,0,0
14273,60934,31619,0,0,0
14204,60875,31553,0,0,0
14139,60823,31489,0,0,0
14069,60769,31418,0,0,0
13990,60709,31331,0,0,0
13910,60648,31236,0,0,0
13837,60591,31141,0,0,0
13772,60538,31046,0,0,0
13714,60489,30958,0,0,0
13666,60448,30882,0,0,0
13622,60413,30808,0,0,0
13576,60377,30729,0,0,0
13527,60338,30651,0,0,0
13480,60299,30579,0,0,0
13433,60263,30511,0,0,0
13384,60226,30449,0,0,0
13337,60190,30395,0,0,0
13295,60155,30344,0,0,0
13250,60120,30289,0,0,0
13202,60082,30230,0,0,0
13157,60041,30173,0,0,0
13119,59999,30117,0,0,0
13089,59961,30059,0,0,0
13063,59930,30005,0,0,0
13040,59903,29957,0,0,0
13022,59881,29919,0,0,0
13012,59866,29888,0,0,0
13005,59856,29862,0,0,0
12998,59846,29838,0,0,0
12984,59830,29812,0,0,0
12958,59809,29779,0,0,0
12924,59784,29741,0,0,0
12890,59759,29703,0,0,0
12860,59738,29665,0,0,0
12834,59716,29626,0,0,0
12808,59693,29588,0,0,0
12786,59670,29555,0,0,0
12768,59650,29529,0,0,0
12749,59633,29503,0,0,0
12728,59616,29478,0,0,0
12711,59600,29458,0,0,0
12693,59587,29435,0,0,0
12666,59569,29395,0,0,0
12630,59544,29346,0,0,0
12588,59517,29295,0,0,0
12550,59489,29243,0,0,0
12513,59459,29183,0,0,0
12475,59427,29124,0,0,0
12439,59397,29076,0,0,0
12406,59371,29033,0,0,0
12371,59344,28986,0,0,0
12337,59315,28940,0,0,0
12309,59287,28902,0,0,0
12286,59262,28866,0,0,0
12263,59239,28834,0,0,0
12242,59223,28811,0,0,0
12232,59220,28801,0,0,0
12243,59236,28806,0,0,0
12280,59273,28840,0,0,0
12349,59336,28919,0,0,0
12466,59438,29061,0,0,0
12641,59590,29270,0,0,0
12869,59788,29543,0,0,0
13144,60024,29877,0,0,0
13453,60288,30264,0,0,0
13777,60562,30677,0,0,0
14101,60830,31094,0,0,0
14423,61094,31509,0,0,0
14741,61354,31920,0,0,0
15045,61603,32314,0,0,0
15333,61838,32686,0,0,0
15601,62059,33032,0,0,0
15846,62261,33346,0,0,0
16065,62441,33623,0,0,0
16255,62598,33864,0,0,0
16425,62734,34076,0,0,0
16574,62849,34263,0,0,0
16697,62938,34421,0,0,0
16793,63002,34548,0,0,0
16864,63047,34647,0,0,0
16913,63079,34723,0,0,0
16940,63098,34777,0,0,0
16946,63101,34803,0,0,0
16940,63095,34805,0,0,0
16926,63082,34790,0,0,0
16897,63055,34759,0,0,0
16850,63012,34711,0,0,0
16793,62962,34652,0,0,0
16730,62911,34583,0,0,0
16660,62851,34499,0,0,0
16580,62780,34401,0,0,0
16495,62705,34300,0,0,0
16407,62628,34196,0,0,0
16318,62548,34088,0,0,0
16231,62469,33977,0,0,0
16150,62399,33868,0,0,0
16078,62343,33768,0,0,0
16012,62297,33681,0,0,0
15952,62260,33607,0,0,0
15902,62233,33548,0,0,0
15860,62211,33499,0,0,0
15818,62187,33453,0,0,0
15772,62154,33402,0,0,0
15725,62115,33343,0,0,0
15683,62075,33281,0,0,0
15639,62033,33218,0,0,0
15592,61988,33152,0,0,0
15551,61944,33088,0,0,0
15513,61904,33029,0,0,0
15468,61862,32971,0,0,0
15418,61815,32909,0,0,0
15363,61766,32847,0,0,0
15303,61713,32783,0,0,0
15236,61655,32713,0,0,0
15171,61599,32643,0,0,0
15117,61553,32578,0,0,0
15070,61513,32517,0,0,0
15027,61479,32460,0,0,0
14997,61461,32411,0,0,0
14982,61461,32380,0,0,0
14976,61472,32363,0,0,0
14974,61483,32347,0,0,0
14979,61495,32335,0,0,0
14995,61516,32335,0,0,0
15018,61540,32344,0,0,0
15041,61559,32357,0,0,0
15056,61567,32370,0,0,0
15069,61572,32385,0,0,0
15084,61579,32405,0,0,0
15104,61586,32426,0,0,0
15128,61597,32450,0,0,0
15155,61616,32484,0,0,0
15177,61636,32517,0,0,0
15197,61655,32544,0,0,0
15220,61678,32570,0,0,0
15242,61702,32596,0,0,0
15257,61716,32615,0,0,0
15264,61719,32624,0,0,0
15267,61718,32621,0,0,0
15265,61715,32610,0,0,0
15257,61706,32592,0,0,0
15247,61698,32574,0,0,0
15240,61696,32562,0,0,0
15228,61695,32549,0,0,0
15208,61684,32529,0,0,0
15184,61664,32505,0,0,0
15153,61636,32478,0,0,0
15112,61602,32446,0,0,0
15063,61567,32402,0,0,0
15015,61535,32346,0,0,0
14974,61507,32282,0,0,0
14938,61480,32216,0,0,0
14900,61447,32149,0,0,0
14861,61406,32082,0,0,0
14819,61362,32016,0,0,0
14772,61313,31951,0,0,0
14714,61257,31881,0,0,0
14646,61192,31808,0,0,0
14577,61126,31737,0,0,0
14512,61063,31665,0,0,0
14446,61005,31592,0,0,0
14385,60956,31525,0,0,0
14331,60915,31463,0,0,0
14276,60876,31398,0,0,0
14214,60832,31325,0,0,0
14148,60787,31249,0,0,0
14081,60740,31173,0,0,0
14011,60688,31093,0,0,0
13944,60634,31013,0,0,0
13885,60584,30938,0,0,0
13834,60540,30863,0,0,0
13783,60497,30787,0,0,0
13732,60457,30717,0,0,0
13691,60423,30658,0,0,0
13655,60394,30601,0,0,0
13615,60361,30539,0,0,0
13563,60317,30471,0,0,0
13509,60268,30402,0,0,0
13459,60221,30330,0,0,0
13411,60171,30255,0,0,0
13362,60121,30184,0,0,0
13317,60080,30122,0,0,0
13274,60043,30067,0,0,0
13231,60008,30011,0,0,0
13187,59972,29958,0,0,0
13144,59936,29909,0,0,0
13102,59900,29857,0,0,0
13069,59872,29807,0,0,0
13046,59852,29767,0,0,0
13027,59840,29735,0,0,0
13003,59828,29701,0,0,0
12968,59808,29661,0,0,0
12934,59787,29626,0,0,0
12903,59769,29595,0,0,0
12869,59746,29554,0,0,0
12835,59715,29500,0,0,0
12809,59683,29445,0,0,0
12792,59658,29397,0,0,0
12779,59642,29352,0,0,0
12763,59625,29309,0,0,0
12744,59605,29273,0,0,0
12722,59585,29238,0,0,0
12693,59565,29202,0,0,0
12660,59541,29163,0,0,0
12627,59516,29123,0,0,0
12598,59493,29083,0,0,0
12575,59469,29042,0,0,0
12554,59443,29004,0,0,0
12531,59416,28968,0,0,0
12503,59393,28933,0,0,0
12467,59367,28896,0,0,0
12422,59336,28859,0,0,0
12373,59301,28822,0,0,0
12325,59265,28778,0,0,0
12277,59226,28725,0,0,0
12228,59180,28667,0,0,0
12182,59135,28609,0,0,0
12141,59096,28547,0,0,0
12101,59059,28484,0,0,0
12065,59025,28430,0,0,0
12038,58999,28384,0,0,0
12011,58979,28337,0,0,0
11979,58958,28285,0,0,0
11944,58932,28232,0,0,0
11904,58901,28179,0,0,0
11861,58868,28122,0,0,0
11820,58838,28064,0,0,0
11786,58814,28012,0,0,0
11760,58798,27969,0,0,0
11735,58782,27923,0,0,0
11707,58762,27872,0,0,0
11679,58740,27823,0,0,0
11649,58717,27775,0,0,0
11615,58691,27724,0,0,0
11578,58658,27666,0,0,0
11539,58615,27604,0,0,0
11500,58572,27540,0,0,0
11456,58530,27471,0,0,0
11410,58487,27405,0,0,0
11370,58449,27348,0,0,0
11337,58421,27296,0,0,0
11304,58401,27250,0,0,0
11266,58383,27209,0,0,0
11223,58360,27171,0,0,0
11177,58330,27131,0,0,0
11129,58292,27084,0,0,0
11082,58249,27033,0,0,0
11041,58208,26977,0,0,0
11001,58168,26915,0,0,0
10957,58126,26848,0,0,0
10916,58084,26784,0,0,0
10879,58047,26726,0,0,0
10845,58018,26671,0,0,0
10808,57992,26619,0,0,0
10762,57959,26567,0,0,0
10710,57922,26513,0,0,0
10661,57889,26459,0,0,0
10611,57853,26397,0,0,0
10561,57809,26330,0,0,0
10518,57768,26270,0,0,0
10487,57737,26219,0,0,0
10469,57716,26183,0,0,0
10473,57714,26174,0,0,0
10512,57747,26210,0,0,0
10595,57823,26300,0,0,0
10733,57948,26464,0,0,0
10941,58132,26722,0,0,0
11223,58376,27072,0,0,0
11568,58672,27498,0,0,0
11959,59005,27983,0,0,0
12383,59363,28510,0,0,0
12824,59733,29059,0,0,0
13261,60096,29602,0,0,0
13678,60441,30127,0,0,0
14071,60762,30633,0,0,0
14433,61060,31109,0,0,0
14756,61330,31544,0,0,0
15038,61564,31927,0,0,0
15284,61764,32264,0,0,0
15502,61935,32562,0,0,0
15685,62077,32818,0,0,0
15839,62188,33026,0,0,0
15973,62277,33192,0,0,0
16085,62348,33329,0,0,0
16170,62404,33440,0,0,0
16228,62445,33522,0,0,0
16266,62472,33579,0,0,0
16283,62485,33613,0,0,0
16274,62479,33622,0,0,0
16244,62456,33606,0,0,0
16197,62416,33564,0,0,0
16138,62363,33500,0,0,0
16072,62300,33420,0,0,0
16007,62238,33330,0,0,0
15948,62179,33240,0,0,0
15884,62116,33150,0,0,0
15811,62051,33059,0,0,0
15733,61988,32967,0,0,0
15652,61929,32873,0,0,0
15567,61871,32779,0,0,0
15473,61809,32682,0,0,0
15378,61743,32584,0,0,0
15292,61679,32489,0,0,0
15213,61621,32400,0,0,0
15143,61567,32319,0,0,0
15090,61520,32248,0,0,0
15054,61485,32194,0,0,0
15023,61457,32151,0,0,0
14994,61436,32117,0,0,0
14972,61422,32092,0,0,0
14953,61411,32073,0,0,0
14926,61398,32050,0,0,0
14892,61378,32018,0,0,0
14854,61352,31974,0,0,0
14816,61323,31921,0,0,0
14771,61286,31855,0,0,0
14718,61239,31779,0,0,0
14666,61192,31705,0,0,0
14622,61150,31642,0,0,0
14580,61113,31589,0,0,0
14541,61080,31541,0,0,0
14508,61056,31502,0,0,0
14485,61041,31473,0,0,0
14465,61029,31452,0,0,0
14446,61017,31438,0,0,0
14429,61003,31432,0,0,0
14417,60994,31429,0,0,0
14412,60987,31428,0,0,0
14416,60981,31428,0,0,0
14428,60980,31429,0,0,0
14447,60987,31430,0,0,0
14466,60995,31432,0,0,0
14487,61006,31444,0,0,0
14511,61026,31471,0,0,0
14538,61056,31509,0,0,0
14565,61091,31548,0,0,0
14594,61122,31585,0,0,0
14623,61151,31622,0,0,0
14646,61177,31655,0,0,0
14663,61195,31677,0,0,0
14680,61208,31694,0,0,0
14709,61222,31716,0,0,0
14744,61235,31743,0,0,0
14769,61248,31766,0,0,0
14780,61261,31792,0,0,0
14782,61270,31816,0,0,0
14775,61270,31822,0,0,0
14760,61258,31810,0,0,0
14746,61242,31796,0,0,0
14735,61233,31782,0,0,0
14727,61228,31762,0,0,0
14719,61223,31736,0,0,0
14707,61217,31708,0,0,0
14691,61210,31677,0,0,0
14665,61196,31636,0,0,0
14627,61171,31581,0,0,0
14584,61135,31521,0,0,0
14543,61096,31459,0,0,0
14501,61054,31393,0,0,0
14454,61007,31332,0,0,0
14408,60959,31278,0,0,0
14366,60911,31224,0,0,0
14322,60864,31164,0,0,0
14274,60819,31101,0,0,0
14223,60776,31039,0,0,0
14169,60734,30973,0,0,0
14105,60687,30898,0,0,0
14035,60632,30820,0,0,0
13967,60574,30741,0,0,0
13899,60515,30658,0,0,0
13830,60455,30568,0,0,0
13764,60397,30477,0,0,0
13705,60343,30390,0,0,0
13653,60295,30305,0,0,0
13603,60250,30225,0,0,0
13555,60206,30155,0,0,0
13514,60167,30096,0,0,0
13471,60130,30038,0,0,0
13416,60088,29975,0,0,0
13353,60039,29913,0,0,0
13292,59990,29851,0,0,0
13234,59945,29784,0,0,0
13181,59904,29711,0,0,0
13133,59868,29642,0,0,0
13092,59840,29583,0,0,0
13052,59816,29525,0,0,0
13007,59788,29464,0,0,0
12963,59759,29407,0,0,0
12922,59730,29354,0,0,0
12881,59697,29299,0,0,0
12838,59660,29241,0,0,0
12797,59623,29185,0,0,0
12763,59591,29133,0,0,0
12733,59561,29078,0,0,0
12707,59530,29023,0,0,0
12692,59505,28980,0,0,0
12681,59486,28944,0,0,0
12661,59463,28904,0,0,0
12629,59434,28859,0,0,0
12595,59405,28818,0,0,0
12563,59378,28778,0,0,0
12528,59349,28735,0,0,0
12496,59321,28693,0,0,0
12475,59299,28659,0,0,0
12459,59283,28627,0,0,0
12443,59271,28596,0,0,0
12425,59259,28568,0,0,0
12405,59246,28543,0,0,0
12383,59231,28515,0,0,0
12355,59210,28475,0,0,0
12320,59182,28426,0,0,0
12281,59150,28378,0,0,0
12242,59119,28329,0,0,0
12202,59089,28277,0,0,0
12163,59058,28228,0,0,0
12125,59028,28187,0,0,0
12089,59002,28148,0,0,0
12053,58976,28111,0,0,0
12018,58949,28075,0,0,0
11983,58918,28039,0,0,0
11946,58885,27998,0,0,0
11910,58850,27952,0,0,0
11873,58812,27906,0,0,0
11834,58773,27858,0,0,0
11791,58734,27801,0,0,0
11750,58698,27740,0,0,0
11714,58667,27681,0,0,0
11684,58643,27628,0,0,0
11653,58621,27575,0,0,0
11615,58598,27521,0,0,0
11579,58576,27473,0,0,0
11545,58551,27427,0,0,0
11504,58520,27377,0,0,0
11458,58484,27323,0,0,0
11413,58444,27269,0,0,0
11369,58405,27219,0,0,0
11327,58370,27173,0,0,0
11287,58338,27129,0,0,0
11252,58308,27089,0,0,0
11219,58282,27049,0,0,0
11188,58262,27008,0,0,0
11153,58241,26965,0,0,0
11113,58215,26920,0,0,0
11067,58180,26865,0,0,0
11016,58138,26803,0,0,0
10967,58095,26742,0,0,0
10926,58053,26682,0,0,0
10889,58010,26621,0,0,0
10852,57967,26562,0,0,0
10817,57927,26507,0,0,0
10783,57890,26458,0,0,0
10740,57854,26405,0,0,0
10687,57814,26348,0,0,0
10627,57772,26293,0,0,0
10566,57733,26239,0,0,0
10502,57697,26179,0,0,0
10432,57657,26107,0,0,0
10360,57610,26025,0,0,0
10290,57560,25941,0,0,0
10224,57514,25858,0,0,0
10165,57470,25778,0,0,0
10114,57432,25710,0,0,0
10077,57404,25664,0,0,0
10049,57387,25636,0,0,0
10035,57384,25628,0,0,0
10051,57405,25661,0,0,0
10118,57465,25756,0,0,0
10245,57577,25926,0,0,0
10443,57751,26184,0,0,0
10722,57991,26540,0,0,0
11070,58288,26986,0,0,0
11464,58622,27499,0,0,0
11886,58983,28056,0,0,0
12327,59362,28641,0,0,0
12773,59745,29234,0,0,0
13209,60113,29809,0,0,0
13620,60458,30352,0,0,0
14005,60779,30862,0,0,0
14361,61073,31334,0,0,0
14679,61333,31764,0,0,0
14958,61564,32159,0,0,0
15204,61769,32521,0,0,0
15414,61946,32834,0,0,0
15583,62087,33088,0,0,0
15717,62192,33287,0,0,0
15824,62272,33444,0,0,0
15908,62337,33566,0,0,0
15970,62384,33657,0,0,0
16012,62416,33721,0,0,0
16039,62440,33767,0,0,0
16055,62454,33797,0,0,0
16056,62452,33805,0,0,0
16041,62431,33786,0,0,0
16015,62399,33747,0,0,0
15976,62358,33694,0,0,0
15923,62304,33626,0,0,0
15858,62240,33543,0,0,0
15779,62170,33445,0,0,0
15689,62098,33333,0,0,0
15591,62019,33212,0,0,0
15493,61936,33086,0,0,0
15404,61859,32968,0,0,0
15323,61792,32863,0,0,0
15248,61730,32767,0,0,0
15182,61669,32677,0,0,0
15122,61605,32590,0,0,0
15065,61544,32510,0,0,0
15011,61487,32438,0,0,0
14963,61437,32373,0,0,0
14923,61395,32311,0,0,0
14883,61358,32247,0,0,0
14844,61323,32180,0,0,0
14805,61283,32111,0,0,0
14768,61247,32052,0,0,0
14730,61219,32002,0,0,0
14687,61192,31952,0,0,0
14639,61165,31901,0,0,0
14587,61136,31844,0,0,0
14524,61100,31775,0,0,0
14448,61052,31696,0,0,0
14367,60995,31614,0,0,0
14292,60940,31534,0,0,0
14227,60885,31458,0,0,0
14172,60834,31391,0,0,0
14130,60789,31339,0,0,0
14102,60757,31298,0,0,0
14084,60737,31268,0,0,0
14076,60726,31256,0,0,0
14077,60725,31260,0,0,0
14083,60733,31271,0,0,0
14090,60743,31280,0,0,0
14099,60750,31292,0,0,0
14112,60758,31311,0,0,0
14126,60767,31328,0,0,0
14145,60776,31344,0,0,0
14170,60792,31371,0,0,0
14206,60822,31414,0,0,0
14253,60863,31464,0,0,0
14304,60907,31512,0,0,0
14357,60952,31562,0,0,0
14413,60997,31614,0,0,0
14464,61038,31662,0,0,0
14499,61074,31704,0,0,0
14520,61108,31743,0,0,0
14530,61136,31774,0,0,0
14533,61156,31793,0,0,0
14533,61164,31804,0,0,0
14534,61160,31809,0,0,0
14538,61152,31811,0,0,0
14543,61143,31805,0,0,0
14547,61133,31794,0,0,0
14551,61121,31783,0,0,0
14551,61110,31775,0,0,0
14547,61097,31764,0,0,0
14533,61081,31743,0,0,0
14510,61061,31715,0,0,0
14480,61041,31682,0,0,0
14445,61019,31639,0,0,0
14406,60993,31589,0,0,0
14370,60966,31538,0,0,0
14338,60939,31482,0,0,0
14306,60908,31420,0,0,0
14269,60873,31354,0,0,0
14227,60836,31289,0,0,0
14182,60796,31222,0,0,0
14132,60746,31147,0,0,0
14078,60691,31069,0,0,0
14023,60634,30988,0,0,0
13971,60577,30901,0,0,0
13917,60517,30805,0,0,0
13862,60460,30714,0,0,0
13812,60413,30637,0,0,0
13761,60373,30563,0,0,0
13703,60331,30485,0,0,0
13638,60285,30406,0,0,0
13567,60234,30328,0,0,0
13495,60180,30247,0,0,0
13420,60123,30162,0,0,0
13344,60062,30076,0,0,0
13270,60001,29992,0,0,0
13200,59944,29904,0,0,0
13135,59891,29819,0,0,0
13079,59843,29745,0,0,0
13029,59803,29677,0,0,0
12979,59765,29607,0,0,0
12920,59720,29530,0,0,0
12857,59668,29452,0,0,0
12791,59613,29375,0,0,0
12724,59556,29293,0,0,0
12658,59500,29209,0,0,0
12600,59446,29132,0,0,0
12550,59397,29060,0,0,0
12504,59354,28991,0,0,0
12465,59317,28929,0,0,0
12436,59288,28877,0,0,0
12408,59261,28831,0,0,0
12373,59231,28782,0,0,0
12333,59195,28732,0,0,0
12291,59159,28688,0,0,0
12249,59126,28640,0,0,0
12204,59090,28584,0,0,0
12158,59057,28526,0,0,0
12119,59029,28474,0,0,0
12090,59005,28424,0,0,0
12065,58983,28376,0,0,0
12043,58962,28334,0,0,0
12024,58944,28303,0,0,0
12009,58930,28275,0,0,0
11990,58913,28245,0,0,0
11962,58889,28212,0,0,0
11931,58862,28177,0,0,0
11902,58835,28138,0,0,0
11870,58807,28096,0,0,0
11839,58780,28060,0,0,0
11817,58759,28030,0,0,0
11801,58742,27995,0,0,0
11786,58726,27959,0,0,0
11772,58709,27927,0,0,0
11762,58694,27898,0,0,0
11754,58683,27870,0,0,0
11737,58669,27834,0,0,0
11709,58645,27795,0,0,0
11674,58621,27757,0,0,0
11636,58599,27715,0,0,0
11594,58571,27669,0,0,0
11553,58538,27625,0,0,0
11521,58514,27587,0,0,0
11493,58495,27549,0,0,0
11466,58474,27506,0,0,0
11439,58450,27462,0,0,0
11412,58426,27418,0,0,0
11383,58403,27372,0,0,0
11353,58380,27324,0,0,0
11322,58358,27280,0,0,0
11291,58335,27239,0,0,0
11256,58309,27194,0,0,0
11216,58282,27144,0,0,0
11174,58254,27095,0,0,0
11132,58221,27044,0,0,0
11086,58179,26984,0,0,0
11038,58131,26918,0,0,0
10994,58082,26851,0,0,0
10955,58037,26783,0,0,0
10917,57994,26712,0,0,0
10877,57956,26642,0,0,0
10836,57920,26576,0,0,0
10792,57883,26510,0,0,0
10738,57841,26442,0,0,0
10677,57792,26373,0,0,0
10614,57742,26307,0,0,0
10553,57694,26241,0,0,0
10491,57649,26170,0,0,0
10433,57609,26100,0,0,0
10388,57577,26044,0,0,0
10360,57559,26006,0,0,0
10358,57561,25993,0,0,0
10397,57594,26028,0,0,0
10486,57671,26127,0,0,0
10627,57796,26294,0,0,0
10824,57969,26538,0,0,0
11085,58193,26871,0,0,0
11412,58470,27289,0,0,0
11790,58790,27770,0,0,0
12197,59134,28286,0,0,0
12614,59484,28816,0,0,0
13034,59833,29349,0,0,0
13448,60173,29870,0,0,0
13841,60496,30362,0,0,0
14206,60797,30825,0,0,0
14542,61076,31259,0,0,0
14846,61328,31658,0,0,0
15112,61549,32015,0,0,0
15345,61742,32336,0,0,0
15547,61909,32620,0,0,0
15714,62046,32856,0,0,0
15855,62158,33053,0,0,0
15980,62257,33220,0,0,0
16083,62339,33359,0,0,0
16160,62400,33471,0,0,0
16215,62441,33553,0,0,0
16254,62466,33608,0,0,0
16278,62472,33643,0,0,0
16287,62462,33659,0,0,0
16281,62439,33653,0,0,0
16256,62406,33630,0,0,0
16215,62362,33591,0,0,0
16154,62305,33528,0,0,0
16081,62237,33439,0,0,0
16007,62169,33340,0,0,0
15935,62103,33238,0,0,0
15860,62034,33130,0,0,0
15786,61962,33023,0,0,0
15709,61891,32919,0,0,0
15626,61819,32813,0,0,0
15533,61740,32699,0,0,0
15437,61656,32581,0,0,0
15343,61574,32468,0,0,0
15254,61499,32366,0,0,0
15173,61431,32268,0,0,0
15101,61370,32172,0,0,0
15042,61319,32086,0,0,0
14995,61277,32012,0,0,0
14949,61238,31944,0,0,0
14899,61200,31880,0,0,0
14844,61162,31819,0,0,0
14785,61119,31759,0,0,0
14718,61067,31694,0,0,0
14648,61011,31626,0,0,0
14581,60957,31556,0,0,0
14513,60898,31474,0,0,0
14440,60832,31379,0,0,0
14369,60764,31282,0,0,0
14306,60703,31195,0,0,0
14249,60649,31112,0,0,0
14197,60604,31039,0,0,0
14152,60572,30985,0,0,0
14114,60550,30945,0,0,0
14083,60534,30913,0,0,0
14060,60526,30888,0,0,0
14049,60525,30873,0,0,0
14052,60527,30865,0,0,0
14060,60533,30859,0,0,0
14072,60544,30862,0,0,0
14095,60566,30880,0,0,0
14128,60597,30911,0,0,0
14169,60632,30951,0,0,0
14215,60671,31002,0,0,0
14263,60711,31061,0,0,0
14306,60748,31119,0,0,0
14340,60780,31176,0,0,0
14372,60808,31235,0,0,0
14407,60835,31289,0,0,0
14449,60862,31334,0,0,0
14495,60888,31377,0,0,0
14544,60917,31429,0,0,0
14600,60953,31490,0,0,0
14651,60993,31544,0,0,0
14684,61019,31582,0,0,0
14699,61027,31603,0,0,0
14700,61023,31615,0,0,0
14693,61014,31619,0,0,0
14681,61004,31610,0,0,0
14666,60989,31594,0,0,0
14650,60975,31572,0,0,0
14633,60963,31544,0,0,0
14612,60948,31510,0,0,0
14591,60934,31480,0,0,0
14573,60922,31452,0,0,0
14547,60907,31414,0,0,0
14510,60885,31365,0,0,0
14471,60858,31316,0,0,0
14433,60829,31263,0,0,0
14388,60793,31198,0,0,0
14336,60744,31123,0,0,0
14283,60688,31043,0,0,0
14232,60633,30958,0,0,0
14176,60580,30868,0,0,0
14116,60526,30775,0,0,0
14063,60475,30688,0,0,0
14016,60431,30611,0,0,0
13966,60392,30537,0,0,0
13911,60349,30464,0,0,0
13855,60300,30391,0,0,0
13798,60249,30312,0,0,0
13729,60192,30222,0,0,0
13651,60125,30127,0,0,0
13572,60056,30033,0,0,0
13496,59987,29937,0,0,0
13422,59919,29841,0,0,0
13359,59858,29755,0,0,0
13306,59807,29682,0,0,0
13260,59767,29614,0,0,0
13217,59732,29544,0,0,0
13169,59695,29471,0,0,0
13111,59652,29399,0,0,0
13047,59605,29327,0,0,0
12974,59557,29247,0,0,0
12896,59508,29169,0,0,0
12819,59456,29091,0,0,0
12747,59405,29009,0,0,0
12685,59358,28929,0,0,0
12637,59316,28861,0,0,0
12600,59283,28803,0,0,0
12567,59251,28747,0,0,0
12534,59216,28690,0,0,0
12509,59182,28642,0,0,0
12486,59152,28602,0,0,0
12454,59118,28559,0,0,0
12404,59075,28500,0,0,0
12343,59025,28431,0,0,0
12285,58977,28366,0,0,0
12236,58939,28304,0,0,0
12195,58906,28247,0,0,0
12161,58875,28200,0,0,0
12135,58850,28160,0,0,0
12114,58833,28123,0,0,0
12096,58822,28089,0,0,0
12075,58809,28056,0,0,0
12049,58793,28017,0,0,0
12020,58771,27974,0,0,0
11986,58742,27929,0,0,0
11948,58710,27884,0,0,0
11908,58678,27838,0,0,0
11867,58647,27793,0,0,0
11830,58617,27753,0,0,0
11798,58593,27719,0,0,0
11769,58575,27687,0,0,0
11743,58559,27652,0,0,0
11718,58542,27617,0,0,0
11694,58522,27586,0,0,0
11665,58499,27554,0,0,0
11628,58470,27515,0,0,0
11586,58436,27471,0,0,0
11545,58403,27422,0,0,0
11505,58372,27367,0,0,0
11466,58343,27310,0,0,0
11429,58314,27259,0,0,0
11398,58287,27214,0,0,0
11365,58258,27164,0,0,0
11324,58223,27108,0,0,0
11276,58185,27051,0,0,0
11220,58143,26987,0,0,0
11152,58089,26912,0,0,0
11071,58028,26829,0,0,0
10987,57970,26751,0,0,0
10909,57918,26677,0,0,0
10836,57867,26597,0,0,0
10764,57812,26512,0,0,0
10697,57762,26434,0,0,0
10640,57720,26369,0,0,0
10586,57682,26308,0,0,0
10533,57640,26244,0,0,0
10483,57597,26182,0,0,0
10431,57553,26118,0,0,0
10371,57507,26049,0,0,0
10306,57456,25976,0,0,0
10246,57404,25908,0,0,0
10202,57365,25854,0,0,0
10177,57344,25822,0,0,0
10178,57349,25826,0,0,0
10225,57393,25888,0,0,0
10333,57491,26026,0,0,0
10510,57650,26251,0,0,0
10764,57874,26578,0,0,0
11098,58167,27009,0,0,0
11499,58516,27522,0,0,0
11943,58900,28088,0,0,0
12408,59296,28681,0,0,0
12875,59688,29275,0,0,0
13325,60059,29848,0,0,0
13743,60401,30386,0,0,0
14127,60714,30887,0,0,0
14479,61002,31345,0,0,0
14793,61258,31755,0,0,0
15066,61481,32122,0,0,0
15304,61674,32453,0,0,0
15511,61840,32745,0,0,0
15685,61981,32993,0,0,0
15824,62094,33194,0,0,0
15934,62184,33358,0,0,0
16021,62257,33491,0,0,0
16087,62315,33594,0,0,0
16132,62353,33667,0,0,0
16155,62370,33711,0,0,0
16162,62371,33734,0,0,0
16154,62354,33737,0,0,0
16128,62320,33716,0,0,0
16093,62277,33676,0,0,0
16054,62233,33625,0,0,0
16008,62187,33563,0,0,0
15951,62132,33484,0,0,0
15886,62071,33391,0,0,0
15816,62007,33295,0,0,0
15741,61941,33193,0,0,0
15652,61869,33081,0,0,0
15552,61789,32963,0,0,0
15445,61703,32845,0,0,0
15337,61611,32728,0,0,0
15231,61516,32609,0,0,0
15132,61427,32491,0,0,0
15042,61346,32378,0,0,0
14958,61272,32268,0,0,0
14879,61201,32163,0,0,0
14806,61135,32068,0,0,0
14736,61074,31981,0,0,0
14663,61013,31892,0,0,0
14587,60952,31802,0,0,0
14514,60897,31718,0,0,0
14443,60842,31634,0,0,0
14364,60781,31542,0,0,0
14278,60717,31445,0,0,0
14189,60646,31341,0,0,0
14095,60565,31225,0,0,0
13995,60480,31106,0,0,0
13893,60397,30992,0,0,0
13793,60317,30884,0,0,0
13699,60240,30777,0,0,0
13619,60174,30680,0,0,0
13561,60124,30600,0,0,0
13526,60090,30537,0,0,0
13504,60071,30489,0,0,0
13487,60061,30457,0,0,0
13479,60065,30448,0,0,0
13482,60080,30459,0,0,0
13496,60103,30485,0,0,0
13516,60130,30523,0,0,0
13546,60164,30574,0,0,0
13591,60205,30640,0,0,0
13641,60250,30707,0,0,0
13695,60296,30773,0,0,0
13756,60343,30841,0,0,0
13824,60393,30913,0,0,0
13894,60442,30987,0,0,0
13962,60493,31065,0,0,0
14030,60545,31146,0,0,0
14091,60594,31223,0,0,0
14138,60637,31294,0,0,0
14175,60675,31360,0,0,0
14208,60709,31423,0,0,0
14234,60735,31474,0,0,0
14244,60751,31505,0,0,0
14241,60761,31519,0,0,0
14237,60770,31525,0,0,0
14224,60769,31518,0,0,0
14198,60751,31494,0,0,0
14163,60716,31456,0,0,0
14124,60673,31410,0,0,0
14082,60628,31357,0,0,0
14037,60582,31298,0,0,0
13988,60535,31236,0,0,0
13937,60493,31174,0,0,0
13883,60456,31107,0,0,0
13825,60415,31035,0,0,0
13763,60366,30965,0,0,0
13695,60315,30900,0,0,0
13620,60263,30832,0,0,0
13544,60209,30758,0,0,0
13474,60154,30684,0,0,0
13411,60096,30607,0,0,0
13346,60037,30525,0,0,0
13274,59971,30437,0,0,0
13196,59900,30346,0,0,0
13119,59830,30251,0,0,0
13039,59761,30149,0,0,0
12954,59692,30040,0,0,0
12874,59627,29932,0,0,0
12799,59569,29825,0,0,0
12724,59513,29715,0,0,0
12649,59457,29609,0,0,0
12581,59405,29516,0,0,0
12520,59363,29434,0,0,0
12460,59326,29355,0,0,0
12401,59289,29282,0,0,0
12346,59246,29216,0,0,0
12290,59195,29149,0,0,0
12229,59134,29071,0,0,0
12162,59069,28989,0,0,0
12099,59009,28908,0,0,0
12039,58959,28828,0,0,0
11978,58916,28751,0,0,0
11919,58875,28680,0,0,0
11869,58838,28618,0,0,0
11831,58810,28563,0,0,0
11798,58788,28515,0,0,0
11766,58767,28474,0,0,0
11732,58744,28432,0,0,0
11693,58716,28386,0,0,0
11647,58679,28335,0,0,0
11595,58636,28283,0,0,0
11545,58593,28227,0,0,0
11500,58550,28163,0,0,0
11462,58515,28096,0,0,0
11432,58489,28038,0,0,0
11404,58467,27989,0,0,0
11366,58443,27938,0,0,0
11318,58413,27883,0,0,0
11269,58382,27835,0,0,0
11223,58349,27791,0,0,0
11180,58313,27741,0,0,0
11142,58274,27687,0,0,0
11106,58234,27631,0,0,0
11071,58197,27576,0,0,0
11036,58166,27521,0,0,0
11007,58143,27476,0,0,0
10993,58128,27452,0,0,0
10994,58128,27446,0,0,0
11013,58148,27463,0,0,0
11060,58195,27519,0,0,0
11148,58277,27633,0,0,0
11289,58405,27812,0,0,0
11485,58580,28055,0,0,0
11737,58800,28372,0,0,0
12050,59066,28767,0,0,0
12412,59370,29221,0,0,0
12802,59697,29711,0,0,0
13202,60032,30221,0,0,0
13600,60367,30738,0,0,0
13982,60690,31240,0,0,0
14335,60990,31710,0,0,0
14653,61264,32147,0,0,0
14938,61509,32554,0,0,0
15187,61726,32917,0,0,0
15406,61915,33225,0,0,0
15601,62080,33486,0,0,0
15781,62228,33714,0,0,0
15943,62364,33916,0,0,0
16080,62479,34087,0,0,0
16189,62570,34226,0,0,0
16275,62637,34339,0,0,0
16337,62680,34425,0,0,0
16374,62699,34487,0,0,0
16391,62699,34527,0,0,0
16387,62683,34540,0,0,0
16362,62648,34525,0,0,0
16322,62601,34485,0,0,0
16271,62549,34423,0,0,0
16218,62495,34348,0,0,0
16161,62437,34265,0,0,0
16099,62375,34170,0,0,0
16035,62311,34072,0,0,0
15966,62247,33977,0,0,0
15890,62182,33887,0,0,0
15802,62115,33792,0,0,0
15709,62048,33694,0,0,0
15620,61986,33600,0,0,0
15532,61926,33508,0,0,0
15444,61863,33410,0,0,0
15360,61796,33306,0,0,0
15281,61727,33200,0,0,0
15206,61653,33093,0,0,0
15139,61579,32984,0,0,0
15079,61510,32881,0,0,0
15018,61447,32786,0,0,0
14950,61382,32690,0,0,0
14870,61311,32589,0,0,0
14782,61239,32484,0,0,0
14690,61170,32375,0,0,0
14594,61101,32261,0,0,0
14498,61030,32139,0,0,0
14403,60959,32012,0,0,0
14310,60885,31886,0,0,0
14221,60807,31762,0,0,0
14138,60728,31647,0,0,0
14068,60658,31551,0,0,0
14016,60604,31474,0,0,0
13980,60564,31417,0,0,0
13959,60538,31386,0,0,0
13954,60528,31379,0,0,0
13963,60533,31388,0,0,0
13983,60552,31412,0,0,0
14015,60583,31452,0,0,0
14056,60624,31505,0,0,0
14099,60669,31558,0,0,0
14143,60715,31609,0,0,0
14190,60761,31666,0,0,0
14243,60810,31733,0,0,0
14303,60862,31801,0,0,0
14367,60914,31871,0,0,0
14432,60967,31941,0,0,0
14497,61021,32017,0,0,0
14561,61073,32096,0,0,0
14619,61119,32167,0,0,0
14668,61157,32229,0,0,0
14710,61189,32280,0,0,0
14745,61213,32320,0,0,0
14765,61226,32342,0,0,0
14771,61229,32348,0,0,0
14774,61232,32347,0,0,0
14772,61235,32341,0,0,0
14766,61234,32328,0,0,0
14763,61231,32311,0,0,0
14761,61224,32291,0,0,0
14754,61213,32269,0,0,0
14737,61195,32242,0,0,0
14713,61175,32213,0,0,0
14681,61155,32185,0,0,0
14637,61129,32150,0,0,0
14585,61095,32100,0,0,0
14532,61056,32045,0,0,0
14477,61016,31983,0,0,0
14413,60970,31912,0,0,0
14342,60918,31841,0,0,0
14268,60861,31768,0,0,0
14194,60799,31688,0,0,0
14119,60734,31604,0,0,0
14046,60670,31524,0,0,0
13982,60611,31447,0,0,0
13922,60554,31362,0,0,0
13863,60492,31271,0,0,0
13807,60429,31185,0,0,0
13754,60372,31107,0,0,0
13694,60319,31029,0,0,0
13630,60265,30946,0,0,0
13566,60209,30862,0,0,0
13501,60155,30779,0,0,0
13430,60102,30692,0,0,0
13356,60045,30602,0,0,0
13288,59988,30515,0,0,0
13224,59933,30435,0,0,0
13161,59875,30354,0,0,0
13097,59814,30271,0,0,0
13035,59757,30189,0,0,0
12975,59711,30111,0,0,0
12914,59671,30030,0,0,0
12854,59630,29948,0,0,0
12802,59589,29871,0,0,0
12755,59547,29797,0,0,0
12703,59499,29724,0,0,0
12644,59448,29650,0,0,0
12585,59397,29576,0,0,0
12531,59346,29502,0,0,0
12476,59292,29422,0,0,0
12415,59236,29337,0,0,0
12357,59182,29256,0,0,0
12305,59136,29182,0,0,0
12261,59099,29114,0,0,0
12227,59070,29055,0,0,0
12201,59047,29003,0,0,0
12184,59035,28958,0,0,0
12170,59028,28918,0,0,0
12154,59021,28886,0,0,0
12142,59016,28866,0,0,0
12137,59018,28854,0,0,0
12139,59024,28853,0,0,0
12158,59044,28878,0,0,0
12208,59092,28942,0,0,0
12302,59180,29053,0,0,0
12449,59312,29226,0,0,0
12656,59492,29478,0,0,0
12930,59726,29810,0,0,0
13261,60004,30208,0,0,0
13626,60309,30662,0,0,0
14013,60630,31158,0,0,0
14405,60958,31673,0,0,0
14791,61283,32180,0,0,0
15156,61590,32659,0,0,0
15498,61874,33103,0,0,0
15820,62135,33513,0,0,0
16117,62369,33892,0,0,0
16383,62574,34235,0,0,0
16616,62756,34542,0,0,0
16823,62922,34819,0,0,0
17002,63070,35061,0,0,0
17155,63200,35270,0,0,0
17287,63311,35450,0,0,0
17399,63403,35602,0,0,0
17485,63472,35731,0,0,0
17546,63515,35833,0,0,0
17584,63539,35910,0,0,0
17600,63551,35959,0,0,0
17592,63551,35978,0,0,0
17569,63540,35974,0,0,0
17539,63516,35954,0,0,0
17498,63479,35922,0,0,0
17442,63430,35874,0,0,0
17376,63369,35807,0,0,0
17312,63302,35725,0,0,0
17250,63237,35640,0,0,0
17183,63174,35551,0,0,0
17113,63109,35454,0,0,0
17048,63049,35359,0,0,0
16991,62997,35269,0,0,0
16937,62946,35183,0,0,0
16884,62895,35101,0,0,0
16831,62846,35028,0,0,0
16776,62801,34960,0,0,0
16715,62755,34891,0,0,0
16650,62705,34817,0,0,0
16582,62651,34741,0,0,0
16508,62595,34662,0,0,0
16432,62536,34577,0,0,0
16363,62478,34490,0,0,0
16301,62423,34408,0,0,0
16238,62368,34324,0,0,0
16177,62314,34238,0,0,0
16120,62261,34149,0,0,0
16062,62209,34058,0,0,0
15996,62157,33969,0,0,0
15928,62102,33882,0,0,0
15864,62052,33800,0,0,0
15805,62006,33725,0,0,0
15745,61960,33657,0,0,0
15682,61914,33594,0,0,0
15622,61873,33532,0,0,0
15568,61837,33470,0,0,0
15522,61801,33411,0,0,0
15486,61769,33359,0,0,0
15469,61750,33322,0,0,0
15472,61744,33301,0,0,0
15485,61747,33294,0,0,0
15504,61756,33296,0,0,0
15533,61773,33310,0,0,0
15571,61798,33341,0,0,0
15611,61829,33380,0,0,0
15653,61865,33422,0,0,0
15703,61905,33471,0,0,0
15763,61947,33529,0,0,0
15820,61989,33591,0,0,0
15871,62027,33651,0,0,0
15918,62067,33709,0,0,0
15960,62111,33766,0,0,0
15993,62152,33817,0,0,0
16014,62178,33857,0,0,0
16030,62192,33886,0,0,0
16041,62197,33907,0,0,0
16046,62197,33921,0,0,0
16047,62194,33929,0,0,0
16050,62191,33934,0,0,0
16053,62187,33935,0,0,0
16051,62184,33929,0,0,0
16045,62181,33918,0,0,0
16037,62179,33906,0,0,0
16026,62177,33888,0,0,0
16011,62172,33860,0,0,0
15990,62163,33821,0,0,0
15961,62146,33774,0,0,0
15923,62120,33717,0,0,0
15874,62078,33652,0,0,0
15820,62024,33585,0,0,0
15768,61967,33519,0,0,0
15714,61908,33447,0,0,0
15655,61847,33370,0,0,0
15597,61793,33293,0,0,0
15539,61749,33218,0,0,0
15476,61704,33139,0,0,0
15411,61657,33052,0,0,0
15350,61609,32964,0,0,0
15291,61564,32877,0,0,0
15230,61515,32787,0,0,0
15168,61460,32694,0,0,0
15106,61403,32604,0,0,0
15040,61344,32517,0,0,0
14963,61283,32428,0,0,0
14882,61222,32333,0,0,0
14806,61162,32235,0,0,0
14736,61103,32137,0,0,0
14665,61045,32042,0,0,0
14596,60989,31952,0,0,0
14539,60940,31870,0,0,0
14490,60896,31795,0,0,0
14440,60853,31727,0,0,0
14391,60814,31670,0,0,0
14345,60779,31623,0,0,0
14299,60744,31577,0,0,0
14249,60705,31528,0,0,0
14200,60667,31484,0,0,0
14155,60629,31436,0,0,0
14112,60588,31377,0,0,0
14070,60547,31311,0,0,0
14037,60510,31252,0,0,0
14016,60480,31202,0,0,0
13995,60455,31151,0,0,0
13972,60431,31099,0,0,0
13949,60408,31051,0,0,0
13928,60386,31008,0,0,0
13906,60365,30965,0,0,0
13877,60340,30919,0,0,0
13840,60311,30874,0,0,0
13800,60277,30824,0,0,0
13749,60235,30762,0,0,0
13690,60185,30689,0,0,0
13632,60133,30615,0,0,0
13578,60085,30546,0,0,0
13529,60045,30483,0,0,0
13485,60011,30434,0,0,0
13451,59987,30397,0,0,0
13424,59967,30363,0,0,0
13399,59947,30325,0,0,0
13375,59926,30284,0,0,0
13351,59903,30243,0,0,0
13325,59881,30202,0,0,0
13300,59861,30162,0,0,0
13282,59845,30132,0,0,0
13279,59843,30122,0,0,0
13301,59865,30140,0,0,0
13360,59919,30199,0,0,0
13467,60011,30323,0,0,0
13632,60152,30525,0,0,0
13854,60347,30803,0,0,0
14126,60588,31150,0,0,0
14440,60869,31564,0,0,0
14786,61178,32023,0,0,0
15150,61501,32503,0,0,0
15517,61825,32986,0,0,0
15877,62138,33458,0,0,0
16227,62437,33910,0,0,0
16563,62718,34343,0,0,0
16877,62976,34749,0,0,0
17169,63208,35125,0,0,0
17442,63422,35475,0,0,0
17693,63618,35797,0,0,0
17913,63791,36088,0,0,0
18104,63942,36347,0,0,0
18267,64074,36574,0,0,0
18399,64183,36767,0,0,0
18499,64263,36922,0,0,0
18575,64323,37045,0,0,0
18633,64365,37144,0,0,0
18663,64385,37216,0,0,0
18671,64381,37258,0,0,0
18664,64358,37272,0,0,0
18643,64323,37263,0,0,0
18605,64282,37233,0,0,0
18555,64235,37181,0,0,0
18498,64187,37115,0,0,0
18438,64137,37043,0,0,0
18375,64085,36968,0,0,0
18306,64028,36885,0,0,0
18235,63969,36798,0,0,0
18169,63912,36713,0,0,0
18103,63853,36625,0,0,0
18038,63795,36535,0,0,0
17977,63741,36448,0,0,0
17918,63688,36361,0,0,0
17857,63635,36269,0,0,0
17796,63583,36178,0,0,0
17743,63537,36100,0,0,0
17698,63500,36036,0,0,0
17653,63463,35979,0,0,0
17606,63423,35923,0,0,0
17556,63382,35866,0,0,0
17505,63341,35807,0,0,0
17452,63306,35749,0,0,0
17400,63275,35689,0,0,0
17347,63243,35623,0,0,0
17289,63201,35547,0,0,0
17220,63148,35466,0,0,0
17139,63083,35384,0,0,0
17054,63010,35294,0,0,0
16971,62935,35194,0,0,0
16889,62863,35097,0,0,0
16810,62798,35007,0,0,0
16744,62746,34926,0,0,0
16691,62704,34854,0,0,0
16648,62670,34789,0,0,0
16618,62642,34732,0,0,0
16599,62622,34693,0,0,0
16586,62611,34671,0,0,0
16574,62602,34658,0,0,0
16566,62596,34651,0,0,0
16565,62595,34652,0,0,0
16570,62599,34653,0,0,0
16585,62609,34656,0,0,0
16609,62629,34666,0,0,0
16642,62656,34688,0,0,0
16677,62686,34718,0,0,0
16713,62718,34751,0,0,0
16752,62755,34789,0,0,0
16793,62795,34833,0,0,0
16828,62835,34880,0,0,0
16855,62871,34924,0,0,0
16878,62899,34962,0,0,0
16896,62922,34993,0,0,0
16910,62935,35016,0,0,0
16926,62937,35030,0,0,0
16944,62933,35037,0,0,0
16961,62927,35038,0,0,0
16970,62919,35035,0,0,0
16971,62910,35028,0,0,0
16972,62903,35023,0,0,0
16969,62899,35020,0,0,0
16952,62888,35010,0,0,0
16923,62867,34990,0,0,0
16886,62840,34963,0,0,0
16842,62811,34925,0,0,0
16793,62778,34877,0,0,0
16741,62740,34822,0,0,0
16696,62702,34763,0,0,0
16657,62664,34704,0,0,0
16621,62625,34644,0,0,0
16586,62583,34581,0,0,0
16547,62545,34522,0,0,0
16501,62511,34465,0,0,0
16448,62476,34403,0,0,0
16392,62440,34335,0,0,0
16336,62401,34259,0,0,0
16275,62356,34171,0,0,0
16204,62302,34071,0,0,0
16128,62245,33969,0,0,0
16056,62188,33872,0,0,0
15986,62126,33779,0,0,0
15918,62064,33688,0,0,0
15858,62006,33598,0,0,0
15799,61953,33510,0,0,0
15738,61901,33427,0,0,0
15678,61847,33347,0,0,0
15619,61793,33268,0,0,0
15560,61741,33193,0,0,0
15496,61684,33116,0,0,0
15432,61621,33031,0,0,0
15377,61561,32944,0,0,0
15330,61511,32861,0,0,0
15282,61466,32782,0,0,0
15232,61427,32705,0,0,0
15186,61401,32635,0,0,0
15139,61378,32567,0,0,0
15080,61346,32493,0,0,0
15013,61304,32413,0,0,0
14944,61256,32330,0,0,0
14874,61209,32248,0,0,0
14808,61162,32169,0,0,0
14752,61116,32099,0,0,0
14708,61076,32040,0,0,0
14674,61043,31989,0,0,0
14644,61008,31943,0,0,0
14619,60971,31899,0,0,0
14593,60931,31854,0,0,0
14566,60894,31808,0,0,0
14536,60860,31759,0,0,0
14503,60826,31708,0,0,0
14467,60792,31659,0,0,0
14428,60758,31611,0,0,0
14389,60727,31560,0,0,0
14355,60704,31519,0,0,0
14320,60683,31487,0,0,0
14276,60657,31450,0,0,0
14228,60623,31404,0,0,0
14181,60588,31357,0,0,0
14137,60555,31309,0,0,0
14095,60526,31255,0,0,0
14052,60493,31194,0,0,0
14014,60459,31133,0,0,0
13982,60430,31077,0,0,0
13952,60402,31025,0,0,0
13920,60375,30978,0,0,0
13887,60350,30939,0,0,0
13853,60327,30903,0,0,0
13816,60299,30865,0,0,0
13777,60268,30827,0,0,0
13740,60238,30787,0,0,0
13702,60209,30737,0,0,0
13660,60176,30675,0,0,0
13616,60142,30611,0,0,0
13578,60114,30556,0,0,0
13545,60088,30502,0,0,0
13507,60058,30445,0,0,0
13464,60022,30388,0,0,0
13419,59981,30328,0,0,0
13373,59936,30260,0,0,0
13324,59892,30190,0,0,0
13282,59853,30128,0,0,0
13247,59825,30076,0,0,0
13214,59799,30026,0,0,0
13179,59768,29978,0,0,0
13144,59734,29934,0,0,0
13104,59704,29893,0,0,0
13058,59673,29843,0,0,0
13009,59635,29781,0,0,0
12962,59590,29712,0,0,0
12923,59549,29646,0,0,0
12890,59516,29582,0,0,0
12855,59485,29519,0,0,0
12821,59460,29466,0,0,0
12787,59436,29417,0,0,0
12748,59410,29364,0,0,0
12702,59375,29308,0,0,0
12654,59334,29254,0,0,0
12612,59293,29203,0,0,0
12573,59253,29148,0,0,0
12537,59216,29091,0,0,0
12510,59184,29040,0,0,0
12492,59161,28996,0,0,0
12473,59147,28955,0,0,0
12445,59136,28917,0,0,0
12410,59124,28880,0,0,0
12368,59108,28838,0,0,0
12319,59080,28788,0,0,0
12266,59042,28733,0,0,0
12213,58997,28675,0,0,0
12158,58948,28605,0,0,0
12103,58896,28529,0,0,0
12053,58845,28455,0,0,0
12007,58800,28385,0,0,0
11959,58761,28316,0,0,0
11903,58720,28246,0,0,0
11847,58673,28177,0,0,0
11793,58625,28107,0,0,0
11746,58583,28037,0,0,0
11706,58547,27976,0,0,0
11686,58529,27948,0,0,0
11713,58554,27974,0,0,0
11801,58631,28068,0,0,0
11955,58763,28247,0,0,0
12183,58960,28529,0,0,0
12490,59229,28916,0,0,0
12869,59562,29398,0,0,0
13300,59937,29952,0,0,0
13761,60336,30555,0,0,0
14240,60748,31183,0,0,0
14719,61154,31809,0,0,0
15183,61544,32415,0,0,0
15628,61912,32990,0,0,0
16044,62255,33527,0,0,0
16420,62569,34018,0,0,0
16753,62848,34458,0,0,0
17045,63092,34847,0,0,0
17301,63302,35184,0,0,0
17519,63476,35470,0,0,0
17701,63621,35715,0,0,0
17859,63743,35925,0,0,0
17995,63844,36103,0,0,0
18101,63921,36251,0,0,0
18180,63976,36373,0,0,0
18236,64015,36477,0,0,0
18268,64039,36556,0,0,0
18273,64043,36599,0,0,0
18256,64026,36604,0,0,0
18227,63997,36586,0,0,0
18186,63961,36552,0,0,0
18131,63910,36490,0,0,0
18064,63844,36403,0,0,0
17990,63771,36305,0,0,0
17911,63695,36205,0,0,0
17826,63621,36104,0,0,0
17739,63550,36004,0,0,0
17657,63487,35907,0,0,0
17578,63433,35816,0,0,0
17495,63377,35727,0,0,0
17412,63317,35632,0,0,0
17338,63256,35535,0,0,0
17271,63194,35443,0,0,0
17211,63134,35355,0,0,0
17159,63079,35275,0,0,0
17117,63036,35211,0,0,0
17079,63003,35158,0,0,0
17041,62974,35112,0,0,0
17000,62948,35074,0,0,0
16962,62922,35041,0,0,0
16924,62891,35005,0,0,0
16874,62854,34958,0,0,0
16805,62815,34897,0,0,0
16727,62774,34824,0,0,0
16647,62723,34741,0,0,0
16563,62666,34652,0,0,0
16484,62608,34562,0,0,0
16418,62558,34477,0,0,0
16365,62512,34395,0,0,0
16321,62469,34318,0,0,0
16284,62432,34254,0,0,0
16253,62402,34206,0,0,0
16229,62382,34171,0,0,0
16208,62364,34143,0,0,0
16191,62349,34121,0,0,0
16176,62340,34108,0,0,0
16160,62331,34096,0,0,0
16145,62318,34085,0,0,0
16135,62306,34080,0,0,0
16133,62301,34083,0,0,0
16137,62301,34089,0,0,0
16149,62305,34102,0,0,0
16173,62322,34127,0,0,0
16210,62352,34166,0,0,0
16251,62390,34213,0,0,0
16290,62429,34261,0,0,0
16329,62471,34309,0,0,0
16369,62514,34356,0,0,0
16404,62551,34396,0,0,0
16434,62580,34429,0,0,0
16460,62597,34458,0,0,0
16480,62603,34483,0,0,0
16491,62599,34496,0,0,0
16494,62592,34499,0,0,0
16499,62589,34500,0,0,0
16499,62590,34501,0,0,0
16489,62592,34500,0,0,0
16473,62594,34494,0,0,0
16456,62596,34486,0,0,0
16436,62597,34477,0,0,0
16409,62588,34455,0,0,0
16376,62568,34423,0,0,0
16342,62537,34385,0,0,0
16302,62497,34339,0,0,0
16256,62451,34286,0,0,0
16208,62404,34227,0,0,0
16154,62359,34168,0,0,0
16093,62316,34109,0,0,0
16032,62272,34045,0,0,0
15975,62227,33974,0,0,0
15919,62180,33898,0,0,0
15862,62134,33815,0,0,0
15808,62090,33729,0,0,0
15760,62049,33649,0,0,0
15714,62011,33579,0,0,0
15665,61969,33513,0,0,0
15609,61918,33444,0,0,0
15549,61858,33368,0,0,0
15483,61792,33286,0,0,0
15407,61720,33194,0,0,0
15327,61646,33097,0,0,0
15247,61574,32995,0,0,0
15166,61504,32889,0,0,0
15080,61433,32781,0,0,0
14993,61364,32674,0,0,0
14912,61302,32575,0,0,0
14842,61251,32486,0,0,0
14778,61209,32405,0,0,0
14718,61172,32324,0,0,0
14663,61139,32246,0,0,0
14608,61104,32170,0,0,0
14547,61063,32091,0,0,0
14481,61017,32010,0,0,0
14414,60966,31926,0,0,0
14346,60909,31843,0,0,0
14284,60853,31770,0,0,0
14230,60802,31710,0,0,0
14183,60761,31659,0,0,0
14137,60725,31607,0,0,0
14089,60686,31550,0,0,0
14050,60652,31497,0,0,0
14016,60622,31453,0,0,0
13979,60593,31411,0,0,0
13935,60564,31369,0,0,0
13890,60534,31325,0,0,0
13846,60502,31276,0,0,0
13801,60467,31222,0,0,0
13761,60428,31166,0,0,0
13729,60390,31116,0,0,0
13700,60358,31070,0,0,0
13669,60330,31023,0,0,0
13633,60302,30976,0,0,0
13597,60277,30934,0,0,0
13563,60256,30897,0,0,0
13524,60236,30858,0,0,0
13481,60212,30813,0,0,0
13439,60183,30765,0,0,0
13399,60149,30712,0,0,0
13357,60110,30651,0,0,0
13314,60074,30586,0,0,0
13277,60046,30534,0,0,0
13247,60029,30495,0,0,0
13225,60014,30458,0,0,0
13210,59995,30422,0,0,0
13201,59972,30387,0,0,0
13192,59946,30343,0,0,0
13177,59918,30296,0,0,0
13155,59891,30250,0,0,0
13127,59861,30204,0,0,0
13092,59829,30155,0,0,0
13050,59797,30106,0,0,0
13003,59765,30063,0,0,0
12955,59737,30026,0,0,0
12911,59714,29985,0,0,0
12871,59694,29941,0,0,0
12840,59674,29900,0,0,0
12814,59656,29858,0,0,0
12786,59636,29811,0,0,0
12751,59611,29760,0,0,0
12713,59585,29713,0,0,0
12674,59562,29671,0,0,0
12636,59536,29628,0,0,0
12604,59506,29583,0,0,0
12579,59478,29543,0,0,0
12556,59456,29509,0,0,0
12531,59437,29476,0,0,0
12503,59412,29438,0,0,0
12470,59380,29398,0,0,0
12428,59344,29352,0,0,0
12376,59304,29293,0,0,0
12324,59263,29229,0,0,0
12279,59226,29167,0,0,0
12243,59195,29106,0,0,0
12209,59169,29046,0,0,0
12172,59141,28987,0,0,0
12133,59107,28931,0,0,0
12089,59069,28871,0,0,0
12034,59023,28802,0,0,0
11964,58965,28725,0,0,0
11890,58905,28645,0,0,0
11819,58850,28566,0,0,0
11753,58798,28487,0,0,0
11697,58749,28413,0,0,0
11652,58711,28353,0,0,0
11619,58688,28308,0,0,0
11601,58678,28289,0,0,0
11615,58692,28315,0,0,0
11680,58742,28400,0,0,0
11809,58839,28550,0,0,0
12008,59002,28784,0,0,0
12281,59236,29117,0,0,0
12619,59533,29539,0,0,0
13002,59871,30023,0,0,0
13409,60224,30545,0,0,0
13825,60583,31090,0,0,0
14244,60944,31641,0,0,0
14652,61297,32175,0,0,0
15044,61629,32682,0,0,0
15415,61935,33160,0,0,0
15760,62214,33605,0,0,0
16071,62465,34008,0,0,0
16345,62686,34367,0,0,0
16589,62883,34690,0,0,0
16802,63055,34978,0,0,0
16979,63198,35226,0,0,0
17121,63315,35428,0,0,0
17234,63406,35589,0,0,0
17327,63482,35724,0,0,0
17397,63542,35834,0,0,0
17440,63575,35906,0,0,0
17460,63580,35946,0,0,0
17451,63566,35962,0,0,0
17413,63532,35952,0,0,0
17355,63484,35916,0,0,0
17290,63427,35859,0,0,0
17219,63361,35786,0,0,0
17143,63291,35700,0,0,0
17061,63221,35604,0,0,0
16974,63152,35501,0,0,0
16884,63085,35397,0,0,0
16791,63013,35293,0,0,0
16695,62934,35187,0,0,0
16597,62849,35076,0,0,0
16494,62763,34961,0,0,0
16386,62682,34842,0,0,0
16281,62604,34725,0,0,0
16187,62530,34611,0,0,0
16105,62459,34500,0,0,0
16030,62390,34393,0,0,0
15961,62328,34294,0,0,0
15897,62279,34210,0,0,0
15833,62238,34135,0,0,0
15762,62192,34058,0,0,0
15690,62141,33979,0,0,0
15623,62091,33901,0,0,0
15558,62035,33820,0,0,0
15489,61972,33731,0,0,0
15417,61910,33632,0,0,0
15343,61849,33534,0,0,0
15267,61786,33442,0,0,0
15184,61717,33351,0,0,0
15097,61650,33262,0,0,0
15015,61587,33178,0,0,0
14934,61526,33097,0,0,0
14862,61475,33025,0,0,0
14811,61439,32964,0,0,0
14779,61415,32913,0,0,0
14757,61397,32872,0,0,0
14743,61385,32844,0,0,0
14738,61377,32830,0,0,0
14743,61371,32825,0,0,0
14752,61367,32826,0,0,0
14766,61370,32836,0,0,0
14791,61384,32859,0,0,0
14825,61406,32894,0,0,0
14861,61436,32941,0,0,0
14899,61474,32997,0,0,0
14933,61517,33056,0,0,0
14958,61561,33114,0,0,0
14977,61598,33167,0,0,0
14998,61629,33212,0,0,0
15021,61655,33252,0,0,0
15041,61678,33289,0,0,0
15059,61702,33325,0,0,0
15081,61727,33359,0,0,0
15107,61748,33392,0,0,0
15127,61763,33421,0,0,0
15139,61766,33441,0,0,0
15142,61760,33450,0,0,0
15135,61747,33455,0,0,0
15119,61730,33448,0,0,0
15093,61708,33423,0,0,0
15060,61682,33381,0,0,0
15025,61659,33334,0,0,0
14989,61636,33285,0,0,0
14944,61604,33231,0,0,0
14889,61564,33170,0,0,0
14832,61520,33103,0,0,0
14771,61470,33032,0,0,0
14705,61413,32953,0,0,0
14636,61355,32871,0,0,0
14572,61301,32787,0,0,0
14509,61248,32701,0,0,0
14443,61195,32614,0,0,0
14380,61147,32533,0,0,0
14315,61099,32459,0,0,0
14245,61045,32390,0,0,0
14172,60986,32316,0,0,0
14101,60926,32235,0,0,0
14029,60866,32147,0,0,0
13951,60804,32049,0,0,0
13871,60742,31942,0,0,0
13793,60683,31834,0,0,0
13715,60623,31731,0,0,0
13634,60560,31634,0,0,0
13555,60498,31546,0,0,0
13478,60438,31466,0,0,0
13398,60380,31382,0,0,0
13315,60316,31291,0,0,0
13235,60245,31198,0,0,0
13167,60181,31113,0,0,0
13110,60131,31039,0,0,0
13057,60091,30972,0,0,0
13011,60057,30911,0,0,0
12972,60031,30858,0,0,0
12935,60007,30806,0,0,0
12891,59976,30751,0,0,0
12840,59934,30696,0,0,0
12790,59892,30640,0,0,0
12740,59851,30575,0,0,0
12693,59810,30505,0,0,0
12657,59776,30446,0,0,0
12632,59754,30403,0,0,0
12607,59739,30364,0,0,0
12577,59719,30320,0,0,0
12542,59693,30277,0,0,0
12508,59666,30235,0,0,0
12477,59636,30190,0,0,0
12447,59604,30142,0,0,0
12426,59577,30098,0,0,0
12415,59560,30060,0,0,0
12409,59548,30022,0,0,0
12402,59538,29983,0,0,0
12394,59532,29953,0,0,0
12382,59524,29930,0,0,0
12365,59510,29904,0,0,0
12344,59493,29875,0,0,0
12327,59480,29846,0,0,0
12313,59469,29815,0,0,0
12291,59451,29777,0,0,0
12262,59429,29738,0,0,0
12236,59412,29706,0,0,0
12210,59396,29681,0,0,0
12182,59378,29657,0,0,0
12153,59356,29634,0,0,0
12125,59334,29609,0,0,0
12098,59313,29577,0,0,0
12071,59291,29540,0,0,0
12045,59263,29501,0,0,0
12019,59234,29462,0,0,0
11991,59207,29422,0,0,0
11960,59181,29380,0,0,0
11928,59150,29337,0,0,0
11896,59118,29293,0,0,0
11865,59090,29247,0,0,0
11829,59058,29194,0,0,0
11785,59015,29140,0,0,0
11739,58972,29086,0,0,0
11693,58935,29027,0,0,0
11647,58902,28966,0,0,0
11606,58869,28908,0,0,0
11566,58838,28852,0,0,0
11523,58806,28790,0,0,0
11470,58769,28721,0,0,0
11416,58734,28652,0,0,0
11363,58698,28585,0,0,0
11304,58656,28508,0,0,0
11245,58611,28428,0,0,0
11194,58567,28355,0,0,0
11153,58522,28289,0,0,0
11117,58484,28232,0,0,0
11088,58454,28188,0,0,0
11076,58442,28170,0,0,0
11092,58459,28187,0,0,0
11148,58512,28252,0,0,0
11265,58615,28387,0,0,0
11457,58782,28616,0,0,0
11728,59017,28943,0,0,0
12066,59311,29355,0,0,0
12451,59644,29836,0,0,0
12868,60001,30365,0,0,0
13298,60370,30917,0,0,0
13724,60730,31468,0,0,0
14134,61069,32000,0,0,0
14525,61389,32505,0,0,0
14891,61689,32980,0,0,0
15225,61963,33417,0,0,0
15524,62208,33812,0,0,0
15794,62434,34173,0,0,0
16034,62641,34497,0,0,0
16237,62815,34774,0,0,0
16404,62953,35002,0,0,0
16543,63062,35185,0,0,0
16658,63147,35331,0,0,0
16758,63215,35452,0,0,0
16848,63272,35556,0,0,0
16920,63316,35645,0,0,0
16967,63346,35714,0,0,0
16990,63358,35757,0,0,0
16992,63352,35771,0,0,0
16973,63327,35761,0,0,0
16932,63283,35729,0,0,0
16877,63227,35677,0,0,0
16813,63169,35613,0,0,0
16744,63116,35545,0,0,0
16668,63066,35473,0,0,0
16590,63012,35388,0,0,0
16515,62957,35297,0,0,0
16445,62903,35207,0,0,0
16372,62841,35113,0,0,0
16296,62771,35011,0,0,0
16223,62697,34907,0,0,0
16156,62625,34811,0,0,0
16097,62561,34729,0,0,0
16047,62505,34658,0,0,0
16005,62458,34599,0,0,0
15966,62422,34550,0,0,0
15925,62390,34505,0,0,0
15884,62356,34456,0,0,0
15846,62323,34403,0,0,0
15806,62291,34346,0,0,0
15759,62254,34280,0,0,0
15702,62211,34204,0,0,0
15642,62167,34127,0,0,0
15579,62124,34050,0,0,0
15510,62076,33968,0,0,0
15437,62020,33878,0,0,0
15362,61961,33784,0,0,0
15291,61904,33692,0,0,0
15225,61850,33603,0,0,0
15173,61803,33523,0,0,0
15139,61767,33461,0,0,0
15121,61742,33419,0,0,0
15109,61721,33391,0,0,0
15100,61703,33373,0,0,0
15094,61690,33363,0,0,0
15094,61685,33361,0,0,0
15097,61682,33364,0,0,0
15107,61687,33374,0,0,0
15130,61704,33394,0,0,0
15166,61735,33426,0,0,0
15208,61772,33472,0,0,0
15256,61812,33539,0,0,0
15310,61851,33614,0,0,0
15361,61888,33685,0,0,0
15407,61924,33745,0,0,0
15452,61956,33796,0,0,0
15501,61990,33845,0,0,0
15552,62027,33892,0,0,0
15603,62070,33939,0,0,0
15654,62119,33986,0,0,0
15694,62165,34030,0,0,0
15716,62199,34066,0,0,0
15726,62220,34091,0,0,0
15732,62231,34106,0,0,0
15736,62238,34116,0,0,0
15734,62243,34120,0,0,0
15725,62241,34113,0,0,0
15715,62233,34100,0,0,0
15702,62221,34081,0,0,0
15678,62197,34052,0,0,0
15644,62158,34011,0,0,0
15606,62111,33961,0,0,0
15563,62060,33906,0,0,0
15518,62007,33842,0,0,0
15473,61957,33775,0,0,0
15433,61916,33714,0,0,0
15393,61881,33659,0,0,0
15347,61844,33605,0,0,0
15297,61809,33550,0,0,0
15247,61779,33491,0,0,0
15193,61750,33427,0,0,0
15133,61717,33356,0,0,0
15075,61682,33282,0,0,0
15030,61646,33210,0,0,0
14991,61608,33138,0,0,0
14946,61566,33066,0,0,0
14892,61521,32990,0,0,0
14831,61468,32907,0,0,0
14762,61407,32816,0,0,0
14687,61341,32719,0,0,0
14615,61273,32619,0,0,0
14548,61210,32525,0,0,0
14485,61158,32439,0,0,0
14424,61110,32360,0,0,0
14368,61065,32286,0,0,0
14317,61023,32218,0,0,0
14268,60980,32152,0,0,0
14219,60933,32084,0,0,0
14174,60889,32017,0,0,0
14131,60855,31956,0,0,0
14089,60828,31899,0,0,0
14048,60801,31840,0,0,0
14010,60771,31781,0,0,0
13972,60742,31723,0,0,0
13933,60711,31665,0,0,0
13897,60678,31608,0,0,0
13869,60644,31558,0,0,0
13846,60613,31509,0,0,0
13820,60583,31459,0,0,0
13788,60549,31413,0,0,0
13756,60519,31371,0,0,0
13725,60494,31330,0,0,0
13688,60469,31287,0,0,0
13648,60443,31245,0,0,0
13609,60418,31206,0,0,0
13572,60391,31165,0,0,0
13535,60362,31122,0,0,0
13504,60338,31084,0,0,0
13482,60321,31053,0,0,0
13466,60309,31024,0,0,0
13446,60298,30996,0,0,0
13424,60282,30974,0,0,0
13404,60263,30954,0,0,0
13385,60241,30928,0,0,0
13368,60219,30895,0,0,0
13361,60199,30864,0,0,0
13367,60188,30842,0,0,0
13378,60187,30824,0,0,0
13384,60188,30808,0,0,0
13384,60190,30797,0,0,0
13379,60189,30787,0,0,0
13368,60181,30772,0,0,0
13352,60167,30747,0,0,0
13330,60149,30712,0,0,0
13309,60129,30677,0,0,0
13288,60110,30637,0,0,0
13257,60086,30590,0,0,0
13222,60059,30545,0,0,0
13188,60033,30502,0,0,0
13153,60009,30455,0,0,0
13118,59981,30408,0,0,0
13081,59948,30361,0,0,0
13046,59918,30311,0,0,0
13012,59891,30256,0,0,0
12977,59863,30201,0,0,0
12943,59836,30152,0,0,0
12906,59808,30102,0,0,0
12864,59779,30046,0,0,0
12815,59744,29989,0,0,0
12761,59704,29928,0,0,0
12706,59658,29861,0,0,0
12653,59610,29792,0,0,0
12610,59569,29730,0,0,0
12587,59544,29690,0,0,0
12587,59541,29683,0,0,0
12612,59562,29712,0,0,0
12670,59616,29788,0,0,0
12777,59711,29928,0,0,0
12943,59854,30137,0,0,0
13169,60045,30414,0,0,0
13453,60284,30764,0,0,0
13787,60565,31182,0,0,0
14153,60874,31645,0,0,0
14533,61197,32135,0,0,0
14923,61525,32640,0,0,0
15312,61850,33141,0,0,0
15686,62164,33620,0,0,0
16038,62461,34070,0,0,0
16369,62740,34489,0,0,0
16676,62999,34881,0,0,0
16955,63236,35245,0,0,0
17200,63440,35574,0,0,0
17416,63615,35868,0,0,0
17604,63768,36130,0,0,0
17761,63896,36355,0,0,0
17895,63996,36545,0,0,0
18017,64076,36706,0,0,0
18123,64142,36847,0,0,0
18207,64191,36963,0,0,0
18270,64220,37051,0,0,0
18311,64233,37117,0,0,0
18328,64236,37159,0,0,0
18322,64223,37168,0,0,0
18300,64194,37146,0,0,0
18271,64161,37109,0,0,0
18232,64132,37063,0,0,0
18181,64100,37008,0,0,0
18123,64065,36945,0,0,0
18060,64025,36877,0,0,0
17991,63978,36802,0,0,0
17915,63921,36715,0,0,0
17841,63859,36621,0,0,0
17777,63805,36534,0,0,0
17721,63763,36458,0,0,0
17672,63723,36387,0,0,0
17625,63684,36317,0,0,0
17580,63646,36250,0,0,0
17535,63609,36180,0,0,0
17489,63568,36109,0,0,0
17447,63530,36047,0,0,0
17414,63499,35997,0,0,0
17386,63470,35959,0,0,0
17358,63441,35927,0,0,0
17327,63411,35898,0,0,0
17294,63380,35865,0,0,0
17262,63349,35824,0,0,0
17226,63309,35773,0,0,0
17184,63260,35713,0,0,0
17137,63210,35652,0,0,0
17087,63160,35593,0,0,0
17035,63112,35532,0,0,0
16989,63069,35471,0,0,0
16944,63030,35409,0,0,0
16898,62993,35343,0,0,0
16856,62955,35276,0,0,0
16825,62921,35217,0,0,0
16804,62900,35173,0,0,0
16786,62885,35138,0,0,0
16772,62880,35117,0,0,0
16769,62888,35112,0,0,0
16773,62907,35119,0,0,0
16777,62930,35132,0,0,0
16780,62950,35148,0,0,0
16785,62971,35175,0,0,0
16798,62993,35214,0,0,0
16816,63014,35253,0,0,0
16838,63032,35288,0,0,0
16868,63055,35325,0,0,0
16908,63087,35366,0,0,0
16952,63124,35412,0,0,0
16998,63162,35461,0,0,0
17043,63202,35509,0,0,0
17081,63235,35550,0,0,0
17109,63254,35580,0,0,0
17135,63265,35600,0,0,0
17167,63277,35616,0,0,0
17200,63288,35633,0,0,0
17223,63295,35649,0,0,0
17231,63297,35661,0,0,0
17225,63298,35665,0,0,0
17212,63297,35658,0,0,0
17192,63289,35639,0,0,0
17174,63277,35613,0,0,0
17161,63268,35590,0,0,0
17151,63260,35566,0,0,0
17137,63250,35541,0,0,0
17117,63236,35519,0,0,0
17088,63214,35496,0,0,0
17048,63185,35464,0,0,0
17000,63142,35420,0,0,0
16955,63084,35370,0,0,0
16921,63029,35323,0,0,0
16891,62981,35272,0,0,0
16851,62931,35210,0,0,0
16806,62879,35142,0,0,0
16764,62834,35076,0,0,0
16720,62792,35013,0,0,0
16666,62747,34946,0,0,0
16607,62694,34874,0,0,0
16551,62640,34796,0,0,0
16491,62589,34713,0,0,0
16426,62542,34629,0,0,0
16362,62502,34545,0,0,0
16303,62465,34460,0,0,0
16242,62425,34376,0,0,0
16183,62383,34290,0,0,0
16128,62342,34203,0,0,0
16076,62299,34115,0,0,0
16023,62253,34024,0,0,0
15970,62209,33934,0,0,0
15920,62169,33851,0,0,0
15869,62132,33776,0,0,0
15813,62089,33702,0,0,0
15753,62040,33627,0,0,0
15695,61986,33550,0,0,0
15643,61933,33474,0,0,0
15593,61885,33405,0,0,0
15543,61840,33340,0,0,0
15499,61800,33279,0,0,0
15453,61763,33220,0,0,0
15405,61729,33161,0,0,0
15358,61696,33107,0,0,0
15312,61663,33055,0,0,0
15263,61625,33001,0,0,0
15212,61584,32942,0,0,0
15164,61544,32882,0,0,0
15128,61511,32831,0,0,0
15102,61485,32789,0,0,0
15082,61464,32753,0,0,0
15067,61450,32723,0,0,0
15051,61437,32693,0,0,0
15027,61416,32654,0,0,0
14998,61386,32607,0,0,0
14967,61351,32556,0,0,0
14937,61314,32505,0,0,0
14905,61278,32457,0,0,0
14874,61246,32411,0,0,0
14850,61223,32371,0,0,0
14832,61208,32338,0,0,0
14809,61196,32307,0,0,0
14781,61185,32270,0,0,0
14748,61171,32229,0,0,0
14711,61155,32190,0,0,0
14669,61132,32151,0,0,0
14625,61100,32109,0,0,0
14589,61065,32062,0,0,0
14562,61032,32015,0,0,0
14542,61003,31970,0,0,0
14529,60983,31931,0,0,0
14523,60971,31904,0,0,0
14522,60966,31887,0,0,0
14516,60958,31869,0,0,0
14500,60943,31841,0,0,0
14474,60923,31806,0,0,0
14445,60900,31768,0,0,0
14409,60873,31723,0,0,0
14370,60843,31669,0,0,0
14335,60814,31615,0,0,0
14299,60784,31563,0,0,0
14259,60753,31510,0,0,0
14218,60727,31455,0,0,0
14182,60705,31406,0,0,0
14146,60680,31363,0,0,0
14105,60647,31322,0,0,0
14055,60607,31282,0,0,0
14001,60562,31239,0,0,0
13941,60511,31184,0,0,0
13875,60458,31120,0,0,0
13810,60405,31050,0,0,0
13753,60356,30981,0,0,0
13702,60314,30911,0,0,0
13655,60275,30840,0,0,0
13614,60238,30774,0,0,0
13579,60206,30714,0,0,0
13543,60175,30653,0,0,0
13502,60138,30590,0,0,0
13464,60100,30533,0,0,0
13434,60072,30485,0,0,0
13413,60055,30452,0,0,0
13409,60056,30445,0,0,0
13434,60087,30480,0,0,0
13504,60157,30568,0,0,0
13623,60270,30719,0,0,0
13802,60432,30948,0,0,0
14048,60648,31267,0,0,0
14353,60913,31660,0,0,0
14700,61209,32106,0,0,0
15076,61528,32586,0,0,0
15475,61867,33090,0,0,0
15882,62214,33606,0,0,0
16278,62553,34116,0,0,0
16659,62876,34608,0,0,0
17019,63182,35075,0,0,0
17347,63462,35506,0,0,0
17638,63709,35897,0,0,0
17894,63922,36247,0,0,0
18117,64104,36559,0,0,0
18311,64261,36836,0,0,0
18478,64398,37080,0,0,0
18622,64515,37296,0,0,0
18755,64618,37487,0,0,0
18878,64708,37651,0,0,0
18981,64776,37784,0,0,0
19062,64823,37888,0,0,0
19124,64852,37963,0,0,0
19163,64866,38007,0,0,0
19173,64864,38022,0,0,0
19163,64847,38014,0,0,0
19142,64822,37988,0,0,0
19108,64793,37947,0,0,0
19064,64759,37892,0,0,0
19017,64723,37830,0,0,0
18967,64686,37765,0,0,0
18911,64641,37694,0,0,0
18851,64585,37615,0,0,0
18789,64523,37532,0,0,0
18722,64454,37449,0,0,0
18649,64377,37361,0,0,0
18573,64298,37271,0,0,0
18504,64226,37188,0,0,0
18445,64167,37116,0,0,0
18394,64120,37051,0,0,0
18350,64084,36995,0,0,0
18317,64060,36951,0,0,0
18290,64047,36916,0,0,0
18261,64036,36884,0,0,0
18224,64020,36846,0,0,0
18182,63999,36806,0,0,0
18142,63975,36769,0,0,0
18102,63944,36727,0,0,0
18058,63906,36676,0,0,0
18012,63864,36620,0,0,0
17969,63825,36560,0,0,0
17923,63784,36493,0,0,0
17874,63741,36420,0,0,0
17831,63701,36352,0,0,0
17792,63667,36288,0,0,0
17752,63633,36230,0,0,0
17711,63597,36178,0,0,0
17670,63557,36133,0,0,0
17624,63515,36092,0,0,0
17577,63472,36051,0,0,0
17536,63434,36013,0,0,0
17508,63410,35981,0,0,0
17488,63396,35951,0,0,0
17474,63393,35925,0,0,0
17472,63402,35908,0,0,0
17487,63424,35906,0,0,0
17512,63453,35918,0,0,0
17539,63483,35936,0,0,0
17572,63512,35964,0,0,0
17612,63539,36004,0,0,0
17650,63559,36048,0,0,0
17686,63575,36094,0,0,0
17725,63592,36142,0,0,0
17766,63613,36188,0,0,0
17799,63634,36226,0,0,0
17828,63657,36260,0,0,0
17861,63687,36298,0,0,0
17895,63719,36337,0,0,0
17918,63747,36369,0,0,0
17929,63769,36397,0,0,0
17934,63788,36420,0,0,0
17934,63806,36436,0,0,0
17928,63820,36443,0,0,0
17917,63825,36437,0,0,0
17908,63821,36423,0,0,0
17895,63807,36401,0,0,0
17872,63780,36368,0,0,0
17843,63744,36328,0,0,0
17818,63706,36292,0,0,0
17797,63673,36262,0,0,0
17774,63644,36232,0,0,0
17751,63619,36198,0,0,0
17727,63597,36162,0,0,0
17695,63570,36118,0,0,0
17652,63534,36065,0,0,0
17601,63491,36004,0,0,0
17544,63438,35935,0,0,0
17479,63378,35856,0,0,0
17411,63314,35769,0,0,0
17352,63253,35682,0,0,0
17300,63196,35597,0,0,0
17245,63138,35508,0,0,0
17184,63084,35413,0,0,0
17123,63042,35320,0,0,0
17069,63006,35236,0,0,0
17025,62974,35159,0,0,0
16977,62940,35083,0,0,0
16926,62903,35010,0,0,0
16870,62862,34938,0,0,0
16804,62814,34860,0,0,0
16729,62758,34772,0,0,0
16649,62697,34678,0,0,0
16568,62640,34586,0,0,0
16485,62582,34497,0,0,0
16403,62522,34407,0,0,0
16332,62467,34317,0,0,0
16274,62421,34236,0,0,0
16225,62376,34162,0,0,0
16180,62328,34090,0,0,0
16140,62283,34024,0,0,0
16107,62248,33971,0,0,0
16071,62214,33921,0,0,0
16025,62175,33864,0,0,0
15978,62136,33805,0,0,0
15930,62095,33747,0,0,0
15873,62050,33683,0,0,0
15812,62002,33611,0,0,0
15756,61960,33537,0,0,0
15705,61924,33468,0,0,0
15654,61887,33401,0,0,0
15604,61848,33335,0,0,0
15561,61811,33271,0,0,0
15527,61781,33211,0,0,0
15498,61755,33156,0,0,0
15468,61731,33107,0,0,0
15434,61708,33065,0,0,0
15391,61687,33028,0,0,0
15346,61664,32991,0,0,0
15304,61643,32951,0,0,0
15262,61620,32909,0,0,0
15215,61592,32863,0,0,0
15164,61554,32811,0,0,0
15110,61508,32754,0,0,0
15056,61458,32692,0,0,0
14998,61407,32627,0,0,0
14941,61355,32553,0,0,0
14888,61305,32474,0,0,0
14845,61263,32399,0,0,0
14807,61231,32329,0,0,0
14769,61199,32260,0,0,0
14732,61169,32196,0,0,0
14697,61145,32141,0,0,0
14659,61120,32089,0,0,0
14618,61091,32036,0,0,0
14575,61058,31981,0,0,0
14529,61022,31924,0,0,0
14478,60979,31870,0,0,0
14425,60933,31821,0,0,0
14374,60893,31775,0,0,0
14326,60857,31728,0,0,0
14276,60818,31674,0,0,0
14222,60774,31608,0,0,0
14173,60731,31538,0,0,0
14129,60691,31467,0,0,0
14083,60648,31395,0,0,0
14033,60605,31326,0,0,0
13985,60569,31265,0,0,0
13939,60537,31209,0,0,0
13893,60503,31160,0,0,0
13851,60470,31120,0,0,0
13811,60437,31082,0,0,0
13766,60403,31041,0,0,0
13711,60362,30993,0,0,0
13652,60315,30942,0,0,0
13592,60265,30888,0,0,0
13530,60214,30828,0,0,0
13461,60157,30761,0,0,0
13390,60096,30689,0,0,0
13324,60038,30615,0,0,0
13258,59979,30534,0,0,0
13191,59921,30443,0,0,0
13130,59868,30355,0,0,0
13077,59824,30276,0,0,0
13027,59785,30202,0,0,0
12978,59748,30134,0,0,0
12935,59712,30070,0,0,0
12896,59679,30007,0,0,0
12860,59651,29948,0,0,0
12824,59623,29897,0,0,0
12796,59601,29861,0,0,0
12783,59595,29850,0,0,0
12798,59615,29876,0,0,0
12865,59678,29965,0,0,0
13001,59802,30138,0,0,0
13213,59989,30405,0,0,0
13500,60238,30766,0,0,0
13852,60538,31208,0,0,0
14257,60881,31714,0,0,0
14697,61251,32262,0,0,0
15147,61631,32823,0,0,0
15587,62002,33372,0,0,0
16006,62353,33898,0,0,0
16397,62680,34394,0,0,0
16754,62975,34851,0,0,0
17072,63233,35266,0,0,0
17352,63461,35645,0,0,0
17599,63664,35991,0,0,0
17811,63835,36294,0,0,0
17994,63975,36551,0,0,0
18157,64095,36770,0,0,0
18298,64201,36957,0,0,0
18412,64295,37120,0,0,0
18503,64375,37262,0,0,0
18575,64442,37380,0,0,0
18624,64487,37470,0,0,0
18645,64507,37528,0,0,0
18641,64506,37553,0,0,0
18615,64489,37552,0,0,0
18569,64457,37528,0,0,0
18510,64415,37482,0,0,0
18446,64361,37415,0,0,0
18384,64303,37334,0,0,0
18321,64243,37245,0,0,0
18253,64181,37146,0,0,0
18182,64119,37046,0,0,0
18112,64056,36948,0,0,0
18039,63985,36848,0,0,0
17959,63907,36744,0,0,0
17881,63830,36642,0,0,0
17809,63765,36552,0,0,0
17741,63710,36474,0,0,0
17669,63662,36401,0,0,0
17595,63620,36329,0,0,0
17523,63579,36255,0,0,0
17450,63534,36177,0,0,0
17376,63482,36096,0,0,0
17310,63431,36017,0,0,0
17250,63384,35945,0,0,0
17188,63337,35875,0,0,0
17125,63287,35804,0,0,0
17062,63237,35728,0,0,0
17000,63186,35647,0,0,0
16934,63133,35558,0,0,0
16867,63075,35461,0,0,0
16803,63020,35368,0,0,0
16744,62971,35288,0,0,0
16687,62922,35217,0,0,0
16629,62871,35150,0,0,0
16575,62821,35086,0,0,0
16520,62773,35025,0,0,0
16462,62724,34965,0,0,0
16407,62679,34911,0,0,0
16363,62643,34867,0,0,0
16331,62617,34836,0,0,0
16311,62601,34815,0,0,0
16304,62594,34801,0,0,0
16310,62597,34799,0,0,0
16327,62610,34810,0,0,0
16352,62631,34834,0,0,0
16385,62658,34870,0,0,0
16422,62692,34919,0,0,0
16455,62731,34976,0,0,0
16479,62769,35031,0,0,0
16500,62805,35082,0,0,0
16523,62842,35129,0,0,0
16544,62871,35168,0,0,0
16563,62890,35195,0,0,0
16582,62906,35216,0,0,0
16601,62921,35232,0,0,0
16612,62928,35239,0,0,0
16616,62928,35235,0,0,0
16620,62929,35224,0,0,0
16623,62933,35215,0,0,0
16624,62940,35211,0,0,0
16619,62941,35207,0,0,0
16608,62936,35199,0,0,0
16592,62928,35188,0,0,0
16571,62915,35172,0,0,0
16543,62891,35149,0,0,0
16514,62863,35122,0,0,0
16488,62833,35093,0,0,0
16455,62792,35048,0,0,0
16414,62743,34990,0,0,0
16371,62694,34931,0,0,0
16327,62651,34877,0,0,0
16275,62607,34820,0,0,0
16217,62563,34760,0,0,0
16159,62523,34699,0,0,0
16098,62485,34632,0,0,0
16031,62443,34554,0,0,0
15959,62394,34467,0,0,0
15888,62336,34375,0,0,0
15814,62268,34282,0,0,0
15737,62197,34188,0,0,0
15658,62128,34094,0,0,0
15588,62061,34005,0,0,0
15527,61991,33923,0,0,0
15465,61922,33836,0,0,0
15401,61859,33743,0,0,0
15336,61800,33648,0,0,0
15265,61742,33552,0,0,0
15186,61682,33451,0,0,0
15108,61625,33353,0,0,0
15030,61574,33261,0,0,0
14942,61518,33165,0,0,0
14848,61453,33061,0,0,0
14760,61385,32956,0,0,0
14680,61319,32852,0,0,0
14603,61251,32751,0,0,0
14527,61182,32652,0,0,0
14457,61119,32556,0,0,0
14396,61067,32470,0,0,0
14337,61023,32392,0,0,0
14279,60983,32317,0,0,0
14227,60949,32250,0,0,0
14179,60918,32192,0,0,0
14124,60885,32135,0,0,0
14059,60845,32071,0,0,0
13991,60801,32004,0,0,0
13923,60754,31937,0,0,0
13855,60700,31864,0,0,0
13794,60644,31786,0,0,0
13743,60589,31707,0,0,0
13691,60537,31630,0,0,0
13640,60490,31555,0,0,0
13598,60453,31490,0,0,0
13565,60427,31438,0,0,0
13532,60406,31395,0,0,0
13494,60386,31355,0,0,0
13454,60366,31320,0,0,0
13415,60344,31289,0,0,0
13379,60322,31258,0,0,0
13346,60300,31223,0,0,0
13320,60279,31187,0,0,0
13299,60259,31152,0,0,0
13283,60239,31116,0,0,0
13268,60222,31085,0,0,0
13256,60208,31065,0,0,0
13244,60191,31051,0,0,0
13224,60168,31029,0,0,0
13192,60136,30995,0,0,0
13154,60099,30958,0,0,0
13115,60064,30919,0,0,0
13071,60027,30868,0,0,0
13025,59991,30813,0,0,0
12985,59959,30766,0,0,0
12948,59934,30724,0,0,0
12914,59910,30679,0,0,0
12878,59885,30631,0,0,0
12836,59860,30583,0,0,0
12788,59833,30530,0,0,0
12731,59801,30470,0,0,0
12665,59761,30402,0,0,0
12596,59714,30326,0,0,0
12527,59663,30243,0,0,0
12458,59609,30154,0,0,0
12391,59551,30067,0,0,0
12330,59495,29986,0,0,0
12273,59444,29909,0,0,0
12217,59391,29831,0,0,0
12164,59341,29758,0,0,0
12115,59301,29696,0,0,0
12066,59266,29631,0,0,0
12010,59227,29559,0,0,0
11946,59184,29491,0,0,0
11884,59138,29428,0,0,0
11831,59093,29366,0,0,0
11794,59063,29318,0,0,0
11789,59057,29306,0,0,0
11833,59092,29350,0,0,0
11928,59174,29458,0,0,0
12084,59311,29643,0,0,0
12311,59509,29922,0,0,0
12607,59768,30296,0,0,0
12958,60076,30745,0,0,0
13344,60413,31247,0,0,0
13751,60767,31783,0,0,0
14166,61126,32328,0,0,0
14571,61472,32859,0,0,0
14953,61795,33361,0,0,0
15313,62093,33828,0,0,0
15650,62367,34263,0,0,0
15957,62615,34663,0,0,0
16229,62834,35022,0,0,0
16466,63028,35337,0,0,0
16670,63197,35607,0,0,0
16836,63336,35830,0,0,0
16966,63443,36006,0,0,0
17068,63523,36141,0,0,0
17149,63586,36245,0,0,0
17208,63631,36326,0,0,0
17251,63661,36385,0,0,0
17278,63678,36425,0,0,0
17285,63684,36449,0,0,0
17265,63672,36449,0,0,0
17222,63640,36425,0,0,0
17164,63596,36380,0,0,0
17093,63540,36312,0,0,0
17006,63466,36216,0,0,0
16909,63381,36104,0,0,0
16812,63297,35986,0,0,0
16720,63217,35874,0,0,0
16629,63138,35766,0,0,0
16538,63056,35654,0,0,0
16449,62976,35541,0,0,0
16361,62901,35431,0,0,0
16269,62828,35324,0,0,0
16169,62749,35215,0,0,0
16063,62666,35101,0,0,0
15954,62581,34982,0,0,0
15848,62495,34859,0,0,0
15753,62411,34739,0,0,0
15675,62339,34635,0,0,0
15611,62279,34545,0,0,0
15552,62222,34460,0,0,0
15493,62165,34374,0,0,0
15433,62108,34287,0,0,0
15369,62053,34201,0,0,0
15299,61994,34111,0,0,0
15225,61935,34019,0,0,0
15146,61873,33924,0,0,0
15056,61803,33817,0,0,0
14960,61729,33701,0,0,0
14869,61658,33587,0,0,0
14783,61593,33482,0,0,0
14704,61535,33384,0,0,0
14635,61484,33294,0,0,0
14584,61445,33223,0,0,0
14551,61419,33174,0,0,0
14532,61406,33146,0,0,0
14527,61402,33133,0,0,0
14534,61403,33134,0,0,0
14552,61406,33147,0,0,0
14573,61412,33170,0,0,0
14600,61424,33202,0,0,0
14638,61446,33244,0,0,0
14686,61481,33298,0,0,0
14741,61527,33361,0,0,0
14800,61583,33432,0,0,0
14863,61646,33510,0,0,0
14921,61709,33589,0,0,0
14966,61763,33658,0,0,0
15003,61810,33719,0,0,0
15041,61851,33775,0,0,0
15076,61885,33825,0,0,0
15104,61910,33867,0,0,0
15129,61928,33901,0,0,0
15151,61947,33933,0,0,0
15166,61967,33963,0,0,0
15174,61982,33988,0,0,0
15176,61992,34008,0,0,0
15173,61998,34020,0,0,0
15162,61999,34021,0,0,0
15139,61985,34000,0,0,0
15109,61955,33961,0,0,0
15079,61925,33919,0,0,0
15047,61900,33875,0,0,0
15014,61875,33827,0,0,0
14980,61846,33775,0,0,0
14943,61812,33720,0,0,0
14900,61772,33663,0,0,0
14846,61719,33597,0,0,0
14783,61653,33521,0,0,0
14720,61588,33435,0,0,0
14656,61525,33344,0,0,0
14587,61462,33252,0,0,0
14522,61405,33165,0,0,0
14462,61356,33080,0,0,0
14398,61306,32994,0,0,0
14324,61248,32903,0,0,0
14241,61185,32809,0,0,0
14151,61122,32710,0,0,0
14055,61058,32608,0,0,0
13960,60994,32506,0,0,0
13872,60932,32407,0,0,0
13787,60868,32302,0,0,0
13703,60799,32190,0,0,0
13625,60731,32079,0,0,0
13556,60669,31978,0,0,0
13493,60616,31884,0,0,0
13430,60566,31792,0,0,0
13370,60515,31700,0,0,0
13314,60468,31612,0,0,0
13259,60423,31531,0,0,0
13202,60377,31454,0,0,0
13145,60327,31383,0,0,0
13093,60282,31319,0,0,0
13044,60242,31258,0,0,0
12997,60204,31202,0,0,0
12954,60166,31153,0,0,0
12922,60128,31108,0,0,0
12895,60090,31059,0,0,0
12864,60051,31004,0,0,0
12824,60015,30947,0,0,0
12779,59979,30887,0,0,0
12731,59937,30821,0,0,0
12681,59892,30749,0,0,0
12632,59849,30682,0,0,0
12586,59812,30621,0,0,0
12539,59775,30562,0,0,0
12492,59739,30504,0,0,0
12449,59708,30456,0,0,0
12410,59681,30412,0,0,0
12368,59654,30362,0,0,0
12319,59621,30301,0,0,0
12272,59582,30232,0,0,0
12228,59538,30160,0,0,0
12179,59491,30082,0,0,0
12130,59451,30010,0,0,0
12090,59419,29952,0,0,0
12055,59393,29905,0,0,0
12024,59374,29871,0,0,0
11996,59358,29848,0,0,0
11968,59340,29830,0,0,0
11940,59320,29811,0,0,0
11913,59304,29791,0,0,0
11899,59298,29779,0,0,0
11914,59310,29794,0,0,0
11972,59355,29847,0,0,0
12079,59439,29951,0,0,0
12240,59570,30131,0,0,0
12468,59760,30404,0,0,0
12755,60004,30759,0,0,0
13083,60287,31175,0,0,0
13437,60596,31639,0,0,0
13809,60921,32129,0,0,0
14179,61248,32627,0,0,0
14535,61563,33112,0,0,0
14875,61858,33570,0,0,0
15202,62134,33995,0,0,0
15511,62386,34388,0,0,0
15799,62615,34753,0,0,0
16062,62820,35089,0,0,0
16294,63003,35391,0,0,0
16492,63163,35656,0,0,0
16657,63298,35882,0,0,0
16792,63408,36074,0,0,0
16904,63493,36235,0,0,0
16990,63553,36366,0,0,0
17050,63589,36463,0,0,0
17087,63604,36526,0,0,0
17107,63607,36569,0,0,0
17110,63601,36590,0,0,0
17094,63587,36585,0,0,0
17065,63570,36561,0,0,0
17028,63549,36526,0,0,0
16979,63519,36480,0,0,0
16917,63478,36421,0,0,0
16848,63428,36348,0,0,0
16772,63370,36264,0,0,0
16687,63299,36166,0,0,0
16598,63223,36059,0,0,0
16517,63149,35952,0,0,0
16443,63079,35847,0,0,0
16368,63008,35741,0,0,0
16294,62943,35640,0,0,0
16227,62887,35547,0,0,0
16166,62838,35463,0,0,0
16108,62790,35382,0,0,0
16050,62739,35298,0,0,0
15987,62687,35211,0,0,0
15918,62631,35121,0,0,0
15847,62571,35030,0,0,0
15777,62507,34941,0,0,0
15715,62448,34857,0,0,0
15659,62400,34782,0,0,0
15599,62354,34707,0,0,0
15535,62302,34622,0,0,0
15466,62245,34527,0,0,0
15389,62181,34425,0,0,0
15300,62107,34314,0,0,0
15208,62028,34198,0,0,0
15122,61953,34086,0,0,0
15043,61882,33978,0,0,0
14972,61817,33879,0,0,0
14918,61769,33798,0,0,0
14877,61737,33735,0,0,0
14843,61713,33688,0,0,0
14813,61694,33651,0,0,0
14789,61680,33624,0,0,0
14768,61673,33606,0,0,0
14745,61671,33596,0,0,0
14731,61677,33599,0,0,0
14736,61694,33613,0,0,0
14759,61722,33637,0,0,0
14794,61755,33667,0,0,0
14837,61787,33704,0,0,0
14888,61820,33752,0,0,0
14945,61855,33807,0,0,0
14999,61885,33866,0,0,0
15050,61915,33925,0,0,0
15104,61950,33983,0,0,0
15157,61987,34039,0,0,0
15205,62019,34092,0,0,0
15244,62043,34135,0,0,0
15274,62063,34169,0,0,0
15300,62084,34197,0,0,0
15321,62106,34218,0,0,0
15334,62125,34231,0,0,0
15342,62143,34240,0,0,0
15341,62155,34243,0,0,0
15323,62153,34234,0,0,0
15293,62135,34211,0,0,0
15258,62104,34176,0,0,0
15219,62065,34128,0,0,0
15177,62021,34071,0,0,0
15136,61975,34010,0,0,0
15101,61936,33953,0,0,0
15067,61901,33898,0,0,0
15027,61861,33837,0,0,0
14979,61813,33769,0,0,0
14924,61759,33700,0,0,0
14861,61698,33628,0,0,0
14784,61632,33550,0,0,0
14696,61559,33461,0,0,0
14606,61491,33366,0,0,0
14516,61431,33266,0,0,0
14427,61372,33160,0,0,0
14342,61313,33053,0,0,0
14263,61258,32953,0,0,0
14182,61200,32855,0,0,0
14092,61131,32750,0,0,0
13997,61054,32639,0,0,0
13902,60977,32532,0,0,0
13809,60904,32425,0,0,0
13721,60830,32314,0,0,0
13643,60757,32206,0,0,0
13571,60692,32102,0,0,0
13500,60633,31999,0,0,0
13429,60579,31894,0,0,0
13361,60524,31793,0,0,0
13294,60470,31699,0,0,0
13223,60413,31604,0,0,0
13152,60349,31505,0,0,0
13085,60285,31408,0,0,0
13022,60226,31315,0,0,0
12964,60177,31231,0,0,0
12916,60136,31166,0,0,0
12877,60103,31116,0,0,0
12837,60071,31067,0,0,0
12786,60030,31013,0,0,0
12730,59985,30958,0,0,0
12681,59943,30909,0,0,0
12644,59910,30865,0,0,0
12613,59885,30826,0,0,0
12588,59866,30795,0,0,0
12569,59851,30772,0,0,0
12544,59833,30739,0,0,0
12509,59808,30696,0,0,0
12467,59777,30655,0,0,0
12423,59744,30611,0,0,0
12373,59703,30551,0,0,0
12322,59655,30478,0,0,0
12277,59608,30405,0,0,0
12242,59570,30344,0,0,0
12211,59540,30287,0,0,0
12177,59511,30230,0,0,0
12144,59484,30180,0,0,0
12108,59460,30132,0,0,0
12063,59429,30077,0,0,0
12012,59389,30014,0,0,0
11961,59344,29951,0,0,0
11912,59303,29892,0,0,0
11864,59268,29832,0,0,0
11818,59233,29768,0,0,0
11774,59201,29705,0,0,0
11732,59173,29643,0,0,0
11687,59145,29579,0,0,0
11643,59113,29518,0,0,0
11607,59084,29462,0,0,0
11578,59057,29409,0,0,0
11555,59035,29360,0,0,0
11549,59025,29329,0,0,0
11573,59043,29336,0,0,0
11639,59098,29395,0,0,0
11754,59194,29517,0,0,0
11925,59337,29717,0,0,0
12158,59540,30012,0,0,0
12447,59797,30387,0,0,0
12780,60092,30822,0,0,0
13149,60412,31306,0,0,0
13547,60752,31824,0,0,0
13961,61104,32356,0,0,0
14377,61454,32886,0,0,0
14786,61794,33401,0,0,0
15177,62116,33891,0,0,0
15533,62407,34345,0,0,0
15841,62661,34753,0,0,0
16103,62886,35120,0,0,0
16331,63083,35454,0,0,0
16527,63248,35751,0,0,0
16694,63385,36005,0,0,0
16842,63501,36220,0,0,0
16974,63602,36407,0,0,0
17080,63686,36562,0,0,0
17157,63750,36680,0,0,0
17211,63800,36767,0,0,0
17246,63838,36830,0,0,0
17260,63860,36868,0,0,0
17251,63859,36876,0,0,0
17224,63836,36855,0,0,0
17186,63799,36816,0,0,0
17142,63757,36767,0,0,0
17097,63709,36710,0,0,0
17048,63657,36645,0,0,0
16991,63599,36575,0,0,0
16923,63533,36499,0,0,0
16846,63458,36415,0,0,0
16764,63381,36327,0,0,0
16682,63306,36239,0,0,0
16594,63230,36143,0,0,0
16504,63155,36037,0,0,0
16421,63083,35931,0,0,0
16342,63016,35826,0,0,0
16265,62951,35718,0,0,0
16196,62888,35613,0,0,0
16137,62831,35521,0,0,0
16087,62781,35445,0,0,0
16042,62738,35382,0,0,0
15999,62699,35326,0,0,0
15957,62664,35272,0,0,0
15911,62628,35220,0,0,0
15859,62584,35160,0,0,0
15803,62531,35089,0,0,0
15744,62476,35011,0,0,0
15682,62421,34927,0,0,0
15614,62362,34837,0,0,0
15541,62301,34743,0,0,0
15467,62242,34649,0,0,0
15391,62185,34557,0,0,0
15315,62128,34465,0,0,0
15248,62079,34380,0,0,0
15193,62042,34305,0,0,0
15145,62009,34237,0,0,0
15104,61976,34174,0,0,0
15072,61947,34120,0,0,0
15051,61926,34080,0,0,0
15040,61917,34051,0,0,0
15043,61920,34039,0,0,0
15066,61941,34047,0,0,0
15096,61971,34074,0,0,0
15120,62000,34109,0,0,0
15139,62026,34142,0,0,0
15162,62054,34172,0,0,0
15195,62086,34205,0,0,0
15235,62123,34242,0,0,0
15277,62160,34283,0,0,0
15319,62196,34328,0,0,0
15358,62229,34373,0,0,0
15389,62255,34410,0,0,0
15413,62275,34442,0,0,0
15432,62296,34472,0,0,0
15447,62315,34494,0,0,0
15454,62323,34502,0,0,0
15456,62321,34507,0,0,0
15460,62313,34513,0,0,0
15461,62302,34522,0,0,0
15456,62290,34530,0,0,0
15446,62277,34535,0,0,0
15431,62257,34531,0,0,0
15408,62228,34510,0,0,0
15374,62189,34466,0,0,0
15334,62149,34409,0,0,0
15297,62112,34353,0,0,0
15259,62074,34299,0,0,0
15214,62033,34244,0,0,0
15164,61992,34189,0,0,0
15110,61953,34134,0,0,0
15054,61916,34078,0,0,0
14991,61877,34016,0,0,0
14921,61830,33946,0,0,0
14850,61780,33869,0,0,0
14779,61726,33784,0,0,0
14712,61672,33694,0,0,0
14650,61622,33600,0,0,0
14593,61577,33510,0,0,0
14536,61536,33422,0,0,0
14471,61488,33324,0,0,0
14399,61430,33216,0,0,0
14322,61364,33103,0,0,0
14238,61288,32986,0,0,0
14151,61203,32864,0,0,0
14064,61118,32746,0,0,0
13980,61039,32636,0,0,0
13897,60963,32527,0,0,0
13816,60888,32420,0,0,0
13738,60822,32325,0,0,0
13660,60766,32241,0,0,0
13577,60708,32155,0,0,0
13493,60641,32059,0,0,0
13414,60571,31963,0,0,0
13339,60508,31869,0,0,0
13267,60453,31776,0,0,0
13206,60406,31686,0,0,0
13154,60366,31604,0,0,0
13107,60332,31529,0,0,0
13063,60303,31463,0,0,0
13022,60274,31408,0,0,0
12985,60241,31359,0,0,0
12954,60209,31309,0,0,0
12928,60182,31259,0,0,0
12907,60156,31212,0,0,0
12890,60131,31169,0,0,0
12868,60104,31124,0,0,0
12840,60075,31079,0,0,0
12810,60052,31044,0,0,0
12780,60033,31010,0,0,0
12750,60013,30964,0,0,0
12720,59992,30913,0,0,0
12693,59971,30866,0,0,0
12670,59952,30828,0,0,0
12645,59932,30791,0,0,0
12617,59905,30751,0,0,0
12590,59875,30712,0,0,0
12562,59845,30671,0,0,0
12529,59813,30621,0,0,0
12493,59780,30567,0,0,0
12460,59748,30516,0,0,0
12431,59722,30470,0,0,0
12405,59704,30428,0,0,0
12380,59685,30386,0,0,0
12353,59661,30346,0,0,0
12322,59633,30304,0,0,0
12286,59601,30256,0,0,0
12250,59568,30211,0,0,0
12222,59540,30170,0,0,0
12197,59517,30127,0,0,0
12167,59496,30076,0,0,0
12133,59477,30028,0,0,0
12099,59457,29984,0,0,0
12065,59434,29937,0,0,0
12028,59404,29883,0,0,0
11987,59370,29827,0,0,0
11944,59335,29772,0,0,0
11900,59300,29713,0,0,0
11854,59263,29647,0,0,0
11809,59223,29581,0,0,0
11768,59185,29520,0,0,0
11734,59151,29466,0,0,0
11700,59118,29411,0,0,0
11664,59081,29358,0,0,0
11626,59043,29308,0,0,0
11584,59004,29247,0,0,0
11532,58958,29174,0,0,0
11472,58907,29098,0,0,0
11412,58853,29021,0,0,0
11353,58801,28943,0,0,0
11294,58752,28864,0,0,0
11237,58707,28793,0,0,0
11185,58668,28730,0,0,0
11134,58634,28669,0,0,0
11082,58602,28611,0,0,0
11036,58574,28563,0,0,0
10996,58549,28520,0,0,0
10948,58520,28466,0,0,0
10888,58479,28396,0,0,0
10823,58426,28317,0,0,0
10760,58367,28230,0,0,0
10698,58301,28132,0,0,0
10633,58233,28030,0,0,0
10568,58166,27931,0,0,0
10509,58107,27840,0,0,0
10451,58056,27758,0,0,0
10392,58009,27681,0,0,0
10335,57967,27610,0,0,0
10283,57932,27544,0,0,0
10235,57897,27481,0,0,0
10195,57864,27432,0,0,0
10185,57855,27424,0,0,0
10225,57893,27475,0,0,0
10334,57992,27604,0,0,0
10527,58164,27834,0,0,0
10810,58411,28180,0,0,0
11177,58731,28638,0,0,0
11615,59113,29195,0,0,0
12110,59543,29830,0,0,0
12636,59994,30506,0,0,0
13166,60445,31188,0,0,0
13684,60877,31853,0,0,0
14183,61284,32492,0,0,0
14649,61660,33090,0,0,0
15071,61995,33630,0,0,0
15445,62291,34114,0,0,0
15776,62553,34551,0,0,0
16069,62791,34938,0,0,0
16322,63005,35270,0,0,0
16535,63189,35550,0,0,0
16713,63343,35789,0,0,0
16862,63468,35994,0,0,0
16978,63566,36167,0,0,0
17063,63638,36306,0,0,0
17120,63682,36411,0,0,0
17157,63707,36486,0,0,0
17176,63717,36533,0,0,0
17183,63713,36558,0,0,0
17181,63700,36568,0,0,0
17164,63678,36564,0,0,0
17125,63642,36542,0,0,0
17069,63593,36499,0,0,0
17002,63539,36438,0,0,0
16929,63482,36363,0,0,0
16847,63417,36275,0,0,0
16759,63343,36178,0,0,0
16671,63263,36075,0,0,0
16586,63182,35964,0,0,0
16500,63100,35849,0,0,0
16414,63020,35732,0,0,0
16336,62946,35617,0,0,0
16267,62880,35509,0,0,0
16202,62821,35407,0,0,0
16140,62767,35316,0,0,0
16083,62718,35238,0,0,0
16028,62673,35169,0,0,0
15970,62625,35104,0,0,0
15908,62574,35040,0,0,0
15850,62525,34978,0,0,0
15794,62481,34919,0,0,0
15738,62437,34855,0,0,0
15682,62397,34789,0,0,0
15634,62368,34728,0,0,0
15593,62347,34671,0,0,0
15548,62323,34609,0,0,0
15498,62291,34542,0,0,0
15443,62249,34472,0,0,0
15384,62202,34400,0,0,0
15317,62151,34323,0,0,0
15250,62098,34245,0,0,0
15192,62047,34172,0,0,0
15142,62000,34104,0,0,0
15099,61956,34041,0,0,0
15065,61917,33988,0,0,0
15041,61890,33951,0,0,0
15026,61871,33929,0,0,0
15015,61855,33914,0,0,0
15011,61848,33911,0,0,0
15018,61855,33926,0,0,0
15032,61869,33950,0,0,0
15051,61887,33977,0,0,0
15078,61911,34005,0,0,0
15110,61943,34038,0,0,0
15143,61982,34077,0,0,0
15175,62022,34116,0,0,0
15210,62059,34151,0,0,0
15247,62097,34187,0,0,0
15283,62133,34225,0,0,0
15317,62163,34262,0,0,0
15349,62192,34301,0,0,0
15380,62219,34346,0,0,0
15404,62239,34387,0,0,0
15418,62248,34415,0,0,0
15424,62249,34428,0,0,0
15418,62245,34430,0,0,0
15404,62233,34421,0,0,0
15390,62217,34404,0,0,0
15379,62203,34380,0,0,0
15368,62188,34352,0,0,0
15350,62170,34323,0,0,0
15329,62152,34295,0,0,0
15307,62133,34268,0,0,0
15275,62108,34234,0,0,0
15226,62068,34188,0,0,0
15167,62019,34127,0,0,0
15103,61965,34050,0,0,0
15039,61911,33963,0,0,0
14977,61855,33873,0,0,0
14919,61798,33784,0,0,0
14867,61744,33700,0,0,0
14814,61696,33623,0,0,0
14756,61648,33545,0,0,0
14694,61597,33463,0,0,0
14625,61544,33375,0,0,0
14542,61485,33275,0,0,0
14450,61415,33162,0,0,0
14358,61339,33041,0,0,0
14271,61263,32921,0,0,0
14184,61185,32799,0,0,0
14093,61100,32674,0,0,0
14002,61014,32553,0,0,0
13914,60930,32435,0,0,0
13826,60849,32321,0,0,0
13736,60764,32209,0,0,0
13646,60677,32099,0,0,0
13552,60593,31987,0,0,0
13452,60514,31871,0,0,0
13356,60440,31756,0,0,0
13273,60377,31646,0,0,0
13198,60320,31544,0,0,0
13125,60265,31447,0,0,0
13056,60211,31358,0,0,0
12992,60157,31276,0,0,0
12930,60106,31196,0,0,0
12866,60054,31114,0,0,0
12795,59996,31031,0,0,0
12719,59935,30948,0,0,0
12644,59877,30863,0,0,0
12577,59825,30781,0,0,0
12522,59782,30703,0,0,0
12479,59749,30632,0,0,0
12439,59719,30565,0,0,0
12398,59690,30500,0,0,0
12356,59658,30441,0,0,0
12309,59623,30380,0,0,0
12257,59583,30312,0,0,0
12203,59537,30236,0,0,0
12150,59485,30158,0,0,0
12103,59440,30082,0,0,0
12064,59405,30014,0,0,0
12026,59374,29954,0,0,0
11988,59343,29899,0,0,0
11949,59313,29844,0,0,0
11907,59284,29785,0,0,0
11863,59256,29725,0,0,0
11821,59226,29670,0,0,0
11787,59198,29621,0,0,0
11757,59169,29571,0,0,0
11719,59134,29516,0,0,0
11675,59096,29462,0,0,0
11630,59058,29413,0,0,0
11581,59020,29361,0,0,0
11528,58977,29304,0,0,0
11473,58932,29246,0,0,0
11419,58885,29182,0,0,0
11364,58834,29113,0,0,0
11311,58786,29044,0,0,0
11268,58745,28982,0,0,0
11231,58712,28925,0,0,0
11192,58679,28868,0,0,0
11148,58644,28810,0,0,0
11102,58608,28751,0,0,0
11049,58567,28684,0,0,0
10986,58520,28609,0,0,0
10921,58468,28530,0,0,0
10865,58421,28454,0,0,0
10819,58383,28381,0,0,0
10774,58349,28312,0,0,0
10725,58311,28246,0,0,0
10676,58269,28179,0,0,0
10622,58221,28103,0,0,0
10559,58166,28019,0,0,0
10493,58105,27935,0,0,0
10426,58044,27854,0,0,0
10357,57985,27766,0,0,0
10286,57926,27674,0,0,0
10215,57871,27588,0,0,0
10151,57825,27510,0,0,0
10095,57788,27436,0,0,0
10043,57751,27363,0,0,0
9992,57712,27292,0,0,0
9940,57669,27221,0,0,0
9882,57620,27138,0,0,0
9813,57561,27042,0,0,0
9735,57495,26941,0,0,0
9659,57430,26840,0,0,0
9584,57368,26731,0,0,0
9504,57305,26619,0,0,0
9426,57245,26514,0,0,0
9350,57187,26414,0,0,0
9269,57128,26313,0,0,0
9187,57065,26215,0,0,0
9115,57006,26131,0,0,0
9057,56962,26068,0,0,0
9019,56942,26038,0,0,0
9023,56955,26064,0,0,0
9094,57021,26168,0,0,0
9251,57159,26368,0,0,0
9505,57380,26682,0,0,0
9857,57685,27122,0,0,0
10303,58066,27683,0,0,0
10827,58513,28346,0,0,0
11403,59000,29077,0,0,0
12000,59504,29838,0,0,0
12595,60009,30598,0,0,0
13164,60490,31330,0,0,0
13682,60928,32010,0,0,0
14146,61318,32625,0,0,0
14559,61656,33166,0,0,0
14921,61942,33633,0,0,0
15227,62182,34021,0,0,0
15484,62386,34340,0,0,0
15700,62566,34617,0,0,0
15877,62723,34866,0,0,0
16023,62853,35083,0,0,0
16146,62952,35266,0,0,0
16246,63023,35418,0,0,0
16317,63067,35536,0,0,0
16355,63084,35616,0,0,0
16366,63082,35663,0,0,0
16352,63066,35683,0,0,0
16321,63037,35678,0,0,0
16283,62997,35651,0,0,0
16241,62948,35604,0,0,0
16191,62891,35545,0,0,0
16128,62825,35471,0,0,0
16052,62750,35378,0,0,0
15971,62674,35275,0,0,0
15887,62598,35166,0,0,0
15795,62519,35049,0,0,0
15691,62436,34923,0,0,0
15578,62351,34790,0,0,0
15465,62267,34652,0,0,0
15351,62183,34514,0,0,0
15241,62097,34378,0,0,0
15139,62017,34248,0,0,0
15047,61942,34129,0,0,0
14962,61872,34021,0,0,0
14880,61803,33919,0,0,0
14801,61737,33825,0,0,0
14722,61673,33738,0,0,0
14641,61609,33654,0,0,0
14558,61545,33572,0,0,0
14478,61485,33494,0,0,0
14402,61428,33419,0,0,0
14331,61371,33338,0,0,0
14265,61313,33251,0,0,0
14199,61255,33160,0,0,0
14132,61196,33063,0,0,0
14060,61132,32961,0,0,0
13981,61066,32855,0,0,0
13898,60999,32749,0,0,0
13814,60932,32649,0,0,0
13732,60866,32553,0,0,0
13659,60807,32463,0,0,0
13600,60759,32384,0,0,0
13552,60722,32315,0,0,0
13517,60696,32256,0,0,0
13497,60681,32209,0,0,0
13496,60680,32183,0,0,0
13505,60693,32174,0,0,0
13524,60716,32182,0,0,0
13557,60753,32210,0,0,0
13602,60804,32257,0,0,0
13650,60860,32312,0,0,0
13694,60909,32367,0,0,0
13737,60951,32423,0,0,0
13786,60998,32485,0,0,0
13838,61043,32550,0,0,0
13890,61081,32615,0,0,0
13945,61117,32680,0,0,0
13996,61156,32746,0,0,0
14039,61193,32811,0,0,0
14076,61227,32869,0,0,0
14111,61256,32920,0,0,0
14137,61282,32964,0,0,0
14151,61299,32999,0,0,0
14152,61302,33021,0,0,0
14146,61292,33030,0,0,0
14136,61273,33027,0,0,0
14118,61247,33010,0,0,0
14093,61216,32977,0,0,0
14065,61184,32932,0,0,0
14037,61151,32882,0,0,0
14006,61117,32829,0,0,0
13973,61081,32774,0,0,0
13942,61052,32721,0,0,0
13908,61026,32669,0,0,0
13865,60993,32611,0,0,0
13812,60948,32542,0,0,0
13748,60891,32464,0,0,0
13673,60832,32379,0,0,0
13591,60770,32290,0,0,0
13507,60706,32195,0,0,0
13422,60643,32097,0,0,0
13336,60580,31997,0,0,0
13247,60514,31896,0,0,0
13155,60448,31790,0,0,0
13059,60380,31677,0,0,0
12955,60306,31555,0,0,0
12845,60222,31427,0,0,0
12734,60130,31300,0,0,0
12628,60039,31179,0,0,0
12524,59953,31058,0,0,0
12418,59865,30933,0,0,0
12311,59773,30805,0,0,0
12209,59686,30676,0,0,0
12114,59605,30545,0,0,0
12020,59523,30412,0,0,0
11927,59442,30286,0,0,0
11838,59365,30168,0,0,0
11753,59293,30057,0,0,0
11670,59225,29953,0,0,0
11594,59163,29854,0,0,0
11522,59106,29750,0,0,0
11443,59043,29635,0,0,0
11357,58971,29518,0,0,0
11276,58898,29408,0,0,0
11197,58828,29300,0,0,0
11115,58758,29189,0,0,0
11032,58691,29079,0,0,0
10955,58632,28980,0,0,0
10887,58584,28889,0,0,0
10824,58541,28801,0,0,0
10767,58497,28719,0,0,0
10712,58450,28638,0,0,0
10652,58400,28558,0,0,0
10589,58350,28482,0,0,0
10532,58303,28418,0,0,0
10488,58263,28361,0,0,0
10451,58226,28300,0,0,0
10418,58192,28241,0,0,0
10393,58166,28200,0,0,0
10382,58154,28179,0,0,0
10379,58149,28161,0,0,0
10372,58142,28136,0,0,0
10363,58133,28112,0,0,0
10353,58124,28094,0,0,0
10342,58115,28076,0,0,0
10328,58101,28052,0,0,0
10311,58084,28025,0,0,0
10291,58070,27994,0,0,0
10266,58049,27953,0,0,0
10235,58020,27904,0,0,0
10208,57991,27856,0,0,0
10190,57972,27816,0,0,0
10176,57960,27781,0,0,0
10159,57946,27751,0,0,0
10141,57934,27723,0,0,0
10115,57920,27690,0,0,0
10075,57893,27646,0,0,0
10025,57854,27593,0,0,0
9968,57811,27535,0,0,0
9906,57766,27471,0,0,0
9836,57716,27400,0,0,0
9765,57661,27323,0,0,0
9704,57608,27245,0,0,0
9648,57557,27163,0,0,0
9587,57506,27081,0,0,0
9521,57452,27005,0,0,0
9459,57402,26934,0,0,0
9402,57359,26859,0,0,0
9345,57316,26779,0,0,0
9286,57266,26698,0,0,0
9223,57214,26614,0,0,0
9154,57162,26523,0,0,0
9077,57106,26428,0,0,0
9000,57046,26339,0,0,0
8936,56993,26261,0,0,0
8889,56955,26198,0,0,0
8867,56937,26163,0,0,0
8888,56953,26182,0,0,0
8973,57021,26280,0,0,0
9131,57154,26468,0,0,0
9368,57358,26763,0,0,0
9685,57635,27176,0,0,0
10077,57980,27695,0,0,0
10533,58380,28299,0,0,0
11031,58814,28954,0,0,0
11545,59261,29630,0,0,0
12060,59699,30305,0,0,0
12559,60113,30948,0,0,0
13024,60498,31545,0,0,0
13446,60851,32096,0,0,0
13832,61170,32600,0,0,0
14178,61450,33047,0,0,0
14482,61689,33439,0,0,0
14747,61896,33782,0,0,0
14972,62075,34081,0,0,0
15158,62230,34338,0,0,0
15306,62355,34552,0,0,0
