green_channel,red_channel,ir_channel,Anomaly_ch0,Anomaly_ch1,Anomaly_ch2
12590,31644,49508,0,0,0
12560,31611,49455,0,0,0
12526,31576,49400,0,0,0
12486,31537,49342,0,0,0
12445,31500,49278,0,0,0
12403,31465,49210,0,0,0
12358,31426,49136,0,0,0
12309,31380,49053,0,0,0
12255,31328,48966,0,0,0
12198,31273,48879,0,0,0
12136,31213,48792,0,0,0
12072,31149,48704,0,0,0
12008,31080,48614,0,0,0
11944,31006,48519,0,0,0
11874,30925,48416,0,0,0
11800,30842,48307,0,0,0
11725,30764,48197,0,0,0
11649,30692,48086,0,0,0
11573,30623,47977,0,0,0
11498,30554,47869,0,0,0
11425,30486,47763,0,0,0
11353,30415,47658,0,0,0
11283,30342,47557,0,0,0
11214,30270,47463,0,0,0
11150,30206,47379,0,0,0
11090,30144,47298,0,0,0
11030,30083,47217,0,0,0
10970,30026,47135,0,0,0
10914,29976,47056,0,0,0
10866,29929,46982,0,0,0
10821,29885,46914,0,0,0
10777,29840,46848,0,0,0
10731,29795,46786,0,0,0
10681,29749,46722,0,0,0
10628,29702,46653,0,0,0
10573,29655,46579,0,0,0
10521,29611,46502,0,0,0
10469,29565,46422,0,0,0
10420,29519,46342,0,0,0
10376,29475,46265,0,0,0
10335,29433,46193,0,0,0
10294,29392,46123,0,0,0
10252,29351,46051,0,0,0
10208,29308,45980,0,0,0
10166,29264,45915,0,0,0
10129,29221,45854,0,0,0
10094,29179,45796,0,0,0
10060,29137,45739,0,0,0
10024,29096,45685,0,0,0
9982,29051,45627,0,0,0
9935,29005,45560,0,0,0
9887,28960,45490,0,0,0
9838,28914,45416,0,0,0
9785,28864,45336,0,0,0
9734,28817,45260,0,0,0
9693,28781,45201,0,0,0
9671,28762,45172,0,0,0
9675,28769,45187,0,0,0
9718,28817,45265,0,0,0
9818,28920,45421,0,0,0
9980,29084,45661,0,0,0
10204,29305,45988,0,0,0
10481,29576,46391,0,0,0
10804,29889,46855,0,0,0
11159,30234,47363,0,0,0
11535,30598,47897,0,0,0
11924,30974,48447,0,0,0
12315,31352,48995,0,0,0
12692,31712,49522,0,0,0
13038,32042,50008,0,0,0
13346,32335,50445,0,0,0
13616,32589,50827,0,0,0
13846,32801,51150,0,0,0
14034,32970,51412,0,0,0
14180,33104,51616,0,0,0
14290,33205,51769,0,0,0
14364,33272,51876,0,0,0
14408,33307,51940,0,0,0
14432,33319,51968,0,0,0
14438,33313,51966,0,0,0
14427,33293,51940,0,0,0
14403,33259,51894,0,0,0
14366,33211,51834,0,0,0
14321,33155,51764,0,0,0
14270,33093,51689,0,0,0
14215,33031,51615,0,0,0
14163,32976,51540,0,0,0
14119,32930,51468,0,0,0
14080,32891,51402,0,0,0
14048,32857,51345,0,0,0
14024,32830,51304,0,0,0
14010,32812,51277,0,0,0
14005,32805,51262,0,0,0
14011,32805,51257,0,0,0
14023,32810,51264,0,0,0
14038,32821,51278,0,0,0
14055,32835,51293,0,0,0
14071,32850,51308,0,0,0
14083,32860,51320,0,0,0
14088,32860,51326,0,0,0
14083,32848,51318,0,0,0
14069,32825,51293,0,0,0
14045,32792,51249,0,0,0
14010,32751,51193,0,0,0
13967,32702,51129,0,0,0
13916,32647,51053,0,0,0
13862,32592,50971,0,0,0
13808,32536,50886,0,0,0
13754,32476,50798,0,0,0
13697,32417,50713,0,0,0
13641,32363,50632,0,0,0
13589,32311,50555,0,0,0
13546,32262,50484,0,0,0
13510,32219,50421,0,0,0
13480,32179,50365,0,0,0
13453,32141,50315,0,0,0
13428,32108,50269,0,0,0
13407,32079,50229,0,0,0
13388,32058,50198,0,0,0
13370,32039,50172,0,0,0
13352,32021,50152,0,0,0
13335,32006,50137,0,0,0
13319,31993,50125,0,0,0
13305,31980,50114,0,0,0
13294,31969,50105,0,0,0
13285,31964,50098,0,0,0
13278,31962,50089,0,0,0
13273,31957,50077,0,0,0
13270,31953,50066,0,0,0
13267,31949,50057,0,0,0
13260,31939,50043,0,0,0
13247,31921,50020,0,0,0
13229,31894,49987,0,0,0
13211,31864,49951,0,0,0
13190,31835,49909,0,0,0
13160,31805,49860,0,0,0
13118,31772,49807,0,0,0
13073,31734,49747,0,0,0
13029,31695,49680,0,0,0
12989,31653,49606,0,0,0
12949,31610,49529,0,0,0
12905,31564,49450,0,0,0
12857,31513,49372,0,0,0
12805,31458,49291,0,0,0
12754,31399,49210,0,0,0
12700,31335,49129,0,0,0
12639,31263,49043,0,0,0
12568,31185,48946,0,0,0
12493,31106,48844,0,0,0
12414,31029,48742,0,0,0
12330,30953,48632,0,0,0
12244,30872,48515,0,0,0
12157,30788,48396,0,0,0
12067,30707,48277,0,0,0
11974,30626,48158,0,0,0
11880,30546,48038,0,0,0
11788,30466,47920,0,0,0
11698,30388,47806,0,0,0
11611,30311,47696,0,0,0
11529,30238,47591,0,0,0
11456,30169,47488,0,0,0
11390,30102,47387,0,0,0
11326,30034,47287,0,0,0
11262,29967,47188,0,0,0
11197,29903,47090,0,0,0
11135,29840,46996,0,0,0
11076,29781,46905,0,0,0
11018,29724,46814,0,0,0
10962,29667,46728,0,0,0
10908,29612,46651,0,0,0
10855,29556,46575,0,0,0
10801,29499,46495,0,0,0
10749,29443,46416,0,0,0
10697,29387,46338,0,0,0
10642,29331,46257,0,0,0
10583,29277,46174,0,0,0
10527,29228,46096,0,0,0
10476,29181,46021,0,0,0
10425,29135,45944,0,0,0
10375,29088,45868,0,0,0
10327,29041,45794,0,0,0
10280,28990,45719,0,0,0
10233,28937,45642,0,0,0
10185,28879,45564,0,0,0
10133,28822,45487,0,0,0
10078,28769,45411,0,0,0
10023,28717,45338,0,0,0
9969,28665,45264,0,0,0
9915,28615,45190,0,0,0
9863,28568,45122,0,0,0
9814,28527,45064,0,0,0
9777,28496,45024,0,0,0
9758,28483,45013,0,0,0
9767,28497,45043,0,0,0
9818,28552,45136,0,0,0
9926,28661,45309,0,0,0
10097,28831,45571,0,0,0
10330,29062,45920,0,0,0
10619,29346,46343,0,0,0
10954,29673,46822,0,0,0
11317,30030,47337,0,0,0
11695,30402,47870,0,0,0
12080,30777,48413,0,0,0
12461,31149,48954,0,0,0
12831,31508,49478,0,0,0
13179,31842,49971,0,0,0
13496,32143,50420,0,0,0
13776,32407,50814,0,0,0
14012,32626,51149,0,0,0
14205,32800,51422,0,0,0
14356,32932,51634,0,0,0
14464,33025,51791,0,0,0
14530,33082,51895,0,0,0
14564,33108,51954,0,0,0
14574,33109,51976,0,0,0
14563,33093,51969,0,0,0
14535,33065,51939,0,0,0
14494,33025,51887,0,0,0
14442,32975,51815,0,0,0
14384,32918,51731,0,0,0
14321,32857,51640,0,0,0
14256,32792,51545,0,0,0
14190,32728,51452,0,0,0
14127,32670,51367,0,0,0
14070,32617,51289,0,0,0
14020,32569,51221,0,0,0
13981,32526,51166,0,0,0
13952,32492,51126,0,0,0
13931,32468,51097,0,0,0
13919,32450,51076,0,0,0
13914,32435,51065,0,0,0
13913,32425,51062,0,0,0
13911,32419,51064,0,0,0
13908,32414,51065,0,0,0
13904,32409,51060,0,0,0
13896,32403,51050,0,0,0
13881,32393,51033,0,0,0
13855,32375,51003,0,0,0
13822,32349,50959,0,0,0
13781,32314,50902,0,0,0
13734,32267,50835,0,0,0
13677,32207,50760,0,0,0
13608,32138,50675,0,0,0
13530,32063,50580,0,0,0
13447,31982,50477,0,0,0
13363,31901,50366,0,0,0
13283,31822,50254,0,0,0
13208,31745,50143,0,0,0
13140,31670,50037,0,0,0
13077,31598,49939,0,0,0
13020,31536,49853,0,0,0
12971,31484,49782,0,0,0
12928,31441,49723,0,0,0
12892,31406,49676,0,0,0
12863,31381,49642,0,0,0
12840,31362,49620,0,0,0
12822,31346,49602,0,0,0
12810,31331,49587,0,0,0
12806,31321,49575,0,0,0
12803,31316,49565,0,0,0
12799,31312,49557,0,0,0
12793,31307,49551,0,0,0
12786,31302,49544,0,0,0
12776,31297,49535,0,0,0
12765,31290,49521,0,0,0
12754,31283,49503,0,0,0
12744,31271,49481,0,0,0
12729,31255,49458,0,0,0
12709,31235,49432,0,0,0
12684,31212,49400,0,0,0
12658,31186,49363,0,0,0
12628,31157,49318,0,0,0
12594,31123,49266,0,0,0
12554,31082,49208,0,0,0
12510,31035,49141,0,0,0
12461,30981,49065,0,0,0
12407,30921,48981,0,0,0
12348,30859,48892,0,0,0
12284,30794,48797,0,0,0
12216,30724,48693,0,0,0
12145,30650,48582,0,0,0
12072,30577,48467,0,0,0
11997,30504,48353,0,0,0
11916,30427,48237,0,0,0
11832,30347,48119,0,0,0
11746,30265,48000,0,0,0
11657,30179,47878,0,0,0
11563,30088,47751,0,0,0
11469,29997,47622,0,0,0
11377,29907,47495,0,0,0
11286,29817,47371,0,0,0
11197,29725,47247,0,0,0
11110,29635,47125,0,0,0
11024,29549,47006,0,0,0
10937,29467,46889,0,0,0
10848,29387,46771,0,0,0
10761,29310,46650,0,0,0
10677,29236,46529,0,0,0
10597,29160,46411,0,0,0
10519,29078,46294,0,0,0
10441,28993,46181,0,0,0
10365,28914,46078,0,0,0
10293,28842,45984,0,0,0
10225,28776,45896,0,0,0
10163,28717,45816,0,0,0
10109,28663,45741,0,0,0
10060,28614,45670,0,0,0
10015,28572,45600,0,0,0
9972,28536,45532,0,0,0
9931,28500,45470,0,0,0
9890,28461,45411,0,0,0
9848,28418,45350,0,0,0
9803,28370,45286,0,0,0
9756,28317,45218,0,0,0
9704,28264,45150,0,0,0
9647,28209,45080,0,0,0
9588,28156,45006,0,0,0
9526,28105,44931,0,0,0
9465,28053,44853,0,0,0
9407,28000,44773,0,0,0
9356,27954,44695,0,0,0
9309,27911,44615,0,0,0
9259,27867,44533,0,0,0
9205,27818,44451,0,0,0
9149,27767,44370,0,0,0
9096,27717,44291,0,0,0
9042,27662,44208,0,0,0
8984,27600,44120,0,0,0
8923,27535,44026,0,0,0
8857,27470,43928,0,0,0
8791,27406,43830,0,0,0
8728,27346,43739,0,0,0
8679,27298,43672,0,0,0
8658,27274,43650,0,0,0
8678,27290,43692,0,0,0
8753,27362,43823,0,0,0
8898,27506,44064,0,0,0
9117,27728,44417,0,0,0
9403,28021,44867,0,0,0
9746,28372,45395,0,0,0
10133,28766,45979,0,0,0
10546,29183,46596,0,0,0
10970,29606,47223,0,0,0
11392,30021,47840,0,0,0
11799,30418,48428,0,0,0
12184,30787,48974,0,0,0
12543,31126,49474,0,0,0
12870,31435,49923,0,0,0
13160,31708,50317,0,0,0
13405,31935,50654,0,0,0
13604,32115,50930,0,0,0
13761,32251,51145,0,0,0
13879,32350,51304,0,0,0
13959,32416,51410,0,0,0
14002,32452,51469,0,0,0
14015,32461,51486,0,0,0
14005,32449,51471,0,0,0
13977,32419,51432,0,0,0
13933,32370,51371,0,0,0
13878,32312,51294,0,0,0
13821,32254,51212,0,0,0
13766,32195,51128,0,0,0
13713,32139,51046,0,0,0
13663,32090,50967,0,0,0
13621,32048,50897,0,0,0
13586,32010,50838,0,0,0
13558,31977,50793,0,0,0
13540,31952,50763,0,0,0
13533,31939,50749,0,0,0
13537,31938,50748,0,0,0
13553,31944,50758,0,0,0
13575,31956,50775,0,0,0
13599,31971,50792,0,0,0
13621,31984,50808,0,0,0
13638,31992,50818,0,0,0
13651,31997,50821,0,0,0
13656,31993,50814,0,0,0
13647,31977,50794,0,0,0
13624,31949,50759,0,0,0
13596,31917,50716,0,0,0
13564,31878,50664,0,0,0
13524,31830,50597,0,0,0
13476,31775,50516,0,0,0
13419,31712,50424,0,0,0
13354,31645,50325,0,0,0
13283,31575,50220,0,0,0
13210,31504,50114,0,0,0
13138,31433,50014,0,0,0
13068,31365,49924,0,0,0
13004,31303,49844,0,0,0
12949,31249,49775,0,0,0
12902,31204,49715,0,0,0
12857,31165,49662,0,0,0
12816,31128,49615,0,0,0
12777,31095,49570,0,0,0
12744,31070,49533,0,0,0
12717,31056,49504,0,0,0
12696,31048,49482,0,0,0
12680,31044,49472,0,0,0
12671,31044,49471,0,0,0
12671,31050,49476,0,0,0
12682,31060,49487,0,0,0
12694,31070,49501,0,0,0
12703,31078,49513,0,0,0
12704,31075,49511,0,0,0
12699,31060,49494,0,0,0
12691,31036,49468,0,0,0
12676,31006,49436,0,0,0
12653,30974,49396,0,0,0
12626,30940,49349,0,0,0
12597,30902,49293,0,0,0
12563,30862,49232,0,0,0
12522,30819,49165,0,0,0
12472,30774,49096,0,0,0
12415,30728,49022,0,0,0
12354,30676,48942,0,0,0
12292,30617,48858,0,0,0
12230,30554,48773,0,0,0
12167,30492,48688,0,0,0
12098,30430,48598,0,0,0
12024,30362,48498,0,0,0
11946,30286,48388,0,0,0
11862,30206,48271,0,0,0
11775,30125,48150,0,0,0
11687,30044,48026,0,0,0
11600,29962,47901,0,0,0
11512,29878,47772,0,0,0
11422,29793,47639,0,0,0
11328,29703,47503,0,0,0
11228,29610,47364,0,0,0
11126,29513,47228,0,0,0
11022,29416,47095,0,0,0
10920,29320,46963,0,0,0
10820,29225,46829,0,0,0
10721,29133,46693,0,0,0
10624,29043,46562,0,0,0
10528,28952,46438,0,0,0
10434,28863,46319,0,0,0
10343,28778,46203,0,0,0
10253,28698,46092,0,0,0
10167,28620,45986,0,0,0
10089,28546,45886,0,0,0
10018,28479,45792,0,0,0
9951,28420,45703,0,0,0
9886,28363,45617,0,0,0
9823,28310,45538,0,0,0
9768,28260,45466,0,0,0
9720,28214,45396,0,0,0
9676,28172,45332,0,0,0
9636,28135,45273,0,0,0
9598,28098,45213,0,0,0
9557,28060,45152,0,0,0
9513,28019,45089,0,0,0
9466,27977,45028,0,0,0
9419,27933,44970,0,0,0
9374,27888,44908,0,0,0
9326,27840,44840,0,0,0
9276,27792,44772,0,0,0
9225,27747,44705,0,0,0
9176,27703,44635,0,0,0
9127,27658,44564,0,0,0
9078,27612,44493,0,0,0
9026,27565,44422,0,0,0
8971,27515,44345,0,0,0
8910,27458,44263,0,0,0
8848,27399,44177,0,0,0
8784,27340,44087,0,0,0
8718,27277,43993,0,0,0
8650,27212,43894,0,0,0
8583,27146,43792,0,0,0
8513,27077,43686,0,0,0
8438,27000,43575,0,0,0
8359,26921,43459,0,0,0
8275,26846,43342,0,0,0
8187,26771,43225,0,0,0
8097,26694,43108,0,0,0
8010,26624,42999,0,0,0
7934,26567,42907,0,0,0
7881,26528,42848,0,0,0
7862,26518,42840,0,0,0
7896,26557,42910,0,0,0
8001,26664,43082,0,0,0
8189,26848,43369,0,0,0
8460,27107,43774,0,0,0
8805,27434,44287,0,0,0
9206,27819,44883,0,0,0
9643,28244,45532,0,0,0
10100,28693,46211,0,0,0
10563,29150,46894,0,0,0
11012,29595,47552,0,0,0
11433,30013,48166,0,0,0
11822,30396,48729,0,0,0
12181,30745,49241,0,0,0
12505,31056,49698,0,0,0
12784,31322,50093,0,0,0
13018,31542,50419,0,0,0
13207,31720,50681,0,0,0
13352,31855,50882,0,0,0
13457,31946,51027,0,0,0
13523,31998,51119,0,0,0
13553,32020,51163,0,0,0
13556,32021,51168,0,0,0
13537,32002,51139,0,0,0
13503,31967,51084,0,0,0
13460,31921,51014,0,0,0
13412,31865,50933,0,0,0
13358,31799,50845,0,0,0
13302,31732,50756,0,0,0
13246,31670,50674,0,0,0
13191,31614,50597,0,0,0
13141,31563,50524,0,0,0
13106,31520,50462,0,0,0
13085,31485,50414,0,0,0
13070,31461,50378,0,0,0
13061,31448,50354,0,0,0
13063,31444,50340,0,0,0
13073,31443,50333,0,0,0
13084,31442,50332,0,0,0
13091,31440,50334,0,0,0
13097,31439,50338,0,0,0
13097,31437,50342,0,0,0
13090,31431,50339,0,0,0
13071,31415,50328,0,0,0
13039,31390,50305,0,0,0
12999,31358,50266,0,0,0
12956,31313,50210,0,0,0
12908,31259,50139,0,0,0
12851,31198,50058,0,0,0
12783,31131,49967,0,0,0
12707,31056,49865,0,0,0
12628,30978,49756,0,0,0
12545,30899,49645,0,0,0
12461,30822,49536,0,0,0
12380,30751,49432,0,0,0
12309,30692,49339,0,0,0
12251,30646,49262,0,0,0
12207,30611,49203,0,0,0
12174,30586,49161,0,0,0
12155,30570,49135,0,0,0
12148,30563,49123,0,0,0
12148,30559,49120,0,0,0
12150,30557,49120,0,0,0
12158,30562,49125,0,0,0
12176,30575,49134,0,0,0
12198,30591,49149,0,0,0
12220,30609,49169,0,0,0
12249,30634,49192,0,0,0
12281,30663,49214,0,0,0
12310,30687,49236,0,0,0
12333,30703,49254,0,0,0
12355,30717,49268,0,0,0
12375,30732,49279,0,0,0
12391,30741,49284,0,0,0
12400,30741,49279,0,0,0
12405,30736,49265,0,0,0
12403,30724,49243,0,0,0
12392,30702,49216,0,0,0
12376,30676,49183,0,0,0
12355,30650,49145,0,0,0
12332,30625,49100,0,0,0
12307,30598,49049,0,0,0
12282,30566,48994,0,0,0
12259,30530,48938,0,0,0
12237,30492,48880,0,0,0
12212,30453,48818,0,0,0
12183,30411,48749,0,0,0
12153,30370,48679,0,0,0
12121,30330,48611,0,0,0
12087,30289,48541,0,0,0
12051,30249,48470,0,0,0
12012,30208,48398,0,0,0
11967,30163,48322,0,0,0
11916,30113,48240,0,0,0
11864,30064,48155,0,0,0
11811,30013,48069,0,0,0
11758,29960,47979,0,0,0
11703,29901,47885,0,0,0
11649,29842,47792,0,0,0
11599,29785,47705,0,0,0
11549,29729,47623,0,0,0
11494,29672,47540,0,0,0
11435,29613,47455,0,0,0
11370,29554,47368,0,0,0
11298,29494,47279,0,0,0
11225,29431,47187,0,0,0
11154,29365,47093,0,0,0
11080,29297,46996,0,0,0
10998,29225,46896,0,0,0
10912,29147,46794,0,0,0
10826,29068,46690,0,0,0
10741,28988,46588,0,0,0
10657,28910,46487,0,0,0
10576,28835,46384,0,0,0
10502,28766,46281,0,0,0
10433,28702,46180,0,0,0
10367,28641,46084,0,0,0
10303,28582,45992,0,0,0
10241,28523,45899,0,0,0
10177,28462,45807,0,0,0
10113,28399,45716,0,0,0
10050,28335,45626,0,0,0
9988,28268,45537,0,0,0
9925,28197,45446,0,0,0
9863,28126,45355,0,0,0
9802,28060,45267,0,0,0
9741,27999,45180,0,0,0
9683,27942,45094,0,0,0
9625,27883,45006,0,0,0
9568,27821,44919,0,0,0
9514,27765,44836,0,0,0
9468,27719,44759,0,0,0
9428,27681,44689,0,0,0
9392,27647,44626,0,0,0
9359,27616,44568,0,0,0
9328,27588,44519,0,0,0
9303,27569,44484,0,0,0
9293,27563,44471,0,0,0
9309,27584,44492,0,0,0
9362,27642,44566,0,0,0
9460,27745,44708,0,0,0
9608,27896,44931,0,0,0
9812,28099,45245,0,0,0
10069,28357,45644,0,0,0
10373,28660,46109,0,0,0
10711,28997,46621,0,0,0
11069,29354,47163,0,0,0
11436,29716,47709,0,0,0
11802,30071,48243,0,0,0
12158,30416,48758,0,0,0
12497,30745,49245,0,0,0
12813,31051,49694,0,0,0
13104,31329,50100,0,0,0
13364,31572,50460,0,0,0
13585,31776,50768,0,0,0
13764,31939,51021,0,0,0
13903,32065,51220,0,0,0
14007,32156,51367,0,0,0
14077,32214,51465,0,0,0
14118,32241,51522,0,0,0
14134,32244,51545,0,0,0
14131,32231,51541,0,0,0
14115,32207,51512,0,0,0
14088,32171,51463,0,0,0
14051,32122,51397,0,0,0
14003,32067,51319,0,0,0
13946,32007,51233,0,0,0
13884,31943,51146,0,0,0
13820,31877,51063,0,0,0
13758,31815,50984,0,0,0
13703,31760,50912,0,0,0
13657,31711,50849,0,0,0
13621,31672,50797,0,0,0
13601,31648,50757,0,0,0
13595,31638,50733,0,0,0
13598,31639,50724,0,0,0
13613,31649,50726,0,0,0
13635,31668,50735,0,0,0
13661,31691,50750,0,0,0
13692,31711,50768,0,0,0
13725,31729,50786,0,0,0
13750,31744,50798,0,0,0
13766,31749,50797,0,0,0
13768,31740,50777,0,0,0
13752,31717,50741,0,0,0
13722,31681,50691,0,0,0
13682,31635,50629,0,0,0
13628,31580,50556,0,0,0
13560,31516,50471,0,0,0
13485,31446,50376,0,0,0
13408,31372,50273,0,0,0
13335,31299,50170,0,0,0
13266,31232,50072,0,0,0
13202,31171,49983,0,0,0
13142,31115,49903,0,0,0
13092,31066,49833,0,0,0
13056,31028,49777,0,0,0
13034,31005,49738,0,0,0
13020,30993,49710,0,0,0
13010,30985,49688,0,0,0
13005,30979,49672,0,0,0
13002,30975,49664,0,0,0
12997,30972,49662,0,0,0
12992,30970,49663,0,0,0
12989,30966,49664,0,0,0
12986,30959,49661,0,0,0
12977,30948,49651,0,0,0
12965,30935,49636,0,0,0
12953,30920,49621,0,0,0
12938,30901,49603,0,0,0
12918,30878,49577,0,0,0
12891,30853,49545,0,0,0
12862,30828,49508,0,0,0
12836,30804,49465,0,0,0
12814,30779,49417,0,0,0
12791,30749,49367,0,0,0
12762,30716,49314,0,0,0
12728,30683,49258,0,0,0
12691,30646,49196,0,0,0
12651,30603,49127,0,0,0
12606,30554,49047,0,0,0
12553,30497,48959,0,0,0
12491,30430,48863,0,0,0
12420,30358,48761,0,0,0
12345,30284,48658,0,0,0
12265,30206,48553,0,0,0
12180,30122,48441,0,0,0
12091,30037,48321,0,0,0
12007,29957,48205,0,0,0
11928,29883,48095,0,0,0
11853,29811,47988,0,0,0
11778,29740,47883,0,0,0
11705,29669,47781,0,0,0
11634,29596,47678,0,0,0
11564,29520,47573,0,0,0
11494,29444,47467,0,0,0
11422,29369,47362,0,0,0
11348,29295,47257,0,0,0
11275,29220,47150,0,0,0
11203,29149,47042,0,0,0
11128,29078,46936,0,0,0
11049,29005,46830,0,0,0
10974,28933,46728,0,0,0
10904,28861,46626,0,0,0
10838,28794,46521,0,0,0
10773,28731,46418,0,0,0
10708,28669,46321,0,0,0
10647,28612,46234,0,0,0
10592,28561,46157,0,0,0
10545,28514,46088,0,0,0
10507,28471,46024,0,0,0
10474,28436,45968,0,0,0
10445,28409,45923,0,0,0
10421,28386,45885,0,0,0
10398,28364,45850,0,0,0
10375,28341,45815,0,0,0
10354,28321,45780,0,0,0
10337,28301,45745,0,0,0
10318,28278,45708,0,0,0
10295,28253,45669,0,0,0
10272,28230,45632,0,0,0
10250,28208,45600,0,0,0
10224,28187,45568,0,0,0
10196,28165,45533,0,0,0
10166,28141,45492,0,0,0
10131,28112,45440,0,0,0
10088,28078,45379,0,0,0
10044,28041,45310,0,0,0
9998,28001,45236,0,0,0
9948,27955,45160,0,0,0
9893,27904,45083,0,0,0
9836,27851,45000,0,0,0
9776,27795,44911,0,0,0
9716,27735,44815,0,0,0
9654,27672,44715,0,0,0
9593,27609,44612,0,0,0
9532,27544,44507,0,0,0
9469,27477,44405,0,0,0
9405,27408,44305,0,0,0
9342,27342,44211,0,0,0
9285,27284,44128,0,0,0
9243,27240,44067,0,0,0
9228,27226,44049,0,0,0
9253,27256,44099,0,0,0
9332,27341,44231,0,0,0
9476,27489,44462,0,0,0
9691,27707,44797,0,0,0
9970,27991,45226,0,0,0
10302,28326,45730,0,0,0
10674,28696,46286,0,0,0
11067,29087,46872,0,0,0
11462,29483,47469,0,0,0
11849,29872,48052,0,0,0
12221,30241,48607,0,0,0
12575,30581,49127,0,0,0
12902,30892,49604,0,0,0
13197,31174,50031,0,0,0
13455,31424,50405,0,0,0
13677,31637,50726,0,0,0
13863,31814,50990,0,0,0
14013,31952,51196,0,0,0
14127,32049,51344,0,0,0
14205,32112,51439,0,0,0
14252,32146,51492,0,0,0
14273,32153,51511,0,0,0
14271,32136,51500,0,0,0
14246,32101,51465,0,0,0
14205,32053,51410,0,0,0
14154,31997,51338,0,0,0
14096,31938,51255,0,0,0
14038,31879,51171,0,0,0
13982,31821,51093,0,0,0
13930,31765,51017,0,0,0
13883,31715,50945,0,0,0
13843,31673,50884,0,0,0
13812,31642,50841,0,0,0
13791,31621,50814,0,0,0
13779,31611,50797,0,0,0
13772,31609,50788,0,0,0
13772,31613,50787,0,0,0
13780,31622,50793,0,0,0
13798,31638,50804,0,0,0
13819,31655,50817,0,0,0
13840,31668,50828,0,0,0
13859,31673,50835,0,0,0
13873,31674,50839,0,0,0
13878,31673,50839,0,0,0
13871,31664,50829,0,0,0
13856,31642,50806,0,0,0
13836,31614,50772,0,0,0
13810,31582,50726,0,0,0
13777,31540,50665,0,0,0
13733,31488,50592,0,0,0
13680,31427,50508,0,0,0
13619,31362,50417,0,0,0
13548,31291,50321,0,0,0
13470,31215,50225,0,0,0
13391,31140,50130,0,0,0
13314,31071,50036,0,0,0
13240,31007,49948,0,0,0
13177,30950,49871,0,0,0
13129,30907,49811,0,0,0
13097,30879,49768,0,0,0
13078,30861,49738,0,0,0
13069,30849,49716,0,0,0
13069,30847,49703,0,0,0
13076,30856,49698,0,0,0
13090,30868,49698,0,0,0
13107,30879,49703,0,0,0
13131,30891,49713,0,0,0
13156,30906,49728,0,0,0
13178,30919,49744,0,0,0
13194,30930,49754,0,0,0
13203,30939,49758,0,0,0
13203,30944,49754,0,0,0
13195,30940,49739,0,0,0
13176,30928,49711,0,0,0
13155,30909,49676,0,0,0
13131,30883,49636,0,0,0
13104,30847,49588,0,0,0
13069,30803,49533,0,0,0
13026,30756,49476,0,0,0
12980,30709,49415,0,0,0
12932,30662,49349,0,0,0
12883,30614,49278,0,0,0
12827,30562,49205,0,0,0
12765,30506,49126,0,0,0
12697,30443,49038,0,0,0
12628,30373,48945,0,0,0
12557,30300,48851,0,0,0
12482,30226,48753,0,0,0
12408,30149,48649,0,0,0
12334,30069,48540,0,0,0
12259,29988,48428,0,0,0
12180,29905,48311,0,0,0
12098,29821,48192,0,0,0
12015,29737,48070,0,0,0
11931,29652,47945,0,0,0
11846,29566,47819,0,0,0
11761,29483,47697,0,0,0
11679,29407,47584,0,0,0
11600,29335,47477,0,0,0
11523,29265,47374,0,0,0
11450,29200,47274,0,0,0
11380,29140,47180,0,0,0
11311,29081,47090,0,0,0
11241,29021,47001,0,0,0
11171,28958,46910,0,0,0
11104,28898,46817,0,0,0
11038,28838,46724,0,0,0
10973,28776,46631,0,0,0
10908,28714,46539,0,0,0
10844,28657,46451,0,0,0
10781,28603,46368,0,0,0
10719,28545,46287,0,0,0
10659,28490,46209,0,0,0
10607,28443,46139,0,0,0
10562,28400,46077,0,0,0
10521,28355,46017,0,0,0
10483,28310,45959,0,0,0
10446,28268,45905,0,0,0
10406,28228,45849,0,0,0
10366,28187,45786,0,0,0
10328,28145,45722,0,0,0
10286,28099,45656,0,0,0
10240,28047,45583,0,0,0
10189,27992,45503,0,0,0
10134,27941,45421,0,0,0
10078,27893,45338,0,0,0
10020,27840,45257,0,0,0
9960,27784,45174,0,0,0
9898,27730,45089,0,0,0
9838,27678,45006,0,0,0
9777,27622,44922,0,0,0
9715,27560,44834,0,0,0
9656,27501,44746,0,0,0
9598,27444,44657,0,0,0
9541,27389,44566,0,0,0
9482,27332,44475,0,0,0
9422,27273,44387,0,0,0
9362,27214,44297,0,0,0
9300,27152,44207,0,0,0
9237,27090,44122,0,0,0
9183,27039,44048,0,0,0
9144,27005,43998,0,0,0
9130,26996,43990,0,0,0
9154,27027,44051,0,0,0
9235,27117,44203,0,0,0
9384,27277,44457,0,0,0
9605,27509,44814,0,0,0
9893,27809,45268,0,0,0
10242,28167,45801,0,0,0
10636,28564,46386,0,0,0
11055,28981,46995,0,0,0
11480,29401,47605,0,0,0
11895,29813,48201,0,0,0
12292,30204,48770,0,0,0
12666,30567,49304,0,0,0
13009,30892,49795,0,0,0
13311,31175,50227,0,0,0
13570,31415,50593,0,0,0
13784,31612,50895,0,0,0
13954,31767,51137,0,0,0
14080,31883,51320,0,0,0
14167,31962,51447,0,0,0
14217,32007,51522,0,0,0
14237,32023,51555,0,0,0
14233,32017,51554,0,0,0
14207,31991,51522,0,0,0
14165,31946,51464,0,0,0
14113,31889,51389,0,0,0
14060,31832,51311,0,0,0
14008,31776,51233,0,0,0
13955,31721,51153,0,0,0
13905,31669,51074,0,0,0
13859,31620,51005,0,0,0
13816,31576,50942,0,0,0
13780,31537,50883,0,0,0
13754,31507,50834,0,0,0
13737,31484,50797,0,0,0
13726,31465,50769,0,0,0
13719,31452,50748,0,0,0
13717,31447,50738,0,0,0
13722,31448,50737,0,0,0
13727,31451,50737,0,0,0
13728,31448,50734,0,0,0
13727,31439,50727,0,0,0
13721,31421,50715,0,0,0
13706,31396,50696,0,0,0
13684,31369,50668,0,0,0
13653,31338,50629,0,0,0
13613,31298,50578,0,0,0
13564,31254,50515,0,0,0
13507,31203,50441,0,0,0
13445,31142,50357,0,0,0
13378,31072,50266,0,0,0
13307,30995,50171,0,0,0
13232,30918,50072,0,0,0
13160,30847,49976,0,0,0
13090,30781,49886,0,0,0
13026,30721,49804,0,0,0
12970,30670,49732,0,0,0
12923,30631,49670,0,0,0
12888,30600,49619,0,0,0
12862,30573,49576,0,0,0
12841,30553,49544,0,0,0
12826,30539,49518,0,0,0
12815,30530,49495,0,0,0
12805,30522,49477,0,0,0
12799,30520,49465,0,0,0
12797,30522,49460,0,0,0
12798,30527,49459,0,0,0
12801,30535,49461,0,0,0
12805,30545,49465,0,0,0
12807,30552,49470,0,0,0
12801,30552,49470,0,0,0
12791,30546,49462,0,0,0
12778,30535,49448,0,0,0
12758,30516,49425,0,0,0
12733,30487,49391,0,0,0
12703,30452,49348,0,0,0
12668,30415,49300,0,0,0
12627,30376,49245,0,0,0
12582,30331,49183,0,0,0
12534,30285,49117,0,0,0
12485,30241,49050,0,0,0
12434,30197,48977,0,0,0
12384,30148,48897,0,0,0
12334,30098,48813,0,0,0
12278,30046,48727,0,0,0
12220,29992,48635,0,0,0
12161,29936,48542,0,0,0
12100,29876,48449,0,0,0
12036,29811,48355,0,0,0
11970,29743,48256,0,0,0
11902,29674,48151,0,0,0
11835,29603,48043,0,0,0
11769,29532,47938,0,0,0
11699,29463,47834,0,0,0
11623,29394,47732,0,0,0
11543,29325,47628,0,0,0
11464,29257,47525,0,0,0
11387,29190,47426,0,0,0
11317,29126,47330,0,0,0
11258,29069,47240,0,0,0
11208,29018,47157,0,0,0
11166,28972,47080,0,0,0
11129,28929,47008,0,0,0
11094,28888,46940,0,0,0
11058,28850,46879,0,0,0
11024,28815,46826,0,0,0
10992,28784,46775,0,0,0
10962,28756,46724,0,0,0
10932,28728,46672,0,0,0
10902,28700,46621,0,0,0
10870,28671,46567,0,0,0
10834,28637,46510,0,0,0
10795,28600,46453,0,0,0
10756,28562,46398,0,0,0
10715,28521,46340,0,0,0
10672,28478,46281,0,0,0
10632,28435,46221,0,0,0
10596,28395,46160,0,0,0
10560,28357,46099,0,0,0
10520,28317,46035,0,0,0
10479,28274,45972,0,0,0
10441,28231,45910,0,0,0
10404,28186,45849,0,0,0
10367,28138,45786,0,0,0
10330,28092,45724,0,0,0
10291,28048,45660,0,0,0
10249,28004,45593,0,0,0
10207,27958,45525,0,0,0
10168,27911,45456,0,0,0
10133,27866,45389,0,0,0
10102,27824,45327,0,0,0
10066,27787,45269,0,0,0
10027,27755,45213,0,0,0
9991,27725,45160,0,0,0
9967,27702,45120,0,0,0
9962,27699,45108,0,0,0
9983,27723,45144,0,0,0
10046,27786,45249,0,0,0
10165,27904,45439,0,0,0
10346,28084,45719,0,0,0
10587,28328,46089,0,0,0
10883,28627,46535,0,0,0
11226,28968,47041,0,0,0
11601,29336,47589,0,0,0
11991,29720,48157,0,0,0
12386,30108,48724,0,0,0
12780,30489,49283,0,0,0
13162,30856,49821,0,0,0
13519,31199,50321,0,0,0
13842,31509,50769,0,0,0
14123,31778,51159,0,0,0
14358,31999,51489,0,0,0
14546,32175,51756,0,0,0
14690,32310,51959,0,0,0
14796,32407,52107,0,0,0
14871,32471,52208,0,0,0
14917,32506,52266,0,0,0
14938,32515,52282,0,0,0
14939,32501,52266,0,0,0
14921,32469,52223,0,0,0
14889,32427,52161,0,0,0
14845,32378,52087,0,0,0
14796,32326,52009,0,0,0
14745,32272,51930,0,0,0
14690,32213,51854,0,0,0
14634,32148,51781,0,0,0
14580,32090,51719,0,0,0
14535,32044,51671,0,0,0
14500,32007,51632,0,0,0
14476,31979,51599,0,0,0
14464,31963,51576,0,0,0
14462,31957,51562,0,0,0
14468,31954,51553,0,0,0
14478,31953,51552,0,0,0
14493,31957,51553,0,0,0
14510,31962,51553,0,0,0
14523,31963,51550,0,0,0
14534,31959,51549,0,0,0
14542,31952,51546,0,0,0
14540,31941,51537,0,0,0
14528,31924,51516,0,0,0
14507,31897,51484,0,0,0
14479,31860,51441,0,0,0
14440,31818,51385,0,0,0
14389,31770,51312,0,0,0
14329,31713,51225,0,0,0
14268,31650,51130,0,0,0
14206,31586,51032,0,0,0
14141,31524,50938,0,0,0
14074,31464,50849,0,0,0
14008,31407,50767,0,0,0
13945,31350,50690,0,0,0
13889,31296,50620,0,0,0
13841,31251,50559,0,0,0
13801,31215,50507,0,0,0
13771,31183,50459,0,0,0
13747,31156,50418,0,0,0
13727,31134,50386,0,0,0
13711,31118,50362,0,0,0
13697,31104,50345,0,0,0
13685,31092,50335,0,0,0
13677,31083,50334,0,0,0
13669,31076,50339,0,0,0
13664,31073,50344,0,0,0
13664,31070,50347,0,0,0
13667,31067,50351,0,0,0
13670,31063,50353,0,0,0
13665,31058,50349,0,0,0
13655,31050,50336,0,0,0
13645,31038,50317,0,0,0
13635,31022,50292,0,0,0
13622,31003,50264,0,0,0
13606,30983,50229,0,0,0
13585,30965,50188,0,0,0
13558,30942,50138,0,0,0
13524,30908,50079,0,0,0
13481,30861,50013,0,0,0
13433,30806,49939,0,0,0
13381,30748,49859,0,0,0
13324,30691,49777,0,0,0
13263,30636,49695,0,0,0
13199,30579,49609,0,0,0
13129,30519,49516,0,0,0
13057,30457,49418,0,0,0
12992,30397,49322,0,0,0
12934,30333,49228,0,0,0
12875,30266,49133,0,0,0
12809,30197,49035,0,0,0
12738,30128,48935,0,0,0
12669,30060,48833,0,0,0
12602,29995,48734,0,0,0
12538,29928,48637,0,0,0
12478,29863,48546,0,0,0
12423,29797,48456,0,0,0
12364,29730,48364,0,0,0
12302,29669,48270,0,0,0
12238,29613,48176,0,0,0
12171,29556,48082,0,0,0
12105,29496,47987,0,0,0
12043,29434,47892,0,0,0
11982,29369,47801,0,0,0
11919,29302,47710,0,0,0
11852,29237,47616,0,0,0
11784,29178,47526,0,0,0
11721,29127,47446,0,0,0
11663,29079,47370,0,0,0
11611,29029,47294,0,0,0
11564,28981,47221,0,0,0
11522,28937,47153,0,0,0
11479,28893,47090,0,0,0
11439,28853,47028,0,0,0
11402,28819,46965,0,0,0
11366,28786,46902,0,0,0
11328,28747,46841,0,0,0
11290,28707,46780,0,0,0
11253,28667,46717,0,0,0
11216,28630,46651,0,0,0
11174,28591,46581,0,0,0
11124,28544,46505,0,0,0
11073,28490,46427,0,0,0
11025,28436,46352,0,0,0
10976,28382,46278,0,0,0
10923,28328,46200,0,0,0
10869,28275,46117,0,0,0
10814,28223,46034,0,0,0
10757,28167,45950,0,0,0
10697,28107,45863,0,0,0
10637,28044,45776,0,0,0
10577,27982,45687,0,0,0
10512,27918,45593,0,0,0
10446,27852,45497,0,0,0
10384,27789,45406,0,0,0
10333,27738,45325,0,0,0
10290,27699,45260,0,0,0
10258,27672,45214,0,0,0
10251,27668,45205,0,0,0
10288,27706,45253,0,0,0
10380,27800,45380,0,0,0
10536,27958,45603,0,0,0
10763,28181,45930,0,0,0
11055,28465,46352,0,0,0
11398,28798,46850,0,0,0
11776,29170,47404,0,0,0
12178,29566,47993,0,0,0
12594,29975,48597,0,0,0
13008,30380,49200,0,0,0
13408,30768,49780,0,0,0
13786,31132,50322,0,0,0
14132,31463,50813,0,0,0
14438,31753,51244,0,0,0
14701,32000,51612,0,0,0
14924,32206,51921,0,0,0
15108,32370,52169,0,0,0
15251,32493,52359,0,0,0
15353,32576,52496,0,0,0
15419,32625,52586,0,0,0
15454,32646,52633,0,0,0
15464,32645,52646,0,0,0
15453,32626,52630,0,0,0
15426,32592,52591,0,0,0
15390,32546,52531,0,0,0
15348,32492,52457,0,0,0
15303,32438,52378,0,0,0
15257,32385,52298,0,0,0
15212,32329,52220,0,0,0
15167,32275,52146,0,0,0
15127,32227,52083,0,0,0
15092,32185,52032,0,0,0
15059,32149,51992,0,0,0
15029,32125,51961,0,0,0
15004,32110,51936,0,0,0
14987,32098,51917,0,0,0
14979,32092,51906,0,0,0
14981,32090,51904,0,0,0
14993,32095,51912,0,0,0
15010,32104,51928,0,0,0
15026,32113,51946,0,0,0
15039,32121,51961,0,0,0
15050,32125,51967,0,0,0
15052,32123,51961,0,0,0
15042,32109,51940,0,0,0
15020,32082,51903,0,0,0
14990,32048,51857,0,0,0
14952,32009,51805,0,0,0
14902,31959,51742,0,0,0
14841,31901,51671,0,0,0
14774,31840,51592,0,0,0
14709,31784,51505,0,0,0
14650,31732,51414,0,0,0
14594,31680,51325,0,0,0
14546,31628,51242,0,0,0
14505,31577,51163,0,0,0
14465,31528,51092,0,0,0
14426,31481,51030,0,0,0
14393,31444,50978,0,0,0
14366,31415,50938,0,0,0
14340,31391,50906,0,0,0
14319,31372,50882,0,0,0
14302,31358,50864,0,0,0
14287,31344,50847,0,0,0
14272,31331,50832,0,0,0
14258,31321,50821,0,0,0
14249,31318,50817,0,0,0
14244,31321,50817,0,0,0
14242,31324,50814,0,0,0
14241,31327,50809,0,0,0
14242,31330,50806,0,0,0
14243,31332,50802,0,0,0
14243,31329,50793,0,0,0
14244,31321,50780,0,0,0
14244,31307,50763,0,0,0
14236,31287,50737,0,0,0
14217,31260,50701,0,0,0
14189,31229,50657,0,0,0
14153,31193,50603,0,0,0
14111,31151,50541,0,0,0
14059,31101,50471,0,0,0
14001,31046,50394,0,0,0
13940,30989,50314,0,0,0
13876,30926,50231,0,0,0
13808,30859,50146,0,0,0
13741,30795,50061,0,0,0
13679,30737,49975,0,0,0
13625,30684,49888,0,0,0
13577,30633,49804,0,0,0
13531,30586,49723,0,0,0
13484,30542,49644,0,0,0
13432,30494,49564,0,0,0
13375,30436,49484,0,0,0
13315,30370,49401,0,0,0
13256,30304,49313,0,0,0
13191,30238,49220,0,0,0
13118,30168,49123,0,0,0
13042,30096,49018,0,0,0
12966,30023,48908,0,0,0
12889,29949,48799,0,0,0
12815,29874,48695,0,0,0
12744,29800,48597,0,0,0
12678,29731,48501,0,0,0
12616,29669,48403,0,0,0
12557,29613,48306,0,0,0
12505,29561,48216,0,0,0
12457,29511,48133,0,0,0
12407,29458,48051,0,0,0
12351,29402,47970,0,0,0
12294,29347,47893,0,0,0
12237,29296,47819,0,0,0
12180,29246,47745,0,0,0
12125,29200,47673,0,0,0
12076,29157,47606,0,0,0
12030,29118,47542,0,0,0
11990,29078,47480,0,0,0
11954,29037,47423,0,0,0
11922,29001,47371,0,0,0
11890,28967,47323,0,0,0
11860,28932,47278,0,0,0
11834,28900,47236,0,0,0
11807,28871,47189,0,0,0
11776,28841,47134,0,0,0
11744,28809,47075,0,0,0
11713,28776,47015,0,0,0
11683,28743,46956,0,0,0
11648,28708,46893,0,0,0
11603,28666,46824,0,0,0
11554,28614,46747,0,0,0
11503,28556,46664,0,0,0
11448,28495,46575,0,0,0
11389,28434,46485,0,0,0
11333,28375,46396,0,0,0
11276,28317,46307,0,0,0
11219,28260,46219,0,0,0
11166,28204,46133,0,0,0
11123,28156,46051,0,0,0
11084,28111,45974,0,0,0
11044,28066,45897,0,0,0
11000,28019,45817,0,0,0
10953,27970,45737,0,0,0
10903,27919,45657,0,0,0
10847,27865,45578,0,0,0
10791,27814,45509,0,0,0
10750,27783,45468,0,0,0
10745,27787,45479,0,0,0
10788,27835,45562,0,0,0
10889,27939,45732,0,0,0
11057,28112,46001,0,0,0
11295,28358,46372,0,0,0
11597,28664,46831,0,0,0
11952,29018,47359,0,0,0
12349,29409,47937,0,0,0
12768,29821,48546,0,0,0
13195,30236,49161,0,0,0
13617,30642,49763,0,0,0
14019,31029,50340,0,0,0
14390,31387,50872,0,0,0
14717,31701,51341,0,0,0
14994,31969,51742,0,0,0
15223,32190,52078,0,0,0
15406,32363,52346,0,0,0
15543,32488,52544,0,0,0
15637,32568,52679,0,0,0
15693,32610,52760,0,0,0
15714,32619,52793,0,0,0
15705,32601,52785,0,0,0
15674,32566,52746,0,0,0
15631,32521,52686,0,0,0
15585,32468,52610,0,0,0
15538,32410,52526,0,0,0
15489,32349,52439,0,0,0
15438,32290,52355,0,0,0
15385,32234,52274,0,0,0
15336,32185,52197,0,0,0
15291,32142,52125,0,0,0
15248,32102,52061,0,0,0
15206,32066,52007,0,0,0
15173,32037,51962,0,0,0
15154,32017,51932,0,0,0
15146,32006,51917,0,0,0
15143,31998,51910,0,0,0
15140,31991,51906,0,0,0
15137,31990,51901,0,0,0
15136,31988,51894,0,0,0
15136,31980,51886,0,0,0
15136,31972,51879,0,0,0
15139,31965,51873,0,0,0
15134,31954,51863,0,0,0
15118,31934,51839,0,0,0
15095,31908,51802,0,0,0
15066,31878,51759,0,0,0
15028,31841,51709,0,0,0
14984,31796,51650,0,0,0
14937,31746,51581,0,0,0
14890,31693,51508,0,0,0
14840,31637,51431,0,0,0
14787,31580,51351,0,0,0
14727,31521,51267,0,0,0
14667,31462,51187,0,0,0
14609,31407,51113,0,0,0
14551,31357,51042,0,0,0
14495,31310,50975,0,0,0
14447,31267,50916,0,0,0
14407,31232,50864,0,0,0
14376,31206,50823,0,0,0
14356,31186,50790,0,0,0
14342,31172,50763,0,0,0
14332,31160,50739,0,0,0
14327,31149,50718,0,0,0
14325,31141,50703,0,0,0
14326,31135,50693,0,0,0
14322,31127,50683,0,0,0
14313,31116,50672,0,0,0
14303,31102,50661,0,0,0
14293,31089,50652,0,0,0
14280,31076,50642,0,0,0
14265,31060,50628,0,0,0
14251,31043,50611,0,0,0
14238,31025,50590,0,0,0
14223,31006,50563,0,0,0
14205,30987,50534,0,0,0
14184,30968,50504,0,0,0
14161,30948,50473,0,0,0
14132,30922,50434,0,0,0
14094,30888,50383,0,0,0
14048,30847,50322,0,0,0
13996,30799,50251,0,0,0
13940,30744,50174,0,0,0
13879,30682,50092,0,0,0
13813,30618,50005,0,0,0
13741,30551,49910,0,0,0
13664,30473,49808,0,0,0
13585,30386,49702,0,0,0
13509,30304,49596,0,0,0
13435,30230,49492,0,0,0
13367,30161,49389,0,0,0
13305,30098,49289,0,0,0
13245,30041,49195,0,0,0
13182,29984,49101,0,0,0
13114,29922,49005,0,0,0
13039,29854,48906,0,0,0
12961,29787,48803,0,0,0
12882,29717,48697,0,0,0
12802,29644,48587,0,0,0
12722,29570,48473,0,0,0
12643,29499,48361,0,0,0
12566,29428,48249,0,0,0
12493,29354,48138,0,0,0
12424,29277,48028,0,0,0
12354,29203,47924,0,0,0
12281,29135,47825,0,0,0
12207,29070,47725,0,0,0
12132,29003,47626,0,0,0
12060,28935,47531,0,0,0
11992,28871,47441,0,0,0
11930,28810,47355,0,0,0
11874,28758,47276,0,0,0
11825,28711,47204,0,0,0
11782,28667,47132,0,0,0
11739,28622,47059,0,0,0
11693,28574,46986,0,0,0
11639,28524,46910,0,0,0
11576,28469,46826,0,0,0
11507,28408,46733,0,0,0
11436,28342,46637,0,0,0
11362,28270,46534,0,0,0
11284,28191,46426,0,0,0
11201,28109,46314,0,0,0
11114,28029,46198,0,0,0
11028,27952,46082,0,0,0
10945,27876,45970,0,0,0
10863,27801,45863,0,0,0
10785,27730,45756,0,0,0
10712,27663,45651,0,0,0
10638,27596,45544,0,0,0
10560,27530,45434,0,0,0
10482,27465,45324,0,0,0
10409,27401,45214,0,0,0
10340,27337,45109,0,0,0
10274,27276,45009,0,0,0
10213,27220,44917,0,0,0
10160,27169,44834,0,0,0
10121,27129,44775,0,0,0
10109,27112,44760,0,0,0
10138,27139,44815,0,0,0
10224,27225,44958,0,0,0
10377,27382,45204,0,0,0
10601,27613,45561,0,0,0
10896,27916,46020,0,0,0
11253,28279,46565,0,0,0
11657,28687,47167,0,0,0
12092,29124,47802,0,0,0
12542,29571,48450,0,0,0
12988,30009,49090,0,0,0
13414,30426,49700,0,0,0
13807,30811,50267,0,0,0
14158,31157,50776,0,0,0
14461,31455,51217,0,0,0
14718,31697,51586,0,0,0
14926,31887,51887,0,0,0
15084,32029,52119,0,0,0
15194,32128,52285,0,0,0
15265,32189,52391,0,0,0
15304,32216,52448,0,0,0
15314,32216,52464,0,0,0
15297,32193,52446,0,0,0
15260,32153,52400,0,0,0
15211,32103,52332,0,0,0
15153,32044,52248,0,0,0
15087,31974,52151,0,0,0
15016,31898,52049,0,0,0
14943,31825,51949,0,0,0
14868,31756,51851,0,0,0
14794,31688,51753,0,0,0
14725,31625,51663,0,0,0
14666,31570,51584,0,0,0
14617,31524,51518,0,0,0
14576,31485,51462,0,0,0
14545,31456,51417,0,0,0
14528,31439,51385,0,0,0
14523,31431,51364,0,0,0
14526,31427,51353,0,0,0
14536,31429,51348,0,0,0
14550,31434,51349,0,0,0
14563,31438,51350,0,0,0
14569,31434,51347,0,0,0
14567,31420,51338,0,0,0
14558,31398,51318,0,0,0
14538,31370,51284,0,0,0
14508,31337,51239,0,0,0
14468,31299,51185,0,0,0
14419,31251,51119,0,0,0
14357,31193,51039,0,0,0
14284,31128,50950,0,0,0
14204,31058,50856,0,0,0
14127,30990,50761,0,0,0
14057,30925,50668,0,0,0
13997,30867,50584,0,0,0
13944,30820,50512,0,0,0
13900,30782,50451,0,0,0
13865,30751,50397,0,0,0
13840,30726,50349,0,0,0
13823,30706,50314,0,0,0
13815,30692,50290,0,0,0
13813,30682,50272,0,0,0
13817,30679,50263,0,0,0
13827,30685,50266,0,0,0
13840,30700,50275,0,0,0
13853,30717,50285,0,0,0
13865,30732,50296,0,0,0
13878,30742,50308,0,0,0
13889,30748,50318,0,0,0
13893,30749,50321,0,0,0
13883,30744,50314,0,0,0
13865,30737,50302,0,0,0
13846,30731,50286,0,0,0
13828,30723,50269,0,0,0
13810,30709,50248,0,0,0
13790,30689,50221,0,0,0
13766,30661,50186,0,0,0
13733,30624,50141,0,0,0
13694,30578,50087,0,0,0
13651,30529,50026,0,0,0
13603,30473,49957,0,0,0
13550,30409,49878,0,0,0
13488,30338,49789,0,0,0
13416,30263,49688,0,0,0
13334,30187,49576,0,0,0
13247,30107,49456,0,0,0
13161,30028,49333,0,0,0
13078,29951,49212,0,0,0
12996,29875,49092,0,0,0
12913,29798,48968,0,0,0
12831,29721,48844,0,0,0
12754,29645,48722,0,0,0
12680,29565,48603,0,0,0
12603,29481,48483,0,0,0
12520,29395,48360,0,0,0
12434,29311,48238,0,0,0
12347,29230,48116,0,0,0
12259,29150,47994,0,0,0
12174,29072,47872,0,0,0
12093,28993,47754,0,0,0
12013,28912,47639,0,0,0
11937,28832,47529,0,0,0
11866,28757,47424,0,0,0
11798,28686,47321,0,0,0
11728,28615,47214,0,0,0
11653,28544,47104,0,0,0
11576,28479,46998,0,0,0
11502,28419,46898,0,0,0
11433,28363,46804,0,0,0
11372,28309,46716,0,0,0
11321,28259,46638,0,0,0
11271,28211,46568,0,0,0
11221,28158,46495,0,0,0
11170,28104,46416,0,0,0
11119,28053,46336,0,0,0
11069,28004,46259,0,0,0
11020,27954,46180,0,0,0
10967,27898,46099,0,0,0
10911,27839,46015,0,0,0
10853,27777,45924,0,0,0
10795,27714,45824,0,0,0
10735,27652,45723,0,0,0
10675,27591,45623,0,0,0
10613,27527,45526,0,0,0
10553,27462,45429,0,0,0
10493,27397,45331,0,0,0
10435,27336,45233,0,0,0
10377,27278,45137,0,0,0
10319,27222,45042,0,0,0
10261,27166,44947,0,0,0
10202,27110,44853,0,0,0
10146,27056,44762,0,0,0
10093,27005,44680,0,0,0
10043,26955,44610,0,0,0
9999,26914,44555,0,0,0
9974,26889,44522,0,0,0
9979,26892,44533,0,0,0
10023,26938,44609,0,0,0
10117,27042,44774,0,0,0
10279,27214,45043,0,0,0
10521,27464,45420,0,0,0
10840,27788,45899,0,0,0
11218,28173,46462,0,0,0
11642,28599,47085,0,0,0
12092,29047,47741,0,0,0
12551,29501,48407,0,0,0
13004,29948,49061,0,0,0
13440,30377,49688,0,0,0
13848,30778,50272,0,0,0
14221,31142,50799,0,0,0
14553,31462,51260,0,0,0
14838,31730,51649,0,0,0
15073,31943,51965,0,0,0
15260,32107,52216,0,0,0
15399,32225,52406,0,0,0
15490,32299,52536,0,0,0
15541,32334,52609,0,0,0
15560,32342,52636,0,0,0
15555,32329,52627,0,0,0
15531,32296,52592,0,0,0
15498,32247,52534,0,0,0
15458,32186,52457,0,0,0
15410,32118,52368,0,0,0
15354,32049,52275,0,0,0
15298,31983,52181,0,0,0
15246,31924,52092,0,0,0
15200,31873,52008,0,0,0
15165,31830,51934,0,0,0
15140,31797,51876,0,0,0
15126,31775,51835,0,0,0
15117,31760,51804,0,0,0
15109,31751,51779,0,0,0
15101,31746,51762,0,0,0
15097,31743,51755,0,0,0
15096,31737,51751,0,0,0
15092,31730,51749,0,0,0
15087,31723,51748,0,0,0
15085,31717,51746,0,0,0
15083,31710,51740,0,0,0
15079,31701,51728,0,0,0
15071,31690,51711,0,0,0
15057,31674,51688,0,0,0
15031,31649,51654,0,0,0
14995,31615,51610,0,0,0
14951,31574,51556,0,0,0
14901,31527,51494,0,0,0
14846,31471,51421,0,0,0
14788,31409,51341,0,0,0
14730,31347,51256,0,0,0
14673,31285,51170,0,0,0
14617,31221,51086,0,0,0
14561,31157,51002,0,0,0
14508,31099,50922,0,0,0
14460,31049,50855,0,0,0
14419,31009,50802,0,0,0
14388,30979,50760,0,0,0
14365,30959,50725,0,0,0
14347,30944,50693,0,0,0
14332,30930,50664,0,0,0
14323,30918,50645,0,0,0
14319,30909,50634,0,0,0
14317,30904,50627,0,0,0
14316,30900,50619,0,0,0
14313,30898,50613,0,0,0
14313,30900,50613,0,0,0
14317,30903,50615,0,0,0
14320,30899,50612,0,0,0
14321,30892,50604,0,0,0
14320,30885,50590,0,0,0
14315,30875,50570,0,0,0
14304,30858,50545,0,0,0
14292,30842,50516,0,0,0
14277,30828,50484,0,0,0
14257,30812,50446,0,0,0
14235,30791,50404,0,0,0
14209,30763,50357,0,0,0
14177,30727,50305,0,0,0
14141,30684,50244,0,0,0
14099,30634,50174,0,0,0
14055,30585,50100,0,0,0
14011,30542,50028,0,0,0
13963,30499,49953,0,0,0
13910,30450,49870,0,0,0
13856,30395,49782,0,0,0
13800,30334,49690,0,0,0
13740,30267,49594,0,0,0
13676,30197,49498,0,0,0
13612,30127,49404,0,0,0
13547,30057,49307,0,0,0
13474,29982,49205,0,0,0
13398,29905,49097,0,0,0
13325,29828,48989,0,0,0
13255,29756,48881,0,0,0
13190,29685,48774,0,0,0
13130,29616,48669,0,0,0
13072,29553,48569,0,0,0
13016,29495,48475,0,0,0
12957,29441,48384,0,0,0
12898,29390,48296,0,0,0
12841,29340,48213,0,0,0
12785,29289,48132,0,0,0
12729,29237,48050,0,0,0
12675,29184,47969,0,0,0
12623,29130,47888,0,0,0
12570,29073,47806,0,0,0
12514,29014,47721,0,0,0
12458,28954,47634,0,0,0
12405,28895,47547,0,0,0
12351,28837,47461,0,0,0
12296,28779,47377,0,0,0
12242,28723,47293,0,0,0
12190,28670,47214,0,0,0
12136,28616,47137,0,0,0
12078,28562,47058,0,0,0
12020,28510,46977,0,0,0
11966,28460,46894,0,0,0
11909,28407,46806,0,0,0
11848,28347,46708,0,0,0
11784,28282,46604,0,0,0
11720,28216,46499,0,0,0
11654,28145,46393,0,0,0
11587,28068,46285,0,0,0
11516,27991,46175,0,0,0
11449,27917,46070,0,0,0
11386,27846,45971,0,0,0
11327,27777,45875,0,0,0
11269,27710,45783,0,0,0
11214,27650,45697,0,0,0
11164,27602,45624,0,0,0
11124,27566,45569,0,0,0
11106,27551,45548,0,0,0
11124,27574,45580,0,0,0
11191,27645,45687,0,0,0
11316,27775,45888,0,0,0
11509,27971,46194,0,0,0
11770,28234,46596,0,0,0
12090,28556,47076,0,0,0
12457,28922,47615,0,0,0
12855,29317,48196,0,0,0
13271,29730,48802,0,0,0
13689,30149,49410,0,0,0
14098,30555,49998,0,0,0
14482,30937,50551,0,0,0
14831,31282,51057,0,0,0
15139,31583,51503,0,0,0
15405,31836,51884,0,0,0
15630,32042,52199,0,0,0
15811,32202,52449,0,0,0
15949,32321,52631,0,0,0
16046,32405,52757,0,0,0
16109,32460,52839,0,0,0
16141,32486,52883,0,0,0
16145,32482,52890,0,0,0
16125,32453,52864,0,0,0
16085,32405,52811,0,0,0
16029,32341,52735,0,0,0
15965,32269,52644,0,0,0
15905,32201,52548,0,0,0
15852,32139,52454,0,0,0
15805,32083,52368,0,0,0
15764,32036,52292,0,0,0
15729,31995,52228,0,0,0
15700,31960,52175,0,0,0
15676,31929,52129,0,0,0
15660,31908,52094,0,0,0
15650,31900,52069,0,0,0
15648,31897,52054,0,0,0
15654,31895,52049,0,0,0
15666,31896,52055,0,0,0
15680,31900,52069,0,0,0
15689,31906,52084,0,0,0
15691,31910,52095,0,0,0
15690,31912,52098,0,0,0
15683,31908,52096,0,0,0
15667,31894,52084,0,0,0
15643,31870,52058,0,0,0
15613,31838,52019,0,0,0
15576,31799,51968,0,0,0
15534,31755,51908,0,0,0
15488,31707,51845,0,0,0
15441,31658,51775,0,0,0
15393,31608,51698,0,0,0
15339,31556,51615,0,0,0
15283,31503,51529,0,0,0
15231,31452,51444,0,0,0
15187,31402,51363,0,0,0
15148,31356,51288,0,0,0
15111,31312,51219,0,0,0
15076,31274,51159,0,0,0
15043,31240,51105,0,0,0
15012,31208,51053,0,0,0
14984,31175,51007,0,0,0
14960,31147,50971,0,0,0
14941,31124,50947,0,0,0
14929,31107,50932,0,0,0
14926,31098,50923,0,0,0
14933,31099,50921,0,0,0
14951,31111,50931,0,0,0
14974,31127,50949,0,0,0
14997,31144,50970,0,0,0
15018,31157,50989,0,0,0
15032,31166,51000,0,0,0
15036,31167,50998,0,0,0
15032,31157,50981,0,0,0
15021,31140,50956,0,0,0
15007,31119,50928,0,0,0
14986,31094,50894,0,0,0
14953,31060,50852,0,0,0
14912,31021,50803,0,0,0
14866,30980,50749,0,0,0
14814,30936,50688,0,0,0
14762,30889,50622,0,0,0
14711,30845,50554,0,0,0
14659,30801,50483,0,0,0
14602,30752,50404,0,0,0
14543,30697,50320,0,0,0
14488,30638,50235,0,0,0
14435,30576,50144,0,0,0
14380,30510,50047,0,0,0
14323,30441,49949,0,0,0
14262,30371,49849,0,0,0
14194,30300,49746,0,0,0
14119,30230,49635,0,0,0
14041,30160,49520,0,0,0
13959,30087,49401,0,0,0
13874,30011,49283,0,0,0
13787,29931,49166,0,0,0
13701,29848,49048,0,0,0
13617,29763,48930,0,0,0
13536,29678,48809,0,0,0
13457,29594,48688,0,0,0
13381,29515,48572,0,0,0
13309,29441,48462,0,0,0
13236,29368,48355,0,0,0
13160,29294,48251,0,0,0
13085,29222,48148,0,0,0
13014,29154,48048,0,0,0
12947,29087,47950,0,0,0
12880,29020,47849,0,0,0
12813,28954,47747,0,0,0
12742,28887,47643,0,0,0
12670,28817,47536,0,0,0
12596,28746,47429,0,0,0
12521,28674,47323,0,0,0
12447,28603,47220,0,0,0
12376,28536,47125,0,0,0
12308,28474,47034,0,0,0
12243,28416,46947,0,0,0
12181,28361,46861,0,0,0
12120,28306,46774,0,0,0
12063,28248,46685,0,0,0
12008,28186,46594,0,0,0
11951,28123,46501,0,0,0
11891,28063,46405,0,0,0
11829,28004,46308,0,0,0
11766,27944,46211,0,0,0
11700,27881,46115,0,0,0
11627,27812,46012,0,0,0
11547,27740,45902,0,0,0
11463,27667,45788,0,0,0
11375,27592,45675,0,0,0
11285,27515,45561,0,0,0
11200,27440,45447,0,0,0
11121,27371,45332,0,0,0
11046,27303,45221,0,0,0
10973,27231,45116,0,0,0
10906,27166,45021,0,0,0
10855,27118,44948,0,0,0
10829,27092,44910,0,0,0
10840,27101,44928,0,0,0
10900,27166,45030,0,0,0
11024,27296,45233,0,0,0
11225,27500,45547,0,0,0
11501,27778,45967,0,0,0
11839,28119,46476,0,0,0
12225,28506,47051,0,0,0
12642,28926,47669,0,0,0
13074,29363,48310,0,0,0
13509,29801,48955,0,0,0
13937,30228,49587,0,0,0
14344,30628,50181,0,0,0
14715,30990,50723,0,0,0
15044,31305,51205,0,0,0
15327,31574,51620,0,0,0
15564,31797,51961,0,0,0
15757,31973,52229,0,0,0
15908,32108,52430,0,0,0
16019,32204,52571,0,0,0
16088,32259,52657,0,0,0
16116,32279,52692,0,0,0
16115,32273,52685,0,0,0
16092,32249,52648,0,0,0
16055,32209,52588,0,0,0
16005,32155,52514,0,0,0
15949,32091,52430,0,0,0
15892,32023,52341,0,0,0
15835,31953,52248,0,0,0
15778,31882,52156,0,0,0
15723,31817,52069,0,0,0
15677,31759,51993,0,0,0
15637,31708,51925,0,0,0
15602,31667,51864,0,0,0
15572,31636,51813,0,0,0
15546,31610,51777,0,0,0
15528,31590,51757,0,0,0
15520,31576,51750,0,0,0
15518,31572,51751,0,0,0
15520,31575,51756,0,0,0
15521,31578,51758,0,0,0
15515,31578,51757,0,0,0
15507,31575,51753,0,0,0
15499,31568,51745,0,0,0
15485,31553,51730,0,0,0
15465,31531,51705,0,0,0
15436,31504,51668,0,0,0
15397,31469,51619,0,0,0
15349,31425,51559,0,0,0
15298,31377,51492,0,0,0
15247,31327,51422,0,0,0
15192,31269,51346,0,0,0
15133,31207,51264,0,0,0
15075,31145,51181,0,0,0
15020,31089,51098,0,0,0
14970,31038,51017,0,0,0
14927,30992,50942,0,0,0
14892,30951,50873,0,0,0
14861,30914,50811,0,0,0
14835,30884,50759,0,0,0
14815,30858,50716,0,0,0
14801,30838,50683,0,0,0
14790,30825,50660,0,0,0
14779,30819,50645,0,0,0
14771,30817,50634,0,0,0
14768,30813,50622,0,0,0
14771,30805,50612,0,0,0
14776,30796,50606,0,0,0
14780,30787,50602,0,0,0
14784,30781,50602,0,0,0
14782,30777,50600,0,0,0
14776,30770,50593,0,0,0
14766,30759,50580,0,0,0
14754,30744,50566,0,0,0
14735,30727,50550,0,0,0
14710,30709,50529,0,0,0
14682,30688,50499,0,0,0
14655,30668,50463,0,0,0
14627,30647,50424,0,0,0
14593,30622,50380,0,0,0
14553,30589,50329,0,0,0
14511,30548,50267,0,0,0
14465,30498,50194,0,0,0
14412,30439,50113,0,0,0
14355,30376,50025,0,0,0
14295,30315,49931,0,0,0
14233,30255,49831,0,0,0
14166,30192,49728,0,0,0
14098,30126,49622,0,0,0
14032,30060,49517,0,0,0
13966,29996,49415,0,0,0
13899,29933,49316,0,0,0
13834,29871,49217,0,0,0
13770,29809,49119,0,0,0
13703,29743,49020,0,0,0
13634,29671,48921,0,0,0
13568,29599,48825,0,0,0
13506,29528,48729,0,0,0
13442,29458,48626,0,0,0
13376,29388,48522,0,0,0
13311,29318,48420,0,0,0
13245,29246,48323,0,0,0
13177,29177,48228,0,0,0
13109,29114,48139,0,0,0
13046,29057,48057,0,0,0
12986,29004,47979,0,0,0
12930,28956,47905,0,0,0
12878,28914,47831,0,0,0
12833,28873,47757,0,0,0
12792,28831,47683,0,0,0
12751,28786,47608,0,0,0
12707,28738,47530,0,0,0
12662,28689,47451,0,0,0
12616,28638,47370,0,0,0
12564,28585,47286,0,0,0
12502,28526,47196,0,0,0
12434,28465,47102,0,0,0
12363,28399,47004,0,0,0
12290,28326,46903,0,0,0
12215,28249,46799,0,0,0
12139,28174,46693,0,0,0
12062,28103,46584,0,0,0
11983,28028,46471,0,0,0
11905,27950,46359,0,0,0
11828,27874,46254,0,0,0
11752,27805,46154,0,0,0
11678,27740,46054,0,0,0
11611,27679,45957,0,0,0
11550,27624,45867,0,0,0
11493,27575,45783,0,0,0
11440,27530,45708,0,0,0
11396,27492,45647,0,0,0
11365,27469,45608,0,0,0
11355,27465,45598,0,0,0
11381,27491,45634,0,0,0
11457,27566,45740,0,0,0
11590,27700,45933,0,0,0
11782,27895,46218,0,0,0
12034,28151,46598,0,0,0
12342,28462,47061,0,0,0
12696,28816,47589,0,0,0
13080,29200,48156,0,0,0
13481,29603,48742,0,0,0
13891,30013,49336,0,0,0
14299,30415,49924,0,0,0
14688,30795,50484,0,0,0
15047,31142,50998,0,0,0
15367,31449,51451,0,0,0
15643,31713,51840,0,0,0
15875,31928,52166,0,0,0
16062,32098,52426,0,0,0
16209,32226,52625,0,0,0
16320,32317,52765,0,0,0
16397,32371,52853,0,0,0
16439,32390,52894,0,0,0
16449,32382,52899,0,0,0
16434,32355,52873,0,0,0
16397,32313,52822,0,0,0
16345,32258,52751,0,0,0
16288,32193,52671,0,0,0
16229,32124,52588,0,0,0
16168,32049,52498,0,0,0
16103,31975,52404,0,0,0
16040,31907,52314,0,0,0
15983,31848,52232,0,0,0
15937,31799,52159,0,0,0
15902,31763,52100,0,0,0
15876,31738,52057,0,0,0
15860,31723,52032,0,0,0
15855,31716,52022,0,0,0
15860,31718,52024,0,0,0
15870,31728,52038,0,0,0
15884,31743,52059,0,0,0
15901,31758,52081,0,0,0
15924,31774,52100,0,0,0
15952,31789,52118,0,0,0
15977,31802,52132,0,0,0
15993,31809,52138,0,0,0
15997,31809,52135,0,0,0
15991,31800,52121,0,0,0
15976,31781,52091,0,0,0
15950,31749,52045,0,0,0
15916,31712,51986,0,0,0
15879,31670,51917,0,0,0
15837,31625,51838,0,0,0
15793,31578,51758,0,0,0
15745,31531,51684,0,0,0
15698,31486,51616,0,0,0
15655,31443,51553,0,0,0
15619,31403,51497,0,0,0
15590,31368,51450,0,0,0
15566,31339,51412,0,0,0
15547,31316,51385,0,0,0
15533,31298,51366,0,0,0
15524,31287,51351,0,0,0
15519,31281,51339,0,0,0
15516,31276,51327,0,0,0
15514,31269,51315,0,0,0
15513,31259,51306,0,0,0
15516,31251,51304,0,0,0
15520,31249,51307,0,0,0
15520,31249,51308,0,0,0
15516,31250,51307,0,0,0
15511,31250,51301,0,0,0
15506,31244,51289,0,0,0
15497,31233,51272,0,0,0
15481,31217,51252,0,0,0
15462,31196,51227,0,0,0
15438,31172,51194,0,0,0
15409,31145,51152,0,0,0
15376,31115,51104,0,0,0
15341,31085,51051,0,0,0
15304,31054,50995,0,0,0
15263,31019,50940,0,0,0
15217,30977,50883,0,0,0
15166,30924,50818,0,0,0
15110,30865,50743,0,0,0
15049,30803,50662,0,0,0
14985,30739,50573,0,0,0
14916,30671,50476,0,0,0
14841,30595,50372,0,0,0
14760,30516,50262,0,0,0
14672,30434,50149,0,0,0
14578,30349,50032,0,0,0
14486,30265,49912,0,0,0
14403,30185,49797,0,0,0
14326,30111,49690,0,0,0
14252,30040,49587,0,0,0
14183,29973,49488,0,0,0
14121,29911,49391,0,0,0
14061,29849,49296,0,0,0
13998,29786,49198,0,0,0
13938,29727,49101,0,0,0
13882,29671,49011,0,0,0
13824,29616,48923,0,0,0
13764,29557,48836,0,0,0
13702,29496,48749,0,0,0
13644,29438,48665,0,0,0
13590,29383,48583,0,0,0
13533,29325,48504,0,0,0
13470,29265,48423,0,0,0
13404,29202,48339,0,0,0
13338,29138,48252,0,0,0
13271,29075,48162,0,0,0
13204,29011,48066,0,0,0
13140,28943,47966,0,0,0
13079,28877,47867,0,0,0
13022,28815,47771,0,0,0
12966,28756,47674,0,0,0
12909,28694,47571,0,0,0
12851,28625,47463,0,0,0
12788,28551,47354,0,0,0
12717,28476,47248,0,0,0
12642,28402,47141,0,0,0
12569,28330,47033,0,0,0
12497,28263,46925,0,0,0
12427,28199,46821,0,0,0
12361,28137,46725,0,0,0
12300,28081,46638,0,0,0
12248,28030,46556,0,0,0
12202,27984,46483,0,0,0
12161,27946,46423,0,0,0
12134,27919,46386,0,0,0
12132,27914,46384,0,0,0
12167,27945,46435,0,0,0
12247,28027,46559,0,0,0
12383,28169,46767,0,0,0
12579,28374,47065,0,0,0
12833,28639,47453,0,0,0
13136,28953,47916,0,0,0
13476,29304,48433,0,0,0
13848,29681,48983,0,0,0
14242,30072,49552,0,0,0
14644,30461,50125,0,0,0
15041,30841,50684,0,0,0
15425,31207,51215,0,0,0
15783,31548,51704,0,0,0
16106,31849,52137,0,0,0
16381,32102,52504,0,0,0
16606,32308,52804,0,0,0
16785,32468,53041,0,0,0
16923,32585,53221,0,0,0
17022,32665,53349,0,0,0
17087,32712,53430,0,0,0
17123,32732,53468,0,0,0
17132,32728,53468,0,0,0
17120,32705,53441,0,0,0
17093,32669,53399,0,0,0
17056,32626,53345,0,0,0
17010,32578,53281,0,0,0
16963,32531,53210,0,0,0
16920,32486,53139,0,0,0
16881,32441,53073,0,0,0
16843,32397,53011,0,0,0
16806,32356,52956,0,0,0
16771,32318,52908,0,0,0
16741,32283,52868,0,0,0
16718,32251,52837,0,0,0
16701,32226,52813,0,0,0
16692,32212,52797,0,0,0
16692,32207,52784,0,0,0
16695,32207,52773,0,0,0
16699,32208,52767,0,0,0
16706,32213,52769,0,0,0
16714,32220,52776,0,0,0
16721,32225,52782,0,0,0
16724,32224,52783,0,0,0
16722,32217,52775,0,0,0
16712,32202,52756,0,0,0
16691,32178,52723,0,0,0
16660,32143,52677,0,0,0
16620,32099,52619,0,0,0
16571,32044,52553,0,0,0
16512,31983,52477,0,0,0
16448,31916,52392,0,0,0
16380,31845,52300,0,0,0
16309,31771,52204,0,0,0
16237,31693,52105,0,0,0
16167,31615,52007,0,0,0
16101,31543,51916,0,0,0
16040,31481,51833,0,0,0
15986,31428,51757,0,0,0
15940,31383,51691,0,0,0
15909,31350,51641,0,0,0
15888,31328,51604,0,0,0
15869,31313,51578,0,0,0
15854,31304,51559,0,0,0
15842,31297,51544,0,0,0
15832,31288,51530,0,0,0
15822,31277,51516,0,0,0
15809,31265,51502,0,0,0
15794,31253,51485,0,0,0
15777,31236,51467,0,0,0
15753,31216,51447,0,0,0
15727,31194,51423,0,0,0
15702,31171,51394,0,0,0
15680,31144,51358,0,0,0
15654,31112,51319,0,0,0
15624,31079,51279,0,0,0
15592,31046,51238,0,0,0
15560,31012,51195,0,0,0
15525,30976,51148,0,0,0
15486,30942,51098,0,0,0
15445,30905,51042,0,0,0
15397,30861,50978,0,0,0
15344,30813,50908,0,0,0
15288,30763,50831,0,0,0
15228,30708,50748,0,0,0
15158,30645,50659,0,0,0
15081,30579,50566,0,0,0
15003,30511,50470,0,0,0
14925,30439,50369,0,0,0
14843,30364,50265,0,0,0
14757,30291,50161,0,0,0
14671,30222,50056,0,0,0
14588,30156,49952,0,0,0
14508,30089,49849,0,0,0
14435,30023,49751,0,0,0
14368,29961,49658,0,0,0
14304,29897,49567,0,0,0
14240,29833,49476,0,0,0
14178,29772,49388,0,0,0
14118,29718,49305,0,0,0
14062,29669,49226,0,0,0
14009,29621,49148,0,0,0
13961,29573,49073,0,0,0
13919,29532,49000,0,0,0
13878,29494,48926,0,0,0
13835,29451,48851,0,0,0
13796,29403,48778,0,0,0
13759,29357,48711,0,0,0
13719,29311,48646,0,0,0
13674,29263,48575,0,0,0
13626,29216,48499,0,0,0
13581,29173,48424,0,0,0
13536,29132,48354,0,0,0
13488,29086,48285,0,0,0
13439,29035,48217,0,0,0
13389,28982,48149,0,0,0
13337,28931,48082,0,0,0
13284,28880,48012,0,0,0
13232,28828,47939,0,0,0
13186,28777,47867,0,0,0
13146,28730,47797,0,0,0
13109,28683,47725,0,0,0
13072,28639,47650,0,0,0
13036,28599,47577,0,0,0
12999,28560,47506,0,0,0
12958,28520,47434,0,0,0
12914,28481,47362,0,0,0
12874,28447,47297,0,0,0
12840,28414,47240,0,0,0
12813,28383,47193,0,0,0
12796,28363,47162,0,0,0
12794,28361,47155,0,0,0
12813,28381,47185,0,0,0
12866,28435,47265,0,0,0
12962,28536,47413,0,0,0
13112,28692,47639,0,0,0
13320,28900,47944,0,0,0
13581,29156,48323,0,0,0
13886,29455,48763,0,0,0
14224,29786,49246,0,0,0
14585,30137,49758,0,0,0
14960,30497,50286,0,0,0
15335,30856,50816,0,0,0
15696,31203,51330,0,0,0
16032,31527,51808,0,0,0
16334,31818,52242,0,0,0
16600,32071,52626,0,0,0
16828,32283,52952,0,0,0
17014,32453,53217,0,0,0
17158,32583,53418,0,0,0
17267,32673,53562,0,0,0
17343,32731,53656,0,0,0
17384,32762,53707,0,0,0
17396,32771,53721,0,0,0
17392,32762,53708,0,0,0
17374,32736,53675,0,0,0
17342,32698,53623,0,0,0
17303,32653,53557,0,0,0
17263,32606,53483,0,0,0
17222,32558,53408,0,0,0
17179,32508,53333,0,0,0
17137,32461,53263,0,0,0
17097,32420,53203,0,0,0
17059,32383,53152,0,0,0
17026,32355,53112,0,0,0
17004,32336,53081,0,0,0
16992,32323,53059,0,0,0
16987,32312,53047,0,0,0
16984,32303,53040,0,0,0
16982,32298,53039,0,0,0
16985,32298,53044,0,0,0
16994,32297,53052,0,0,0
17006,32298,53059,0,0,0
17021,32305,53067,0,0,0
17041,32313,53073,0,0,0
17063,32319,53076,0,0,0
17080,32322,53073,0,0,0
17089,32325,53065,0,0,0
17086,32323,53043,0,0,0
17074,32308,53005,0,0,0
17060,32285,52956,0,0,0
17039,32253,52902,0,0,0
17010,32215,52843,0,0,0
16977,32175,52783,0,0,0
16948,32139,52722,0,0,0
16925,32110,52664,0,0,0
16906,32084,52607,0,0,0
16887,32057,52554,0,0,0
16866,32030,52504,0,0,0
16844,32005,52455,0,0,0
16825,31981,52409,0,0,0
16810,31960,52369,0,0,0
16803,31946,52339,0,0,0
16802,31938,52318,0,0,0
16803,31931,52302,0,0,0
16804,31924,52290,0,0,0
16807,31919,52283,0,0,0
16813,31918,52280,0,0,0
16817,31917,52280,0,0,0
16817,31914,52280,0,0,0
16812,31909,52274,0,0,0
16801,31895,52262,0,0,0
16783,31871,52244,0,0,0
16758,31840,52220,0,0,0
16727,31807,52188,0,0,0
16687,31772,52147,0,0,0
16641,31731,52095,0,0,0
16592,31684,52032,0,0,0
16542,31633,51963,0,0,0
16490,31580,51890,0,0,0
16434,31525,51814,0,0,0
16374,31472,51736,0,0,0
16313,31421,51658,0,0,0
16252,31368,51579,0,0,0
16189,31308,51494,0,0,0
16121,31246,51406,0,0,0
16052,31184,51315,0,0,0
15983,31123,51222,0,0,0
15918,31062,51128,0,0,0
15856,30999,51034,0,0,0
15798,30936,50944,0,0,0
15740,30872,50854,0,0,0
15678,30807,50759,0,0,0
15608,30738,50656,0,0,0
15529,30658,50548,0,0,0
15440,30565,50431,0,0,0
15344,30465,50304,0,0,0
15246,30367,50170,0,0,0
15147,30273,50035,0,0,0
15049,30179,49904,0,0,0
14951,30085,49777,0,0,0
14860,29995,49654,0,0,0
14777,29910,49534,0,0,0
14698,29832,49423,0,0,0
14624,29764,49321,0,0,0
14558,29704,49225,0,0,0
14496,29648,49132,0,0,0
14437,29595,49045,0,0,0
14388,29549,48966,0,0,0
14348,29509,48893,0,0,0
14310,29469,48825,0,0,0
14267,29423,48756,0,0,0
14218,29370,48681,0,0,0
14166,29313,48603,0,0,0
14110,29255,48526,0,0,0
14050,29197,48446,0,0,0
13988,29140,48365,0,0,0
13924,29084,48283,0,0,0
13855,29025,48194,0,0,0
13778,28961,48095,0,0,0
13699,28894,47988,0,0,0
13621,28827,47880,0,0,0
13546,28760,47776,0,0,0
13472,28690,47674,0,0,0
13403,28618,47566,0,0,0
13333,28543,47451,0,0,0
13259,28467,47333,0,0,0
13182,28389,47215,0,0,0
13104,28312,47099,0,0,0
13023,28233,46985,0,0,0
12940,28151,46866,0,0,0
12856,28069,46744,0,0,0
12776,27988,46625,0,0,0
12703,27915,46517,0,0,0
12639,27852,46421,0,0,0
12583,27800,46340,0,0,0
12537,27760,46281,0,0,0
12509,27741,46255,0,0,0
12510,27751,46272,0,0,0
12555,27801,46348,0,0,0
12659,27905,46504,0,0,0
12826,28071,46756,0,0,0
13058,28301,47103,0,0,0
13348,28591,47532,0,0,0
13685,28928,48028,0,0,0
14052,29296,48570,0,0,0
14430,29675,49133,0,0,0
14805,30050,49696,0,0,0
15172,30416,50246,0,0,0
15528,30770,50774,0,0,0
15868,31104,51270,0,0,0
16182,31410,51723,0,0,0
16462,31680,52124,0,0,0
16703,31907,52468,0,0,0
16900,32090,52748,0,0,0
17052,32230,52961,0,0,0
17165,32331,53116,0,0,0
17241,32396,53222,0,0,0
17279,32424,53278,0,0,0
17286,32418,53286,0,0,0
17268,32387,53252,0,0,0
17231,32339,53190,0,0,0
17178,32277,53107,0,0,0
17110,32200,53007,0,0,0
17031,32118,52899,0,0,0
16950,32039,52791,0,0,0
16870,31965,52685,0,0,0
16794,31896,52587,0,0,0
16723,31833,52498,0,0,0
16660,31776,52417,0,0,0
16609,31725,52341,0,0,0
16573,31682,52275,0,0,0
16550,31651,52224,0,0,0
16537,31630,52188,0,0,0
16532,31619,52164,0,0,0
16532,31616,52154,0,0,0
16536,31617,52154,0,0,0
16538,31619,52159,0,0,0
16538,31619,52161,0,0,0
16537,31617,52156,0,0,0
16535,31610,52144,0,0,0
16527,31595,52126,0,0,0
16513,31574,52097,0,0,0
16492,31550,52057,0,0,0
16464,31518,52006,0,0,0
16425,31475,51942,0,0,0
16376,31424,51871,0,0,0
16318,31371,51796,0,0,0
16255,31318,51717,0,0,0
16191,31261,51630,0,0,0
16127,31204,51541,0,0,0
16063,31149,51458,0,0,0
16008,31099,51381,0,0,0
15961,31053,51311,0,0,0
15921,31011,51248,0,0,0
15888,30977,51196,0,0,0
15862,30952,51155,0,0,0
15843,30931,51117,0,0,0
15831,30911,51081,0,0,0
15826,30894,51055,0,0,0
15823,30880,51040,0,0,0
15813,30863,51030,0,0,0
15795,30847,51022,0,0,0
15774,30839,51015,0,0,0
15756,30840,51009,0,0,0
15746,30844,51001,0,0,0
15742,30846,50988,0,0,0
15737,30844,50974,0,0,0
15727,30836,50958,0,0,0
15715,30823,50939,0,0,0
15702,30806,50919,0,0,0
15685,30784,50894,0,0,0
15664,30758,50858,0,0,0
15637,30723,50810,0,0,0
15608,30683,50755,0,0,0
15572,30641,50695,0,0,0
15530,30596,50628,0,0,0
15482,30546,50552,0,0,0
15430,30492,50468,0,0,0
15372,30433,50380,0,0,0
15305,30371,50289,0,0,0
15235,30309,50193,0,0,0
15168,30249,50095,0,0,0
15104,30188,49996,0,0,0
15039,30125,49896,0,0,0
14972,30060,49795,0,0,0
14903,29992,49689,0,0,0
14836,29921,49580,0,0,0
14766,29847,49472,0,0,0
14689,29769,49362,0,0,0
14606,29691,49249,0,0,0
14519,29613,49135,0,0,0
14431,29533,49023,0,0,0
14345,29452,48911,0,0,0
14261,29373,48798,0,0,0
14177,29293,48683,0,0,0
14091,29210,48566,0,0,0
14005,29128,48451,0,0,0
13924,29049,48339,0,0,0
13847,28972,48231,0,0,0
13771,28898,48127,0,0,0
13698,28829,48028,0,0,0
13635,28769,47938,0,0,0
13579,28716,47855,0,0,0
13527,28667,47779,0,0,0
13479,28623,47709,0,0,0
13437,28584,47646,0,0,0
13397,28548,47586,0,0,0
13353,28509,47526,0,0,0
13308,28467,47463,0,0,0
13265,28425,47400,0,0,0
13219,28379,47335,0,0,0
13165,28326,47261,0,0,0
13105,28268,47178,0,0,0
13040,28204,47088,0,0,0
12971,28132,46995,0,0,0
12897,28057,46897,0,0,0
12821,27983,46796,0,0,0
12745,27913,46693,0,0,0
12670,27846,46588,0,0,0
12599,27781,46485,0,0,0
12533,27715,46387,0,0,0
12472,27649,46292,0,0,0
12413,27584,46196,0,0,0
12356,27521,46100,0,0,0
12301,27463,46009,0,0,0
12246,27408,45927,0,0,0
12190,27356,45849,0,0,0
12138,27308,45774,0,0,0
12096,27268,45706,0,0,0
12064,27240,45656,0,0,0
12045,27225,45633,0,0,0
12048,27231,45648,0,0,0
12087,27276,45720,0,0,0
12179,27378,45873,0,0,0
12335,27543,46119,0,0,0
12556,27770,46459,0,0,0
12840,28056,46885,0,0,0
13174,28390,47385,0,0,0
13546,28756,47936,0,0,0
13941,29147,48517,0,0,0
14346,29551,49107,0,0,0
14749,29952,49691,0,0,0
15140,30336,50257,0,0,0
15514,30697,50790,0,0,0
15863,31029,51280,0,0,0
16176,31328,51714,0,0,0
16448,31585,52087,0,0,0
16678,31797,52395,0,0,0
16866,31966,52640,0,0,0
17008,32092,52822,0,0,0
17110,32177,52943,0,0,0
17179,32222,53013,0,0,0
17215,32233,53043,0,0,0
17214,32215,53034,0,0,0
17183,32174,52992,0,0,0
17132,32120,52922,0,0,0
17069,32054,52831,0,0,0
16993,31975,52722,0,0,0
16908,31889,52602,0,0,0
16824,31809,52484,0,0,0
16748,31739,52378,0,0,0
16682,31678,52286,0,0,0
16627,31623,52206,0,0,0
16582,31576,52133,0,0,0
16545,31535,52068,0,0,0
16513,31500,52016,0,0,0
16488,31471,51975,0,0,0
16471,31450,51945,0,0,0
16458,31435,51924,0,0,0
16446,31420,51906,0,0,0
16431,31403,51885,0,0,0
16418,31382,51862,0,0,0
16408,31359,51839,0,0,0
16393,31331,51812,0,0,0
16366,31293,51774,0,0,0
16327,31249,51720,0,0,0
16280,31202,51654,0,0,0
16226,31152,51578,0,0,0
16168,31096,51495,0,0,0
16112,31039,51411,0,0,0
16059,30986,51332,0,0,0
16008,30936,51251,0,0,0
15955,30885,51170,0,0,0
15898,30834,51093,0,0,0
15842,30786,51024,0,0,0
15789,30741,50961,0,0,0
15742,30701,50907,0,0,0
15705,30670,50866,0,0,0
15681,30647,50838,0,0,0
15667,30633,50815,0,0,0
15658,30621,50791,0,0,0
15654,30613,50770,0,0,0
15655,30607,50757,0,0,0
15661,30607,50754,0,0,0
15672,30615,50761,0,0,0
15684,30628,50775,0,0,0
15692,30636,50790,0,0,0
15695,30641,50802,0,0,0
15700,30647,50815,0,0,0
15707,30654,50826,0,0,0
15710,30655,50830,0,0,0
15705,30646,50820,0,0,0
15692,30628,50793,0,0,0
15670,30605,50753,0,0,0
15642,30576,50702,0,0,0
15608,30539,50639,0,0,0
15569,30494,50569,0,0,0
15524,30446,50495,0,0,0
15475,30396,50418,0,0,0
15419,30343,50338,0,0,0
15358,30285,50255,0,0,0
15292,30224,50171,0,0,0
15222,30159,50080,0,0,0
15149,30092,49980,0,0,0
15076,30024,49876,0,0,0
15008,29956,49770,0,0,0
14941,29889,49661,0,0,0
14874,29820,49547,0,0,0
14807,29752,49433,0,0,0
14742,29683,49325,0,0,0
14679,29613,49225,0,0,0
14612,29541,49130,0,0,0
14545,29469,49039,0,0,0
14478,29401,48948,0,0,0
14408,29334,48851,0,0,0
14334,29266,48747,0,0,0
14263,29200,48647,0,0,0
14197,29137,48552,0,0,0
14133,29075,48457,0,0,0
14071,29013,48366,0,0,0
14013,28954,48281,0,0,0
13957,28897,48199,0,0,0
13902,28839,48119,0,0,0
13844,28782,48037,0,0,0
13785,28727,47952,0,0,0
13727,28675,47866,0,0,0
13672,28623,47780,0,0,0
13617,28569,47691,0,0,0
13560,28513,47600,0,0,0
13502,28458,47507,0,0,0
13441,28401,47412,0,0,0
13377,28343,47318,0,0,0
13312,28284,47228,0,0,0
13247,28224,47138,0,0,0
13183,28165,47048,0,0,0
13123,28107,46959,0,0,0
13066,28048,46873,0,0,0
13009,27984,46787,0,0,0
12949,27917,46695,0,0,0
12886,27851,46596,0,0,0
12822,27787,46497,0,0,0
12757,27722,46401,0,0,0
12693,27656,46307,0,0,0
12632,27597,46218,0,0,0
12578,27548,46142,0,0,0
12530,27511,46084,0,0,0
12494,27489,46045,0,0,0
12485,27490,46041,0,0,0
12515,27526,46095,0,0,0
12595,27609,46223,0,0,0
12736,27749,46441,0,0,0
12942,27954,46756,0,0,0
13209,28224,47162,0,0,0
13531,28550,47642,0,0,0
13893,28914,48176,0,0,0
14282,29302,48744,0,0,0
14688,29704,49327,0,0,0
15098,30108,49905,0,0,0
15497,30500,50461,0,0,0
15876,30866,50983,0,0,0
16221,31197,51464,0,0,0
16525,31488,51895,0,0,0
16784,31733,52263,0,0,0
16997,31933,52567,0,0,0
17167,32088,52807,0,0,0
17291,32200,52984,0,0,0
17372,32271,53100,0,0,0
17418,32305,53166,0,0,0
17438,32312,53191,0,0,0
17435,32296,53181,0,0,0
17411,32259,53139,0,0,0
17373,32209,53071,0,0,0
17323,32147,52986,0,0,0
17261,32076,52889,0,0,0
17192,32001,52784,0,0,0
17123,31926,52680,0,0,0
17059,31857,52577,0,0,0
16996,31795,52477,0,0,0
16937,31737,52383,0,0,0
16882,31682,52298,0,0,0
16833,31628,52224,0,0,0
16790,31581,52163,0,0,0
16752,31545,52115,0,0,0
16719,31518,52080,0,0,0
16692,31499,52054,0,0,0
16674,31483,52033,0,0,0
16663,31471,52018,0,0,0
16659,31463,52009,0,0,0
16659,31459,51998,0,0,0
16655,31449,51979,0,0,0
16645,31432,51954,0,0,0
16626,31409,51926,0,0,0
16601,31382,51895,0,0,0
16572,31352,51855,0,0,0
16538,31315,51806,0,0,0
16500,31274,51747,0,0,0
16458,31227,51681,0,0,0
16411,31175,51607,0,0,0
16361,31121,51528,0,0,0
16308,31065,51446,0,0,0
16251,31002,51355,0,0,0
16189,30935,51259,0,0,0
16128,30874,51168,0,0,0
16073,30824,51089,0,0,0
16025,30781,51020,0,0,0
15986,30744,50960,0,0,0
15958,30712,50912,0,0,0
15937,30688,50875,0,0,0
15924,30674,50845,0,0,0
15922,30671,50825,0,0,0
15929,30678,50821,0,0,0
15940,30690,50831,0,0,0
15950,30701,50846,0,0,0
15956,30708,50856,0,0,0
15960,30716,50865,0,0,0
15961,30725,50874,0,0,0
15959,30730,50879,0,0,0
15956,30730,50878,0,0,0
15954,30726,50874,0,0,0
15953,30717,50865,0,0,0
15951,30705,50852,0,0,0
15949,30692,50838,0,0,0
15944,30678,50820,0,0,0
15928,30658,50793,0,0,0
15899,30631,50753,0,0,0
15866,30597,50702,0,0,0
15831,30556,50645,0,0,0
15794,30513,50584,0,0,0
15751,30466,50516,0,0,0
15703,30415,50444,0,0,0
15651,30364,50370,0,0,0
15598,30312,50295,0,0,0
15544,30260,50214,0,0,0
15488,30206,50125,0,0,0
15429,30150,50032,0,0,0
15365,30088,49938,0,0,0
15296,30021,49844,0,0,0
15221,29951,49753,0,0,0
15142,29882,49664,0,0,0
15064,29814,49572,0,0,0
14990,29747,49475,0,0,0
14922,29682,49380,0,0,0
14861,29622,49292,0,0,0
14802,29566,49205,0,0,0
14749,29512,49120,0,0,0
14703,29460,49044,0,0,0
14662,29412,48977,0,0,0
14623,29369,48918,0,0,0
14582,29331,48859,0,0,0
14542,29295,48802,0,0,0
14504,29257,48745,0,0,0
14466,29218,48689,0,0,0
14426,29175,48628,0,0,0
14383,29131,48563,0,0,0
14336,29084,48494,0,0,0
14286,29031,48416,0,0,0
14233,28978,48330,0,0,0
14176,28924,48241,0,0,0
14110,28863,48150,0,0,0
14036,28798,48053,0,0,0
13961,28731,47953,0,0,0
13890,28663,47856,0,0,0
13824,28596,47764,0,0,0
13756,28532,47674,0,0,0
13687,28469,47584,0,0,0
13619,28408,47496,0,0,0
13556,28350,47411,0,0,0
13498,28294,47327,0,0,0
13446,28239,47243,0,0,0
13401,28192,47162,0,0,0
13362,28151,47083,0,0,0
13322,28109,47006,0,0,0
13284,28070,46940,0,0,0
13250,28039,46887,0,0,0
13221,28018,46846,0,0,0
13202,28006,46822,0,0,0
13206,28013,46834,0,0,0
13246,28058,46902,0,0,0
13334,28150,47041,0,0,0
13483,28299,47263,0,0,0
13696,28509,47574,0,0,0
13965,28775,47966,0,0,0
14285,29085,48421,0,0,0
14642,29425,48922,0,0,0
15022,29790,49455,0,0,0
15417,30167,50004,0,0,0
15811,30543,50551,0,0,0
16189,30906,51083,0,0,0
16541,31245,51583,0,0,0
16860,31547,52036,0,0,0
17138,31806,52426,0,0,0
17370,32018,52748,0,0,0
17558,32188,53006,0,0,0
17704,32317,53207,0,0,0
17810,32413,53353,0,0,0
17884,32481,53453,0,0,0
17933,32522,53514,0,0,0
17959,32534,53541,0,0,0
17962,32520,53534,0,0,0
17945,32488,53498,0,0,0
17914,32445,53443,0,0,0
17872,32394,53375,0,0,0
17818,32337,53293,0,0,0
17759,32276,53200,0,0,0
17699,32214,53107,0,0,0
17638,32151,53019,0,0,0
17577,32091,52937,0,0,0
17522,32039,52864,0,0,0
17475,31999,52802,0,0,0
17438,31964,52750,0,0,0
17411,31931,52702,0,0,0
17393,31904,52664,0,0,0
17384,31884,52638,0,0,0
17382,31871,52620,0,0,0
17386,31866,52611,0,0,0
17394,31867,52609,0,0,0
17399,31868,52609,0,0,0
17393,31866,52604,0,0,0
17376,31856,52591,0,0,0
17351,31838,52572,0,0,0
17320,31814,52546,0,0,0
17283,31783,52510,0,0,0
17244,31743,52462,0,0,0
17205,31694,52404,0,0,0
17160,31638,52337,0,0,0
17108,31578,52263,0,0,0
17052,31516,52181,0,0,0
16992,31454,52096,0,0,0
16927,31394,52011,0,0,0
16863,31342,51928,0,0,0
16810,31298,51851,0,0,0
16769,31261,51781,0,0,0
16734,31233,51718,0,0,0
16704,31209,51666,0,0,0
16681,31189,51626,0,0,0
16667,31174,51595,0,0,0
16661,31166,51570,0,0,0
16659,31162,51553,0,0,0
16660,31157,51547,0,0,0
16662,31154,51549,0,0,0
16667,31152,51556,0,0,0
16674,31151,51567,0,0,0
16683,31150,51579,0,0,0
16692,31147,51591,0,0,0
16698,31143,51600,0,0,0
16699,31136,51604,0,0,0
16698,31131,51598,0,0,0
16696,31125,51584,0,0,0
16688,31115,51564,0,0,0
16671,31099,51539,0,0,0
16647,31080,51509,0,0,0
16615,31055,51474,0,0,0
16574,31019,51428,0,0,0
16524,30976,51371,0,0,0
16471,30929,51303,0,0,0
16415,30877,51225,0,0,0
16351,30819,51139,0,0,0
16281,30755,51047,0,0,0
16208,30685,50947,0,0,0
16131,30606,50839,0,0,0
16049,30524,50730,0,0,0
15966,30444,50623,0,0,0
15889,30370,50518,0,0,0
15818,30299,50415,0,0,0
15751,30225,50311,0,0,0
15684,30147,50204,0,0,0
15616,30070,50100,0,0,0
15552,29999,50001,0,0,0
15488,29932,49899,0,0,0
15417,29864,49794,0,0,0
15342,29795,49686,0,0,0
15264,29724,49577,0,0,0
15183,29649,49468,0,0,0
15100,29567,49356,0,0,0
15014,29482,49242,0,0,0
14927,29397,49127,0,0,0
14844,29313,49013,0,0,0
14771,29237,48906,0,0,0
14706,29169,48808,0,0,0
14644,29107,48717,0,0,0
14587,29048,48632,0,0,0
14533,28995,48553,0,0,0
14484,28951,48479,0,0,0
14441,28916,48412,0,0,0
14404,28883,48348,0,0,0
14369,28852,48285,0,0,0
14334,28820,48223,0,0,0
14293,28786,48160,0,0,0
14245,28748,48094,0,0,0
14196,28708,48023,0,0,0
14146,28663,47945,0,0,0
14088,28609,47856,0,0,0
14019,28544,47758,0,0,0
13947,28474,47654,0,0,0
13878,28406,47551,0,0,0
13813,28337,47448,0,0,0
13752,28267,47345,0,0,0
13695,28196,47244,0,0,0
13640,28125,47150,0,0,0
13583,28053,47059,0,0,0
13523,27984,46967,0,0,0
13463,27921,46876,0,0,0
13406,27866,46789,0,0,0
13354,27818,46707,0,0,0
13304,27774,46631,0,0,0
13255,27734,46561,0,0,0
13208,27702,46501,0,0,0
13174,27681,46464,0,0,0
13166,27681,46468,0,0,0
13202,27719,46529,0,0,0
13292,27808,46666,0,0,0
13444,27960,46892,0,0,0
13657,28175,47212,0,0,0
13929,28448,47617,0,0,0
14253,28768,48091,0,0,0
14615,29122,48612,0,0,0
15001,29499,49161,0,0,0
15402,29888,49725,0,0,0
15804,30275,50291,0,0,0
16192,30647,50837,0,0,0
16561,30996,51352,0,0,0
16906,31318,51824,0,0,0
17216,31603,52241,0,0,0
17482,31847,52598,0,0,0
17699,32048,52897,0,0,0
17870,32209,53138,0,0,0
17999,32332,53319,0,0,0
18093,32420,53444,0,0,0
18157,32476,53522,0,0,0
18193,32503,53559,0,0,0
18203,32505,53561,0,0,0
18193,32485,53531,0,0,0
18166,32448,53479,0,0,0
18126,32401,53411,0,0,0
18076,32344,53330,0,0,0
18019,32278,53239,0,0,0
17957,32205,53143,0,0,0
17896,32131,53049,0,0,0
17834,32063,52961,0,0,0
17774,32003,52879,0,0,0
17722,31950,52806,0,0,0
17681,31910,52747,0,0,0
17651,31879,52701,0,0,0
17627,31854,52664,0,0,0
17613,31838,52636,0,0,0
17608,31832,52617,0,0,0
17610,31830,52601,0,0,0
17618,31832,52589,0,0,0
17628,31837,52584,0,0,0
17635,31841,52580,0,0,0
17640,31839,52571,0,0,0
17642,31832,52556,0,0,0
17642,31819,52537,0,0,0
17628,31795,52508,0,0,0
17596,31756,52464,0,0,0
17551,31705,52405,0,0,0
17500,31650,52334,0,0,0
17442,31592,52256,0,0,0
17379,31530,52172,0,0,0
17311,31465,52082,0,0,0
17239,31400,51991,0,0,0
17166,31336,51900,0,0,0
17096,31272,51810,0,0,0
17031,31207,51723,0,0,0
16974,31147,51644,0,0,0
16923,31093,51575,0,0,0
16876,31047,51513,0,0,0
16837,31009,51459,0,0,0
16809,30981,51416,0,0,0
16792,30961,51385,0,0,0
16780,30948,51364,0,0,0
16771,30936,51348,0,0,0
16765,30925,51338,0,0,0
16756,30914,51329,0,0,0
16744,30902,51317,0,0,0
16730,30890,51304,0,0,0
16718,30880,51292,0,0,0
16707,30870,51274,0,0,0
16694,30857,51249,0,0,0
16678,30839,51220,0,0,0
16658,30815,51187,0,0,0
16634,30789,51152,0,0,0
16604,30760,51113,0,0,0
16572,30728,51068,0,0,0
16539,30694,51016,0,0,0
16504,30658,50959,0,0,0
16462,30616,50898,0,0,0
16410,30568,50831,0,0,0
16354,30513,50758,0,0,0
16291,30452,50677,0,0,0
16222,30388,50591,0,0,0
16150,30325,50503,0,0,0
16076,30261,50407,0,0,0
15998,30192,50303,0,0,0
15918,30120,50191,0,0,0
15835,30042,50075,0,0,0
15749,29957,49955,0,0,0
15661,29867,49834,0,0,0
15573,29775,49713,0,0,0
15486,29686,49592,0,0,0
15395,29596,49470,0,0,0
15301,29507,49348,0,0,0
15209,29421,49225,0,0,0
15120,29337,49099,0,0,0
15036,29254,48972,0,0,0
14955,29172,48847,0,0,0
14878,29094,48727,0,0,0
14801,29019,48609,0,0,0
14718,28942,48487,0,0,0
14630,28863,48364,0,0,0
14545,28790,48249,0,0,0
14465,28719,48139,0,0,0
14385,28647,48030,0,0,0
14306,28573,47922,0,0,0
14229,28500,47818,0,0,0
14154,28430,47715,0,0,0
14081,28361,47615,0,0,0
14013,28294,47517,0,0,0
13949,28225,47423,0,0,0
13887,28154,47333,0,0,0
13826,28083,47244,0,0,0
13762,28011,47153,0,0,0
13693,27938,47059,0,0,0
13620,27865,46961,0,0,0
13546,27792,46857,0,0,0
13469,27716,46742,0,0,0
13389,27638,46621,0,0,0
13307,27562,46500,0,0,0
13229,27489,46380,0,0,0
13156,27418,46263,0,0,0
13082,27344,46147,0,0,0
13005,27268,46036,0,0,0
12924,27191,45926,0,0,0
12842,27110,45811,0,0,0
12761,27030,45695,0,0,0
12681,26952,45581,0,0,0
12605,26879,45472,0,0,0
12535,26812,45372,0,0,0
12474,26756,45289,0,0,0
12425,26720,45234,0,0,0
12398,26709,45213,0,0,0
12407,26732,45241,0,0,0
12467,26805,45345,0,0,0
12595,26944,45551,0,0,0
12798,27153,45865,0,0,0
13074,27425,46284,0,0,0
13409,27758,46796,0,0,0
13793,28140,47378,0,0,0
14208,28554,47999,0,0,0
14637,28980,48631,0,0,0
15064,29402,49255,0,0,0
15477,29811,49854,0,0,0
15870,30199,50422,0,0,0
16245,30564,50954,0,0,0
16594,30898,51440,0,0,0
16902,31192,51863,0,0,0
17160,31441,52217,0,0,0
17368,31645,52504,0,0,0
17528,31799,52727,0,0,0
17643,31903,52887,0,0,0
17718,31964,52987,0,0,0
17757,31990,53034,0,0,0
17763,31984,53034,0,0,0
17738,31950,52993,0,0,0
17693,31894,52926,0,0,0
17636,31826,52842,0,0,0
17567,31750,52749,0,0,0
17488,31665,52644,0,0,0
17403,31576,52529,0,0,0
17320,31491,52411,0,0,0
17241,31416,52296,0,0,0
17168,31349,52188,0,0,0
17107,31287,52090,0,0,0
17060,31233,52008,0,0,0
17028,31189,51945,0,0,0
17005,31160,51901,0,0,0
16987,31140,51871,0,0,0
16976,31130,51854,0,0,0
16970,31128,51846,0,0,0
16967,31129,51839,0,0,0
16965,31130,51829,0,0,0
16963,31130,51818,0,0,0
16961,31126,51806,0,0,0
16953,31111,51786,0,0,0
16934,31086,51756,0,0,0
16902,31049,51714,0,0,0
16860,31003,51660,0,0,0
16806,30949,51593,0,0,0
16740,30886,51512,0,0,0
16671,30818,51423,0,0,0
16600,30746,51329,0,0,0
16526,30672,51229,0,0,0
16451,30601,51128,0,0,0
16377,30534,51031,0,0,0
16303,30469,50938,0,0,0
16230,30406,50847,0,0,0
16163,30349,50761,0,0,0
16107,30300,50683,0,0,0
16065,30260,50616,0,0,0
16034,30227,50565,0,0,0
16017,30203,50531,0,0,0
16011,30188,50511,0,0,0
16009,30175,50496,0,0,0
16002,30164,50480,0,0,0
15988,30154,50462,0,0,0
15966,30141,50443,0,0,0
15938,30120,50421,0,0,0
15903,30094,50395,0,0,0
15864,30067,50365,0,0,0
15827,30038,50327,0,0,0
15794,30014,50286,0,0,0
15765,29995,50248,0,0,0
15738,29977,50213,0,0,0
15714,29960,50180,0,0,0
15691,29940,50147,0,0,0
15668,29915,50112,0,0,0
15637,29882,50070,0,0,0
15595,29840,50018,0,0,0
15547,29792,49957,0,0,0
15499,29744,49892,0,0,0
15452,29695,49822,0,0,0
15400,29645,49743,0,0,0
15342,29590,49654,0,0,0
15280,29530,49556,0,0,0
15211,29463,49453,0,0,0
15131,29387,49342,0,0,0
15037,29299,49220,0,0,0
14934,29203,49086,0,0,0
14828,29099,48943,0,0,0
14722,28992,48796,0,0,0
14616,28883,48648,0,0,0
14510,28778,48500,0,0,0
14408,28682,48355,0,0,0
14314,28596,48219,0,0,0
14232,28519,48094,0,0,0
14159,28449,47976,0,0,0
14091,28384,47865,0,0,0
14022,28319,47755,0,0,0
13950,28251,47646,0,0,0
13877,28183,47539,0,0,0
13803,28115,47433,0,0,0
13723,28045,47323,0,0,0
13637,27968,47210,0,0,0
13547,27882,47098,0,0,0
13457,27793,46986,0,0,0
13366,27707,46872,0,0,0
13276,27625,46754,0,0,0
13192,27550,46636,0,0,0
13119,27479,46523,0,0,0
13053,27409,46415,0,0,0
12989,27339,46310,0,0,0
12927,27276,46210,0,0,0
12869,27220,46117,0,0,0
12810,27166,46027,0,0,0
12749,27109,45940,0,0,0
12689,27054,45854,0,0,0
12635,27002,45770,0,0,0
12589,26952,45690,0,0,0
12548,26903,45619,0,0,0
12512,26859,45556,0,0,0
12474,26818,45494,0,0,0
12428,26779,45427,0,0,0
12376,26739,45354,0,0,0
12325,26698,45276,0,0,0
12273,26651,45192,0,0,0
12217,26600,45106,0,0,0
12164,26550,45022,0,0,0
12116,26508,44946,0,0,0
12077,26473,44885,0,0,0
12055,26451,44848,0,0,0
12061,26455,44854,0,0,0
12102,26498,44927,0,0,0
12188,26588,45078,0,0,0
12332,26737,45320,0,0,0
12547,26957,45665,0,0,0
12837,27248,46114,0,0,0
13191,27601,46652,0,0,0
13595,28002,47258,0,0,0
14038,28436,47905,0,0,0
14499,28883,48565,0,0,0
14956,29322,49212,0,0,0
15395,29742,49827,0,0,0
15809,30136,50401,0,0,0
16196,30497,50930,0,0,0
16545,30817,51405,0,0,0
16851,31095,51817,0,0,0
17111,31330,52165,0,0,0
17318,31520,52449,0,0,0
17472,31663,52670,0,0,0
17582,31765,52826,0,0,0
17655,31830,52923,0,0,0
17693,31855,52968,0,0,0
17696,31849,52968,0,0,0
17669,31820,52931,0,0,0
17621,31775,52865,0,0,0
17565,31720,52782,0,0,0
17503,31656,52685,0,0,0
17437,31584,52578,0,0,0
17370,31507,52468,0,0,0
17302,31431,52358,0,0,0
17234,31359,52254,0,0,0
17171,31293,52160,0,0,0
17116,31234,52074,0,0,0
17069,31179,51996,0,0,0
17028,31127,51925,0,0,0
16994,31082,51866,0,0,0
16971,31047,51825,0,0,0
16957,31023,51801,0,0,0
16948,31008,51788,0,0,0
16944,30998,51783,0,0,0
16941,30993,51781,0,0,0
16936,30987,51777,0,0,0
16924,30976,51764,0,0,0
16907,30959,51741,0,0,0
16885,30937,51707,0,0,0
16853,30904,51658,0,0,0
16813,30864,51596,0,0,0
16768,30821,51522,0,0,0
16717,30773,51438,0,0,0
16659,30718,51347,0,0,0
16598,30657,51252,0,0,0
16539,30597,51160,0,0,0
16487,30543,51077,0,0,0
16440,30494,51003,0,0,0
16398,30449,50935,0,0,0
16361,30406,50874,0,0,0
16328,30369,50823,0,0,0
16298,30340,50782,0,0,0
16267,30318,50748,0,0,0
16239,30300,50716,0,0,0
16219,30285,50685,0,0,0
16204,30268,50659,0,0,0
16197,30252,50640,0,0,0
16196,30242,50627,0,0,0
16196,30233,50617,0,0,0
16197,30226,50608,0,0,0
16199,30223,50602,0,0,0
16202,30222,50596,0,0,0
16202,30224,50591,0,0,0
16197,30225,50584,0,0,0
16188,30223,50576,0,0,0
16179,30217,50568,0,0,0
16170,30210,50557,0,0,0
16157,30199,50542,0,0,0
16140,30181,50521,0,0,0
16118,30158,50495,0,0,0
16089,30130,50458,0,0,0
16052,30098,50410,0,0,0
16010,30059,50352,0,0,0
15964,30010,50283,0,0,0
15911,29952,50200,0,0,0
15849,29884,50106,0,0,0
15783,29810,50004,0,0,0
15715,29735,49900,0,0,0
15643,29661,49791,0,0,0
15567,29583,49674,0,0,0
15484,29498,49550,0,0,0
15400,29410,49422,0,0,0
15313,29320,49294,0,0,0
15224,29228,49163,0,0,0
15134,29137,49033,0,0,0
15047,29052,48908,0,0,0
14964,28972,48788,0,0,0
14885,28897,48675,0,0,0
14812,28828,48570,0,0,0
14744,28766,48473,0,0,0
14676,28708,48379,0,0,0
14611,28653,48285,0,0,0
14555,28604,48196,0,0,0
14503,28559,48110,0,0,0
14450,28512,48024,0,0,0
14398,28465,47936,0,0,0
14345,28416,47847,0,0,0
14290,28361,47757,0,0,0
14231,28297,47665,0,0,0
14170,28228,47572,0,0,0
14105,28153,47478,0,0,0
14035,28073,47378,0,0,0
13959,27990,47275,0,0,0
13878,27912,47168,0,0,0
13794,27836,47055,0,0,0
13705,27760,46935,0,0,0
13615,27680,46808,0,0,0
13529,27598,46683,0,0,0
13451,27519,46565,0,0,0
13376,27440,46450,0,0,0
13304,27363,46337,0,0,0
13236,27292,46229,0,0,0
13170,27228,46122,0,0,0
13100,27164,46017,0,0,0
13028,27098,45913,0,0,0
12957,27032,45808,0,0,0
12890,26970,45708,0,0,0
12832,26917,45625,0,0,0
12790,26882,45569,0,0,0
12773,26872,45551,0,0,0
12795,26899,45590,0,0,0
12868,26975,45701,0,0,0
13004,27111,45905,0,0,0
13208,27315,46213,0,0,0
13480,27587,46622,0,0,0
13813,27918,47115,0,0,0
14192,28293,47674,0,0,0
14600,28697,48278,0,0,0
15023,29110,48899,0,0,0
15447,29520,49514,0,0,0
15859,29917,50110,0,0,0
16248,30293,50671,0,0,0
16606,30639,51188,0,0,0
16928,30946,51649,0,0,0
17212,31208,52050,0,0,0
17455,31431,52388,0,0,0
17657,31619,52666,0,0,0
17817,31768,52884,0,0,0
17936,31879,53040,0,0,0
18018,31954,53141,0,0,0
18065,31996,53194,0,0,0
18085,32009,53207,0,0,0
18083,32000,53187,0,0,0
18060,31968,53142,0,0,0
18019,31917,53075,0,0,0
17961,31853,52992,0,0,0
17890,31780,52895,0,0,0
17814,31702,52790,0,0,0
17736,31623,52681,0,0,0
17661,31547,52574,0,0,0
17593,31476,52475,0,0,0
17534,31412,52386,0,0,0
17488,31354,52314,0,0,0
17454,31305,52256,0,0,0
17427,31264,52208,0,0,0
17407,31238,52171,0,0,0
17397,31229,52145,0,0,0
17394,31229,52127,0,0,0
17392,31232,52117,0,0,0
17391,31231,52111,0,0,0
17390,31225,52102,0,0,0
17388,31217,52086,0,0,0
17380,31206,52063,0,0,0
17367,31187,52036,0,0,0
17344,31158,52004,0,0,0
17309,31120,51960,0,0,0
17265,31075,51903,0,0,0
17212,31022,51835,0,0,0
17151,30958,51754,0,0,0
17083,30888,51665,0,0,0
17013,30817,51573,0,0,0
16949,30749,51478,0,0,0
16893,30685,51386,0,0,0
16844,30628,51303,0,0,0
16801,30580,51228,0,0,0
16761,30541,51160,0,0,0
16722,30506,51098,0,0,0
16686,30473,51040,0,0,0
16656,30443,50988,0,0,0
16633,30418,50944,0,0,0
16614,30397,50906,0,0,0
16598,30380,50872,0,0,0
16587,30371,50849,0,0,0
16580,30368,50837,0,0,0
16575,30363,50833,0,0,0
16571,30356,50832,0,0,0
16569,30352,50836,0,0,0
16571,30352,50842,0,0,0
16575,30354,50846,0,0,0
16576,30353,50846,0,0,0
16567,30344,50840,0,0,0
16549,30329,50827,0,0,0
16525,30307,50802,0,0,0
16499,30281,50769,0,0,0
16471,30252,50732,0,0,0
16435,30217,50689,0,0,0
16391,30175,50634,0,0,0
16338,30124,50565,0,0,0
16278,30066,50481,0,0,0
16212,30002,50388,0,0,0
16142,29931,50288,0,0,0
16070,29854,50182,0,0,0
15994,29775,50071,0,0,0
15911,29694,49956,0,0,0
15823,29610,49836,0,0,0
15736,29525,49714,0,0,0
15651,29441,49592,0,0,0
15565,29355,49469,0,0,0
15478,29268,49341,0,0,0
15392,29182,49210,0,0,0
15310,29100,49079,0,0,0
15231,29019,48950,0,0,0
15149,28935,48824,0,0,0
15064,28851,48699,0,0,0
14976,28770,48575,0,0,0
14888,28693,48451,0,0,0
14804,28619,48333,0,0,0
14726,28549,48225,0,0,0
14652,28481,48125,0,0,0
14579,28411,48024,0,0,0
14501,28335,47917,0,0,0
14423,28257,47809,0,0,0
14349,28182,47705,0,0,0
14277,28110,47602,0,0,0
14200,28038,47500,0,0,0
14122,27966,47397,0,0,0
14045,27895,47292,0,0,0
13972,27823,47185,0,0,0
13902,27750,47075,0,0,0
13830,27675,46960,0,0,0
13755,27597,46845,0,0,0
13678,27518,46732,0,0,0
13601,27441,46618,0,0,0
13525,27366,46505,0,0,0
13451,27294,46393,0,0,0
13378,27227,46285,0,0,0
13307,27165,46181,0,0,0
13238,27106,46082,0,0,0
13169,27046,45982,0,0,0
13098,26983,45880,0,0,0
13026,26916,45781,0,0,0
12955,26848,45683,0,0,0
12885,26779,45586,0,0,0
12819,26715,45492,0,0,0
12764,26660,45403,0,0,0
12717,26613,45325,0,0,0
12682,26578,45271,0,0,0
12670,26569,45259,0,0,0
12702,26604,45311,0,0,0
12790,26694,45450,0,0,0
12942,26848,45689,0,0,0
13164,27071,46035,0,0,0
13456,27366,46482,0,0,0
13807,27722,47014,0,0,0
14203,28119,47605,0,0,0
14630,28535,48230,0,0,0
15068,28956,48865,0,0,0
15499,29376,49489,0,0,0
15913,29788,50087,0,0,0
16306,30176,50650,0,0,0
16672,30528,51169,0,0,0
17002,30842,51639,0,0,0
17291,31115,52050,0,0,0
17537,31344,52394,0,0,0
17742,31527,52671,0,0,0
17905,31668,52885,0,0,0
18026,31769,53039,0,0,0
18107,31830,53139,0,0,0
18152,31857,53194,0,0,0
18166,31863,53208,0,0,0
18159,31851,53186,0,0,0
18137,31824,53134,0,0,0
18101,31781,53059,0,0,0
18052,31727,52973,0,0,0
17989,31664,52881,0,0,0
17919,31593,52786,0,0,0
17851,31520,52692,0,0,0
17788,31450,52603,0,0,0
17733,31387,52521,0,0,0
17686,31334,52447,0,0,0
17645,31292,52384,0,0,0
17611,31259,52336,0,0,0
17587,31236,52302,0,0,0
17573,31221,52280,0,0,0
17568,31214,52267,0,0,0
17568,31208,52260,0,0,0
17567,31198,52252,0,0,0
17564,31188,52240,0,0,0
17557,31182,52227,0,0,0
17546,31176,52212,0,0,0
17532,31165,52193,0,0,0
17517,31149,52168,0,0,0
17497,31121,52138,0,0,0
17469,31082,52100,0,0,0
17433,31036,52051,0,0,0
17394,30989,51992,0,0,0
17354,30944,51924,0,0,0
17310,30895,51848,0,0,0
17258,30840,51763,0,0,0
17201,30784,51673,0,0,0
17142,30726,51579,0,0,0
17083,30664,51485,0,0,0
17025,30604,51399,0,0,0
16971,30551,51323,0,0,0
16924,30509,51258,0,0,0
16883,30478,51203,0,0,0
16849,30456,51160,0,0,0
16824,30438,51127,0,0,0
16806,30420,51101,0,0,0
16792,30406,51078,0,0,0
16781,30397,51060,0,0,0
16777,30393,51047,0,0,0
16779,30391,51039,0,0,0
16781,30388,51035,0,0,0
16780,30381,51032,0,0,0
16775,30369,51023,0,0,0
16765,30352,51007,0,0,0
16749,30334,50985,0,0,0
16730,30314,50961,0,0,0
16710,30292,50937,0,0,0
16685,30263,50907,0,0,0
16652,30229,50867,0,0,0
16613,30194,50818,0,0,0
16572,30158,50764,0,0,0
16526,30118,50704,0,0,0
16477,30074,50639,0,0,0
16433,30031,50570,0,0,0
16391,29986,50502,0,0,0
16345,29934,50428,0,0,0
16290,29873,50344,0,0,0
16228,29806,50249,0,0,0
16163,29737,50152,0,0,0
16097,29663,50052,0,0,0
16028,29584,49949,0,0,0
15955,29503,49842,0,0,0
15877,29425,49734,0,0,0
15797,29348,49623,0,0,0
15718,29271,49511,0,0,0
15638,29195,49401,0,0,0
15560,29122,49294,0,0,0
15487,29051,49185,0,0,0
15417,28979,49074,0,0,0
15344,28907,48962,0,0,0
15272,28840,48851,0,0,0
15202,28777,48739,0,0,0
15132,28712,48628,0,0,0
15064,28645,48521,0,0,0
14998,28578,48421,0,0,0
14931,28516,48324,0,0,0
14865,28456,48227,0,0,0
14801,28398,48135,0,0,0
14740,28341,48049,0,0,0
14677,28281,47961,0,0,0
14613,28217,47869,0,0,0
14553,28155,47774,0,0,0
14493,28096,47683,0,0,0
14430,28037,47593,0,0,0
14363,27978,47500,0,0,0
14299,27919,47406,0,0,0
14235,27858,47311,0,0,0
14168,27792,47213,0,0,0
14093,27721,47110,0,0,0
14012,27645,47001,0,0,0
13926,27567,46887,0,0,0
13834,27487,46770,0,0,0
13737,27404,46653,0,0,0
13644,27321,46539,0,0,0
13557,27240,46427,0,0,0
13473,27157,46314,0,0,0
13389,27071,46200,0,0,0
13302,26986,46086,0,0,0
13212,26903,45970,0,0,0
13124,26823,45854,0,0,0
13050,26753,45748,0,0,0
12990,26694,45657,0,0,0
12938,26644,45583,0,0,0
12894,26606,45521,0,0,0
12867,26587,45478,0,0,0
12866,26592,45474,0,0,0
12902,26631,45527,0,0,0
12988,26716,45656,0,0,0
13135,26863,45878,0,0,0
13349,27079,46206,0,0,0
13630,27361,46634,0,0,0
13969,27702,47147,0,0,0
14355,28089,47727,0,0,0
14771,28503,48343,0,0,0
15201,28922,48964,0,0,0
15625,29331,49571,0,0,0
16032,29724,50155,0,0,0
16414,30095,50706,0,0,0
16765,30434,51211,0,0,0
17075,30731,51660,0,0,0
17344,30989,52048,0,0,0
17572,31206,52374,0,0,0
17754,31377,52636,0,0,0
17890,31506,52835,0,0,0
17983,31597,52972,0,0,0
18037,31653,53057,0,0,0
18060,31678,53100,0,0,0
18063,31676,53107,0,0,0
18050,31657,53087,0,0,0
18022,31626,53044,0,0,0
17984,31585,52980,0,0,0
17941,31535,52900,0,0,0
17892,31476,52814,0,0,0
17835,31407,52720,0,0,0
17775,31334,52624,0,0,0
17719,31267,52535,0,0,0
17669,31207,52454,0,0,0
17622,31151,52379,0,0,0
17575,31101,52311,0,0,0
17531,31061,52254,0,0,0
17499,31036,52212,0,0,0
17479,31020,52185,0,0,0
17469,31010,52171,0,0,0
17464,31008,52164,0,0,0
17463,31009,52162,0,0,0
17468,31009,52159,0,0,0
17475,31008,52156,0,0,0
17482,31006,52150,0,0,0
17483,30999,52140,0,0,0
17472,30983,52120,0,0,0
17448,30956,52088,0,0,0
17416,30920,52046,0,0,0
17375,30877,51989,0,0,0
17324,30828,51917,0,0,0
17268,30773,51835,0,0,0
17208,30712,51748,0,0,0
17144,30643,51655,0,0,0
17079,30571,51555,0,0,0
17013,30498,51454,0,0,0
16947,30429,51359,0,0,0
16884,30372,51274,0,0,0
16829,30322,51200,0,0,0
16782,30277,51136,0,0,0
16741,30237,51084,0,0,0
16708,30206,51043,0,0,0
16681,30183,51014,0,0,0
16660,30166,50992,0,0,0
16641,30153,50975,0,0,0
16629,30145,50968,0,0,0
16627,30146,50973,0,0,0
16633,30153,50987,0,0,0
16643,30165,51004,0,0,0
16653,30177,51017,0,0,0
16657,30184,51022,0,0,0
16657,30185,51020,0,0,0
16654,30181,51010,0,0,0
16648,30171,50995,0,0,0
16633,30156,50972,0,0,0
16611,30135,50942,0,0,0
16589,30110,50902,0,0,0
16567,30080,50853,0,0,0
16540,30044,50799,0,0,0
16505,30004,50739,0,0,0
16464,29964,50675,0,0,0
16421,29922,50608,0,0,0
16381,29879,50538,0,0,0
16343,29834,50466,0,0,0
16306,29787,50396,0,0,0
16265,29737,50326,0,0,0
16218,29686,50253,0,0,0
16165,29634,50177,0,0,0
16103,29579,50091,0,0,0
16029,29513,49991,0,0,0
15946,29441,49880,0,0,0
15864,29367,49767,0,0,0
15785,29293,49658,0,0,0
15711,29218,49553,0,0,0
15636,29142,49448,0,0,0
15554,29063,49338,0,0,0
15469,28984,49224,0,0,0
15389,28909,49113,0,0,0
15315,28837,49005,0,0,0
15249,28773,48906,0,0,0
15187,28719,48818,0,0,0
15130,28668,48733,0,0,0
15074,28617,48648,0,0,0
15018,28562,48565,0,0,0
14964,28507,48485,0,0,0
14915,28454,48408,0,0,0
14868,28401,48330,0,0,0
14822,28348,48252,0,0,0
14772,28296,48174,0,0,0
14717,28241,48092,0,0,0
14657,28180,48004,0,0,0
14594,28117,47916,0,0,0
14525,28053,47825,0,0,0
14452,27988,47730,0,0,0
14380,27923,47634,0,0,0
14312,27859,47538,0,0,0
14246,27794,47440,0,0,0
14182,27729,47343,0,0,0
14119,27666,47249,0,0,0
14058,27603,47156,0,0,0
13996,27541,47063,0,0,0
13934,27483,46975,0,0,0
13875,27429,46895,0,0,0
13821,27380,46824,0,0,0
13774,27337,46758,0,0,0
13734,27301,46692,0,0,0
13701,27269,46627,0,0,0
13673,27241,46570,0,0,0
13649,27218,46523,0,0,0
13631,27205,46495,0,0,0
13632,27212,46500,0,0,0
13667,27253,46562,0,0,0
13751,27344,46699,0,0,0
13890,27491,46919,0,0,0
14090,27699,47228,0,0,0
14348,27967,47624,0,0,0
14661,28283,48097,0,0,0
15018,28637,48620,0,0,0
15404,29015,49171,0,0,0
15803,29405,49735,0,0,0
16200,29791,50299,0,0,0
16590,30165,50850,0,0,0
16967,30523,51375,0,0,0
17319,30857,51861,0,0,0
17635,31158,52294,0,0,0
17910,31417,52672,0,0,0
18140,31630,52994,0,0,0
18321,31795,53252,0,0,0
18457,31916,53443,0,0,0
18555,32000,53575,0,0,0
18618,32051,53657,0,0,0
18649,32073,53694,0,0,0
18656,32068,53691,0,0,0
18644,32045,53659,0,0,0
18616,32004,53606,0,0,0
18574,31951,53539,0,0,0
18526,31893,53468,0,0,0
18480,31835,53399,0,0,0
18436,31780,53331,0,0,0
18394,31730,53264,0,0,0
18353,31689,53198,0,0,0
18319,31655,53142,0,0,0
18298,31626,53100,0,0,0
18286,31603,53067,0,0,0
18277,31585,53043,0,0,0
18274,31580,53031,0,0,0
18280,31586,53031,0,0,0
18293,31597,53038,0,0,0
18307,31612,53051,0,0,0
18322,31629,53068,0,0,0
18338,31648,53084,0,0,0
18351,31660,53094,0,0,0
18357,31663,53094,0,0,0
18352,31656,53086,0,0,0
18336,31637,53067,0,0,0
18311,31606,53029,0,0,0
18280,31568,52978,0,0,0
18246,31523,52916,0,0,0
18204,31468,52845,0,0,0
18154,31408,52764,0,0,0
18098,31346,52678,0,0,0
18044,31288,52593,0,0,0
17997,31233,52517,0,0,0
17957,31188,52451,0,0,0
17924,31153,52395,0,0,0
17897,31127,52348,0,0,0
17878,31105,52308,0,0,0
17863,31084,52277,0,0,0
17848,31069,52255,0,0,0
17837,31062,52240,0,0,0
17830,31061,52230,0,0,0
17830,31062,52225,0,0,0
17833,31066,52226,0,0,0
17840,31078,52230,0,0,0
17850,31094,52236,0,0,0
17862,31106,52242,0,0,0
17872,31113,52250,0,0,0
17879,31120,52259,0,0,0
17886,31128,52268,0,0,0
17893,31135,52274,0,0,0
17901,31139,52275,0,0,0
17904,31136,52266,0,0,0
17897,31126,52250,0,0,0
17882,31108,52230,0,0,0
17865,31087,52206,0,0,0
17847,31068,52179,0,0,0
17828,31047,52147,0,0,0
17805,31018,52108,0,0,0
17774,30983,52063,0,0,0
17740,30945,52015,0,0,0
17705,30903,51962,0,0,0
17667,30855,51899,0,0,0
17625,30805,51827,0,0,0
17580,30753,51750,0,0,0
17530,30700,51673,0,0,0
17474,30644,51595,0,0,0
17415,30586,51517,0,0,0
17352,30529,51439,0,0,0
17286,30469,51360,0,0,0
17216,30405,51278,0,0,0
17148,30341,51196,0,0,0
17085,30278,51114,0,0,0
17027,30220,51030,0,0,0
16977,30165,50948,0,0,0
16933,30116,50870,0,0,0
16894,30072,50799,0,0,0
16860,30029,50733,0,0,0
16830,29987,50673,0,0,0
16803,29947,50620,0,0,0
16776,29910,50568,0,0,0
16749,29875,50513,0,0,0
16723,29841,50459,0,0,0
16694,29806,50405,0,0,0
16663,29770,50351,0,0,0
16632,29732,50294,0,0,0
16597,29690,50233,0,0,0
16560,29648,50169,0,0,0
16518,29603,50099,0,0,0
16471,29550,50022,0,0,0
16417,29495,49943,0,0,0
16361,29441,49866,0,0,0
16304,29385,49787,0,0,0
16248,29325,49704,0,0,0
16192,29264,49622,0,0,0
16133,29204,49541,0,0,0
16074,29143,49458,0,0,0
16016,29079,49373,0,0,0
15958,29019,49289,0,0,0
15902,28970,49211,0,0,0
15850,28922,49135,0,0,0
15801,28873,49065,0,0,0
15759,28827,49002,0,0,0
15722,28790,48947,0,0,0
15696,28763,48901,0,0,0
15684,28749,48876,0,0,0
15695,28753,48884,0,0,0
15736,28786,48937,0,0,0
15814,28861,49043,0,0,0
15934,28983,49212,0,0,0
16107,29156,49453,0,0,0
16331,29377,49764,0,0,0
16596,29638,50138,0,0,0
16897,29932,50564,0,0,0
17224,30250,51032,0,0,0
17562,30582,51523,0,0,0
17899,30916,52013,0,0,0
18226,31238,52482,0,0,0
18534,31535,52916,0,0,0
18811,31799,53306,0,0,0
19048,32028,53644,0,0,0
19250,32225,53933,0,0,0
19419,32388,54173,0,0,0
19556,32514,54361,0,0,0
19657,32606,54499,0,0,0
19724,32664,54592,0,0,0
19762,32693,54647,0,0,0
19775,32697,54668,0,0,0
19773,32683,54665,0,0,0
19765,32657,54645,0,0,0
19750,32618,54613,0,0,0
19728,32570,54565,0,0,0
19699,32521,54506,0,0,0
19667,32474,54443,0,0,0
19634,32430,54387,0,0,0
19599,32389,54336,0,0,0
19566,32355,54293,0,0,0
19544,32330,54260,0,0,0
19533,32314,54240,0,0,0
19530,32306,54229,0,0,0
19534,32300,54226,0,0,0
19549,32300,54229,0,0,0
19571,32309,54239,0,0,0
19591,32323,54251,0,0,0
19608,32335,54264,0,0,0
19623,32349,54280,0,0,0
19639,32363,54293,0,0,0
19652,32370,54297,0,0,0
19659,32371,54292,0,0,0
19661,32366,54281,0,0,0
19655,32352,54257,0,0,0
19637,32330,54220,0,0,0
19612,32302,54170,0,0,0
19582,32268,54111,0,0,0
19547,32225,54046,0,0,0
19503,32171,53972,0,0,0
19453,32110,53893,0,0,0
19402,32046,53812,0,0,0
19354,31983,53733,0,0,0
19309,31923,53659,0,0,0
19264,31871,53592,0,0,0
19224,31827,53532,0,0,0
19187,31789,53478,0,0,0
19154,31754,53430,0,0,0
19131,31724,53391,0,0,0
19119,31704,53364,0,0,0
19109,31695,53349,0,0,0
19099,31689,53339,0,0,0
19092,31687,53335,0,0,0
19091,31686,53337,0,0,0
19093,31684,53341,0,0,0
19095,31680,53343,0,0,0
19098,31679,53344,0,0,0
19103,31682,53350,0,0,0
19111,31690,53359,0,0,0
19120,31697,53365,0,0,0
19128,31699,53364,0,0,0
19135,31699,53357,0,0,0
19139,31698,53346,0,0,0
19142,31694,53331,0,0,0
19138,31682,53313,0,0,0
19126,31663,53290,0,0,0
19106,31641,53260,0,0,0
19082,31615,53222,0,0,0
19053,31583,53180,0,0,0
19020,31545,53134,0,0,0
18985,31501,53082,0,0,0
18944,31451,53020,0,0,0
18900,31398,52949,0,0,0
18854,31343,52873,0,0,0
18807,31287,52795,0,0,0
18758,31228,52717,0,0,0
18705,31172,52637,0,0,0
18650,31119,52557,0,0,0
18600,31073,52480,0,0,0
18557,31030,52405,0,0,0
18519,30989,52336,0,0,0
18481,30949,52274,0,0,0
18447,30912,52216,0,0,0
18415,30876,52160,0,0,0
18382,30840,52106,0,0,0
18347,30803,52051,0,0,0
18312,30766,51997,0,0,0
18277,30729,51945,0,0,0
18241,30691,51893,0,0,0
18203,30650,51840,0,0,0
18163,30608,51789,0,0,0
18123,30567,51737,0,0,0
18083,30529,51685,0,0,0
18046,30493,51634,0,0,0
18014,30457,51583,0,0,0
17983,30417,51529,0,0,0
17953,30375,51472,0,0,0
17925,30330,51415,0,0,0
17895,30283,51357,0,0,0
17861,30239,51298,0,0,0
17825,30198,51238,0,0,0
17786,30153,51174,0,0,0
17743,30104,51106,0,0,0
17699,30057,51034,0,0,0
17656,30018,50963,0,0,0
17612,29980,50890,0,0,0
17564,29937,50815,0,0,0
17515,29890,50741,0,0,0
17469,29848,50678,0,0,0
17424,29810,50622,0,0,0
17380,29771,50570,0,0,0
17343,29735,50522,0,0,0
17314,29704,50475,0,0,0
17291,29676,50427,0,0,0
17276,29649,50380,0,0,0
17262,29626,50342,0,0,0
17250,29611,50319,0,0,0
17250,29612,50318,0,0,0
17275,29637,50347,0,0,0
17330,29692,50418,0,0,0
17418,29781,50540,0,0,0
17546,29911,50723,0,0,0
17723,30083,50971,0,0,0
17947,30298,51282,0,0,0
18210,30556,51650,0,0,0
18501,30845,52056,0,0,0
18808,31149,52485,0,0,0
19116,31453,52920,0,0,0
19412,31746,53344,0,0,0
19693,32018,53745,0,0,0
19956,32264,54116,0,0,0
20194,32482,54450,0,0,0
20405,32672,54741,0,0,0
20588,32832,54987,0,0,0
20741,32961,55192,0,0,0
20860,33063,55355,0,0,0
20947,33134,55473,0,0,0
21005,33176,55551,0,0,0
21038,33195,55596,0,0,0
21050,33198,55615,0,0,0
21046,33188,55613,0,0,0
21034,33167,55595,0,0,0
21013,33139,55562,0,0,0
20987,33106,55517,0,0,0
20958,33070,55466,0,0,0
20929,33031,55410,0,0,0
20899,32992,55356,0,0,0
20871,32962,55309,0,0,0
20850,32938,55273,0,0,0
20833,32917,55245,0,0,0
20823,32902,55228,0,0,0
20825,32897,55222,0,0,0
20840,32901,55224,0,0,0
20860,32909,55232,0,0,0
20881,32919,55243,0,0,0
20902,32932,55255,0,0,0
20919,32942,55264,0,0,0
20937,32947,55273,0,0,0
20954,32949,55284,0,0,0
20966,32945,55290,0,0,0
20968,32933,55285,0,0,0
20958,32916,55270,0,0,0
20940,32892,55247,0,0,0
20918,32864,55211,0,0,0
20887,32828,55159,0,0,0
20848,32786,55095,0,0,0
20807,32743,55026,0,0,0
20763,32696,54954,0,0,0
20716,32645,54877,0,0,0
20671,32595,54801,0,0,0
20627,32545,54728,0,0,0
20584,32497,54660,0,0,0
20546,32453,54598,0,0,0
20519,32418,54543,0,0,0
20499,32391,54495,0,0,0
20483,32367,54452,0,0,0
20469,32344,54418,0,0,0
20459,32325,54393,0,0,0
20449,32310,54372,0,0,0
20442,32301,54355,0,0,0
20440,32297,54346,0,0,0
20439,32298,54340,0,0,0
20436,32301,54333,0,0,0
20429,32301,54326,0,0,0
20419,32294,54316,0,0,0
20408,32283,54303,0,0,0
20396,32274,54294,0,0,0
20383,32266,54286,0,0,0
20370,32256,54275,0,0,0
20357,32243,54260,0,0,0
20343,32226,54241,0,0,0
20331,32204,54220,0,0,0
20319,32181,54195,0,0,0
20304,32159,54165,0,0,0
20283,32138,54131,0,0,0
20260,32110,54092,0,0,0
20236,32076,54047,0,0,0
20212,32039,54001,0,0,0
20186,32001,53952,0,0,0
20154,31958,53897,0,0,0
20111,31909,53836,0,0,0
20064,31860,53770,0,0,0
20015,31809,53698,0,0,0
19965,31756,53624,0,0,0
19914,31702,53551,0,0,0
19866,31651,53479,0,0,0
19820,31603,53409,0,0,0
19772,31552,53341,0,0,0
19723,31498,53274,0,0,0
19669,31441,53204,0,0,0
19613,31384,53129,0,0,0
19557,31330,53052,0,0,0
19503,31281,52977,0,0,0
19451,31234,52906,0,0,0
19401,31188,52835,0,0,0
19349,31141,52762,0,0,0
19296,31096,52689,0,0,0
19247,31051,52622,0,0,0
19203,31005,52564,0,0,0
19169,30960,52512,0,0,0
19138,30920,52462,0,0,0
19103,30885,52413,0,0,0
19064,30851,52362,0,0,0
19024,30813,52309,0,0,0
18990,30777,52257,0,0,0
18966,30746,52210,0,0,0
18943,30721,52169,0,0,0
18919,30697,52128,0,0,0
18898,30674,52089,0,0,0
18882,30653,52053,0,0,0
18866,30630,52019,0,0,0
18845,30603,51986,0,0,0
18821,30577,51954,0,0,0
18796,30557,51925,0,0,0
18772,30539,51894,0,0,0
18751,30515,51859,0,0,0
18735,30491,51824,0,0,0
18724,30469,51789,0,0,0
18712,30447,51746,0,0,0
18697,30422,51698,0,0,0
18680,30396,51649,0,0,0
18660,30370,51600,0,0,0
18633,30343,51552,0,0,0
18598,30313,51503,0,0,0
18559,30279,51450,0,0,0
18515,30244,51394,0,0,0
18470,30207,51336,0,0,0
18420,30167,51274,0,0,0
18368,30123,51205,0,0,0
18315,30074,51130,0,0,0
18262,30020,51048,0,0,0
18209,29964,50968,0,0,0
18154,29913,50893,0,0,0
18101,29865,50825,0,0,0
18050,29818,50759,0,0,0
18006,29776,50696,0,0,0
17970,29743,50641,0,0,0
17945,29722,50603,0,0,0
17937,29719,50599,0,0,0
17956,29743,50641,0,0,0
18018,29809,50742,0,0,0
18133,29927,50915,0,0,0
18304,30099,51166,0,0,0
18530,30324,51493,0,0,0
18799,30594,51880,0,0,0
19102,30895,52310,0,0,0
19426,31214,52768,0,0,0
19761,31538,53238,0,0,0
20094,31854,53701,0,0,0
20410,32156,54142,0,0,0
20698,32432,54548,0,0,0
20951,32672,54912,0,0,0
21165,32872,55225,0,0,0
21339,33032,55484,0,0,0
21476,33155,55691,0,0,0
21580,33244,55849,0,0,0
21651,33302,55960,0,0,0
21691,33332,56025,0,0,0
21702,33340,56053,0,0,0
21693,33330,56051,0,0,0
21670,33307,56027,0,0,0
21640,33273,55988,0,0,0
21605,33232,55935,0,0,0
21567,33187,55876,0,0,0
21525,33142,55811,0,0,0
21482,33099,55742,0,0,0
21446,33061,55678,0,0,0
21419,33027,55622,0,0,0
21402,32994,55577,0,0,0
21395,32967,55545,0,0,0
21396,32948,55526,0,0,0
21401,32939,55518,0,0,0
21407,32941,55516,0,0,0
21415,32952,55521,0,0,0
21426,32968,55528,0,0,0
21440,32985,55537,0,0,0
21455,33000,55546,0,0,0
21468,33009,55555,0,0,0
21480,33011,55564,0,0,0
21490,33011,55575,0,0,0
21497,33008,55582,0,0,0
21494,32998,55575,0,0,0
21481,32980,55552,0,0,0
21456,32954,55515,0,0,0
21424,32921,55466,0,0,0
21391,32882,55409,0,0,0
21358,32840,55346,0,0,0
21321,32794,55278,0,0,0
21278,32746,55204,0,0,0
21232,32694,55128,0,0,0
21184,32643,55055,0,0,0
21137,32595,54990,0,0,0
21095,32553,54929,0,0,0
21058,32516,54874,0,0,0
21030,32485,54828,0,0,0
21011,32459,54790,0,0,0
20995,32434,54759,0,0,0
20981,32415,54731,0,0,0
20974,32404,54711,0,0,0
20975,32401,54701,0,0,0
20980,32399,54695,0,0,0
20982,32398,54691,0,0,0
20981,32400,54690,0,0,0
20982,32404,54691,0,0,0
20986,32407,54691,0,0,0
20995,32411,54693,0,0,0
21003,32413,54698,0,0,0
21004,32414,54700,0,0,0
20999,32412,54694,0,0,0
20992,32407,54684,0,0,0
20985,32401,54675,0,0,0
20975,32390,54664,0,0,0
20960,32374,54647,0,0,0
20943,32355,54624,0,0,0
20922,32335,54594,0,0,0
20897,32313,54557,0,0,0
20871,32287,54512,0,0,0
20847,32257,54463,0,0,0
20824,32224,54414,0,0,0
20796,32188,54362,0,0,0
20767,32148,54305,0,0,0
20736,32110,54245,0,0,0
20699,32071,54181,0,0,0
20654,32030,54114,0,0,0
20609,31988,54046,0,0,0
20565,31945,53981,0,0,0
20521,31903,53920,0,0,0
20478,31860,53859,0,0,0
20439,31818,53796,0,0,0
20405,31779,53732,0,0,0
20371,31741,53669,0,0,0
20336,31700,53609,0,0,0
20301,31657,53552,0,0,0
20265,31617,53496,0,0,0
20228,31577,53439,0,0,0
20190,31537,53379,0,0,0
20154,31498,53319,0,0,0
20116,31459,53262,0,0,0
20077,31423,53209,0,0,0
20033,31387,53156,0,0,0
19986,31350,53100,0,0,0
19939,31316,53044,0,0,0
19900,31286,52992,0,0,0
19872,31256,52946,0,0,0
19849,31225,52907,0,0,0
19831,31197,52878,0,0,0
19819,31178,52856,0,0,0
19810,31166,52839,0,0,0
19805,31159,52824,0,0,0
19807,31158,52814,0,0,0
19810,31160,52804,0,0,0
19812,31158,52789,0,0,0
19816,31155,52770,0,0,0
19821,31152,52750,0,0,0
19823,31148,52730,0,0,0
19817,31141,52707,0,0,0
19803,31126,52678,0,0,0
19780,31105,52643,0,0,0
19752,31081,52605,0,0,0
19723,31054,52563,0,0,0
19697,31025,52522,0,0,0
19672,30997,52481,0,0,0
19646,30970,52438,0,0,0
19617,30942,52391,0,0,0
19585,30911,52341,0,0,0
19551,30874,52287,0,0,0
19517,30834,52232,0,0,0
19485,30796,52180,0,0,0
19454,30759,52130,0,0,0
19421,30723,52079,0,0,0
19384,30687,52027,0,0,0
19344,30649,51971,0,0,0
19307,30610,51911,0,0,0
19276,30573,51853,0,0,0
19248,30538,51803,0,0,0
19222,30507,51761,0,0,0
19201,30485,51728,0,0,0
19188,30479,51712,0,0,0
19190,30494,51725,0,0,0
19223,30540,51781,0,0,0
19299,30630,51899,0,0,0
19422,30767,52084,0,0,0
19591,30950,52332,0,0,0
19802,31170,52637,0,0,0
20047,31422,52991,0,0,0
20318,31695,53380,0,0,0
20602,31978,53789,0,0,0
20889,32259,54203,0,0,0
21171,32532,54606,0,0,0
21436,32786,54988,0,0,0
21677,33014,55342,0,0,0
21889,33213,55661,0,0,0
22076,33382,55939,0,0,0
22236,33523,56179,0,0,0
22363,33638,56377,0,0,0
22461,33729,56529,0,0,0
22532,33794,56634,0,0,0
22578,33832,56699,0,0,0
22603,33847,56732,0,0,0
22612,33842,56741,0,0,0
22606,33820,56728,0,0,0
22588,33784,56694,0,0,0
22559,33741,56644,0,0,0
22523,33695,56580,0,0,0
22486,33652,56510,0,0,0
22450,33609,56443,0,0,0
22419,33567,56385,0,0,0
22388,33528,56336,0,0,0
22358,33497,56298,0,0,0
22334,33477,56268,0,0,0
22320,33466,56244,0,0,0
22318,33461,56228,0,0,0
22324,33460,56223,0,0,0
22334,33464,56228,0,0,0
22345,33473,56235,0,0,0
22358,33483,56245,0,0,0
22373,33495,56259,0,0,0
22387,33509,56276,0,0,0
22398,33522,56291,0,0,0
22405,33529,56299,0,0,0
22405,33524,56295,0,0,0
22395,33506,56276,0,0,0
22375,33476,56242,0,0,0
22345,33435,56193,0,0,0
22303,33385,56130,0,0,0
22250,33333,56058,0,0,0
22194,33283,55984,0,0,0
22140,33236,55911,0,0,0
22081,33187,55837,0,0,0
22019,33134,55761,0,0,0
21962,33082,55685,0,0,0
21917,33038,55616,0,0,0
21885,33000,55558,0,0,0
21861,32962,55509,0,0,0
21844,32929,55467,0,0,0
21832,32904,55433,0,0,0
21823,32885,55408,0,0,0
21812,32869,55392,0,0,0
21803,32859,55384,0,0,0
21802,32858,55384,0,0,0
21807,32863,55387,0,0,0
21814,32869,55386,0,0,0
21824,32875,55388,0,0,0
21835,32879,55396,0,0,0
21843,32881,55402,0,0,0
21847,32882,55403,0,0,0
21843,32878,55397,0,0,0
21834,32870,55382,0,0,0
21820,32858,55358,0,0,0
21805,32847,55327,0,0,0
21789,32833,55293,0,0,0
21773,32816,55259,0,0,0
21758,32795,55227,0,0,0
21739,32769,55194,0,0,0
21715,32737,55158,0,0,0
21686,32700,55119,0,0,0
21651,32662,55074,0,0,0
21615,32624,55025,0,0,0
21583,32588,54975,0,0,0
21553,32551,54924,0,0,0
21520,32511,54870,0,0,0
21478,32467,54811,0,0,0
21431,32420,54744,0,0,0
21381,32371,54671,0,0,0
21331,32321,54597,0,0,0
21284,32275,54528,0,0,0
21239,32238,54466,0,0,0
21196,32204,54409,0,0,0
21153,32166,54354,0,0,0
21110,32125,54295,0,0,0
21068,32084,54233,0,0,0
21028,32045,54166,0,0,0
20990,32007,54097,0,0,0
20956,31969,54028,0,0,0
20927,31931,53964,0,0,0
20899,31893,53905,0,0,0
20866,31855,53848,0,0,0
20829,31817,53792,0,0,0
20788,31782,53738,0,0,0
20743,31745,53684,0,0,0
20701,31708,53633,0,0,0
20663,31675,53588,0,0,0
20629,31645,53548,0,0,0
20596,31613,53504,0,0,0
20563,31577,53453,0,0,0
20532,31542,53400,0,0,0
20506,31512,53354,0,0,0
20480,31484,53314,0,0,0
20452,31457,53277,0,0,0
20421,31430,53241,0,0,0
20391,31406,53205,0,0,0
20367,31384,53170,0,0,0
20351,31366,53135,0,0,0
20342,31349,53104,0,0,0
20336,31337,53077,0,0,0
20326,31321,53048,0,0,0
20311,31302,53012,0,0,0
20295,31284,52975,0,0,0
20278,31267,52940,0,0,0
20258,31245,52903,0,0,0
20238,31221,52864,0,0,0
20219,31199,52827,0,0,0
20201,31181,52791,0,0,0
20183,31165,52758,0,0,0
20163,31149,52724,0,0,0
20142,31130,52685,0,0,0
20116,31109,52643,0,0,0
20085,31081,52597,0,0,0
20054,31049,52545,0,0,0
20023,31012,52487,0,0,0
19989,30970,52427,0,0,0
19950,30925,52365,0,0,0
19905,30877,52300,0,0,0
19858,30828,52228,0,0,0
19808,30779,52149,0,0,0
19755,30729,52067,0,0,0
19703,30682,51988,0,0,0
19658,30637,51918,0,0,0
19620,30597,51864,0,0,0
19590,30567,51830,0,0,0
19578,30562,51828,0,0,0
19599,30594,51870,0,0,0
19663,30669,51971,0,0,0
19779,30794,52149,0,0,0
19947,30973,52410,0,0,0
20169,31205,52746,0,0,0
20438,31476,53138,0,0,0
20739,31774,53570,0,0,0
21058,32088,54024,0,0,0
21379,32407,54486,0,0,0
21692,32717,54937,0,0,0
21989,33008,55365,0,0,0
22265,33274,55763,0,0,0
22516,33511,56124,0,0,0
22736,33718,56444,0,0,0
22921,33893,56717,0,0,0
23073,34035,56942,0,0,0
23195,34144,57118,0,0,0
23285,34222,57244,0,0,0
23343,34270,57328,0,0,0
23376,34294,57375,0,0,0
23386,34299,57392,0,0,0
23373,34285,57378,0,0,0
23345,34255,57339,0,0,0
23310,34214,57282,0,0,0
23270,34165,57214,0,0,0
23231,34111,57143,0,0,0
23192,34056,57074,0,0,0
23151,34005,57009,0,0,0
23109,33963,56952,0,0,0
23072,33929,56903,0,0,0
23041,33905,56861,0,0,0
23014,33885,56823,0,0,0
22991,33866,56787,0,0,0
22972,33848,56757,0,0,0
22959,33831,56734,0,0,0
22954,33816,56722,0,0,0
22958,33806,56722,0,0,0
22967,33803,56729,0,0,0
22979,33806,56739,0,0,0
22995,33813,56748,0,0,0
23009,33821,56756,0,0,0
23013,33822,56756,0,0,0
23009,33818,56745,0,0,0
22996,33810,56723,0,0,0
22970,33790,56686,0,0,0
22932,33753,56633,0,0,0
22885,33701,56566,0,0,0
22834,33642,56493,0,0,0
22777,33577,56412,0,0,0
22713,33509,56323,0,0,0
22646,33442,56231,0,0,0
22583,33379,56141,0,0,0
22527,33324,56056,0,0,0
22481,33275,55981,0,0,0
22441,33229,55917,0,0,0
22405,33187,55866,0,0,0
22372,33152,55824,0,0,0
22339,33124,55787,0,0,0
22308,33104,55752,0,0,0
22281,33090,55724,0,0,0
22260,33078,55702,0,0,0
22245,33064,55685,0,0,0
22234,33052,55674,0,0,0
22225,33042,55671,0,0,0
22218,33035,55671,0,0,0
22213,33031,55670,0,0,0
22211,33028,55669,0,0,0
22213,33026,55668,0,0,0
22221,33024,55664,0,0,0
22231,33018,55655,0,0,0
22236,33008,55644,0,0,0
22237,32999,55633,0,0,0
22232,32987,55618,0,0,0
22219,32970,55594,0,0,0
22198,32950,55561,0,0,0
22168,32929,55521,0,0,0
22132,32905,55475,0,0,0
22095,32876,55424,0,0,0
22057,32841,55370,0,0,0
22015,32801,55314,0,0,0
21971,32757,55252,0,0,0
21922,32710,55183,0,0,0
21872,32662,55112,0,0,0
21822,32615,55042,0,0,0
21771,32564,54972,0,0,0
21718,32509,54899,0,0,0
21661,32450,54820,0,0,0
21602,32388,54732,0,0,0
21543,32324,54640,0,0,0
21485,32261,54549,0,0,0
21424,32199,54462,0,0,0
21363,32139,54379,0,0,0
21308,32085,54301,0,0,0
21260,32036,54227,0,0,0
21217,31987,54157,0,0,0
21171,31935,54086,0,0,0
21120,31882,54014,0,0,0
21069,31831,53943,0,0,0
21019,31784,53872,0,0,0
20972,31739,53800,0,0,0
20922,31695,53726,0,0,0
20869,31654,53649,0,0,0
20815,31614,53573,0,0,0
20760,31575,53500,0,0,0
20711,31534,53431,0,0,0
20668,31491,53367,0,0,0
20633,31450,53306,0,0,0
20601,31410,53251,0,0,0
20570,31372,53203,0,0,0
20541,31337,53163,0,0,0
20511,31305,53124,0,0,0
20479,31274,53082,0,0,0
20442,31245,53036,0,0,0
20405,31221,52992,0,0,0
20371,31202,52950,0,0,0
20342,31182,52911,0,0,0
20314,31159,52869,0,0,0
20288,31135,52829,0,0,0
20266,31111,52792,0,0,0
20246,31084,52754,0,0,0
20228,31059,52718,0,0,0
20209,31037,52685,0,0,0
20186,31014,52648,0,0,0
20158,30987,52607,0,0,0
20130,30957,52565,0,0,0
20103,30928,52524,0,0,0
20073,30903,52479,0,0,0
20042,30874,52429,0,0,0
20009,30841,52378,0,0,0
19972,30806,52324,0,0,0
19928,30768,52266,0,0,0
19874,30725,52200,0,0,0
19813,30677,52125,0,0,0
19749,30622,52041,0,0,0
19682,30559,51952,0,0,0
19615,30491,51860,0,0,0
19547,30418,51763,0,0,0
19475,30344,51661,0,0,0
19400,30268,51553,0,0,0
19324,30190,51441,0,0,0
19252,30115,51335,0,0,0
19190,30053,51240,0,0,0
19142,30005,51162,0,0,0
19107,29969,51105,0,0,0
19092,29960,51083,0,0,0
19110,29986,51109,0,0,0
19170,30055,51200,0,0,0
19283,30177,51372,0,0,0
19458,30363,51634,0,0,0
19695,30610,51988,0,0,0
19987,30913,52420,0,0,0
20319,31255,52907,0,0,0
20676,31622,53426,0,0,0
21043,31999,53960,0,0,0
21407,32368,54489,0,0,0
21755,32718,54997,0,0,0
22080,33043,55472,0,0,0
22374,33331,55900,0,0,0
22631,33577,56274,0,0,0
22850,33782,56593,0,0,0
23030,33946,56857,0,0,0
23170,34071,57062,0,0,0
23276,34159,57211,0,0,0
23351,34216,57312,0,0,0
23399,34248,57373,0,0,0
23418,34252,57394,0,0,0
23408,34231,57375,0,0,0
23375,34192,57327,0,0,0
23326,34140,57263,0,0,0
23266,34079,57187,0,0,0
23199,34014,57101,0,0,0
23132,33950,57010,0,0,0
23068,33887,56923,0,0,0
23010,33825,56843,0,0,0
22960,33766,56772,0,0,0
22920,33716,56714,0,0,0
22888,33677,56667,0,0,0
22862,33647,56629,0,0,0
22847,33626,56600,0,0,0
22846,33613,56583,0,0,0
22853,33608,56578,0,0,0
22859,33605,56580,0,0,0
22863,33606,56583,0,0,0
22868,33613,56588,0,0,0
22877,33624,56592,0,0,0
22887,33636,56594,0,0,0
22897,33642,56592,0,0,0
22903,33646,56586,0,0,0
22901,33645,56574,0,0,0
22886,33633,56546,0,0,0
22862,33605,56502,0,0,0
22835,33566,56447,0,0,0
22801,33520,56385,0,0,0
22758,33470,56318,0,0,0
22710,33420,56246,0,0,0
22661,33369,56172,0,0,0
22611,33314,56095,0,0,0
22557,33253,56019,0,0,0
22501,33190,55944,0,0,0
22447,33131,55872,0,0,0
22395,33079,55805,0,0,0
22348,33033,55744,0,0,0
22310,32995,55691,0,0,0
22287,32969,55651,0,0,0
22278,32956,55629,0,0,0
22277,32953,55620,0,0,0
22282,32958,55622,0,0,0
22292,32971,55636,0,0,0
22306,32988,55656,0,0,0
22321,33006,55676,0,0,0
22336,33021,55696,0,0,0
22353,33034,55716,0,0,0
22365,33041,55732,0,0,0
22366,33039,55736,0,0,0
22358,33031,55728,0,0,0
22346,33020,55710,0,0,0
22330,33003,55684,0,0,0
22307,32979,55651,0,0,0
22281,32952,55614,0,0,0
22251,32926,55575,0,0,0
22219,32899,55531,0,0,0
22186,32872,55481,0,0,0
22153,32843,55428,0,0,0
22117,32809,55373,0,0,0
22076,32767,55315,0,0,0
22028,32717,55249,0,0,0
21976,32665,55180,0,0,0
21923,32614,55110,0,0,0
21869,32565,55039,0,0,0
21817,32515,54964,0,0,0
21766,32462,54887,0,0,0
21717,32406,54815,0,0,0
21669,32349,54745,0,0,0
21622,32295,54671,0,0,0
21570,32243,54590,0,0,0
21512,32189,54502,0,0,0
21449,32131,54411,0,0,0
21387,32067,54319,0,0,0
21328,32003,54229,0,0,0
21273,31942,54143,0,0,0
21223,31885,54062,0,0,0
21178,31826,53984,0,0,0
21135,31771,53909,0,0,0
21092,31722,53839,0,0,0
21046,31676,53771,0,0,0
20996,31628,53701,0,0,0
20945,31579,53629,0,0,0
20897,31531,53559,0,0,0
20853,31483,53487,0,0,0
20815,31441,53418,0,0,0
20778,31405,53357,0,0,0
20740,31371,53301,0,0,0
20700,31338,53243,0,0,0
20661,31306,53184,0,0,0
20626,31275,53129,0,0,0
20598,31247,53083,0,0,0
20577,31223,53044,0,0,0
20558,31203,53009,0,0,0
20543,31185,52977,0,0,0
20530,31166,52947,0,0,0
20517,31145,52919,0,0,0
20503,31125,52895,0,0,0
20488,31107,52871,0,0,0
20472,31086,52838,0,0,0
20454,31060,52797,0,0,0
20433,31030,52752,0,0,0
20406,31000,52706,0,0,0
20375,30968,52653,0,0,0
20338,30933,52596,0,0,0
20299,30896,52534,0,0,0
20260,30856,52469,0,0,0
20221,30811,52405,0,0,0
20181,30764,52344,0,0,0
20141,30717,52284,0,0,0
20101,30674,52225,0,0,0
20060,30630,52163,0,0,0
20016,30584,52095,0,0,0
19969,30535,52026,0,0,0
19923,30484,51959,0,0,0
19872,30429,51892,0,0,0
19819,30372,51823,0,0,0
19770,30318,51753,0,0,0
19725,30267,51684,0,0,0
19681,30218,51613,0,0,0
19641,30178,51547,0,0,0
19614,30156,51501,0,0,0
19617,30166,51496,0,0,0
19665,30220,51551,0,0,0
19766,30327,51685,0,0,0
19928,30497,51913,0,0,0
20154,30732,52238,0,0,0
20436,31025,52645,0,0,0
20762,31362,53117,0,0,0
21115,31730,53633,0,0,0
21477,32109,54172,0,0,0
21836,32479,54708,0,0,0
22183,32827,55222,0,0,0
22511,33145,55698,0,0,0
22812,33427,56128,0,0,0
23080,33672,56508,0,0,0
23312,33885,56834,0,0,0
23506,34063,57107,0,0,0
23663,34204,57324,0,0,0
23781,34303,57484,0,0,0
23860,34367,57594,0,0,0
23908,34402,57658,0,0,0
23931,34407,57681,0,0,0
23930,34386,57669,0,0,0
23911,34349,57633,0,0,0
23879,34303,57581,0,0,0
23835,34248,57513,0,0,0
23781,34185,57433,0,0,0
23721,34120,57346,0,0,0
23656,34057,57259,0,0,0
23592,33994,57173,0,0,0
23534,33931,57091,0,0,0
23488,33874,57017,0,0,0
23448,33825,56957,0,0,0
23414,33784,56909,0,0,0
23390,33754,56874,0,0,0
23381,33737,56856,0,0,0
23381,33731,56851,0,0,0
23386,33732,56852,0,0,0
23395,33742,56857,0,0,0
23408,33759,56867,0,0,0
23423,33775,56881,0,0,0
23436,33785,56893,0,0,0
23446,33786,56897,0,0,0
23447,33778,56890,0,0,0
23436,33758,56870,0,0,0
23410,33726,56838,0,0,0
23377,33686,56793,0,0,0
23337,33641,56737,0,0,0
23292,33595,56669,0,0,0
23242,33545,56592,0,0,0
23188,33492,56511,0,0,0
23131,33436,56427,0,0,0
23072,33374,56341,0,0,0
23013,33310,56254,0,0,0
22958,33248,56173,0,0,0
22907,33190,56096,0,0,0
22860,33135,56024,0,0,0
22817,33088,55960,0,0,0
22783,33048,55909,0,0,0
22758,33016,55867,0,0,0
22738,32991,55833,0,0,0
22723,32979,55808,0,0,0
22714,32977,55795,0,0,0
22712,32978,55794,0,0,0
22714,32979,55797,0,0,0
22720,32980,55801,0,0,0
22732,32986,55807,0,0,0
22746,32995,55816,0,0,0
22759,33006,55825,0,0,0
22770,33014,55830,0,0,0
22779,33018,55831,0,0,0
22788,33017,55825,0,0,0
22792,33011,55814,0,0,0
22789,33002,55800,0,0,0
22779,32991,55778,0,0,0
22762,32976,55748,0,0,0
22743,32958,55713,0,0,0
22726,32939,55677,0,0,0
22708,32916,55641,0,0,0
22685,32885,55599,0,0,0
22654,32844,55549,0,0,0
22617,32799,55493,0,0,0
22575,32751,55435,0,0,0
22529,32701,55375,0,0,0
22480,32647,55309,0,0,0
22432,32591,55241,0,0,0
22385,32537,55173,0,0,0
22335,32487,55106,0,0,0
22284,32437,55035,0,0,0
22236,32385,54957,0,0,0
22188,32328,54873,0,0,0
22142,32270,54787,0,0,0
22092,32212,54699,0,0,0
22035,32157,54611,0,0,0
21974,32104,54525,0,0,0
21913,32052,54443,0,0,0
21853,32001,54366,0,0,0
21794,31951,54294,0,0,0
21735,31901,54223,0,0,0
21677,31851,54149,0,0,0
21625,31803,54074,0,0,0
21580,31758,54002,0,0,0
21541,31714,53936,0,0,0
21502,31668,53872,0,0,0
21464,31620,53808,0,0,0
21426,31574,53743,0,0,0
21388,31532,53678,0,0,0
21348,31490,53607,0,0,0
21304,31443,53530,0,0,0
21258,31392,53453,0,0,0
21214,31342,53382,0,0,0
21177,31297,53316,0,0,0
21146,31261,53261,0,0,0
21123,31236,53216,0,0,0
21105,31217,53180,0,0,0
21089,31199,53149,0,0,0
21075,31182,53119,0,0,0
21066,31173,53093,0,0,0
21060,31167,53068,0,0,0
21053,31162,53042,0,0,0
21040,31150,53013,0,0,0
21019,31130,52979,0,0,0
20993,31102,52938,0,0,0
20959,31065,52888,0,0,0
20920,31022,52832,0,0,0
20877,30977,52770,0,0,0
20830,30929,52705,0,0,0
20784,30878,52639,0,0,0
20738,30826,52570,0,0,0
20691,30774,52500,0,0,0
20644,30722,52429,0,0,0
20598,30670,52357,0,0,0
20554,30618,52283,0,0,0
20512,30567,52207,0,0,0
20470,30521,52129,0,0,0
20430,30480,52053,0,0,0
20393,30439,51977,0,0,0
20353,30398,51903,0,0,0
20309,30356,51835,0,0,0
20271,30321,51783,0,0,0
20250,30306,51760,0,0,0
20257,30321,51780,0,0,0
20300,30375,51856,0,0,0
20396,30480,52001,0,0,0
20555,30648,52233,0,0,0
20778,30879,52556,0,0,0
21054,31160,52955,0,0,0
21372,31481,53414,0,0,0
21716,31831,53915,0,0,0
22072,32193,54434,0,0,0
22425,32549,54946,0,0,0
22764,32883,55431,0,0,0
23082,33187,55882,0,0,0
23371,33459,56292,0,0,0
23625,33695,56651,0,0,0
23838,33893,56957,0,0,0
24014,34053,57207,0,0,0
24152,34176,57401,0,0,0
24254,34261,57542,0,0,0
24316,34309,57634,0,0,0
24345,34328,57681,0,0,0
24348,34322,57688,0,0,0
24330,34296,57660,0,0,0
24299,34253,57605,0,0,0
24261,34198,57533,0,0,0
24214,34136,57450,0,0,0
24162,34070,57361,0,0,0
24106,34005,57270,0,0,0
24047,33943,57180,0,0,0
23987,33885,57093,0,0,0
23930,33829,57011,0,0,0
23877,33777,56935,0,0,0
23831,33733,56868,0,0,0
23795,33697,56813,0,0,0
23770,33669,56769,0,0,0
23756,33648,56739,0,0,0
23750,33633,56721,0,0,0
23747,33625,56713,0,0,0
23745,33623,56711,0,0,0
23746,33624,56711,0,0,0
23749,33627,56713,0,0,0
23752,33630,56715,0,0,0
23754,33631,56713,0,0,0
23751,33625,56703,0,0,0
23743,33614,56683,0,0,0
23730,33596,56651,0,0,0
23708,33568,56606,0,0,0
23673,33524,56548,0,0,0
23624,33468,56478,0,0,0
23564,33406,56400,0,0,0
23500,33343,56318,0,0,0
23436,33282,56232,0,0,0
23372,33221,56141,0,0,0
23302,33155,56047,0,0,0
23232,33086,55950,0,0,0
23164,33017,55855,0,0,0
23100,32948,55769,0,0,0
23045,32884,55695,0,0,0
23001,32829,55634,0,0,0
22966,32788,55585,0,0,0
22938,32759,55546,0,0,0
22916,32740,55515,0,0,0
22903,32728,55491,0,0,0
22899,32722,55478,0,0,0
22904,32723,55479,0,0,0
22916,32731,55489,0,0,0
22928,32744,55503,0,0,0
22939,32758,55514,0,0,0
22947,32770,55523,0,0,0
22953,32778,55529,0,0,0
22957,32782,55532,0,0,0
22962,32784,55529,0,0,0
22964,32781,55518,0,0,0
22961,32770,55504,0,0,0
22955,32754,55487,0,0,0
22943,32734,55464,0,0,0
22922,32708,55429,0,0,0
22895,32675,55383,0,0,0
22863,32638,55334,0,0,0
22823,32598,55284,0,0,0
22774,32552,55227,0,0,0
22715,32498,55164,0,0,0
22652,32440,55094,0,0,0
22589,32381,55018,0,0,0
22526,32325,54937,0,0,0
22463,32268,54851,0,0,0
22403,32211,54768,0,0,0
22348,32159,54691,0,0,0
22297,32111,54614,0,0,0
22249,32061,54530,0,0,0
22203,32007,54443,0,0,0
22159,31952,54360,0,0,0
22113,31897,54277,0,0,0
22062,31839,54192,0,0,0
22008,31781,54108,0,0,0
21956,31726,54029,0,0,0
21900,31668,53947,0,0,0
21838,31606,53861,0,0,0
21771,31540,53770,0,0,0
21701,31474,53678,0,0,0
21631,31410,53590,0,0,0
21565,31351,53507,0,0,0
21506,31300,53426,0,0,0
21452,31254,53345,0,0,0
21401,31209,53266,0,0,0
21356,31168,53191,0,0,0
21319,31129,53120,0,0,0
21283,31090,53053,0,0,0
21244,31051,52991,0,0,0
21205,31014,52934,0,0,0
21168,30979,52879,0,0,0
21135,30942,52826,0,0,0
21105,30905,52774,0,0,0
21075,30872,52722,0,0,0
21045,30841,52671,0,0,0
21014,30810,52623,0,0,0
20982,30778,52574,0,0,0
20947,30746,52522,0,0,0
20911,30713,52470,0,0,0
20874,30678,52418,0,0,0
20832,30639,52362,0,0,0
20786,30596,52303,0,0,0
20740,30554,52243,0,0,0
20696,30510,52181,0,0,0
20652,30463,52117,0,0,0
20608,30418,52055,0,0,0
20564,30376,51995,0,0,0
20521,30335,51938,0,0,0
20478,30292,51878,0,0,0
20431,30246,51811,0,0,0
20379,30197,51738,0,0,0
20324,30143,51662,0,0,0
20267,30090,51584,0,0,0
20210,30041,51504,0,0,0
20153,29992,51422,0,0,0
20098,29940,51339,0,0,0
20048,29888,51260,0,0,0
20006,29844,51194,0,0,0
19978,29816,51151,0,0,0
19972,29814,51144,0,0,0
20002,29847,51192,0,0,0
20080,29931,51318,0,0,0
20219,30081,51538,0,0,0
20425,30305,51859,0,0,0
20695,30594,52270,0,0,0
21015,30932,52748,0,0,0
21367,31295,53265,0,0,0
21733,31667,53798,0,0,0
22096,32034,54326,0,0,0
22443,32387,54831,0,0,0
22766,32716,55301,0,0,0
23058,33010,55727,0,0,0
23316,33265,56102,0,0,0
23537,33482,56424,0,0,0
23720,33655,56691,0,0,0
23859,33784,56901,0,0,0
23956,33870,57053,0,0,0
24015,33920,57148,0,0,0
24043,33937,57193,0,0,0
24044,33925,57198,0,0,0
24022,33890,57170,0,0,0
23980,33839,57114,0,0,0
23923,33778,57037,0,0,0
23857,33711,56944,0,0,0
23784,33634,56839,0,0,0
23710,33553,56730,0,0,0
23638,33473,56619,0,0,0
23569,33395,56510,0,0,0
23502,33322,56408,0,0,0
23439,33257,56316,0,0,0
23386,33202,56237,0,0,0
23347,33160,56172,0,0,0
23321,33131,56122,0,0,0
23304,33113,56087,0,0,0
23295,33101,56065,0,0,0
23293,33093,56048,0,0,0
23293,33091,56040,0,0,0
23296,33096,56043,0,0,0
23301,33104,56049,0,0,0
23306,33107,56053,0,0,0
23312,33107,56059,0,0,0
23315,33102,56059,0,0,0
23308,33091,56048,0,0,0
23291,33070,56019,0,0,0
23263,33040,55978,0,0,0
23229,33003,55928,0,0,0
23190,32957,55868,0,0,0
23144,32901,55798,0,0,0
23094,32843,55725,0,0,0
23042,32786,55651,0,0,0
22984,32728,55575,0,0,0
22927,32672,55495,0,0,0
22881,32624,55417,0,0,0
22843,32582,55346,0,0,0
22810,32544,55283,0,0,0
22780,32511,55230,0,0,0
22753,32485,55186,0,0,0
22729,32464,55147,0,0,0
22710,32447,55111,0,0,0
22703,32438,55084,0,0,0
22703,32436,55069,0,0,0
22705,32437,55063,0,0,0
22703,32439,55065,0,0,0
22703,32444,55071,0,0,0
