green_channel,red_channel,ir_channel,Anomaly_ch0,Anomaly_ch1,Anomaly_ch2
30122,56761,5237,0,0,0
30193,56779,5314,0,0,0
30266,56795,5394,0,0,0
30339,56810,5476,0,0,0
30413,56826,5560,0,0,0
30487,56843,5644,0,0,0
30558,56860,5726,0,0,0
30628,56876,5807,0,0,0
30694,56891,5884,0,0,0
30756,56903,5957,0,0,0
30812,56914,6025,0,0,0
30863,56925,6088,0,0,0
30908,56937,6146,0,0,0
30950,56948,6197,0,0,0
30986,56958,6239,0,0,0
31012,56967,6270,0,0,0
31030,56974,6291,0,0,0
31037,56977,6303,0,0,0
31038,56977,6307,0,0,0
31032,56975,6305,0,0,0
31021,56972,6297,0,0,0
31004,56968,6285,0,0,0
30985,56964,6273,0,0,0
30966,56959,6257,0,0,0
30946,56954,6239,0,0,0
30922,56949,6218,0,0,0
30898,56944,6197,0,0,0
30875,56940,6177,0,0,0
30851,56935,6158,0,0,0
30829,56928,6140,0,0,0
30814,56923,6127,0,0,0
30808,56921,6118,0,0,0
30807,56920,6112,0,0,0
30810,56919,6111,0,0,0
30812,56916,6112,0,0,0
30814,56913,6114,0,0,0
30817,56912,6116,0,0,0
30822,56913,6120,0,0,0
30828,56915,6126,0,0,0
30833,56918,6135,0,0,0
30836,56920,6144,0,0,0
30839,56922,6155,0,0,0
30842,56923,6166,0,0,0
30844,56924,6174,0,0,0
30845,56923,6179,0,0,0
30843,56922,6181,0,0,0
30840,56920,6183,0,0,0
30837,56919,6183,0,0,0
30833,56917,6181,0,0,0
30831,56916,6177,0,0,0
30831,56917,6171,0,0,0
30829,56920,6162,0,0,0
30824,56923,6150,0,0,0
30819,56925,6134,0,0,0
30816,56925,6117,0,0,0
30813,56923,6101,0,0,0
30808,56920,6086,0,0,0
30799,56917,6071,0,0,0
30786,56914,6060,0,0,0
30777,56913,6051,0,0,0
30771,56912,6045,0,0,0
30770,56911,6040,0,0,0
30771,56909,6036,0,0,0
30773,56909,6033,0,0,0
30774,56910,6032,0,0,0
30773,56911,6033,0,0,0
30770,56912,6031,0,0,0
30763,56911,6028,0,0,0
30752,56909,6023,0,0,0
30740,56906,6020,0,0,0
30726,56901,6015,0,0,0
30714,56895,6008,0,0,0
30705,56889,6004,0,0,0
30700,56885,6002,0,0,0
30696,56882,6000,0,0,0
30692,56880,5995,0,0,0
30686,56878,5987,0,0,0
30675,56875,5976,0,0,0
30663,56871,5966,0,0,0
30651,56866,5955,0,0,0
30635,56861,5943,0,0,0
30615,56855,5931,0,0,0
30596,56847,5918,0,0,0
30579,56840,5903,0,0,0
30559,56832,5887,0,0,0
30536,56826,5868,0,0,0
30511,56819,5848,0,0,0
30484,56812,5827,0,0,0
30455,56806,5804,0,0,0
30426,56801,5780,0,0,0
30398,56797,5755,0,0,0
30372,56793,5730,0,0,0
30345,56788,5702,0,0,0
30317,56783,5673,0,0,0
30290,56779,5643,0,0,0
30263,56773,5613,0,0,0
30238,56767,5584,0,0,0
30213,56761,5557,0,0,0
30189,56757,5532,0,0,0
30164,56753,5508,0,0,0
30140,56749,5485,0,0,0
30116,56744,5462,0,0,0
30091,56736,5437,0,0,0
30064,56727,5411,0,0,0
30037,56715,5385,0,0,0
30010,56702,5356,0,0,0
29985,56689,5328,0,0,0
29960,56676,5299,0,0,0
29933,56665,5271,0,0,0
29906,56657,5245,0,0,0
29879,56651,5220,0,0,0
29850,56647,5196,0,0,0
29822,56644,5174,0,0,0
29798,56643,5155,0,0,0
29780,56643,5139,0,0,0
29767,56643,5123,0,0,0
29756,56642,5108,0,0,0
29745,56639,5093,0,0,0
29734,56635,5077,0,0,0
29725,56630,5061,0,0,0
29717,56626,5046,0,0,0
29709,56624,5033,0,0,0
29700,56621,5019,0,0,0
29687,56618,5002,0,0,0
29669,56614,4982,0,0,0
29648,56611,4961,0,0,0
29628,56609,4937,0,0,0
29608,56608,4910,0,0,0
29588,56607,4885,0,0,0
29568,56605,4863,0,0,0
29549,56603,4845,0,0,0
29529,56598,4831,0,0,0
29508,56591,4816,0,0,0
29485,56584,4799,0,0,0
29463,56576,4778,0,0,0
29443,56568,4759,0,0,0
29419,56558,4739,0,0,0
29390,56549,4718,0,0,0
29360,56543,4696,0,0,0
29337,56539,4673,0,0,0
29318,56534,4649,0,0,0
29302,56531,4627,0,0,0
29286,56528,4607,0,0,0
29273,56526,4588,0,0,0
29263,56524,4575,0,0,0
29260,56524,4569,0,0,0
29264,56527,4571,0,0,0
29275,56532,4580,0,0,0
29296,56540,4595,0,0,0
29328,56550,4618,0,0,0
29368,56560,4651,0,0,0
29415,56572,4693,0,0,0
29468,56584,4745,0,0,0
29527,56596,4807,0,0,0
29591,56611,4877,0,0,0
29660,56626,4952,0,0,0
29735,56644,5032,0,0,0
29811,56665,5116,0,0,0
29887,56688,5203,0,0,0
29965,56710,5292,0,0,0
30041,56731,5382,0,0,0
30117,56751,5472,0,0,0
30192,56770,5561,0,0,0
30263,56787,5645,0,0,0
30331,56802,5725,0,0,0
30396,56815,5801,0,0,0
30456,56828,5870,0,0,0
30508,56843,5930,0,0,0
30550,56855,5979,0,0,0
30581,56864,6016,0,0,0
30602,56871,6043,0,0,0
30618,56876,6062,0,0,0
30629,56880,6074,0,0,0
30636,56881,6078,0,0,0
30639,56880,6078,0,0,0
30637,56880,6075,0,0,0
30634,56879,6069,0,0,0
30632,56878,6062,0,0,0
30633,56875,6055,0,0,0
30637,56873,6049,0,0,0
30642,56874,6045,0,0,0
30649,56875,6045,0,0,0
30654,56876,6047,0,0,0
30657,56877,6048,0,0,0
30655,56877,6045,0,0,0
30649,56878,6041,0,0,0
30642,56880,6040,0,0,0
30635,56881,6040,0,0,0
30629,56879,6038,0,0,0
30628,56876,6037,0,0,0
30632,56873,6038,0,0,0
30642,56873,6043,0,0,0
30656,56875,6052,0,0,0
30675,56880,6065,0,0,0
30695,56884,6082,0,0,0
30716,56890,6099,0,0,0
30734,56898,6115,0,0,0
30751,56907,6130,0,0,0
30764,56913,6144,0,0,0
30774,56917,6152,0,0,0
30781,56918,6156,0,0,0
30783,56919,6154,0,0,0
30781,56919,6146,0,0,0
30777,56917,6137,0,0,0
30775,56915,6127,0,0,0
30773,56913,6118,0,0,0
30771,56912,6111,0,0,0
30770,56911,6104,0,0,0
30769,56909,6099,0,0,0
30770,56907,6096,0,0,0
30771,56905,6095,0,0,0
30772,56903,6094,0,0,0
30773,56902,6094,0,0,0
30774,56901,6094,0,0,0
30778,56902,6093,0,0,0
30787,56906,6091,0,0,0
30797,56909,6090,0,0,0
30807,56911,6093,0,0,0
30817,56913,6097,0,0,0
30826,56915,6102,0,0,0
30834,56916,6109,0,0,0
30842,56919,6117,0,0,0
30851,56923,6128,0,0,0
30862,56927,6141,0,0,0
30875,56931,6155,0,0,0
30889,56936,6168,0,0,0
30905,56940,6180,0,0,0
30921,56944,6190,0,0,0
30935,56947,6195,0,0,0
30947,56949,6196,0,0,0
30957,56950,6195,0,0,0
30965,56949,6193,0,0,0
30971,56948,6194,0,0,0
30976,56947,6196,0,0,0
30983,56948,6197,0,0,0
30987,56950,6197,0,0,0
30986,56950,6195,0,0,0
30980,56949,6191,0,0,0
30973,56948,6184,0,0,0
30966,56946,6176,0,0,0
30957,56945,6164,0,0,0
30947,56943,6149,0,0,0
30935,56941,6132,0,0,0
30921,56939,6114,0,0,0
30908,56939,6097,0,0,0
30892,56936,6079,0,0,0
30874,56932,6058,0,0,0
30854,56927,6038,0,0,0
30834,56921,6018,0,0,0
30816,56914,5998,0,0,0
30800,56908,5978,0,0,0
30785,56902,5959,0,0,0
30769,56897,5941,0,0,0
30754,56893,5923,0,0,0
30740,56890,5905,0,0,0
30729,56887,5888,0,0,0
30721,56887,5873,0,0,0
30713,56887,5862,0,0,0
30705,56886,5852,0,0,0
30696,56884,5843,0,0,0
30689,56882,5835,0,0,0
30682,56879,5827,0,0,0
30673,56877,5818,0,0,0
30662,56875,5807,0,0,0
30651,56872,5795,0,0,0
30639,56869,5783,0,0,0
30628,56865,5770,0,0,0
30617,56861,5754,0,0,0
30606,56857,5736,0,0,0
30594,56855,5715,0,0,0
30583,56852,5694,0,0,0
30572,56850,5673,0,0,0
30561,56846,5655,0,0,0
30547,56842,5640,0,0,0
30530,56839,5626,0,0,0
30518,56836,5612,0,0,0
30512,56834,5599,0,0,0
30508,56833,5585,0,0,0
30502,56831,5572,0,0,0
30493,56827,5557,0,0,0
30480,56822,5540,0,0,0
30462,56814,5520,0,0,0
30439,56805,5496,0,0,0
30412,56795,5469,0,0,0
30383,56785,5442,0,0,0
30352,56776,5415,0,0,0
30321,56767,5388,0,0,0
30291,56758,5360,0,0,0
30262,56750,5334,0,0,0
30236,56741,5307,0,0,0
30213,56735,5281,0,0,0
30193,56732,5257,0,0,0
30176,56730,5237,0,0,0
30158,56730,5220,0,0,0
30139,56729,5203,0,0,0
30121,56729,5182,0,0,0
30100,56730,5159,0,0,0
30077,56729,5134,0,0,0
30055,56726,5111,0,0,0
30034,56721,5087,0,0,0
30015,56714,5063,0,0,0
29997,56707,5036,0,0,0
29978,56700,5011,0,0,0
29961,56694,4989,0,0,0
29947,56690,4975,0,0,0
29941,56688,4968,0,0,0
29945,56690,4971,0,0,0
29959,56694,4984,0,0,0
29986,56699,5012,0,0,0
30027,56708,5056,0,0,0
30083,56722,5114,0,0,0
30155,56740,5188,0,0,0
30239,56762,5273,0,0,0
30334,56787,5369,0,0,0
30438,56815,5473,0,0,0
30546,56842,5582,0,0,0
30657,56870,5694,0,0,0
30769,56901,5811,0,0,0
30882,56933,5928,0,0,0
30992,56964,6044,0,0,0
31096,56992,6159,0,0,0
31195,57018,6269,0,0,0
31289,57042,6375,0,0,0
31377,57065,6476,0,0,0
31458,57084,6568,0,0,0
31533,57101,6651,0,0,0
31602,57117,6726,0,0,0
31664,57130,6793,0,0,0
31718,57142,6851,0,0,0
31766,57152,6903,0,0,0
31809,57161,6949,0,0,0
31847,57168,6988,0,0,0
31879,57175,7022,0,0,0
31905,57181,7050,0,0,0
31924,57187,7071,0,0,0
31939,57193,7086,0,0,0
31948,57198,7096,0,0,0
31956,57201,7106,0,0,0
31966,57204,7117,0,0,0
31975,57207,7129,0,0,0
31986,57211,7140,0,0,0
32000,57215,7153,0,0,0
32022,57219,7169,0,0,0
32049,57223,7186,0,0,0
32078,57228,7205,0,0,0
32107,57235,7226,0,0,0
32132,57241,7249,0,0,0
32155,57246,7273,0,0,0
32180,57251,7296,0,0,0
32205,57256,7319,0,0,0
32234,57260,7342,0,0,0
32263,57265,7365,0,0,0
32292,57270,7386,0,0,0
32317,57274,7407,0,0,0
32338,57277,7430,0,0,0
32356,57281,7452,0,0,0
32373,57286,7476,0,0,0
32390,57291,7501,0,0,0
32406,57294,7526,0,0,0
32421,57297,7548,0,0,0
32432,57298,7564,0,0,0
32441,57299,7574,0,0,0
32447,57300,7578,0,0,0
32450,57301,7576,0,0,0
32450,57300,7569,0,0,0
32447,57299,7560,0,0,0
32440,57296,7551,0,0,0
32430,57295,7543,0,0,0
32418,57294,7533,0,0,0
32403,57291,7523,0,0,0
32386,57287,7511,0,0,0
32368,57282,7498,0,0,0
32351,57276,7485,0,0,0
32336,57272,7473,0,0,0
32322,57270,7466,0,0,0
32311,57270,7461,0,0,0
32303,57270,7459,0,0,0
32301,57271,7459,0,0,0
32300,57273,7458,0,0,0
32301,57276,7458,0,0,0
32308,57281,7460,0,0,0
32317,57285,7465,0,0,0
32328,57288,7471,0,0,0
32339,57291,7478,0,0,0
32350,57293,7484,0,0,0
32362,57294,7490,0,0,0
32379,57294,7498,0,0,0
32399,57295,7511,0,0,0
32419,57297,7526,0,0,0
32437,57300,7541,0,0,0
32453,57304,7555,0,0,0
32467,57307,7568,0,0,0
32481,57310,7581,0,0,0
32492,57312,7592,0,0,0
32500,57313,7599,0,0,0
32506,57312,7601,0,0,0
32509,57310,7598,0,0,0
32511,57308,7594,0,0,0
32512,57309,7589,0,0,0
32511,57309,7585,0,0,0
32507,57308,7578,0,0,0
32500,57307,7568,0,0,0
32493,57307,7554,0,0,0
32488,57306,7538,0,0,0
32481,57306,7524,0,0,0
32473,57305,7510,0,0,0
32462,57302,7496,0,0,0
32449,57297,7481,0,0,0
32434,57292,7465,0,0,0
32416,57286,7447,0,0,0
32397,57280,7428,0,0,0
32376,57273,7405,0,0,0
32357,57267,7380,0,0,0
32338,57263,7355,0,0,0
32316,57259,7329,0,0,0
32293,57254,7306,0,0,0
32268,57250,7284,0,0,0
32244,57245,7260,0,0,0
32220,57240,7234,0,0,0
32195,57235,7207,0,0,0
32173,57229,7181,0,0,0
32151,57222,7154,0,0,0
32129,57213,7129,0,0,0
32107,57205,7106,0,0,0
32085,57198,7083,0,0,0
32064,57193,7059,0,0,0
32045,57186,7036,0,0,0
32028,57180,7014,0,0,0
32010,57176,6993,0,0,0
31991,57173,6974,0,0,0
31973,57169,6956,0,0,0
31954,57165,6935,0,0,0
31936,57160,6911,0,0,0
31917,57154,6889,0,0,0
31900,57147,6869,0,0,0
31885,57140,6849,0,0,0
31872,57135,6830,0,0,0
31861,57131,6811,0,0,0
31853,57127,6793,0,0,0
31846,57125,6777,0,0,0
31839,57125,6764,0,0,0
31835,57124,6751,0,0,0
31831,57123,6736,0,0,0
31823,57122,6721,0,0,0
31814,57121,6705,0,0,0
31803,57119,6688,0,0,0
31789,57118,6670,0,0,0
31775,57119,6651,0,0,0
31760,57118,6630,0,0,0
31744,57114,6610,0,0,0
31728,57112,6592,0,0,0
31714,57110,6574,0,0,0
31701,57108,6555,0,0,0
31690,57105,6536,0,0,0
31681,57101,6518,0,0,0
31671,57096,6502,0,0,0
31656,57091,6486,0,0,0
31636,57086,6469,0,0,0
31613,57082,6449,0,0,0
31592,57077,6429,0,0,0
31572,57071,6408,0,0,0
31553,57065,6385,0,0,0
31534,57061,6363,0,0,0
31514,57057,6340,0,0,0
31494,57054,6318,0,0,0
31474,57051,6297,0,0,0
31456,57047,6276,0,0,0
31437,57043,6255,0,0,0
31417,57038,6234,0,0,0
31401,57034,6214,0,0,0
31391,57031,6199,0,0,0
31386,57030,6189,0,0,0
31387,57032,6187,0,0,0
31397,57036,6194,0,0,0
31416,57041,6213,0,0,0
31445,57048,6244,0,0,0
31483,57057,6284,0,0,0
31533,57067,6334,0,0,0
31594,57079,6395,0,0,0
31665,57094,6465,0,0,0
31744,57114,6545,0,0,0
31830,57136,6634,0,0,0
31922,57160,6731,0,0,0
32016,57186,6834,0,0,0
32108,57213,6942,0,0,0
32200,57240,7054,0,0,0
32293,57268,7167,0,0,0
32388,57296,7280,0,0,0
32484,57323,7393,0,0,0
32578,57348,7502,0,0,0
32669,57372,7605,0,0,0
32755,57395,7707,0,0,0
32838,57416,7806,0,0,0
32915,57433,7898,0,0,0
32984,57449,7979,0,0,0
33047,57463,8052,0,0,0
33104,57475,8117,0,0,0
33155,57484,8171,0,0,0
33197,57490,8217,0,0,0
33231,57492,8254,0,0,0
33258,57494,8285,0,0,0
33280,57498,8311,0,0,0
33296,57503,8331,0,0,0
33308,57508,8345,0,0,0
33314,57513,8352,0,0,0
33313,57515,8354,0,0,0
33308,57516,8354,0,0,0
33305,57515,8352,0,0,0
33307,57516,8350,0,0,0
33309,57516,8350,0,0,0
33309,57517,8352,0,0,0
33311,57517,8358,0,0,0
33314,57517,8365,0,0,0
33319,57518,8371,0,0,0
33324,57520,8379,0,0,0
33329,57520,8391,0,0,0
33335,57521,8404,0,0,0
33341,57522,8418,0,0,0
33347,57525,8433,0,0,0
33351,57529,8448,0,0,0
33355,57533,8462,0,0,0
33358,57537,8475,0,0,0
33361,57540,8486,0,0,0
33362,57541,8494,0,0,0
33359,57541,8499,0,0,0
33354,57541,8505,0,0,0
33349,57542,8508,0,0,0
33343,57541,8508,0,0,0
33335,57538,8503,0,0,0
33325,57536,8496,0,0,0
33311,57532,8484,0,0,0
33294,57527,8469,0,0,0
33275,57521,8453,0,0,0
33256,57514,8438,0,0,0
33237,57506,8419,0,0,0
33216,57497,8398,0,0,0
33194,57489,8373,0,0,0
33170,57482,8348,0,0,0
33144,57475,8325,0,0,0
33119,57468,8305,0,0,0
33095,57462,8287,0,0,0
33072,57457,8270,0,0,0
33051,57453,8255,0,0,0
33033,57450,8241,0,0,0
33016,57448,8228,0,0,0
33003,57446,8218,0,0,0
32992,57443,8211,0,0,0
32980,57441,8205,0,0,0
32969,57439,8199,0,0,0
32960,57437,8195,0,0,0
32952,57436,8190,0,0,0
32942,57435,8184,0,0,0
32932,57433,8176,0,0,0
32919,57431,8166,0,0,0
32904,57427,8154,0,0,0
32885,57423,8140,0,0,0
32866,57417,8126,0,0,0
32849,57410,8113,0,0,0
32833,57403,8101,0,0,0
32818,57397,8089,0,0,0
32804,57391,8079,0,0,0
32791,57386,8069,0,0,0
32778,57384,8059,0,0,0
32762,57384,8049,0,0,0
32744,57385,8036,0,0,0
32726,57384,8019,0,0,0
32710,57383,7998,0,0,0
32692,57380,7973,0,0,0
32670,57374,7942,0,0,0
32640,57366,7909,0,0,0
32605,57357,7872,0,0,0
32566,57349,7833,0,0,0
32522,57340,7794,0,0,0
32477,57329,7755,0,0,0
32432,57317,7716,0,0,0
32388,57304,7677,0,0,0
32342,57289,7638,0,0,0
32294,57274,7597,0,0,0
32246,57259,7559,0,0,0
32200,57246,7522,0,0,0
32158,57233,7485,0,0,0
32119,57221,7448,0,0,0
32085,57211,7413,0,0,0
32053,57201,7380,0,0,0
32022,57192,7348,0,0,0
31993,57183,7317,0,0,0
31963,57175,7285,0,0,0
31932,57167,7254,0,0,0
31901,57161,7224,0,0,0
31872,57155,7196,0,0,0
31845,57150,7168,0,0,0
31818,57145,7140,0,0,0
31790,57139,7113,0,0,0
31760,57133,7088,0,0,0
31732,57128,7062,0,0,0
31705,57126,7035,0,0,0
31682,57125,7009,0,0,0
31660,57122,6984,0,0,0
31639,57118,6957,0,0,0
31616,57112,6928,0,0,0
31589,57104,6900,0,0,0
31558,57096,6871,0,0,0
31525,57087,6839,0,0,0
31488,57077,6805,0,0,0
31448,57069,6770,0,0,0
31406,57059,6734,0,0,0
31362,57049,6698,0,0,0
31317,57037,6662,0,0,0
31273,57026,6627,0,0,0
31233,57017,6593,0,0,0
31197,57008,6560,0,0,0
31162,56999,6527,0,0,0
31129,56989,6494,0,0,0
31099,56981,6461,0,0,0
31072,56973,6431,0,0,0
31049,56968,6405,0,0,0
31026,56965,6383,0,0,0
31004,56962,6364,0,0,0
30982,56958,6345,0,0,0
30957,56952,6323,0,0,0
30929,56944,6296,0,0,0
30900,56936,6264,0,0,0
30866,56928,6228,0,0,0
30824,56919,6191,0,0,0
30777,56909,6153,0,0,0
30728,56899,6114,0,0,0
30678,56887,6074,0,0,0
30628,56874,6033,0,0,0
30578,56859,5991,0,0,0
30528,56844,5950,0,0,0
30479,56829,5909,0,0,0
30433,56815,5870,0,0,0
30391,56803,5833,0,0,0
30350,56792,5798,0,0,0
30310,56784,5764,0,0,0
30270,56778,5729,0,0,0
30234,56773,5695,0,0,0
30201,56768,5663,0,0,0
30172,56763,5635,0,0,0
30147,56759,5613,0,0,0
30126,56757,5596,0,0,0
30112,56756,5586,0,0,0
30106,56757,5584,0,0,0
30107,56759,5591,0,0,0
30117,56764,5610,0,0,0
30140,56771,5641,0,0,0
30177,56781,5684,0,0,0
30225,56795,5737,0,0,0
30282,56810,5803,0,0,0
30345,56826,5880,0,0,0
30413,56844,5967,0,0,0
30487,56861,6062,0,0,0
30566,56880,6160,0,0,0
30646,56898,6259,0,0,0
30726,56918,6356,0,0,0
30805,56938,6450,0,0,0
30882,56959,6540,0,0,0
30953,56978,6627,0,0,0
31017,56995,6709,0,0,0
31073,57012,6783,0,0,0
31120,57026,6845,0,0,0
31161,57037,6899,0,0,0
31195,57045,6944,0,0,0
31218,57049,6980,0,0,0
31233,57052,7009,0,0,0
31241,57053,7028,0,0,0
31244,57052,7041,0,0,0
31243,57050,7050,0,0,0
31241,57047,7055,0,0,0
31240,57045,7056,0,0,0
31238,57044,7052,0,0,0
31232,57043,7046,0,0,0
31224,57040,7037,0,0,0
31216,57035,7025,0,0,0
31206,57030,7014,0,0,0
31194,57027,7005,0,0,0
31182,57025,6995,0,0,0
31173,57024,6985,0,0,0
31167,57024,6976,0,0,0
31164,57025,6969,0,0,0
31163,57027,6966,0,0,0
31166,57032,6968,0,0,0
31173,57037,6975,0,0,0
31185,57041,6983,0,0,0
31200,57044,6995,0,0,0
31218,57048,7009,0,0,0
31237,57052,7023,0,0,0
31255,57055,7038,0,0,0
31269,57058,7055,0,0,0
31277,57062,7073,0,0,0
31284,57066,7089,0,0,0
31289,57069,7101,0,0,0
31290,57069,7108,0,0,0
31288,57067,7113,0,0,0
31283,57064,7115,0,0,0
31274,57059,7115,0,0,0
31268,57055,7111,0,0,0
31261,57049,7104,0,0,0
31253,57043,7095,0,0,0
31245,57040,7083,0,0,0
31237,57039,7073,0,0,0
31230,57039,7063,0,0,0
31220,57039,7053,0,0,0
31208,57039,7041,0,0,0
31195,57040,7027,0,0,0
31185,57041,7013,0,0,0
31178,57043,6999,0,0,0
31172,57043,6986,0,0,0
31167,57042,6974,0,0,0
31160,57041,6964,0,0,0
31151,57040,6954,0,0,0
31140,57039,6946,0,0,0
31129,57038,6940,0,0,0
31121,57036,6935,0,0,0
31116,57037,6933,0,0,0
31117,57038,6934,0,0,0
31125,57040,6938,0,0,0
31139,57041,6944,0,0,0
31155,57042,6952,0,0,0
31172,57044,6961,0,0,0
31188,57046,6971,0,0,0
31204,57046,6979,0,0,0
31216,57044,6983,0,0,0
31222,57042,6985,0,0,0
31224,57043,6987,0,0,0
31224,57045,6987,0,0,0
31220,57047,6985,0,0,0
31213,57049,6983,0,0,0
31205,57050,6981,0,0,0
31196,57048,6976,0,0,0
31184,57045,6968,0,0,0
31171,57042,6959,0,0,0
31158,57038,6949,0,0,0
31144,57033,6940,0,0,0
31130,57030,6931,0,0,0
31117,57028,6918,0,0,0
31104,57025,6899,0,0,0
31090,57022,6878,0,0,0
31075,57019,6857,0,0,0
31055,57016,6833,0,0,0
31030,57012,6805,0,0,0
30999,57006,6776,0,0,0
30966,57000,6746,0,0,0
30930,56994,6714,0,0,0
30894,56987,6679,0,0,0
30859,56979,6644,0,0,0
30825,56971,6612,0,0,0
30792,56962,6582,0,0,0
30758,56953,6553,0,0,0
30723,56944,6527,0,0,0
30690,56937,6505,0,0,0
30663,56930,6486,0,0,0
30641,56925,6466,0,0,0
30621,56920,6445,0,0,0
30604,56915,6422,0,0,0
30587,56910,6397,0,0,0
30571,56904,6370,0,0,0
30554,56898,6345,0,0,0
30540,56894,6324,0,0,0
30529,56890,6304,0,0,0
30519,56887,6284,0,0,0
30509,56885,6267,0,0,0
30497,56882,6250,0,0,0
30485,56880,6235,0,0,0
30475,56878,6221,0,0,0
30469,56878,6208,0,0,0
30467,56878,6198,0,0,0
30468,56878,6188,0,0,0
30469,56879,6178,0,0,0
30469,56879,6169,0,0,0
30466,56880,6160,0,0,0
30460,56878,6149,0,0,0
30451,56876,6135,0,0,0
30442,56872,6121,0,0,0
30433,56869,6108,0,0,0
30425,56865,6097,0,0,0
30415,56861,6087,0,0,0
30405,56858,6077,0,0,0
30394,56856,6066,0,0,0
30385,56854,6053,0,0,0
30381,56852,6042,0,0,0
30379,56850,6029,0,0,0
30377,56846,6014,0,0,0
30376,56843,6000,0,0,0
30374,56842,5989,0,0,0
30371,56843,5978,0,0,0
30365,56846,5968,0,0,0
30357,56847,5959,0,0,0
30350,56846,5949,0,0,0
30345,56844,5936,0,0,0
30344,56841,5925,0,0,0
30343,56838,5919,0,0,0
30343,56836,5915,0,0,0
30346,56837,5913,0,0,0
30354,56838,5914,0,0,0
30369,56839,5923,0,0,0
30392,56842,5940,0,0,0
30426,56848,5969,0,0,0
30473,56858,6012,0,0,0
30532,56872,6070,0,0,0
30602,56889,6142,0,0,0
30677,56910,6225,0,0,0
30757,56933,6318,0,0,0
30840,56956,6417,0,0,0
30928,56980,6519,0,0,0
31021,57006,6624,0,0,0
31118,57033,6731,0,0,0
31218,57062,6838,0,0,0
31319,57091,6946,0,0,0
31416,57121,7050,0,0,0
31508,57148,7148,0,0,0
31591,57173,7240,0,0,0
31665,57194,7325,0,0,0
31730,57212,7400,0,0,0
31785,57225,7469,0,0,0
31831,57234,7529,0,0,0
31868,57241,7578,0,0,0
31895,57245,7616,0,0,0
31915,57247,7644,0,0,0
31931,57247,7667,0,0,0
31945,57246,7685,0,0,0
31954,57244,7699,0,0,0
31961,57241,7709,0,0,0
31966,57239,7717,0,0,0
31971,57238,7723,0,0,0
31976,57239,7725,0,0,0
31982,57242,7724,0,0,0
31989,57246,7725,0,0,0
31999,57251,7729,0,0,0
32011,57255,7734,0,0,0
32023,57259,7740,0,0,0
32034,57263,7747,0,0,0
32045,57268,7754,0,0,0
32057,57272,7764,0,0,0
32067,57277,7778,0,0,0
32077,57283,7796,0,0,0
32089,57290,7815,0,0,0
32103,57297,7834,0,0,0
32123,57303,7854,0,0,0
32147,57305,7873,0,0,0
32173,57307,7892,0,0,0
32199,57309,7912,0,0,0
32224,57312,7934,0,0,0
32245,57314,7957,0,0,0
32261,57316,7976,0,0,0
32271,57318,7990,0,0,0
32276,57318,7998,0,0,0
32276,57318,8000,0,0,0
32275,57318,7998,0,0,0
32274,57318,7994,0,0,0
32271,57316,7988,0,0,0
32266,57314,7980,0,0,0
32258,57312,7972,0,0,0
32248,57310,7964,0,0,0
32238,57310,7956,0,0,0
32230,57312,7949,0,0,0
32226,57311,7943,0,0,0
32225,57308,7939,0,0,0
32223,57304,7933,0,0,0
32219,57299,7926,0,0,0
32215,57296,7917,0,0,0
32213,57295,7908,0,0,0
32211,57294,7901,0,0,0
32209,57293,7895,0,0,0
32207,57292,7891,0,0,0
32205,57293,7887,0,0,0
32204,57293,7883,0,0,0
32204,57292,7879,0,0,0
32204,57291,7878,0,0,0
32204,57291,7877,0,0,0
32205,57291,7879,0,0,0
32207,57292,7880,0,0,0
32206,57294,7880,0,0,0
32205,57295,7881,0,0,0
32203,57294,7881,0,0,0
32201,57293,7877,0,0,0
32201,57292,7871,0,0,0
32203,57290,7866,0,0,0
32207,57288,7865,0,0,0
32211,57288,7865,0,0,0
32215,57288,7867,0,0,0
32215,57288,7869,0,0,0
32216,57287,7872,0,0,0
32217,57286,7873,0,0,0
32217,57285,7871,0,0,0
32215,57286,7865,0,0,0
32211,57288,7857,0,0,0
32207,57289,7845,0,0,0
32199,57289,7830,0,0,0
32186,57287,7812,0,0,0
32170,57282,7792,0,0,0
32152,57277,7773,0,0,0
32133,57272,7755,0,0,0
32113,57266,7738,0,0,0
32091,57259,7718,0,0,0
32064,57252,7695,0,0,0
32035,57245,7672,0,0,0
32007,57239,7648,0,0,0
31978,57233,7624,0,0,0
31948,57226,7598,0,0,0
31919,57219,7569,0,0,0
31893,57212,7539,0,0,0
31870,57204,7508,0,0,0
31851,57195,7479,0,0,0
31832,57188,7451,0,0,0
31813,57183,7424,0,0,0
31794,57181,7400,0,0,0
31772,57177,7378,0,0,0
31749,57173,7353,0,0,0
31723,57167,7326,0,0,0
31695,57162,7296,0,0,0
31665,57156,7265,0,0,0
31636,57150,7235,0,0,0
31611,57144,7207,0,0,0
31589,57139,7181,0,0,0
31569,57136,7156,0,0,0
31551,57134,7133,0,0,0
31536,57131,7112,0,0,0
31522,57128,7090,0,0,0
31509,57124,7071,0,0,0
31497,57121,7055,0,0,0
31486,57118,7042,0,0,0
31474,57113,7028,0,0,0
31460,57109,7016,0,0,0
31445,57105,7003,0,0,0
31429,57102,6989,0,0,0
31413,57098,6974,0,0,0
31399,57091,6958,0,0,0
31386,57085,6941,0,0,0
31372,57079,6920,0,0,0
31359,57072,6898,0,0,0
31345,57067,6874,0,0,0
31326,57062,6850,0,0,0
31302,57057,6825,0,0,0
31277,57051,6802,0,0,0
31252,57046,6779,0,0,0
31229,57042,6758,0,0,0
31207,57040,6738,0,0,0
31189,57037,6720,0,0,0
31173,57032,6703,0,0,0
31158,57026,6688,0,0,0
31142,57019,6673,0,0,0
31121,57012,6656,0,0,0
31097,57003,6633,0,0,0
31070,56992,6606,0,0,0
31039,56982,6577,0,0,0
31006,56973,6546,0,0,0
30974,56963,6516,0,0,0
30945,56954,6487,0,0,0
30918,56946,6459,0,0,0
30895,56939,6431,0,0,0
30873,56936,6403,0,0,0
30851,56933,6375,0,0,0
30830,56929,6348,0,0,0
30805,56925,6322,0,0,0
30778,56920,6296,0,0,0
30750,56915,6272,0,0,0
30723,56909,6248,0,0,0
30697,56902,6226,0,0,0
30675,56898,6206,0,0,0
30661,56897,6190,0,0,0
30655,56896,6181,0,0,0
30656,56895,6177,0,0,0
30665,56898,6182,0,0,0
30681,56904,6196,0,0,0
30708,56913,6222,0,0,0
30749,56924,6263,0,0,0
30803,56936,6318,0,0,0
30866,56950,6386,0,0,0
30938,56970,6464,0,0,0
31020,56993,6554,0,0,0
31111,57019,6654,0,0,0
31209,57046,6763,0,0,0
31311,57076,6877,0,0,0
31417,57106,6996,0,0,0
31526,57135,7118,0,0,0
31635,57162,7239,0,0,0
31740,57188,7354,0,0,0
31838,57213,7462,0,0,0
31929,57236,7562,0,0,0
32010,57257,7655,0,0,0
32082,57276,7739,0,0,0
32145,57293,7813,0,0,0
32198,57308,7876,0,0,0
32241,57319,7931,0,0,0
32275,57327,7978,0,0,0
32301,57332,8015,0,0,0
32322,57334,8045,0,0,0
32340,57334,8068,0,0,0
32358,57333,8085,0,0,0
32373,57334,8100,0,0,0
32384,57336,8110,0,0,0
32391,57340,8118,0,0,0
32399,57344,8126,0,0,0
32408,57348,8134,0,0,0
32417,57354,8141,0,0,0
32428,57363,8147,0,0,0
32438,57371,8151,0,0,0
32447,57377,8154,0,0,0
32458,57382,8158,0,0,0
32470,57386,8164,0,0,0
32483,57387,8174,0,0,0
32497,57390,8187,0,0,0
32510,57393,8201,0,0,0
32522,57394,8215,0,0,0
32533,57395,8229,0,0,0
32547,57396,8245,0,0,0
32566,57398,8265,0,0,0
32585,57401,8287,0,0,0
32601,57404,8311,0,0,0
32615,57409,8334,0,0,0
32628,57414,8352,0,0,0
32641,57419,8369,0,0,0
32654,57423,8385,0,0,0
32665,57425,8401,0,0,0
32674,57429,8417,0,0,0
32684,57433,8433,0,0,0
32694,57436,8446,0,0,0
32703,57437,8455,0,0,0
32708,57436,8457,0,0,0
32710,57435,8457,0,0,0
32709,57434,8456,0,0,0
32703,57433,8450,0,0,0
32690,57432,8440,0,0,0
32673,57430,8427,0,0,0
32657,57428,8411,0,0,0
32644,57425,8393,0,0,0
32630,57422,8375,0,0,0
32615,57418,8357,0,0,0
32602,57414,8340,0,0,0
32591,57408,8325,0,0,0
32583,57403,8310,0,0,0
32578,57398,8299,0,0,0
32576,57396,8293,0,0,0
32574,57398,8292,0,0,0
32574,57400,8292,0,0,0
32575,57400,8294,0,0,0
32579,57401,8299,0,0,0
32589,57402,8306,0,0,0
32602,57403,8316,0,0,0
32615,57404,8324,0,0,0
32626,57406,8329,0,0,0
32635,57410,8331,0,0,0
32640,57412,8331,0,0,0
32643,57414,8330,0,0,0
32646,57412,8328,0,0,0
32648,57408,8327,0,0,0
32650,57406,8325,0,0,0
32649,57404,8324,0,0,0
32643,57403,8326,0,0,0
32635,57401,8327,0,0,0
32627,57401,8324,0,0,0
32618,57402,8318,0,0,0
32610,57402,8311,0,0,0
32601,57403,8302,0,0,0
32593,57404,8292,0,0,0
32584,57404,8283,0,0,0
32577,57403,8273,0,0,0
32569,57401,8260,0,0,0
32561,57400,8244,0,0,0
32554,57399,8229,0,0,0
32548,57399,8215,0,0,0
32537,57398,8201,0,0,0
32524,57396,8185,0,0,0
32511,57393,8167,0,0,0
32499,57390,8149,0,0,0
32486,57387,8131,0,0,0
32471,57383,8113,0,0,0
32455,57380,8091,0,0,0
32438,57377,8066,0,0,0
32418,57372,8039,0,0,0
32395,57365,8010,0,0,0
32369,57356,7981,0,0,0
32341,57347,7953,0,0,0
32315,57341,7928,0,0,0
32291,57337,7907,0,0,0
32269,57332,7886,0,0,0
32248,57326,7864,0,0,0
32227,57321,7841,0,0,0
32208,57315,7818,0,0,0
32189,57310,7794,0,0,0
32170,57303,7769,0,0,0
32152,57293,7745,0,0,0
32133,57284,7720,0,0,0
32113,57276,7697,0,0,0
32092,57269,7674,0,0,0
32070,57262,7651,0,0,0
32052,57257,7627,0,0,0
32035,57252,7604,0,0,0
32020,57249,7583,0,0,0
32005,57248,7564,0,0,0
31992,57248,7545,0,0,0
31978,57248,7526,0,0,0
31961,57246,7507,0,0,0
31940,57242,7487,0,0,0
31916,57238,7465,0,0,0
31890,57234,7441,0,0,0
31863,57229,7413,0,0,0
31833,57222,7387,0,0,0
31801,57212,7363,0,0,0
31769,57202,7340,0,0,0
31740,57193,7314,0,0,0
31712,57186,7288,0,0,0
31686,57180,7262,0,0,0
31663,57173,7236,0,0,0
31642,57165,7210,0,0,0
31623,57157,7187,0,0,0
31606,57151,7167,0,0,0
31590,57148,7150,0,0,0
31575,57146,7135,0,0,0
31561,57144,7121,0,0,0
31547,57143,7106,0,0,0
31532,57140,7089,0,0,0
31517,57137,7069,0,0,0
31501,57135,7048,0,0,0
31485,57132,7028,0,0,0
31468,57129,7009,0,0,0
31451,57125,6989,0,0,0
31435,57122,6969,0,0,0
31418,57118,6949,0,0,0
31400,57113,6930,0,0,0
31380,57107,6909,0,0,0
31362,57102,6884,0,0,0
31346,57097,6858,0,0,0
31333,57092,6833,0,0,0
31321,57087,6811,0,0,0
31309,57083,6790,0,0,0
31296,57082,6769,0,0,0
31279,57080,6746,0,0,0
31259,57077,6722,0,0,0
31236,57073,6699,0,0,0
31214,57070,6676,0,0,0
31192,57065,6650,0,0,0
31169,57058,6623,0,0,0
31145,57050,6597,0,0,0
31120,57044,6571,0,0,0
31095,57037,6543,0,0,0
31068,57031,6513,0,0,0
31040,57025,6482,0,0,0
31016,57018,6452,0,0,0
30996,57012,6424,0,0,0
30977,57006,6397,0,0,0
30960,57001,6373,0,0,0
30944,56999,6354,0,0,0
30934,56999,6342,0,0,0
30932,57000,6338,0,0,0
30939,57002,6346,0,0,0
30958,57007,6367,0,0,0
30989,57016,6403,0,0,0
31031,57028,6454,0,0,0
31084,57043,6517,0,0,0
31148,57060,6590,0,0,0
31220,57078,6673,0,0,0
31301,57096,6767,0,0,0
31390,57117,6870,0,0,0
31486,57142,6977,0,0,0
31589,57169,7088,0,0,0
31695,57198,7201,0,0,0
31801,57225,7313,0,0,0
31906,57250,7426,0,0,0
32008,57275,7537,0,0,0
32106,57298,7646,0,0,0
32198,57320,7749,0,0,0
32283,57342,7843,0,0,0
32358,57363,7928,0,0,0
32424,57381,8004,0,0,0
32479,57395,8071,0,0,0
32523,57406,8128,0,0,0
32556,57414,8176,0,0,0
32580,57419,8216,0,0,0
32598,57422,8248,0,0,0
32614,57426,8273,0,0,0
32625,57431,8290,0,0,0
32632,57435,8300,0,0,0
32638,57437,8306,0,0,0
32644,57439,8308,0,0,0
32651,57440,8310,0,0,0
32660,57441,8313,0,0,0
32668,57442,8316,0,0,0
32674,57444,8320,0,0,0
32680,57446,8326,0,0,0
32688,57449,8332,0,0,0
32698,57453,8339,0,0,0
32712,57456,8347,0,0,0
32727,57458,8357,0,0,0
32744,57461,8369,0,0,0
32764,57467,8384,0,0,0
32791,57474,8402,0,0,0
32822,57482,8423,0,0,0
32850,57489,8446,0,0,0
32877,57496,8471,0,0,0
32904,57503,8498,0,0,0
32933,57509,8524,0,0,0
32961,57513,8549,0,0,0
32987,57516,8572,0,0,0
33009,57519,8592,0,0,0
33024,57521,8607,0,0,0
33033,57523,8618,0,0,0
33039,57524,8628,0,0,0
33043,57524,8637,0,0,0
33043,57525,8645,0,0,0
33041,57525,8650,0,0,0
33037,57525,8652,0,0,0
33032,57524,8649,0,0,0
33025,57522,8641,0,0,0
33013,57519,8629,0,0,0
32998,57518,8616,0,0,0
32981,57516,8605,0,0,0
32965,57514,8594,0,0,0
32951,57512,8581,0,0,0
32937,57510,8568,0,0,0
32923,57509,8554,0,0,0
32910,57508,8537,0,0,0
32897,57507,8519,0,0,0
32884,57505,8498,0,0,0
32871,57501,8479,0,0,0
32856,57496,8461,0,0,0
32842,57492,8445,0,0,0
32828,57489,8434,0,0,0
32815,57485,8424,0,0,0
32801,57478,8415,0,0,0
32789,57472,8409,0,0,0
32780,57468,8404,0,0,0
32774,57465,8399,0,0,0
32770,57462,8395,0,0,0
32768,57460,8393,0,0,0
32767,57462,8392,0,0,0
32766,57464,8388,0,0,0
32766,57466,8382,0,0,0
32767,57466,8376,0,0,0
32768,57466,8367,0,0,0
32768,57464,8360,0,0,0
32765,57462,8353,0,0,0
32759,57462,8345,0,0,0
32746,57460,8336,0,0,0
32728,57456,8324,0,0,0
32708,57451,8311,0,0,0
32686,57445,8295,0,0,0
32661,57436,8275,0,0,0
32631,57425,8251,0,0,0
32599,57415,8222,0,0,0
32566,57405,8191,0,0,0
32530,57394,8158,0,0,0
32489,57382,8123,0,0,0
32448,57371,8087,0,0,0
32411,57361,8051,0,0,0
32379,57353,8018,0,0,0
32352,57346,7988,0,0,0
32326,57339,7960,0,0,0
32299,57334,7931,0,0,0
32269,57329,7900,0,0,0
32238,57324,7869,0,0,0
32205,57319,7839,0,0,0
32176,57312,7810,0,0,0
32150,57306,7780,0,0,0
32125,57301,7751,0,0,0
32098,57295,7719,0,0,0
32066,57287,7685,0,0,0
32031,57278,7649,0,0,0
31993,57269,7611,0,0,0
31952,57260,7569,0,0,0
31908,57250,7524,0,0,0
31860,57240,7480,0,0,0
31807,57228,7435,0,0,0
31751,57214,7390,0,0,0
31693,57199,7344,0,0,0
31639,57183,7298,0,0,0
31587,57168,7251,0,0,0
31535,57154,7204,0,0,0
31484,57141,7157,0,0,0
31439,57129,7111,0,0,0
31397,57118,7069,0,0,0
31356,57107,7031,0,0,0
31317,57098,6996,0,0,0
31281,57090,6962,0,0,0
31245,57082,6931,0,0,0
31207,57074,6900,0,0,0
31171,57065,6870,0,0,0
31139,57057,6840,0,0,0
31112,57051,6812,0,0,0
31086,57047,6784,0,0,0
31060,57041,6755,0,0,0
31036,57034,6726,0,0,0
31013,57026,6698,0,0,0
30991,57019,6670,0,0,0
30968,57013,6640,0,0,0
30940,57006,6610,0,0,0
30905,56999,6580,0,0,0
30868,56992,6550,0,0,0
30830,56984,6520,0,0,0
30792,56977,6490,0,0,0
30757,56970,6461,0,0,0
30725,56965,6433,0,0,0
30695,56959,6406,0,0,0
30665,56954,6377,0,0,0
30638,56948,6350,0,0,0
30614,56943,6325,0,0,0
30593,56939,6304,0,0,0
30573,56935,6283,0,0,0
30552,56931,6261,0,0,0
30528,56927,6236,0,0,0
30507,56923,6209,0,0,0
30488,56918,6181,0,0,0
30470,56912,6153,0,0,0
30453,56908,6124,0,0,0
30435,56903,6095,0,0,0
30415,56899,6068,0,0,0
30393,56895,6042,0,0,0
30373,56891,6017,0,0,0
30351,56887,5991,0,0,0
30328,56883,5965,0,0,0
30303,56878,5938,0,0,0
30278,56872,5911,0,0,0
30250,56865,5883,0,0,0
30220,56858,5856,0,0,0
30187,56852,5828,0,0,0
30155,56847,5800,0,0,0
30128,56842,5772,0,0,0
30105,56837,5747,0,0,0
30083,56832,5724,0,0,0
30064,56828,5703,0,0,0
30050,56826,5685,0,0,0
30044,56823,5668,0,0,0
30044,56823,5654,0,0,0
30049,56823,5647,0,0,0
30060,56824,5649,0,0,0
30082,56827,5660,0,0,0
30111,56832,5681,0,0,0
30146,56839,5712,0,0,0
30189,56849,5754,0,0,0
30244,56863,5809,0,0,0
30311,56881,5875,0,0,0
30388,56902,5952,0,0,0
30473,56923,6040,0,0,0
30563,56944,6136,0,0,0
30656,56967,6241,0,0,0
30754,56992,6353,0,0,0
30854,57021,6468,0,0,0
30954,57053,6582,0,0,0
31052,57084,6693,0,0,0
31147,57112,6798,0,0,0
31236,57138,6899,0,0,0
31316,57161,6994,0,0,0
31386,57181,7079,0,0,0
31447,57196,7154,0,0,0
31496,57208,7218,0,0,0
31535,57219,7271,0,0,0
31565,57228,7311,0,0,0
31585,57233,7337,0,0,0
31600,57237,7354,0,0,0
31608,57240,7362,0,0,0
31608,57240,7362,0,0,0
31602,57238,7358,0,0,0
31593,57235,7350,0,0,0
31582,57230,7338,0,0,0
31571,57224,7323,0,0,0
31559,57218,7308,0,0,0
31548,57213,7294,0,0,0
31537,57209,7281,0,0,0
31526,57206,7268,0,0,0
31517,57203,7255,0,0,0
31507,57201,7244,0,0,0
31497,57199,7235,0,0,0
31490,57198,7226,0,0,0
31486,57196,7219,0,0,0
31482,57194,7213,0,0,0
31478,57190,7205,0,0,0
31470,57187,7197,0,0,0
31461,57186,7192,0,0,0
31452,57184,7189,0,0,0
31445,57184,7187,0,0,0
31444,57186,7187,0,0,0
31449,57190,7192,0,0,0
31455,57193,7201,0,0,0
31459,57195,7212,0,0,0
31463,57196,7220,0,0,0
31466,57197,7228,0,0,0
31467,57197,7234,0,0,0
31466,57198,7240,0,0,0
31465,57197,7243,0,0,0
31463,57196,7241,0,0,0
31460,57196,7234,0,0,0
31459,57195,7225,0,0,0
31457,57194,7216,0,0,0
31450,57194,7206,0,0,0
31438,57192,7193,0,0,0
31422,57190,7176,0,0,0
31406,57187,7158,0,0,0
31391,57183,7142,0,0,0
31378,57179,7127,0,0,0
31364,57175,7110,0,0,0
31351,57172,7097,0,0,0
31341,57170,7085,0,0,0
31332,57167,7075,0,0,0
31323,57162,7064,0,0,0
31314,57157,7052,0,0,0
31309,57155,7045,0,0,0
31307,57157,7041,0,0,0
31308,57161,7039,0,0,0
31313,57165,7036,0,0,0
31320,57169,7034,0,0,0
31325,57172,7035,0,0,0
31328,57173,7035,0,0,0
31328,57174,7034,0,0,0
31329,57175,7030,0,0,0
31332,57176,7027,0,0,0
31333,57175,7023,0,0,0
31330,57171,7018,0,0,0
31325,57167,7013,0,0,0
31316,57163,7006,0,0,0
31305,57160,7000,0,0,0
31292,57157,6994,0,0,0
31279,57153,6988,0,0,0
31266,57150,6980,0,0,0
31255,57148,6969,0,0,0
31243,57145,6956,0,0,0
31228,57141,6940,0,0,0
31210,57135,6920,0,0,0
31189,57131,6896,0,0,0
31168,57128,6871,0,0,0
31144,57123,6843,0,0,0
31116,57116,6812,0,0,0
31087,57109,6780,0,0,0
31058,57103,6748,0,0,0
31028,57095,6720,0,0,0
30996,57087,6690,0,0,0
30962,57078,6656,0,0,0
30927,57068,6622,0,0,0
30891,57059,6589,0,0,0
30858,57052,6557,0,0,0
30827,57046,6526,0,0,0
30798,57041,6495,0,0,0
30771,57036,6467,0,0,0
30746,57030,6440,0,0,0
30723,57023,6415,0,0,0
30699,57017,6389,0,0,0
30679,57011,6365,0,0,0
30662,57007,6344,0,0,0
30644,57003,6325,0,0,0
30625,56998,6307,0,0,0
30610,56995,6288,0,0,0
30599,56993,6269,0,0,0
30590,56990,6251,0,0,0
30579,56986,6234,0,0,0
30568,56981,6217,0,0,0
30556,56976,6200,0,0,0
30543,56973,6184,0,0,0
30528,56970,6169,0,0,0
30508,56967,6151,0,0,0
30485,56965,6130,0,0,0
30463,56961,6108,0,0,0
30442,56957,6085,0,0,0
30423,56951,6062,0,0,0
30408,56944,6043,0,0,0
30396,56936,6026,0,0,0
30386,56930,6013,0,0,0
30377,56925,6000,0,0,0
30368,56923,5988,0,0,0
30360,56924,5975,0,0,0
30355,56924,5965,0,0,0
30351,56925,5957,0,0,0
30345,56926,5949,0,0,0
30338,56927,5939,0,0,0
30332,56926,5927,0,0,0
30325,56923,5914,0,0,0
30315,56921,5899,0,0,0
30305,56919,5885,0,0,0
30296,56915,5872,0,0,0
30286,56910,5857,0,0,0
30275,56905,5840,0,0,0
30262,56901,5823,0,0,0
30247,56897,5805,0,0,0
30230,56893,5787,0,0,0
30212,56888,5766,0,0,0
30195,56882,5745,0,0,0
30181,56877,5726,0,0,0
30167,56873,5707,0,0,0
30153,56872,5688,0,0,0
30138,56871,5669,0,0,0
30121,56869,5653,0,0,0
30104,56866,5638,0,0,0
30087,56864,5623,0,0,0
30073,56863,5607,0,0,0
30061,56864,5594,0,0,0
30053,56864,5585,0,0,0
30054,56863,5583,0,0,0
30064,56864,5592,0,0,0
30084,56866,5612,0,0,0
30112,56872,5644,0,0,0
30150,56881,5685,0,0,0
30199,56894,5737,0,0,0
30259,56912,5800,0,0,0
30329,56933,5875,0,0,0
30404,56955,5958,0,0,0
30482,56978,6045,0,0,0
30561,57001,6133,0,0,0
30641,57020,6223,0,0,0
30722,57039,6312,0,0,0
30804,57059,6401,0,0,0
30888,57079,6492,0,0,0
30972,57098,6583,0,0,0
31054,57117,6673,0,0,0
31133,57134,6758,0,0,0
31206,57151,6839,0,0,0
31271,57167,6916,0,0,0
31332,57183,6988,0,0,0
31387,57199,7054,0,0,0
31434,57212,7112,0,0,0
31474,57223,7160,0,0,0
31505,57232,7201,0,0,0
31529,57239,7236,0,0,0
31547,57244,7263,0,0,0
31559,57247,7283,0,0,0
31569,57249,7295,0,0,0
31575,57251,7301,0,0,0
31577,57251,7301,0,0,0
31577,57249,7296,0,0,0
31573,57246,7287,0,0,0
31566,57242,7279,0,0,0
31558,57238,7272,0,0,0
31550,57235,7268,0,0,0
31544,57232,7264,0,0,0
31539,57230,7260,0,0,0
31537,57229,7257,0,0,0
31538,57229,7254,0,0,0
31542,57230,7255,0,0,0
31549,57232,7259,0,0,0
31556,57235,7265,0,0,0
31562,57237,7274,0,0,0
31569,57240,7284,0,0,0
31578,57244,7293,0,0,0
31589,57248,7301,0,0,0
31597,57251,7309,0,0,0
31604,57254,7317,0,0,0
31611,57256,7325,0,0,0
31618,57257,7331,0,0,0
31625,57258,7337,0,0,0
31634,57257,7342,0,0,0
31644,57257,7345,0,0,0
31652,57255,7346,0,0,0
31657,57254,7345,0,0,0
31662,57253,7341,0,0,0
31665,57253,7335,0,0,0
31664,57254,7328,0,0,0
31657,57254,7317,0,0,0
31644,57253,7305,0,0,0
31631,57250,7289,0,0,0
31617,57249,7272,0,0,0
31604,57249,7255,0,0,0
31590,57250,7238,0,0,0
31575,57249,7222,0,0,0
31558,57247,7207,0,0,0
31545,57243,7196,0,0,0
31535,57240,7188,0,0,0
31528,57236,7181,0,0,0
31525,57232,7176,0,0,0
31524,57229,7172,0,0,0
31527,57227,7170,0,0,0
31534,57224,7169,0,0,0
31541,57225,7171,0,0,0
31549,57227,7175,0,0,0
31556,57231,7180,0,0,0
31563,57235,7185,0,0,0
31572,57239,7192,0,0,0
31581,57243,7196,0,0,0
31589,57247,7197,0,0,0
31593,57251,7194,0,0,0
31594,57252,7189,0,0,0
31592,57251,7182,0,0,0
31590,57250,7177,0,0,0
31588,57250,7171,0,0,0
31587,57249,7167,0,0,0
31586,57248,7163,0,0,0
31581,57246,7157,0,0,0
31573,57245,7150,0,0,0
31565,57242,7140,0,0,0
31556,57237,7127,0,0,0
31541,57232,7110,0,0,0
31522,57228,7092,0,0,0
31501,57222,7073,0,0,0
31479,57215,7051,0,0,0
31455,57207,7023,0,0,0
31428,57200,6991,0,0,0
31399,57192,6959,0,0,0
31370,57185,6927,0,0,0
31340,57178,6893,0,0,0
31308,57168,6860,0,0,0
31275,57156,6827,0,0,0
31242,57144,6795,0,0,0
31210,57134,6763,0,0,0
31177,57126,6732,0,0,0
31143,57118,6700,0,0,0
31111,57111,6668,0,0,0
31082,57105,6637,0,0,0
31055,57100,6608,0,0,0
31031,57093,6580,0,0,0
31009,57087,6553,0,0,0
30987,57081,6526,0,0,0
30962,57074,6500,0,0,0
30936,57068,6472,0,0,0
30910,57062,6445,0,0,0
30883,57056,6419,0,0,0
30855,57050,6392,0,0,0
30826,57044,6365,0,0,0
30797,57039,6339,0,0,0
30770,57034,6313,0,0,0
30743,57030,6288,0,0,0
30715,57025,6264,0,0,0
30688,57020,6239,0,0,0
30667,57015,6215,0,0,0
30650,57010,6193,0,0,0
30635,57005,6174,0,0,0
30617,57001,6154,0,0,0
30596,56998,6133,0,0,0
30572,56996,6109,0,0,0
30546,56994,6082,0,0,0
30520,56989,6055,0,0,0
30496,56981,6027,0,0,0
30471,56972,5998,0,0,0
30446,56963,5969,0,0,0
30420,56955,5939,0,0,0
30392,56947,5909,0,0,0
30362,56940,5880,0,0,0
30332,56933,5850,0,0,0
30301,56927,5822,0,0,0
30271,56922,5794,0,0,0
30243,56916,5767,0,0,0
30218,56910,5741,0,0,0
30194,56903,5717,0,0,0
30172,56897,5695,0,0,0
30152,56890,5674,0,0,0
30131,56882,5652,0,0,0
30109,56874,5628,0,0,0
30083,56866,5602,0,0,0
30055,56859,5572,0,0,0
30027,56851,5540,0,0,0
29998,56842,5509,0,0,0
29969,56832,5476,0,0,0
29939,56823,5444,0,0,0
29910,56815,5414,0,0,0
29884,56808,5386,0,0,0
29863,56801,5362,0,0,0
29851,56795,5343,0,0,0
29845,56793,5333,0,0,0
29847,56794,5334,0,0,0
29860,56799,5345,0,0,0
29886,56806,5365,0,0,0
29921,56817,5397,0,0,0
29965,56831,5439,0,0,0
30020,56849,5493,0,0,0
30087,56870,5557,0,0,0
30165,56893,5632,0,0,0
30250,56916,5715,0,0,0
30339,56939,5807,0,0,0
30432,56964,5909,0,0,0
30528,56987,6014,0,0,0
30623,57008,6120,0,0,0
30715,57029,6225,0,0,0
30808,57051,6330,0,0,0
30899,57071,6434,0,0,0
30990,57091,6537,0,0,0
31079,57112,6637,0,0,0
31163,57134,6729,0,0,0
31239,57154,6810,0,0,0
31306,57174,6882,0,0,0
31365,57192,6944,0,0,0
31418,57207,6997,0,0,0
31462,57220,7040,0,0,0
31497,57232,7075,0,0,0
31522,57241,7102,0,0,0
31536,57249,7120,0,0,0
31541,57256,7129,0,0,0
31538,57261,7130,0,0,0
31530,57262,7126,0,0,0
31520,57261,7117,0,0,0
31507,57256,7106,0,0,0
31492,57249,7093,0,0,0
31478,57239,7081,0,0,0
31467,57229,7068,0,0,0
31457,57221,7055,0,0,0
31450,57216,7046,0,0,0
31445,57214,7042,0,0,0
31447,57215,7042,0,0,0
31454,57218,7046,0,0,0
31465,57222,7052,0,0,0
31480,57225,7060,0,0,0
31496,57229,7068,0,0,0
31510,57233,7076,0,0,0
31523,57238,7086,0,0,0
31536,57242,7098,0,0,0
31550,57248,7113,0,0,0
31564,57254,7126,0,0,0
31579,57259,7140,0,0,0
31592,57264,7156,0,0,0
31605,57268,7172,0,0,0
31619,57272,7187,0,0,0
31634,57276,7202,0,0,0
31650,57282,7219,0,0,0
31666,57287,7235,0,0,0
31680,57291,7248,0,0,0
31690,57294,7258,0,0,0
31699,57297,7264,0,0,0
31706,57298,7266,0,0,0
31714,57297,7266,0,0,0
31722,57297,7265,0,0,0
31729,57296,7264,0,0,0
31732,57294,7259,0,0,0
31728,57290,7250,0,0,0
31717,57284,7236,0,0,0
31700,57277,7219,0,0,0
31680,57272,7200,0,0,0
31660,57267,7181,0,0,0
31644,57262,7164,0,0,0
31630,57259,7149,0,0,0
31620,57256,7137,0,0,0
31616,57254,7128,0,0,0
31617,57255,7123,0,0,0
31623,57259,7123,0,0,0
31630,57264,7127,0,0,0
31640,57268,7135,0,0,0
31654,57272,7146,0,0,0
31671,57275,7158,0,0,0
31688,57278,7168,0,0,0
31707,57280,7178,0,0,0
31726,57284,7189,0,0,0
31743,57289,7199,0,0,0
31758,57293,7210,0,0,0
31769,57296,7217,0,0,0
31778,57297,7219,0,0,0
31784,57299,7216,0,0,0
31788,57299,7210,0,0,0
31788,57298,7203,0,0,0
31784,57294,7196,0,0,0
31775,57290,7187,0,0,0
31762,57287,7175,0,0,0
31745,57284,7160,0,0,0
31728,57279,7141,0,0,0
31710,57273,7122,0,0,0
31691,57268,7104,0,0,0
31670,57264,7088,0,0,0
31649,57262,7074,0,0,0
31632,57260,7057,0,0,0
31618,57258,7036,0,0,0
31606,57257,7013,0,0,0
31597,57256,6990,0,0,0
31589,57255,6964,0,0,0
31578,57251,6938,0,0,0
31562,57245,6913,0,0,0
31543,57237,6888,0,0,0
31520,57230,6861,0,0,0
31493,57222,6835,0,0,0
31462,57214,6808,0,0,0
31426,57205,6781,0,0,0
31387,57195,6752,0,0,0
31346,57185,6721,0,0,0
31303,57174,6688,0,0,0
31259,57160,6655,0,0,0
31217,57145,6621,0,0,0
31178,57132,6587,0,0,0
31145,57121,6556,0,0,0
31115,57114,6528,0,0,0
31088,57109,6500,0,0,0
31065,57106,6473,0,0,0
31047,57103,6449,0,0,0
31033,57099,6428,0,0,0
31022,57095,6410,0,0,0
31013,57092,6394,0,0,0
31007,57091,6380,0,0,0
31002,57090,6367,0,0,0
30997,57088,6354,0,0,0
30989,57085,6341,0,0,0
30981,57082,6330,0,0,0
30974,57080,6321,0,0,0
30966,57078,6310,0,0,0
30957,57074,6296,0,0,0
30947,57070,6280,0,0,0
30938,57069,6264,0,0,0
30927,57068,6248,0,0,0
30915,57067,6231,0,0,0
30900,57066,6210,0,0,0
30880,57064,6188,0,0,0
30856,57060,6165,0,0,0
30830,57054,6140,0,0,0
30803,57048,6113,0,0,0
30777,57042,6086,0,0,0
30751,57035,6061,0,0,0
30724,57029,6036,0,0,0
30698,57023,6011,0,0,0
30675,57018,5989,0,0,0
30658,57013,5968,0,0,0
30646,57007,5950,0,0,0
30640,57003,5936,0,0,0
30640,57002,5929,0,0,0
30646,57006,5933,0,0,0
30661,57013,5951,0,0,0
30687,57023,5982,0,0,0
30727,57036,6026,0,0,0
30782,57051,6082,0,0,0
30850,57069,6150,0,0,0
30929,57088,6227,0,0,0
31016,57108,6316,0,0,0
31111,57130,6412,0,0,0
31213,57152,6516,0,0,0
31319,57176,6625,0,0,0
31425,57201,6737,0,0,0
31529,57227,6849,0,0,0
31629,57254,6959,0,0,0
31724,57279,7067,0,0,0
31812,57304,7171,0,0,0
31897,57327,7272,0,0,0
31979,57348,7368,0,0,0
32059,57367,7456,0,0,0
32133,57386,7535,0,0,0
32200,57401,7603,0,0,0
32260,57415,7659,0,0,0
32309,57426,7705,0,0,0
32349,57436,7741,0,0,0
32380,57444,7771,0,0,0
32403,57452,7795,0,0,0
32416,57459,7813,0,0,0
32420,57465,7821,0,0,0
32418,57466,7825,0,0,0
32411,57464,7827,0,0,0
32402,57461,7828,0,0,0
32395,57458,7827,0,0,0
32392,57456,7825,0,0,0
32391,57455,7822,0,0,0
32390,57454,7820,0,0,0
32389,57454,7818,0,0,0
32389,57456,7819,0,0,0
32393,57458,7823,0,0,0
32400,57460,7830,0,0,0
32412,57462,7840,0,0,0
32426,57465,7854,0,0,0
32442,57470,7869,0,0,0
32457,57474,7886,0,0,0
32474,57478,7904,0,0,0
32496,57484,7925,0,0,0
32524,57490,7949,0,0,0
32554,57494,7973,0,0,0
32579,57497,7995,0,0,0
32598,57500,8015,0,0,0
32616,57502,8034,0,0,0
32630,57504,8049,0,0,0
32636,57506,8059,0,0,0
32637,57507,8065,0,0,0
32634,57506,8067,0,0,0
32628,57505,8063,0,0,0
32619,57502,8055,0,0,0
32605,57499,8044,0,0,0
32587,57494,8031,0,0,0
32567,57490,8015,0,0,0
32549,57486,7996,0,0,0
32533,57484,7978,0,0,0
32520,57481,7961,0,0,0
32509,57477,7945,0,0,0
32496,57472,7928,0,0,0
32483,57467,7910,0,0,0
32469,57461,7892,0,0,0
32457,57455,7876,0,0,0
32446,57451,7864,0,0,0
32434,57446,7856,0,0,0
32422,57441,7850,0,0,0
32410,57437,7843,0,0,0
32398,57436,7836,0,0,0
32386,57435,7829,0,0,0
32377,57436,7822,0,0,0
32368,57435,7814,0,0,0
32359,57434,7804,0,0,0
32350,57433,7795,0,0,0
32342,57430,7788,0,0,0
32331,57426,7779,0,0,0
32316,57420,7766,0,0,0
32300,57413,7752,0,0,0
32282,57407,7742,0,0,0
32264,57400,7735,0,0,0
32248,57393,7728,0,0,0
32233,57386,7717,0,0,0
32218,57381,7703,0,0,0
32207,57376,7689,0,0,0
32197,57374,7675,0,0,0
32187,57373,7660,0,0,0
32174,57371,7642,0,0,0
32158,57367,7622,0,0,0
32143,57364,7599,0,0,0
32127,57360,7577,0,0,0
32109,57354,7556,0,0,0
32092,57347,7538,0,0,0
32076,57342,7522,0,0,0
32062,57338,7508,0,0,0
32048,57336,7494,0,0,0
32036,57335,7478,0,0,0
32026,57333,7460,0,0,0
32015,57331,7441,0,0,0
32001,57327,7421,0,0,0
31986,57324,7400,0,0,0
31972,57319,7380,0,0,0
31958,57312,7358,0,0,0
31942,57304,7335,0,0,0
31926,57298,7313,0,0,0
31910,57294,7293,0,0,0
31895,57290,7275,0,0,0
31879,57287,7257,0,0,0
31863,57284,7238,0,0,0
31847,57282,7217,0,0,0
31834,57279,7196,0,0,0
31820,57274,7173,0,0,0
31801,57267,7147,0,0,0
31779,57260,7119,0,0,0
31756,57255,7093,0,0,0
31732,57251,7068,0,0,0
31708,57247,7046,0,0,0
31682,57243,7023,0,0,0
31657,57238,7000,0,0,0
31633,57233,6977,0,0,0
31613,57228,6954,0,0,0
31596,57221,6929,0,0,0
31578,57214,6901,0,0,0
31559,57207,6870,0,0,0
31540,57199,6842,0,0,0
31521,57192,6817,0,0,0
31501,57187,6795,0,0,0
31479,57181,6773,0,0,0
31454,57176,6750,0,0,0
31427,57170,6727,0,0,0
31399,57162,6702,0,0,0
31372,57154,6675,0,0,0
31348,57147,6651,0,0,0
31327,57142,6631,0,0,0
31311,57138,6616,0,0,0
31300,57136,6607,0,0,0
31297,57137,6605,0,0,0
31303,57140,6613,0,0,0
31319,57145,6633,0,0,0
31343,57151,6664,0,0,0
31377,57160,6703,0,0,0
31422,57172,6751,0,0,0
31476,57188,6807,0,0,0
31541,57205,6872,0,0,0
31614,57223,6947,0,0,0
31692,57242,7030,0,0,0
31774,57262,7121,0,0,0
31860,57283,7214,0,0,0
31945,57304,7309,0,0,0
32025,57325,7405,0,0,0
32101,57346,7501,0,0,0
32175,57365,7594,0,0,0
32248,57384,7684,0,0,0
32319,57401,7768,0,0,0
32384,57416,7845,0,0,0
32441,57431,7913,0,0,0
32488,57445,7970,0,0,0
32526,57456,8018,0,0,0
32552,57466,8055,0,0,0
32570,57473,8082,0,0,0
32580,57479,8101,0,0,0
32586,57483,8118,0,0,0
32590,57484,8132,0,0,0
32592,57482,8141,0,0,0
32595,57481,8145,0,0,0
32599,57480,8148,0,0,0
32605,57479,8149,0,0,0
32609,57478,8150,0,0,0
32614,57478,8150,0,0,0
32617,57479,8148,0,0,0
32617,57480,8147,0,0,0
32619,57479,8149,0,0,0
32623,57478,8153,0,0,0
32627,57478,8157,0,0,0
32629,57477,8157,0,0,0
32631,57477,8155,0,0,0
32632,57477,8152,0,0,0
32632,57475,8150,0,0,0
32633,57472,8151,0,0,0
32635,57471,8154,0,0,0
32637,57470,8157,0,0,0
32639,57469,8160,0,0,0
32643,57469,8165,0,0,0
32648,57472,8172,0,0,0
32652,57474,8180,0,0,0
32655,57475,8188,0,0,0
32656,57475,8197,0,0,0
32655,57473,8206,0,0,0
32653,57470,8211,0,0,0
32649,57467,8210,0,0,0
32645,57464,8205,0,0,0
32642,57461,8199,0,0,0
32637,57458,8191,0,0,0
32629,57454,8182,0,0,0
32619,57451,8170,0,0,0
32607,57450,8156,0,0,0
32593,57450,8140,0,0,0
32576,57449,8122,0,0,0
32557,57446,8102,0,0,0
32537,57442,8082,0,0,0
32516,57436,8063,0,0,0
32499,57431,8044,0,0,0
32488,57426,8026,0,0,0
32479,57423,8011,0,0,0
32475,57420,7999,0,0,0
32475,57419,7995,0,0,0
32477,57420,7993,0,0,0
32482,57422,7990,0,0,0
32490,57426,7987,0,0,0
32500,57431,7988,0,0,0
32512,57436,7993,0,0,0
32525,57440,8000,0,0,0
32539,57443,8008,0,0,0
32553,57445,8015,0,0,0
32567,57446,8020,0,0,0
32577,57447,8024,0,0,0
32584,57447,8027,0,0,0
32585,57447,8028,0,0,0
32581,57447,8025,0,0,0
32575,57445,8022,0,0,0
32568,57445,8018,0,0,0
32559,57445,8010,0,0,0
32551,57444,8000,0,0,0
32541,57443,7987,0,0,0
32529,57440,7971,0,0,0
32517,57436,7956,0,0,0
32503,57429,7939,0,0,0
32488,57421,7920,0,0,0
32468,57411,7901,0,0,0
32442,57402,7880,0,0,0
32413,57392,7857,0,0,0
32383,57382,7832,0,0,0
32352,57373,7803,0,0,0
32321,57366,7772,0,0,0
32290,57360,7738,0,0,0
32258,57355,7703,0,0,0
32223,57351,7667,0,0,0
32188,57346,7629,0,0,0
32154,57340,7590,0,0,0
32120,57332,7552,0,0,0
32085,57322,7515,0,0,0
32050,57310,7476,0,0,0
32017,57297,7437,0,0,0
31983,57287,7401,0,0,0
31948,57278,7368,0,0,0
31909,57271,7335,0,0,0
31869,57263,7302,0,0,0
31829,57256,7268,0,0,0
31790,57247,7233,0,0,0
31753,57237,7197,0,0,0
31717,57225,7162,0,0,0
31684,57215,7125,0,0,0
31654,57206,7089,0,0,0
31623,57197,7055,0,0,0
31590,57189,7023,0,0,0
31555,57182,6993,0,0,0
31521,57175,6960,0,0,0
31487,57166,6926,0,0,0
31451,57157,6891,0,0,0
31414,57147,6856,0,0,0
31377,57136,6823,0,0,0
31341,57125,6789,0,0,0
31308,57116,6755,0,0,0
31278,57108,6721,0,0,0
31251,57102,6686,0,0,0
31222,57094,6649,0,0,0
31192,57085,6614,0,0,0
31161,57074,6580,0,0,0
31127,57065,6548,0,0,0
31089,57057,6517,0,0,0
31051,57050,6486,0,0,0
31014,57042,6456,0,0,0
30980,57033,6428,0,0,0
30950,57026,6401,0,0,0
30925,57020,6377,0,0,0
30905,57015,6356,0,0,0
30891,57011,6341,0,0,0
30884,57008,6331,0,0,0
30883,57006,6326,0,0,0
30890,57005,6329,0,0,0
30906,57008,6340,0,0,0
30932,57013,6360,0,0,0
30966,57022,6391,0,0,0
31010,57035,6433,0,0,0
31064,57050,6486,0,0,0
31124,57067,6549,0,0,0
31191,57084,6619,0,0,0
31262,57103,6694,0,0,0
31333,57123,6776,0,0,0
31406,57145,6863,0,0,0
31479,57166,6950,0,0,0
31552,57188,7034,0,0,0
31626,57209,7115,0,0,0
31698,57228,7194,0,0,0
31766,57245,7270,0,0,0
31829,57261,7339,0,0,0
31884,57276,7403,0,0,0
31932,57290,7457,0,0,0
31972,57302,7503,0,0,0
32005,57311,7545,0,0,0
32033,57317,7582,0,0,0
32052,57320,7611,0,0,0
32064,57321,7631,0,0,0
32070,57322,7643,0,0,0
32070,57321,7649,0,0,0
32066,57320,7650,0,0,0
32059,57319,7643,0,0,0
32046,57316,7629,0,0,0
32026,57311,7612,0,0,0
32002,57304,7593,0,0,0
31977,57298,7572,0,0,0
31952,57293,7552,0,0,0
31928,57287,7533,0,0,0
31906,57282,7514,0,0,0
31886,57277,7497,0,0,0
31873,57274,7484,0,0,0
31864,57273,7474,0,0,0
31858,57272,7467,0,0,0
31851,57269,7462,0,0,0
31845,57266,7458,0,0,0
31839,57264,7456,0,0,0
31834,57262,7457,0,0,0
31829,57262,7463,0,0,0
31831,57262,7471,0,0,0
31838,57261,7480,0,0,0
31848,57259,7487,0,0,0
31857,57257,7493,0,0,0
31861,57255,7497,0,0,0
31861,57253,7501,0,0,0
31854,57251,7500,0,0,0
31842,57249,7494,0,0,0
31825,57245,7482,0,0,0
31804,57241,7463,0,0,0
31778,57239,7438,0,0,0
31748,57237,7410,0,0,0
31714,57233,7379,0,0,0
31678,57227,7347,0,0,0
31642,57217,7317,0,0,0
31606,57207,7289,0,0,0
31572,57195,7261,0,0,0
31539,57185,7234,0,0,0
31507,57176,7208,0,0,0
31476,57169,7184,0,0,0
31449,57166,7165,0,0,0
31429,57165,7152,0,0,0
31415,57165,7144,0,0,0
31403,57164,7139,0,0,0
31393,57162,7133,0,0,0
31384,57159,7123,0,0,0
31376,57154,7111,0,0,0
31368,57148,7096,0,0,0
31357,57144,7082,0,0,0
31345,57139,7070,0,0,0
31333,57134,7060,0,0,0
31321,57130,7051,0,0,0
31312,57128,7043,0,0,0
31303,57126,7033,0,0,0
31291,57123,7021,0,0,0
31276,57121,7008,0,0,0
31262,57121,6995,0,0,0
31250,57124,6983,0,0,0
31239,57125,6970,0,0,0
31229,57125,6956,0,0,0
31221,57124,6942,0,0,0
31211,57122,6927,0,0,0
31197,57121,6909,0,0,0
31177,57118,6890,0,0,0
31154,57113,6870,0,0,0
31128,57105,6849,0,0,0
31099,57096,6827,0,0,0
31067,57087,6802,0,0,0
31034,57077,6775,0,0,0
30998,57066,6747,0,0,0
30961,57054,6717,0,0,0
30925,57043,6685,0,0,0
30890,57031,6654,0,0,0
30853,57019,6622,0,0,0
30816,57008,6588,0,0,0
30778,56998,6555,0,0,0
30742,56990,6524,0,0,0
30709,56984,6496,0,0,0
30681,56980,6468,0,0,0
30656,56975,6442,0,0,0
30630,56969,6415,0,0,0
30606,56962,6388,0,0,0
30583,56954,6360,0,0,0
30561,56946,6331,0,0,0
30539,56937,6303,0,0,0
30515,56929,6273,0,0,0
30489,56920,6243,0,0,0
30464,56912,6214,0,0,0
30438,56905,6188,0,0,0
30413,56899,6163,0,0,0
30387,56894,6138,0,0,0
30360,56890,6113,0,0,0
30333,56886,6088,0,0,0
30305,56883,6061,0,0,0
30275,56880,6034,0,0,0
30245,56877,6006,0,0,0
30220,56874,5979,0,0,0
30196,56872,5953,0,0,0
30172,56869,5927,0,0,0
30147,56865,5902,0,0,0
30123,56859,5877,0,0,0
30101,56852,5854,0,0,0
30081,56845,5832,0,0,0
30063,56836,5812,0,0,0
30046,56829,5792,0,0,0
30028,56824,5772,0,0,0
30010,56820,5752,0,0,0
29994,56816,5734,0,0,0
29980,56813,5715,0,0,0
29964,56811,5695,0,0,0
29946,56808,5674,0,0,0
29924,56805,5650,0,0,0
29903,56801,5626,0,0,0
29885,56797,5604,0,0,0
29871,56793,5585,0,0,0
29862,56789,5571,0,0,0
29856,56786,5560,0,0,0
29852,56786,5553,0,0,0
29853,56787,5553,0,0,0
29860,56789,5560,0,0,0
29874,56793,5576,0,0,0
29899,56800,5601,0,0,0
29936,56811,5638,0,0,0
29987,56825,5686,0,0,0
30048,56842,5742,0,0,0
30115,56860,5805,0,0,0
30186,56879,5873,0,0,0
30260,56897,5947,0,0,0
30336,56916,6024,0,0,0
30414,56935,6104,0,0,0
30490,56953,6186,0,0,0
30562,56971,6267,0,0,0
30629,56989,6347,0,0,0
30691,57007,6426,0,0,0
30752,57026,6501,0,0,0
30809,57043,6571,0,0,0
30859,57055,6633,0,0,0
30899,57065,6685,0,0,0
30932,57073,6727,0,0,0
30958,57078,6761,0,0,0
30980,57082,6788,0,0,0
30997,57084,6808,0,0,0
31009,57087,6819,0,0,0
31015,57088,6823,0,0,0
31017,57088,6822,0,0,0
31017,57086,6821,0,0,0
31015,57085,6819,0,0,0
31012,57084,6818,0,0,0
31010,57083,6818,0,0,0
31010,57083,6817,0,0,0
31012,57084,6817,0,0,0
31013,57085,6817,0,0,0
31013,57087,6819,0,0,0
31016,57089,6822,0,0,0
31021,57092,6828,0,0,0
31027,57097,6833,0,0,0
31035,57102,6840,0,0,0
31050,57107,6851,0,0,0
31068,57112,6865,0,0,0
31087,57116,6879,0,0,0
31107,57120,6891,0,0,0
31125,57126,6901,0,0,0
31141,57132,6911,0,0,0
31153,57138,6921,0,0,0
31162,57141,6929,0,0,0
31165,57140,6935,0,0,0
31164,57137,6937,0,0,0
31160,57133,6938,0,0,0
31155,57126,6936,0,0,0
31148,57119,6933,0,0,0
31139,57114,6928,0,0,0
31128,57111,6920,0,0,0
31115,57107,6909,0,0,0
31105,57104,6896,0,0,0
31097,57100,6884,0,0,0
31089,57097,6872,0,0,0
31081,57095,6858,0,0,0
31072,57094,6844,0,0,0
31066,57093,6830,0,0,0
31062,57093,6817,0,0,0
31059,57093,6806,0,0,0
31054,57094,6794,0,0,0
31046,57093,6784,0,0,0
31039,57092,6777,0,0,0
31033,57089,6772,0,0,0
31026,57086,6768,0,0,0
31018,57084,6762,0,0,0
31013,57082,6757,0,0,0
31012,57082,6755,0,0,0
31013,57083,6754,0,0,0
31015,57085,6755,0,0,0
31020,57087,6757,0,0,0
31024,57089,6761,0,0,0
31028,57091,6765,0,0,0
31034,57090,6770,0,0,0
31041,57089,6774,0,0,0
31048,57088,6777,0,0,0
31053,57088,6778,0,0,0
31055,57088,6777,0,0,0
31059,57089,6777,0,0,0
31063,57091,6776,0,0,0
31066,57092,6775,0,0,0
31067,57091,6774,0,0,0
31067,57089,6771,0,0,0
31068,57085,6766,0,0,0
31068,57082,6758,0,0,0
31068,57080,6749,0,0,0
31067,57079,6739,0,0,0
31065,57079,6729,0,0,0
31061,57078,6720,0,0,0
31054,57078,6712,0,0,0
31045,57078,6703,0,0,0
31035,57077,6692,0,0,0
31024,57075,6679,0,0,0
31011,57072,6665,0,0,0
30998,57071,6647,0,0,0
30982,57069,6627,0,0,0
30965,57065,6608,0,0,0
30946,57059,6587,0,0,0
30926,57053,6567,0,0,0
30905,57047,6547,0,0,0
30886,57041,6527,0,0,0
30869,57035,6509,0,0,0
30854,57029,6492,0,0,0
30840,57023,6475,0,0,0
30828,57021,6458,0,0,0
30817,57020,6439,0,0,0
30805,57018,6421,0,0,0
30791,57015,6403,0,0,0
30776,57014,6385,0,0,0
30764,57013,6367,0,0,0
30753,57013,6351,0,0,0
30745,57013,6335,0,0,0
30737,57013,6319,0,0,0
30729,57012,6304,0,0,0
30721,57011,6292,0,0,0
30711,57011,6283,0,0,0
30701,57008,6274,0,0,0
30692,57004,6265,0,0,0
30681,56999,6255,0,0,0
30670,56996,6242,0,0,0
30660,56995,6227,0,0,0
30653,56994,6215,0,0,0
30649,56995,6207,0,0,0
30644,56996,6198,0,0,0
30638,56994,6186,0,0,0
30632,56989,6171,0,0,0
30621,56984,6153,0,0,0
30606,56976,6135,0,0,0
30588,56968,6115,0,0,0
30569,56959,6096,0,0,0
30548,56949,6076,0,0,0
30523,56941,6056,0,0,0
30496,56934,6032,0,0,0
30470,56929,6006,0,0,0
30446,56926,5981,0,0,0
30424,56922,5958,0,0,0
30401,56918,5938,0,0,0
30380,56914,5920,0,0,0
30364,56911,5904,0,0,0
30354,56908,5890,0,0,0
30348,56906,5878,0,0,0
30347,56906,5870,0,0,0
30355,56909,5869,0,0,0
30372,56913,5877,0,0,0
30396,56920,5892,0,0,0
30427,56931,5916,0,0,0
30462,56945,5948,0,0,0
30502,56959,5988,0,0,0
30548,56974,6034,0,0,0
30600,56990,6090,0,0,0
30657,57007,6152,0,0,0
30720,57025,6219,0,0,0
30788,57042,6291,0,0,0
30862,57060,6367,0,0,0
30938,57077,6446,0,0,0
31018,57095,6529,0,0,0
31097,57112,6615,0,0,0
31174,57128,6700,0,0,0
31247,57145,6783,0,0,0
31316,57161,6862,0,0,0
31380,57179,6934,0,0,0
31440,57195,6997,0,0,0
31491,57209,7053,0,0,0
31532,57218,7101,0,0,0
31565,57224,7139,0,0,0
31594,57229,7171,0,0,0
31617,57234,7197,0,0,0
31634,57239,7215,0,0,0
31641,57244,7226,0,0,0
31640,57245,7231,0,0,0
31634,57244,7233,0,0,0
31627,57244,7234,0,0,0
31623,57244,7234,0,0,0
31620,57245,7234,0,0,0
31620,57245,7235,0,0,0
31623,57242,7237,0,0,0
31627,57239,7241,0,0,0
31632,57237,7247,0,0,0
31638,57236,7256,0,0,0
31646,57237,7266,0,0,0
31658,57243,7279,0,0,0
31671,57249,7293,0,0,0
31686,57256,7307,0,0,0
31702,57262,7319,0,0,0
31721,57268,7330,0,0,0
31741,57272,7340,0,0,0
31760,57275,7353,0,0,0
31779,57276,7369,0,0,0
31799,57277,7388,0,0,0
31817,57280,7407,0,0,0
31833,57283,7425,0,0,0
31846,57286,7442,0,0,0
31856,57290,7456,0,0,0
31861,57295,7468,0,0,0
31864,57299,7478,0,0,0
31868,57300,7486,0,0,0
31873,57300,7494,0,0,0
31879,57300,7499,0,0,0
31884,57301,7501,0,0,0
31886,57300,7499,0,0,0
31884,57298,7496,0,0,0
31878,57297,7489,0,0,0
31869,57295,7479,0,0,0
31858,57292,7467,0,0,0
31845,57288,7454,0,0,0
31831,57283,7441,0,0,0
31815,57277,7429,0,0,0
31799,57270,7418,0,0,0
31785,57262,7407,0,0,0
31772,57255,7398,0,0,0
31761,57250,7388,0,0,0
31754,57250,7378,0,0,0
31748,57250,7369,0,0,0
31744,57252,7361,0,0,0
31741,57254,7356,0,0,0
31740,57259,7352,0,0,0
31743,57265,7349,0,0,0
31748,57269,7347,0,0,0
31755,57273,7351,0,0,0
31762,57276,7359,0,0,0
31770,57278,7367,0,0,0
31776,57279,7371,0,0,0
31779,57281,7370,0,0,0
31777,57280,7366,0,0,0
31773,57277,7360,0,0,0
31767,57273,7349,0,0,0
31761,57268,7336,0,0,0
31754,57264,7326,0,0,0
31746,57260,7319,0,0,0
31737,57258,7312,0,0,0
31728,57257,7304,0,0,0
31720,57257,7293,0,0,0
31710,57256,7281,0,0,0
31698,57253,7268,0,0,0
31684,57248,7253,0,0,0
31669,57245,7239,0,0,0
31654,57242,7226,0,0,0
31640,57237,7211,0,0,0
31625,57232,7195,0,0,0
31609,57226,7176,0,0,0
31589,57220,7155,0,0,0
31566,57215,7131,0,0,0
31542,57211,7106,0,0,0
31520,57205,7081,0,0,0
31502,57200,7056,0,0,0
31486,57196,7035,0,0,0
31471,57192,7015,0,0,0
31454,57190,6994,0,0,0
31436,57188,6973,0,0,0
31420,57187,6955,0,0,0
31405,57186,6940,0,0,0
31387,57184,6926,0,0,0
31366,57179,6911,0,0,0
31344,57172,6892,0,0,0
31324,57163,6870,0,0,0
31302,57154,6847,0,0,0
31279,57145,6820,0,0,0
31254,57135,6789,0,0,0
31227,57127,6758,0,0,0
31201,57120,6731,0,0,0
31175,57113,6706,0,0,0
31154,57108,6685,0,0,0
31136,57104,6666,0,0,0
31119,57101,6647,0,0,0
31104,57098,6628,0,0,0
31092,57096,6609,0,0,0
31081,57094,6591,0,0,0
31073,57091,6574,0,0,0
31064,57086,6558,0,0,0
31055,57080,6542,0,0,0
31042,57075,6525,0,0,0
31027,57071,6509,0,0,0
31011,57068,6492,0,0,0
30994,57063,6473,0,0,0
30977,57058,6451,0,0,0
30958,57051,6429,0,0,0
30940,57046,6408,0,0,0
30922,57042,6390,0,0,0
30902,57038,6374,0,0,0
30884,57035,6356,0,0,0
30867,57033,6339,0,0,0
30851,57031,6324,0,0,0
30837,57029,6309,0,0,0
30826,57026,6294,0,0,0
30817,57025,6279,0,0,0
30809,57024,6265,0,0,0
30800,57023,6253,0,0,0
30790,57023,6243,0,0,0
30773,57021,6231,0,0,0
30752,57018,6216,0,0,0
30730,57012,6197,0,0,0
30706,57004,6175,0,0,0
30679,56997,6152,0,0,0
30654,56993,6128,0,0,0
30632,56989,6104,0,0,0
30612,56985,6082,0,0,0
30593,56980,6060,0,0,0
30574,56974,6036,0,0,0
30551,56966,6008,0,0,0
30525,56958,5980,0,0,0
30497,56949,5953,0,0,0
30468,56940,5926,0,0,0
30440,56933,5899,0,0,0
30414,56927,5871,0,0,0
30393,56922,5843,0,0,0
30376,56916,5817,0,0,0
30360,56909,5791,0,0,0
30343,56900,5766,0,0,0
30325,56892,5743,0,0,0
30306,56885,5724,0,0,0
30288,56881,5707,0,0,0
30274,56880,5690,0,0,0
30265,56880,5676,0,0,0
30260,56881,5666,0,0,0
30263,56883,5665,0,0,0
30274,56887,5672,0,0,0
30294,56894,5689,0,0,0
30322,56902,5719,0,0,0
30358,56911,5758,0,0,0
30404,56923,5807,0,0,0
30462,56938,5867,0,0,0
30529,56955,5937,0,0,0
30602,56975,6015,0,0,0
30681,56999,6099,0,0,0
30764,57026,6187,0,0,0
30849,57052,6276,0,0,0
30932,57077,6366,0,0,0
31012,57101,6458,0,0,0
31089,57124,6548,0,0,0
31165,57143,6633,0,0,0
31237,57160,6710,0,0,0
31304,57173,6781,0,0,0
31365,57184,6845,0,0,0
31420,57192,6902,0,0,0
31466,57198,6951,0,0,0
31504,57203,6994,0,0,0
31536,57208,7031,0,0,0
31561,57215,7060,0,0,0
31580,57222,7083,0,0,0
31594,57228,7101,0,0,0
31603,57232,7118,0,0,0
31607,57237,7132,0,0,0
31606,57240,7141,0,0,0
31605,57243,7143,0,0,0
31605,57246,7144,0,0,0
31606,57250,7143,0,0,0
31607,57250,7140,0,0,0
31608,57247,7134,0,0,0
31609,57245,7127,0,0,0
31610,57243,7121,0,0,0
31613,57242,7119,0,0,0
31618,57241,7120,0,0,0
31625,57242,7126,0,0,0
31634,57243,7137,0,0,0
31646,57245,7153,0,0,0
31660,57249,7171,0,0,0
31678,57254,7192,0,0,0
31701,57260,7215,0,0,0
31726,57267,7239,0,0,0
31752,57274,7264,0,0,0
31776,57282,7289,0,0,0
31796,57288,7312,0,0,0
31814,57292,7332,0,0,0
31827,57296,7348,0,0,0
31837,57298,7360,0,0,0
31844,57299,7368,0,0,0
31847,57300,7375,0,0,0
31845,57301,7380,0,0,0
31838,57302,7380,0,0,0
31826,57302,7376,0,0,0
31812,57299,7366,0,0,0
31799,57296,7354,0,0,0
31786,57293,7342,0,0,0
31773,57289,7329,0,0,0
31762,57286,7315,0,0,0
31752,57281,7302,0,0,0
31743,57275,7289,0,0,0
31734,57268,7276,0,0,0
31726,57263,7261,0,0,0
31716,57258,7244,0,0,0
31706,57252,7230,0,0,0
31694,57248,7217,0,0,0
31681,57243,7205,0,0,0
31670,57239,7196,0,0,0
31663,57235,7190,0,0,0
31659,57232,7187,0,0,0
31656,57232,7186,0,0,0
31655,57234,7186,0,0,0
31659,57238,7187,0,0,0
31666,57242,7188,0,0,0
31673,57247,7188,0,0,0
31678,57251,7189,0,0,0
31683,57255,7192,0,0,0
31690,57256,7197,0,0,0
31697,57255,7201,0,0,0
31704,57255,7203,0,0,0
31710,57255,7205,0,0,0
31716,57255,7207,0,0,0
31716,57256,7208,0,0,0
31712,57256,7205,0,0,0
31706,57254,7200,0,0,0
31698,57252,7191,0,0,0
31689,57248,7179,0,0,0
31677,57243,7164,0,0,0
31661,57238,7145,0,0,0
31643,57233,7126,0,0,0
31623,57228,7106,0,0,0
31605,57225,7089,0,0,0
31587,57221,7073,0,0,0
31571,57217,7058,0,0,0
31554,57213,7042,0,0,0
31538,57207,7026,0,0,0
31521,57201,7009,0,0,0
31504,57194,6989,0,0,0
31485,57189,6968,0,0,0
31464,57183,6946,0,0,0
31441,57173,6921,0,0,0
31418,57161,6893,0,0,0
31394,57150,6865,0,0,0
31371,57142,6838,0,0,0
31348,57137,6810,0,0,0
31323,57132,6782,0,0,0
31298,57127,6756,0,0,0
31276,57123,6731,0,0,0
31253,57119,6708,0,0,0
31230,57113,6685,0,0,0
31206,57109,6662,0,0,0
31181,57105,6641,0,0,0
31159,57101,6621,0,0,0
31139,57096,6603,0,0,0
31120,57092,6587,0,0,0
31100,57088,6574,0,0,0
31083,57086,6561,0,0,0
31071,57083,6549,0,0,0
31064,57081,6538,0,0,0
31060,57080,6525,0,0,0
31056,57080,6508,0,0,0
31047,57080,6489,0,0,0
31033,57076,6470,0,0,0
31017,57070,6450,0,0,0
31002,57066,6430,0,0,0
30988,57061,6412,0,0,0
30976,57057,6397,0,0,0
30967,57054,6383,0,0,0
30958,57054,6369,0,0,0
30948,57053,6355,0,0,0
30936,57052,6338,0,0,0
30923,57051,6319,0,0,0
30908,57048,6298,0,0,0
30890,57043,6275,0,0,0
30869,57038,6254,0,0,0
30849,57034,6234,0,0,0
30827,57029,6212,0,0,0
30804,57023,6190,0,0,0
30782,57016,6170,0,0,0
30760,57010,6151,0,0,0
30738,57001,6131,0,0,0
30716,56992,6110,0,0,0
30695,56982,6087,0,0,0
30672,56972,6063,0,0,0
30649,56966,6040,0,0,0
30627,56961,6019,0,0,0
30606,56958,5999,0,0,0
30586,56954,5978,0,0,0
30569,56950,5956,0,0,0
30551,56945,5932,0,0,0
30533,56938,5906,0,0,0
30515,56929,5882,0,0,0
30499,56921,5858,0,0,0
30483,56913,5836,0,0,0
30463,56908,5817,0,0,0
30443,56903,5798,0,0,0
30422,56899,5781,0,0,0
30402,56896,5762,0,0,0
30379,56892,5738,0,0,0
30355,56887,5711,0,0,0
30332,56881,5685,0,0,0
30311,56874,5661,0,0,0
30288,56867,5639,0,0,0
30265,56860,5616,0,0,0
30243,56853,5593,0,0,0
30220,56846,5567,0,0,0
30194,56839,5539,0,0,0
30165,56834,5511,0,0,0
30132,56829,5483,0,0,0
30096,56826,5454,0,0,0
30061,56822,5424,0,0,0
30025,56817,5392,0,0,0
29989,56811,5359,0,0,0
29952,56803,5324,0,0,0
29915,56792,5289,0,0,0
29879,56780,5253,0,0,0
29845,56766,5214,0,0,0
29809,56753,5175,0,0,0
29772,56740,5137,0,0,0
29735,56729,5104,0,0,0
29700,56720,5075,0,0,0
29669,56712,5049,0,0,0
29647,56708,5030,0,0,0
29637,56706,5021,0,0,0
29636,56708,5025,0,0,0
29645,56712,5040,0,0,0
29664,56720,5065,0,0,0
29692,56730,5101,0,0,0
29730,56743,5147,0,0,0
29778,56757,5200,0,0,0
29834,56773,5259,0,0,0
29894,56790,5324,0,0,0
29958,56810,5395,0,0,0
30025,56829,5473,0,0,0
30096,56849,5553,0,0,0
30169,56868,5632,0,0,0
30241,56888,5709,0,0,0
30310,56905,5783,0,0,0
30377,56920,5852,0,0,0
30442,56933,5918,0,0,0
30501,56945,5978,0,0,0
30552,56955,6032,0,0,0
30600,56965,6084,0,0,0
30643,56973,6131,0,0,0
30678,56981,6170,0,0,0
30703,56987,6199,0,0,0
30719,56993,6218,0,0,0
30727,56997,6230,0,0,0
30728,56998,6234,0,0,0
30721,56997,6232,0,0,0
30707,56993,6224,0,0,0
30687,56986,6210,0,0,0
30663,56980,6193,0,0,0
30638,56975,6174,0,0,0
30612,56970,6154,0,0,0
30587,56965,6132,0,0,0
30566,56961,6110,0,0,0
30551,56959,6091,0,0,0
30537,56958,6075,0,0,0
30520,56955,6064,0,0,0
30504,56953,6055,0,0,0
30489,56952,6048,0,0,0
30477,56950,6043,0,0,0
30470,56949,6039,0,0,0
30468,56945,6035,0,0,0
30467,56940,6033,0,0,0
30467,56934,6033,0,0,0
30468,56929,6034,0,0,0
30469,56927,6036,0,0,0
30469,56927,6039,0,0,0
30469,56926,6045,0,0,0
30469,56924,6054,0,0,0
30471,56922,6063,0,0,0
30474,56920,6071,0,0,0
30477,56919,6073,0,0,0
30475,56920,6072,0,0,0
30470,56921,6068,0,0,0
30461,56922,6061,0,0,0
30449,56922,6053,0,0,0
30435,56922,6043,0,0,0
30418,56920,6028,0,0,0
30403,56917,6013,0,0,0
30389,56912,5995,0,0,0
30371,56907,5976,0,0,0
30349,56901,5954,0,0,0
30321,56897,5931,0,0,0
30290,56892,5906,0,0,0
30261,56888,5881,0,0,0
30235,56884,5858,0,0,0
30212,56879,5833,0,0,0
30191,56873,5807,0,0,0
30174,56867,5785,0,0,0
30160,56862,5767,0,0,0
30147,56859,5751,0,0,0
30133,56856,5734,0,0,0
30118,56854,5718,0,0,0
30102,56850,5704,0,0,0
30087,56847,5695,0,0,0
30071,56845,5688,0,0,0
30052,56845,5679,0,0,0
30032,56845,5670,0,0,0
30014,56843,5658,0,0,0
29999,56839,5647,0,0,0
29983,56835,5636,0,0,0
29968,56829,5624,0,0,0
29955,56824,5612,0,0,0
29940,56818,5598,0,0,0
29924,56812,5582,0,0,0
29909,56805,5567,0,0,0
29894,56799,5552,0,0,0
29878,56792,5537,0,0,0
29860,56785,5522,0,0,0
29841,56779,5505,0,0,0
29820,56773,5486,0,0,0
29797,56768,5466,0,0,0
29772,56762,5445,0,0,0
29746,56755,5423,0,0,0
29720,56748,5400,0,0,0
29694,56741,5377,0,0,0
29669,56736,5354,0,0,0
29642,56730,5330,0,0,0
29613,56724,5304,0,0,0
29583,56716,5278,0,0,0
29553,56706,5251,0,0,0
29521,56696,5222,0,0,0
29488,56687,5193,0,0,0
29457,56680,5165,0,0,0
29429,56673,5139,0,0,0
29402,56666,5111,0,0,0
29377,56659,5082,0,0,0
29352,56653,5051,0,0,0
29327,56649,5020,0,0,0
29304,56645,4991,0,0,0
29282,56640,4965,0,0,0
29261,56634,4942,0,0,0
29238,56629,4918,0,0,0
29215,56623,4892,0,0,0
29189,56615,4865,0,0,0
29161,56606,4838,0,0,0
29129,56598,4812,0,0,0
29095,56590,4787,0,0,0
29061,56582,4763,0,0,0
29029,56573,4738,0,0,0
28996,56563,4711,0,0,0
28963,56555,4681,0,0,0
28931,56547,4648,0,0,0
28902,56541,4618,0,0,0
28876,56536,4591,0,0,0
28850,56531,4565,0,0,0
28823,56526,4539,0,0,0
28797,56520,4513,0,0,0
28772,56513,4485,0,0,0
28749,56504,4457,0,0,0
28727,56496,4431,0,0,0
28705,56489,4407,0,0,0
28684,56484,4386,0,0,0
28662,56477,4365,0,0,0
28636,56470,4344,0,0,0
28609,56464,4325,0,0,0
28581,56458,4306,0,0,0
28554,56451,4286,0,0,0
28527,56445,4263,0,0,0
28500,56440,4239,0,0,0
28474,56435,4216,0,0,0
28448,56430,4193,0,0,0
28421,56425,4171,0,0,0
28395,56421,4146,0,0,0
28370,56415,4120,0,0,0
28345,56408,4095,0,0,0
28324,56401,4070,0,0,0
28306,56393,4047,0,0,0
28289,56384,4025,0,0,0
28266,56376,4000,0,0,0
28238,56368,3975,0,0,0
28206,56361,3951,0,0,0
28175,56355,3927,0,0,0
28145,56351,3902,0,0,0
28117,56347,3876,0,0,0
28089,56344,3850,0,0,0
28063,56340,3824,0,0,0
28038,56336,3796,0,0,0
28013,56332,3768,0,0,0
27988,56327,3740,0,0,0
27963,56321,3713,0,0,0
27939,56313,3688,0,0,0
27917,56306,3666,0,0,0
27898,56300,3646,0,0,0
27883,56295,3626,0,0,0
27872,56292,3606,0,0,0
27861,56290,3586,0,0,0
27851,56290,3569,0,0,0
27841,56290,3558,0,0,0
27829,56288,3552,0,0,0
27819,56287,3550,0,0,0
27814,56288,3551,0,0,0
27817,56291,3557,0,0,0
27830,56295,3569,0,0,0
27855,56300,3589,0,0,0
27889,56307,3618,0,0,0
27932,56315,3658,0,0,0
27983,56325,3706,0,0,0
28038,56337,3760,0,0,0
28098,56351,3821,0,0,0
28161,56367,3888,0,0,0
28224,56384,3959,0,0,0
28288,56401,4033,0,0,0
28353,56418,4103,0,0,0
28419,56436,4169,0,0,0
28483,56456,4233,0,0,0
28544,56473,4296,0,0,0
28602,56488,4356,0,0,0
28653,56499,4413,0,0,0
28696,56508,4466,0,0,0
28731,56516,4512,0,0,0
28762,56524,4548,0,0,0
28790,56531,4577,0,0,0
28812,56537,4600,0,0,0
28828,56541,4617,0,0,0
28839,56544,4629,0,0,0
28845,56550,4637,0,0,0
28848,56555,4641,0,0,0
28850,56556,4642,0,0,0
28851,56556,4640,0,0,0
28851,56554,4635,0,0,0
28849,56551,4626,0,0,0
28846,56548,4617,0,0,0
28842,56546,4607,0,0,0
28838,56545,4599,0,0,0
28835,56541,4590,0,0,0
28832,56538,4580,0,0,0
28829,56535,4569,0,0,0
28826,56534,4560,0,0,0
28825,56531,4554,0,0,0
28826,56530,4550,0,0,0
28829,56529,4549,0,0,0
28834,56529,4551,0,0,0
28840,56530,4556,0,0,0
28848,56532,4563,0,0,0
28858,56535,4574,0,0,0
28870,56540,4587,0,0,0
28883,56545,4600,0,0,0
28896,56550,4611,0,0,0
28910,56555,4619,0,0,0
28924,56562,4626,0,0,0
28940,56570,4630,0,0,0
28954,56575,4632,0,0,0
28966,56578,4634,0,0,0
28975,56580,4637,0,0,0
28982,56582,4641,0,0,0
28987,56586,4642,0,0,0
28992,56589,4641,0,0,0
28995,56592,4638,0,0,0
28995,56592,4634,0,0,0
28994,56590,4629,0,0,0
28993,56587,4623,0,0,0
28993,56585,4616,0,0,0
28994,56583,4611,0,0,0
28994,56579,4607,0,0,0
28995,56575,4603,0,0,0
28998,56573,4598,0,0,0
29001,56573,4593,0,0,0
29005,56573,4587,0,0,0
29009,56572,4582,0,0,0
29014,56571,4581,0,0,0
29019,56570,4581,0,0,0
29024,56570,4581,0,0,0
29026,56569,4582,0,0,0
29027,56567,4586,0,0,0
29027,56566,4589,0,0,0
29029,56566,4591,0,0,0
29034,56567,4595,0,0,0
29040,56569,4602,0,0,0
29046,56572,4614,0,0,0
29051,56576,4626,0,0,0
29058,56579,4636,0,0,0
29069,56582,4645,0,0,0
29085,56587,4652,0,0,0
29102,56592,4657,0,0,0
29117,56596,4660,0,0,0
29126,56598,4664,0,0,0
29132,56600,4664,0,0,0
29134,56601,4660,0,0,0
29133,56602,4652,0,0,0
29129,56602,4643,0,0,0
29125,56600,4631,0,0,0
29119,56598,4619,0,0,0
29110,56594,4606,0,0,0
29100,56590,4593,0,0,0
29092,56587,4580,0,0,0
29085,56583,4569,0,0,0
29079,56580,4559,0,0,0
29074,56579,4551,0,0,0
29071,56579,4544,0,0,0
29069,56580,4535,0,0,0
29066,56581,4526,0,0,0
29061,56582,4516,0,0,0
29055,56581,4507,0,0,0
29051,56580,4499,0,0,0
29046,56579,4491,0,0,0
29043,56578,4483,0,0,0
29038,56575,4472,0,0,0
29033,56572,4458,0,0,0
29029,56567,4444,0,0,0
29025,56563,4431,0,0,0
29021,56560,4419,0,0,0
29015,56557,4407,0,0,0
29008,56555,4393,0,0,0
28998,56554,4378,0,0,0
28985,56551,4364,0,0,0
28970,56548,4349,0,0,0
28957,56544,4332,0,0,0
28949,56540,4317,0,0,0
28944,56536,4302,0,0,0
28940,56532,4290,0,0,0
28937,56530,4279,0,0,0
28934,56530,4272,0,0,0
28933,56532,4266,0,0,0
28934,56531,4261,0,0,0
28936,56530,4254,0,0,0
28937,56531,4245,0,0,0
28935,56533,4235,0,0,0
28931,56535,4227,0,0,0
28923,56535,4218,0,0,0
28913,56532,4208,0,0,0
28901,56528,4196,0,0,0
28889,56524,4184,0,0,0
28877,56521,4171,0,0,0
28865,56517,4158,0,0,0
28853,56513,4145,0,0,0
28841,56509,4131,0,0,0
28827,56505,4116,0,0,0
28813,56501,4099,0,0,0
28800,56498,4082,0,0,0
28791,56496,4066,0,0,0
28786,56492,4050,0,0,0
28779,56487,4034,0,0,0
28769,56481,4018,0,0,0
28761,56476,4004,0,0,0
28756,56472,3993,0,0,0
28752,56467,3985,0,0,0
28748,56463,3976,0,0,0
28744,56461,3967,0,0,0
28741,56460,3960,0,0,0
28742,56460,3956,0,0,0
28748,56461,3957,0,0,0
28760,56467,3964,0,0,0
28779,56475,3977,0,0,0
28808,56486,3996,0,0,0
28849,56500,4023,0,0,0
28901,56516,4061,0,0,0
28961,56532,4109,0,0,0
29029,56548,4165,0,0,0
29103,56564,4229,0,0,0
29184,56581,4302,0,0,0
29269,56599,4381,0,0,0
29356,56620,4462,0,0,0
29443,56641,4544,0,0,0
29530,56661,4626,0,0,0
29616,56682,4710,0,0,0
29698,56702,4794,0,0,0
29777,56721,4877,0,0,0
29848,56740,4954,0,0,0
29912,56757,5024,0,0,0
29971,56772,5088,0,0,0
30028,56786,5149,0,0,0
30081,56799,5206,0,0,0
30128,56810,5258,0,0,0
30168,56821,5302,0,0,0
30204,56831,5338,0,0,0
30238,56839,5367,0,0,0
30267,56845,5390,0,0,0
30289,56847,5407,0,0,0
30304,56848,5418,0,0,0
30313,56848,5426,0,0,0
30320,56848,5433,0,0,0
30327,56848,5437,0,0,0
30333,56849,5440,0,0,0
30336,56852,5441,0,0,0
30335,56853,5439,0,0,0
30332,56853,5433,0,0,0
30327,56853,5428,0,0,0
30324,56852,5424,0,0,0
30324,56852,5419,0,0,0
30328,56850,5415,0,0,0
30335,56848,5412,0,0,0
30346,56848,5414,0,0,0
30360,56851,5420,0,0,0
30375,56855,5429,0,0,0
30392,56861,5440,0,0,0
30409,56865,5453,0,0,0
30426,56870,5468,0,0,0
30443,56875,5483,0,0,0
30460,56881,5496,0,0,0
30475,56887,5509,0,0,0
30486,56893,5522,0,0,0
30492,56896,5535,0,0,0
30497,56897,5546,0,0,0
30501,56896,5554,0,0,0
30502,56894,5557,0,0,0
30502,56892,5556,0,0,0
30501,56891,5551,0,0,0
30500,56890,5545,0,0,0
30500,56888,5538,0,0,0
30500,56887,5531,0,0,0
30496,56885,5524,0,0,0
30489,56883,5517,0,0,0
30481,56881,5509,0,0,0
30473,56878,5504,0,0,0
30466,56876,5500,0,0,0
30458,56873,5496,0,0,0
30451,56872,5491,0,0,0
30445,56871,5486,0,0,0
30441,56871,5480,0,0,0
30440,56869,5472,0,0,0
30441,56868,5464,0,0,0
30442,56867,5459,0,0,0
30442,56866,5458,0,0,0
30444,56868,5459,0,0,0
30451,56870,5461,0,0,0
30462,56871,5463,0,0,0
30474,56871,5467,0,0,0
30487,56870,5473,0,0,0
30499,56870,5480,0,0,0
30511,56871,5486,0,0,0
30524,56873,5490,0,0,0
30538,56876,5489,0,0,0
30550,56881,5486,0,0,0
30556,56885,5484,0,0,0
30556,56887,5483,0,0,0
30551,56889,5481,0,0,0
30544,56891,5481,0,0,0
30538,56891,5480,0,0,0
30534,56888,5480,0,0,0
30529,56884,5480,0,0,0
30523,56879,5479,0,0,0
30513,56875,5474,0,0,0
30501,56872,5463,0,0,0
30487,56871,5447,0,0,0
30472,56871,5430,0,0,0
30455,56869,5411,0,0,0
30436,56863,5391,0,0,0
30415,56855,5369,0,0,0
30393,56849,5347,0,0,0
30372,56843,5326,0,0,0
30352,56837,5303,0,0,0
30332,56830,5280,0,0,0
30312,56822,5258,0,0,0
30294,56815,5234,0,0,0
30277,56808,5211,0,0,0
30263,56801,5189,0,0,0
30248,56794,5168,0,0,0
30232,56790,5147,0,0,0
30217,56788,5128,0,0,0
30200,56786,5109,0,0,0
30181,56782,5090,0,0,0
30161,56777,5070,0,0,0
30141,56773,5052,0,0,0
30118,56769,5032,0,0,0
30095,56765,5012,0,0,0
30072,56761,4990,0,0,0
30049,56756,4968,0,0,0
30028,56752,4946,0,0,0
30009,56749,4925,0,0,0
29992,56746,4904,0,0,0
29977,56743,4885,0,0,0
29963,56741,4869,0,0,0
29950,56739,4855,0,0,0
29938,56737,4844,0,0,0
29923,56735,4832,0,0,0
29906,56732,4818,0,0,0
29888,56729,4803,0,0,0
29874,56725,4787,0,0,0
29860,56719,4768,0,0,0
29843,56711,4747,0,0,0
29825,56704,4726,0,0,0
29808,56697,4707,0,0,0
29796,56692,4689,0,0,0
29787,56689,4673,0,0,0
29780,56688,4659,0,0,0
29774,56685,4647,0,0,0
29769,56682,4637,0,0,0
29766,56679,4627,0,0,0
29764,56677,4617,0,0,0
29760,56674,4606,0,0,0
29755,56671,4595,0,0,0
29750,56668,4583,0,0,0
29745,56665,4572,0,0,0
29738,56661,4560,0,0,0
29728,56660,4550,0,0,0
29718,56659,4540,0,0,0
29709,56658,4526,0,0,0
29698,56657,4508,0,0,0
29686,56656,4491,0,0,0
29675,56654,4475,0,0,0
29664,56651,4458,0,0,0
29651,56648,4440,0,0,0
29638,56646,4421,0,0,0
29625,56643,4404,0,0,0
29609,56639,4387,0,0,0
29591,56632,4369,0,0,0
29572,56626,4352,0,0,0
29554,56619,4334,0,0,0
29537,56611,4316,0,0,0
29522,56606,4295,0,0,0
29508,56602,4274,0,0,0
29494,56598,4254,0,0,0
29479,56594,4237,0,0,0
29465,56590,4221,0,0,0
29456,56588,4208,0,0,0
29451,56587,4200,0,0,0
29453,56588,4198,0,0,0
29463,56592,4201,0,0,0
29480,56598,4210,0,0,0
29504,56605,4227,0,0,0
29534,56614,4250,0,0,0
29572,56624,4280,0,0,0
29616,56634,4319,0,0,0
29667,56645,4368,0,0,0
29725,56658,4426,0,0,0
29786,56673,4492,0,0,0
29850,56689,4564,0,0,0
29916,56707,4640,0,0,0
29984,56726,4720,0,0,0
30056,56746,4800,0,0,0
30130,56765,4879,0,0,0
30204,56783,4959,0,0,0
30275,56802,5038,0,0,0
30345,56821,5115,0,0,0
30414,56839,5190,0,0,0
30480,56856,5261,0,0,0
30540,56872,5326,0,0,0
30594,56888,5383,0,0,0
30641,56900,5432,0,0,0
30682,56911,5474,0,0,0
30714,56920,5509,0,0,0
30739,56927,5537,0,0,0
30759,56933,5558,0,0,0
30772,56936,5574,0,0,0
30779,56938,5585,0,0,0
30785,56937,5593,0,0,0
30789,56933,5599,0,0,0
30791,56929,5603,0,0,0
30789,56925,5603,0,0,0
30786,56921,5601,0,0,0
30781,56917,5597,0,0,0
30776,56914,5591,0,0,0
30773,56910,5585,0,0,0
30773,56906,5580,0,0,0
30773,56904,5576,0,0,0
30775,56905,5573,0,0,0
30779,56908,5570,0,0,0
30786,56913,5570,0,0,0
30797,56920,5572,0,0,0
30810,56926,5577,0,0,0
30827,56932,5585,0,0,0
30849,56938,5597,0,0,0
30873,56945,5612,0,0,0
30897,56952,5629,0,0,0
30920,56959,5645,0,0,0
30940,56965,5660,0,0,0
30956,56971,5674,0,0,0
30969,56975,5687,0,0,0
30982,56979,5701,0,0,0
30994,56981,5714,0,0,0
31004,56983,5724,0,0,0
31009,56984,5730,0,0,0
31007,56982,5734,0,0,0
30998,56976,5734,0,0,0
30983,56969,5730,0,0,0
30969,56961,5721,0,0,0
30957,56954,5709,0,0,0
30947,56948,5696,0,0,0
30938,56942,5682,0,0,0
30925,56938,5667,0,0,0
30912,56937,5653,0,0,0
30900,56937,5639,0,0,0
30888,56935,5623,0,0,0
30877,56932,5608,0,0,0
30865,56929,5594,0,0,0
30855,56925,5582,0,0,0
30844,56922,5569,0,0,0
30832,56918,5557,0,0,0
30822,56914,5548,0,0,0
30816,56913,5542,0,0,0
30811,56913,5539,0,0,0
30807,56916,5536,0,0,0
30804,56917,5530,0,0,0
30799,56917,5524,0,0,0
30793,56916,5517,0,0,0
30787,56915,5510,0,0,0
30784,56913,5503,0,0,0
30784,56910,5497,0,0,0
30783,56908,5493,0,0,0
30781,56906,5492,0,0,0
30782,56907,5494,0,0,0
30787,56909,5499,0,0,0
30793,56909,5503,0,0,0
30800,56909,5508,0,0,0
30807,56911,5513,0,0,0
30811,56912,5516,0,0,0
30811,56912,5516,0,0,0
30809,56911,5514,0,0,0
30806,56908,5510,0,0,0
30802,56906,5505,0,0,0
30797,56902,5496,0,0,0
30788,56896,5482,0,0,0
30774,56888,5462,0,0,0
30755,56879,5437,0,0,0
30734,56872,5411,0,0,0
30714,56865,5383,0,0,0
30694,56860,5357,0,0,0
30675,56857,5331,0,0,0
30660,56856,5310,0,0,0
30645,56856,5292,0,0,0
30631,56855,5276,0,0,0
30617,56854,5261,0,0,0
30605,56850,5248,0,0,0
30589,56844,5230,0,0,0
30570,56839,5208,0,0,0
30547,56835,5185,0,0,0
30522,56828,5161,0,0,0
30497,56820,5136,0,0,0
30472,56813,5111,0,0,0
30446,56808,5084,0,0,0
30422,56804,5056,0,0,0
30398,56799,5030,0,0,0
30377,56796,5008,0,0,0
30357,56793,4988,0,0,0
30339,56791,4968,0,0,0
30325,56789,4948,0,0,0
30314,56786,4930,0,0,0
30305,56781,4914,0,0,0
30296,56776,4900,0,0,0
30286,56773,4889,0,0,0
30277,56770,4879,0,0,0
30266,56766,4869,0,0,0
30252,56762,4859,0,0,0
30234,56757,4848,0,0,0
30215,56751,4834,0,0,0
30195,56744,4817,0,0,0
30178,56737,4799,0,0,0
30162,56731,4781,0,0,0
30147,56728,4761,0,0,0
30130,56726,4739,0,0,0
30113,56722,4716,0,0,0
30098,56718,4694,0,0,0
30084,56713,4675,0,0,0
30073,56709,4658,0,0,0
30062,56706,4642,0,0,0
30051,56704,4624,0,0,0
30038,56703,4604,0,0,0
30023,56701,4583,0,0,0
30004,56698,4561,0,0,0
29982,56692,4537,0,0,0
29957,56683,4511,0,0,0
29928,56674,4484,0,0,0
29895,56663,4458,0,0,0
29860,56652,4432,0,0,0
29826,56644,4407,0,0,0
29794,56637,4382,0,0,0
29760,56632,4356,0,0,0
29725,56626,4328,0,0,0
29688,56619,4299,0,0,0
29651,56612,4269,0,0,0
29614,56604,4238,0,0,0
29579,56596,4206,0,0,0
29543,56588,4172,0,0,0
29509,56580,4139,0,0,0
29477,56574,4108,0,0,0
29448,56569,4078,0,0,0
29421,56563,4048,0,0,0
29393,56556,4018,0,0,0
29363,56549,3989,0,0,0
29331,56542,3961,0,0,0
29299,56536,3932,0,0,0
29269,56530,3904,0,0,0
29240,56523,3876,0,0,0
29211,56515,3847,0,0,0
29183,56508,3821,0,0,0
29158,56501,3798,0,0,0
29134,56494,3777,0,0,0
29113,56487,3758,0,0,0
29097,56482,3741,0,0,0
29086,56476,3730,0,0,0
29078,56473,3725,0,0,0
29077,56472,3727,0,0,0
29083,56474,3737,0,0,0
29099,56478,3756,0,0,0
29124,56485,3786,0,0,0
29159,56494,3829,0,0,0
29207,56508,3881,0,0,0
29269,56525,3944,0,0,0
29343,56546,4016,0,0,0
29426,56566,4097,0,0,0
29514,56585,4181,0,0,0
29602,56604,4267,0,0,0
29687,56624,4355,0,0,0
29768,56644,4440,0,0,0
29847,56665,4522,0,0,0
29923,56687,4599,0,0,0
29993,56708,4673,0,0,0
30054,56728,4742,0,0,0
30106,56746,4804,0,0,0
30153,56763,4858,0,0,0
30197,56779,4904,0,0,0
30235,56793,4943,0,0,0
30266,56800,4972,0,0,0
30291,56805,4994,0,0,0
30308,56807,5010,0,0,0
30317,56809,5019,0,0,0
30319,56809,5026,0,0,0
30315,56808,5030,0,0,0
30310,56805,5031,0,0,0
30304,56800,5027,0,0,0
30296,56795,5019,0,0,0
30286,56789,5008,0,0,0
30271,56783,4994,0,0,0
30252,56778,4978,0,0,0
30229,56776,4961,0,0,0
30207,56775,4945,0,0,0
30186,56773,4929,0,0,0
30168,56772,4914,0,0,0
30151,56769,4899,0,0,0
30136,56765,4885,0,0,0
30124,56760,4873,0,0,0
30116,56757,4864,0,0,0
30111,56755,4858,0,0,0
30107,56755,4857,0,0,0
30105,56756,4857,0,0,0
30105,56756,4854,0,0,0
30105,56754,4852,0,0,0
30104,56752,4851,0,0,0
30104,56753,4850,0,0,0
30104,56754,4851,0,0,0
30102,56754,4849,0,0,0
30098,56752,4845,0,0,0
30094,56749,4839,0,0,0
30088,56747,4832,0,0,0
30079,56744,4823,0,0,0
30069,56739,4812,0,0,0
30057,56735,4799,0,0,0
30043,56729,4785,0,0,0
30026,56723,4771,0,0,0
30005,56715,4757,0,0,0
29980,56709,4742,0,0,0
29955,56705,4727,0,0,0
29932,56700,4710,0,0,0
29911,56693,4691,0,0,0
29892,56685,4671,0,0,0
29874,56679,4652,0,0,0
29861,56673,4634,0,0,0
29850,56669,4616,0,0,0
29837,56665,4597,0,0,0
29823,56661,4577,0,0,0
29811,56659,4559,0,0,0
29802,56657,4545,0,0,0
29792,56655,4533,0,0,0
29780,56654,4522,0,0,0
29770,56651,4513,0,0,0
29761,56649,4506,0,0,0
29753,56647,4497,0,0,0
29743,56644,4487,0,0,0
29734,56643,4479,0,0,0
29726,56642,4473,0,0,0
29718,56642,4469,0,0,0
29708,56642,4464,0,0,0
29698,56641,4461,0,0,0
29690,56640,4458,0,0,0
29683,56638,4456,0,0,0
29676,56636,4453,0,0,0
29671,56635,4447,0,0,0
29665,56634,4438,0,0,0
29657,56633,4422,0,0,0
29648,56632,4404,0,0,0
29634,56632,4385,0,0,0
29613,56630,4364,0,0,0
29586,56626,4341,0,0,0
29556,56618,4316,0,0,0
29528,56608,4293,0,0,0
29500,56597,4269,0,0,0
29471,56588,4245,0,0,0
29440,56579,4220,0,0,0
29411,56572,4195,0,0,0
29385,56565,4171,0,0,0
29362,56558,4150,0,0,0
29339,56550,4129,0,0,0
29316,56544,4109,0,0,0
29293,56540,4089,0,0,0
29270,56536,4069,0,0,0
29248,56532,4049,0,0,0
29227,56526,4028,0,0,0
29205,56519,4006,0,0,0
29179,56513,3982,0,0,0
29148,56506,3958,0,0,0
29117,56500,3934,0,0,0
29089,56496,3911,0,0,0
29064,56492,3885,0,0,0
29043,56489,3859,0,0,0
29023,56485,3831,0,0,0
29002,56480,3805,0,0,0
28982,56475,3781,0,0,0
28962,56471,3761,0,0,0
28943,56467,3744,0,0,0
28923,56462,3726,0,0,0
28903,56458,3707,0,0,0
28882,56454,3687,0,0,0
28862,56452,3668,0,0,0
28844,56450,3647,0,0,0
28827,56448,3624,0,0,0
28808,56445,3600,0,0,0
28787,56440,3577,0,0,0
28765,56434,3556,0,0,0
28746,56428,3536,0,0,0
28727,56423,3515,0,0,0
28704,56418,3493,0,0,0
28677,56412,3473,0,0,0
28651,56405,3455,0,0,0
28627,56397,3440,0,0,0
28603,56390,3422,0,0,0
28577,56384,3403,0,0,0
28552,56380,3385,0,0,0
28528,56376,3367,0,0,0
28507,56371,3348,0,0,0
28488,56366,3329,0,0,0
28470,56361,3310,0,0,0
28452,56356,3291,0,0,0
28434,56350,3275,0,0,0
28418,56345,3260,0,0,0
28404,56341,3245,0,0,0
28394,56336,3231,0,0,0
28386,56333,3216,0,0,0
28379,56331,3199,0,0,0
28375,56330,3181,0,0,0
28371,56328,3166,0,0,0
28366,56327,3151,0,0,0
28359,56325,3135,0,0,0
28352,56322,3119,0,0,0
28342,56320,3104,0,0,0
28330,56317,3088,0,0,0
28316,56314,3073,0,0,0
28301,56311,3060,0,0,0
28290,56309,3049,0,0,0
28282,56307,3040,0,0,0
28278,56307,3033,0,0,0
28276,56309,3029,0,0,0
28277,56311,3028,0,0,0
28284,56315,3033,0,0,0
28300,56320,3048,0,0,0
28330,56327,3072,0,0,0
28373,56337,3107,0,0,0
28427,56349,3155,0,0,0
28487,56362,3213,0,0,0
28553,56378,3277,0,0,0
28625,56396,3347,0,0,0
28701,56415,3422,0,0,0
28778,56433,3501,0,0,0
28859,56452,3582,0,0,0
28941,56472,3664,0,0,0
29024,56492,3744,0,0,0
29107,56512,3820,0,0,0
29189,56534,3895,0,0,0
29269,56556,3970,0,0,0
29344,56575,4039,0,0,0
29415,56593,4103,0,0,0
29476,56610,4160,0,0,0
29526,56624,4209,0,0,0
29566,56636,4249,0,0,0
29599,56645,4284,0,0,0
29627,56652,4315,0,0,0
29649,56659,4338,0,0,0
29663,56665,4354,0,0,0
29673,56670,4364,0,0,0
29679,56672,4370,0,0,0
29683,56670,4374,0,0,0
29685,56666,4375,0,0,0
29686,56661,4376,0,0,0
29685,56658,4376,0,0,0
29683,56657,4372,0,0,0
29683,56656,4365,0,0,0
29685,56656,4356,0,0,0
29687,56657,4345,0,0,0
29685,56657,4335,0,0,0
29683,56657,4326,0,0,0
29682,56656,4320,0,0,0
29679,56655,4314,0,0,0
29673,56653,4305,0,0,0
29667,56651,4297,0,0,0
29664,56646,4291,0,0,0
29663,56641,4288,0,0,0
29665,56638,4289,0,0,0
29671,56638,4293,0,0,0
29678,56639,4299,0,0,0
29685,56642,4306,0,0,0
29693,56646,4314,0,0,0
29703,56649,4324,0,0,0
29714,56652,4333,0,0,0
29727,56655,4345,0,0,0
29739,56659,4357,0,0,0
29747,56662,4368,0,0,0
29751,56665,4373,0,0,0
29752,56666,4373,0,0,0
29751,56665,4368,0,0,0
29748,56661,4358,0,0,0
29739,56656,4345,0,0,0
29726,56650,4332,0,0,0
29712,56645,4319,0,0,0
29700,56642,4307,0,0,0
29690,56639,4298,0,0,0
29683,56636,4291,0,0,0
29680,56636,4286,0,0,0
29683,56638,4284,0,0,0
29689,56641,4285,0,0,0
29695,56643,4286,0,0,0
29703,56645,4288,0,0,0
29713,56648,4292,0,0,0
29724,56652,4295,0,0,0
29736,56655,4298,0,0,0
29746,56658,4302,0,0,0
29754,56660,4304,0,0,0
29761,56662,4306,0,0,0
29765,56663,4310,0,0,0
29768,56664,4311,0,0,0
29770,56664,4311,0,0,0
29773,56665,4311,0,0,0
29773,56664,4312,0,0,0
29769,56663,4312,0,0,0
29761,56661,4308,0,0,0
29753,56659,4303,0,0,0
29747,56658,4297,0,0,0
29742,56656,4291,0,0,0
29738,56654,4283,0,0,0
29734,56652,4276,0,0,0
29731,56650,4270,0,0,0
29730,56649,4264,0,0,0
29729,56648,4257,0,0,0
29729,56649,4249,0,0,0
29728,56650,4242,0,0,0
29727,56652,4234,0,0,0
29725,56652,4224,0,0,0
29722,56651,4211,0,0,0
29716,56650,4197,0,0,0
29707,56648,4181,0,0,0
29692,56646,4161,0,0,0
29673,56642,4141,0,0,0
29651,56638,4120,0,0,0
29631,56633,4097,0,0,0
29610,56625,4073,0,0,0
29588,56617,4050,0,0,0
29564,56610,4030,0,0,0
29541,56605,4012,0,0,0
29519,56600,3995,0,0,0
29499,56595,3978,0,0,0
29485,56591,3962,0,0,0
29474,56589,3949,0,0,0
29465,56587,3938,0,0,0
29456,56583,3925,0,0,0
29446,56580,3911,0,0,0
29432,56577,3895,0,0,0
29415,56574,3879,0,0,0
29396,56570,3862,0,0,0
29375,56564,3843,0,0,0
29355,56558,3823,0,0,0
29336,56554,3804,0,0,0
29318,56551,3786,0,0,0
29300,56548,3769,0,0,0
29282,56544,3750,0,0,0
29266,56541,3731,0,0,0
29251,56539,3715,0,0,0
29237,56538,3699,0,0,0
29222,56536,3686,0,0,0
29209,56532,3674,0,0,0
29198,56527,3664,0,0,0
29189,56521,3656,0,0,0
29184,56517,3648,0,0,0
29180,56514,3642,0,0,0
29176,56511,3633,0,0,0
29170,56508,3621,0,0,0
29159,56506,3608,0,0,0
29144,56503,3595,0,0,0
29127,56500,3580,0,0,0
29108,56495,3565,0,0,0
29089,56488,3548,0,0,0
29069,56479,3530,0,0,0
29050,56469,3513,0,0,0
29033,56461,3495,0,0,0
29016,56454,3476,0,0,0
28997,56448,3456,0,0,0
28976,56443,3436,0,0,0
28956,56440,3417,0,0,0
28937,56439,3399,0,0,0
28919,56439,3381,0,0,0
28903,56439,3362,0,0,0
28887,56437,3342,0,0,0
28871,56433,3321,0,0,0
28857,56430,3301,0,0,0
28846,56429,3284,0,0,0
28839,56428,3270,0,0,0
28837,56427,3261,0,0,0
28839,56427,3257,0,0,0
28848,56430,3259,0,0,0
28868,56436,3269,0,0,0
28895,56444,3289,0,0,0
28927,56454,3317,0,0,0
28965,56467,3355,0,0,0
29012,56480,3402,0,0,0
29068,56494,3456,0,0,0
29134,56510,3517,0,0,0
29208,56528,3585,0,0,0
29287,56547,3660,0,0,0
29366,56567,3740,0,0,0
29448,56587,3824,0,0,0
29532,56607,3909,0,0,0
29617,56626,3995,0,0,0
29705,56644,4080,0,0,0
29792,56662,4164,0,0,0
29876,56679,4246,0,0,0
29954,56697,4324,0,0,0
30023,56714,4397,0,0,0
30085,56731,4464,0,0,0
30141,56745,4526,0,0,0
30190,56758,4582,0,0,0
30231,56769,4629,0,0,0
30268,56779,4668,0,0,0
30300,56786,4700,0,0,0
30328,56791,4727,0,0,0
30352,56796,4748,0,0,0
30370,56801,4761,0,0,0
30383,56804,4770,0,0,0
30392,56807,4776,0,0,0
30401,56811,4782,0,0,0
30411,56815,4788,0,0,0
30421,56818,4793,0,0,0
30427,56821,4795,0,0,0
30429,56822,4795,0,0,0
30429,56822,4793,0,0,0
30428,56822,4790,0,0,0
30426,56819,4785,0,0,0
30425,56816,4780,0,0,0
30425,56814,4777,0,0,0
30428,56812,4777,0,0,0
30431,56811,4778,0,0,0
30434,56810,4779,0,0,0
30436,56809,4780,0,0,0
30439,56809,4784,0,0,0
30446,56810,4792,0,0,0
30457,56812,4801,0,0,0
30468,56814,4810,0,0,0
30480,56817,4818,0,0,0
30495,56820,4825,0,0,0
30509,56822,4834,0,0,0
30521,56824,4844,0,0,0
30531,56826,4853,0,0,0
30539,56831,4859,0,0,0
30545,56836,4861,0,0,0
30550,56842,4862,0,0,0
30555,56848,4859,0,0,0
30556,56852,4855,0,0,0
30552,56850,4849,0,0,0
30544,56843,4843,0,0,0
30533,56835,4833,0,0,0
30522,56829,4823,0,0,0
30513,56825,4814,0,0,0
30508,56822,4803,0,0,0
30507,56821,4792,0,0,0
30510,56822,4782,0,0,0
30515,56823,4774,0,0,0
30520,56824,4769,0,0,0
30520,56824,4768,0,0,0
30518,56825,4769,0,0,0
30515,56826,4769,0,0,0
30512,56826,4769,0,0,0
30512,56825,4769,0,0,0
30513,56826,4771,0,0,0
30514,56829,4774,0,0,0
30515,56832,4779,0,0,0
30520,56834,4783,0,0,0
30526,56835,4785,0,0,0
30532,56835,4786,0,0,0
30538,56835,4787,0,0,0
30541,56834,4788,0,0,0
30537,56831,4787,0,0,0
30532,56827,4785,0,0,0
30529,56821,4782,0,0,0
30527,56816,4776,0,0,0
30521,56812,4768,0,0,0
30512,56810,4757,0,0,0
30502,56809,4745,0,0,0
30491,56810,4731,0,0,0
30482,56811,4717,0,0,0
30472,56811,4703,0,0,0
30459,56808,4688,0,0,0
30445,56805,4671,0,0,0
30430,56802,4653,0,0,0
30414,56799,4638,0,0,0
30398,56795,4623,0,0,0
30382,56790,4608,0,0,0
30364,56785,4592,0,0,0
30346,56781,4578,0,0,0
30328,56775,4563,0,0,0
30310,56769,4546,0,0,0
30289,56761,4525,0,0,0
30267,56753,4502,0,0,0
30246,56744,4478,0,0,0
30226,56737,4457,0,0,0
30204,56733,4439,0,0,0
30182,56731,4422,0,0,0
30161,56730,4403,0,0,0
30139,56728,4382,0,0,0
30118,56725,4361,0,0,0
30099,56721,4341,0,0,0
30082,56717,4323,0,0,0
30067,56714,4304,0,0,0
30053,56710,4285,0,0,0
30039,56706,4265,0,0,0
30022,56701,4244,0,0,0
30005,56695,4223,0,0,0
29985,56690,4203,0,0,0
29965,56686,4186,0,0,0
29946,56682,4169,0,0,0
29929,56678,4153,0,0,0
29912,56674,4137,0,0,0
29895,56670,4122,0,0,0
29880,56669,4106,0,0,0
29866,56668,4090,0,0,0
29854,56665,4074,0,0,0
29846,56662,4061,0,0,0
29840,56657,4049,0,0,0
29836,56652,4037,0,0,0
29830,56647,4023,0,0,0
29823,56643,4008,0,0,0
29817,56639,3994,0,0,0
29807,56637,3981,0,0,0
29795,56636,3970,0,0,0
29782,56635,3961,0,0,0
29768,56633,3950,0,0,0
29755,56632,3937,0,0,0
29742,56630,3922,0,0,0
29727,56628,3907,0,0,0
29710,56625,3890,0,0,0
29691,56623,3870,0,0,0
29673,56621,3850,0,0,0
29659,56619,3834,0,0,0
29645,56616,3820,0,0,0
29633,56611,3808,0,0,0
29624,56606,3795,0,0,0
29613,56599,3781,0,0,0
29601,56591,3767,0,0,0
29585,56583,3754,0,0,0
29569,56577,3740,0,0,0
29553,56573,3724,0,0,0
29536,56568,3708,0,0,0
29519,56564,3692,0,0,0
29503,56559,3676,0,0,0
29488,56555,3659,0,0,0
29475,56552,3644,0,0,0
29460,56551,3627,0,0,0
29445,56549,3608,0,0,0
29429,56546,3588,0,0,0
29410,56543,3569,0,0,0
29390,56539,3550,0,0,0
29371,56535,3530,0,0,0
29355,56533,3514,0,0,0
29345,56531,3501,0,0,0
29344,56530,3494,0,0,0
29352,56530,3493,0,0,0
29370,56535,3503,0,0,0
29395,56542,3522,0,0,0
29429,56551,3553,0,0,0
29472,56562,3595,0,0,0
29525,56575,3646,0,0,0
29588,56591,3705,0,0,0
29659,56607,3773,0,0,0
29738,56626,3851,0,0,0
29823,56647,3938,0,0,0
29912,56670,4032,0,0,0
30000,56695,4125,0,0,0
30087,56719,4218,0,0,0
30175,56743,4309,0,0,0
30263,56767,4401,0,0,0
30349,56790,4489,0,0,0
30432,56811,4571,0,0,0
30510,56829,4647,0,0,0
30582,56847,4718,0,0,0
30649,56863,4784,0,0,0
30710,56878,4848,0,0,0
30767,56891,4907,0,0,0
30818,56903,4958,0,0,0
30860,56913,5000,0,0,0
30893,56920,5036,0,0,0
30918,56926,5066,0,0,0
30938,56930,5089,0,0,0
30955,56932,5107,0,0,0
30968,56934,5121,0,0,0
30977,56933,5129,0,0,0
30983,56933,5131,0,0,0
30987,56932,5131,0,0,0
30988,56934,5129,0,0,0
30990,56936,5128,0,0,0
30993,56937,5129,0,0,0
30997,56937,5132,0,0,0
31003,56939,5133,0,0,0
31008,56945,5134,0,0,0
31012,56951,5133,0,0,0
31016,56954,5133,0,0,0
31024,56956,5134,0,0,0
31036,56958,5139,0,0,0
31050,56959,5147,0,0,0
31065,56959,5158,0,0,0
31081,56960,5170,0,0,0
31096,56960,5184,0,0,0
31110,56961,5196,0,0,0
31124,56962,5209,0,0,0
31137,56965,5222,0,0,0
31148,56968,5235,0,0,0
31155,56971,5247,0,0,0
31158,56974,5256,0,0,0
31159,56976,5261,0,0,0
31159,56976,5264,0,0,0
31161,56975,5267,0,0,0
31165,56974,5269,0,0,0
31171,56977,5271,0,0,0
31175,56979,5269,0,0,0
31178,56979,5265,0,0,0
31183,56979,5259,0,0,0
31189,56977,5252,0,0,0
31196,56975,5245,0,0,0
31200,56971,5238,0,0,0
31202,56969,5233,0,0,0
31199,56966,5228,0,0,0
31192,56962,5223,0,0,0
31181,56958,5214,0,0,0
31169,56953,5205,0,0,0
31157,56949,5195,0,0,0
31145,56944,5186,0,0,0
31134,56941,5177,0,0,0
31126,56940,5169,0,0,0
31121,56941,5162,0,0,0
31117,56943,5158,0,0,0
31113,56946,5157,0,0,0
31110,56950,5158,0,0,0
31110,56953,5159,0,0,0
31113,56957,5160,0,0,0
31119,56962,5162,0,0,0
31127,56966,5164,0,0,0
31137,56967,5168,0,0,0
31148,56968,5173,0,0,0
31160,56968,5178,0,0,0
31172,56968,5183,0,0,0
31181,56968,5185,0,0,0
31184,56969,5185,0,0,0
31185,56969,5183,0,0,0
31185,56968,5181,0,0,0
31185,56966,5176,0,0,0
31182,56965,5170,0,0,0
31176,56962,5162,0,0,0
31167,56960,5153,0,0,0
31154,56957,5143,0,0,0
31140,56953,5132,0,0,0
31128,56950,5119,0,0,0
31116,56947,5104,0,0,0
31101,56944,5088,0,0,0
31083,56941,5071,0,0,0
31063,56938,5053,0,0,0
31042,56934,5034,0,0,0
31021,56929,5014,0,0,0
30998,56923,4992,0,0,0
30975,56916,4967,0,0,0
30952,56908,4942,0,0,0
30928,56900,4917,0,0,0
30904,56893,4893,0,0,0
30879,56888,4869,0,0,0
30855,56884,4845,0,0,0
30833,56880,4822,0,0,0
30812,56877,4801,0,0,0
30792,56876,4780,0,0,0
30773,56874,4757,0,0,0
30756,56870,4735,0,0,0
30738,56863,4715,0,0,0
30722,56855,4698,0,0,0
30705,56848,4681,0,0,0
30688,56845,4664,0,0,0
30671,56844,4648,0,0,0
30654,56843,4630,0,0,0
30636,56840,4613,0,0,0
30621,56836,4597,0,0,0
30607,56830,4580,0,0,0
30594,56824,4562,0,0,0
30582,56816,4544,0,0,0
30571,56809,4529,0,0,0
30560,56804,4516,0,0,0
30548,56800,4501,0,0,0
30534,56797,4484,0,0,0
30520,56796,4469,0,0,0
30506,56795,4456,0,0,0
30490,56792,4443,0,0,0
30473,56788,4428,0,0,0
30456,56784,4414,0,0,0
30439,56781,4400,0,0,0
30423,56779,4384,0,0,0
30409,56776,4367,0,0,0
30398,56773,4350,0,0,0
30387,56770,4333,0,0,0
30375,56768,4317,0,0,0
30363,56767,4301,0,0,0
30351,56765,4283,0,0,0
30340,56763,4267,0,0,0
30329,56759,4252,0,0,0
30316,56756,4239,0,0,0
30303,56752,4228,0,0,0
30292,56750,4219,0,0,0
30280,56747,4210,0,0,0
30269,56743,4199,0,0,0
30261,56740,4188,0,0,0
30252,56739,4175,0,0,0
30242,56738,4161,0,0,0
30232,56737,4146,0,0,0
30221,56736,4130,0,0,0
30207,56733,4111,0,0,0
30189,56729,4089,0,0,0
30168,56723,4064,0,0,0
30144,56715,4041,0,0,0
30117,56707,4018,0,0,0
30089,56700,3995,0,0,0
30061,56694,3970,0,0,0
30033,56688,3947,0,0,0
30009,56682,3925,0,0,0
29988,56676,3905,0,0,0
29970,56671,3885,0,0,0
29956,56667,3864,0,0,0
29946,56665,3849,0,0,0
29941,56666,3843,0,0,0
29942,56668,3844,0,0,0
29953,56671,3851,0,0,0
29974,56676,3866,0,0,0
30007,56684,3894,0,0,0
30053,56695,3932,0,0,0
30110,56709,3982,0,0,0
30175,56726,4043,0,0,0
30248,56745,4110,0,0,0
30328,56764,4185,0,0,0
30412,56784,4267,0,0,0
30497,56806,4356,0,0,0
30584,56830,4451,0,0,0
30673,56855,4547,0,0,0
30763,56879,4644,0,0,0
30854,56902,4740,0,0,0
30945,56925,4834,0,0,0
31033,56949,4923,0,0,0
31117,56973,5009,0,0,0
31195,56995,5090,0,0,0
31269,57013,5165,0,0,0
31339,57027,5231,0,0,0
31402,57039,5289,0,0,0
31455,57051,5340,0,0,0
31500,57062,5385,0,0,0
31536,57072,5423,0,0,0
31563,57080,5451,0,0,0
31580,57084,5470,0,0,0
31589,57085,5480,0,0,0
31588,57082,5482,0,0,0
31582,57078,5479,0,0,0
31573,57074,5473,0,0,0
31563,57070,5464,0,0,0
31550,57068,5453,0,0,0
31536,57066,5440,0,0,0
31521,57065,5428,0,0,0
31508,57065,5420,0,0,0
31493,57064,5416,0,0,0
31480,57062,5413,0,0,0
31472,57058,5409,0,0,0
31470,57056,5409,0,0,0
31473,57054,5411,0,0,0
31478,57054,5414,0,0,0
31486,57055,5417,0,0,0
31495,57058,5421,0,0,0
31507,57062,5426,0,0,0
31520,57066,5434,0,0,0
31530,57069,5444,0,0,0
31536,57070,5456,0,0,0
31543,57072,5469,0,0,0
31551,57074,5480,0,0,0
31559,57075,5486,0,0,0
31566,57075,5490,0,0,0
31572,57075,5493,0,0,0
31578,57077,5496,0,0,0
31580,57079,5499,0,0,0
31581,57082,5502,0,0,0
31582,57085,5503,0,0,0
31583,57089,5503,0,0,0
31586,57093,5501,0,0,0
31589,57096,5496,0,0,0
31590,57095,5489,0,0,0
31585,57092,5481,0,0,0
31575,57088,5471,0,0,0
31558,57079,5460,0,0,0
31537,57068,5447,0,0,0
31516,57057,5428,0,0,0
31494,57049,5403,0,0,0
31469,57041,5378,0,0,0
31446,57035,5357,0,0,0
31428,57030,5340,0,0,0
31415,57026,5327,0,0,0
31408,57023,5317,0,0,0
31407,57022,5306,0,0,0
31407,57023,5299,0,0,0
31405,57024,5297,0,0,0
31400,57024,5298,0,0,0
31396,57025,5300,0,0,0
31391,57027,5301,0,0,0
31386,57028,5302,0,0,0
31382,57030,5304,0,0,0
31377,57029,5308,0,0,0
31372,57026,5309,0,0,0
31367,57021,5307,0,0,0
31362,57017,5302,0,0,0
31356,57014,5295,0,0,0
31346,57012,5285,0,0,0
31331,57010,5271,0,0,0
31313,57006,5254,0,0,0
31296,57002,5238,0,0,0
31278,56998,5219,0,0,0
31257,56994,5199,0,0,0
31233,56989,5175,0,0,0
31207,56982,5150,0,0,0
31182,56974,5126,0,0,0
31159,56967,5105,0,0,0
31139,56962,5086,0,0,0
31120,56958,5067,0,0,0
31101,56954,5047,0,0,0
31078,56948,5025,0,0,0
31055,56942,5002,0,0,0
31036,56938,4979,0,0,0
31021,56933,4955,0,0,0
31004,56928,4931,0,0,0
30987,56922,4908,0,0,0
30969,56915,4886,0,0,0
30946,56911,4866,0,0,0
30921,56908,4844,0,0,0
30892,56904,4819,0,0,0
30860,56896,4790,0,0,0
30822,56885,4758,0,0,0
30782,56873,4723,0,0,0
30743,56862,4686,0,0,0
30707,56851,4647,0,0,0
30672,56840,4609,0,0,0
30637,56830,4573,0,0,0
30601,56820,4539,0,0,0
30566,56810,4506,0,0,0
30534,56801,4475,0,0,0
30505,56793,4446,0,0,0
30474,56786,4419,0,0,0
30444,56781,4392,0,0,0
30414,56775,4367,0,0,0
30383,56768,4343,0,0,0
30351,56762,4319,0,0,0
30319,56758,4294,0,0,0
30288,56754,4268,0,0,0
30259,56748,4243,0,0,0
30232,56742,4219,0,0,0
30207,56736,4195,0,0,0
30183,56732,4171,0,0,0
30162,56728,4145,0,0,0
30142,56723,4118,0,0,0
30121,56717,4093,0,0,0
30097,56711,4070,0,0,0
30073,56705,4049,0,0,0
30050,56698,4029,0,0,0
30028,56691,4008,0,0,0
30005,56684,3985,0,0,0
29982,56678,3964,0,0,0
29957,56672,3945,0,0,0
29930,56667,3925,0,0,0
29900,56661,3902,0,0,0
29868,56655,3876,0,0,0
29838,56650,3849,0,0,0
29809,56645,3822,0,0,0
29783,56641,3796,0,0,0
29758,56635,3771,0,0,0
29733,56628,3745,0,0,0
29712,56621,3721,0,0,0
29693,56616,3701,0,0,0
29677,56613,3681,0,0,0
29662,56609,3660,0,0,0
29646,56605,3641,0,0,0
29629,56599,3622,0,0,0
29609,56591,3601,0,0,0
29587,56583,3581,0,0,0
29564,56575,3560,0,0,0
29540,56570,3538,0,0,0
29518,56566,3516,0,0,0
29496,56564,3494,0,0,0
29473,56560,3474,0,0,0
29451,56557,3456,0,0,0
29432,56553,3441,0,0,0
29420,56550,3431,0,0,0
29417,56549,3427,0,0,0
29427,56552,3434,0,0,0
29450,56558,3452,0,0,0
29487,56568,3480,0,0,0
29535,56580,3516,0,0,0
29591,56594,3562,0,0,0
29653,56608,3619,0,0,0
29722,56623,3687,0,0,0
29796,56640,3764,0,0,0
29873,56661,3850,0,0,0
29951,56684,3941,0,0,0
30029,56709,4031,0,0,0
30109,56735,4119,0,0,0
30186,56757,4206,0,0,0
30262,56776,4291,0,0,0
30338,56793,4370,0,0,0
30410,56808,4443,0,0,0
30474,56821,4511,0,0,0
30532,56833,4574,0,0,0
30584,56845,4630,0,0,0
30629,56857,4680,0,0,0
30668,56869,4725,0,0,0
30699,56878,4764,0,0,0
30723,56883,4793,0,0,0
30741,56885,4813,0,0,0
30754,56886,4826,0,0,0
30758,56887,4834,0,0,0
30755,56886,4838,0,0,0
30747,56884,4837,0,0,0
30735,56881,4831,0,0,0
30720,56877,4820,0,0,0
30703,56870,4804,0,0,0
30685,56864,4785,0,0,0
30668,56859,4767,0,0,0
30654,56854,4752,0,0,0
30642,56852,4738,0,0,0
30633,56850,4726,0,0,0
30625,56850,4714,0,0,0
30618,56849,4702,0,0,0
30615,56848,4690,0,0,0
30616,56849,4682,0,0,0
30619,56848,4678,0,0,0
30625,56848,4679,0,0,0
30636,56848,4681,0,0,0
30649,56851,4687,0,0,0
30662,56856,4698,0,0,0
30676,56862,4712,0,0,0
30691,56867,4728,0,0,0
30705,56871,4744,0,0,0
30716,56873,4758,0,0,0
30724,56875,4768,0,0,0
30729,56875,4774,0,0,0
30733,56878,4776,0,0,0
30736,56881,4777,0,0,0
30737,56884,4775,0,0,0
30734,56886,4773,0,0,0
30730,56886,4772,0,0,0
30726,56884,4768,0,0,0
30720,56879,4761,0,0,0
30715,56873,4754,0,0,0
30709,56869,4748,0,0,0
30704,56866,4744,0,0,0
30701,56865,4741,0,0,0
30701,56865,4738,0,0,0
30700,56865,4733,0,0,0
30698,56864,4729,0,0,0
30695,56862,4724,0,0,0
30693,56862,4720,0,0,0
30690,56862,4716,0,0,0
30687,56863,4714,0,0,0
30688,56866,4712,0,0,0
30691,56871,4711,0,0,0
30695,56877,4712,0,0,0
30699,56880,4713,0,0,0
30704,56882,4715,0,0,0
30708,56882,4717,0,0,0
30711,56883,4717,0,0,0
30713,56884,4717,0,0,0
30716,56886,4717,0,0,0
30719,56887,4719,0,0,0
30724,56889,4722,0,0,0
30731,56890,4724,0,0,0
30736,56890,4725,0,0,0
30738,56888,4725,0,0,0
30737,56886,4724,0,0,0
30735,56885,4720,0,0,0
30734,56886,4716,0,0,0
30732,56887,4711,0,0,0
30730,56887,4703,0,0,0
30728,56887,4694,0,0,0
30727,56887,4685,0,0,0
30727,56886,4674,0,0,0
30725,56884,4663,0,0,0
30720,56882,4653,0,0,0
30714,56881,4644,0,0,0
30705,56881,4634,0,0,0
30692,56880,4622,0,0,0
30678,56877,4608,0,0,0
30665,56873,4595,0,0,0
30655,56869,4584,0,0,0
30647,56866,4575,0,0,0
30638,56864,4565,0,0,0
30629,56861,4553,0,0,0
30615,56856,4537,0,0,0
30596,56850,4518,0,0,0
30576,56845,4496,0,0,0
30557,56841,4473,0,0,0
30541,56838,4452,0,0,0
30529,56836,4435,0,0,0
30520,56834,4420,0,0,0
30512,56833,4409,0,0,0
30507,56833,4399,0,0,0
30503,56832,4388,0,0,0
30496,56831,4377,0,0,0
30487,56831,4365,0,0,0
30478,56829,4350,0,0,0
30468,56825,4334,0,0,0
30458,56819,4318,0,0,0
30449,56813,4304,0,0,0
30441,56807,4292,0,0,0
30431,56802,4282,0,0,0
30419,56798,4273,0,0,0
30407,56797,4265,0,0,0
30397,56798,4258,0,0,0
30389,56800,4251,0,0,0
30384,56801,4240,0,0,0
30380,56800,4227,0,0,0
30375,56798,4214,0,0,0
30369,56796,4200,0,0,0
30363,56793,4185,0,0,0
30354,56790,4169,0,0,0
30341,56786,4153,0,0,0
30325,56782,4136,0,0,0
30308,56778,4119,0,0,0
30288,56774,4102,0,0,0
30267,56768,4083,0,0,0
30246,56762,4064,0,0,0
30227,56757,4045,0,0,0
30207,56753,4027,0,0,0
30189,56749,4011,0,0,0
30173,56745,3995,0,0,0
30161,56741,3981,0,0,0
30151,56737,3967,0,0,0
30142,56733,3954,0,0,0
30133,56730,3942,0,0,0
30122,56728,3930,0,0,0
30111,56726,3918,0,0,0
30102,56724,3907,0,0,0
30097,56722,3898,0,0,0
30096,56721,3895,0,0,0
30100,56723,3897,0,0,0
30113,56727,3905,0,0,0
30135,56731,3919,0,0,0
30165,56737,3943,0,0,0
30205,56747,3980,0,0,0
30257,56760,4030,0,0,0
30320,56775,4091,0,0,0
30393,56793,4162,0,0,0
30471,56811,4242,0,0,0
30555,56831,4327,0,0,0
30645,56852,4416,0,0,0
30739,56875,4509,0,0,0
30834,56899,4604,0,0,0
30928,56923,4697,0,0,0
31021,56947,4791,0,0,0
31113,56973,4884,0,0,0
31202,57000,4972,0,0,0
31289,57025,5053,0,0,0
31369,57045,5124,0,0,0
31437,57062,5186,0,0,0
31492,57075,5242,0,0,0
31535,57084,5293,0,0,0
31572,57092,5335,0,0,0
31602,57100,5369,0,0,0
31629,57106,5397,0,0,0
31650,57110,5420,0,0,0
31665,57113,5440,0,0,0
31677,57115,5456,0,0,0
31685,57115,5468,0,0,0
31690,57115,5477,0,0,0
31693,57116,5482,0,0,0
31695,57115,5483,0,0,0
31696,57113,5480,0,0,0
31696,57112,5472,0,0,0
31696,57112,5466,0,0,0
31698,57113,5463,0,0,0
31701,57116,5461,0,0,0
31706,57120,5461,0,0,0
31712,57127,5463,0,0,0
31717,57133,5465,0,0,0
31717,57138,5468,0,0,0
31715,57141,5472,0,0,0
31716,57144,5480,0,0,0
31720,57146,5488,0,0,0
31728,57149,5495,0,0,0
31740,57152,5501,0,0,0
31756,57154,5506,0,0,0
31769,57156,5511,0,0,0
31779,57157,5515,0,0,0
31788,57158,5521,0,0,0
31797,57159,5530,0,0,0
31807,57159,5541,0,0,0
31817,57159,5550,0,0,0
31826,57161,5557,0,0,0
31832,57162,5561,0,0,0
31836,57162,5564,0,0,0
31837,57161,5564,0,0,0
31838,57159,5561,0,0,0
31838,57159,5554,0,0,0
31836,57158,5545,0,0,0
31830,57155,5535,0,0,0
31819,57151,5526,0,0,0
31804,57146,5517,0,0,0
31791,57140,5508,0,0,0
31783,57135,5499,0,0,0
31777,57132,5494,0,0,0
31774,57130,5491,0,0,0
31772,57130,5490,0,0,0
31770,57130,5488,0,0,0
31772,57131,5485,0,0,0
31778,57130,5485,0,0,0
31791,57131,5488,0,0,0
31806,57134,5493,0,0,0
31823,57139,5499,0,0,0
31840,57147,5508,0,0,0
31858,57156,5518,0,0,0
31875,57161,5528,0,0,0
31890,57162,5537,0,0,0
31904,57161,5543,0,0,0
31915,57161,5548,0,0,0
31921,57163,5552,0,0,0
31923,57165,5554,0,0,0
31922,57164,5553,0,0,0
31920,57163,5547,0,0,0
31917,57160,5540,0,0,0
31912,57157,5535,0,0,0
31911,57156,5532,0,0,0
31914,57158,5530,0,0,0
31921,57160,5526,0,0,0
31925,57163,5521,0,0,0
31925,57163,5517,0,0,0
31918,57161,5513,0,0,0
31907,57157,5508,0,0,0
31893,57153,5501,0,0,0
31880,57148,5491,0,0,0
31867,57144,5480,0,0,0
31854,57140,5468,0,0,0
31843,57139,5456,0,0,0
31832,57137,5444,0,0,0
31820,57135,5432,0,0,0
31806,57131,5416,0,0,0
31789,57127,5396,0,0,0
31769,57122,5376,0,0,0
31748,57115,5355,0,0,0
31729,57108,5332,0,0,0
31711,57102,5311,0,0,0
31694,57099,5292,0,0,0
31677,57096,5275,0,0,0
31658,57091,5258,0,0,0
31637,57086,5238,0,0,0
31617,57080,5216,0,0,0
31599,57075,5196,0,0,0
31584,57070,5178,0,0,0
31569,57065,5159,0,0,0
31554,57060,5139,0,0,0
31538,57053,5117,0,0,0
31523,57046,5092,0,0,0
31509,57039,5068,0,0,0
31495,57034,5046,0,0,0
31478,57031,5025,0,0,0
31462,57031,5006,0,0,0
31449,57031,4988,0,0,0
31437,57031,4970,0,0,0
31425,57030,4953,0,0,0
31413,57028,4936,0,0,0
31403,57024,4920,0,0,0
31393,57019,4906,0,0,0
31382,57015,4892,0,0,0
31368,57012,4880,0,0,0
31353,57010,4869,0,0,0
31338,57008,4856,0,0,0
31324,57005,4845,0,0,0
31312,57001,4835,0,0,0
31302,56996,4825,0,0,0
31293,56991,4814,0,0,0
31282,56987,4801,0,0,0
31271,56983,4785,0,0,0
31259,56980,4770,0,0,0
31248,56978,4756,0,0,0
31236,56977,4742,0,0,0
31223,56975,4726,0,0,0
31207,56972,4709,0,0,0
31190,56968,4692,0,0,0
31173,56962,4673,0,0,0
31155,56956,4654,0,0,0
31138,56951,4634,0,0,0
31120,56946,4615,0,0,0
31104,56942,4598,0,0,0
31093,56938,4585,0,0,0
31084,56936,4574,0,0,0
31074,56934,4560,0,0,0
31060,56929,4543,0,0,0
31043,56925,4523,0,0,0
31022,56919,4501,0,0,0
30999,56913,4478,0,0,0
30975,56905,4453,0,0,0
30951,56897,4429,0,0,0
30925,56888,4407,0,0,0
30903,56880,4389,0,0,0
30888,56874,4374,0,0,0
30880,56870,4363,0,0,0
30877,56867,4357,0,0,0
30881,56867,4359,0,0,0
30893,56871,4369,0,0,0
30916,56879,4388,0,0,0
30952,56892,4419,0,0,0
30997,56906,4462,0,0,0
31051,56922,4515,0,0,0
31114,56939,4577,0,0,0
31184,56959,4646,0,0,0
31262,56982,4723,0,0,0
31347,57006,4807,0,0,0
31437,57032,4896,0,0,0
31532,57058,4989,0,0,0
31628,57085,5085,0,0,0
31724,57111,5182,0,0,0
31818,57137,5279,0,0,0
31911,57160,5375,0,0,0
32000,57181,5469,0,0,0
32085,57202,5558,0,0,0
32164,57221,5641,0,0,0
32239,57239,5719,0,0,0
32309,57254,5790,0,0,0
32371,57267,5851,0,0,0
32424,57280,5904,0,0,0
32465,57292,5947,0,0,0
32494,57303,5982,0,0,0
32516,57313,6009,0,0,0
32531,57321,6027,0,0,0
32539,57327,6036,0,0,0
32539,57330,6036,0,0,0
32535,57328,6032,0,0,0
32528,57324,6026,0,0,0
32518,57319,6019,0,0,0
32509,57316,6013,0,0,0
32502,57313,6007,0,0,0
32500,57310,6005,0,0,0
32503,57309,6007,0,0,0
32508,57309,6012,0,0,0
32516,57310,6018,0,0,0
32526,57310,6027,0,0,0
32533,57309,6037,0,0,0
32539,57309,6047,0,0,0
32548,57311,6055,0,0,0
32558,57314,6063,0,0,0
32567,57316,6070,0,0,0
32578,57317,6079,0,0,0
32591,57319,6091,0,0,0
32607,57322,6105,0,0,0
32625,57325,6121,0,0,0
32643,57327,6135,0,0,0
32659,57329,6148,0,0,0
32674,57332,6161,0,0,0
32691,57340,6177,0,0,0
32707,57349,6198,0,0,0
32724,57359,6218,0,0,0
32743,57367,6234,0,0,0
32761,57375,6244,0,0,0
32776,57381,6248,0,0,0
32784,57386,6250,0,0,0
32787,57391,6251,0,0,0
32787,57393,6249,0,0,0
32783,57393,6245,0,0,0
32778,57392,6240,0,0,0
32771,57390,6234,0,0,0
32760,57387,6225,0,0,0
32748,57382,6214,0,0,0
32735,57374,6201,0,0,0
32723,57365,6185,0,0,0
32713,57359,6170,0,0,0
32706,57353,6159,0,0,0
32701,57348,6154,0,0,0
32699,57344,6152,0,0,0
32701,57343,6152,0,0,0
32706,57344,6154,0,0,0
32710,57344,6157,0,0,0
32717,57344,6162,0,0,0
32729,57343,6169,0,0,0
32742,57344,6176,0,0,0
32755,57347,6186,0,0,0
32767,57351,6195,0,0,0
32776,57355,6204,0,0,0
32784,57357,6210,0,0,0
32789,57358,6213,0,0,0
32792,57359,6215,0,0,0
32794,57359,6217,0,0,0
32794,57359,6219,0,0,0
32791,57359,6221,0,0,0
32784,57358,6221,0,0,0
32776,57356,6221,0,0,0
32769,57354,6220,0,0,0
32761,57352,6214,0,0,0
32756,57350,6203,0,0,0
32751,57347,6191,0,0,0
32746,57345,6177,0,0,0
32739,57343,6163,0,0,0
32731,57340,6146,0,0,0
32725,57338,6130,0,0,0
32719,57335,6114,0,0,0
32711,57334,6099,0,0,0
32700,57332,6083,0,0,0
32689,57328,6067,0,0,0
32677,57324,6052,0,0,0
32667,57321,6040,0,0,0
32657,57319,6028,0,0,0
32646,57317,6013,0,0,0
32636,57314,5996,0,0,0
32625,57311,5980,0,0,0
32613,57306,5964,0,0,0
32599,57303,5947,0,0,0
32581,57300,5926,0,0,0
32559,57295,5903,0,0,0
32535,57288,5880,0,0,0
32511,57282,5859,0,0,0
32488,57276,5837,0,0,0
32467,57270,5813,0,0,0
32450,57264,5791,0,0,0
32432,57257,5770,0,0,0
32413,57250,5751,0,0,0
32393,57244,5734,0,0,0
32374,57238,5720,0,0,0
32358,57234,5706,0,0,0
32344,57231,5690,0,0,0
32330,57228,5672,0,0,0
32314,57223,5655,0,0,0
32299,57219,5642,0,0,0
32286,57216,5629,0,0,0
32272,57212,5615,0,0,0
32258,57208,5602,0,0,0
32243,57204,5586,0,0,0
32227,57200,5570,0,0,0
32214,57198,5552,0,0,0
32203,57197,5532,0,0,0
32194,57194,5513,0,0,0
32189,57191,5497,0,0,0
32184,57189,5482,0,0,0
32178,57187,5468,0,0,0
32172,57185,5455,0,0,0
32165,57183,5443,0,0,0
32157,57182,5435,0,0,0
32149,57182,5429,0,0,0
32140,57183,5422,0,0,0
32129,57184,5413,0,0,0
32117,57182,5402,0,0,0
32105,57178,5387,0,0,0
32089,57172,5367,0,0,0
32068,57166,5345,0,0,0
32043,57159,5321,0,0,0
32017,57154,5299,0,0,0
31991,57150,5278,0,0,0
31963,57146,5255,0,0,0
31931,57140,5231,0,0,0
31897,57134,5204,0,0,0
31861,57127,5176,0,0,0
31823,57118,5146,0,0,0
31783,57109,5115,0,0,0
31744,57100,5082,0,0,0
31707,57090,5051,0,0,0
31673,57079,5020,0,0,0
31644,57069,4991,0,0,0
31616,57061,4963,0,0,0
31589,57056,4936,0,0,0
31561,57051,4911,0,0,0
31535,57044,4887,0,0,0
31512,57037,4864,0,0,0
31491,57030,4839,0,0,0
31472,57024,4814,0,0,0
31455,57018,4790,0,0,0
31442,57014,4769,0,0,0
31435,57012,4753,0,0,0
31434,57012,4744,0,0,0
31438,57014,4744,0,0,0
31452,57018,4753,0,0,0
31475,57024,4774,0,0,0
31506,57033,4808,0,0,0
31545,57044,4853,0,0,0
31593,57058,4907,0,0,0
31652,57072,4971,0,0,0
31720,57086,5044,0,0,0
31797,57102,5126,0,0,0
31880,57121,5214,0,0,0
31966,57145,5306,0,0,0
32052,57169,5399,0,0,0
32137,57192,5491,0,0,0
32219,57214,5581,0,0,0
32296,57235,5666,0,0,0
32368,57256,5747,0,0,0
32435,57275,5824,0,0,0
32495,57291,5896,0,0,0
32550,57306,5961,0,0,0
32599,57319,6020,0,0,0
32642,57332,6071,0,0,0
32678,57343,6115,0,0,0
32706,57351,6152,0,0,0
32728,57356,6182,0,0,0
32743,57359,6204,0,0,0
32752,57361,6221,0,0,0
32755,57362,6233,0,0,0
32756,57361,6240,0,0,0
32755,57360,6241,0,0,0
32751,57358,6240,0,0,0
32748,57355,6236,0,0,0
32743,57349,6229,0,0,0
32734,57343,6219,0,0,0
32723,57338,6206,0,0,0
32711,57334,6195,0,0,0
32702,57333,6187,0,0,0
32696,57331,6181,0,0,0
32692,57330,6179,0,0,0
32690,57330,6177,0,0,0
32688,57330,6177,0,0,0
32687,57331,6175,0,0,0
32688,57331,6175,0,0,0
32693,57332,6176,0,0,0
32700,57334,6182,0,0,0
32709,57336,6193,0,0,0
32720,57339,6208,0,0,0
32731,57342,6224,0,0,0
32741,57345,6237,0,0,0
32747,57348,6247,0,0,0
32752,57350,6253,0,0,0
32757,57352,6257,0,0,0
32760,57353,6260,0,0,0
32762,57352,6264,0,0,0
32762,57350,6266,0,0,0
32757,57348,6266,0,0,0
32749,57347,6263,0,0,0
32737,57345,6256,0,0,0
32720,57341,6247,0,0,0
32701,57336,6237,0,0,0
32681,57333,6224,0,0,0
32665,57330,6209,0,0,0
32651,57327,6192,0,0,0
32637,57324,6174,0,0,0
32623,57322,6156,0,0,0
32609,57320,6139,0,0,0
32592,57319,6122,0,0,0
32573,57317,6107,0,0,0
32556,57312,6092,0,0,0
32540,57307,6079,0,0,0
32524,57302,6066,0,0,0
32512,57296,6052,0,0,0
32501,57290,6039,0,0,0
32490,57286,6028,0,0,0
32479,57284,6019,0,0,0
32467,57281,6012,0,0,0
32457,57278,6006,0,0,0
32447,57276,6002,0,0,0
32439,57273,5998,0,0,0
32433,57269,5993,0,0,0
32428,57268,5989,0,0,0
32426,57269,5987,0,0,0
32423,57271,5984,0,0,0
32421,57273,5981,0,0,0
32421,57274,5978,0,0,0
32421,57274,5975,0,0,0
32420,57272,5971,0,0,0
32419,57270,5967,0,0,0
32416,57266,5962,0,0,0
32408,57262,5952,0,0,0
32394,57256,5939,0,0,0
32378,57248,5923,0,0,0
32361,57242,5906,0,0,0
32344,57238,5888,0,0,0
32327,57235,5872,0,0,0
32307,57231,5856,0,0,0
32285,57227,5839,0,0,0
32260,57220,5819,0,0,0
32234,57213,5798,0,0,0
32207,57206,5777,0,0,0
32184,57199,5756,0,0,0
32163,57193,5734,0,0,0
32141,57186,5712,0,0,0
32119,57177,5690,0,0,0
32096,57169,5669,0,0,0
32071,57163,5646,0,0,0
32044,57158,5621,0,0,0
32017,57152,5593,0,0,0
31993,57147,5565,0,0,0
31969,57141,5538,0,0,0
31944,57134,5512,0,0,0
31918,57127,5486,0,0,0
31891,57120,5461,0,0,0
31864,57113,5434,0,0,0
31838,57107,5407,0,0,0
31813,57101,5380,0,0,0
31790,57094,5354,0,0,0
31767,57089,5331,0,0,0
31744,57085,5308,0,0,0
31718,57082,5285,0,0,0
31692,57080,5264,0,0,0
31669,57078,5244,0,0,0
31647,57075,5225,0,0,0
31625,57070,5202,0,0,0
31602,57061,5176,0,0,0
31576,57050,5147,0,0,0
31546,57039,5117,0,0,0
31515,57028,5089,0,0,0
31485,57019,5066,0,0,0
31457,57012,5044,0,0,0
31430,57007,5023,0,0,0
31405,57004,5003,0,0,0
31380,57001,4984,0,0,0
31356,56998,4966,0,0,0
31332,56994,4950,0,0,0
31310,56989,4935,0,0,0
31288,56983,4918,0,0,0
31270,56977,4901,0,0,0
31254,56971,4883,0,0,0
31236,56964,4864,0,0,0
31216,56957,4843,0,0,0
31195,56951,4821,0,0,0
31173,56945,4797,0,0,0
31151,56939,4773,0,0,0
31128,56933,4747,0,0,0
31105,56927,4721,0,0,0
31079,56923,4697,0,0,0
31051,56919,4673,0,0,0
31021,56913,4649,0,0,0
30992,56904,4626,0,0,0
30964,56895,4602,0,0,0
30939,56886,4580,0,0,0
30916,56879,4558,0,0,0
30892,56872,4536,0,0,0
30871,56865,4516,0,0,0
30856,56859,4500,0,0,0
30849,56853,4488,0,0,0
30847,56848,4479,0,0,0
30850,56847,4475,0,0,0
30857,56849,4477,0,0,0
30869,56854,4487,0,0,0
30886,56861,4502,0,0,0
30909,56869,4523,0,0,0
30941,56878,4555,0,0,0
30984,56890,4600,0,0,0
31039,56907,4661,0,0,0
31106,56927,4734,0,0,0
31179,56948,4812,0,0,0
31256,56969,4897,0,0,0
31337,56991,4988,0,0,0
31421,57013,5081,0,0,0
31511,57036,5173,0,0,0
31603,57059,5265,0,0,0
31690,57082,5356,0,0,0
31772,57103,5445,0,0,0
31846,57122,5530,0,0,0
31914,57142,5609,0,0,0
31977,57162,5681,0,0,0
32033,57182,5745,0,0,0
32080,57197,5800,0,0,0
32120,57207,5846,0,0,0
32152,57214,5881,0,0,0
32177,57219,5908,0,0,0
32193,57220,5929,0,0,0
32204,57220,5945,0,0,0
32214,57221,5957,0,0,0
32225,57222,5964,0,0,0
32235,57223,5964,0,0,0
32241,57222,5961,0,0,0
32245,57220,5957,0,0,0
32245,57218,5952,0,0,0
32243,57217,5945,0,0,0
32240,57216,5939,0,0,0
32233,57215,5932,0,0,0
32223,57213,5924,0,0,0
32216,57211,5918,0,0,0
32213,57211,5916,0,0,0
32215,57211,5916,0,0,0
32216,57211,5916,0,0,0
32218,57213,5918,0,0,0
32222,57217,5923,0,0,0
32228,57222,5931,0,0,0
32235,57227,5942,0,0,0
32243,57231,5956,0,0,0
32254,57234,5971,0,0,0
32269,57236,5990,0,0,0
32287,57238,6009,0,0,0
32305,57240,6027,0,0,0
32320,57244,6041,0,0,0
32332,57248,6050,0,0,0
32345,57252,6056,0,0,0
32362,57257,6062,0,0,0
32379,57263,6068,0,0,0
32394,57268,6071,0,0,0
32406,57271,6073,0,0,0
32415,57270,6073,0,0,0
32418,57267,6070,0,0,0
32414,57265,6064,0,0,0
32407,57262,6054,0,0,0
32397,57257,6042,0,0,0
32387,57253,6029,0,0,0
32377,57248,6020,0,0,0
32369,57244,6014,0,0,0
32365,57242,6012,0,0,0
32364,57241,6010,0,0,0
32364,57243,6007,0,0,0
32364,57247,6005,0,0,0
32364,57251,6004,0,0,0
32367,57254,6003,0,0,0
32372,57257,6005,0,0,0
32379,57260,6009,0,0,0
32386,57264,6014,0,0,0
32393,57267,6020,0,0,0
32401,57268,6028,0,0,0
32412,57270,6037,0,0,0
32425,57271,6045,0,0,0
32441,57272,6052,0,0,0
32456,57273,6060,0,0,0
32472,57273,6068,0,0,0
32486,57272,6076,0,0,0
32500,57271,6082,0,0,0
32513,57272,6089,0,0,0
32521,57274,6096,0,0,0
32526,57275,6099,0,0,0
32526,57275,6098,0,0,0
32521,57274,6091,0,0,0
32510,57271,6082,0,0,0
32496,57266,6072,0,0,0
32480,57262,6063,0,0,0
32462,57257,6054,0,0,0
32445,57252,6041,0,0,0
32430,57247,6024,0,0,0
32414,57244,6002,0,0,0
32396,57242,5981,0,0,0
32380,57240,5962,0,0,0
32364,57237,5946,0,0,0
32347,57235,5930,0,0,0
32329,57232,5913,0,0,0
32310,57228,5898,0,0,0
32293,57225,5882,0,0,0
32278,57223,5866,0,0,0
32264,57221,5849,0,0,0
32252,57219,5829,0,0,0
32242,57215,5807,0,0,0
32232,57209,5786,0,0,0
32222,57202,5765,0,0,0
32207,57194,5743,0,0,0
32189,57185,5719,0,0,0
32168,57177,5697,0,0,0
32145,57171,5674,0,0,0
32121,57167,5649,0,0,0
32098,57162,5626,0,0,0
32074,57157,5603,0,0,0
32049,57152,5582,0,0,0
32029,57149,5563,0,0,0
32013,57146,5547,0,0,0
31998,57144,5536,0,0,0
31986,57142,5528,0,0,0
31978,57140,5520,0,0,0
31972,57138,5511,0,0,0
31966,57136,5501,0,0,0
31957,57136,5488,0,0,0
31948,57133,5474,0,0,0
31939,57129,5458,0,0,0
31930,57123,5441,0,0,0
31920,57118,5423,0,0,0
31909,57113,5406,0,0,0
31898,57109,5393,0,0,0
31886,57104,5382,0,0,0
31875,57099,5373,0,0,0
31866,57098,5363,0,0,0
31857,57097,5353,0,0,0
31848,57096,5338,0,0,0
31836,57093,5322,0,0,0
31821,57091,5305,0,0,0
31804,57088,5285,0,0,0
31786,57085,5266,0,0,0
31771,57082,5249,0,0,0
31757,57080,5234,0,0,0
31743,57079,5219,0,0,0
31729,57079,5208,0,0,0
31718,57077,5198,0,0,0
31710,57074,5187,0,0,0
31701,57070,5176,0,0,0
31693,57065,5164,0,0,0
31681,57060,5151,0,0,0
31667,57055,5137,0,0,0
31653,57052,5123,0,0,0
31643,57051,5111,0,0,0
31639,57051,5104,0,0,0
31641,57053,5103,0,0,0
31650,57055,5109,0,0,0
31665,57058,5124,0,0,0
31689,57062,5149,0,0,0
31721,57068,5184,0,0,0
31763,57077,5228,0,0,0
31815,57089,5283,0,0,0
31877,57103,5350,0,0,0
31947,57120,5429,0,0,0
32023,57140,5517,0,0,0
32105,57161,5613,0,0,0
32193,57182,5712,0,0,0
32284,57204,5812,0,0,0
32377,57227,5910,0,0,0
32469,57250,6008,0,0,0
32557,57272,6102,0,0,0
32636,57293,6189,0,0,0
32708,57313,6269,0,0,0
32775,57332,6343,0,0,0
32836,57348,6407,0,0,0
32888,57361,6461,0,0,0
32932,57372,6508,0,0,0
32969,57382,6549,0,0,0
32997,57393,6584,0,0,0
33019,57402,6613,0,0,0
33037,57409,6636,0,0,0
33054,57415,6654,0,0,0
33067,57418,6669,0,0,0
33078,57421,6679,0,0,0
33089,57425,6686,0,0,0
33101,57428,6692,0,0,0
33112,57431,6700,0,0,0
33124,57435,6709,0,0,0
33135,57438,6720,0,0,0
33144,57441,6732,0,0,0
33149,57442,6741,0,0,0
33151,57442,6749,0,0,0
33155,57442,6756,0,0,0
33160,57443,6764,0,0,0
33166,57445,6774,0,0,0
33173,57449,6784,0,0,0
33182,57453,6794,0,0,0
33194,57455,6804,0,0,0
33207,57457,6817,0,0,0
33223,57459,6833,0,0,0
33241,57461,6850,0,0,0
33259,57465,6870,0,0,0
33275,57469,6890,0,0,0
33287,57474,6910,0,0,0
33299,57477,6929,0,0,0
33309,57478,6944,0,0,0
33318,57479,6954,0,0,0
33327,57479,6959,0,0,0
33335,57481,6960,0,0,0
33342,57482,6960,0,0,0
33345,57481,6958,0,0,0
33345,57478,6952,0,0,0
33342,57475,6943,0,0,0
33339,57472,6934,0,0,0
33334,57470,6924,0,0,0
33326,57468,6914,0,0,0
33316,57466,6902,0,0,0
33308,57466,6889,0,0,0
33302,57466,6878,0,0,0
33298,57467,6870,0,0,0
33297,57468,6865,0,0,0
33298,57470,6865,0,0,0
33300,57472,6868,0,0,0
33304,57474,6871,0,0,0
33310,57478,6874,0,0,0
33316,57481,6875,0,0,0
33323,57482,6874,0,0,0
33328,57481,6872,0,0,0
33334,57479,6872,0,0,0
33342,57477,6874,0,0,0
33352,57475,6877,0,0,0
33358,57473,6880,0,0,0
33361,57473,6884,0,0,0
33364,57474,6888,0,0,0
33365,57475,6891,0,0,0
33366,57474,6893,0,0,0
33366,57472,6892,0,0,0
33364,57470,6888,0,0,0
33361,57468,6881,0,0,0
33357,57466,6871,0,0,0
33352,57467,6861,0,0,0
33345,57468,6850,0,0,0
33338,57470,6840,0,0,0
33329,57471,6833,0,0,0
33320,57468,6828,0,0,0
33309,57462,6821,0,0,0
33297,57455,6811,0,0,0
33281,57448,6797,0,0,0
33264,57442,6784,0,0,0
33248,57437,6771,0,0,0
33235,57433,6758,0,0,0
33225,57429,6746,0,0,0
33214,57427,6730,0,0,0
33200,57424,6713,0,0,0
33184,57418,6693,0,0,0
33166,57412,6672,0,0,0
33146,57407,6649,0,0,0
33125,57403,6628,0,0,0
33103,57399,6607,0,0,0
33078,57396,6586,0,0,0
33050,57393,6563,0,0,0
33019,57389,6539,0,0,0
32987,57385,6515,0,0,0
32957,57379,6491,0,0,0
32932,57372,6465,0,0,0
32912,57364,6440,0,0,0
32895,57355,6417,0,0,0
32878,57348,6397,0,0,0
32859,57342,6378,0,0,0
32838,57338,6360,0,0,0
32816,57333,6341,0,0,0
32794,57327,6324,0,0,0
32774,57323,6307,0,0,0
32757,57321,6290,0,0,0
32746,57319,6274,0,0,0
32737,57318,6260,0,0,0
32726,57316,6248,0,0,0
32714,57315,6236,0,0,0
32702,57313,6222,0,0,0
32689,57311,6208,0,0,0
32675,57308,6192,0,0,0
32660,57304,6174,0,0,0
32645,57298,6154,0,0,0
32629,57293,6135,0,0,0
32611,57287,6116,0,0,0
32593,57279,6097,0,0,0
32577,57271,6081,0,0,0
32565,57265,6069,0,0,0
32556,57260,6057,0,0,0
32550,57256,6045,0,0,0
32543,57252,6030,0,0,0
32538,57250,6014,0,0,0
32533,57248,5997,0,0,0
32525,57244,5979,0,0,0
32515,57240,5961,0,0,0
32502,57236,5945,0,0,0
32488,57232,5930,0,0,0
32471,57228,5913,0,0,0
32448,57223,5893,0,0,0
32421,57217,5869,0,0,0
32392,57211,5845,0,0,0
32362,57206,5819,0,0,0
32331,57201,5793,0,0,0
32299,57196,5770,0,0,0
32271,57190,5748,0,0,0
32248,57185,5726,0,0,0
32226,57180,5704,0,0,0
32205,57175,5685,0,0,0
32186,57171,5666,0,0,0
32170,57169,5647,0,0,0
32157,57167,5628,0,0,0
32147,57166,5608,0,0,0
32142,57166,5590,0,0,0
32140,57167,5575,0,0,0
32138,57167,5565,0,0,0
32139,57168,5563,0,0,0
32146,57170,5568,0,0,0
32161,57172,5579,0,0,0
32184,57175,5600,0,0,0
32217,57180,5636,0,0,0
32261,57191,5686,0,0,0
32315,57207,5748,0,0,0
32379,57226,5821,0,0,0
32451,57247,5903,0,0,0
32530,57268,5992,0,0,0
32613,57290,6089,0,0,0
32702,57312,6190,0,0,0
32794,57334,6292,0,0,0
32886,57355,6394,0,0,0
32978,57377,6496,0,0,0
33072,57399,6598,0,0,0
33164,57420,6696,0,0,0
33253,57442,6790,0,0,0
33339,57463,6880,0,0,0
33419,57484,6962,0,0,0
33492,57503,7037,0,0,0
33555,57521,7103,0,0,0
33609,57535,7160,0,0,0
33654,57545,7208,0,0,0
33690,57554,7248,0,0,0
33716,57561,7281,0,0,0
33733,57566,7309,0,0,0
33746,57568,7333,0,0,0
33755,57570,7352,0,0,0
33760,57573,7363,0,0,0
33761,57575,7368,0,0,0
33760,57575,7369,0,0,0
33760,57574,7367,0,0,0
33762,57572,7367,0,0,0
33766,57572,7367,0,0,0
33769,57572,7368,0,0,0
33773,57575,7372,0,0,0
33780,57577,7380,0,0,0
33793,57580,7391,0,0,0
33811,57584,7406,0,0,0
33835,57591,7427,0,0,0
33859,57598,7451,0,0,0
33882,57605,7476,0,0,0
33905,57612,7501,0,0,0
33929,57618,7525,0,0,0
33952,57622,7550,0,0,0
33974,57625,7575,0,0,0
33995,57629,7599,0,0,0
34015,57632,7621,0,0,0
34033,57636,7642,0,0,0
34052,57640,7663,0,0,0
34071,57645,7683,0,0,0
34085,57649,7700,0,0,0
34095,57651,7714,0,0,0
34102,57653,7725,0,0,0
34106,57655,7733,0,0,0
34108,57656,7737,0,0,0
34110,57658,7736,0,0,0
34115,57658,7733,0,0,0
34117,57658,7729,0,0,0
34115,57658,7721,0,0,0
34109,57658,7708,0,0,0
34104,57657,7696,0,0,0
34097,57656,7684,0,0,0
34088,57653,7673,0,0,0
34074,57651,7663,0,0,0
34060,57648,7653,0,0,0
34045,57645,7647,0,0,0
34033,57641,7642,0,0,0
34024,57639,7639,0,0,0
34018,57638,7636,0,0,0
34013,57637,7632,0,0,0
34009,57636,7627,0,0,0
34007,57637,7623,0,0,0
