green_channel,red_channel,ir_channel,Anomaly_ch0,Anomaly_ch1,Anomaly_ch2
29739,16207,29357,0,0,0
29705,16187,29303,0,0,0
29673,16167,29249,0,0,0
29642,16148,29197,0,0,0
29609,16127,29146,0,0,0
29572,16105,29095,0,0,0
29534,16082,29047,0,0,0
29495,16055,29001,0,0,0
29460,16029,28959,0,0,0
29429,16007,28920,0,0,0
29401,15988,28886,0,0,0
29373,15969,28857,0,0,0
29343,15949,28829,0,0,0
29313,15928,28800,0,0,0
29286,15909,28775,0,0,0
29263,15894,28755,0,0,0
29245,15883,28738,0,0,0
29232,15876,28721,0,0,0
29222,15871,28704,0,0,0
29215,15867,28686,0,0,0
29206,15864,28667,0,0,0
29195,15861,28647,0,0,0
29183,15856,28626,0,0,0
29165,15849,28599,0,0,0
29142,15838,28564,0,0,0
29113,15824,28523,0,0,0
29080,15806,28477,0,0,0
29040,15785,28426,0,0,0
28993,15759,28365,0,0,0
28941,15729,28297,0,0,0
28884,15697,28224,0,0,0
28826,15661,28147,0,0,0
28767,15623,28064,0,0,0
28705,15582,27975,0,0,0
28641,15541,27882,0,0,0
28575,15499,27784,0,0,0
28507,15455,27682,0,0,0
28435,15406,27577,0,0,0
28361,15355,27468,0,0,0
28283,15304,27359,0,0,0
28203,15253,27248,0,0,0
28124,15202,27137,0,0,0
28049,15152,27027,0,0,0
27976,15105,26918,0,0,0
27905,15062,26810,0,0,0
27831,15020,26704,0,0,0
27753,14977,26595,0,0,0
27677,14933,26486,0,0,0
27605,14891,26380,0,0,0
27537,14850,26277,0,0,0
27470,14810,26175,0,0,0
27404,14769,26076,0,0,0
27338,14730,25980,0,0,0
27271,14692,25888,0,0,0
27204,14653,25799,0,0,0
27136,14614,25708,0,0,0
27071,14576,25616,0,0,0
27008,14540,25530,0,0,0
26949,14506,25453,0,0,0
26894,14472,25380,0,0,0
26840,14437,25308,0,0,0
26787,14401,25235,0,0,0
26736,14366,25161,0,0,0
26685,14331,25086,0,0,0
26634,14299,25010,0,0,0
26582,14266,24933,0,0,0
26528,14231,24856,0,0,0
26472,14196,24779,0,0,0
26417,14164,24703,0,0,0
26364,14136,24628,0,0,0
26315,14109,24556,0,0,0
26271,14084,24486,0,0,0
26233,14060,24417,0,0,0
26195,14037,24347,0,0,0
26151,14012,24275,0,0,0
26101,13987,24205,0,0,0
26048,13962,24138,0,0,0
25993,13934,24072,0,0,0
25937,13903,24006,0,0,0
25882,13869,23939,0,0,0
25828,13834,23865,0,0,0
25775,13799,23787,0,0,0
25718,13763,23705,0,0,0
25659,13729,23623,0,0,0
25602,13696,23542,0,0,0
25541,13662,23459,0,0,0
25479,13626,23374,0,0,0
25420,13591,23289,0,0,0
25363,13556,23206,0,0,0
25306,13523,23124,0,0,0
25248,13488,23041,0,0,0
25189,13452,22956,0,0,0
25128,13415,22867,0,0,0
25065,13376,22777,0,0,0
25004,13335,22688,0,0,0
24947,13294,22603,0,0,0
24893,13256,22525,0,0,0
24841,13222,22453,0,0,0
24790,13190,22381,0,0,0
24740,13160,22308,0,0,0
24689,13130,22231,0,0,0
24634,13099,22150,0,0,0
24573,13067,22066,0,0,0
24513,13034,21978,0,0,0
24454,13002,21888,0,0,0
24394,12969,21798,0,0,0
24333,12935,21708,0,0,0
24272,12901,21624,0,0,0
24210,12866,21543,0,0,0
24145,12828,21461,0,0,0
24076,12788,21376,0,0,0
24005,12747,21290,0,0,0
23937,12707,21203,0,0,0
23871,12668,21115,0,0,0
23805,12629,21026,0,0,0
23738,12592,20935,0,0,0
23671,12556,20844,0,0,0
23604,12520,20750,0,0,0
23540,12482,20657,0,0,0
23480,12444,20567,0,0,0
23422,12407,20480,0,0,0
23365,12372,20397,0,0,0
23315,12344,20327,0,0,0
23281,12326,20279,0,0,0
23270,12323,20265,0,0,0
23289,12339,20296,0,0,0
23346,12379,20381,0,0,0
23449,12446,20527,0,0,0
23598,12539,20737,0,0,0
23787,12656,21007,0,0,0
24009,12797,21332,0,0,0
24259,12958,21706,0,0,0
24531,13136,22122,0,0,0
24819,13325,22572,0,0,0
25123,13523,23045,0,0,0
25436,13724,23530,0,0,0
25750,13924,24018,0,0,0
26059,14120,24499,0,0,0
26359,14311,24967,0,0,0
26644,14490,25410,0,0,0
26905,14654,25820,0,0,0
27141,14802,26194,0,0,0
27353,14935,26532,0,0,0
27539,15052,26833,0,0,0
27697,15149,27096,0,0,0
27826,15226,27318,0,0,0
27925,15287,27496,0,0,0
27997,15333,27631,0,0,0
28041,15363,27724,0,0,0
28063,15377,27780,0,0,0
28065,15375,27805,0,0,0
28050,15363,27804,0,0,0
28019,15343,27781,0,0,0
27976,15317,27739,0,0,0
27924,15289,27684,0,0,0
27868,15259,27619,0,0,0
27810,15222,27542,0,0,0
27750,15180,27457,0,0,0
27695,15139,27375,0,0,0
27645,15101,27300,0,0,0
27604,15070,27231,0,0,0
27570,15046,27167,0,0,0
27540,15026,27115,0,0,0
27513,15013,27075,0,0,0
27486,15002,27043,0,0,0
27462,14995,27019,0,0,0
27446,14993,27003,0,0,0
27441,14995,26995,0,0,0
27444,14997,26993,0,0,0
27452,14999,26998,0,0,0
27463,15003,27009,0,0,0
27476,15006,27022,0,0,0
27487,15008,27033,0,0,0
27494,15007,27040,0,0,0
27494,15004,27044,0,0,0
27484,14996,27041,0,0,0
27463,14981,27028,0,0,0
27435,14963,27004,0,0,0
27402,14945,26972,0,0,0
27368,14925,26932,0,0,0
27332,14905,26886,0,0,0
27294,14884,26837,0,0,0
27255,14861,26785,0,0,0
27219,14839,26732,0,0,0
27186,14817,26683,0,0,0
27154,14797,26639,0,0,0
27126,14779,26601,0,0,0
27099,14763,26565,0,0,0
27074,14749,26528,0,0,0
27052,14736,26491,0,0,0
27033,14726,26459,0,0,0
27013,14720,26433,0,0,0
26990,14715,26413,0,0,0
26966,14712,26398,0,0,0
26943,14708,26386,0,0,0
26921,14703,26377,0,0,0
26902,14694,26368,0,0,0
26885,14684,26356,0,0,0
26871,14675,26341,0,0,0
26858,14668,26325,0,0,0
26847,14660,26305,0,0,0
26835,14651,26284,0,0,0
26823,14641,26264,0,0,0
26808,14630,26244,0,0,0
26789,14616,26218,0,0,0
26764,14600,26186,0,0,0
26731,14581,26147,0,0,0
26690,14557,26098,0,0,0
26644,14529,26039,0,0,0
26596,14499,25974,0,0,0
26546,14468,25905,0,0,0
26491,14434,25831,0,0,0
26433,14400,25749,0,0,0
26373,14366,25663,0,0,0
26308,14330,25572,0,0,0
26241,14289,25475,0,0,0
26173,14242,25373,0,0,0
26105,14194,25271,0,0,0
26037,14147,25169,0,0,0
25967,14101,25066,0,0,0
25896,14057,24963,0,0,0
25825,14016,24860,0,0,0
25753,13974,24755,0,0,0
25679,13931,24649,0,0,0
25604,13887,24542,0,0,0
25528,13844,24438,0,0,0
25451,13802,24337,0,0,0
25370,13760,24235,0,0,0
25291,13718,24131,0,0,0
25215,13675,24027,0,0,0
25143,13634,23926,0,0,0
25073,13596,23828,0,0,0
25007,13558,23734,0,0,0
24946,13523,23642,0,0,0
24890,13487,23549,0,0,0
24832,13450,23456,0,0,0
24771,13413,23362,0,0,0
24708,13374,23268,0,0,0
24644,13333,23172,0,0,0
24582,13290,23076,0,0,0
24522,13248,22984,0,0,0
24464,13206,22895,0,0,0
24406,13168,22808,0,0,0
24349,13133,22725,0,0,0
24292,13101,22644,0,0,0
24236,13071,22565,0,0,0
24180,13042,22485,0,0,0
24124,13014,22408,0,0,0
24067,12987,22334,0,0,0
24010,12961,22262,0,0,0
23954,12935,22193,0,0,0
23902,12906,22126,0,0,0
23856,12878,22060,0,0,0
23810,12851,21995,0,0,0
23765,12828,21933,0,0,0
23721,12806,21874,0,0,0
23678,12787,21815,0,0,0
23635,12768,21754,0,0,0
23590,12744,21692,0,0,0
23546,12717,21628,0,0,0
23503,12690,21564,0,0,0
23460,12662,21500,0,0,0
23418,12632,21434,0,0,0
23377,12601,21366,0,0,0
23334,12570,21297,0,0,0
23290,12539,21225,0,0,0
23243,12508,21152,0,0,0
23193,12478,21079,0,0,0
23141,12448,21007,0,0,0
23084,12416,20931,0,0,0
23025,12381,20854,0,0,0
22966,12347,20777,0,0,0
22908,12316,20701,0,0,0
22850,12286,20624,0,0,0
22794,12259,20544,0,0,0
22741,12232,20465,0,0,0
22692,12206,20390,0,0,0
22645,12181,20318,0,0,0
22594,12152,20246,0,0,0
22539,12119,20172,0,0,0
22482,12083,20096,0,0,0
22424,12049,20017,0,0,0
22364,12016,19936,0,0,0
22304,11984,19855,0,0,0
22246,11954,19777,0,0,0
22194,11925,19701,0,0,0
22145,11897,19626,0,0,0
22096,11869,19550,0,0,0
22047,11842,19475,0,0,0
21994,11814,19396,0,0,0
21938,11782,19312,0,0,0
21881,11749,19227,0,0,0
21820,11715,19143,0,0,0
21759,11681,19059,0,0,0
21701,11649,18978,0,0,0
21649,11619,18901,0,0,0
21599,11590,18826,0,0,0
21547,11561,18748,0,0,0
21493,11530,18668,0,0,0
21441,11498,18587,0,0,0
21388,11464,18503,0,0,0
21334,11429,18419,0,0,0
21281,11395,18339,0,0,0
21232,11364,18267,0,0,0
21190,11338,18206,0,0,0
21164,11321,18165,0,0,0
21159,11318,18154,0,0,0
21184,11336,18184,0,0,0
21246,11378,18266,0,0,0
21351,11448,18410,0,0,0
21498,11545,18617,0,0,0
21684,11665,18887,0,0,0
21906,11805,19215,0,0,0
22161,11963,19592,0,0,0
22446,12137,20012,0,0,0
22753,12323,20471,0,0,0
23076,12520,20958,0,0,0
23407,12722,21462,0,0,0
23740,12928,21975,0,0,0
24069,13133,22493,0,0,0
24386,13332,23003,0,0,0
24686,13520,23492,0,0,0
24969,13697,23954,0,0,0
25230,13858,24384,0,0,0
25465,14002,24771,0,0,0
25672,14129,25113,0,0,0
25848,14239,25410,0,0,0
25994,14332,25660,0,0,0
26112,14405,25864,0,0,0
26202,14462,26024,0,0,0
26262,14500,26143,0,0,0
26296,14520,26221,0,0,0
26306,14526,26261,0,0,0
26297,14521,26269,0,0,0
26273,14505,26253,0,0,0
26238,14484,26214,0,0,0
26193,14457,26158,0,0,0
26141,14426,26090,0,0,0
26083,14392,26016,0,0,0
26022,14357,25936,0,0,0
25958,14321,25854,0,0,0
25895,14286,25773,0,0,0
25839,14253,25695,0,0,0
25788,14222,25620,0,0,0
25742,14194,25548,0,0,0
25701,14170,25485,0,0,0
25665,14152,25433,0,0,0
25636,14140,25393,0,0,0
25613,14133,25364,0,0,0
25596,14128,25343,0,0,0
25584,14125,25329,0,0,0
25576,14126,25322,0,0,0
25572,14128,25321,0,0,0
25576,14130,25323,0,0,0
25583,14132,25329,0,0,0
25588,14133,25337,0,0,0
25589,14133,25343,0,0,0
25586,14129,25343,0,0,0
25578,14123,25338,0,0,0
25564,14114,25325,0,0,0
25548,14106,25305,0,0,0
25533,14098,25281,0,0,0
25517,14090,25254,0,0,0
25498,14079,25226,0,0,0
25475,14066,25197,0,0,0
25449,14051,25166,0,0,0
25419,14034,25132,0,0,0
25387,14015,25097,0,0,0
25361,13997,25066,0,0,0
25344,13981,25042,0,0,0
25332,13971,25025,0,0,0
25324,13963,25011,0,0,0
25314,13955,24997,0,0,0
25303,13947,24984,0,0,0
25291,13938,24971,0,0,0
25281,13930,24959,0,0,0
25272,13924,24949,0,0,0
25266,13922,24942,0,0,0
25261,13925,24936,0,0,0
25253,13930,24929,0,0,0
25245,13934,24920,0,0,0
25237,13937,24914,0,0,0
25225,13937,24908,0,0,0
25211,13933,24897,0,0,0
25194,13924,24877,0,0,0
25174,13914,24853,0,0,0
25152,13901,24827,0,0,0
25127,13887,24795,0,0,0
25102,13872,24758,0,0,0
25074,13857,24718,0,0,0
25043,13839,24672,0,0,0
25006,13815,24616,0,0,0
24966,13786,24551,0,0,0
24922,13753,24478,0,0,0
24874,13716,24398,0,0,0
24822,13677,24315,0,0,0
24768,13639,24231,0,0,0
24713,13604,24147,0,0,0
24657,13571,24059,0,0,0
24597,13535,23963,0,0,0
24530,13495,23861,0,0,0
24464,13454,23754,0,0,0
24396,13413,23644,0,0,0
24328,13373,23531,0,0,0
24261,13335,23421,0,0,0
24197,13298,23316,0,0,0
24132,13259,23214,0,0,0
24063,13219,23112,0,0,0
23987,13178,23009,0,0,0
23909,13135,22906,0,0,0
23833,13091,22804,0,0,0
23761,13047,22701,0,0,0
23695,13003,22602,0,0,0
23633,12961,22508,0,0,0
23574,12923,22421,0,0,0
23519,12890,22341,0,0,0
23466,12861,22263,0,0,0
23412,12832,22183,0,0,0
23357,12802,22098,0,0,0
23301,12769,22011,0,0,0
23246,12734,21924,0,0,0
23192,12700,21840,0,0,0
23139,12666,21755,0,0,0
23087,12635,21670,0,0,0
23037,12604,21587,0,0,0
22985,12571,21506,0,0,0
22933,12536,21428,0,0,0
22881,12502,21350,0,0,0
22829,12468,21274,0,0,0
22777,12433,21198,0,0,0
22725,12399,21120,0,0,0
22674,12366,21043,0,0,0
22626,12336,20971,0,0,0
22582,12311,20905,0,0,0
22537,12288,20838,0,0,0
22492,12268,20773,0,0,0
22448,12248,20714,0,0,0
22406,12229,20658,0,0,0
22365,12207,20600,0,0,0
22323,12185,20540,0,0,0
22284,12162,20479,0,0,0
22245,12139,20416,0,0,0
22205,12116,20354,0,0,0
22165,12092,20293,0,0,0
22126,12068,20236,0,0,0
22084,12044,20176,0,0,0
22040,12021,20111,0,0,0
21991,11997,20043,0,0,0
21940,11973,19972,0,0,0
21892,11947,19901,0,0,0
21846,11920,19832,0,0,0
21802,11891,19764,0,0,0
21756,11861,19699,0,0,0
21709,11832,19635,0,0,0
21663,11806,19570,0,0,0
21617,11784,19503,0,0,0
21569,11763,19435,0,0,0
21518,11740,19363,0,0,0
21463,11715,19288,0,0,0
21407,11688,19210,0,0,0
21350,11659,19128,0,0,0
21293,11626,19045,0,0,0
21238,11595,18965,0,0,0
21188,11565,18892,0,0,0
21139,11536,18825,0,0,0
21090,11508,18758,0,0,0
21043,11479,18690,0,0,0
20996,11453,18620,0,0,0
20947,11430,18548,0,0,0
20897,11405,18474,0,0,0
20844,11376,18398,0,0,0
20792,11346,18325,0,0,0
20745,11314,18256,0,0,0
20702,11282,18187,0,0,0
20658,11251,18116,0,0,0
20613,11220,18045,0,0,0
20569,11187,17976,0,0,0
20527,11155,17907,0,0,0
20484,11127,17836,0,0,0
20436,11101,17762,0,0,0
20384,11074,17685,0,0,0
20329,11045,17601,0,0,0
20271,11015,17512,0,0,0
20211,10983,17421,0,0,0
20152,10949,17334,0,0,0
20095,10915,17252,0,0,0
20039,10885,17175,0,0,0
19989,10860,17109,0,0,0
19950,10844,17061,0,0,0
19937,10841,17042,0,0,0
19956,10857,17068,0,0,0
20013,10892,17147,0,0,0
20114,10953,17287,0,0,0
20261,11042,17493,0,0,0
20455,11157,17767,0,0,0
20690,11299,18106,0,0,0
20961,11461,18499,0,0,0
21260,11641,18941,0,0,0
21582,11836,19423,0,0,0
21921,12039,19938,0,0,0
22270,12247,20474,0,0,0
22625,12458,21021,0,0,0
22979,12672,21570,0,0,0
23329,12886,22112,0,0,0
23668,13094,22636,0,0,0
23987,13289,23136,0,0,0
24281,13471,23603,0,0,0
24547,13635,24033,0,0,0
24780,13781,24417,0,0,0
24980,13908,24752,0,0,0
25148,14013,25034,0,0,0
25283,14097,25265,0,0,0
25386,14161,25445,0,0,0
25459,14208,25577,0,0,0
25505,14237,25669,0,0,0
25526,14250,25722,0,0,0
25523,14246,25737,0,0,0
25500,14229,25721,0,0,0
25462,14202,25681,0,0,0
25412,14168,25624,0,0,0
25351,14129,25549,0,0,0
25281,14088,25460,0,0,0
25208,14047,25364,0,0,0
25132,14006,25265,0,0,0
25059,13963,25165,0,0,0
24993,13921,25070,0,0,0
24935,13882,24981,0,0,0
24881,13847,24895,0,0,0
24830,13812,24814,0,0,0
24781,13778,24739,0,0,0
24738,13747,24673,0,0,0
24702,13721,24616,0,0,0
24673,13701,24570,0,0,0
24652,13691,24536,0,0,0
24639,13690,24515,0,0,0
24633,13694,24501,0,0,0
24627,13700,24489,0,0,0
24620,13704,24475,0,0,0
24613,13705,24461,0,0,0
24602,13701,24444,0,0,0
24586,13694,24424,0,0,0
24571,13685,24403,0,0,0
24557,13675,24383,0,0,0
24540,13661,24362,0,0,0
24520,13646,24339,0,0,0
24497,13632,24316,0,0,0
24474,13619,24292,0,0,0
24452,13605,24267,0,0,0
24434,13590,24241,0,0,0
24419,13576,24216,0,0,0
24407,13563,24192,0,0,0
24397,13553,24172,0,0,0
24388,13548,24157,0,0,0
24379,13544,24142,0,0,0
24370,13538,24126,0,0,0
24362,13532,24112,0,0,0
24356,13526,24101,0,0,0
24356,13523,24095,0,0,0
24360,13525,24094,0,0,0
24364,13530,24096,0,0,0
24369,13534,24101,0,0,0
24374,13537,24110,0,0,0
24377,13540,24120,0,0,0
24376,13543,24124,0,0,0
24371,13544,24120,0,0,0
24365,13541,24110,0,0,0
24356,13538,24096,0,0,0
24346,13533,24080,0,0,0
24337,13528,24064,0,0,0
24328,13523,24046,0,0,0
24313,13517,24022,0,0,0
24291,13507,23994,0,0,0
24265,13492,23960,0,0,0
24233,13475,23918,0,0,0
24197,13456,23868,0,0,0
24161,13435,23810,0,0,0
24123,13413,23746,0,0,0
24079,13389,23673,0,0,0
24024,13361,23594,0,0,0
23964,13328,23512,0,0,0
23901,13291,23423,0,0,0
23833,13250,23326,0,0,0
23762,13209,23223,0,0,0
23694,13166,23115,0,0,0
23626,13124,23005,0,0,0
23555,13081,22893,0,0,0
23481,13038,22780,0,0,0
23406,12993,22668,0,0,0
23331,12945,22557,0,0,0
23255,12898,22449,0,0,0
23181,12851,22342,0,0,0
23110,12802,22236,0,0,0
23042,12753,22132,0,0,0
22973,12705,22027,0,0,0
22902,12656,21918,0,0,0
22830,12610,21807,0,0,0
22757,12569,21698,0,0,0
22684,12532,21591,0,0,0
22613,12497,21485,0,0,0
22546,12464,21384,0,0,0
22486,12430,21288,0,0,0
22431,12394,21196,0,0,0
22379,12360,21105,0,0,0
22328,12326,21017,0,0,0
22278,12292,20932,0,0,0
22228,12258,20849,0,0,0
22178,12225,20766,0,0,0
22127,12190,20680,0,0,0
22074,12156,20596,0,0,0
22022,12123,20514,0,0,0
21971,12090,20432,0,0,0
21922,12059,20353,0,0,0
21875,12033,20279,0,0,0
21830,12008,20207,0,0,0
21786,11984,20136,0,0,0
21744,11961,20064,0,0,0
21706,11939,19997,0,0,0
21666,11915,19934,0,0,0
21626,11891,19876,0,0,0
21589,11867,19821,0,0,0
21554,11845,19771,0,0,0
21519,11824,19722,0,0,0
21482,11803,19673,0,0,0
21443,11783,19622,0,0,0
21401,11765,19568,0,0,0
21358,11746,19510,0,0,0
21315,11728,19449,0,0,0
21276,11711,19390,0,0,0
21241,11696,19335,0,0,0
21209,11679,19280,0,0,0
21176,11661,19220,0,0,0
21139,11642,19157,0,0,0
21100,11622,19094,0,0,0
21061,11602,19031,0,0,0
21021,11579,18966,0,0,0
20979,11552,18900,0,0,0
20936,11524,18835,0,0,0
20895,11498,18774,0,0,0
20853,11473,18713,0,0,0
20811,11447,18653,0,0,0
20769,11420,18593,0,0,0
20729,11395,18532,0,0,0
20689,11369,18465,0,0,0
20651,11343,18396,0,0,0
20613,11318,18328,0,0,0
20573,11291,18262,0,0,0
20531,11266,18197,0,0,0
20488,11242,18134,0,0,0
20444,11218,18069,0,0,0
20397,11192,17999,0,0,0
20349,11164,17927,0,0,0
20303,11136,17853,0,0,0
20259,11108,17779,0,0,0
20214,11080,17708,0,0,0
20171,11052,17640,0,0,0
20129,11024,17576,0,0,0
20086,10996,17510,0,0,0
20041,10968,17442,0,0,0
19993,10939,17375,0,0,0
19942,10911,17309,0,0,0
19891,10882,17242,0,0,0
19840,10852,17172,0,0,0
19787,10825,17098,0,0,0
19733,10800,17020,0,0,0
19678,10774,16936,0,0,0
19622,10746,16848,0,0,0
19569,10718,16760,0,0,0
19515,10692,16673,0,0,0
19463,10666,16590,0,0,0
19415,10641,16516,0,0,0
19378,10621,16455,0,0,0
19358,10614,16419,0,0,0
19367,10627,16420,0,0,0
19411,10661,16472,0,0,0
19495,10717,16584,0,0,0
19622,10796,16764,0,0,0
19793,10900,17012,0,0,0
20009,11030,17326,0,0,0
20268,11185,17705,0,0,0
20563,11360,18140,0,0,0
20886,11552,18623,0,0,0
21234,11758,19144,0,0,0
21596,11973,19696,0,0,0
21963,12193,20265,0,0,0
22329,12415,20837,0,0,0
22691,12635,21406,0,0,0
23044,12848,21963,0,0,0
23379,13051,22499,0,0,0
23693,13241,23003,0,0,0
23985,13416,23467,0,0,0
24253,13575,23888,0,0,0
24493,13715,24263,0,0,0
24702,13837,24586,0,0,0
24875,13939,24858,0,0,0
25012,14021,25080,0,0,0
25113,14081,25255,0,0,0
25183,14122,25385,0,0,0
25226,14146,25472,0,0,0
25243,14156,25523,0,0,0
25238,14151,25539,0,0,0
25215,14137,25525,0,0,0
25178,14114,25486,0,0,0
25130,14085,25426,0,0,0
25071,14049,25352,0,0,0
25002,14007,25268,0,0,0
24930,13962,25177,0,0,0
24856,13918,25077,0,0,0
24783,13876,24974,0,0,0
24710,13835,24870,0,0,0
24640,13794,24769,0,0,0
24575,13754,24674,0,0,0
24514,13716,24584,0,0,0
24461,13684,24503,0,0,0
24417,13658,24433,0,0,0
24380,13637,24374,0,0,0
24350,13620,24325,0,0,0
24328,13607,24284,0,0,0
24310,13600,24255,0,0,0
24295,13596,24235,0,0,0
24284,13592,24223,0,0,0
24277,13589,24216,0,0,0
24269,13586,24210,0,0,0
24261,13583,24202,0,0,0
24253,13577,24190,0,0,0
24245,13568,24174,0,0,0
24236,13558,24155,0,0,0
24226,13548,24133,0,0,0
24216,13540,24109,0,0,0
24205,13534,24084,0,0,0
24189,13530,24058,0,0,0
24172,13525,24035,0,0,0
24158,13518,24014,0,0,0
24145,13513,23995,0,0,0
24135,13508,23981,0,0,0
24127,13504,23971,0,0,0
24121,13500,23968,0,0,0
24118,13497,23971,0,0,0
24119,13495,23978,0,0,0
24125,13493,23986,0,0,0
24136,13494,23996,0,0,0
24149,13498,24008,0,0,0
24163,13504,24020,0,0,0
24174,13508,24031,0,0,0
24183,13512,24041,0,0,0
24190,13516,24050,0,0,0
24196,13521,24056,0,0,0
24202,13527,24060,0,0,0
24209,13534,24064,0,0,0
24216,13542,24068,0,0,0
24219,13549,24074,0,0,0
24217,13553,24074,0,0,0
24211,13552,24067,0,0,0
24203,13549,24053,0,0,0
24190,13545,24031,0,0,0
24174,13536,23999,0,0,0
24155,13524,23960,0,0,0
24133,13511,23915,0,0,0
24108,13495,23865,0,0,0
24078,13474,23805,0,0,0
24039,13448,23735,0,0,0
23992,13419,23661,0,0,0
23937,13386,23585,0,0,0
23878,13347,23503,0,0,0
23815,13304,23415,0,0,0
23750,13261,23322,0,0,0
23685,13220,23225,0,0,0
23623,13180,23124,0,0,0
23564,13141,23020,0,0,0
23504,13103,22917,0,0,0
23440,13067,22816,0,0,0
23374,13028,22714,0,0,0
23305,12987,22613,0,0,0
23236,12946,22510,0,0,0
23165,12904,22401,0,0,0
23094,12858,22286,0,0,0
23022,12813,22170,0,0,0
22953,12771,22057,0,0,0
22885,12731,21949,0,0,0
22818,12693,21842,0,0,0
22748,12656,21736,0,0,0
22677,12617,21629,0,0,0
22608,12575,21519,0,0,0
22541,12529,21407,0,0,0
22479,12485,21300,0,0,0
22420,12446,21200,0,0,0
22362,12409,21107,0,0,0
22302,12372,21018,0,0,0
22243,12335,20930,0,0,0
22184,12298,20845,0,0,0
22125,12261,20762,0,0,0
22070,12225,20680,0,0,0
22019,12192,20599,0,0,0
21968,12161,20519,0,0,0
21918,12131,20441,0,0,0
21869,12104,20364,0,0,0
21824,12078,20287,0,0,0
21782,12054,20208,0,0,0
21740,12031,20126,0,0,0
21700,12006,20046,0,0,0
21663,11981,19969,0,0,0
21626,11956,19896,0,0,0
21588,11930,19825,0,0,0
21547,11903,19760,0,0,0
21505,11875,19698,0,0,0
21462,11845,19634,0,0,0
21418,11817,19569,0,0,0
21373,11793,19503,0,0,0
21329,11772,19436,0,0,0
21283,11751,19370,0,0,0
21238,11731,19305,0,0,0
21196,11712,19241,0,0,0
21157,11693,19182,0,0,0
21118,11672,19125,0,0,0
21078,11650,19066,0,0,0
21041,11626,19006,0,0,0
21004,11601,18947,0,0,0
20966,11573,18885,0,0,0
20927,11545,18819,0,0,0
20889,11522,18753,0,0,0
20851,11502,18689,0,0,0
20811,11481,18626,0,0,0
20771,11458,18563,0,0,0
20731,11435,18500,0,0,0
20686,11410,18435,0,0,0
20638,11383,18369,0,0,0
20591,11356,18302,0,0,0
20543,11329,18236,0,0,0
20494,11302,18169,0,0,0
20444,11273,18103,0,0,0
20394,11242,18037,0,0,0
20346,11210,17968,0,0,0
20297,11178,17895,0,0,0
20249,11146,17821,0,0,0
20200,11116,17747,0,0,0
20149,11088,17672,0,0,0
20095,11061,17597,0,0,0
20043,11032,17522,0,0,0
19993,11004,17447,0,0,0
19947,10977,17371,0,0,0
19901,10948,17293,0,0,0
19856,10921,17217,0,0,0
19811,10895,17144,0,0,0
19770,10870,17070,0,0,0
19729,10844,16995,0,0,0
19683,10818,16918,0,0,0
19630,10792,16838,0,0,0
19571,10765,16758,0,0,0
19512,10736,16675,0,0,0
19456,10705,16593,0,0,0
19403,10674,16517,0,0,0
19357,10648,16449,0,0,0
19319,10628,16394,0,0,0
19297,10617,16366,0,0,0
19303,10623,16377,0,0,0
19344,10649,16439,0,0,0
19426,10700,16562,0,0,0
19556,10780,16752,0,0,0
19738,10890,17007,0,0,0
19967,11029,17327,0,0,0
20238,11193,17709,0,0,0
20545,11378,18147,0,0,0
20881,11578,18629,0,0,0
21236,11789,19144,0,0,0
21603,12006,19681,0,0,0
21976,12226,20232,0,0,0
22348,12447,20790,0,0,0
22714,12668,21345,0,0,0
23067,12883,21886,0,0,0
23403,13089,22405,0,0,0
23715,13283,22894,0,0,0
24002,13460,23347,0,0,0
24261,13617,23759,0,0,0
24491,13754,24129,0,0,0
24692,13873,24453,0,0,0
24863,13974,24728,0,0,0
25001,14055,24951,0,0,0
25105,14119,25125,0,0,0
25175,14164,25251,0,0,0
25215,14192,25330,0,0,0
25230,14201,25367,0,0,0
25222,14194,25369,0,0,0
25196,14178,25344,0,0,0
25158,14154,25297,0,0,0
25113,14124,25231,0,0,0
25058,14089,25149,0,0,0
24994,14048,25053,0,0,0
24925,14003,24951,0,0,0
24854,13958,24846,0,0,0
24782,13911,24738,0,0,0
24712,13864,24630,0,0,0
24642,13818,24525,0,0,0
24571,13773,24421,0,0,0
24505,13731,24319,0,0,0
24448,13692,24226,0,0,0
24401,13658,24142,0,0,0
24363,13631,24071,0,0,0
24333,13611,24016,0,0,0
24311,13599,23975,0,0,0
24295,13593,23945,0,0,0
24284,13589,23924,0,0,0
24278,13585,23910,0,0,0
24272,13582,23895,0,0,0
24266,13575,23878,0,0,0
24257,13564,23855,0,0,0
24248,13552,23830,0,0,0
24238,13541,23806,0,0,0
24227,13533,23785,0,0,0
24212,13525,23764,0,0,0
24195,13516,23739,0,0,0
24176,13509,23714,0,0,0
24157,13504,23691,0,0,0
24141,13500,23670,0,0,0
24132,13498,23653,0,0,0
24126,13499,23639,0,0,0
24124,13499,23629,0,0,0
24124,13500,23622,0,0,0
24124,13502,23616,0,0,0
24124,13504,23611,0,0,0
24128,13506,23610,0,0,0
24136,13506,23615,0,0,0
24146,13507,23624,0,0,0
24158,13508,23635,0,0,0
24171,13510,23646,0,0,0
24184,13513,23659,0,0,0
24195,13519,23675,0,0,0
24204,13526,23691,0,0,0
24211,13533,23704,0,0,0
24219,13540,23713,0,0,0
24228,13547,23722,0,0,0
24236,13555,23731,0,0,0
24241,13562,23736,0,0,0
24243,13567,23735,0,0,0
24238,13568,23727,0,0,0
24227,13563,23712,0,0,0
24210,13552,23686,0,0,0
24186,13534,23651,0,0,0
24153,13513,23609,0,0,0
24114,13489,23560,0,0,0
24074,13463,23503,0,0,0
24035,13438,23439,0,0,0
23994,13411,23368,0,0,0
23952,13380,23294,0,0,0
23907,13346,23214,0,0,0
23857,13308,23131,0,0,0
23799,13268,23044,0,0,0
23736,13227,22954,0,0,0
23671,13184,22860,0,0,0
23608,13141,22764,0,0,0
23548,13101,22668,0,0,0
23486,13061,22571,0,0,0
23418,13021,22470,0,0,0
23349,12980,22366,0,0,0
23280,12940,22260,0,0,0
23209,12901,22152,0,0,0
23136,12860,22042,0,0,0
23065,12819,21932,0,0,0
22995,12778,21824,0,0,0
22924,12737,21715,0,0,0
22852,12696,21608,0,0,0
22783,12656,21504,0,0,0
22715,12619,21400,0,0,0
22645,12580,21297,0,0,0
22576,12539,21193,0,0,0
22514,12500,21094,0,0,0
22459,12465,21001,0,0,0
22407,12430,20918,0,0,0
22359,12398,20842,0,0,0
22315,12372,20774,0,0,0
22274,12350,20710,0,0,0
22235,12326,20645,0,0,0
22199,12301,20579,0,0,0
22163,12278,20512,0,0,0
22129,12258,20443,0,0,0
22094,12238,20375,0,0,0
22061,12218,20311,0,0,0
22028,12200,20250,0,0,0
21994,12182,20190,0,0,0
21958,12164,20132,0,0,0
21921,12144,20076,0,0,0
21885,12124,20023,0,0,0
21852,12101,19969,0,0,0
21822,12078,19912,0,0,0
21793,12057,19855,0,0,0
21764,12039,19802,0,0,0
21734,12024,19753,0,0,0
21704,12009,19705,0,0,0
21673,11995,19658,0,0,0
21640,11979,19609,0,0,0
21609,11962,19560,0,0,0
21580,11943,19510,0,0,0
21550,11925,19461,0,0,0
21517,11907,19414,0,0,0
21483,11886,19369,0,0,0
21446,11865,19322,0,0,0
21408,11847,19271,0,0,0
21370,11829,19216,0,0,0
21335,11811,19161,0,0,0
21300,11790,19107,0,0,0
21261,11765,19051,0,0,0
21216,11738,18991,0,0,0
21170,11711,18928,0,0,0
21127,11687,18865,0,0,0
21089,11667,18806,0,0,0
21054,11647,18748,0,0,0
21019,11626,18689,0,0,0
20984,11601,18627,0,0,0
20947,11576,18563,0,0,0
20906,11552,18499,0,0,0
20862,11528,18435,0,0,0
20818,11505,18370,0,0,0
20776,11481,18306,0,0,0
20734,11456,18241,0,0,0
20688,11428,18172,0,0,0
20640,11397,18096,0,0,0
20586,11363,18013,0,0,0
20527,11328,17922,0,0,0
20468,11295,17830,0,0,0
20414,11266,17740,0,0,0
20363,11239,17657,0,0,0
20319,11214,17581,0,0,0
20283,11195,17515,0,0,0
20264,11185,17471,0,0,0
20271,11189,17463,0,0,0
20307,11212,17502,0,0,0
20380,11257,17599,0,0,0
20498,11332,17765,0,0,0
20660,11434,17999,0,0,0
20861,11559,18295,0,0,0
21103,11704,18650,0,0,0
21382,11866,19053,0,0,0
21687,12043,19495,0,0,0
22012,12235,19968,0,0,0
22349,12437,20462,0,0,0
22687,12645,20967,0,0,0
23022,12853,21474,0,0,0
23350,13056,21973,0,0,0
23668,13252,22456,0,0,0
23971,13438,22919,0,0,0
24252,13613,23353,0,0,0
24508,13773,23751,0,0,0
24736,13917,24111,0,0,0
24936,14044,24430,0,0,0
25106,14155,24705,0,0,0
25247,14246,24934,0,0,0
25363,14319,25119,0,0,0
25452,14373,25264,0,0,0
25511,14407,25368,0,0,0
25543,14425,25432,0,0,0
25554,14429,25457,0,0,0
25548,14420,25450,0,0,0
25526,14401,25418,0,0,0
25489,14373,25364,0,0,0
25442,14339,25291,0,0,0
25386,14300,25204,0,0,0
25322,14256,25107,0,0,0
25253,14211,25003,0,0,0
25181,14165,24893,0,0,0
25107,14118,24781,0,0,0
25035,14074,24672,0,0,0
24966,14031,24570,0,0,0
24904,13992,24475,0,0,0
24849,13956,24390,0,0,0
24797,13922,24310,0,0,0
24749,13890,24235,0,0,0
24706,13861,24168,0,0,0
24671,13838,24110,0,0,0
24644,13820,24063,0,0,0
24623,13806,24026,0,0,0
24609,13797,23999,0,0,0
24599,13791,23978,0,0,0
24588,13786,23960,0,0,0
24572,13780,23942,0,0,0
24553,13769,23921,0,0,0
24535,13757,23898,0,0,0
24520,13745,23873,0,0,0
24506,13733,23844,0,0,0
24491,13722,23815,0,0,0
24474,13713,23786,0,0,0
24457,13702,23756,0,0,0
24442,13692,23727,0,0,0
24430,13684,23700,0,0,0
24422,13677,23678,0,0,0
24418,13670,23662,0,0,0
24416,13665,23652,0,0,0
24418,13664,23650,0,0,0
24423,13667,23656,0,0,0
24430,13672,23666,0,0,0
24437,13678,23679,0,0,0
24446,13686,23694,0,0,0
24458,13695,23714,0,0,0
24474,13704,23736,0,0,0
24495,13710,23761,0,0,0
24517,13718,23788,0,0,0
24540,13729,23819,0,0,0
24562,13743,23851,0,0,0
24584,13757,23882,0,0,0
24604,13771,23910,0,0,0
24619,13786,23937,0,0,0
24631,13799,23959,0,0,0
24642,13810,23972,0,0,0
24650,13819,23977,0,0,0
24651,13824,23977,0,0,0
24641,13822,23967,0,0,0
24620,13814,23947,0,0,0
24591,13800,23916,0,0,0
24555,13780,23873,0,0,0
24515,13756,23819,0,0,0
24472,13728,23759,0,0,0
24429,13698,23697,0,0,0
24385,13663,23628,0,0,0
24337,13626,23554,0,0,0
24286,13589,23476,0,0,0
24234,13553,23394,0,0,0
24179,13516,23308,0,0,0
24119,13479,23216,0,0,0
24057,13442,23118,0,0,0
23997,13405,23019,0,0,0
23939,13369,22919,0,0,0
23881,13335,22822,0,0,0
23822,13300,22728,0,0,0
23763,13263,22636,0,0,0
23701,13225,22542,0,0,0
23636,13185,22447,0,0,0
23573,13145,22354,0,0,0
23515,13106,22265,0,0,0
23459,13069,22177,0,0,0
23405,13034,22092,0,0,0
23351,13000,22010,0,0,0
23293,12967,21930,0,0,0
23236,12934,21849,0,0,0
23183,12902,21771,0,0,0
23135,12872,21697,0,0,0
23089,12844,21625,0,0,0
23045,12816,21554,0,0,0
23002,12790,21484,0,0,0
22959,12763,21414,0,0,0
22917,12738,21345,0,0,0
22875,12716,21278,0,0,0
22838,12695,21213,0,0,0
22804,12676,21154,0,0,0
22772,12658,21098,0,0,0
22740,12639,21042,0,0,0
22707,12618,20983,0,0,0
22675,12598,20922,0,0,0
22642,12578,20863,0,0,0
22607,12556,20805,0,0,0
22573,12535,20752,0,0,0
22541,12520,20706,0,0,0
22510,12507,20665,0,0,0
22479,12493,20624,0,0,0
22452,12479,20583,0,0,0
22427,12466,20542,0,0,0
22400,12450,20501,0,0,0
22372,12430,20460,0,0,0
22343,12411,20420,0,0,0
22314,12394,20382,0,0,0
22289,12377,20341,0,0,0
22264,12363,20297,0,0,0
22238,12347,20257,0,0,0
22213,12331,20222,0,0,0
22187,12316,20187,0,0,0
22159,12303,20148,0,0,0
22131,12289,20107,0,0,0
22100,12273,20062,0,0,0
22065,12254,20013,0,0,0
22031,12231,19960,0,0,0
21998,12208,19904,0,0,0
21964,12183,19847,0,0,0
21931,12158,19790,0,0,0
21899,12133,19732,0,0,0
21865,12106,19670,0,0,0
21830,12081,19604,0,0,0
21791,12058,19537,0,0,0
21748,12036,19469,0,0,0
21702,12015,19401,0,0,0
21659,11993,19335,0,0,0
21622,11975,19273,0,0,0
21596,11964,19224,0,0,0
21583,11963,19194,0,0,0
21587,11973,19193,0,0,0
21615,11997,19234,0,0,0
21676,12040,19326,0,0,0
21776,12105,19473,0,0,0
21919,12194,19679,0,0,0
22104,12309,19943,0,0,0
22329,12449,20264,0,0,0
22591,12610,20641,0,0,0
22884,12788,21064,0,0,0
23198,12981,21523,0,0,0
23529,13186,22009,0,0,0
23870,13398,22513,0,0,0
24212,13613,23025,0,0,0
24547,13825,23535,0,0,0
24871,14030,24035,0,0,0
25183,14224,24518,0,0,0
25479,14409,24979,0,0,0
25756,14583,25412,0,0,0
26011,14742,25811,0,0,0
26239,14882,26170,0,0,0
26434,15003,26482,0,0,0
26595,15103,26743,0,0,0
26724,15183,26955,0,0,0
26824,15244,27122,0,0,0
26898,15287,27245,0,0,0
26945,15313,27327,0,0,0
26971,15325,27375,0,0,0
26980,15325,27396,0,0,0
26972,15315,27390,0,0,0
26949,15294,27359,0,0,0
26916,15265,27305,0,0,0
26873,15231,27232,0,0,0
26822,15190,27145,0,0,0
26765,15145,27051,0,0,0
26703,15102,26957,0,0,0
26637,15063,26867,0,0,0
26576,15029,26785,0,0,0
26524,15000,26713,0,0,0
26481,14978,26653,0,0,0
26447,14960,26604,0,0,0
26421,14942,26564,0,0,0
26398,14925,26531,0,0,0
26378,14912,26504,0,0,0
26365,14904,26485,0,0,0
26360,14898,26474,0,0,0
26363,14896,26474,0,0,0
26372,14900,26481,0,0,0
26382,14907,26491,0,0,0
26390,14915,26499,0,0,0
26393,14921,26505,0,0,0
26391,14924,26504,0,0,0
26380,14919,26494,0,0,0
26360,14906,26472,0,0,0
26337,14887,26441,0,0,0
26316,14867,26405,0,0,0
26296,14847,26368,0,0,0
26278,14830,26333,0,0,0
26261,14815,26300,0,0,0
26243,14801,26269,0,0,0
26224,14788,26241,0,0,0
26208,14779,26217,0,0,0
26196,14773,26200,0,0,0
26186,14768,26190,0,0,0
26182,14767,26186,0,0,0
26186,14770,26187,0,0,0
26195,14774,26194,0,0,0
26207,14781,26207,0,0,0
26220,14791,26225,0,0,0
26234,14804,26248,0,0,0
26250,14820,26274,0,0,0
26268,14838,26302,0,0,0
26287,14856,26331,0,0,0
26308,14873,26357,0,0,0
26329,14889,26382,0,0,0
26347,14902,26408,0,0,0
26361,14912,26430,0,0,0
26370,14916,26445,0,0,0
26374,14915,26454,0,0,0
26374,14911,26455,0,0,0
26371,14903,26450,0,0,0
26365,14893,26440,0,0,0
26356,14881,26424,0,0,0
26340,14866,26401,0,0,0
26313,14848,26367,0,0,0
26275,14826,26319,0,0,0
26225,14800,26259,0,0,0
26168,14770,26190,0,0,0
26112,14735,26113,0,0,0
26058,14699,26031,0,0,0
26005,14661,25947,0,0,0
25954,14624,25861,0,0,0
25903,14589,25771,0,0,0
25853,14555,25680,0,0,0
25799,14521,25590,0,0,0
25739,14484,25496,0,0,0
25678,14445,25398,0,0,0
25619,14406,25299,0,0,0
25559,14368,25201,0,0,0
25496,14329,25102,0,0,0
25429,14290,25001,0,0,0
25359,14250,24901,0,0,0
25288,14209,24804,0,0,0
25219,14167,24708,0,0,0
25154,14125,24613,0,0,0
25092,14083,24522,0,0,0
25033,14042,24433,0,0,0
24977,14004,24346,0,0,0
24926,13969,24261,0,0,0
24878,13935,24179,0,0,0
24831,13902,24096,0,0,0
24784,13870,24013,0,0,0
24737,13840,23932,0,0,0
24690,13813,23854,0,0,0
24645,13791,23781,0,0,0
24601,13771,23714,0,0,0
24558,13749,23649,0,0,0
24516,13726,23583,0,0,0
24475,13700,23517,0,0,0
24435,13673,23455,0,0,0
24396,13646,23393,0,0,0
24362,13621,23333,0,0,0
24331,13600,23274,0,0,0
24303,13579,23218,0,0,0
24276,13556,23164,0,0,0
24249,13535,23113,0,0,0
24220,13513,23063,0,0,0
24188,13492,23014,0,0,0
24154,13471,22964,0,0,0
24119,13453,22914,0,0,0
24085,13437,22864,0,0,0
24052,13424,22816,0,0,0
24020,13413,22773,0,0,0
23988,13400,22735,0,0,0
23957,13385,22696,0,0,0
23929,13367,22653,0,0,0
23903,13350,22608,0,0,0
23878,13334,22567,0,0,0
23851,13317,22525,0,0,0
23825,13300,22480,0,0,0
23798,13283,22431,0,0,0
23767,13264,22380,0,0,0
23733,13244,22328,0,0,0
23700,13223,22275,0,0,0
23669,13203,22222,0,0,0
23640,13183,22171,0,0,0
23612,13163,22122,0,0,0
23584,13143,22073,0,0,0
23554,13121,22023,0,0,0
23522,13100,21970,0,0,0
23486,13078,21913,0,0,0
23446,13053,21849,0,0,0
23403,13026,21781,0,0,0
23359,12997,21708,0,0,0
23312,12967,21634,0,0,0
23263,12940,21561,0,0,0
23212,12918,21490,0,0,0
23163,12897,21421,0,0,0
23122,12876,21361,0,0,0
23095,12862,21324,0,0,0
23094,12865,21325,0,0,0
23129,12890,21377,0,0,0
23207,12942,21488,0,0,0
23332,13027,21664,0,0,0
23505,13144,21908,0,0,0
23721,13289,22220,0,0,0
23975,13457,22594,0,0,0
24263,13644,23021,0,0,0
24580,13845,23496,0,0,0
24918,14059,24009,0,0,0
25272,14282,24547,0,0,0
25636,14514,25103,0,0,0
26004,14751,25670,0,0,0
26369,14988,26238,0,0,0
26724,15217,26790,0,0,0
27061,15432,27316,0,0,0
27377,15633,27811,0,0,0
27668,15817,28267,0,0,0
27932,15985,28681,0,0,0
28168,16135,29052,0,0,0
28372,16264,29373,0,0,0
28544,16373,29642,0,0,0
28680,16459,29857,0,0,0
28781,16524,30025,0,0,0
28852,16570,30147,0,0,0
28896,16598,30224,0,0,0
28916,16611,30264,0,0,0
28919,16613,30276,0,0,0
28910,16605,30268,0,0,0
28888,16588,30245,0,0,0
28857,16565,30208,0,0,0
28819,16537,30159,0,0,0
28775,16504,30100,0,0,0
28726,16469,30037,0,0,0
28676,16436,29973,0,0,0
28631,16408,29915,0,0,0
28597,16385,29865,0,0,0
28571,16366,29823,0,0,0
28550,16353,29792,0,0,0
28538,16343,29772,0,0,0
28534,16335,29760,0,0,0
28534,16330,29754,0,0,0
28536,16328,29754,0,0,0
28541,16331,29759,0,0,0
28551,16336,29770,0,0,0
28567,16346,29789,0,0,0
28590,16361,29816,0,0,0
28611,16379,29846,0,0,0
28628,16396,29876,0,0,0
28642,16410,29903,0,0,0
28652,16420,29924,0,0,0
28655,16425,29933,0,0,0
28649,16422,29927,0,0,0
28637,16412,29907,0,0,0
28621,16399,29879,0,0,0
28600,16385,29846,0,0,0
28577,16369,29807,0,0,0
28550,16349,29763,0,0,0
28522,16327,29718,0,0,0
28492,16306,29672,0,0,0
28459,16283,29627,0,0,0
28424,16261,29584,0,0,0
28393,16242,29545,0,0,0
28367,16227,29509,0,0,0
28341,16216,29479,0,0,0
28315,16208,29453,0,0,0
28293,16200,29432,0,0,0
28275,16192,29414,0,0,0
28261,16184,29398,0,0,0
28254,16176,29382,0,0,0
28253,16168,29373,0,0,0
28255,16162,29369,0,0,0
28256,16157,29368,0,0,0
28258,16152,29369,0,0,0
28259,16148,29369,0,0,0
28257,16144,29367,0,0,0
28252,16140,29364,0,0,0
28246,16138,29361,0,0,0
28239,16135,29355,0,0,0
28230,16134,29345,0,0,0
28214,16131,29327,0,0,0
28192,16122,29298,0,0,0
28165,16107,29256,0,0,0
28131,16085,29202,0,0,0
28091,16058,29139,0,0,0
28048,16028,29072,0,0,0
28003,16000,29001,0,0,0
27956,15969,28925,0,0,0
27906,15936,28841,0,0,0
27850,15899,28754,0,0,0
27792,15861,28666,0,0,0
27731,15819,28574,0,0,0
27668,15774,28477,0,0,0
27602,15727,28376,0,0,0
27533,15679,28272,0,0,0
27461,15630,28162,0,0,0
27388,15581,28051,0,0,0
27315,15532,27941,0,0,0
27242,15483,27831,0,0,0
27167,15435,27722,0,0,0
27091,15389,27616,0,0,0
27019,15347,27515,0,0,0
26950,15308,27414,0,0,0
26883,15267,27310,0,0,0
26815,15223,27204,0,0,0
26748,15180,27099,0,0,0
26681,15139,26997,0,0,0
26614,15097,26895,0,0,0
26549,15057,26797,0,0,0
26489,15021,26703,0,0,0
26430,14986,26614,0,0,0
26372,14952,26526,0,0,0
26316,14920,26443,0,0,0
26263,14887,26362,0,0,0
26212,14853,26283,0,0,0
26162,14818,26203,0,0,0
26111,14782,26123,0,0,0
26061,14747,26047,0,0,0
26012,14715,25972,0,0,0
25964,14685,25899,0,0,0
25915,14656,25829,0,0,0
25866,14628,25762,0,0,0
25817,14599,25693,0,0,0
25770,14572,25624,0,0,0
25726,14546,25558,0,0,0
25684,14524,25495,0,0,0
25646,14503,25436,0,0,0
25610,14480,25378,0,0,0
25572,14456,25321,0,0,0
25533,14431,25264,0,0,0
25495,14407,25207,0,0,0
25460,14383,25150,0,0,0
25429,14360,25093,0,0,0
25396,14335,25037,0,0,0
25361,14308,24984,0,0,0
25323,14282,24931,0,0,0
25283,14257,24878,0,0,0
25241,14231,24820,0,0,0
25197,14205,24756,0,0,0
25154,14175,24689,0,0,0
25111,14145,24624,0,0,0
25073,14116,24564,0,0,0
25036,14088,24504,0,0,0
24996,14060,24442,0,0,0
24951,14032,24375,0,0,0
24905,14005,24308,0,0,0
24861,13978,24240,0,0,0
24818,13949,24168,0,0,0
24773,13918,24095,0,0,0
24725,13887,24021,0,0,0
24674,13856,23944,0,0,0
24624,13824,23865,0,0,0
24576,13793,23786,0,0,0
24529,13761,23707,0,0,0
24479,13730,23630,0,0,0
24425,13697,23554,0,0,0
24365,13662,23477,0,0,0
24300,13628,23398,0,0,0
24233,13593,23314,0,0,0
24168,13558,23226,0,0,0
24107,13523,23138,0,0,0
24054,13493,23055,0,0,0
24007,13469,22982,0,0,0
23973,13453,22927,0,0,0
23958,13452,22903,0,0,0
23972,13468,22922,0,0,0
24027,13507,22994,0,0,0
24128,13570,23128,0,0,0
24278,13661,23333,0,0,0
24473,13783,23608,0,0,0
24709,13931,23951,0,0,0
24983,14102,24354,0,0,0
25291,14299,24810,0,0,0
25628,14518,25306,0,0,0
25986,14749,25832,0,0,0
26356,14986,26381,0,0,0
26733,15224,26946,0,0,0
27107,15463,27515,0,0,0
27473,15698,28077,0,0,0
27822,15926,28622,0,0,0
28148,16141,29140,0,0,0
28444,16338,29620,0,0,0
28710,16515,30052,0,0,0
28946,16673,30432,0,0,0
29148,16811,30762,0,0,0
29316,16927,31044,0,0,0
29450,17020,31275,0,0,0
29553,17091,31454,0,0,0
29624,17139,31583,0,0,0
29666,17167,31664,0,0,0
29683,17176,31706,0,0,0
29682,17171,31716,0,0,0
29666,17157,31700,0,0,0
29637,17137,31661,0,0,0
29598,17111,31602,0,0,0
29552,17081,31532,0,0,0
29502,17045,31456,0,0,0
29446,17006,31376,0,0,0
29391,16965,31293,0,0,0
29341,16925,31214,0,0,0
29297,16889,31139,0,0,0
29258,16855,31071,0,0,0
29226,16828,31013,0,0,0
29203,16807,30968,0,0,0
29185,16793,30935,0,0,0
29172,16785,30913,0,0,0
29167,16785,30904,0,0,0
29169,16791,30909,0,0,0
29179,16800,30927,0,0,0
29195,16811,30952,0,0,0
29212,16823,30979,0,0,0
29226,16835,31006,0,0,0
29234,16845,31031,0,0,0
29237,16850,31053,0,0,0
29240,16851,31064,0,0,0
29241,16849,31065,0,0,0
29236,16842,31055,0,0,0
29223,16830,31031,0,0,0
29206,16814,30997,0,0,0
29182,16794,30955,0,0,0
29149,16771,30908,0,0,0
29109,16745,30858,0,0,0
29067,16719,30806,0,0,0
29025,16691,30751,0,0,0
28985,16661,30694,0,0,0
28950,16633,30636,0,0,0
28918,16605,30584,0,0,0
28887,16578,30539,0,0,0
28858,16554,30497,0,0,0
28833,16535,30458,0,0,0
28813,16521,30425,0,0,0
28798,16514,30396,0,0,0
28783,16510,30373,0,0,0
28768,16505,30354,0,0,0
28752,16499,30337,0,0,0
28736,16492,30322,0,0,0
28723,16486,30307,0,0,0
28713,16482,30294,0,0,0
28705,16479,30281,0,0,0
28698,16477,30270,0,0,0
28689,16472,30256,0,0,0
28675,16463,30240,0,0,0
28658,16450,30221,0,0,0
28637,16434,30198,0,0,0
28614,16420,30170,0,0,0
28593,16407,30138,0,0,0
28569,16392,30102,0,0,0
28538,16374,30063,0,0,0
28500,16350,30017,0,0,0
28457,16321,29961,0,0,0
28411,16289,29897,0,0,0
28366,16255,29826,0,0,0
28318,16220,29746,0,0,0
28261,16183,29658,0,0,0
28195,16146,29562,0,0,0
28126,16108,29461,0,0,0
28056,16069,29355,0,0,0
27988,16029,29244,0,0,0
27918,15986,29131,0,0,0
27848,15938,29016,0,0,0
27777,15885,28896,0,0,0
27706,15832,28776,0,0,0
27633,15779,28661,0,0,0
27561,15725,28551,0,0,0
27491,15671,28441,0,0,0
27422,15619,28333,0,0,0
27356,15570,28227,0,0,0
27290,15523,28123,0,0,0
27223,15479,28021,0,0,0
27159,15438,27924,0,0,0
27094,15400,27831,0,0,0
27026,15361,27734,0,0,0
26954,15319,27631,0,0,0
26883,15277,27526,0,0,0
26817,15239,27425,0,0,0
26753,15202,27326,0,0,0
26691,15165,27229,0,0,0
26628,15127,27136,0,0,0
26566,15089,27048,0,0,0
26509,15053,26961,0,0,0
26454,15015,26873,0,0,0
26402,14978,26788,0,0,0
26350,14942,26708,0,0,0
26298,14908,26634,0,0,0
26246,14876,26565,0,0,0
26196,14847,26502,0,0,0
26148,14821,26441,0,0,0
26106,14798,26379,0,0,0
26070,14777,26317,0,0,0
26037,14756,26254,0,0,0
25999,14731,26188,0,0,0
25956,14700,26117,0,0,0
25909,14667,26042,0,0,0
25860,14635,25968,0,0,0
25811,14603,25895,0,0,0
25763,14570,25825,0,0,0
25714,14537,25755,0,0,0
25666,14507,25687,0,0,0
25620,14480,25621,0,0,0
25578,14458,25556,0,0,0
25540,14438,25492,0,0,0
25502,14417,25431,0,0,0
25463,14395,25370,0,0,0
25420,14369,25305,0,0,0
25371,14341,25233,0,0,0
25322,14315,25159,0,0,0
25276,14288,25086,0,0,0
25231,14260,25014,0,0,0
25189,14231,24944,0,0,0
25147,14200,24871,0,0,0
25104,14168,24795,0,0,0
25062,14135,24722,0,0,0
25021,14104,24655,0,0,0
24979,14074,24590,0,0,0
24936,14045,24523,0,0,0
24893,14015,24452,0,0,0
24847,13985,24377,0,0,0
24796,13953,24298,0,0,0
24741,13921,24216,0,0,0
24680,13887,24130,0,0,0
24617,13851,24040,0,0,0
24555,13811,23947,0,0,0
24493,13767,23850,0,0,0
24430,13721,23751,0,0,0
24370,13679,23657,0,0,0
24312,13643,23567,0,0,0
24253,13608,23476,0,0,0
24194,13572,23386,0,0,0
24133,13533,23294,0,0,0
24070,13492,23201,0,0,0
24006,13450,23106,0,0,0
23941,13409,23014,0,0,0
23877,13371,22924,0,0,0
23815,13336,22841,0,0,0
23765,13309,22772,0,0,0
23739,13297,22733,0,0,0
23747,13307,22738,0,0,0
23791,13342,22796,0,0,0
23875,13401,22914,0,0,0
24004,13490,23100,0,0,0
24177,13608,23355,0,0,0
24390,13753,23672,0,0,0
24641,13920,24044,0,0,0
24926,14106,24465,0,0,0
25237,14304,24925,0,0,0
25565,14510,25411,0,0,0
25901,14723,25910,0,0,0
26240,14939,26411,0,0,0
26577,15155,26907,0,0,0
26908,15363,27392,0,0,0
27223,15564,27861,0,0,0
27514,15754,28307,0,0,0
27779,15932,28723,0,0,0
28014,16090,29097,0,0,0
28220,16227,29425,0,0,0
28397,16344,29707,0,0,0
28544,16439,29942,0,0,0
28655,16510,30125,0,0,0
28736,16557,30259,0,0,0
28789,16584,30351,0,0,0
28817,16597,30407,0,0,0
28824,16597,30430,0,0,0
28813,16588,30425,0,0,0
28783,16569,30394,0,0,0
28742,16543,30346,0,0,0
28692,16509,30281,0,0,0
28636,16469,30204,0,0,0
28574,16425,30119,0,0,0
28510,16383,30029,0,0,0
28445,16341,29936,0,0,0
28382,16300,29845,0,0,0
28326,16263,29763,0,0,0
28279,16230,29690,0,0,0
28236,16200,29625,0,0,0
28198,16173,29571,0,0,0
28168,16152,29531,0,0,0
28147,16137,29503,0,0,0
28135,16129,29488,0,0,0
28129,16125,29482,0,0,0
28128,16126,29482,0,0,0
28130,16128,29487,0,0,0
28135,16131,29497,0,0,0
28140,16133,29508,0,0,0
28142,16135,29519,0,0,0
28143,16138,29530,0,0,0
28139,16139,29534,0,0,0
28128,16138,29529,0,0,0
28112,16133,29515,0,0,0
28092,16120,29493,0,0,0
28067,16104,29463,0,0,0
28042,16086,29428,0,0,0
28017,16066,29388,0,0,0
27987,16047,29344,0,0,0
27955,16028,29296,0,0,0
27923,16006,29246,0,0,0
27890,15987,29198,0,0,0
27861,15971,29152,0,0,0
27838,15956,29104,0,0,0
27820,15941,29057,0,0,0
27804,15927,29013,0,0,0
27788,15916,28977,0,0,0
27772,15907,28946,0,0,0
27758,15899,28920,0,0,0
27745,15891,28900,0,0,0
27734,15885,28888,0,0,0
27723,15883,28882,0,0,0
27716,15883,28879,0,0,0
27711,15881,28878,0,0,0
27709,15878,28879,0,0,0
27706,15877,28880,0,0,0
27703,15877,28880,0,0,0
27698,15873,28875,0,0,0
27692,15866,28867,0,0,0
27685,15857,28855,0,0,0
27676,15847,28838,0,0,0
27662,15834,28812,0,0,0
27642,15818,28777,0,0,0
27614,15799,28733,0,0,0
27579,15779,28683,0,0,0
27535,15757,28629,0,0,0
27484,15732,28566,0,0,0
27430,15705,28494,0,0,0
27376,15677,28417,0,0,0
27322,15648,28337,0,0,0
27267,15616,28252,0,0,0
27211,15580,28164,0,0,0
27156,15542,28075,0,0,0
27098,15500,27984,0,0,0
27031,15454,27888,0,0,0
26960,15406,27787,0,0,0
26887,15359,27686,0,0,0
26816,15311,27581,0,0,0
26745,15264,27473,0,0,0
26672,15216,27362,0,0,0
26598,15167,27252,0,0,0
26524,15116,27141,0,0,0
26453,15066,27031,0,0,0
26386,15020,26927,0,0,0
26324,14978,26827,0,0,0
26263,14938,26728,0,0,0
26203,14901,26631,0,0,0
26145,14864,26534,0,0,0
26089,14828,26438,0,0,0
26035,14790,26343,0,0,0
25983,14752,26251,0,0,0
25932,14713,26163,0,0,0
25882,14676,26077,0,0,0
25830,14640,25993,0,0,0
25776,14604,25912,0,0,0
25724,14569,25836,0,0,0
25678,14536,25764,0,0,0
25633,14506,25693,0,0,0
25591,14478,25622,0,0,0
25550,14450,25551,0,0,0
25506,14421,25479,0,0,0
25462,14392,25408,0,0,0
25420,14365,25339,0,0,0
25378,14339,25270,0,0,0
25333,14315,25199,0,0,0
25284,14290,25127,0,0,0
25236,14265,25056,0,0,0
25189,14239,24986,0,0,0
25145,14212,24918,0,0,0
25103,14184,24853,0,0,0
25065,14158,24789,0,0,0
25027,14131,24724,0,0,0
24987,14101,24657,0,0,0
24945,14071,24586,0,0,0
24902,14041,24516,0,0,0
24859,14013,24449,0,0,0
24815,13990,24386,0,0,0
24769,13967,24323,0,0,0
24723,13944,24254,0,0,0
24680,13921,24183,0,0,0
24640,13898,24116,0,0,0
24601,13876,24053,0,0,0
24562,13853,23990,0,0,0
24519,13827,23926,0,0,0
24474,13797,23858,0,0,0
24426,13763,23784,0,0,0
24378,13730,23705,0,0,0
24331,13701,23627,0,0,0
24284,13675,23553,0,0,0
24236,13649,23481,0,0,0
24188,13620,23408,0,0,0
24139,13590,23335,0,0,0
24090,13560,23262,0,0,0
24042,13531,23191,0,0,0
23993,13502,23121,0,0,0
23943,13474,23050,0,0,0
23892,13443,22973,0,0,0
23839,13410,22892,0,0,0
23789,13375,22812,0,0,0
23739,13341,22734,0,0,0
23686,13306,22656,0,0,0
23630,13272,22577,0,0,0
23572,13240,22498,0,0,0
23514,13208,22415,0,0,0
23456,13177,22327,0,0,0
23403,13145,22237,0,0,0
23353,13112,22148,0,0,0
23301,13079,22060,0,0,0
23246,13046,21969,0,0,0
23189,13011,21877,0,0,0
23132,12979,21790,0,0,0
23079,12951,21711,0,0,0
23038,12929,21650,0,0,0
23016,12920,21620,0,0,0
23019,12928,21632,0,0,0
23058,12956,21692,0,0,0
23137,13008,21805,0,0,0
23260,13088,21980,0,0,0
23427,13195,22217,0,0,0
23633,13328,22510,0,0,0
23873,13482,22853,0,0,0
24141,13653,23236,0,0,0
24430,13838,23651,0,0,0
24734,14033,24090,0,0,0
25046,14232,24545,0,0,0
25359,14431,25009,0,0,0
25672,14628,25473,0,0,0
25978,14822,25930,0,0,0
26275,15009,26373,0,0,0
26558,15186,26794,0,0,0
26819,15349,27189,0,0,0
27052,15493,27549,0,0,0
27254,15617,27867,0,0,0
27426,15723,28142,0,0,0
27568,15812,28375,0,0,0
27678,15882,28565,0,0,0
27757,15936,28713,0,0,0
27811,15975,28822,0,0,0
27841,15997,28891,0,0,0
27847,16003,28922,0,0,0
27836,15998,28922,0,0,0
27810,15981,28897,0,0,0
27769,15952,28849,0,0,0
27717,15912,28784,0,0,0
27661,15867,28708,0,0,0
27600,15821,28626,0,0,0
27536,15777,28542,0,0,0
27473,15735,28458,0,0,0
27414,15695,28376,0,0,0
27360,15659,28302,0,0,0
27312,15628,28236,0,0,0
27270,15603,28178,0,0,0
27238,15587,28130,0,0,0
27215,15576,28094,0,0,0
27197,15569,28068,0,0,0
27185,15563,28050,0,0,0
27180,15559,28038,0,0,0
27181,15559,28034,0,0,0
27189,15564,28039,0,0,0
27202,15571,28049,0,0,0
27218,15578,28060,0,0,0
27230,15585,28071,0,0,0
27237,15589,28080,0,0,0
27240,15592,28085,0,0,0
27239,15594,28084,0,0,0
27233,15593,28075,0,0,0
27219,15585,28057,0,0,0
27196,15570,28031,0,0,0
27170,15552,28000,0,0,0
27141,15534,27966,0,0,0
27113,15517,27932,0,0,0
27084,15500,27897,0,0,0
27053,15484,27863,0,0,0
27023,15468,27832,0,0,0
27000,15454,27803,0,0,0
26983,15440,27774,0,0,0
26970,15429,27749,0,0,0
26961,15424,27729,0,0,0
26951,15419,27711,0,0,0
26942,15413,27694,0,0,0
26939,15407,27680,0,0,0
26939,15401,27669,0,0,0
26937,15393,27657,0,0,0
26936,15386,27647,0,0,0
26936,15381,27640,0,0,0
26935,15377,27634,0,0,0
26934,15374,27628,0,0,0
26935,15373,27622,0,0,0
26937,15373,27617,0,0,0
26937,15373,27611,0,0,0
26933,15371,27600,0,0,0
26924,15368,27585,0,0,0
26909,15362,27565,0,0,0
26887,15351,27537,0,0,0
26858,15335,27499,0,0,0
26826,15314,27452,0,0,0
26788,15291,27398,0,0,0
26744,15264,27339,0,0,0
26696,15232,27274,0,0,0
26643,15198,27206,0,0,0
26586,15162,27138,0,0,0
26528,15123,27064,0,0,0
26468,15084,26984,0,0,0
26408,15048,26901,0,0,0
26346,15013,26815,0,0,0
26283,14978,26725,0,0,0
26218,14942,26627,0,0,0
26156,14904,26527,0,0,0
26096,14865,26430,0,0,0
26034,14825,26332,0,0,0
25966,14785,26230,0,0,0
25893,14743,26126,0,0,0
25818,14700,26022,0,0,0
25743,14656,25917,0,0,0
25672,14610,25814,0,0,0
25603,14561,25714,0,0,0
25534,14512,25616,0,0,0
25467,14461,25519,0,0,0
25405,14412,25424,0,0,0
25350,14369,25331,0,0,0
25298,14329,25238,0,0,0
25244,14292,25146,0,0,0
25190,14259,25059,0,0,0
25137,14227,24975,0,0,0
25082,14193,24891,0,0,0
25027,14156,24807,0,0,0
24975,14120,24725,0,0,0
24925,14085,24646,0,0,0
24875,14054,24568,0,0,0
24821,14025,24490,0,0,0
24768,13998,24410,0,0,0
24720,13974,24335,0,0,0
24679,13951,24264,0,0,0
24639,13927,24196,0,0,0
24599,13902,24129,0,0,0
24558,13877,24062,0,0,0
24519,13854,23998,0,0,0
24481,13830,23935,0,0,0
24442,13806,23872,0,0,0
24404,13785,23808,0,0,0
24369,13764,23745,0,0,0
24334,13742,23688,0,0,0
24298,13720,23635,0,0,0
24259,13698,23582,0,0,0
24217,13671,23526,0,0,0
24175,13638,23463,0,0,0
24132,13605,23397,0,0,0
24092,13575,23329,0,0,0
24053,13549,23260,0,0,0
24015,13523,23191,0,0,0
23975,13498,23122,0,0,0
23935,13474,23055,0,0,0
23895,13452,22992,0,0,0
23857,13432,22938,0,0,0
23821,13414,22889,0,0,0
23785,13394,22837,0,0,0
23744,13368,22780,0,0,0
23698,13339,22716,0,0,0
23653,13310,22648,0,0,0
23610,13283,22577,0,0,0
23564,13257,22503,0,0,0
23516,13230,22430,0,0,0
23468,13202,22361,0,0,0
23423,13175,22293,0,0,0
23380,13149,22227,0,0,0
23338,13123,22164,0,0,0
23297,13098,22101,0,0,0
23252,13074,22037,0,0,0
23203,13049,21969,0,0,0
23154,13020,21898,0,0,0
23106,12989,21826,0,0,0
23060,12958,21754,0,0,0
23015,12930,21680,0,0,0
22971,12904,21608,0,0,0
22926,12878,21536,0,0,0
22878,12850,21460,0,0,0
22829,12821,21388,0,0,0
22783,12794,21319,0,0,0
22737,12767,21250,0,0,0
22688,12740,21177,0,0,0
22635,12710,21100,0,0,0
22580,12679,21022,0,0,0
22523,12648,20944,0,0,0
22467,12616,20864,0,0,0
22412,12583,20781,0,0,0
22360,12552,20704,0,0,0
22320,12528,20642,0,0,0
22298,12518,20605,0,0,0
22307,12527,20610,0,0,0
22354,12557,20666,0,0,0
22445,12615,20782,0,0,0
22579,12701,20960,0,0,0
22755,12815,21203,0,0,0
22973,12956,21510,0,0,0
23229,13120,21873,0,0,0
23513,13301,22282,0,0,0
23818,13493,22727,0,0,0
24140,13694,23198,0,0,0
24471,13899,23689,0,0,0
24805,14106,24192,0,0,0
25136,14312,24697,0,0,0
25460,14515,25195,0,0,0
25769,14709,25676,0,0,0
26059,14892,26132,0,0,0
26329,15061,26556,0,0,0
26577,15217,26941,0,0,0
26799,15356,27283,0,0,0
26992,15474,27578,0,0,0
27154,15572,27827,0,0,0
27281,15649,28031,0,0,0
27374,15708,28191,0,0,0
27437,15749,28309,0,0,0
27475,15775,28386,0,0,0
27492,15788,28426,0,0,0
27488,15786,28435,0,0,0
27465,15768,28416,0,0,0
27428,15737,28375,0,0,0
27381,15698,28316,0,0,0
27326,15655,28240,0,0,0
27266,15611,28152,0,0,0
27205,15569,28059,0,0,0
27145,15527,27967,0,0,0
27086,15485,27878,0,0,0
27028,15446,27793,0,0,0
26974,15410,27715,0,0,0
26923,15379,27646,0,0,0
26878,15350,27590,0,0,0
26844,15327,27546,0,0,0
26822,15313,27517,0,0,0
26808,15307,27500,0,0,0
26795,15304,27491,0,0,0
26782,15304,27486,0,0,0
26774,15304,27483,0,0,0
26776,15309,27485,0,0,0
26785,15319,27491,0,0,0
26795,15327,27498,0,0,0
26802,15332,27504,0,0,0
26805,15333,27507,0,0,0
26800,15329,27503,0,0,0
26789,15322,27491,0,0,0
26772,15313,27471,0,0,0
26752,15302,27443,0,0,0
26727,15287,27412,0,0,0
26700,15272,27381,0,0,0
26675,15256,27352,0,0,0
26653,15240,27324,0,0,0
26631,15225,27298,0,0,0
26611,15212,27275,0,0,0
26594,15201,27252,0,0,0
26577,15190,27227,0,0,0
26561,15180,27203,0,0,0
26547,15174,27183,0,0,0
26541,15171,27171,0,0,0
26540,15173,27166,0,0,0
26538,15174,27163,0,0,0
26536,15174,27162,0,0,0
26536,15174,27164,0,0,0
26537,15175,27166,0,0,0
26538,15177,27165,0,0,0
26540,15180,27160,0,0,0
26543,15182,27154,0,0,0
26542,15181,27147,0,0,0
26535,15178,27136,0,0,0
26524,15171,27119,0,0,0
26513,15162,27099,0,0,0
26500,15153,27079,0,0,0
26484,15144,27058,0,0,0
26466,15133,27034,0,0,0
26444,15118,27006,0,0,0
26419,15100,26971,0,0,0
26392,15078,26928,0,0,0
26362,15052,26877,0,0,0
26327,15025,26821,0,0,0
26284,14998,26760,0,0,0
26237,14967,26693,0,0,0
26186,14935,26618,0,0,0
26131,14902,26535,0,0,0
26074,14866,26447,0,0,0
26012,14826,26355,0,0,0
25948,14786,26262,0,0,0
25884,14748,26165,0,0,0
25816,14709,26067,0,0,0
25745,14669,25967,0,0,0
25676,14630,25864,0,0,0
25606,14589,25761,0,0,0
25537,14548,25661,0,0,0
25471,14506,25562,0,0,0
25404,14465,25463,0,0,0
25337,14423,25363,0,0,0
25270,14381,25262,0,0,0
25200,14340,25160,0,0,0
25131,14301,25059,0,0,0
25067,14263,24960,0,0,0
25004,14224,24863,0,0,0
24940,14185,24766,0,0,0
24878,14145,24672,0,0,0
24818,14104,24578,0,0,0
24758,14062,24483,0,0,0
24701,14022,24388,0,0,0
24651,13986,24301,0,0,0
24608,13954,24218,0,0,0
24568,13924,24138,0,0,0
24526,13897,24064,0,0,0
24480,13871,23995,0,0,0
24434,13844,23928,0,0,0
24390,13818,23863,0,0,0
24346,13792,23800,0,0,0
24303,13766,23737,0,0,0
24261,13738,23675,0,0,0
24219,13709,23613,0,0,0
24180,13680,23551,0,0,0
24142,13651,23490,0,0,0
24103,13626,23432,0,0,0
24065,13605,23372,0,0,0
24027,13586,23312,0,0,0
23986,13568,23254,0,0,0
23944,13548,23199,0,0,0
23903,13524,23141,0,0,0
23866,13501,23083,0,0,0
23831,13478,23023,0,0,0
23796,13454,22966,0,0,0
23758,13430,22911,0,0,0
23714,13404,22853,0,0,0
23667,13377,22791,0,0,0
23619,13349,22726,0,0,0
23574,13318,22659,0,0,0
23532,13288,22592,0,0,0
23491,13259,22525,0,0,0
23450,13232,22459,0,0,0
23409,13206,22394,0,0,0
23368,13181,22329,0,0,0
23325,13155,22263,0,0,0
23280,13126,22196,0,0,0
23234,13095,22128,0,0,0
23189,13063,22059,0,0,0
23144,13033,21989,0,0,0
23101,13005,21918,0,0,0
23057,12980,21847,0,0,0
23012,12957,21775,0,0,0
22965,12932,21701,0,0,0
22917,12903,21623,0,0,0
22868,12873,21545,0,0,0
22820,12846,21470,0,0,0
22771,12821,21398,0,0,0
22722,12796,21328,0,0,0
22673,12769,21259,0,0,0
22625,12738,21190,0,0,0
22582,12707,21122,0,0,0
22540,12676,21053,0,0,0
22500,12647,20985,0,0,0
22458,12618,20915,0,0,0
22411,12586,20841,0,0,0
22357,12551,20760,0,0,0
22299,12516,20675,0,0,0
22240,12482,20589,0,0,0
22181,12449,20503,0,0,0
22123,12417,20419,0,0,0
22066,12385,20337,0,0,0
22012,12355,20263,0,0,0
21968,12329,20202,0,0,0
21942,12314,20165,0,0,0
21951,12318,20170,0,0,0
22000,12350,20227,0,0,0
22091,12409,20346,0,0,0
22224,12495,20532,0,0,0
22402,12608,20788,0,0,0
22625,12748,21109,0,0,0
22885,12910,21486,0,0,0
23176,13093,21912,0,0,0
23493,13291,22376,0,0,0
23831,13497,22865,0,0,0
24181,13711,23371,0,0,0
24538,13930,23890,0,0,0
24893,14150,24413,0,0,0
25236,14364,24930,0,0,0
25563,14567,25428,0,0,0
25868,14759,25899,0,0,0
26148,14936,26334,0,0,0
26398,15098,26730,0,0,0
26617,15240,27082,0,0,0
26804,15363,27391,0,0,0
26959,15465,27653,0,0,0
27084,15547,27866,0,0,0
27177,15608,28031,0,0,0
27240,15648,28152,0,0,0
27276,15668,28230,0,0,0
27287,15672,28270,0,0,0
27276,15662,28276,0,0,0
27247,15640,28252,0,0,0
27205,15606,28201,0,0,0
27152,15563,28123,0,0,0
27089,15515,28028,0,0,0
27023,15462,27924,0,0,0
26953,15410,27818,0,0,0
26880,15362,27714,0,0,0
26808,15318,27616,0,0,0
26739,15277,27522,0,0,0
26673,15238,27433,0,0,0
26611,15195,27349,0,0,0
26557,15153,27271,0,0,0
26514,15118,27206,0,0,0
26479,15091,27150,0,0,0
26451,15072,27103,0,0,0
26431,15057,27066,0,0,0
26414,15047,27036,0,0,0
26397,15040,27015,0,0,0
26382,15036,27001,0,0,0
26371,15034,26990,0,0,0
26367,15035,26984,0,0,0
26368,15037,26979,0,0,0
26366,15038,26974,0,0,0
26358,15036,26964,0,0,0
26342,15029,26946,0,0,0
26316,15018,26917,0,0,0
26289,15002,26882,0,0,0
26265,14985,26844,0,0,0
26244,14969,26807,0,0,0
26222,14956,26772,0,0,0
26195,14942,26738,0,0,0
26170,14929,26705,0,0,0
26145,14917,26675,0,0,0
26122,14904,26644,0,0,0
26101,14891,26613,0,0,0
26086,14879,26587,0,0,0
26074,14866,26567,0,0,0
26061,14856,26551,0,0,0
26047,14849,26541,0,0,0
26033,14844,26536,0,0,0
26024,14840,26532,0,0,0
26021,14838,26525,0,0,0
26021,14837,26517,0,0,0
26022,14838,26514,0,0,0
26023,14838,26513,0,0,0
26023,14838,26511,0,0,0
26019,14839,26507,0,0,0
26013,14840,26503,0,0,0
26004,14838,26496,0,0,0
25992,14833,26484,0,0,0
25980,14826,26470,0,0,0
25967,14818,26455,0,0,0
25952,14809,26438,0,0,0
25934,14798,26413,0,0,0
25911,14781,26378,0,0,0
25882,14760,26333,0,0,0
25849,14737,26281,0,0,0
25813,14712,26220,0,0,0
25774,14686,26150,0,0,0
25731,14659,26077,0,0,0
25682,14629,25997,0,0,0
25625,14593,25911,0,0,0
25559,14551,25816,0,0,0
25490,14505,25716,0,0,0
25423,14460,25612,0,0,0
25357,14416,25507,0,0,0
25292,14375,25401,0,0,0
25225,14335,25294,0,0,0
25157,14294,25188,0,0,0
25086,14250,25083,0,0,0
25013,14206,24979,0,0,0
24940,14161,24875,0,0,0
24868,14116,24769,0,0,0
24798,14070,24661,0,0,0
24731,14026,24552,0,0,0
24666,13982,24442,0,0,0
24600,13936,24330,0,0,0
24529,13890,24217,0,0,0
24454,13846,24103,0,0,0
24378,13802,23990,0,0,0
24304,13759,23881,0,0,0
24235,13718,23777,0,0,0
24170,13679,23676,0,0,0
24108,13640,23577,0,0,0
24044,13600,23480,0,0,0
23979,13558,23384,0,0,0
23915,13516,23292,0,0,0
23854,13476,23206,0,0,0
23798,13438,23122,0,0,0
23746,13405,23042,0,0,0
23698,13374,22964,0,0,0
23650,13344,22886,0,0,0
23603,13312,22806,0,0,0
23555,13279,22724,0,0,0
23508,13249,22642,0,0,0
23461,13222,22562,0,0,0
23414,13197,22485,0,0,0
23368,13171,22415,0,0,0
23324,13145,22353,0,0,0
23282,13119,22293,0,0,0
23241,13091,22229,0,0,0
23202,13063,22164,0,0,0
23164,13038,22102,0,0,0
23126,13015,22043,0,0,0
23087,12992,21980,0,0,0
23047,12968,21913,0,0,0
23003,12942,21847,0,0,0
22954,12912,21781,0,0,0
22906,12880,21714,0,0,0
22861,12845,21647,0,0,0
22816,12816,21584,0,0,0
22771,12793,21525,0,0,0
22727,12771,21465,0,0,0
22684,12748,21404,0,0,0
22642,12726,21341,0,0,0
22599,12703,21273,0,0,0
22556,12679,21199,0,0,0
22515,12656,21124,0,0,0
22475,12632,21053,0,0,0
22434,12607,20984,0,0,0
22393,12580,20916,0,0,0
22352,12552,20851,0,0,0
22310,12523,20784,0,0,0
22265,12493,20714,0,0,0
22220,12461,20641,0,0,0
22174,12429,20567,0,0,0
22126,12398,20497,0,0,0
22075,12368,20429,0,0,0
22019,12337,20359,0,0,0
21963,12306,20286,0,0,0
21907,12274,20214,0,0,0
21852,12241,20143,0,0,0
21799,12209,20070,0,0,0
21751,12180,19996,0,0,0
21702,12154,19919,0,0,0
21648,12127,19837,0,0,0
21588,12096,19751,0,0,0
21528,12063,19662,0,0,0
21471,12029,19573,0,0,0
21414,11997,19483,0,0,0
21355,11965,19392,0,0,0
21294,11932,19301,0,0,0
21233,11899,19210,0,0,0
21172,11867,19120,0,0,0
21114,11836,19031,0,0,0
21062,11806,18946,0,0,0
21013,11778,18869,0,0,0
20964,11751,18799,0,0,0
20924,11730,18745,0,0,0
20908,11721,18721,0,0,0
20925,11730,18738,0,0,0
20982,11763,18811,0,0,0
21087,11823,18949,0,0,0
21239,11916,19158,0,0,0
21436,12040,19437,0,0,0
21675,12191,19778,0,0,0
21950,12363,20175,0,0,0
22258,12554,20619,0,0,0
22593,12759,21101,0,0,0
22945,12974,21612,0,0,0
23309,13195,22140,0,0,0
23674,13421,22676,0,0,0
24033,13646,23211,0,0,0
24383,13863,23735,0,0,0
24720,14070,24243,0,0,0
25038,14264,24728,0,0,0
25328,14440,25181,0,0,0
25585,14596,25593,0,0,0
25810,14732,25955,0,0,0
26005,14849,26266,0,0,0
26167,14950,26527,0,0,0
26294,15032,26740,0,0,0
26388,15094,26909,0,0,0
26452,15139,27035,0,0,0
26486,15165,27117,0,0,0
26493,15170,27158,0,0,0
26479,15161,27166,0,0,0
26450,15140,27147,0,0,0
26407,15110,27103,0,0,0
26351,15069,27035,0,0,0
26282,15022,26946,0,0,0
26205,14971,26843,0,0,0
26120,14919,26731,0,0,0
26032,14866,26613,0,0,0
25943,14811,26491,0,0,0
25855,14757,26370,0,0,0
25767,14704,26251,0,0,0
25684,14654,26136,0,0,0
25610,14609,26031,0,0,0
25547,14571,25937,0,0,0
25493,14538,25851,0,0,0
25448,14509,25775,0,0,0
25412,14483,25711,0,0,0
25383,14464,25658,0,0,0
25360,14448,25614,0,0,0
25347,14437,25578,0,0,0
25340,14430,25551,0,0,0
25333,14425,25530,0,0,0
25324,14421,25512,0,0,0
25314,14417,25494,0,0,0
25300,14411,25474,0,0,0
25283,14404,25451,0,0,0
25261,14396,25426,0,0,0
25236,14383,25396,0,0,0
25210,14366,25362,0,0,0
25187,14348,25327,0,0,0
25166,14331,25294,0,0,0
25150,14318,25266,0,0,0
25137,14308,25243,0,0,0
25126,14301,25222,0,0,0
25114,14296,25204,0,0,0
25103,14291,25191,0,0,0
25095,14288,25184,0,0,0
25094,14287,25182,0,0,0
25095,14287,25183,0,0,0
25097,14288,25187,0,0,0
25102,14291,25195,0,0,0
25111,14297,25208,0,0,0
25124,14306,25224,0,0,0
25138,14319,25242,0,0,0
25152,14331,25257,0,0,0
25165,14340,25270,0,0,0
25179,14348,25281,0,0,0
25194,14355,25292,0,0,0
25208,14364,25306,0,0,0
25218,14373,25319,0,0,0
25224,14379,25328,0,0,0
25224,14383,25330,0,0,0
25219,14381,25321,0,0,0
25208,14374,25299,0,0,0
25191,14362,25267,0,0,0
25164,14346,25225,0,0,0
25127,14325,25172,0,0,0
25083,14300,25111,0,0,0
25035,14269,25043,0,0,0
24986,14235,24972,0,0,0
24936,14198,24896,0,0,0
24884,14159,24815,0,0,0
24829,14119,24730,0,0,0
24768,14079,24639,0,0,0
24701,14038,24543,0,0,0
24630,13996,24441,0,0,0
24556,13953,24333,0,0,0
24479,13906,24221,0,0,0
24402,13859,24106,0,0,0
24325,13815,23990,0,0,0
24252,13772,23876,0,0,0
24181,13729,23764,0,0,0
24110,13687,23655,0,0,0
24039,13645,23547,0,0,0
23967,13599,23440,0,0,0
23897,13552,23335,0,0,0
23825,13504,23227,0,0,0
23751,13456,23112,0,0,0
23674,13408,22996,0,0,0
23593,13359,22881,0,0,0
23513,13310,22769,0,0,0
23436,13263,22659,0,0,0
23365,13218,22551,0,0,0
23298,13176,22449,0,0,0
23234,13138,22354,0,0,0
23172,13103,22264,0,0,0
23114,13070,22178,0,0,0
23058,13038,22095,0,0,0
23006,13008,22014,0,0,0
22959,12983,21936,0,0,0
22918,12963,21863,0,0,0
22877,12943,21793,0,0,0
22832,12918,21723,0,0,0
22784,12890,21653,0,0,0
22741,12863,21584,0,0,0
22704,12840,21520,0,0,0
22670,12821,21458,0,0,0
22636,12804,21402,0,0,0
22601,12785,21348,0,0,0
22567,12765,21293,0,0,0
22533,12744,21235,0,0,0
22498,12721,21173,0,0,0
22465,12694,21113,0,0,0
22433,12668,21056,0,0,0
22397,12642,20996,0,0,0
22358,12615,20936,0,0,0
22318,12589,20878,0,0,0
22280,12564,20824,0,0,0
22245,12542,20773,0,0,0
22214,12521,20721,0,0,0
22182,12502,20669,0,0,0
22148,12485,20620,0,0,0
22112,12470,20572,0,0,0
22076,12456,20526,0,0,0
22042,12443,20480,0,0,0
22008,12427,20431,0,0,0
21973,12410,20382,0,0,0
21938,12393,20332,0,0,0
21901,12373,20281,0,0,0
21863,12352,20228,0,0,0
21824,12328,20173,0,0,0
21786,12301,20113,0,0,0
21750,12273,20050,0,0,0
21712,12247,19986,0,0,0
21672,12224,19924,0,0,0
21633,12203,19865,0,0,0
21591,12181,19804,0,0,0
21544,12155,19736,0,0,0
21496,12124,19663,0,0,0
21450,12089,19589,0,0,0
21405,12054,19509,0,0,0
21357,12019,19429,0,0,0
21303,11984,19348,0,0,0
21243,11950,19265,0,0,0
21183,11917,19178,0,0,0
21127,11886,19095,0,0,0
21084,11862,19022,0,0,0
21057,11847,18970,0,0,0
21051,11847,18953,0,0,0
21075,11866,18977,0,0,0
21136,11909,19053,0,0,0
21243,11980,19194,0,0,0
21399,12079,19402,0,0,0
21599,12204,19675,0,0,0
21837,12354,20010,0,0,0
22109,12525,20402,0,0,0
22409,12712,20840,0,0,0
22732,12912,21311,0,0,0
23072,13120,21805,0,0,0
23419,13332,22313,0,0,0
23767,13544,22822,0,0,0
24109,13751,23323,0,0,0
24437,13949,23810,0,0,0
24746,14137,24279,0,0,0
25032,14312,24720,0,0,0
25291,14472,25126,0,0,0
25525,14616,25493,0,0,0
25730,14744,25821,0,0,0
25904,14855,26102,0,0,0
26047,14946,26332,0,0,0
26162,15016,26513,0,0,0
26248,15068,26647,0,0,0
26304,15102,26737,0,0,0
26331,15118,26788,0,0,0
26331,15120,26805,0,0,0
26310,15108,26788,0,0,0
26272,15081,26742,0,0,0
26216,15043,26674,0,0,0
26147,14997,26585,0,0,0
26068,14947,26482,0,0,0
25984,14895,26369,0,0,0
25898,14841,26251,0,0,0
25813,14786,26128,0,0,0
25734,14735,26007,0,0,0
25658,14688,25892,0,0,0
25585,14642,25782,0,0,0
25516,14598,25680,0,0,0
25452,14559,25590,0,0,0
25393,14522,25509,0,0,0
25342,14489,25435,0,0,0
25302,14463,25372,0,0,0
25272,14443,25317,0,0,0
25245,14425,25270,0,0,0
25219,14409,25228,0,0,0
25194,14392,25189,0,0,0
25170,14375,25152,0,0,0
25148,14358,25118,0,0,0
25128,14342,25084,0,0,0
25108,14327,25053,0,0,0
25087,14313,25024,0,0,0
25063,14300,24992,0,0,0
25037,14287,24957,0,0,0
25015,14277,24922,0,0,0
25000,14268,24892,0,0,0
24986,14257,24864,0,0,0
24971,14248,24835,0,0,0
24956,14240,24806,0,0,0
24941,14235,24783,0,0,0
24932,14231,24764,0,0,0
24931,14229,24753,0,0,0
24934,14228,24750,0,0,0
24937,14226,24754,0,0,0
24943,14224,24762,0,0,0
24953,14222,24774,0,0,0
24968,14226,24791,0,0,0
24987,14236,24812,0,0,0
25005,14248,24837,0,0,0
25023,14262,24865,0,0,0
25040,14278,24894,0,0,0
25058,14293,24924,0,0,0
25076,14306,24953,0,0,0
25093,14318,24980,0,0,0
25106,14328,25004,0,0,0
25115,14336,25024,0,0,0
25121,14341,25038,0,0,0
25126,14346,25050,0,0,0
25128,14351,25058,0,0,0
25122,14350,25056,0,0,0
25109,14345,25042,0,0,0
25091,14337,25016,0,0,0
25067,14326,24978,0,0,0
25039,14311,24931,0,0,0
25005,14291,24876,0,0,0
24965,14266,24813,0,0,0
24919,14236,24744,0,0,0
24867,14203,24667,0,0,0
24810,14167,24582,0,0,0
24748,14129,24492,0,0,0
24685,14089,24397,0,0,0
24619,14049,24300,0,0,0
24553,14009,24199,0,0,0
24485,13969,24093,0,0,0
24414,13925,23985,0,0,0
24342,13878,23877,0,0,0
24273,13831,23771,0,0,0
24204,13787,23664,0,0,0
24133,13744,23557,0,0,0
24061,13701,23450,0,0,0
23988,13655,23343,0,0,0
23918,13608,23238,0,0,0
23850,13562,23135,0,0,0
23783,13517,23035,0,0,0
23721,13474,22939,0,0,0
23659,13432,22842,0,0,0
23594,13391,22742,0,0,0
23529,13350,22643,0,0,0
23467,13310,22549,0,0,0
23410,13273,22460,0,0,0
23358,13239,22376,0,0,0
23308,13207,22295,0,0,0
23259,13179,22219,0,0,0
23211,13149,22146,0,0,0
23163,13118,22073,0,0,0
23114,13087,22000,0,0,0
23069,13058,21929,0,0,0
23028,13031,21862,0,0,0
22987,13007,21797,0,0,0
22947,12985,21734,0,0,0
22910,12966,21673,0,0,0
22876,12948,21614,0,0,0
22846,12930,21558,0,0,0
22820,12914,21503,0,0,0
22791,12897,21449,0,0,0
22760,12879,21395,0,0,0
22729,12863,21342,0,0,0
22699,12846,21290,0,0,0
22668,12827,21241,0,0,0
22637,12806,21193,0,0,0
22607,12783,21144,0,0,0
22580,12761,21095,0,0,0
22552,12741,21048,0,0,0
22523,12724,21002,0,0,0
22495,12707,20958,0,0,0
22468,12691,20917,0,0,0
22441,12675,20878,0,0,0
22411,12661,20837,0,0,0
22377,12644,20790,0,0,0
22342,12625,20738,0,0,0
22308,12603,20683,0,0,0
22274,12580,20628,0,0,0
22240,12557,20575,0,0,0
22203,12534,20519,0,0,0
22165,12513,20461,0,0,0
22128,12493,20400,0,0,0
22096,12472,20339,0,0,0
22067,12451,20277,0,0,0
22036,12427,20215,0,0,0
21999,12401,20155,0,0,0
21951,12371,20093,0,0,0
21896,12338,20022,0,0,0
21840,12307,19946,0,0,0
21785,12277,19871,0,0,0
21734,12249,19800,0,0,0
21688,12226,19742,0,0,0
21654,12213,19701,0,0,0
21642,12213,19684,0,0,0
21665,12231,19709,0,0,0
21731,12273,19792,0,0,0
21841,12345,19942,0,0,0
21997,12445,20156,0,0,0
22199,12572,20432,0,0,0
22447,12725,20771,0,0,0
22732,12900,21166,0,0,0
23046,13091,21608,0,0,0
23382,13297,22087,0,0,0
23731,13512,22589,0,0,0
24087,13731,23107,0,0,0
24443,13949,23631,0,0,0
24795,14165,24156,0,0,0
25137,14375,24669,0,0,0
25461,14576,25162,0,0,0
25761,14767,25628,0,0,0
26039,14944,26060,0,0,0
26293,15104,26453,0,0,0
26519,15244,26804,0,0,0
26715,15363,27106,0,0,0
26876,15459,27361,0,0,0
27001,15534,27567,0,0,0
27092,15588,27725,0,0,0
27154,15623,27838,0,0,0
27190,15641,27909,0,0,0
27201,15645,27945,0,0,0
27191,15635,27952,0,0,0
27164,15613,27932,0,0,0
27124,15584,27887,0,0,0
27075,15552,27820,0,0,0
27019,15516,27736,0,0,0
26960,15477,27643,0,0,0
26899,15436,27545,0,0,0
26837,15396,27446,0,0,0
26775,15357,27350,0,0,0
26713,15318,27259,0,0,0
26652,15281,27177,0,0,0
26596,15247,27105,0,0,0
26550,15220,27043,0,0,0
26512,15198,26992,0,0,0
26485,15183,26952,0,0,0
26464,15173,26925,0,0,0
26450,15166,26908,0,0,0
26445,15163,26898,0,0,0
26449,15163,26897,0,0,0
26454,15165,26901,0,0,0
26459,15168,26910,0,0,0
26466,15173,26922,0,0,0
26471,15177,26932,0,0,0
26470,15177,26933,0,0,0
26463,15175,26921,0,0,0
26454,15171,26903,0,0,0
26444,15164,26880,0,0,0
26434,15153,26853,0,0,0
26422,15139,26822,0,0,0
26405,15121,26786,0,0,0
26384,15103,26748,0,0,0
26360,15087,26712,0,0,0
26336,15075,26680,0,0,0
26312,15062,26652,0,0,0
26290,15050,26629,0,0,0
26272,15040,26608,0,0,0
26262,15033,26593,0,0,0
26258,15028,26585,0,0,0
26259,15025,26584,0,0,0
26263,15024,26585,0,0,0
26267,15025,26588,0,0,0
26274,15029,26592,0,0,0
26283,15035,26598,0,0,0
26294,15043,26607,0,0,0
26306,15050,26616,0,0,0
26320,15056,26627,0,0,0
26335,15063,26638,0,0,0
26349,15069,26649,0,0,0
26363,15074,26658,0,0,0
26377,15079,26668,0,0,0
26389,15085,26676,0,0,0
26394,15089,26677,0,0,0
26391,15090,26670,0,0,0
26380,15087,26654,0,0,0
26363,15081,26631,0,0,0
26342,15071,26601,0,0,0
26315,15058,26563,0,0,0
26280,15039,26514,0,0,0
26238,15016,26456,0,0,0
26193,14988,26394,0,0,0
26148,14959,26327,0,0,0
26101,14927,26254,0,0,0
26047,14894,26173,0,0,0
25988,14858,26085,0,0,0
25925,14819,25992,0,0,0
25862,14777,25896,0,0,0
25798,14735,25795,0,0,0
25731,14693,25690,0,0,0
25665,14650,25583,0,0,0
25600,14608,25474,0,0,0
25533,14566,25364,0,0,0
25461,14524,25253,0,0,0
25387,14482,25143,0,0,0
25316,14440,25036,0,0,0
25251,14399,24932,0,0,0
25188,14357,24827,0,0,0
25122,14317,24720,0,0,0
25057,14279,24615,0,0,0
24995,14240,24515,0,0,0
24934,14199,24420,0,0,0
24876,14158,24333,0,0,0
24824,14121,24253,0,0,0
24774,14085,24174,0,0,0
24722,14048,24094,0,0,0
24671,14010,24013,0,0,0
24623,13976,23932,0,0,0
24579,13945,23855,0,0,0
24540,13918,23782,0,0,0
24504,13892,23711,0,0,0
24465,13867,23641,0,0,0
24419,13840,23571,0,0,0
24371,13812,23504,0,0,0
24324,13785,23438,0,0,0
24280,13762,23373,0,0,0
24238,13742,23309,0,0,0
24199,13722,23241,0,0,0
24157,13700,23170,0,0,0
24115,13679,23103,0,0,0
24075,13659,23042,0,0,0
24037,13639,22988,0,0,0
24000,13619,22937,0,0,0
23964,13597,22886,0,0,0
23928,13572,22834,0,0,0
23894,13545,22781,0,0,0
23866,13522,22731,0,0,0
23839,13501,22685,0,0,0
23810,13483,22640,0,0,0
23780,13465,22594,0,0,0
23751,13445,22548,0,0,0
23718,13423,22500,0,0,0
23683,13401,22451,0,0,0
23649,13379,22402,0,0,0
23615,13359,22351,0,0,0
23575,13338,22296,0,0,0
23533,13317,22240,0,0,0
23491,13292,22183,0,0,0
23449,13266,22126,0,0,0
23405,13243,22068,0,0,0
23359,13219,22006,0,0,0
23311,13194,21938,0,0,0
23264,13168,21866,0,0,0
23217,13140,21793,0,0,0
23171,13108,21718,0,0,0
23126,13076,21641,0,0,0
23081,13045,21561,0,0,0
23039,13014,21479,0,0,0
22995,12980,21399,0,0,0
22947,12946,21318,0,0,0
22894,12912,21237,0,0,0
22839,12880,21157,0,0,0
22785,12852,21082,0,0,0
22743,12832,21021,0,0,0
22722,12822,20985,0,0,0
22726,12827,20988,0,0,0
22763,12850,21039,0,0,0
22841,12898,21144,0,0,0
22963,12976,21309,0,0,0
23132,13085,21542,0,0,0
23346,13222,21839,0,0,0
23600,13383,22195,0,0,0
23888,13562,22603,0,0,0
24202,13756,23050,0,0,0
24534,13961,23527,0,0,0
24879,14176,24024,0,0,0
25228,14399,24533,0,0,0
25578,14625,25049,0,0,0
25922,14848,25563,0,0,0
26253,15065,26061,0,0,0
26566,15270,26531,0,0,0
26856,15459,26963,0,0,0
27120,15629,27352,0,0,0
27352,15776,27698,0,0,0
27551,15901,27999,0,0,0
27717,16004,28255,0,0,0
27851,16087,28464,0,0,0
27953,16147,28628,0,0,0
28025,16186,28748,0,0,0
28072,16206,28829,0,0,0
28097,16210,28872,0,0,0
28104,16204,28883,0,0,0
28095,16189,28867,0,0,0
28068,16167,28827,0,0,0
28026,16139,28767,0,0,0
27972,16104,28696,0,0,0
27912,16065,28618,0,0,0
27850,16025,28534,0,0,0
27792,15986,28450,0,0,0
27739,15952,28373,0,0,0
27688,15921,28299,0,0,0
27642,15889,28228,0,0,0
27601,15859,28161,0,0,0
27569,15832,28102,0,0,0
27545,15812,28055,0,0,0
27529,15797,28022,0,0,0
27522,15788,28002,0,0,0
27524,15788,27995,0,0,0
27534,15797,27999,0,0,0
27549,15808,28012,0,0,0
27566,15820,28032,0,0,0
27585,15832,28055,0,0,0
27603,15842,28080,0,0,0
27618,15852,28103,0,0,0
27630,15860,28121,0,0,0
27635,15867,28133,0,0,0
27633,15870,28136,0,0,0
27624,15870,28129,0,0,0
27610,15864,28113,0,0,0
27592,15853,28088,0,0,0
27571,15838,28053,0,0,0
27552,15822,28012,0,0,0
27530,15805,27968,0,0,0
27503,15787,27922,0,0,0
27470,15765,27878,0,0,0
27435,15742,27835,0,0,0
27400,15717,27793,0,0,0
27366,15693,27753,0,0,0
27335,15671,27713,0,0,0
27308,15651,27676,0,0,0
27285,15637,27643,0,0,0
27267,15627,27616,0,0,0
27253,15618,27595,0,0,0
27244,15609,27578,0,0,0
27239,15601,27566,0,0,0
27236,15593,27556,0,0,0
27233,15586,27546,0,0,0
27230,15582,27535,0,0,0
27225,15580,27525,0,0,0
27218,15579,27520,0,0,0
27212,15578,27518,0,0,0
27206,15574,27514,0,0,0
27200,15569,27508,0,0,0
27192,15563,27500,0,0,0
27179,15556,27484,0,0,0
27162,15545,27459,0,0,0
27139,15532,27428,0,0,0
27112,15516,27390,0,0,0
27079,15496,27344,0,0,0
27041,15473,27289,0,0,0
26999,15446,27227,0,0,0
26951,15419,27159,0,0,0
26896,15390,27087,0,0,0
26837,15357,27010,0,0,0
26777,15322,26927,0,0,0
26714,15282,26840,0,0,0
26650,15239,26748,0,0,0
26587,15195,26654,0,0,0
26526,15151,26560,0,0,0
26465,15107,26463,0,0,0
26402,15065,26365,0,0,0
26337,15027,26269,0,0,0
26272,14989,26172,0,0,0
26207,14951,26076,0,0,0
26143,14913,25981,0,0,0
26078,14876,25890,0,0,0
26014,14839,25800,0,0,0
25951,14801,25708,0,0,0
25892,14762,25614,0,0,0
25836,14725,25521,0,0,0
25782,14689,25431,0,0,0
25726,14653,25343,0,0,0
25670,14616,25258,0,0,0
25614,14580,25173,0,0,0
25557,14545,25088,0,0,0
25499,14508,25001,0,0,0
25438,14471,24911,0,0,0
25380,14437,24827,0,0,0
25328,14407,24752,0,0,0
25278,14379,24681,0,0,0
25229,14351,24610,0,0,0
25182,14323,24543,0,0,0
25137,14298,24477,0,0,0
25094,14273,24408,0,0,0
25052,14249,24336,0,0,0
25010,14226,24267,0,0,0
24969,14203,24203,0,0,0
24928,14176,24139,0,0,0
24885,14146,24073,0,0,0
24843,14116,24009,0,0,0
24805,14088,23949,0,0,0
24771,14062,23892,0,0,0
24740,14042,23841,0,0,0
24709,14027,23793,0,0,0
24674,14011,23742,0,0,0
24637,13992,23685,0,0,0
24600,13974,23627,0,0,0
24563,13955,23567,0,0,0
24522,13934,23506,0,0,0
24480,13911,23443,0,0,0
24440,13885,23382,0,0,0
24401,13859,23324,0,0,0
24364,13833,23270,0,0,0
24326,13807,23218,0,0,0
24287,13784,23167,0,0,0
24246,13763,23113,0,0,0
24206,13739,23056,0,0,0
24167,13713,22996,0,0,0
24129,13687,22936,0,0,0
24092,13662,22877,0,0,0
24055,13635,22815,0,0,0
24018,13608,22752,0,0,0
23982,13581,22686,0,0,0
23943,13554,22617,0,0,0
23900,13526,22548,0,0,0
23855,13498,22481,0,0,0
23807,13470,22414,0,0,0
23756,13439,22345,0,0,0
23702,13406,22273,0,0,0
23647,13372,22196,0,0,0
23593,13339,22115,0,0,0
23537,13306,22030,0,0,0
23481,13271,21942,0,0,0
23424,13236,21855,0,0,0
23366,13202,21771,0,0,0
23307,13168,21688,0,0,0
23251,13139,21610,0,0,0
23206,13116,21546,0,0,0
23179,13106,21509,0,0,0
23182,13112,21513,0,0,0
23223,13140,21567,0,0,0
23307,13195,21681,0,0,0
23435,13277,21858,0,0,0
23604,13385,22097,0,0,0
23813,13519,22395,0,0,0
24058,13678,22749,0,0,0
24334,13858,23155,0,0,0
24635,14056,23604,0,0,0
24956,14266,24086,0,0,0
25289,14483,24585,0,0,0
25628,14702,25093,0,0,0
25970,14922,25600,0,0,0
26309,15135,26099,0,0,0
26638,15343,26584,0,0,0
26947,15540,27051,0,0,0
27230,15723,27490,0,0,0
27486,15887,27887,0,0,0
27714,16031,28237,0,0,0
27911,16153,28537,0,0,0
28078,16252,28788,0,0,0
28214,16332,28995,0,0,0
28318,16391,29161,0,0,0
28391,16430,29286,0,0,0
28436,16450,29371,0,0,0
28456,16452,29417,0,0,0
28455,16443,29430,0,0,0
28436,16426,29416,0,0,0
28405,16402,29378,0,0,0
28366,16373,29324,0,0,0
28320,16338,29259,0,0,0
28267,16299,29187,0,0,0
28213,16259,29112,0,0,0
28160,16225,29040,0,0,0
28112,16196,28972,0,0,0
28067,16171,28909,0,0,0
28027,16149,28851,0,0,0
27996,16131,28798,0,0,0
27973,16116,28754,0,0,0
27955,16102,28721,0,0,0
27944,16092,28700,0,0,0
27942,16087,28694,0,0,0
27944,16088,28701,0,0,0
27949,16090,28716,0,0,0
27958,16096,28736,0,0,0
27975,16106,28761,0,0,0
27995,16121,28788,0,0,0
28019,16135,28816,0,0,0
28039,16146,28842,0,0,0
28052,16154,28866,0,0,0
28056,16157,28882,0,0,0
28053,16155,28885,0,0,0
28042,16147,28875,0,0,0
28026,16137,28858,0,0,0
28002,16125,28833,0,0,0
27971,16109,28796,0,0,0
27936,16090,28749,0,0,0
27901,16068,28695,0,0,0
27865,16045,28637,0,0,0
27829,16021,28579,0,0,0
27796,15999,28525,0,0,0
27765,15976,28476,0,0,0
27736,15954,28434,0,0,0
27707,15932,28398,0,0,0
27680,15913,28365,0,0,0
27657,15898,28339,0,0,0
27638,15888,28321,0,0,0
27623,15880,28308,0,0,0
27610,15872,28302,0,0,0
27598,15868,28300,0,0,0
27588,15866,28297,0,0,0
27579,15865,28292,0,0,0
27571,15864,28285,0,0,0
27565,15864,28278,0,0,0
27557,15864,28275,0,0,0
27549,15863,28274,0,0,0
27542,15859,28270,0,0,0
27535,15854,28263,0,0,0
27527,15849,28253,0,0,0
27516,15841,28239,0,0,0
27502,15831,28220,0,0,0
27486,15818,28192,0,0,0
27464,15800,28155,0,0,0
27435,15780,28111,0,0,0
27400,15760,28062,0,0,0
27357,15738,28007,0,0,0
27309,15712,27945,0,0,0
27260,15679,27875,0,0,0
27211,15644,27802,0,0,0
27162,15610,27728,0,0,0
27112,15578,27650,0,0,0
27058,15546,27564,0,0,0
27000,15510,27472,0,0,0
26937,15470,27378,0,0,0
26871,15430,27283,0,0,0
26803,15389,27183,0,0,0
26732,15347,27080,0,0,0
26662,15303,26974,0,0,0
26589,15258,26866,0,0,0
26514,15211,26757,0,0,0
26440,15165,26652,0,0,0
26369,15122,26551,0,0,0
26301,15078,26451,0,0,0
26234,15035,26355,0,0,0
26167,14994,26261,0,0,0
26100,14955,26171,0,0,0
26038,14917,26083,0,0,0
25981,14880,25996,0,0,0
25929,14843,25913,0,0,0
25878,14808,25834,0,0,0
25828,14772,25755,0,0,0
25777,14737,25675,0,0,0
25726,14706,25596,0,0,0
25677,14680,25519,0,0,0
25628,14657,25445,0,0,0
25577,14634,25374,0,0,0
25527,14610,25307,0,0,0
25480,14584,25245,0,0,0
25433,14555,25183,0,0,0
25386,14526,25118,0,0,0
25342,14497,25049,0,0,0
25300,14469,24980,0,0,0
25261,14442,24911,0,0,0
25222,14415,24845,0,0,0
25183,14387,24783,0,0,0
25141,14359,24722,0,0,0
25101,14333,24660,0,0,0
25060,14308,24600,0,0,0
25020,14287,24542,0,0,0
24977,14266,24485,0,0,0
24934,14243,24427,0,0,0
24890,14217,24367,0,0,0
24846,14190,24304,0,0,0
24801,14161,24238,0,0,0
24756,14130,24169,0,0,0
24714,14100,24103,0,0,0
24673,14073,24042,0,0,0
24630,14045,23982,0,0,0
24585,14015,23922,0,0,0
24539,13987,23861,0,0,0
24494,13959,23797,0,0,0
24453,13934,23733,0,0,0
24413,13911,23669,0,0,0
24372,13888,23606,0,0,0
24330,13866,23543,0,0,0
24286,13843,23478,0,0,0
24240,13818,23411,0,0,0
24196,13793,23344,0,0,0
24154,13770,23281,0,0,0
24109,13749,23217,0,0,0
24061,13724,23151,0,0,0
24013,13696,23086,0,0,0
23963,13664,23018,0,0,0
23913,13629,22944,0,0,0
23865,13593,22868,0,0,0
23819,13559,22793,0,0,0
23775,13526,22719,0,0,0
23729,13494,22646,0,0,0
23679,13460,22569,0,0,0
23626,13427,22490,0,0,0
23569,13393,22409,0,0,0
23511,13360,22327,0,0,0
23455,13327,22247,0,0,0
23400,13295,22170,0,0,0
23347,13268,22099,0,0,0
23300,13246,22042,0,0,0
23269,13235,22010,0,0,0
23269,13241,22018,0,0,0
23306,13271,22074,0,0,0
23386,13329,22187,0,0,0
23510,13415,22365,0,0,0
23675,13525,22609,0,0,0
23879,13659,22910,0,0,0
24120,13817,23266,0,0,0
24395,13996,23674,0,0,0
24698,14190,24124,0,0,0
25025,14396,24608,0,0,0
25368,14610,25118,0,0,0
25716,14830,25637,0,0,0
26060,15050,26155,0,0,0
26395,15263,26665,0,0,0
26716,15465,27158,0,0,0
27018,15657,27626,0,0,0
27296,15835,28062,0,0,0
27544,15996,28457,0,0,0
27760,16137,28806,0,0,0
27944,16256,29107,0,0,0
28092,16354,29359,0,0,0
28209,16428,29561,0,0,0
28298,16482,29715,0,0,0
28363,16519,29825,0,0,0
28401,16541,29896,0,0,0
28414,16546,29931,0,0,0
28408,16540,29938,0,0,0
28386,16524,29920,0,0,0
28350,16500,29878,0,0,0
28305,16469,29814,0,0,0
28254,16433,29738,0,0,0
28199,16396,29658,0,0,0
28142,16357,29577,0,0,0
28084,16317,29499,0,0,0
28030,16278,29425,0,0,0
27982,16242,29355,0,0,0
27939,16210,29286,0,0,0
27903,16180,29220,0,0,0
27877,16158,29166,0,0,0
27860,16145,29129,0,0,0
27849,16139,29108,0,0,0
27846,16136,29101,0,0,0
27851,16139,29107,0,0,0
27863,16145,29123,0,0,0
27877,16151,29144,0,0,0
27892,16158,29165,0,0,0
27905,16168,29187,0,0,0
27919,16181,29211,0,0,0
27929,16193,29230,0,0,0
27934,16200,29241,0,0,0
27932,16203,29241,0,0,0
27923,16199,29233,0,0,0
27907,16190,29214,0,0,0
27882,16176,29184,0,0,0
27854,16160,29149,0,0,0
27822,16143,29112,0,0,0
27786,16123,29072,0,0,0
27748,16100,29029,0,0,0
27709,16075,28984,0,0,0
27671,16050,28938,0,0,0
27636,16025,28892,0,0,0
27604,16004,28847,0,0,0
27574,15986,28806,0,0,0
27546,15971,28770,0,0,0
27517,15957,28736,0,0,0
27488,15943,28704,0,0,0
27462,15932,28678,0,0,0
27439,15922,28655,0,0,0
27421,15913,28636,0,0,0
27411,15907,28621,0,0,0
27406,15902,28611,0,0,0
27402,15900,28602,0,0,0
27393,15899,28594,0,0,0
27381,15898,28586,0,0,0
27368,15893,28577,0,0,0
27353,15885,28561,0,0,0
27335,15876,28539,0,0,0
27313,15867,28514,0,0,0
27289,15855,28486,0,0,0
27262,15840,28453,0,0,0
27230,15817,28412,0,0,0
27195,15791,28363,0,0,0
27159,15763,28309,0,0,0
27120,15734,28251,0,0,0
27075,15701,28189,0,0,0
27027,15666,28125,0,0,0
26973,15631,28056,0,0,0
26914,15596,27976,0,0,0
26848,15559,27885,0,0,0
26780,15517,27786,0,0,0
26710,15474,27681,0,0,0
26638,15429,27573,0,0,0
26565,15383,27463,0,0,0
26489,15334,27353,0,0,0
26412,15285,27240,0,0,0
26335,15235,27125,0,0,0
26260,15187,27010,0,0,0
26187,15141,26897,0,0,0
26111,15096,26787,0,0,0
26033,15049,26679,0,0,0
25958,15001,26574,0,0,0
25885,14954,26470,0,0,0
25812,14907,26367,0,0,0
25744,14862,26266,0,0,0
25681,14821,26167,0,0,0
25622,14782,26069,0,0,0
25563,14744,25972,0,0,0
25505,14707,25875,0,0,0
25447,14672,25782,0,0,0
25387,14637,25693,0,0,0
25325,14600,25605,0,0,0
25267,14565,25521,0,0,0
25216,14534,25443,0,0,0
25169,14504,25372,0,0,0
25122,14474,25304,0,0,0
25074,14445,25237,0,0,0
25029,14417,25170,0,0,0
24986,14391,25102,0,0,0
24941,14363,25032,0,0,0
24893,14333,24960,0,0,0
24843,14303,24890,0,0,0
24796,14272,24824,0,0,0
24747,14241,24759,0,0,0
24697,14209,24691,0,0,0
24649,14177,24620,0,0,0
24604,14147,24548,0,0,0
24560,14120,24477,0,0,0
24520,14096,24410,0,0,0
24485,14075,24350,0,0,0
24452,14052,24292,0,0,0
24419,14027,24234,0,0,0
24383,14003,24173,0,0,0
24345,13979,24111,0,0,0
24306,13956,24051,0,0,0
24266,13935,23994,0,0,0
24224,13913,23938,0,0,0
24183,13891,23880,0,0,0
24141,13869,23819,0,0,0
24096,13847,23756,0,0,0
24048,13824,23692,0,0,0
23999,13799,23629,0,0,0
23953,13772,23566,0,0,0
23911,13747,23502,0,0,0
23872,13724,23437,0,0,0
23833,13703,23374,0,0,0
23794,13681,23314,0,0,0
23750,13658,23252,0,0,0
23703,13635,23187,0,0,0
23659,13612,23122,0,0,0
23613,13586,23054,0,0,0
23562,13556,22982,0,0,0
23511,13526,22909,0,0,0
23462,13496,22839,0,0,0
23414,13468,22770,0,0,0
23366,13436,22701,0,0,0
23315,13400,22630,0,0,0
23263,13366,22553,0,0,0
23212,13331,22471,0,0,0
23158,13294,22384,0,0,0
23102,13258,22299,0,0,0
23044,13223,22214,0,0,0
22986,13190,22127,0,0,0
22927,13156,22035,0,0,0
22862,13120,21938,0,0,0
22797,13083,21843,0,0,0
22732,13046,21751,0,0,0
22672,13012,21667,0,0,0
22622,12986,21597,0,0,0
22590,12972,21554,0,0,0
22581,12972,21544,0,0,0
22601,12989,21576,0,0,0
22661,13030,21662,0,0,0
22767,13101,21810,0,0,0
22920,13202,22025,0,0,0
23117,13328,22304,0,0,0
23352,13478,22644,0,0,0
23622,13649,23041,0,0,0
23920,13836,23483,0,0,0
24240,14036,23955,0,0,0
24576,14247,24454,0,0,0
24918,14467,24970,0,0,0
25260,14691,25494,0,0,0
25597,14912,26017,0,0,0
25924,15126,26531,0,0,0
26236,15333,27025,0,0,0
26530,15526,27490,0,0,0
26802,15702,27919,0,0,0
27045,15857,28305,0,0,0
27254,15991,28643,0,0,0
27426,16104,28931,0,0,0
27564,16193,29167,0,0,0
27671,16259,29353,0,0,0
27747,16304,29490,0,0,0
27796,16331,29583,0,0,0
27820,16342,29636,0,0,0
27822,16339,29652,0,0,0
27805,16324,29633,0,0,0
27771,16298,29585,0,0,0
27722,16261,29515,0,0,0
27662,16219,29430,0,0,0
27593,16173,29333,0,0,0
27521,16125,29227,0,0,0
27446,16075,29115,0,0,0
27370,16027,29002,0,0,0
27294,15981,28890,0,0,0
27219,15938,28783,0,0,0
27152,15898,28683,0,0,0
27096,15862,28596,0,0,0
27053,15832,28524,0,0,0
27018,15809,28468,0,0,0
26991,15793,28424,0,0,0
26972,15783,28393,0,0,0
26961,15777,28375,0,0,0
26959,15774,28366,0,0,0
26964,15773,28367,0,0,0
26973,15775,28375,0,0,0
26982,15778,28387,0,0,0
26989,15778,28399,0,0,0
26989,15776,28406,0,0,0
26979,15773,28406,0,0,0
26962,15768,28398,0,0,0
26941,15758,28383,0,0,0
26913,15742,28358,0,0,0
26876,15723,28322,0,0,0
26832,15700,28277,0,0,0
26788,15676,28227,0,0,0
26749,15656,28178,0,0,0
26716,15638,28134,0,0,0
26689,15623,28094,0,0,0
26668,15611,28058,0,0,0
26649,15601,28025,0,0,0
26630,15589,27993,0,0,0
26615,15576,27963,0,0,0
26606,15567,27938,0,0,0
26604,15563,27918,0,0,0
26604,15562,27906,0,0,0
26604,15562,27902,0,0,0
26606,15562,27905,0,0,0
26608,15561,27911,0,0,0
26610,15560,27918,0,0,0
26610,15562,27925,0,0,0
26608,15563,27933,0,0,0
26604,15564,27940,0,0,0
26599,15563,27943,0,0,0
26593,15562,27941,0,0,0
26585,15558,27932,0,0,0
26574,15553,27917,0,0,0
26559,15548,27898,0,0,0
26540,15540,27875,0,0,0
26514,15530,27845,0,0,0
26482,15517,27807,0,0,0
26447,15501,27760,0,0,0
26408,15482,27706,0,0,0
26365,15458,27647,0,0,0
26315,15427,27577,0,0,0
26257,15388,27496,0,0,0
26192,15345,27406,0,0,0
26127,15299,27311,0,0,0
26061,15251,27207,0,0,0
25991,15202,27096,0,0,0
25916,15153,26984,0,0,0
25837,15101,26874,0,0,0
25757,15047,26765,0,0,0
25674,14994,26652,0,0,0
25592,14941,26535,0,0,0
25514,14891,26418,0,0,0
25437,14842,26304,0,0,0
25362,14796,26191,0,0,0
25290,14754,26079,0,0,0
25222,14712,25970,0,0,0
25150,14667,25862,0,0,0
25076,14620,25756,0,0,0
25003,14574,25653,0,0,0
24934,14530,25555,0,0,0
24865,14488,25460,0,0,0
24796,14447,25365,0,0,0
24732,14408,25269,0,0,0
24674,14371,25177,0,0,0
24620,14338,25092,0,0,0
24567,14306,25014,0,0,0
24512,14274,24938,0,0,0
24459,14244,24862,0,0,0
24411,14213,24785,0,0,0
24367,14181,24707,0,0,0
24325,14151,24630,0,0,0
24283,14123,24557,0,0,0
24237,14093,24486,0,0,0
24187,14062,24415,0,0,0
24140,14030,24347,0,0,0
24095,14002,24282,0,0,0
24052,13977,24221,0,0,0
24012,13955,24164,0,0,0
23978,13936,24112,0,0,0
23950,13923,24063,0,0,0
23924,13910,24016,0,0,0
23898,13894,23966,0,0,0
23870,13876,23917,0,0,0
23842,13859,23867,0,0,0
23811,13843,23817,0,0,0
23777,13828,23764,0,0,0
23742,13813,23709,0,0,0
23707,13797,23654,0,0,0
23670,13780,23596,0,0,0
23632,13760,23534,0,0,0
23593,13737,23474,0,0,0
23555,13715,23416,0,0,0
23515,13691,23358,0,0,0
23473,13664,23298,0,0,0
23430,13635,23234,0,0,0
23386,13605,23166,0,0,0
23338,13575,23094,0,0,0
23285,13543,23021,0,0,0
23232,13510,22951,0,0,0
23182,13478,22885,0,0,0
23133,13445,22820,0,0,0
23081,13413,22752,0,0,0
23027,13381,22682,0,0,0
22973,13350,22609,0,0,0
22919,13318,22531,0,0,0
22866,13286,22446,0,0,0
22811,13254,22356,0,0,0
22752,13222,22262,0,0,0
22691,13187,22165,0,0,0
22630,13148,22067,0,0,0
22568,13110,21973,0,0,0
22509,13073,21886,0,0,0
22458,13043,21816,0,0,0
22429,13027,21775,0,0,0
22427,13030,21772,0,0,0
22455,13056,21814,0,0,0
22521,13103,21909,0,0,0
22629,13175,22066,0,0,0
22781,13274,22285,0,0,0
22975,13399,22563,0,0,0
23209,13548,22896,0,0,0
23475,13715,23279,0,0,0
23767,13898,23705,0,0,0
24078,14091,24161,0,0,0
24402,14294,24640,0,0,0
24737,14505,25136,0,0,0
25074,14720,25639,0,0,0
25404,14931,26138,0,0,0
25718,15132,26619,0,0,0
26009,15320,27072,0,0,0
26278,15493,27494,0,0,0
26524,15649,27878,0,0,0
26742,15785,28220,0,0,0
26927,15902,28516,0,0,0
27078,15998,28761,0,0,0
27193,16072,28952,0,0,0
27273,16125,29093,0,0,0
27323,16158,29189,0,0,0
27349,16176,29247,0,0,0
27355,16180,29273,0,0,0
27343,16169,29268,0,0,0
27312,16145,29236,0,0,0
27262,16110,29179,0,0,0
27199,16068,29101,0,0,0
27128,16021,29006,0,0,0
27054,15974,28904,0,0,0
26979,15927,28798,0,0,0
26903,15879,28691,0,0,0
26831,15833,28585,0,0,0
26762,15792,28485,0,0,0
26698,15753,28389,0,0,0
26642,15718,28299,0,0,0
26595,15686,28217,0,0,0
26557,15661,28145,0,0,0
26525,15639,28086,0,0,0
26498,15623,28041,0,0,0
26477,15610,28005,0,0,0
26463,15602,27977,0,0,0
26454,15597,27956,0,0,0
26449,15594,27942,0,0,0
26446,15591,27935,0,0,0
26440,15589,27932,0,0,0
26430,15584,27925,0,0,0
26415,15575,27910,0,0,0
26394,15562,27886,0,0,0
26370,15546,27854,0,0,0
26345,15528,27814,0,0,0
26316,15506,27768,0,0,0
26281,15481,27718,0,0,0
26244,15454,27666,0,0,0
26205,15425,27614,0,0,0
26170,15397,27562,0,0,0
26141,15373,27516,0,0,0
26118,15358,27479,0,0,0
26102,15350,27452,0,0,0
26090,15346,27433,0,0,0
26082,15345,27418,0,0,0
26079,15348,27410,0,0,0
26081,15353,27411,0,0,0
26088,15358,27416,0,0,0
26099,15364,27426,0,0,0
26111,15372,27441,0,0,0
26120,15383,27458,0,0,0
26130,15393,27479,0,0,0
26141,15404,27503,0,0,0
26154,15415,27529,0,0,0
26166,15426,27550,0,0,0
26175,15436,27565,0,0,0
26181,15444,27575,0,0,0
26184,15449,27581,0,0,0
26186,15453,27586,0,0,0
26185,15455,27587,0,0,0
26178,15454,27581,0,0,0
26166,15447,27566,0,0,0
26146,15435,27541,0,0,0
26117,15416,27504,0,0,0
26081,15393,27457,0,0,0
26040,15367,27398,0,0,0
25992,15337,27327,0,0,0
25937,15304,27248,0,0,0
25876,15268,27161,0,0,0
25811,15229,27066,0,0,0
25744,15184,26965,0,0,0
25676,15136,26862,0,0,0
25609,15089,26756,0,0,0
25541,15043,26649,0,0,0
25472,14994,26538,0,0,0
25402,14945,26428,0,0,0
25330,14897,26322,0,0,0
25256,14850,26218,0,0,0
25179,14802,26113,0,0,0
25103,14756,26005,0,0,0
25030,14711,25896,0,0,0
24959,14665,25786,0,0,0
24892,14620,25678,0,0,0
24827,14577,25574,0,0,0
24762,14534,25474,0,0,0
24700,14493,25377,0,0,0
24640,14455,25283,0,0,0
24579,14421,25191,0,0,0
24519,14389,25101,0,0,0
24461,14359,25012,0,0,0
24404,14326,24924,0,0,0
24348,14291,24838,0,0,0
24295,14256,24757,0,0,0
24244,14222,24679,0,0,0
24196,14192,24604,0,0,0
24151,14164,24533,0,0,0
24106,14135,24464,0,0,0
24062,14103,24394,0,0,0
24019,14070,24325,0,0,0
23981,14042,24261,0,0,0
23946,14018,24203,0,0,0
23911,13996,24147,0,0,0
23878,13979,24092,0,0,0
23847,13963,24039,0,0,0
23816,13943,23986,0,0,0
23787,13922,23932,0,0,0
23759,13900,23878,0,0,0
23728,13880,23826,0,0,0
23693,13862,23776,0,0,0
23654,13844,23726,0,0,0
23615,13825,23673,0,0,0
23577,13808,23622,0,0,0
23541,13791,23572,0,0,0
23508,13771,23524,0,0,0
23478,13751,23476,0,0,0
23449,13731,23428,0,0,0
23418,13712,23379,0,0,0
23381,13691,23327,0,0,0
23342,13667,23271,0,0,0
23299,13643,23216,0,0,0
23255,13619,23160,0,0,0
23213,13596,23103,0,0,0
23176,13577,23047,0,0,0
23141,13558,22990,0,0,0
23102,13535,22929,0,0,0
23061,13511,22865,0,0,0
23021,13485,22799,0,0,0
22979,13458,22731,0,0,0
22936,13429,22661,0,0,0
22893,13399,22585,0,0,0
22850,13367,22508,0,0,0
22806,13336,22431,0,0,0
22757,13305,22354,0,0,0
22707,13275,22275,0,0,0
22659,13248,22199,0,0,0
22617,13226,22132,0,0,0
22585,13210,22083,0,0,0
22572,13205,22063,0,0,0
22587,13219,22084,0,0,0
22636,13254,22153,0,0,0
22721,13310,22276,0,0,0
22849,13391,22458,0,0,0
23025,13502,22704,0,0,0
23246,13644,23014,0,0,0
23504,13812,23384,0,0,0
23794,14002,23808,0,0,0
24109,14209,24274,0,0,0
24439,14425,24767,0,0,0
24781,14643,25278,0,0,0
25130,14862,25800,0,0,0
25481,15081,26332,0,0,0
25828,15299,26863,0,0,0
26163,15514,27383,0,0,0
26480,15719,27880,0,0,0
26769,15906,28342,0,0,0
27027,16073,28758,0,0,0
27253,16216,29123,0,0,0
27452,16337,29439,0,0,0
27621,16437,29709,0,0,0
27756,16516,29929,0,0,0
27858,16576,30101,0,0,0
27930,16619,30226,0,0,0
27973,16644,30307,0,0,0
27989,16650,30345,0,0,0
27982,16643,30349,0,0,0
27960,16627,30328,0,0,0
27924,16606,30287,0,0,0
27880,16579,30231,0,0,0
27827,16546,30163,0,0,0
27770,16509,30084,0,0,0
27709,16469,29996,0,0,0
27647,16424,29904,0,0,0
27585,16378,29811,0,0,0
27528,16336,29724,0,0,0
27479,16302,29650,0,0,0
27438,16274,29586,0,0,0
27405,16254,29533,0,0,0
27379,16242,29493,0,0,0
27360,16235,29466,0,0,0
27350,16232,29453,0,0,0
27348,16234,29454,0,0,0
27353,16239,29464,0,0,0
27364,16244,29481,0,0,0
27376,16249,29500,0,0,0
27387,16256,29521,0,0,0
27397,16262,29540,0,0,0
27405,16265,29553,0,0,0
27409,16262,29557,0,0,0
27408,16258,29554,0,0,0
27397,16253,29545,0,0,0
27375,16245,29523,0,0,0
27345,16231,29488,0,0,0
27311,16214,29443,0,0,0
27275,16193,29392,0,0,0
27240,16170,29339,0,0,0
27207,16147,29287,0,0,0
27178,16127,29241,0,0,0
27155,16110,29202,0,0,0
27134,16095,29167,0,0,0
27115,16080,29138,0,0,0
27098,16067,29113,0,0,0
27087,16060,29091,0,0,0
27080,16058,29077,0,0,0
27076,16058,29070,0,0,0
27073,16060,29065,0,0,0
27071,16062,29059,0,0,0
27068,16061,29052,0,0,0
27061,16055,29044,0,0,0
27055,16052,29039,0,0,0
27051,16055,29037,0,0,0
27050,16061,29040,0,0,0
27052,16066,29042,0,0,0
27057,16070,29042,0,0,0
27060,16071,29038,0,0,0
27058,16069,29029,0,0,0
27049,16065,29016,0,0,0
27035,16059,29002,0,0,0
27016,16053,28985,0,0,0
26992,16039,28960,0,0,0
26963,16019,28925,0,0,0
26930,15994,28881,0,0,0
26888,15965,28828,0,0,0
26839,15930,28766,0,0,0
26792,15890,28696,0,0,0
26744,15852,28620,0,0,0
26694,15815,28536,0,0,0
26638,15779,28444,0,0,0
26578,15741,28346,0,0,0
26513,15702,28242,0,0,0
26444,15661,28134,0,0,0
26371,15619,28020,0,0,0
26296,15581,27904,0,0,0
26220,15541,27786,0,0,0
26144,15499,27668,0,0,0
26066,15452,27550,0,0,0
25987,15403,27436,0,0,0
25910,15352,27326,0,0,0
25833,15301,27217,0,0,0
25757,15251,27109,0,0,0
25684,15200,26999,0,0,0
25615,15151,26888,0,0,0
25546,15104,26778,0,0,0
25479,15061,26672,0,0,0
25418,15021,26571,0,0,0
25360,14982,26475,0,0,0
25301,14942,26380,0,0,0
25242,14903,26287,0,0,0
25183,14865,26197,0,0,0
25124,14828,26112,0,0,0
25066,14789,26029,0,0,0
25011,14751,25947,0,0,0
24962,14716,25871,0,0,0
24917,14686,25801,0,0,0
24877,14659,25736,0,0,0
24842,14634,25675,0,0,0
24808,14610,25615,0,0,0
24772,14585,25554,0,0,0
24734,14560,25489,0,0,0
24695,14533,25419,0,0,0
24654,14507,25351,0,0,0
24616,14484,25289,0,0,0
24579,14461,25232,0,0,0
24543,14438,25177,0,0,0
24508,14414,25121,0,0,0
24472,14388,25061,0,0,0
24434,14363,24998,0,0,0
24395,14342,24938,0,0,0
24356,14324,24881,0,0,0
24319,14307,24826,0,0,0
24284,14287,24774,0,0,0
24250,14269,24727,0,0,0
24216,14253,24681,0,0,0
24179,14238,24630,0,0,0
24141,14222,24577,0,0,0
24103,14202,24521,0,0,0
24066,14181,24463,0,0,0
24032,14158,24406,0,0,0
23999,14134,24348,0,0,0
23967,14110,24291,0,0,0
23934,14085,24234,0,0,0
23897,14057,24175,0,0,0
23855,14028,24111,0,0,0
23812,13998,24045,0,0,0
23770,13970,23980,0,0,0
23728,13944,23913,0,0,0
23683,13918,23845,0,0,0
23631,13891,23777,0,0,0
23575,13861,23705,0,0,0
23519,13829,23629,0,0,0
23461,13797,23549,0,0,0
23405,13767,23469,0,0,0
23353,13737,23390,0,0,0
23303,13706,23307,0,0,0
23251,13672,23223,0,0,0
23197,13634,23139,0,0,0
23144,13597,23053,0,0,0
23094,13563,22972,0,0,0
23050,13532,22898,0,0,0
23013,13508,22837,0,0,0
22994,13497,22802,0,0,0
23001,13503,22804,0,0,0
23039,13531,22852,0,0,0
23119,13589,22963,0,0,0
23246,13679,23142,0,0,0
23425,13797,23391,0,0,0
23652,13939,23711,0,0,0
23921,14106,24095,0,0,0
24223,14298,24537,0,0,0
24552,14509,25025,0,0,0
24903,14736,25550,0,0,0
25272,14975,26106,0,0,0
25653,15224,26683,0,0,0
26037,15476,27268,0,0,0
26419,15725,27852,0,0,0
26793,15970,28424,0,0,0
27151,16203,28976,0,0,0
27487,16419,29495,0,0,0
27793,16613,29972,0,0,0
28065,16785,30401,0,0,0
28301,16934,30777,0,0,0
28502,17057,31098,0,0,0
28666,17158,31363,0,0,0
28792,17238,31578,0,0,0
28885,17297,31744,0,0,0
28948,17333,31867,0,0,0
28982,17348,31948,0,0,0
28990,17346,31990,0,0,0
28975,17330,31993,0,0,0
28943,17303,31965,0,0,0
28901,17272,31917,0,0,0
28852,17238,31857,0,0,0
28799,17204,31787,0,0,0
28744,17170,31712,0,0,0
28690,17137,31636,0,0,0
28639,17105,31559,0,0,0
28592,17074,31486,0,0,0
28550,17045,31421,0,0,0
28513,17022,31368,0,0,0
28481,17004,31331,0,0,0
28458,16989,31309,0,0,0
28444,16979,31302,0,0,0
28439,16976,31308,0,0,0
28441,16979,31322,0,0,0
28452,16989,31342,0,0,0
28471,17004,31367,0,0,0
28497,17023,31398,0,0,0
28525,17045,31431,0,0,0
28548,17065,31464,0,0,0
28565,17080,31491,0,0,0
28577,17092,31512,0,0,0
28583,17099,31526,0,0,0
28581,17100,31528,0,0,0
28571,17095,31517,0,0,0
28554,17086,31499,0,0,0
28529,17073,31474,0,0,0
28499,17053,31441,0,0,0
28466,17029,31398,0,0,0
28432,17004,31349,0,0,0
28395,16979,31293,0,0,0
28358,16955,31232,0,0,0
28323,16933,31174,0,0,0
28294,16915,31124,0,0,0
28269,16899,31083,0,0,0
28246,16883,31047,0,0,0
28224,16864,31008,0,0,0
28201,16845,30966,0,0,0
28177,16827,30926,0,0,0
28157,16813,30889,0,0,0
28142,16803,30857,0,0,0
28132,16796,30830,0,0,0
28121,16791,30806,0,0,0
28108,16787,30785,0,0,0
28097,16786,30765,0,0,0
28089,16786,30749,0,0,0
28086,16786,30737,0,0,0
28084,16784,30725,0,0,0
28081,16781,30712,0,0,0
28074,16774,30696,0,0,0
28062,16767,30679,0,0,0
28048,16758,30661,0,0,0
28032,16746,30640,0,0,0
28008,16730,30610,0,0,0
27979,16709,30569,0,0,0
27945,16683,30515,0,0,0
27902,16652,30452,0,0,0
27852,16617,30382,0,0,0
27795,16577,30302,0,0,0
27734,16536,30214,0,0,0
27669,16493,30118,0,0,0
27600,16450,30016,0,0,0
27529,16405,29910,0,0,0
27458,16359,29801,0,0,0
27386,16312,29692,0,0,0
27315,16265,29583,0,0,0
27247,16217,29472,0,0,0
27179,16170,29360,0,0,0
27108,16123,29247,0,0,0
27034,16073,29133,0,0,0
26957,16022,29015,0,0,0
26879,15971,28895,0,0,0
26802,15920,28779,0,0,0
26725,15871,28666,0,0,0
26652,15821,28556,0,0,0
26582,15772,28450,0,0,0
26513,15725,28345,0,0,0
26442,15680,28239,0,0,0
26369,15637,28132,0,0,0
26294,15594,28027,0,0,0
26222,15552,27926,0,0,0
26154,15512,27828,0,0,0
26091,15472,27732,0,0,0
26035,15437,27641,0,0,0
25986,15407,27554,0,0,0
25939,15376,27470,0,0,0
25893,15344,27387,0,0,0
25845,15311,27304,0,0,0
25795,15275,27218,0,0,0
25744,15238,27132,0,0,0
25694,15200,27049,0,0,0
25646,15165,26972,0,0,0
25598,15132,26901,0,0,0
25550,15099,26831,0,0,0
25504,15068,26762,0,0,0
25460,15038,26695,0,0,0
25416,15009,26629,0,0,0
25376,14984,26567,0,0,0
25338,14960,26504,0,0,0
25303,14937,26441,0,0,0
25268,14914,26376,0,0,0
25233,14890,26311,0,0,0
25196,14864,26243,0,0,0
25155,14837,26174,0,0,0
25109,14808,26101,0,0,0
25059,14777,26027,0,0,0
25009,14749,25955,0,0,0
24963,14724,25885,0,0,0
24917,14701,25820,0,0,0
24872,14678,25757,0,0,0
24829,14654,25695,0,0,0
24787,14631,25632,0,0,0
24743,14607,25568,0,0,0
24696,14581,25503,0,0,0
24654,14554,25439,0,0,0
24615,14526,25375,0,0,0
24576,14497,25307,0,0,0
24534,14468,25237,0,0,0
24492,14438,25166,0,0,0
24447,14408,25091,0,0,0
24397,14378,25015,0,0,0
24342,14348,24937,0,0,0
24285,14315,24858,0,0,0
24227,14280,24781,0,0,0
24174,14246,24703,0,0,0
24125,14214,24622,0,0,0
24079,14183,24542,0,0,0
24032,14150,24466,0,0,0
23984,14113,24390,0,0,0
23934,14076,24309,0,0,0
23880,14039,24226,0,0,0
23822,14002,24144,0,0,0
23762,13967,24061,0,0,0
23706,13933,23978,0,0,0
23651,13902,23895,0,0,0
23595,13872,23814,0,0,0
23536,13842,23731,0,0,0
23477,13813,23647,0,0,0
23420,13785,23561,0,0,0
23362,13756,23471,0,0,0
23303,13723,23380,0,0,0
23249,13689,23295,0,0,0
23207,13664,23226,0,0,0
23185,13653,23191,0,0,0
23193,13659,23199,0,0,0
23241,13688,23261,0,0,0
23337,13746,23387,0,0,0
23479,13834,23584,0,0,0
23670,13954,23855,0,0,0
23908,14106,24200,0,0,0
24193,14288,24617,0,0,0
24518,14497,25094,0,0,0
24877,14726,25621,0,0,0
25259,14973,26189,0,0,0
25656,15230,26788,0,0,0
26060,15492,27404,0,0,0
26465,15750,28021,0,0,0
26862,16002,28627,0,0,0
27248,16249,29213,0,0,0
27612,16484,29772,0,0,0
27947,16700,30296,0,0,0
28251,16899,30780,0,0,0
28521,17077,31217,0,0,0
28753,17229,31599,0,0,0
28947,17355,31926,0,0,0
29103,17456,32194,0,0,0
29222,17534,32405,0,0,0
29307,17592,32561,0,0,0
29361,17630,32670,0,0,0
29389,17651,32738,0,0,0
29397,17658,32770,0,0,0
29384,17649,32770,0,0,0
29354,17626,32741,0,0,0
29310,17591,32690,0,0,0
29257,17549,32622,0,0,0
29196,17505,32541,0,0,0
29131,17461,32448,0,0,0
29066,17419,32352,0,0,0
29005,17381,32258,0,0,0
28945,17344,32168,0,0,0
28889,17311,32088,0,0,0
28840,17283,32021,0,0,0
28798,17260,31965,0,0,0
28765,17243,31920,0,0,0
28745,17230,31887,0,0,0
28738,17223,31868,0,0,0
28743,17222,31861,0,0,0
28755,17222,31866,0,0,0
28768,17225,31882,0,0,0
28783,17232,31907,0,0,0
28797,17241,31933,0,0,0
28807,17249,31958,0,0,0
28816,17255,31982,0,0,0
28824,17262,32002,0,0,0
28830,17267,32017,0,0,0
28832,17268,32022,0,0,0
28829,17263,32015,0,0,0
28821,17252,31996,0,0,0
28805,17238,31964,0,0,0
28778,17220,31922,0,0,0
28741,17198,31873,0,0,0
28702,17176,31819,0,0,0
28663,17152,31762,0,0,0
28622,17127,31703,0,0,0
28579,17099,31641,0,0,0
28533,17070,31581,0,0,0
28489,17043,31522,0,0,0
28449,17018,31465,0,0,0
28413,16995,31414,0,0,0
28381,16977,31370,0,0,0
28357,16966,31334,0,0,0
28342,16959,31303,0,0,0
28334,16953,31279,0,0,0
28332,16949,31257,0,0,0
28329,16943,31235,0,0,0
28325,16937,31214,0,0,0
28321,16932,31198,0,0,0
28319,16926,31184,0,0,0
28317,16920,31170,0,0,0
28316,16913,31156,0,0,0
28311,16905,31144,0,0,0
28303,16896,31128,0,0,0
28289,16886,31104,0,0,0
28268,16872,31071,0,0,0
28243,16859,31035,0,0,0
28214,16844,30995,0,0,0
28182,16824,30948,0,0,0
28146,16802,30891,0,0,0
28106,16779,30828,0,0,0
28062,16752,30761,0,0,0
28015,16721,30689,0,0,0
27961,16684,30608,0,0,0
27899,16643,30517,0,0,0
27834,16598,30416,0,0,0
27766,16550,30306,0,0,0
27691,16497,30192,0,0,0
27612,16443,30078,0,0,0
27531,16389,29962,0,0,0
27449,16335,29840,0,0,0
27364,16281,29713,0,0,0
27278,16227,29585,0,0,0
27190,16175,29456,0,0,0
27101,16121,29327,0,0,0
27014,16067,29198,0,0,0
26929,16013,29069,0,0,0
26845,15962,28942,0,0,0
26761,15912,28815,0,0,0
26676,15861,28692,0,0,0
26594,15810,28574,0,0,0
26516,15761,28458,0,0,0
26443,15714,28345,0,0,0
26376,15671,28239,0,0,0
26313,15632,28141,0,0,0
26253,15595,28049,0,0,0
26194,15558,27960,0,0,0
26138,15520,27872,0,0,0
26083,15480,27785,0,0,0
26026,15439,27695,0,0,0
25966,15399,27601,0,0,0
25910,15363,27509,0,0,0
25859,15330,27421,0,0,0
25809,15298,27334,0,0,0
25762,15267,27247,0,0,0
25717,15236,27163,0,0,0
25671,15205,27084,0,0,0
25618,15172,27007,0,0,0
25558,15139,26931,0,0,0
25500,15107,26858,0,0,0
25447,15075,26787,0,0,0
25398,15043,26716,0,0,0
25352,15009,26643,0,0,0
25310,14975,26570,0,0,0
25269,14942,26495,0,0,0
25223,14910,26419,0,0,0
25175,14879,26344,0,0,0
25128,14851,26273,0,0,0
25084,14824,26202,0,0,0
25039,14798,26130,0,0,0
24996,14772,26059,0,0,0
24955,14747,25992,0,0,0
24916,14722,25926,0,0,0
24877,14695,25859,0,0,0
24840,14666,25790,0,0,0
24803,14636,25719,0,0,0
24762,14605,25646,0,0,0
24713,14572,25572,0,0,0
24657,14537,25493,0,0,0
24599,14501,25411,0,0,0
24540,14467,25328,0,0,0
24480,14433,25246,0,0,0
24420,14398,25164,0,0,0
24362,14364,25083,0,0,0
24306,14330,25000,0,0,0
24250,14296,24915,0,0,0
24193,14258,24831,0,0,0
24137,14220,24749,0,0,0
24081,14182,24668,0,0,0
24024,14145,24584,0,0,0
23969,14110,24498,0,0,0
23917,14077,24412,0,0,0
23864,14044,24326,0,0,0
23810,14011,24239,0,0,0
23753,13979,24151,0,0,0
23695,13945,24062,0,0,0
23635,13908,23970,0,0,0
23575,13873,23876,0,0,0
23517,13841,23781,0,0,0
23461,13811,23687,0,0,0
23406,13780,23594,0,0,0
23346,13745,23500,0,0,0
23280,13705,23407,0,0,0
23206,13661,23311,0,0,0
23132,13616,23212,0,0,0
23064,13573,23113,0,0,0
23003,13535,23023,0,0,0
22954,13506,22954,0,0,0
22928,13490,22916,0,0,0
22935,13494,22920,0,0,0
22980,13524,22978,0,0,0
23071,13584,23101,0,0,0
23212,13676,23297,0,0,0
23407,13803,23570,0,0,0
23652,13963,23923,0,0,0
23943,14152,24348,0,0,0
24276,14365,24834,0,0,0
24643,14597,25368,0,0,0
25033,14844,25938,0,0,0
25436,15101,26536,0,0,0
25842,15364,27149,0,0,0
26242,15625,27762,0,0,0
26633,15880,28365,0,0,0
27012,16125,28952,0,0,0
27373,16358,29515,0,0,0
27710,16576,30045,0,0,0
28018,16775,30534,0,0,0
28291,16951,30971,0,0,0
28525,17101,31350,0,0,0
28719,17223,31673,0,0,0
28872,17321,31939,0,0,0
28987,17393,32146,0,0,0
29067,17442,32295,0,0,0
29116,17469,32394,0,0,0
29136,17479,32451,0,0,0
29128,17474,32468,0,0,0
29097,17457,32451,0,0,0
29049,17429,32405,0,0,0
28985,17392,32334,0,0,0
28909,17347,32244,0,0,0
28830,17298,32143,0,0,0
28750,17247,32035,0,0,0
28672,17197,31924,0,0,0
28594,17150,31814,0,0,0
28518,17106,31705,0,0,0
28450,17064,31602,0,0,0
28388,17021,31506,0,0,0
28333,16982,31418,0,0,0
28288,16949,31340,0,0,0
28252,16923,31273,0,0,0
28226,16904,31217,0,0,0
28207,16890,31175,0,0,0
28199,16883,31149,0,0,0
28198,16881,31136,0,0,0
28200,16884,31135,0,0,0
28203,16888,31136,0,0,0
28207,16889,31137,0,0,0
28210,16888,31136,0,0,0
28207,16885,31134,0,0,0
28199,16880,31128,0,0,0
28186,16871,31118,0,0,0
28168,16861,31101,0,0,0
28142,16847,31070,0,0,0
28108,16829,31024,0,0,0
28072,16809,30970,0,0,0
28031,16786,30912,0,0,0
27987,16759,30852,0,0,0
27944,16729,30790,0,0,0
27903,16698,30730,0,0,0
27867,16671,30674,0,0,0
27834,16646,30620,0,0,0
27804,16623,30566,0,0,0
27781,16605,30519,0,0,0
27760,16587,30477,0,0,0
27740,16571,30439,0,0,0
27725,16559,30408,0,0,0
27711,16552,30385,0,0,0
27697,16544,30370,0,0,0
27682,16537,30357,0,0,0
27670,16534,30344,0,0,0
27662,16534,30330,0,0,0
27656,16535,30317,0,0,0
27651,16534,30306,0,0,0
27647,16530,30294,0,0,0
27644,16526,30280,0,0,0
27636,16520,30258,0,0,0
27622,16507,30228,0,0,0
27601,16489,30188,0,0,0
27573,16467,30139,0,0,0
27536,16440,30080,0,0,0
27491,16408,30012,0,0,0
27441,16372,29940,0,0,0
27389,16337,29869,0,0,0
27335,16300,29794,0,0,0
27277,16262,29713,0,0,0
27214,16223,29626,0,0,0
27146,16184,29533,0,0,0
27070,16141,29431,0,0,0
26988,16092,29318,0,0,0
26902,16036,29197,0,0,0
26818,15979,29071,0,0,0
26736,15921,28942,0,0,0
26654,15864,28813,0,0,0
26570,15809,28686,0,0,0
26484,15755,28557,0,0,0
26395,15702,28426,0,0,0
26307,15648,28296,0,0,0
26220,15595,28165,0,0,0
26138,15543,28034,0,0,0
26059,15494,27904,0,0,0
25982,15446,27774,0,0,0
25906,15399,27645,0,0,0
25828,15353,27518,0,0,0
25746,15305,27393,0,0,0
25660,15255,27270,0,0,0
25571,15202,27146,0,0,0
25487,15150,27024,0,0,0
25407,15100,26904,0,0,0
25331,15051,26787,0,0,0
25261,15006,26675,0,0,0
25195,14963,26565,0,0,0
25129,14918,26456,0,0,0
25064,14871,26348,0,0,0
25002,14827,26242,0,0,0
24942,14787,26141,0,0,0
24884,14748,26043,0,0,0
24829,14709,25948,0,0,0
24776,14670,25855,0,0,0
24723,14632,25764,0,0,0
24667,14595,25676,0,0,0
24607,14560,25592,0,0,0
24547,14528,25510,0,0,0
24487,14496,25429,0,0,0
24426,14461,25346,0,0,0
24364,14426,25262,0,0,0
24303,14393,25178,0,0,0
24242,14361,25096,0,0,0
24183,14330,25018,0,0,0
24129,14300,24942,0,0,0
24081,14274,24868,0,0,0
24037,14248,24793,0,0,0
23992,14219,24719,0,0,0
23946,14187,24645,0,0,0
23899,14153,24570,0,0,0
23850,14115,24494,0,0,0
23801,14078,24418,0,0,0
23753,14044,24343,0,0,0
23704,14012,24270,0,0,0
23651,13983,24200,0,0,0
23599,13953,24128,0,0,0
23549,13922,24053,0,0,0
23498,13888,23976,0,0,0
23446,13852,23895,0,0,0
23398,13815,23813,0,0,0
23351,13779,23733,0,0,0
23302,13744,23655,0,0,0
23248,13709,23577,0,0,0
23194,13677,23498,0,0,0
23137,13646,23415,0,0,0
23078,13613,23330,0,0,0
23020,13580,23245,0,0,0
22967,13548,23163,0,0,0
22918,13520,23083,0,0,0
22872,13494,23003,0,0,0
22823,13466,22916,0,0,0
22768,13436,22822,0,0,0
22707,13402,22722,0,0,0
22641,13366,22617,0,0,0
22573,13328,22511,0,0,0
22505,13287,22407,0,0,0
22437,13248,22306,0,0,0
22370,13209,22207,0,0,0
22301,13169,22107,0,0,0
22234,13129,22008,0,0,0
22165,13088,21912,0,0,0
22095,13047,21820,0,0,0
22027,13008,21734,0,0,0
21973,12979,21661,0,0,0
21943,12965,21620,0,0,0
21950,12972,21625,0,0,0
22001,13006,21690,0,0,0
22103,13073,21827,0,0,0
22257,13174,22041,0,0,0
22461,13306,22328,0,0,0
22712,13466,22683,0,0,0
23006,13652,23105,0,0,0
23339,13859,23587,0,0,0
23704,14086,24119,0,0,0
24092,14328,24686,0,0,0
24492,14580,25281,0,0,0
24897,14835,25888,0,0,0
25295,15086,26493,0,0,0
25681,15331,27085,0,0,0
26049,15566,27654,0,0,0
26396,15789,28190,0,0,0
26718,15995,28686,0,0,0
27013,16182,29138,0,0,0
27277,16349,29542,0,0,0
27503,16491,29896,0,0,0
27685,16606,30192,0,0,0
27823,16694,30431,0,0,0
27923,16759,30614,0,0,0
27986,16802,30744,0,0,0
28016,16824,30823,0,0,0
28015,16826,30853,0,0,0
27989,16811,30841,0,0,0
27943,16782,30796,0,0,0
27878,16741,30725,0,0,0
27798,16688,30633,0,0,0
27706,16629,30521,0,0,0
27609,16566,30398,0,0,0
27511,16501,30267,0,0,0
27413,16436,30132,0,0,0
27319,16375,29997,0,0,0
27228,16319,29864,0,0,0
27139,16263,29736,0,0,0
27052,16209,29617,0,0,0
26971,16157,29505,0,0,0
26898,16112,29400,0,0,0
26834,16073,29302,0,0,0
26781,16041,29217,0,0,0
26742,16017,29150,0,0,0
26717,16005,29101,0,0,0
26704,16001,29069,0,0,0
26703,16004,29052,0,0,0
26708,16013,29046,0,0,0
26711,16020,29043,0,0,0
26712,16023,29039,0,0,0
26711,16023,29029,0,0,0
26707,16019,29012,0,0,0
26696,16013,28992,0,0,0
26680,16004,28968,0,0,0
26659,15991,28940,0,0,0
26636,15973,28906,0,0,0
26610,15952,28868,0,0,0
26582,15930,28828,0,0,0
26553,15910,28789,0,0,0
26525,15891,28748,0,0,0
26500,15873,28706,0,0,0
26481,15856,28671,0,0,0
26467,15845,28644,0,0,0
26458,15838,28624,0,0,0
26447,15831,28606,0,0,0
26435,15823,28591,0,0,0
26426,15817,28583,0,0,0
26422,15815,28579,0,0,0
26425,15817,28581,0,0,0
26437,15824,28591,0,0,0
26454,15835,28609,0,0,0
26472,15850,28633,0,0,0
26492,15866,28659,0,0,0
26513,15883,28687,0,0,0
26533,15899,28713,0,0,0
26549,15911,28735,0,0,0
26558,15919,28749,0,0,0
26561,15924,28756,0,0,0
26559,15927,28759,0,0,0
26553,15926,28754,0,0,0
26543,15919,28741,0,0,0
26531,15908,28721,0,0,0
26509,15893,28694,0,0,0
26476,15870,28654,0,0,0
26433,15842,28598,0,0,0
26382,15811,28527,0,0,0
26322,15777,28447,0,0,0
26257,15740,28357,0,0,0
26192,15702,28259,0,0,0
26127,15663,28158,0,0,0
26059,15623,28053,0,0,0
25987,15579,27943,0,0,0
25911,15531,27825,0,0,0
25830,15477,27703,0,0,0
25744,15421,27582,0,0,0
25659,15367,27462,0,0,0
25576,15314,27342,0,0,0
25494,15261,27219,0,0,0
25412,15207,27094,0,0,0
25328,15153,26965,0,0,0
25244,15095,26833,0,0,0
25161,15038,26699,0,0,0
25078,14983,26564,0,0,0
24995,14930,26429,0,0,0
24913,14877,26297,0,0,0
24831,14825,26169,0,0,0
24748,14773,26043,0,0,0
24665,14721,25915,0,0,0
24583,14670,25787,0,0,0
24502,14619,25661,0,0,0
24423,14569,25541,0,0,0
24346,14521,25427,0,0,0
24275,14476,25321,0,0,0
24211,14437,25222,0,0,0
24152,14403,25129,0,0,0
24096,14369,25041,0,0,0
24041,14334,24954,0,0,0
23987,14299,24871,0,0,0
23935,14264,24789,0,0,0
23884,14230,24708,0,0,0
23835,14195,24628,0,0,0
23788,14158,24550,0,0,0
23741,14122,24478,0,0,0
23696,14089,24408,0,0,0
23649,14058,24340,0,0,0
23599,14027,24272,0,0,0
23548,13998,24201,0,0,0
23497,13968,24127,0,0,0
23448,13938,24051,0,0,0
23400,13910,23975,0,0,0
23354,13883,23899,0,0,0
23308,13856,23825,0,0,0
23262,13830,23756,0,0,0
23221,13805,23692,0,0,0
23182,13782,23631,0,0,0
23143,13758,23569,0,0,0
23101,13736,23508,0,0,0
23061,13714,23448,0,0,0
23021,13693,23389,0,0,0
22979,13674,23331,0,0,0
22938,13654,23274,0,0,0
22901,13635,23218,0,0,0
22865,13614,23162,0,0,0
22827,13590,23106,0,0,0
22788,13564,23050,0,0,0
22748,13537,22991,0,0,0
22709,13509,22928,0,0,0
22670,13484,22864,0,0,0
22631,13459,22799,0,0,0
22589,13433,22729,0,0,0
22543,13404,22653,0,0,0
22490,13370,22572,0,0,0
22435,13333,22486,0,0,0
22378,13295,22395,0,0,0
22319,13257,22301,0,0,0
22256,13220,22205,0,0,0
22194,13184,22111,0,0,0
22132,13148,22021,0,0,0
22073,13113,21939,0,0,0
22023,13083,21872,0,0,0
21999,13066,21834,0,0,0
22009,13071,21839,0,0,0
22060,13101,21898,0,0,0
22160,13164,22026,0,0,0
22312,13262,22229,0,0,0
22516,13393,22506,0,0,0
22767,13551,22854,0,0,0
23058,13735,23268,0,0,0
23384,13943,23742,0,0,0
23742,14168,24263,0,0,0
24123,14405,24818,0,0,0
24517,14649,25398,0,0,0
24913,14894,25990,0,0,0
25303,15138,26581,0,0,0
25679,15374,27159,0,0,0
26039,15598,27716,0,0,0
26380,15810,28246,0,0,0
26694,16007,28739,0,0,0
26976,16188,29185,0,0,0
27219,16347,29581,0,0,0
27425,16482,29929,0,0,0
27591,16592,30222,0,0,0
27718,16675,30456,0,0,0
27810,16735,30635,0,0,0
27872,16776,30764,0,0,0
27904,16798,30845,0,0,0
27910,16801,30882,0,0,0
27892,16789,30877,0,0,0
27850,16763,30837,0,0,0
27788,16723,30763,0,0,0
27710,16674,30661,0,0,0
27623,16621,30542,0,0,0
27529,16566,30409,0,0,0
27431,16505,30269,0,0,0
27332,16443,30125,0,0,0
27231,16384,29984,0,0,0
27128,16327,29843,0,0,0
27028,16267,29703,0,0,0
26933,16208,29567,0,0,0
26846,16154,29441,0,0,0
26768,16105,29327,0,0,0
26702,16061,29224,0,0,0
26648,16022,29135,0,0,0
26604,15989,29060,0,0,0
26567,15960,28994,0,0,0
26532,15933,28933,0,0,0
26499,15908,28877,0,0,0
26464,15885,28824,0,0,0
26430,15861,28772,0,0,0
26400,15837,28718,0,0,0
26377,15814,28665,0,0,0
26355,15794,28616,0,0,0
26332,15777,28571,0,0,0
26308,15760,28529,0,0,0
26280,15745,28488,0,0,0
26251,15729,28448,0,0,0
26223,15714,28407,0,0,0
26197,15701,28367,0,0,0
26176,15694,28333,0,0,0
26159,15690,28305,0,0,0
26144,15684,28281,0,0,0
26133,15676,28263,0,0,0
26126,15668,28250,0,0,0
26125,15663,28245,0,0,0
26131,15663,28245,0,0,0
26141,15668,28249,0,0,0
26154,15678,28262,0,0,0
26172,15694,28282,0,0,0
26191,15713,28306,0,0,0
26210,15731,28330,0,0,0
26228,15747,28353,0,0,0
26243,15760,28376,0,0,0
26255,15769,28398,0,0,0
26264,15775,28418,0,0,0
26270,15782,28436,0,0,0
26276,15787,28451,0,0,0
26279,15786,28457,0,0,0
26278,15778,28455,0,0,0
26271,15769,28447,0,0,0
26256,15758,28433,0,0,0
26232,15746,28411,0,0,0
26202,15729,28378,0,0,0
26166,15708,28334,0,0,0
26124,15682,28277,0,0,0
26076,15650,28205,0,0,0
26022,15615,28123,0,0,0
25966,15576,28032,0,0,0
25905,15534,27934,0,0,0
25840,15491,27833,0,0,0
25772,15448,27728,0,0,0
25703,15403,27619,0,0,0
25627,15355,27503,0,0,0
25544,15303,27378,0,0,0
25456,15247,27244,0,0,0
25368,15188,27107,0,0,0
25279,15129,26970,0,0,0
25190,15070,26834,0,0,0
25098,15010,26700,0,0,0
25006,14951,26564,0,0,0
24913,14891,26425,0,0,0
24817,14829,26280,0,0,0
24722,14768,26132,0,0,0
24629,14709,25985,0,0,0
24538,14653,25841,0,0,0
24450,14601,25702,0,0,0
24363,14548,25568,0,0,0
24274,14491,25437,0,0,0
24187,14433,25312,0,0,0
24104,14377,25191,0,0,0
24027,14324,25076,0,0,0
23957,14277,24966,0,0,0
23892,14237,24861,0,0,0
23828,14199,24763,0,0,0
23766,14161,24669,0,0,0
23706,14125,24579,0,0,0
23652,14093,24492,0,0,0
23605,14064,24406,0,0,0
23560,14035,24325,0,0,0
23516,14007,24249,0,0,0
23470,13978,24175,0,0,0
23423,13949,24100,0,0,0
23377,13921,24026,0,0,0
23335,13894,23955,0,0,0
23293,13867,23884,0,0,0
23251,13841,23813,0,0,0
23210,13817,23744,0,0,0
23168,13796,23679,0,0,0
23125,13773,23614,0,0,0
23084,13749,23549,0,0,0
23046,13728,23487,0,0,0
23010,13709,23429,0,0,0
22975,13688,23371,0,0,0
22941,13667,23316,0,0,0
22908,13643,23262,0,0,0
22871,13618,23207,0,0,0
22831,13591,23148,0,0,0
22791,13567,23089,0,0,0
22752,13548,23034,0,0,0
22714,13531,22983,0,0,0
22675,13512,22931,0,0,0
22635,13490,22873,0,0,0
22595,13465,22809,0,0,0
22555,13438,22741,0,0,0
22513,13410,22671,0,0,0
22471,13381,22601,0,0,0
22431,13353,22529,0,0,0
22389,13324,22456,0,0,0
22346,13294,22382,0,0,0
22303,13264,22307,0,0,0
22254,13231,22229,0,0,0
22201,13194,22148,0,0,0
22149,13159,22065,0,0,0
22096,13125,21981,0,0,0
22040,13092,21898,0,0,0
21982,13060,21819,0,0,0
21930,13033,21752,0,0,0
21897,13019,21712,0,0,0
21894,13026,21712,0,0,0
21933,13060,21767,0,0,0
22022,13123,21892,0,0,0
22164,13216,22094,0,0,0
22360,13340,22373,0,0,0
22611,13495,22728,0,0,0
22913,13681,23156,0,0,0
23256,13890,23646,0,0,0
23629,14119,24184,0,0,0
24022,14362,24760,0,0,0
24430,14614,25364,0,0,0
24843,14871,25984,0,0,0
25250,15127,26605,0,0,0
25646,15379,27213,0,0,0
26024,15624,27798,0,0,0
26381,15855,28353,0,0,0
26712,16070,28869,0,0,0
27016,16266,29341,0,0,0
27288,16443,29767,0,0,0
27526,16596,30148,0,0,0
27725,16723,30478,0,0,0
27882,16825,30750,0,0,0
28000,16905,30967,0,0,0
28082,16966,31135,0,0,0
28135,17007,31254,0,0,0
28162,17029,31326,0,0,0
28162,17033,31356,0,0,0
28140,17022,31348,0,0,0
28098,16997,31306,0,0,0
28040,16961,31235,0,0,0
27970,16919,31142,0,0,0
27892,16869,31037,0,0,0
27810,16816,30922,0,0,0
27729,16762,30802,0,0,0
27649,16709,30680,0,0,0
27570,16658,30560,0,0,0
27493,16609,30442,0,0,0
27418,16562,30327,0,0,0
27349,16518,30218,0,0,0
27289,16479,30122,0,0,0
27237,16447,30040,0,0,0
27193,16421,29973,0,0,0
27155,16398,29917,0,0,0
27123,16375,29870,0,0,0
27097,16354,29831,0,0,0
27078,16336,29800,0,0,0
27065,16322,29776,0,0,0
27060,16313,29754,0,0,0
27055,16305,29732,0,0,0
27046,16297,29712,0,0,0
27035,16287,29689,0,0,0
27019,16273,29658,0,0,0
26998,16257,29620,0,0,0
26976,16240,29575,0,0,0
26954,16223,29527,0,0,0
26931,16207,29478,0,0,0
26906,16191,29432,0,0,0
26879,16176,29390,0,0,0
26853,16161,29351,0,0,0
26826,16146,29313,0,0,0
26801,16131,29274,0,0,0
26779,16118,29235,0,0,0
26764,16108,29200,0,0,0
26753,16100,29170,0,0,0
26742,16092,29148,0,0,0
26730,16084,29134,0,0,0
26720,16079,29126,0,0,0
26712,16075,29120,0,0,0
26706,16070,29116,0,0,0
26703,16067,29117,0,0,0
26704,16069,29124,0,0,0
26708,16073,29135,0,0,0
26711,16076,29145,0,0,0
26715,16080,29151,0,0,0
26720,16086,29158,0,0,0
26725,16094,29165,0,0,0
26727,16099,29165,0,0,0
26727,16103,29157,0,0,0
26724,16105,29143,0,0,0
26714,16101,29123,0,0,0
26699,16091,29096,0,0,0
26680,16078,29062,0,0,0
26656,16059,29022,0,0,0
26625,16034,28974,0,0,0
26585,16003,28915,0,0,0
26539,15967,28844,0,0,0
26485,15927,28762,0,0,0
26424,15885,28667,0,0,0
26357,15839,28562,0,0,0
26282,15790,28452,0,0,0
26202,15738,28335,0,0,0
26116,15683,28209,0,0,0
26024,15626,28078,0,0,0
25930,15568,27944,0,0,0
25838,15509,27805,0,0,0
25747,15451,27664,0,0,0
25659,15396,27525,0,0,0
25572,15343,27389,0,0,0
25483,15289,27253,0,0,0
25392,15232,27113,0,0,0
25300,15175,26972,0,0,0
25208,15118,26835,0,0,0
25118,15060,26700,0,0,0
25030,15002,26563,0,0,0
24947,14943,26429,0,0,0
24868,14887,26299,0,0,0
24789,14833,26174,0,0,0
24712,14783,26052,0,0,0
24636,14734,25934,0,0,0
24562,14685,25819,0,0,0
24489,14637,25705,0,0,0
24418,14588,25588,0,0,0
24351,14541,25473,0,0,0
24286,14498,25361,0,0,0
24222,14458,25257,0,0,0
24160,14419,25160,0,0,0
24099,14382,25071,0,0,0
24040,14346,24986,0,0,0
23983,14309,24902,0,0,0
23928,14269,24817,0,0,0
23875,14232,24732,0,0,0
23824,14198,24648,0,0,0
23774,14166,24564,0,0,0
23728,14138,24485,0,0,0
23687,14114,24413,0,0,0
23647,14091,24344,0,0,0
23606,14068,24276,0,0,0
23566,14046,24208,0,0,0
23529,14024,24141,0,0,0
23490,14003,24074,0,0,0
23449,13981,24009,0,0,0
23411,13958,23947,0,0,0
23378,13935,23888,0,0,0
23349,13914,23829,0,0,0
23320,13896,23774,0,0,0
23290,13881,23726,0,0,0
23261,13866,23681,0,0,0
23231,13851,23633,0,0,0
23196,13833,23581,0,0,0
23155,13812,23522,0,0,0
23111,13787,23458,0,0,0
23065,13757,23392,0,0,0
23019,13725,23325,0,0,0
22977,13694,23255,0,0,0
22940,13664,23186,0,0,0
22903,13635,23122,0,0,0
22863,13606,23056,0,0,0
22821,13579,22985,0,0,0
22775,13554,22910,0,0,0
22724,13526,22831,0,0,0
22668,13492,22748,0,0,0
22610,13455,22662,0,0,0
22551,13417,22573,0,0,0
22492,13379,22483,0,0,0
22434,13342,22396,0,0,0
22375,13305,22313,0,0,0
22321,13270,22239,0,0,0
22280,13243,22180,0,0,0
22263,13230,22150,0,0,0
22282,13243,22168,0,0,0
22347,13288,22248,0,0,0
22462,13366,22403,0,0,0
22631,13478,22642,0,0,0
22856,13627,22963,0,0,0
23131,13807,23361,0,0,0
23449,14011,23824,0,0,0
23804,14236,24338,0,0,0
24187,14477,24897,0,0,0
24591,14732,25494,0,0,0
25009,14993,26115,0,0,0
25432,15256,26749,0,0,0
25853,15516,27383,0,0,0
26263,15771,28006,0,0,0
26653,16016,28602,0,0,0
27018,16246,29162,0,0,0
27351,16460,29682,0,0,0
27651,16656,30157,0,0,0
27914,16829,30580,0,0,0
28139,16980,30949,0,0,0
28329,17108,31266,0,0,0
28482,17212,31527,0,0,0
28599,17291,31732,0,0,0
28681,17348,31887,0,0,0
28731,17385,31996,0,0,0
28750,17399,32059,0,0,0
28742,17393,32077,0,0,0
28713,17373,32061,0,0,0
28669,17343,32017,0,0,0
28611,17304,31950,0,0,0
28546,17260,31864,0,0,0
28478,17213,31768,0,0,0
28410,17164,31668,0,0,0
28340,17114,31563,0,0,0
28268,17063,31456,0,0,0
28200,17015,31350,0,0,0
28135,16971,31250,0,0,0
28074,16934,31156,0,0,0
28018,16902,31071,0,0,0
27968,16874,30996,0,0,0
27927,16853,30936,0,0,0
27896,16838,30891,0,0,0
27872,16828,30857,0,0,0
27854,16819,30834,0,0,0
27840,16809,30817,0,0,0
27829,16802,30806,0,0,0
27822,16801,30800,0,0,0
27821,16804,30797,0,0,0
27825,16807,30793,0,0,0
27827,16808,30784,0,0,0
27825,16806,30770,0,0,0
27816,16800,30749,0,0,0
27797,16789,30719,0,0,0
27771,16771,30680,0,0,0
27742,16751,30636,0,0,0
27713,16730,30588,0,0,0
27686,16710,30537,0,0,0
27658,16690,30487,0,0,0
27631,16673,30439,0,0,0
27603,16657,30395,0,0,0
27575,16642,30356,0,0,0
27551,16627,30320,0,0,0
27532,16613,30286,0,0,0
27518,16599,30255,0,0,0
27507,16586,30227,0,0,0
27499,16573,30203,0,0,0
27494,16562,30184,0,0,0
27489,16554,30170,0,0,0
27485,16548,30159,0,0,0
27483,16546,30152,0,0,0
27483,16544,30146,0,0,0
27487,16545,30141,0,0,0
27491,16548,30137,0,0,0
27493,16553,30131,0,0,0
27496,16557,30126,0,0,0
27496,16558,30122,0,0,0
27491,16555,30114,0,0,0
27480,16547,30099,0,0,0
27466,16536,30080,0,0,0
27449,16524,30055,0,0,0
27425,16512,30023,0,0,0
27398,16498,29984,0,0,0
27368,16481,29939,0,0,0
27334,16459,29885,0,0,0
27294,16432,29822,0,0,0
27248,16401,29748,0,0,0
27198,16371,29666,0,0,0
27143,16338,29578,0,0,0
27085,16300,29486,0,0,0
27024,16259,29391,0,0,0
26959,16218,29292,0,0,0
26890,16174,29186,0,0,0
26818,16125,29071,0,0,0
26743,16072,28950,0,0,0
26669,16019,28828,0,0,0
26593,15966,28703,0,0,0
26515,15911,28575,0,0,0
26437,15858,28446,0,0,0
26358,15807,28316,0,0,0
26276,15756,28186,0,0,0
26191,15702,28054,0,0,0
26104,15647,27922,0,0,0
26018,15593,27793,0,0,0
25933,15541,27668,0,0,0
25854,15492,27547,0,0,0
25779,15444,27431,0,0,0
25706,15396,27318,0,0,0
25637,15349,27205,0,0,0
25568,15302,27091,0,0,0
25499,15254,26974,0,0,0
25430,15203,26857,0,0,0
25363,15152,26740,0,0,0
25296,15101,26623,0,0,0
25232,15055,26510,0,0,0
25169,15014,26401,0,0,0
25105,14976,26297,0,0,0
25043,14938,26197,0,0,0
24986,14905,26104,0,0,0
24936,14877,26017,0,0,0
24889,14853,25934,0,0,0
24844,14829,25855,0,0,0
24802,14804,25780,0,0,0
24761,14778,25707,0,0,0
24722,14752,25636,0,0,0
24679,14724,25568,0,0,0
24635,14697,25505,0,0,0
24588,14669,25443,0,0,0
24538,14638,25379,0,0,0
24488,14606,25311,0,0,0
24438,14574,25244,0,0,0
24389,14544,25179,0,0,0
24345,14518,25115,0,0,0
24303,14491,25050,0,0,0
24264,14462,24982,0,0,0
24228,14435,24915,0,0,0
24196,14413,24852,0,0,0
24165,14391,24795,0,0,0
24134,14369,24741,0,0,0
24100,14348,24687,0,0,0
24064,14326,24632,0,0,0
24025,14303,24574,0,0,0
23984,14281,24512,0,0,0
23941,14259,24446,0,0,0
23898,14236,24378,0,0,0
23854,14213,24310,0,0,0
23809,14189,24244,0,0,0
23761,14163,24176,0,0,0
23710,14136,24105,0,0,0
23658,14105,24029,0,0,0
23604,14072,23950,0,0,0
23551,14036,23870,0,0,0
23498,13997,23789,0,0,0
23448,13960,23710,0,0,0
23397,13926,23632,0,0,0
23340,13890,23552,0,0,0
23281,13852,23466,0,0,0
23222,13812,23375,0,0,0
23161,13771,23282,0,0,0
23099,13732,23189,0,0,0
23036,13694,23095,0,0,0
22976,13660,23004,0,0,0
22920,13633,22919,0,0,0
22874,13613,22848,0,0,0
22849,13602,22803,0,0,0
22857,13610,22802,0,0,0
22904,13643,22859,0,0,0
23001,13707,22987,0,0,0
23158,13804,23196,0,0,0
23373,13938,23483,0,0,0
23636,14104,23849,0,0,0
23940,14300,24286,0,0,0
24280,14519,24782,0,0,0
24652,14758,25326,0,0,0
25045,15010,25902,0,0,0
25452,15271,26496,0,0,0
25865,15538,27098,0,0,0
26272,15805,27699,0,0,0
26665,16064,28290,0,0,0
