green_channel,red_channel,ir_channel,Anomaly_ch0,Anomaly_ch1,Anomaly_ch2
26571,7851,28535,0,0,0
26525,7834,28492,0,0,0
26507,7819,28450,0,0,0
26493,7807,28411,0,0,0
26451,7791,28373,0,0,0
26404,7772,28334,0,0,0
26381,7753,28298,0,0,0
26357,7733,28266,0,0,0
26311,7711,28239,0,0,0
26267,7691,28210,0,0,0
26246,7671,28178,0,0,0
26220,7649,28145,0,0,0
26176,7628,28110,0,0,0
26142,7608,28075,0,0,0
26131,7592,28043,0,0,0
26113,7582,28017,0,0,0
26074,7574,27993,0,0,0
26047,7564,27967,0,0,0
26039,7554,27941,0,0,0
26019,7544,27914,0,0,0
25980,7532,27881,0,0,0
25956,7516,27843,0,0,0
25949,7502,27807,0,0,0
25926,7492,27774,0,0,0
25886,7483,27743,0,0,0
25866,7477,27716,0,0,0
25859,7469,27689,0,0,0
25832,7460,27660,0,0,0
25788,7448,27629,0,0,0
25761,7432,27593,0,0,0
25745,7418,27552,0,0,0
25708,7401,27510,0,0,0
25659,7381,27464,0,0,0
25630,7364,27418,0,0,0
25610,7351,27375,0,0,0
25566,7336,27331,0,0,0
25510,7316,27285,0,0,0
25469,7294,27234,0,0,0
25431,7271,27180,0,0,0
25371,7246,27124,0,0,0
25311,7220,27068,0,0,0
25285,7202,27018,0,0,0
25271,7192,26979,0,0,0
25244,7186,26953,0,0,0
25231,7189,26948,0,0,0
25266,7207,26978,0,0,0
25330,7239,27045,0,0,0
25403,7285,27146,0,0,0
25508,7344,27280,0,0,0
25668,7419,27445,0,0,0
25851,7508,27641,0,0,0
26034,7607,27863,0,0,0
26237,7711,28103,0,0,0
26473,7820,28357,0,0,0
26705,7935,28622,0,0,0
26911,8050,28888,0,0,0
27119,8159,29142,0,0,0
27338,8259,29379,0,0,0
27537,8351,29602,0,0,0
27702,8436,29809,0,0,0
27864,8512,29999,0,0,0
28027,8583,30173,0,0,0
28158,8649,30331,0,0,0
28254,8705,30471,0,0,0
28348,8749,30591,0,0,0
28437,8782,30693,0,0,0
28483,8803,30774,0,0,0
28492,8813,30831,0,0,0
28505,8816,30867,0,0,0
28526,8817,30889,0,0,0
28524,8815,30898,0,0,0
28504,8810,30894,0,0,0
28499,8802,30883,0,0,0
28498,8793,30865,0,0,0
28470,8782,30841,0,0,0
28426,8768,30812,0,0,0
28402,8755,30781,0,0,0
28389,8744,30747,0,0,0
28358,8733,30714,0,0,0
28321,8721,30681,0,0,0
28303,8707,30650,0,0,0
28290,8694,30621,0,0,0
28256,8683,30594,0,0,0
28218,8671,30564,0,0,0
28204,8660,30531,0,0,0
28192,8650,30493,0,0,0
28151,8635,30449,0,0,0
28103,8615,30398,0,0,0
28076,8595,30342,0,0,0
28050,8574,30284,0,0,0
28003,8551,30227,0,0,0
27960,8528,30169,0,0,0
27941,8509,30114,0,0,0
27916,8495,30068,0,0,0
27867,8480,30030,0,0,0
27821,8465,29995,0,0,0
27798,8453,29963,0,0,0
27775,8447,29936,0,0,0
27739,8439,29913,0,0,0
27718,8428,29893,0,0,0
27726,8422,29883,0,0,0
27731,8421,29882,0,0,0
27725,8423,29889,0,0,0
27737,8428,29902,0,0,0
27770,8437,29917,0,0,0
27786,8447,29932,0,0,0
27786,8455,29946,0,0,0
27805,8465,29960,0,0,0
27845,8479,29978,0,0,0
27869,8495,29994,0,0,0
27875,8507,30006,0,0,0
27897,8516,30015,0,0,0
27929,8523,30024,0,0,0
27939,8528,30035,0,0,0
27933,8528,30042,0,0,0
27939,8526,30043,0,0,0
27951,8523,30039,0,0,0
27938,8518,30030,0,0,0
27910,8511,30016,0,0,0
27905,8505,29999,0,0,0
27911,8500,29983,0,0,0
27894,8494,29964,0,0,0
27862,8483,29938,0,0,0
27843,8467,29901,0,0,0
27824,8449,29856,0,0,0
27773,8426,29810,0,0,0
27714,8399,29760,0,0,0
27673,8371,29703,0,0,0
27634,8347,29641,0,0,0
27574,8323,29580,0,0,0
27509,8297,29520,0,0,0
27463,8274,29459,0,0,0
27417,8252,29398,0,0,0
27348,8228,29332,0,0,0
27279,8199,29262,0,0,0
27229,8170,29192,0,0,0
27171,8141,29126,0,0,0
27095,8113,29061,0,0,0
27031,8086,28996,0,0,0
26996,8064,28934,0,0,0
26957,8045,28876,0,0,0
26899,8023,28820,0,0,0
26850,7998,28762,0,0,0
26819,7975,28703,0,0,0
26772,7952,28647,0,0,0
26708,7929,28593,0,0,0
26662,7908,28539,0,0,0
26639,7891,28491,0,0,0
26606,7875,28448,0,0,0
26554,7856,28405,0,0,0
26516,7836,28363,0,0,0
26493,7815,28319,0,0,0
26456,7794,28271,0,0,0
26406,7770,28218,0,0,0
26375,7747,28165,0,0,0
26361,7726,28119,0,0,0
26328,7708,28080,0,0,0
26285,7692,28046,0,0,0
26264,7682,28017,0,0,0
26256,7678,27993,0,0,0
26227,7675,27970,0,0,0
26184,7668,27942,0,0,0
26156,7656,27910,0,0,0
26133,7643,27873,0,0,0
26087,7628,27834,0,0,0
26037,7611,27793,0,0,0
26013,7595,27756,0,0,0
25997,7580,27725,0,0,0
25962,7565,27696,0,0,0
25924,7548,27662,0,0,0
25907,7532,27628,0,0,0
25893,7523,27600,0,0,0
25861,7517,27574,0,0,0
25832,7512,27543,0,0,0
25826,7506,27508,0,0,0
25821,7500,27477,0,0,0
25799,7493,27450,0,0,0
25781,7485,27428,0,0,0
25782,7477,27406,0,0,0
25776,7469,27385,0,0,0
25748,7459,27361,0,0,0
25725,7446,27332,0,0,0
25716,7429,27296,0,0,0
25692,7411,27257,0,0,0
25648,7391,27216,0,0,0
25613,7371,27171,0,0,0
25592,7355,27130,0,0,0
25554,7340,27091,0,0,0
25493,7325,27047,0,0,0
25444,7307,27000,0,0,0
25415,7287,26951,0,0,0
25374,7265,26897,0,0,0
25318,7241,26840,0,0,0
25281,7219,26783,0,0,0
25267,7205,26735,0,0,0
25248,7201,26705,0,0,0
25231,7204,26697,0,0,0
25258,7218,26718,0,0,0
25327,7248,26778,0,0,0
25410,7293,26879,0,0,0
25515,7350,27017,0,0,0
25673,7423,27188,0,0,0
25869,7511,27391,0,0,0
26068,7613,27618,0,0,0
26275,7723,27861,0,0,0
26516,7839,28116,0,0,0
26772,7958,28385,0,0,0
27006,8078,28665,0,0,0
27228,8195,28941,0,0,0
27464,8311,29209,0,0,0
27697,8424,29467,0,0,0
27898,8526,29709,0,0,0
28081,8618,29929,0,0,0
28267,8702,30128,0,0,0
28433,8780,30309,0,0,0
28558,8847,30468,0,0,0
28668,8904,30605,0,0,0
28775,8951,30722,0,0,0
28855,8987,30820,0,0,0
28894,9015,30899,0,0,0
28919,9034,30958,0,0,0
28945,9042,30997,0,0,0
28942,9039,31016,0,0,0
28898,9024,31015,0,0,0
28847,9000,30994,0,0,0
28806,8971,30958,0,0,0
28754,8941,30914,0,0,0
28684,8911,30866,0,0,0
28631,8886,30817,0,0,0
28602,8870,30776,0,0,0
28565,8857,30745,0,0,0
28519,8842,30717,0,0,0
28496,8828,30695,0,0,0
28496,8819,30678,0,0,0
28486,8811,30660,0,0,0
28470,8805,30640,0,0,0
28475,8803,30621,0,0,0
28490,8803,30604,0,0,0
28480,8800,30585,0,0,0
28449,8788,30556,0,0,0
28424,8771,30520,0,0,0
28401,8754,30482,0,0,0
28353,8733,30436,0,0,0
28291,8710,30378,0,0,0
28244,8687,30316,0,0,0
28201,8667,30255,0,0,0
28137,8647,30193,0,0,0
28068,8623,30129,0,0,0
28019,8599,30066,0,0,0
27975,8574,30007,0,0,0
27913,8548,29950,0,0,0
27850,8521,29894,0,0,0
27813,8496,29846,0,0,0
27789,8476,29809,0,0,0
27758,8462,29784,0,0,0
27740,8453,29768,0,0,0
27753,8452,29765,0,0,0
27773,8460,29773,0,0,0
27780,8471,29793,0,0,0
27794,8485,29820,0,0,0
27835,8502,29848,0,0,0
27877,8521,29876,0,0,0
27902,8536,29903,0,0,0
27936,8547,29931,0,0,0
27992,8562,29959,0,0,0
28040,8580,29984,0,0,0
28068,8599,30006,0,0,0
28103,8619,30028,0,0,0
28151,8641,30048,0,0,0
28178,8660,30066,0,0,0
28182,8673,30077,0,0,0
28195,8684,30083,0,0,0
28222,8691,30085,0,0,0
28230,8692,30079,0,0,0
28222,8690,30066,0,0,0
28231,8689,30048,0,0,0
28252,8689,30028,0,0,0
28251,8686,30006,0,0,0
28230,8678,29982,0,0,0
28222,8669,29954,0,0,0
28220,8659,29926,0,0,0
28195,8646,29894,0,0,0
28153,8628,29855,0,0,0
28124,8608,29808,0,0,0
28099,8587,29760,0,0,0
28055,8565,29712,0,0,0
28004,8542,29662,0,0,0
27973,8521,29614,0,0,0
27941,8499,29565,0,0,0
27880,8476,29510,0,0,0
27810,8448,29447,0,0,0
27764,8420,29381,0,0,0
27727,8394,29316,0,0,0
27673,8368,29253,0,0,0
27623,8343,29190,0,0,0
27599,8322,29132,0,0,0
27579,8305,29078,0,0,0
27541,8288,29029,0,0,0
27509,8271,28987,0,0,0
27500,8260,28949,0,0,0
27485,8248,28913,0,0,0
27447,8232,28877,0,0,0
27412,8210,28836,0,0,0
27398,8187,28793,0,0,0
27379,8166,28753,0,0,0
27340,8147,28717,0,0,0
27312,8128,28684,0,0,0
27306,8113,28654,0,0,0
27292,8100,28626,0,0,0
27258,8090,28593,0,0,0
27234,8082,28557,0,0,0
27229,8076,28523,0,0,0
27210,8070,28490,0,0,0
27178,8061,28457,0,0,0
27167,8051,28425,0,0,0
27176,8043,28399,0,0,0
27173,8038,28382,0,0,0
27163,8032,28366,0,0,0
27182,8023,28355,0,0,0
27218,8014,28353,0,0,0
27226,8008,28352,0,0,0
27211,8002,28340,0,0,0
27202,7995,28319,0,0,0
27197,7989,28297,0,0,0
27170,7984,28275,0,0,0
27125,7978,28249,0,0,0
27094,7970,28218,0,0,0
27066,7962,28185,0,0,0
27017,7950,28148,0,0,0
26959,7933,28107,0,0,0
26919,7913,28062,0,0,0
26886,7893,28016,0,0,0
26841,7876,27969,0,0,0
26801,7863,27923,0,0,0
26789,7854,27883,0,0,0
26782,7846,27849,0,0,0
26750,7835,27815,0,0,0
26707,7818,27779,0,0,0
26678,7801,27741,0,0,0
26644,7780,27699,0,0,0
26585,7754,27649,0,0,0
26526,7722,27591,0,0,0
26491,7689,27529,0,0,0
26455,7655,27467,0,0,0
26398,7620,27407,0,0,0
26347,7587,27350,0,0,0
26325,7564,27305,0,0,0
26305,7554,27279,0,0,0
26283,7554,27273,0,0,0
26294,7567,27290,0,0,0
26352,7598,27339,0,0,0
26431,7647,27425,0,0,0
26522,7709,27545,0,0,0
26651,7780,27698,0,0,0
26818,7862,27883,0,0,0
26989,7954,28095,0,0,0
27160,8052,28328,0,0,0
27358,8154,28571,0,0,0
27580,8258,28818,0,0,0
27793,8362,29065,0,0,0
27996,8465,29309,0,0,0
28215,8565,29549,0,0,0
28443,8662,29787,0,0,0
28647,8754,30018,0,0,0
28822,8838,30234,0,0,0
28993,8916,30435,0,0,0
29152,8987,30619,0,0,0
29273,9051,30779,0,0,0
29369,9105,30912,0,0,0
29465,9151,31021,0,0,0
29552,9188,31113,0,0,0
29607,9216,31186,0,0,0
29643,9236,31242,0,0,0
29683,9251,31289,0,0,0
29714,9262,31327,0,0,0
29716,9267,31352,0,0,0
29707,9268,31361,0,0,0
29708,9265,31360,0,0,0
29703,9261,31351,0,0,0
29673,9254,31335,0,0,0
29642,9245,31313,0,0,0
29633,9237,31286,0,0,0
29625,9230,31257,0,0,0
29601,9221,31227,0,0,0
29581,9209,31199,0,0,0
29581,9196,31174,0,0,0
29580,9185,31150,0,0,0
29559,9175,31126,0,0,0
29537,9164,31098,0,0,0
29521,9153,31065,0,0,0
29486,9140,31026,0,0,0
29427,9125,30981,0,0,0
29380,9110,30932,0,0,0
29354,9098,30885,0,0,0
29322,9088,30842,0,0,0
29278,9077,30801,0,0,0
29250,9066,30761,0,0,0
29240,9056,30723,0,0,0
29218,9046,30687,0,0,0
29178,9031,30652,0,0,0
29150,9013,30619,0,0,0
29141,8998,30592,0,0,0
29121,8985,30568,0,0,0
29095,8973,30544,0,0,0
29092,8966,30525,0,0,0
29105,8965,30512,0,0,0
29108,8967,30503,0,0,0
29107,8969,30497,0,0,0
29125,8973,30497,0,0,0
29155,8984,30502,0,0,0
29175,8999,30511,0,0,0
29198,9018,30525,0,0,0
29248,9037,30546,0,0,0
29306,9058,30573,0,0,0
29346,9077,30602,0,0,0
29379,9093,30630,0,0,0
29426,9110,30657,0,0,0
29469,9126,30680,0,0,0
29486,9138,30697,0,0,0
29496,9146,30709,0,0,0
29522,9151,30717,0,0,0
29545,9156,30722,0,0,0
29544,9160,30722,0,0,0
29537,9161,30716,0,0,0
29538,9158,30702,0,0,0
29527,9153,30682,0,0,0
29488,9141,30657,0,0,0
29448,9123,30628,0,0,0
29420,9101,30595,0,0,0
29384,9078,30556,0,0,0
29329,9051,30511,0,0,0
29279,9020,30461,0,0,0
29243,8989,30409,0,0,0
29195,8957,30353,0,0,0
29127,8926,30289,0,0,0
29068,8897,30220,0,0,0
29023,8869,30149,0,0,0
28967,8842,30075,0,0,0
28900,8815,29996,0,0,0
28847,8790,29916,0,0,0
28811,8770,29840,0,0,0
28759,8746,29764,0,0,0
28687,8717,29686,0,0,0
28627,8686,29609,0,0,0
28574,8654,29535,0,0,0
28499,8618,29458,0,0,0
28405,8577,29376,0,0,0
28320,8533,29291,0,0,0
28241,8489,29209,0,0,0
28147,8446,29127,0,0,0
28046,8403,29043,0,0,0
27958,8360,28960,0,0,0
27872,8316,28875,0,0,0
27767,8269,28785,0,0,0
27655,8220,28687,0,0,0
27561,8172,28589,0,0,0
27475,8126,28497,0,0,0
27376,8083,28409,0,0,0
27283,8041,28328,0,0,0
27217,8006,28256,0,0,0
27159,7976,28194,0,0,0
27084,7946,28138,0,0,0
27013,7916,28085,0,0,0
26966,7887,28033,0,0,0
26924,7861,27978,0,0,0
26866,7835,27920,0,0,0
26815,7810,27861,0,0,0
26791,7792,27809,0,0,0
26766,7780,27765,0,0,0
26724,7771,27726,0,0,0
26686,7762,27689,0,0,0
26661,7751,27651,0,0,0
26626,7736,27609,0,0,0
26574,7715,27564,0,0,0
26530,7691,27522,0,0,0
26506,7670,27486,0,0,0
26476,7652,27451,0,0,0
26432,7635,27416,0,0,0
26399,7618,27380,0,0,0
26384,7605,27346,0,0,0
26359,7595,27313,0,0,0
26319,7584,27278,0,0,0
26297,7571,27243,0,0,0
26295,7563,27216,0,0,0
26287,7558,27197,0,0,0
26273,7554,27180,0,0,0
26277,7554,27167,0,0,0
26292,7555,27158,0,0,0
26288,7556,27152,0,0,0
26260,7555,27138,0,0,0
26237,7550,27114,0,0,0
26219,7540,27082,0,0,0
26181,7525,27043,0,0,0
26132,7504,27000,0,0,0
26100,7484,26954,0,0,0
26075,7468,26906,0,0,0
26032,7452,26855,0,0,0
25984,7436,26803,0,0,0
25953,7423,26755,0,0,0
25926,7411,26710,0,0,0
25883,7395,26663,0,0,0
25839,7377,26618,0,0,0
25819,7363,26585,0,0,0
25813,7354,26567,0,0,0
25808,7353,26571,0,0,0
25836,7366,26608,0,0,0
25923,7399,26685,0,0,0
26052,7456,26806,0,0,0
26202,7533,26971,0,0,0
26385,7628,27178,0,0,0
26607,7737,27417,0,0,0
26842,7853,27677,0,0,0
27063,7970,27943,0,0,0
27287,8083,28210,0,0,0
27522,8192,28476,0,0,0
27742,8296,28736,0,0,0
27945,8393,28991,0,0,0
28156,8485,29237,0,0,0
28369,8578,29473,0,0,0
28547,8671,29693,0,0,0
28687,8758,29894,0,0,0
28827,8836,30077,0,0,0
28968,8908,30243,0,0,0
29079,8968,30391,0,0,0
29160,9016,30517,0,0,0
29243,9054,30621,0,0,0
29327,9089,30712,0,0,0
29385,9117,30788,0,0,0
29421,9137,30849,0,0,0
29468,9151,30900,0,0,0
29522,9164,30941,0,0,0
29551,9176,30970,0,0,0
29559,9183,30983,0,0,0
29568,9185,30982,0,0,0
29572,9178,30967,0,0,0
29550,9162,30941,0,0,0
29519,9142,30908,0,0,0
29506,9127,30874,0,0,0
29497,9118,30843,0,0,0
29465,9108,30815,0,0,0
29429,9096,30789,0,0,0
29412,9085,30764,0,0,0
29398,9078,30739,0,0,0
29369,9070,30711,0,0,0
29341,9059,30680,0,0,0
29334,9048,30646,0,0,0
29327,9038,30611,0,0,0
29301,9027,30574,0,0,0
29277,9015,30535,0,0,0
29271,9005,30502,0,0,0
29261,8994,30474,0,0,0
29228,8982,30442,0,0,0
29195,8966,30404,0,0,0
29176,8949,30361,0,0,0
29151,8931,30313,0,0,0
29107,8911,30263,0,0,0
29070,8892,30213,0,0,0
29058,8878,30172,0,0,0
29045,8871,30142,0,0,0
29017,8863,30117,0,0,0
28997,8855,30095,0,0,0
28989,8847,30078,0,0,0
28970,8838,30063,0,0,0
28937,8824,30045,0,0,0
28920,8811,30028,0,0,0
28927,8804,30020,0,0,0
28932,8800,30018,0,0,0
28933,8799,30020,0,0,0
28955,8803,30028,0,0,0
28993,8813,30043,0,0,0
29016,8825,30058,0,0,0
29022,8835,30071,0,0,0
29038,8845,30085,0,0,0
29063,8856,30103,0,0,0
29070,8866,30121,0,0,0
29069,8873,30136,0,0,0
29086,8879,30146,0,0,0
29112,8885,30154,0,0,0
29124,8892,30160,0,0,0
29123,8897,30162,0,0,0
29132,8901,30158,0,0,0
29142,8905,30149,0,0,0
29130,8905,30134,0,0,0
29115,8901,30115,0,0,0
29124,8899,30093,0,0,0
29139,8900,30073,0,0,0
29139,8903,30054,0,0,0
29135,8902,30028,0,0,0
29140,8899,29999,0,0,0
29134,8896,29968,0,0,0
29101,8890,29932,0,0,0
29061,8873,29887,0,0,0
29027,8847,29834,0,0,0
28978,8814,29772,0,0,0
28903,8775,29705,0,0,0
28829,8737,29636,0,0,0
28774,8702,29570,0,0,0
28713,8669,29501,0,0,0
28633,8635,29426,0,0,0
28559,8599,29350,0,0,0
28502,8564,29277,0,0,0
28439,8529,29207,0,0,0
28365,8493,29135,0,0,0
28309,8458,29062,0,0,0
28273,8428,28994,0,0,0
28227,8403,28934,0,0,0
28171,8383,28881,0,0,0
28133,8366,28834,0,0,0
28114,8351,28790,0,0,0
28083,8336,28746,0,0,0
28039,8318,28699,0,0,0
28004,8298,28651,0,0,0
27978,8282,28605,0,0,0
27937,8266,28557,0,0,0
27882,8247,28507,0,0,0
27844,8228,28463,0,0,0
27815,8210,28423,0,0,0
27766,8189,28383,0,0,0
27704,8162,28335,0,0,0
27654,8134,28283,0,0,0
27609,8107,28234,0,0,0
27549,8081,28188,0,0,0
27493,8057,28144,0,0,0
27465,8040,28104,0,0,0
27448,8028,28070,0,0,0
27420,8018,28038,0,0,0
27398,8011,28012,0,0,0
27403,8009,27992,0,0,0
27415,8012,27978,0,0,0
27414,8018,27972,0,0,0
27416,8024,27969,0,0,0
27438,8030,27971,0,0,0
27460,8038,27975,0,0,0
27465,8045,27983,0,0,0
27472,8053,27994,0,0,0
27490,8060,28003,0,0,0
27497,8064,28002,0,0,0
27480,8062,27988,0,0,0
27461,8055,27964,0,0,0
27452,8047,27933,0,0,0
27428,8037,27897,0,0,0
27385,8025,27859,0,0,0
27352,8013,27818,0,0,0
27335,8002,27779,0,0,0
27305,7986,27740,0,0,0
27255,7965,27698,0,0,0
27215,7944,27651,0,0,0
27195,7925,27604,0,0,0
27166,7909,27561,0,0,0
27125,7894,27521,0,0,0
27103,7884,27486,0,0,0
27100,7875,27454,0,0,0
27086,7866,27421,0,0,0
27066,7857,27394,0,0,0
27078,7856,27385,0,0,0
27122,7870,27399,0,0,0
27175,7900,27443,0,0,0
27243,7942,27523,0,0,0
27355,7996,27638,0,0,0
27499,8064,27787,0,0,0
27647,8144,27961,0,0,0
27805,8232,28153,0,0,0
27995,8330,28364,0,0,0
28205,8436,28596,0,0,0
28405,8543,28841,0,0,0
28602,8645,29088,0,0,0
28812,8743,29329,0,0,0
29015,8837,29564,0,0,0
29187,8924,29791,0,0,0
29351,9004,30005,0,0,0
29526,9080,30207,0,0,0
29693,9155,30399,0,0,0
29830,9229,30582,0,0,0
29960,9296,30753,0,0,0
30098,9361,30910,0,0,0
30221,9418,31052,0,0,0
30311,9465,31173,0,0,0
30389,9501,31272,0,0,0
30467,9530,31351,0,0,0
30525,9553,31412,0,0,0
30553,9571,31456,0,0,0
30578,9583,31488,0,0,0
30609,9587,31508,0,0,0
30617,9587,31518,0,0,0
30592,9580,31513,0,0,0
30562,9568,31495,0,0,0
30544,9553,31469,0,0,0
30515,9534,31436,0,0,0
30472,9514,31399,0,0,0
30440,9494,31360,0,0,0
30418,9473,31317,0,0,0
30379,9452,31270,0,0,0
30324,9426,31216,0,0,0
30278,9395,31159,0,0,0
30246,9366,31107,0,0,0
30203,9338,31056,0,0,0
30152,9309,31000,0,0,0
30114,9284,30943,0,0,0
30083,9261,30886,0,0,0
30028,9235,30827,0,0,0
29958,9210,30763,0,0,0
29905,9185,30700,0,0,0
29861,9161,30640,0,0,0
29803,9137,30583,0,0,0
29739,9115,30529,0,0,0
29694,9097,30480,0,0,0
29660,9082,30438,0,0,0
29617,9069,30400,0,0,0
29582,9058,30366,0,0,0
29578,9052,30338,0,0,0
29588,9050,30314,0,0,0
29585,9048,30299,0,0,0
29587,9046,30296,0,0,0
29612,9049,30301,0,0,0
29639,9052,30310,0,0,0
29644,9051,30318,0,0,0
29646,9048,30327,0,0,0
29666,9045,30341,0,0,0
29686,9045,30360,0,0,0
29691,9049,30383,0,0,0
29702,9055,30408,0,0,0
29728,9062,30434,0,0,0
29741,9069,30457,0,0,0
29731,9071,30471,0,0,0
29725,9070,30473,0,0,0
29731,9071,30470,0,0,0
29726,9073,30465,0,0,0
29708,9075,30457,0,0,0
29703,9076,30447,0,0,0
29710,9074,30435,0,0,0
29702,9068,30416,0,0,0
29673,9055,30387,0,0,0
29648,9038,30350,0,0,0
29629,9020,30313,0,0,0
29590,8998,30274,0,0,0
29538,8973,30227,0,0,0
29500,8947,30175,0,0,0
29472,8927,30125,0,0,0
29429,8910,30076,0,0,0
29374,8891,30025,0,0,0
29332,8869,29972,0,0,0
29296,8846,29919,0,0,0
29242,8820,29861,0,0,0
29180,8792,29797,0,0,0
29134,8764,29728,0,0,0
29096,8737,29658,0,0,0
29042,8710,29586,0,0,0
28979,8683,29514,0,0,0
28929,8658,29447,0,0,0
28879,8632,29382,0,0,0
28805,8602,29312,0,0,0
28729,8571,29241,0,0,0
28675,8542,29175,0,0,0
28627,8513,29114,0,0,0
28562,8481,29052,0,0,0
28499,8450,28990,0,0,0
28460,8425,28933,0,0,0
28428,8407,28883,0,0,0
28387,8392,28840,0,0,0
28357,8378,28799,0,0,0
28347,8368,28761,0,0,0
28332,8360,28724,0,0,0
28299,8347,28687,0,0,0
28272,8333,28649,0,0,0
28264,8322,28614,0,0,0
28248,8312,28581,0,0,0
28212,8301,28547,0,0,0
28178,8289,28512,0,0,0
28153,8276,28477,0,0,0
28113,8261,28442,0,0,0
28059,8241,28403,0,0,0
28017,8216,28358,0,0,0
27995,8193,28319,0,0,0
27967,8174,28284,0,0,0
27929,8159,28251,0,0,0
27905,8144,28219,0,0,0
27891,8130,28189,0,0,0
27860,8115,28159,0,0,0
27817,8099,28124,0,0,0
27789,8084,28088,0,0,0
27774,8074,28056,0,0,0
27745,8066,28031,0,0,0
27703,8055,28009,0,0,0
27675,8043,27986,0,0,0
27655,8031,27962,0,0,0
27621,8017,27937,0,0,0
27582,7999,27908,0,0,0
27561,7980,27876,0,0,0
27549,7963,27844,0,0,0
27524,7947,27810,0,0,0
27497,7933,27772,0,0,0
27487,7922,27734,0,0,0
27478,7914,27696,0,0,0
27449,7905,27661,0,0,0
27416,7895,27626,0,0,0
27398,7884,27592,0,0,0
27383,7875,27562,0,0,0
27361,7871,27544,0,0,0
27358,7876,27547,0,0,0
27397,7894,27578,0,0,0
27467,7929,27645,0,0,0
27556,7979,27751,0,0,0
27686,8044,27895,0,0,0
27862,8126,28074,0,0,0
28057,8222,28283,0,0,0
28256,8328,28513,0,0,0
28478,8439,28761,0,0,0
28729,8556,29025,0,0,0
28982,8678,29300,0,0,0
29220,8800,29576,0,0,0
29458,8920,29846,0,0,0
29697,9039,30108,0,0,0
29911,9152,30358,0,0,0
30099,9255,30592,0,0,0
30288,9346,30809,0,0,0
30481,9431,31011,0,0,0
30647,9509,31199,0,0,0
30785,9577,31370,0,0,0
30920,9639,31521,0,0,0
31049,9693,31651,0,0,0
31143,9737,31759,0,0,0
31208,9773,31845,0,0,0
31273,9804,31914,0,0,0
31331,9828,31967,0,0,0
31359,9842,32002,0,0,0
31371,9849,32022,0,0,0
31392,9851,32031,0,0,0
31410,9852,32033,0,0,0
31403,9850,32024,0,0,0
31380,9842,32006,0,0,0
31366,9830,31983,0,0,0
31349,9814,31954,0,0,0
31309,9796,31922,0,0,0
31265,9776,31891,0,0,0
31242,9758,31860,0,0,0
31225,9742,31828,0,0,0
31193,9728,31791,0,0,0
31159,9711,31751,0,0,0
31137,9694,31713,0,0,0
31110,9676,31676,0,0,0
31062,9655,31637,0,0,0
31014,9632,31593,0,0,0
30979,9609,31546,0,0,0
30940,9590,31498,0,0,0
30883,9569,31449,0,0,0
30832,9546,31398,0,0,0
30802,9527,31348,0,0,0
30768,9511,31300,0,0,0
30721,9495,31254,0,0,0
30684,9480,31211,0,0,0
30664,9468,31173,0,0,0
30637,9456,31139,0,0,0
30598,9442,31108,0,0,0
30575,9433,31084,0,0,0
30577,9430,31071,0,0,0
30577,9429,31065,0,0,0
30569,9428,31062,0,0,0
30574,9430,31064,0,0,0
30591,9433,31074,0,0,0
30594,9436,31089,0,0,0
30590,9439,31104,0,0,0
30605,9445,31120,0,0,0
30634,9453,31139,0,0,0
30651,9462,31157,0,0,0
30661,9473,31176,0,0,0
30688,9488,31197,0,0,0
30723,9503,31219,0,0,0
30737,9513,31233,0,0,0
30738,9515,31239,0,0,0
30749,9514,31241,0,0,0
30763,9512,31242,0,0,0
30756,9509,31240,0,0,0
30741,9504,31231,0,0,0
30740,9499,31219,0,0,0
30741,9497,31203,0,0,0
30720,9494,31181,0,0,0
30688,9486,31153,0,0,0
30664,9472,31120,0,0,0
30632,9453,31080,0,0,0
30574,9427,31033,0,0,0
30513,9397,30981,0,0,0
30468,9365,30925,0,0,0
30421,9334,30864,0,0,0
30359,9304,30803,0,0,0
30303,9275,30744,0,0,0
30264,9249,30687,0,0,0
30221,9225,30628,0,0,0
30164,9202,30564,0,0,0
30110,9176,30498,0,0,0
30067,9148,30432,0,0,0
30013,9121,30364,0,0,0
29944,9092,30296,0,0,0
29889,9062,30229,0,0,0
29855,9033,30168,0,0,0
29817,9008,30112,0,0,0
29769,8987,30061,0,0,0
29735,8968,30013,0,0,0
29710,8952,29964,0,0,0
29665,8937,29914,0,0,0
29602,8917,29859,0,0,0
29549,8894,29804,0,0,0
29509,8871,29748,0,0,0
29457,8847,29688,0,0,0
29397,8821,29630,0,0,0
29357,8801,29578,0,0,0
29329,8783,29532,0,0,0
29285,8763,29489,0,0,0
29232,8738,29445,0,0,0
29196,8714,29404,0,0,0
29170,8694,29369,0,0,0
29133,8671,29335,0,0,0
29093,8645,29296,0,0,0
29070,8622,29256,0,0,0
29056,8605,29222,0,0,0
29027,8592,29192,0,0,0
28996,8580,29163,0,0,0
28986,8570,29137,0,0,0
28977,8562,29112,0,0,0
28946,8553,29084,0,0,0
28907,8544,29050,0,0,0
28883,8534,29015,0,0,0
28864,8525,28979,0,0,0
28835,8515,28943,0,0,0
28812,8503,28907,0,0,0
28806,8493,28874,0,0,0
28793,8484,28845,0,0,0
28760,8471,28813,0,0,0
28724,8450,28775,0,0,0
28700,8426,28734,0,0,0
28669,8405,28697,0,0,0
28625,8386,28663,0,0,0
28589,8370,28630,0,0,0
28575,8360,28602,0,0,0
28558,8354,28577,0,0,0
28523,8345,28546,0,0,0
28488,8331,28510,0,0,0
28457,8310,28469,0,0,0
28408,8284,28420,0,0,0
28345,8255,28366,0,0,0
28292,8228,28309,0,0,0
28251,8206,28253,0,0,0
28201,8187,28197,0,0,0
28141,8167,28143,0,0,0
28100,8148,28098,0,0,0
28080,8134,28068,0,0,0
28064,8127,28057,0,0,0
28061,8129,28067,0,0,0
28100,8146,28110,0,0,0
28182,8181,28192,0,0,0
28289,8235,28311,0,0,0
28427,8307,28468,0,0,0
28613,8398,28664,0,0,0
28832,8503,28896,0,0,0
29056,8622,29151,0,0,0
29287,8747,29419,0,0,0
29539,8877,29696,0,0,0
29794,9007,29978,0,0,0
30028,9131,30259,0,0,0
30251,9245,30533,0,0,0
30481,9353,30796,0,0,0
30703,9458,31046,0,0,0
30896,9558,31281,0,0,0
31073,9649,31498,0,0,0
31246,9733,31698,0,0,0
31399,9810,31877,0,0,0
31518,9876,32033,0,0,0
31619,9930,32163,0,0,0
31715,9974,32272,0,0,0
31785,10006,32361,0,0,0
31816,10025,32427,0,0,0
31831,10034,32469,0,0,0
31847,10039,32492,0,0,0
31846,10042,32501,0,0,0
31827,10040,32500,0,0,0
31815,10032,32488,0,0,0
31812,10022,32469,0,0,0
31797,10009,32452,0,0,0
31762,9993,32433,0,0,0
31729,9975,32408,0,0,0
31705,9954,32377,0,0,0
31673,9930,32345,0,0,0
31635,9907,32311,0,0,0
31613,9886,32279,0,0,0
31602,9871,32250,0,0,0
31576,9860,32222,0,0,0
31538,9848,32190,0,0,0
31515,9836,32155,0,0,0
31500,9824,32122,0,0,0
31465,9807,32087,0,0,0
31414,9786,32046,0,0,0
31370,9763,31997,0,0,0
31333,9741,31946,0,0,0
31283,9717,31894,0,0,0
31229,9692,31840,0,0,0
31193,9672,31788,0,0,0
31162,9656,31740,0,0,0
31115,9640,31693,0,0,0
31066,9621,31649,0,0,0
31036,9602,31612,0,0,0
31016,9587,31584,0,0,0
30987,9575,31560,0,0,0
30962,9566,31538,0,0,0
30957,9560,31522,0,0,0
30955,9560,31513,0,0,0
30940,9562,31508,0,0,0
30927,9563,31508,0,0,0
30927,9566,31514,0,0,0
30925,9569,31523,0,0,0
30912,9569,31530,0,0,0
30908,9565,31535,0,0,0
30924,9561,31541,0,0,0
30940,9563,31551,0,0,0
30943,9567,31562,0,0,0
30948,9572,31571,0,0,0
30964,9575,31580,0,0,0
30973,9576,31588,0,0,0
30967,9575,31591,0,0,0
30968,9573,31590,0,0,0
30981,9575,31589,0,0,0
30983,9576,31584,0,0,0
30968,9575,31571,0,0,0
30959,9572,31553,0,0,0
30955,9566,31529,0,0,0
30932,9554,31501,0,0,0
30893,9537,31466,0,0,0
30859,9517,31428,0,0,0
30831,9496,31389,0,0,0
30786,9474,31346,0,0,0
30725,9449,31297,0,0,0
30673,9423,31245,0,0,0
30626,9397,31188,0,0,0
30560,9368,31123,0,0,0
30486,9334,31053,0,0,0
30426,9300,30983,0,0,0
30374,9268,30914,0,0,0
30312,9237,30845,0,0,0
30246,9206,30778,0,0,0
30195,9181,30714,0,0,0
30148,9160,30652,0,0,0
30083,9140,30585,0,0,0
30017,9116,30514,0,0,0
29970,9090,30443,0,0,0
29926,9064,30376,0,0,0
29865,9036,30311,0,0,0
29803,9006,30248,0,0,0
29759,8979,30190,0,0,0
29716,8953,30135,0,0,0
29654,8924,30079,0,0,0
29592,8893,30019,0,0,0
29544,8863,29954,0,0,0
29497,8833,29889,0,0,0
29441,8806,29825,0,0,0
29394,8786,29766,0,0,0
29366,8772,29717,0,0,0
29335,8758,29675,0,0,0
29290,8745,29632,0,0,0
29251,8733,29588,0,0,0
29224,8720,29544,0,0,0
29185,8703,29502,0,0,0
29133,8682,29458,0,0,0
29093,8661,29412,0,0,0
29065,8642,29368,0,0,0
29023,8622,29328,0,0,0
28970,8603,29287,0,0,0
28932,8586,29248,0,0,0
28907,8566,29213,0,0,0
28869,8541,29181,0,0,0
28824,8517,29147,0,0,0
28796,8498,29113,0,0,0
28780,8486,29082,0,0,0
28752,8475,29049,0,0,0
28714,8462,29012,0,0,0
28688,8445,28975,0,0,0
28672,8429,28941,0,0,0
28644,8413,28908,0,0,0
28612,8398,28873,0,0,0
28596,8386,28840,0,0,0
28588,8376,28811,0,0,0
28564,8369,28783,0,0,0
28533,8362,28755,0,0,0
28514,8357,28724,0,0,0
28493,8349,28691,0,0,0
28448,8334,28651,0,0,0
28397,8313,28604,0,0,0
28361,8290,28555,0,0,0
28329,8267,28508,0,0,0
28282,8242,28460,0,0,0
28232,8213,28409,0,0,0
28194,8184,28355,0,0,0
28152,8155,28299,0,0,0
28089,8125,28237,0,0,0
28025,8094,28170,0,0,0
27977,8064,28106,0,0,0
27929,8039,28046,0,0,0
27865,8019,27987,0,0,0
27803,8000,27929,0,0,0
27755,7981,27874,0,0,0
27707,7964,27823,0,0,0
27659,7950,27779,0,0,0
27640,7944,27753,0,0,0
27665,7954,27760,0,0,0
27718,7983,27808,0,0,0
27798,8029,27902,0,0,0
27927,8093,28043,0,0,0
28104,8175,28227,0,0,0
28302,8274,28445,0,0,0
28510,8383,28688,0,0,0
28743,8497,28949,0,0,0
28993,8619,29227,0,0,0
29235,8747,29520,0,0,0
29468,8874,29818,0,0,0
29712,8999,30115,0,0,0
29961,9123,30406,0,0,0
30189,9240,30686,0,0,0
30395,9346,30946,0,0,0
30598,9444,31185,0,0,0
30794,9538,31409,0,0,0
30964,9624,31617,0,0,0
31112,9700,31805,0,0,0
31258,9770,31971,0,0,0
31392,9831,32117,0,0,0
31493,9882,32240,0,0,0
31567,9920,32340,0,0,0
31633,9946,32421,0,0,0
31681,9966,32484,0,0,0
31695,9978,32528,0,0,0
31697,9981,32554,0,0,0
31706,9980,32569,0,0,0
31709,9976,32574,0,0,0
31689,9966,32566,0,0,0
31662,9952,32548,0,0,0
31645,9939,32523,0,0,0
31622,9926,32493,0,0,0
31578,9910,32453,0,0,0
31534,9890,32407,0,0,0
31505,9870,32361,0,0,0
31472,9850,32316,0,0,0
31428,9830,32275,0,0,0
31394,9810,32239,0,0,0
31376,9794,32208,0,0,0
31348,9783,32174,0,0,0
31302,9771,32134,0,0,0
31264,9757,32089,0,0,0
31235,9740,32037,0,0,0
31192,9716,31976,0,0,0
31133,9689,31912,0,0,0
31082,9661,31850,0,0,0
31045,9636,31795,0,0,0
31001,9615,31746,0,0,0
30949,9592,31699,0,0,0
30913,9569,31653,0,0,0
30889,9548,31610,0,0,0
30852,9530,31569,0,0,0
30810,9513,31531,0,0,0
30789,9498,31499,0,0,0
30787,9490,31480,0,0,0
30779,9489,31472,0,0,0
30765,9492,31469,0,0,0
30769,9498,31474,0,0,0
30782,9506,31487,0,0,0
30780,9514,31502,0,0,0
30773,9518,31517,0,0,0
30781,9522,31531,0,0,0
30794,9528,31546,0,0,0
30794,9533,31562,0,0,0
30799,9536,31575,0,0,0
30824,9541,31588,0,0,0
30853,9549,31601,0,0,0
30864,9557,31611,0,0,0
30872,9566,31618,0,0,0
30888,9576,31625,0,0,0
30897,9584,31632,0,0,0
30884,9583,31635,0,0,0
30868,9574,31633,0,0,0
30866,9562,31626,0,0,0
30861,9551,31615,0,0,0
30837,9539,31596,0,0,0
30811,9528,31572,0,0,0
30793,9516,31542,0,0,0
30763,9502,31504,0,0,0
30711,9482,31459,0,0,0
30661,9460,31410,0,0,0
30625,9438,31354,0,0,0
30581,9414,31294,0,0,0
30527,9390,31232,0,0,0
30486,9369,31172,0,0,0
30459,9349,31117,0,0,0
30418,9329,31062,0,0,0
30359,9304,31003,0,0,0
30309,9278,30940,0,0,0
30268,9250,30874,0,0,0
30211,9219,30803,0,0,0
30139,9182,30729,0,0,0
30074,9143,30654,0,0,0
30020,9110,30582,0,0,0
29959,9080,30513,0,0,0
29891,9050,30446,0,0,0
29840,9025,30386,0,0,0
29802,9008,30333,0,0,0
29753,8993,30281,0,0,0
29691,8976,30224,0,0,0
29642,8956,30164,0,0,0
29603,8935,30106,0,0,0
29555,8914,30051,0,0,0
29509,8895,29998,0,0,0
29479,8878,29948,0,0,0
29452,8861,29902,0,0,0
29409,8841,29857,0,0,0
29363,8818,29814,0,0,0
29332,8795,29773,0,0,0
29304,8770,29732,0,0,0
29262,8743,29687,0,0,0
29218,8716,29641,0,0,0
29187,8693,29597,0,0,0
29156,8677,29556,0,0,0
29112,8663,29519,0,0,0
29072,8647,29485,0,0,0
29047,8632,29453,0,0,0
29020,8617,29420,0,0,0
28979,8599,29382,0,0,0
28945,8581,29342,0,0,0
28929,8567,29306,0,0,0
28911,8557,29274,0,0,0
28878,8547,29243,0,0,0
28851,8534,29212,0,0,0
28833,8522,29180,0,0,0
28803,8510,29150,0,0,0
28756,8496,29118,0,0,0
28720,8480,29083,0,0,0
28697,8466,29044,0,0,0
28663,8453,29001,0,0,0
28619,8440,28957,0,0,0
28589,8428,28918,0,0,0
28573,8415,28883,0,0,0
28545,8399,28848,0,0,0
28502,8379,28812,0,0,0
28469,8362,28777,0,0,0
28445,8348,28743,0,0,0
28409,8335,28706,0,0,0
28366,8319,28666,0,0,0
28338,8305,28627,0,0,0
28319,8293,28589,0,0,0
28282,8280,28552,0,0,0
28233,8261,28510,0,0,0
28193,8237,28461,0,0,0
28155,8213,28408,0,0,0
28100,8188,28349,0,0,0
28040,8158,28285,0,0,0
27995,8128,28222,0,0,0
27949,8101,28160,0,0,0
27887,8075,28098,0,0,0
27825,8048,28035,0,0,0
27781,8021,27975,0,0,0
27744,8002,27925,0,0,0
27704,7991,27886,0,0,0
27686,7988,27868,0,0,0
27710,8000,27884,0,0,0
27771,8032,27944,0,0,0
27863,8083,28049,0,0,0
28004,8154,28202,0,0,0
28200,8249,28405,0,0,0
28426,8363,28651,0,0,0
28662,8488,28926,0,0,0
28914,8618,29216,0,0,0
29183,8749,29513,0,0,0
29449,8878,29811,0,0,0
29700,9002,30103,0,0,0
29951,9126,30388,0,0,0
30204,9248,30672,0,0,0
30430,9365,30948,0,0,0
30629,9471,31207,0,0,0
30823,9570,31449,0,0,0
31009,9663,31673,0,0,0
31163,9747,31875,0,0,0
31285,9817,32052,0,0,0
31399,9877,32203,0,0,0
31510,9928,32332,0,0,0
31595,9972,32436,0,0,0
31654,10006,32517,0,0,0
31712,10032,32580,0,0,0
31765,10050,32627,0,0,0
31789,10059,32658,0,0,0
31788,10058,32668,0,0,0
31786,10049,32663,0,0,0
31778,10035,32647,0,0,0
31742,10013,32622,0,0,0
31692,9988,32586,0,0,0
31655,9964,32546,0,0,0
31622,9942,32502,0,0,0
31576,9920,32456,0,0,0
31528,9897,32408,0,0,0
31493,9873,32364,0,0,0
31457,9851,32320,0,0,0
31403,9826,32270,0,0,0
31346,9800,32218,0,0,0
31303,9779,32170,0,0,0
31257,9760,32123,0,0,0
31190,9737,32069,0,0,0
31124,9709,32010,0,0,0
31074,9682,31947,0,0,0
31026,9656,31880,0,0,0
30966,9629,31811,0,0,0
30913,9602,31746,0,0,0
30876,9578,31689,0,0,0
30836,9556,31640,0,0,0
30785,9533,31594,0,0,0
30743,9510,31547,0,0,0
30711,9489,31505,0,0,0
30671,9470,31470,0,0,0
30628,9451,31439,0,0,0
30611,9433,31415,0,0,0
30622,9425,31402,0,0,0
30633,9425,31398,0,0,0
30642,9432,31400,0,0,0
30666,9443,31411,0,0,0
30699,9458,31430,0,0,0
30718,9474,31451,0,0,0
30727,9490,31472,0,0,0
30751,9506,31497,0,0,0
30786,9522,31525,0,0,0
30803,9536,31550,0,0,0
30809,9543,31572,0,0,0
30830,9549,31591,0,0,0
30859,9556,31609,0,0,0
30876,9565,31624,0,0,0
30885,9573,31636,0,0,0
30901,9581,31648,0,0,0
30914,9589,31658,0,0,0
30905,9594,31660,0,0,0
30884,9591,31650,0,0,0
30869,9584,31632,0,0,0
30855,9575,31607,0,0,0
30825,9561,31575,0,0,0
30792,9543,31539,0,0,0
30773,9528,31503,0,0,0
30749,9515,31469,0,0,0
30706,9500,31430,0,0,0
30660,9483,31384,0,0,0
30623,9466,31335,0,0,0
30580,9446,31283,0,0,0
30517,9417,31223,0,0,0
30451,9381,31156,0,0,0
30394,9342,31083,0,0,0
30332,9304,31007,0,0,0
30259,9269,30929,0,0,0
30196,9239,30854,0,0,0
30152,9217,30785,0,0,0
30103,9199,30723,0,0,0
30033,9177,30659,0,0,0
29966,9151,30593,0,0,0
29909,9122,30524,0,0,0
29843,9090,30454,0,0,0
29767,9057,30382,0,0,0
29704,9020,30308,0,0,0
29656,8984,30237,0,0,0
29600,8947,30167,0,0,0
29536,8914,30099,0,0,0
29491,8887,30038,0,0,0
29461,8863,29983,0,0,0
29421,8841,29934,0,0,0
29372,8819,29885,0,0,0
29338,8799,29836,0,0,0
29314,8781,29787,0,0,0
29278,8763,29734,0,0,0
29234,8744,29681,0,0,0
29199,8726,29630,0,0,0
29168,8710,29579,0,0,0
29124,8696,29529,0,0,0
29076,8678,29478,0,0,0
29044,8662,29435,0,0,0
29018,8650,29399,0,0,0
28980,8638,29367,0,0,0
28942,8627,29340,0,0,0
28923,8615,29318,0,0,0
28907,8602,29289,0,0,0
28875,8585,29254,0,0,0
28841,8566,29217,0,0,0
28823,8549,29186,0,0,0
28806,8531,29161,0,0,0
28775,8513,29137,0,0,0
28746,8495,29109,0,0,0
28728,8480,29078,0,0,0
28703,8465,29049,0,0,0
28660,8451,29019,0,0,0
28621,8433,28985,0,0,0
28600,8414,28949,0,0,0
28580,8396,28913,0,0,0
28552,8380,28881,0,0,0
28531,8366,28851,0,0,0
28516,8356,28818,0,0,0
28484,8349,28782,0,0,0
28438,8340,28742,0,0,0
28400,8329,28700,0,0,0
28373,8318,28656,0,0,0
28334,8305,28609,0,0,0
28285,8287,28561,0,0,0
28248,8268,28514,0,0,0
28225,8251,28474,0,0,0
28192,8236,28438,0,0,0
28144,8217,28398,0,0,0
28103,8194,28353,0,0,0
28064,8168,28303,0,0,0
28005,8136,28243,0,0,0
27933,8101,28172,0,0,0
27877,8067,28099,0,0,0
27834,8039,28035,0,0,0
27789,8014,27979,0,0,0
27755,7994,27938,0,0,0
27761,7989,27925,0,0,0
27804,8005,27951,0,0,0
27867,8043,28023,0,0,0
27962,8099,28142,0,0,0
28108,8173,28309,0,0,0
28293,8265,28524,0,0,0
28493,8372,28777,0,0,0
28713,8488,29054,0,0,0
28965,8614,29342,0,0,0
29233,8747,29632,0,0,0
29496,8880,29925,0,0,0
29761,9013,30223,0,0,0
30037,9145,30518,0,0,0
30299,9272,30800,0,0,0
30529,9390,31066,0,0,0
30739,9498,31312,0,0,0
30940,9596,31538,0,0,0
31118,9685,31748,0,0,0
31266,9766,31939,0,0,0
31402,9840,32109,0,0,0
31534,9912,32259,0,0,0
31641,9977,32388,0,0,0
31710,10027,32489,0,0,0
31761,10061,32565,0,0,0
31800,10081,32616,0,0,0
31811,10084,32645,0,0,0
31797,10074,32657,0,0,0
31786,10060,32656,0,0,0
31788,10049,32648,0,0,0
31779,10040,32633,0,0,0
31752,10028,32609,0,0,0
31729,10012,32579,0,0,0
31709,9993,32543,0,0,0
31669,9971,32498,0,0,0
31616,9946,32447,0,0,0
31574,9923,32393,0,0,0
31543,9902,32340,0,0,0
31498,9880,32285,0,0,0
31443,9854,32227,0,0,0
31403,9830,32172,0,0,0
31372,9808,32122,0,0,0
31329,9783,32071,0,0,0
31275,9754,32017,0,0,0
31227,9724,31960,0,0,0
31179,9695,31902,0,0,0
31115,9665,31841,0,0,0
31048,9636,31777,0,0,0
30999,9612,31713,0,0,0
30959,9591,31651,0,0,0
30913,9570,31593,0,0,0
30871,9552,31539,0,0,0
30847,9538,31495,0,0,0
30826,9530,31460,0,0,0
30795,9521,31431,0,0,0
30770,9517,31412,0,0,0
30766,9518,31405,0,0,0
30768,9520,31406,0,0,0
30763,9519,31410,0,0,0
30764,9514,31416,0,0,0
30781,9513,31426,0,0,0
30802,9519,31442,0,0,0
30816,9531,31466,0,0,0
30839,9547,31497,0,0,0
30880,9567,31536,0,0,0
30914,9586,31579,0,0,0
30928,9600,31616,0,0,0
30943,9611,31645,0,0,0
30967,9618,31669,0,0,0
30982,9623,31688,0,0,0
30984,9626,31698,0,0,0
30995,9628,31701,0,0,0
31018,9632,31699,0,0,0
31029,9637,31693,0,0,0
31027,9639,31683,0,0,0
31030,9639,31674,0,0,0
31038,9637,31663,0,0,0
31029,9631,31648,0,0,0
31002,9621,31624,0,0,0
30975,9607,31590,0,0,0
30951,9589,31550,0,0,0
30913,9567,31502,0,0,0
30868,9541,31450,0,0,0
30835,9517,31397,0,0,0
30806,9495,31342,0,0,0
30762,9474,31285,0,0,0
30710,9450,31227,0,0,0
30665,9428,31166,0,0,0
30619,9408,31100,0,0,0
30559,9384,31033,0,0,0
30493,9355,30966,0,0,0
30437,9323,30902,0,0,0
30384,9291,30840,0,0,0
30319,9260,30776,0,0,0
30257,9226,30709,0,0,0
30215,9197,30647,0,0,0
30179,9176,30592,0,0,0
30137,9156,30541,0,0,0
30102,9135,30492,0,0,0
30083,9121,30447,0,0,0
30058,9113,30405,0,0,0
30014,9102,30363,0,0,0
29969,9084,30319,0,0,0
29936,9064,30273,0,0,0
29901,9044,30225,0,0,0
29854,9024,30176,0,0,0
29814,9006,30127,0,0,0
29791,8991,30082,0,0,0
29767,8977,30038,0,0,0
29734,8963,29997,0,0,0
29711,8950,29960,0,0,0
29701,8938,29928,0,0,0
29681,8926,29898,0,0,0
29651,8913,29864,0,0,0
29632,8900,29829,0,0,0
29622,8887,29796,0,0,0
29601,8874,29765,0,0,0
29570,8860,29733,0,0,0
29552,8844,29702,0,0,0
29546,8832,29671,0,0,0
29532,8822,29641,0,0,0
29513,8812,29614,0,0,0
29507,8804,29597,0,0,0
29507,8799,29583,0,0,0
29492,8795,29568,0,0,0
29468,8791,29549,0,0,0
29455,8787,29528,0,0,0
29448,8787,29507,0,0,0
29424,8784,29486,0,0,0
29396,8777,29462,0,0,0
29383,8770,29437,0,0,0
29373,8764,29415,0,0,0
29349,8758,29394,0,0,0
29320,8752,29370,0,0,0
29298,8745,29344,0,0,0
29271,8736,29317,0,0,0
29227,8721,29286,0,0,0
29182,8703,29252,0,0,0
29150,8682,29218,0,0,0
29117,8658,29181,0,0,0
29068,8628,29137,0,0,0
29020,8594,29088,0,0,0
28990,8563,29038,0,0,0
28959,8538,28988,0,0,0
28915,8517,28939,0,0,0
28874,8499,28892,0,0,0
28846,8488,28850,0,0,0
28818,8480,28811,0,0,0
28785,8474,28777,0,0,0
28767,8472,28753,0,0,0
28770,8474,28744,0,0,0
28785,8481,28755,0,0,0
28817,8498,28798,0,0,0
28892,8531,28878,0,0,0
29014,8584,29000,0,0,0
29164,8655,29162,0,0,0
29335,8742,29361,0,0,0
29542,8845,29594,0,0,0
29778,8961,29855,0,0,0
30016,9083,30133,0,0,0
30247,9206,30417,0,0,0
30488,9333,30702,0,0,0
30733,9459,30984,0,0,0
30959,9579,31257,0,0,0
31170,9691,31517,0,0,0
31382,9798,31766,0,0,0
31590,9901,32004,0,0,0
31773,9995,32224,0,0,0
31933,10077,32425,0,0,0
32083,10151,32607,0,0,0
32216,10214,32764,0,0,0
32312,10264,32891,0,0,0
32386,10299,32989,0,0,0
32458,10325,33065,0,0,0
32516,10345,33122,0,0,0
32545,10356,33160,0,0,0
32561,10361,33179,0,0,0
32577,10363,33187,0,0,0
32576,10361,33187,0,0,0
32547,10352,33176,0,0,0
32508,10335,33151,0,0,0
32478,10315,33113,0,0,0
32442,10294,33067,0,0,0
32389,10270,33017,0,0,0
32339,10245,32964,0,0,0
32302,10220,32912,0,0,0
32262,10195,32861,0,0,0
32211,10170,32812,0,0,0
32165,10146,32760,0,0,0
32131,10122,32703,0,0,0
32090,10097,32644,0,0,0
32033,10069,32581,0,0,0
31977,10035,32512,0,0,0
31930,10001,32439,0,0,0
31875,9968,32366,0,0,0
31809,9937,32292,0,0,0
31756,9910,32223,0,0,0
31717,9888,32164,0,0,0
31672,9866,32112,0,0,0
31619,9843,32061,0,0,0
31578,9823,32014,0,0,0
31552,9809,31972,0,0,0
31526,9797,31935,0,0,0
31503,9787,31906,0,0,0
31502,9781,31891,0,0,0
31518,9783,31891,0,0,0
31530,9789,31902,0,0,0
31540,9800,31919,0,0,0
31564,9817,31942,0,0,0
31593,9837,31968,0,0,0
31608,9853,31991,0,0,0
31620,9866,32012,0,0,0
31649,9879,32037,0,0,0
31684,9895,32067,0,0,0
31710,9910,32101,0,0,0
31733,9924,32137,0,0,0
31766,9936,32174,0,0,0
31800,9946,32209,0,0,0
31820,9954,32235,0,0,0
31841,9961,32254,0,0,0
31877,9972,32269,0,0,0
31908,9983,32282,0,0,0
31918,9991,32290,0,0,0
31923,9994,32294,0,0,0
31937,9997,32297,0,0,0
31940,9998,32293,0,0,0
31920,9991,32279,0,0,0
31890,9976,32254,0,0,0
31861,9957,32218,0,0,0
31823,9936,32174,0,0,0
31775,9914,32127,0,0,0
31733,9895,32079,0,0,0
31701,9879,32030,0,0,0
31659,9863,31978,0,0,0
31602,9842,31917,0,0,0
31544,9816,31851,0,0,0
31491,9786,31784,0,0,0
31426,9752,31717,0,0,0
31355,9716,31649,0,0,0
31301,9683,31586,0,0,0
31261,9654,31528,0,0,0
31217,9630,31470,0,0,0
31170,9606,31411,0,0,0
31135,9584,31353,0,0,0
31111,9565,31299,0,0,0
31075,9548,31247,0,0,0
31028,9529,31194,0,0,0
30991,9508,31140,0,0,0
30960,9486,31084,0,0,0
30917,9464,31026,0,0,0
30866,9442,30963,0,0,0
30823,9419,30902,0,0,0
30782,9397,30848,0,0,0
30727,9376,30797,0,0,0
30667,9354,30747,0,0,0
30624,9331,30700,0,0,0
30594,9307,30659,0,0,0
30558,9282,30617,0,0,0
30519,9259,30573,0,0,0
30489,9240,30533,0,0,0
30459,9226,30498,0,0,0
30416,9211,30464,0,0,0
30375,9196,30430,0,0,0
30346,9179,30394,0,0,0
30321,9164,30359,0,0,0
30287,9147,30323,0,0,0
30260,9132,30286,0,0,0
30251,9122,30258,0,0,0
30243,9118,30238,0,0,0
30222,9116,30218,0,0,0
30203,9112,30196,0,0,0
30195,9106,30173,0,0,0
30180,9095,30151,0,0,0
30151,9079,30126,0,0,0
30124,9062,30099,0,0,0
30108,9046,30069,0,0,0
30086,9032,30034,0,0,0
30056,9020,29998,0,0,0
30035,9012,29964,0,0,0
30027,9005,29933,0,0,0
30009,8999,29904,0,0,0
29981,8990,29877,0,0,0
29960,8979,29852,0,0,0
29949,8969,29830,0,0,0
29927,8959,29806,0,0,0
29898,8945,29776,0,0,0
29878,8929,29742,0,0,0
29865,8914,29708,0,0,0
29844,8900,29672,0,0,0
29812,8884,29630,0,0,0
29787,8866,29591,0,0,0
29761,8845,29554,0,0,0
29718,8820,29510,0,0,0
29665,8794,29463,0,0,0
29624,8770,29423,0,0,0
29602,8753,29398,0,0,0
29590,8746,29393,0,0,0
29598,8754,29418,0,0,0
29649,8783,29481,0,0,0
29739,8833,29586,0,0,0
29854,8902,29730,0,0,0
30002,8986,29909,0,0,0
30189,9083,30120,0,0,0
30395,9190,30356,0,0,0
30604,9303,30608,0,0,0
30824,9420,30869,0,0,0
31064,9541,31135,0,0,0
31307,9665,31404,0,0,0
31537,9787,31672,0,0,0
31766,9907,31938,0,0,0
31999,10028,32204,0,0,0
32216,10144,32461,0,0,0
32401,10248,32698,0,0,0
32571,10339,32906,0,0,0
32730,10418,33088,0,0,0
32866,10486,33244,0,0,0
32978,10541,33375,0,0,0
33082,10586,33482,0,0,0
33179,10625,33575,0,0,0
33253,10655,33657,0,0,0
33301,10676,33724,0,0,0
33340,10692,33773,0,0,0
33375,10705,33808,0,0,0
33389,10715,33831,0,0,0
33385,10717,33840,0,0,0
33386,10714,33835,0,0,0
33390,10707,33820,0,0,0
33376,10693,33795,0,0,0
33345,10676,33757,0,0,0
33320,10656,33713,0,0,0
33301,10636,33672,0,0,0
33270,10617,33632,0,0,0
33233,10598,33590,0,0,0
33207,10580,33546,0,0,0
33184,10561,33504,0,0,0
33146,10543,33463,0,0,0
33100,10524,33418,0,0,0
33059,10503,33369,0,0,0
33017,10482,33319,0,0,0
32966,10459,33267,0,0,0
32915,10436,33210,0,0,0
32878,10414,33151,0,0,0
32846,10394,33095,0,0,0
32807,10376,33047,0,0,0
32772,10358,33004,0,0,0
32752,10345,32966,0,0,0
32735,10338,32938,0,0,0
32710,10333,32913,0,0,0
32690,10330,32889,0,0,0
32686,10328,32870,0,0,0
32683,10325,32860,0,0,0
32673,10323,32856,0,0,0
32675,10322,32859,0,0,0
32698,10322,32870,0,0,0
32721,10326,32888,0,0,0
32736,10334,32909,0,0,0
32759,10345,32929,0,0,0
32790,10356,32952,0,0,0
32810,10365,32978,0,0,0
32817,10373,33005,0,0,0
32831,10379,33031,0,0,0
32858,10387,33058,0,0,0
32880,10395,33085,0,0,0
32898,10402,33112,0,0,0
32927,10412,33139,0,0,0
32963,10424,33168,0,0,0
32986,10435,33193,0,0,0
32998,10443,33212,0,0,0
33017,10451,33227,0,0,0
33037,10457,33235,0,0,0
33036,10459,33232,0,0,0
33016,10453,33216,0,0,0
32997,10443,33189,0,0,0
32977,10430,33153,0,0,0
32938,10414,33108,0,0,0
32888,10393,33054,0,0,0
32849,10371,32999,0,0,0
32817,10347,32944,0,0,0
32776,10322,32890,0,0,0
32730,10293,32834,0,0,0
32691,10265,32780,0,0,0
32652,10242,32724,0,0,0
32601,10222,32665,0,0,0
32551,10200,32605,0,0,0
32513,10178,32544,0,0,0
32473,10153,32483,0,0,0
32423,10123,32424,0,0,0
32374,10093,32367,0,0,0
32342,10071,32316,0,0,0
32312,10055,32267,0,0,0
32272,10042,32216,0,0,0
32237,10029,32163,0,0,0
32214,10016,32110,0,0,0
32182,10001,32060,0,0,0
32134,9981,32012,0,0,0
32088,9959,31964,0,0,0
32052,9937,31918,0,0,0
32012,9916,31875,0,0,0
31968,9894,31833,0,0,0
31936,9875,31795,0,0,0
31920,9863,31764,0,0,0
31898,9854,31737,0,0,0
31865,9842,31709,0,0,0
31840,9826,31682,0,0,0
31824,9809,31653,0,0,0
31798,9790,31619,0,0,0
31764,9771,31583,0,0,0
31739,9754,31551,0,0,0
31724,9741,31525,0,0,0
31706,9733,31503,0,0,0
31685,9725,31482,0,0,0
31679,9718,31466,0,0,0
31679,9714,31454,0,0,0
31665,9711,31444,0,0,0
31643,9706,31433,0,0,0
31632,9699,31417,0,0,0
31626,9693,31395,0,0,0
31611,9686,31367,0,0,0
31591,9678,31336,0,0,0
31585,9673,31310,0,0,0
31581,9672,31291,0,0,0
31561,9668,31273,0,0,0
31536,9660,31255,0,0,0
31523,9653,31237,0,0,0
31509,9644,31220,0,0,0
31478,9630,31197,0,0,0
31445,9612,31166,0,0,0
31426,9594,31132,0,0,0
31408,9576,31096,0,0,0
31376,9556,31060,0,0,0
31345,9538,31024,0,0,0
31323,9524,30989,0,0,0
31295,9509,30950,0,0,0
31250,9490,30907,0,0,0
31204,9467,30863,0,0,0
31168,9440,30819,0,0,0
31132,9413,30773,0,0,0
31097,9388,30733,0,0,0
31080,9369,30707,0,0,0
31088,9361,30704,0,0,0
31109,9366,30728,0,0,0
31147,9388,30782,0,0,0
31223,9430,30869,0,0,0
31337,9490,30990,0,0,0
31469,9564,31139,0,0,0
31617,9651,31314,0,0,0
31796,9751,31516,0,0,0
32003,9862,31745,0,0,0
32218,9982,31994,0,0,0
32434,10106,32254,0,0,0
32665,10233,32520,0,0,0
32906,10361,32791,0,0,0
33134,10484,33060,0,0,0
33346,10597,33320,0,0,0
33556,10703,33568,0,0,0
33758,10801,33806,0,0,0
33935,10889,34030,0,0,0
34095,10968,34235,0,0,0
34253,11042,34419,0,0,0
34399,11110,34583,0,0,0
34515,11169,34724,0,0,0
34610,11218,34841,0,0,0
34698,11261,34938,0,0,0
34768,11297,35015,0,0,0
34804,11319,35070,0,0,0
34820,11332,35100,0,0,0
34833,11337,35110,0,0,0
34834,11336,35107,0,0,0
34815,11327,35094,0,0,0
34791,11311,35070,0,0,0
34774,11294,35039,0,0,0
34752,11278,35004,0,0,0
34714,11260,34966,0,0,0
34677,11241,34926,0,0,0
34647,11222,34886,0,0,0
34609,11202,34848,0,0,0
34558,11176,34808,0,0,0
34510,11146,34762,0,0,0
34473,11118,34712,0,0,0
34433,11091,34661,0,0,0
34384,11065,34605,0,0,0
34345,11041,34545,0,0,0
34318,11021,34488,0,0,0
34284,11001,34431,0,0,0
34234,10978,34370,0,0,0
34186,10955,34305,0,0,0
34147,10933,34245,0,0,0
34103,10909,34191,0,0,0
34053,10885,34140,0,0,0
34014,10863,34092,0,0,0
33989,10848,34051,0,0,0
33964,10839,34022,0,0,0
33941,10832,34004,0,0,0
33941,10829,33997,0,0,0
33959,10832,34004,0,0,0
33974,10839,34019,0,0,0
33983,10847,34040,0,0,0
34001,10854,34065,0,0,0
34025,10863,34094,0,0,0
34038,10873,34121,0,0,0
34050,10882,34141,0,0,0
34074,10895,34159,0,0,0
34104,10909,34178,0,0,0
34123,10921,34195,0,0,0
34140,10931,34209,0,0,0
34172,10943,34224,0,0,0
34205,10958,34241,0,0,0
34222,10968,34257,0,0,0
34235,10972,34270,0,0,0
34259,10976,34281,0,0,0
34277,10980,34290,0,0,0
34271,10975,34292,0,0,0
34255,10966,34283,0,0,0
34248,10957,34268,0,0,0
34239,10948,34251,0,0,0
34216,10937,34233,0,0,0
34194,10925,34207,0,0,0
34177,10915,34175,0,0,0
34151,10902,34139,0,0,0
34109,10886,34100,0,0,0
34070,10864,34052,0,0,0
34036,10838,33999,0,0,0
33994,10811,33944,0,0,0
33943,10783,33883,0,0,0
33900,10756,33818,0,0,0
33867,10734,33753,0,0,0
33829,10714,33692,0,0,0
33781,10694,33632,0,0,0
33736,10674,33573,0,0,0
33696,10656,33519,0,0,0
33644,10636,33469,0,0,0
33579,10614,33419,0,0,0
33520,10592,33366,0,0,0
33471,10569,33309,0,0,0
33417,10542,33246,0,0,0
33362,10511,33182,0,0,0
33319,10483,33120,0,0,0
33284,10458,33064,0,0,0
33240,10432,33012,0,0,0
33191,10406,32960,0,0,0
33156,10387,32912,0,0,0
33128,10373,32870,0,0,0
33092,10358,32831,0,0,0
33055,10341,32793,0,0,0
33030,10323,32754,0,0,0
33011,10306,32716,0,0,0
32983,10290,32677,0,0,0
32956,10275,32638,0,0,0
32942,10261,32604,0,0,0
32931,10250,32578,0,0,0
32909,10239,32557,0,0,0
32885,10226,32535,0,0,0
32869,10213,32511,0,0,0
32846,10198,32487,0,0,0
32806,10179,32457,0,0,0
32767,10160,32419,0,0,0
32744,10145,32381,0,0,0
32724,10134,32346,0,0,0
32693,10124,32313,0,0,0
32666,10114,32282,0,0,0
32651,10106,32259,0,0,0
32631,10100,32243,0,0,0
32599,10092,32226,0,0,0
32570,10081,32204,0,0,0
32549,10067,32177,0,0,0
32523,10054,32152,0,0,0
32491,10041,32125,0,0,0
32471,10030,32093,0,0,0
32463,10022,32061,0,0,0
32447,10015,32033,0,0,0
32423,10007,32005,0,0,0
32409,9999,31979,0,0,0
32399,9990,31952,0,0,0
32374,9977,31920,0,0,0
32334,9957,31880,0,0,0
32302,9933,31835,0,0,0
32279,9910,31793,0,0,0
32248,9892,31755,0,0,0
32215,9880,31723,0,0,0
32199,9873,31704,0,0,0
32200,9876,31703,0,0,0
32206,9887,31721,0,0,0
32225,9907,31758,0,0,0
32278,9939,31820,0,0,0
32364,9982,31912,0,0,0
32474,10038,32038,0,0,0
32616,10107,32198,0,0,0
32800,10195,32391,0,0,0
33006,10299,32612,0,0,0
33215,10414,32855,0,0,0
33431,10533,33114,0,0,0
33662,10657,33382,0,0,0
33895,10780,33658,0,0,0
34115,10900,33932,0,0,0
34330,11015,34197,0,0,0
34547,11129,34450,0,0,0
34752,11238,34694,0,0,0
34936,11340,34926,0,0,0
35110,11434,35142,0,0,0
35281,11520,35342,0,0,0
35431,11595,35522,0,0,0
35551,11657,35677,0,0,0
35655,11707,35806,0,0,0
35750,11747,35912,0,0,0
35823,11778,35998,0,0,0
35871,11800,36060,0,0,0
35909,11817,36099,0,0,0
35945,11831,36125,0,0,0
35962,11840,36142,0,0,0
35959,11843,36146,0,0,0
35955,11841,36140,0,0,0
35949,11835,36126,0,0,0
35924,11822,36103,0,0,0
35882,11801,36070,0,0,0
35842,11776,36026,0,0,0
35807,11750,35982,0,0,0
35766,11725,35940,0,0,0
35721,11700,35898,0,0,0
35691,11676,35859,0,0,0
35672,11658,35825,0,0,0
35641,11643,35792,0,0,0
35602,11628,35752,0,0,0
35573,11613,35706,0,0,0
35547,11596,35657,0,0,0
35507,11576,35604,0,0,0
35463,11553,35545,0,0,0
35428,11532,35488,0,0,0
35397,11513,35436,0,0,0
35354,11493,35384,0,0,0
35313,11472,35332,0,0,0
35292,11455,35284,0,0,0
35275,11440,35244,0,0,0
35247,11423,35212,0,0,0
35219,11407,35186,0,0,0
35206,11398,35167,0,0,0
35195,11395,35154,0,0,0
35178,11393,35145,0,0,0
35167,11390,35141,0,0,0
35173,11389,35147,0,0,0
35185,11392,35163,0,0,0
35192,11396,35183,0,0,0
35207,11400,35205,0,0,0
35235,11409,35230,0,0,0
35263,11422,35259,0,0,0
35284,11438,35289,0,0,0
35310,11453,35317,0,0,0
35343,11466,35343,0,0,0
35371,11475,35367,0,0,0
35391,11482,35387,0,0,0
35416,11488,35401,0,0,0
35447,11495,35415,0,0,0
35463,11501,35423,0,0,0
35459,11500,35421,0,0,0
35452,11496,35412,0,0,0
35441,11491,35396,0,0,0
35411,11480,35373,0,0,0
35366,11460,35339,0,0,0
35324,11437,35299,0,0,0
35290,11415,35259,0,0,0
35248,11392,35220,0,0,0
35201,11369,35177,0,0,0
35162,11348,35134,0,0,0
35127,11327,35089,0,0,0
35078,11307,35040,0,0,0
35023,11284,34985,0,0,0
34978,11258,34926,0,0,0
34941,11232,34868,0,0,0
34897,11206,34813,0,0,0
34852,11179,34756,0,0,0
34819,11152,34693,0,0,0
34790,11128,34631,0,0,0
34750,11106,34567,0,0,0
34704,11082,34501,0,0,0
34662,11058,34437,0,0,0
34614,11034,34378,0,0,0
34552,11008,34319,0,0,0
34488,10981,34256,0,0,0
34437,10955,34194,0,0,0
34391,10932,34136,0,0,0
34338,10910,34079,0,0,0
34290,10887,34020,0,0,0
34254,10865,33964,0,0,0
34216,10841,33908,0,0,0
34164,10812,33851,0,0,0
34115,10784,33797,0,0,0
34080,10763,33750,0,0,0
34046,10748,33709,0,0,0
34007,10734,33674,0,0,0
33977,10721,33643,0,0,0
33956,10708,33616,0,0,0
33927,10693,33591,0,0,0
33887,10671,33558,0,0,0
33850,10646,33519,0,0,0
33820,10624,33483,0,0,0
33783,10604,33453,0,0,0
33746,10587,33420,0,0,0
33725,10575,33384,0,0,0
33713,10565,33349,0,0,0
33690,10555,33318,0,0,0
33657,10543,33286,0,0,0
33634,10532,33253,0,0,0
33617,10521,33223,0,0,0
33588,10506,33193,0,0,0
33547,10487,33156,0,0,0
33512,10469,33116,0,0,0
33483,10453,33075,0,0,0
33451,10439,33037,0,0,0
33422,10425,33002,0,0,0
33406,10412,32972,0,0,0
33392,10399,32946,0,0,0
33367,10385,32920,0,0,0
33338,10372,32893,0,0,0
33318,10361,32868,0,0,0
33298,10350,32844,0,0,0
33264,10338,32817,0,0,0
33225,10324,32784,0,0,0
33189,10311,32745,0,0,0
33146,10293,32701,0,0,0
33086,10269,32650,0,0,0
33025,10241,32591,0,0,0
32974,10214,32532,0,0,0
32926,10187,32476,0,0,0
32874,10161,32422,0,0,0
32831,10138,32371,0,0,0
32805,10119,32327,0,0,0
32781,10104,32293,0,0,0
32760,10095,32271,0,0,0
32757,10098,32272,0,0,0
32784,10115,32304,0,0,0
32833,10147,32372,0,0,0
32906,10191,32470,0,0,0
33019,10249,32598,0,0,0
33176,10325,32761,0,0,0
33355,10413,32960,0,0,0
33546,10516,33188,0,0,0
33765,10634,33442,0,0,0
34007,10766,33715,0,0,0
34250,10902,33998,0,0,0
34489,11036,34284,0,0,0
34732,11167,34572,0,0,0
34972,11294,34858,0,0,0
35191,11414,35138,0,0,0
35390,11524,35402,0,0,0
35580,11625,35643,0,0,0
35759,11717,35862,0,0,0
35910,11795,36058,0,0,0
36036,11862,36231,0,0,0
36150,11923,36378,0,0,0
36251,11975,36503,0,0,0
36326,12016,36606,0,0,0
36382,12047,36685,0,0,0
36431,12072,36743,0,0,0
36468,12089,36785,0,0,0
36480,12093,36808,0,0,0
36475,12089,36811,0,0,0
36468,12081,36800,0,0,0
36454,12071,36778,0,0,0
36420,12057,36745,0,0,0
36380,12038,36704,0,0,0
36346,12018,36658,0,0,0
36316,11999,36616,0,0,0
36278,11981,36575,0,0,0
36239,11959,36531,0,0,0
36209,11937,36484,0,0,0
36173,11916,36440,0,0,0
36122,11891,36395,0,0,0
36069,11863,36348,0,0,0
36028,11835,36300,0,0,0
35988,11809,36251,0,0,0
35939,11782,36201,0,0,0
35893,11754,36150,0,0,0
35857,11728,36099,0,0,0
35812,11699,36049,0,0,0
35756,11667,35996,0,0,0
35703,11638,35940,0,0,0
35662,11613,35887,0,0,0
35619,11590,35835,0,0,0
35571,11568,35784,0,0,0
35535,11550,35736,0,0,0
35511,11537,35698,0,0,0
35484,11526,35669,0,0,0
35459,11516,35646,0,0,0
35451,11510,35630,0,0,0
35458,11507,35623,0,0,0
35462,11509,35622,0,0,0
35461,11515,35624,0,0,0
35470,11524,35629,0,0,0
35492,11535,35639,0,0,0
35511,11548,35655,0,0,0
35529,11561,35672,0,0,0
35552,11574,35691,0,0,0
35580,11589,35714,0,0,0
35600,11600,35738,0,0,0
35617,11608,35757,0,0,0
35641,11617,35772,0,0,0
35668,11625,35788,0,0,0
35686,11629,35802,0,0,0
35698,11630,35810,0,0,0
35714,11633,35813,0,0,0
35726,11640,35817,0,0,0
35722,11646,35820,0,0,0
35711,11649,35816,0,0,0
35698,11649,35804,0,0,0
35677,11643,35785,0,0,0
35639,11627,35755,0,0,0
35596,11604,35716,0,0,0
35557,11577,35670,0,0,0
35514,11550,35622,0,0,0
35463,11522,35572,0,0,0
35416,11497,35517,0,0,0
35379,11475,35459,0,0,0
35337,11452,35398,0,0,0
35282,11424,35335,0,0,0
35228,11395,35271,0,0,0
35179,11364,35204,0,0,0
35124,11333,35137,0,0,0
35061,11302,35068,0,0,0
35005,11272,34998,0,0,0
34958,11244,34930,0,0,0
34902,11216,34862,0,0,0
34840,11186,34793,0,0,0
34788,11158,34727,0,0,0
34745,11135,34667,0,0,0
34698,11115,34612,0,0,0
34647,11096,34561,0,0,0
34609,11081,34514,0,0,0
34578,11070,34470,0,0,0
34538,11057,34427,0,0,0
34491,11037,34381,0,0,0
34453,11013,34333,0,0,0
34419,10988,34287,0,0,0
34372,10960,34238,0,0,0
34323,10930,34187,0,0,0
34287,10907,34139,0,0,0
34255,10890,34098,0,0,0
34215,10876,34063,0,0,0
34174,10862,34027,0,0,0
34146,10849,33992,0,0,0
34123,10840,33960,0,0,0
34093,10830,33927,0,0,0
34063,10818,33888,0,0,0
34045,10805,33848,0,0,0
34027,10790,33812,0,0,0
34002,10773,33777,0,0,0
33981,10756,33743,0,0,0
33972,10744,33713,0,0,0
33962,10734,33690,0,0,0
33941,10722,33666,0,0,0
33916,10708,33639,0,0,0
33893,10694,33609,0,0,0
33864,10678,33578,0,0,0
33827,10660,33544,0,0,0
33796,10643,33511,0,0,0
33777,10630,33481,0,0,0
33752,10619,33451,0,0,0
33717,10611,33421,0,0,0
33685,10604,33393,0,0,0
33660,10598,33366,0,0,0
33628,10588,33339,0,0,0
33585,10572,33308,0,0,0
33550,10554,33272,0,0,0
33522,10535,33235,0,0,0
33482,10513,33195,0,0,0
33432,10488,33146,0,0,0
33389,10462,33091,0,0,0
33353,10437,33036,0,0,0
33315,10414,32987,0,0,0
33277,10394,32943,0,0,0
33256,10381,32908,0,0,0
33253,10379,32893,0,0,0
33260,10389,32901,0,0,0
33288,10410,32933,0,0,0
33350,10442,32996,0,0,0
33439,10489,33097,0,0,0
33546,10548,33228,0,0,0
33677,10619,33385,0,0,0
33838,10705,33570,0,0,0
34021,10804,33782,0,0,0
34211,10912,34016,0,0,0
34415,11025,34265,0,0,0
34637,11145,34524,0,0,0
34862,11268,34792,0,0,0
35080,11388,35064,0,0,0
35294,11503,35330,0,0,0
35505,11613,35584,0,0,0
35697,11719,35825,0,0,0
35864,11815,36046,0,0,0
36015,11904,36242,0,0,0
36157,11986,36413,0,0,0
36280,12057,36563,0,0,0
36378,12113,36694,0,0,0
36465,12153,36803,0,0,0
36545,12184,36898,0,0,0
36606,12209,36977,0,0,0
36642,12225,37033,0,0,0
36664,12233,37067,0,0,0
36676,12232,37081,0,0,0
36668,12223,37078,0,0,0
36638,12205,37058,0,0,0
36605,12182,37025,0,0,0
36578,12160,36989,0,0,0
36545,12139,36948,0,0,0
36501,12119,36902,0,0,0
36462,12100,36854,0,0,0
36428,12084,36809,0,0,0
36384,12069,36765,0,0,0
36331,12051,36717,0,0,0
36281,12032,36666,0,0,0
36238,12014,36616,0,0,0
36188,11994,36566,0,0,0
36138,11972,36514,0,0,0
36101,11950,36463,0,0,0
36070,11929,36413,0,0,0
36033,11910,36364,0,0,0
35993,11892,36316,0,0,0
35964,11878,36271,0,0,0
35937,11865,36230,0,0,0
35902,11848,36190,0,0,0
35867,11827,36151,0,0,0
35844,11809,36115,0,0,0
35826,11795,36084,0,0,0
35806,11783,36054,0,0,0
35793,11773,36028,0,0,0
35800,11770,36016,0,0,0
35816,11775,36017,0,0,0
35828,11783,36026,0,0,0
35842,11795,36041,0,0,0
35866,11813,36061,0,0,0
35890,11831,36085,0,0,0
35905,11846,36108,0,0,0
35925,11859,36133,0,0,0
35958,11873,36160,0,0,0
35994,11890,36191,0,0,0
36028,11908,36226,0,0,0
36065,11926,36260,0,0,0
36106,11942,36294,0,0,0
36135,11955,36330,0,0,0
36148,11962,36362,0,0,0
36157,11963,36386,0,0,0
36165,11961,36403,0,0,0
36163,11958,36414,0,0,0
36151,11953,36418,0,0,0
36144,11949,36418,0,0,0
36147,11952,36421,0,0,0
36143,11956,36419,0,0,0
36128,11957,36406,0,0,0
36117,11955,36384,0,0,0
36108,11951,36358,0,0,0
36087,11939,36325,0,0,0
36053,11918,36280,0,0,0
36019,11894,36225,0,0,0
35986,11872,36165,0,0,0
35942,11849,36100,0,0,0
35889,11826,36032,0,0,0
35841,11802,35966,0,0,0
35795,11778,35906,0,0,0
35741,11751,35850,0,0,0
35684,11722,35793,0,0,0
35636,11694,35733,0,0,0
35587,11668,35672,0,0,0
35524,11638,35611,0,0,0
35456,11605,35549,0,0,0
35394,11573,35486,0,0,0
35335,11542,35423,0,0,0
35273,11513,35358,0,0,0
35216,11487,35289,0,0,0
35169,11461,35220,0,0,0
35123,11434,35156,0,0,0
35073,11407,35097,0,0,0
35025,11383,35041,0,0,0
34990,11363,34992,0,0,0
34956,11344,34948,0,0,0
34915,11321,34903,0,0,0
34875,11295,34857,0,0,0
34846,11273,34812,0,0,0
34818,11254,34772,0,0,0
34787,11238,34734,0,0,0
34761,11224,34700,0,0,0
34748,11213,34673,0,0,0
34734,11204,34649,0,0,0
34711,11197,34626,0,0,0
34691,11190,34602,0,0,0
34675,11182,34578,0,0,0
34651,11173,34554,0,0,0
34619,11161,34526,0,0,0
34593,11147,34493,0,0,0
34576,11136,34464,0,0,0
34555,11126,34438,0,0,0
34530,11116,34408,0,0,0
34509,11105,34378,0,0,0
34490,11096,34350,0,0,0
34461,11085,34321,0,0,0
34422,11069,34287,0,0,0
34386,11049,34250,0,0,0
34350,11029,34210,0,0,0
34306,11005,34164,0,0,0
34257,10978,34112,0,0,0
34217,10953,34061,0,0,0
34178,10930,34013,0,0,0
34131,10906,33966,0,0,0
34087,10886,33922,0,0,0
34060,10872,33887,0,0,0
34043,10863,33866,0,0,0
34029,10859,33860,0,0,0
34035,10866,33876,0,0,0
34075,10885,33917,0,0,0
34142,10920,33987,0,0,0
34229,10972,34085,0,0,0
34349,11039,34212,0,0,0
34506,11121,34371,0,0,0
34684,11214,34563,0,0,0
34867,11313,34782,0,0,0
35061,11418,35019,0,0,0
35269,11529,35269,0,0,0
35476,11642,35527,0,0,0
35674,11752,35783,0,0,0
35875,11858,36031,0,0,0
36084,11965,36278,0,0,0
36287,12070,36520,0,0,0
36470,12168,36749,0,0,0
36636,12255,36962,0,0,0
36787,12329,37157,0,0,0
36909,12392,37329,0,0,0
37003,12442,37473,0,0,0
37084,12483,37587,0,0,0
37157,12518,37679,0,0,0
37208,12543,37746,0,0,0
37239,12557,37789,0,0,0
37263,12563,37811,0,0,0
37281,12568,37823,0,0,0
37281,12570,37827,0,0,0
37265,12566,37814,0,0,0
37248,12559,37790,0,0,0
37231,12549,37759,0,0,0
37200,12532,37724,0,0,0
37160,12510,37683,0,0,0
37130,12491,37643,0,0,0
37107,12477,37605,0,0,0
37077,12464,37568,0,0,0
37042,12449,37529,0,0,0
37010,12436,37490,0,0,0
36977,12422,37453,0,0,0
36933,12403,37412,0,0,0
36889,12381,37364,0,0,0
36856,12360,37314,0,0,0
36825,12340,37265,0,0,0
36784,12317,37215,0,0,0
36742,12294,37165,0,0,0
36708,12274,37116,0,0,0
36672,12255,37066,0,0,0
36622,12231,37012,0,0,0
36570,12202,36959,0,0,0
36529,12174,36910,0,0,0
36493,12149,36864,0,0,0
36453,12125,36819,0,0,0
36421,12105,36777,0,0,0
36404,12093,36744,0,0,0
36390,12087,36719,0,0,0
36373,12084,36700,0,0,0
36366,12082,36685,0,0,0
36371,12083,36677,0,0,0
36376,12087,36677,0,0,0
36379,12096,36686,0,0,0
36394,12110,36703,0,0,0
36420,12126,36724,0,0,0
36438,12140,36748,0,0,0
36445,12150,36771,0,0,0
36455,12157,36792,0,0,0
36468,12164,36811,0,0,0
36470,12167,36825,0,0,0
36464,12167,36831,0,0,0
36463,12165,36830,0,0,0
36468,12164,36831,0,0,0
36469,12165,36833,0,0,0
36462,12164,36831,0,0,0
36458,12163,36822,0,0,0
36453,12159,36809,0,0,0
36435,12148,36789,0,0,0
36406,12129,36761,0,0,0
36377,12105,36724,0,0,0
36346,12082,36682,0,0,0
36301,12059,36632,0,0,0
36248,12035,36574,0,0,0
36200,12012,36509,0,0,0
36152,11990,36443,0,0,0
36093,11968,36377,0,0,0
36031,11941,36310,0,0,0
35981,11912,36245,0,0,0
35931,11880,36180,0,0,0
35870,11844,36109,0,0,0
35802,11806,36034,0,0,0
35740,11769,35958,0,0,0
35678,11736,35884,0,0,0
35612,11705,35814,0,0,0
35551,11677,35746,0,0,0
35500,11651,35682,0,0,0
35447,11626,35621,0,0,0
35386,11598,35561,0,0,0
35329,11568,35500,0,0,0
35279,11539,35438,0,0,0
35230,11513,35377,0,0,0
35178,11489,35318,0,0,0
35135,11466,35261,0,0,0
35104,11447,35206,0,0,0
35072,11430,35155,0,0,0
35032,11411,35104,0,0,0
34994,11393,35056,0,0,0
34960,11375,35011,0,0,0
34914,11353,34967,0,0,0
34860,11326,34920,0,0,0
34815,11298,34868,0,0,0
34781,11275,34819,0,0,0
34748,11257,34779,0,0,0
34716,11238,34740,0,0,0
34693,11221,34706,0,0,0
34675,11207,34679,0,0,0
34650,11195,34654,0,0,0
34617,11179,34625,0,0,0
34588,11161,34591,0,0,0
34564,11146,34557,0,0,0
34535,11132,34523,0,0,0
34503,11120,34488,0,0,0
34480,11112,34456,0,0,0
34461,11105,34430,0,0,0
34438,11096,34403,0,0,0
34410,11086,34369,0,0,0
34385,11076,34333,0,0,0
34359,11064,34299,0,0,0
34324,11045,34264,0,0,0
34284,11019,34224,0,0,0
34249,10992,34183,0,0,0
34216,10967,34142,0,0,0
34177,10941,34098,0,0,0
34140,10916,34049,0,0,0
34112,10894,34003,0,0,0
34082,10873,33959,0,0,0
34041,10853,33913,0,0,0
33997,10835,33865,0,0,0
33959,10819,33820,0,0,0
33929,10805,33785,0,0,0
33912,10798,33767,0,0,0
33920,10805,33773,0,0,0
33965,10833,33818,0,0,0
34036,10877,33904,0,0,0
34132,10935,34028,0,0,0
34263,11007,34186,0,0,0
34427,11093,34376,0,0,0
34604,11188,34589,0,0,0
34795,11290,34821,0,0,0
35009,11401,35071,0,0,0
35244,11521,35337,0,0,0
35484,11646,35615,0,0,0
35722,11771,35899,0,0,0
35961,11895,36183,0,0,0
36196,12020,36466,0,0,0
36411,12139,36741,0,0,0
36605,12246,37001,0,0,0
36788,12345,37239,0,0,0
36959,12437,37457,0,0,0
37110,12521,37652,0,0,0
37239,12590,37825,0,0,0
37355,12649,37978,0,0,0
37451,12698,38108,0,0,0
37520,12734,38213,0,0,0
37568,12761,38295,0,0,0
37607,12784,38358,0,0,0
37638,12804,38406,0,0,0
37655,12816,38438,0,0,0
37666,12821,38455,0,0,0
37683,12822,38463,0,0,0
37697,12821,38463,0,0,0
37697,12819,38453,0,0,0
37694,12814,38439,0,0,0
37699,12810,38426,0,0,0
37700,12806,38417,0,0,0
37689,12800,38410,0,0,0
37672,12793,38403,0,0,0
37659,12787,38392,0,0,0
37643,12777,38379,0,0,0
37616,12762,38359,0,0,0
37588,12746,38329,0,0,0
37565,12732,38294,0,0,0
37540,12717,38257,0,0,0
37512,12699,38215,0,0,0
37488,12683,38171,0,0,0
37466,12669,38130,0,0,0
37432,12655,38091,0,0,0
37385,12638,38048,0,0,0
37336,12617,38001,0,0,0
37291,12595,37949,0,0,0
37240,12573,37894,0,0,0
37187,12549,37835,0,0,0
37144,12525,37777,0,0,0
37112,12508,37727,0,0,0
37078,12494,37685,0,0,0
37040,12482,37645,0,0,0
37010,12471,37612,0,0,0
36986,12461,37588,0,0,0
36954,12452,37571,0,0,0
36919,12442,37556,0,0,0
36892,12432,37543,0,0,0
36874,12422,37532,0,0,0
36860,12414,37522,0,0,0
36851,12405,37509,0,0,0
36852,12396,37498,0,0,0
36856,12388,37490,0,0,0
36852,12379,37485,0,0,0
36847,12370,37483,0,0,0
36848,12367,37486,0,0,0
36851,12369,37491,0,0,0
36846,12370,37492,0,0,0
36840,12370,37490,0,0,0
36840,12370,37486,0,0,0
36836,12370,37477,0,0,0
36819,12366,37460,0,0,0
36798,12357,37437,0,0,0
36777,12346,37411,0,0,0
36752,12333,37383,0,0,0
36716,12316,37352,0,0,0
36677,12298,37312,0,0,0
36640,12278,37261,0,0,0
36593,12254,37200,0,0,0
36534,12225,37129,0,0,0
36476,12193,37053,0,0,0
36426,12161,36979,0,0,0
36374,12130,36911,0,0,0
36317,12095,36842,0,0,0
36265,12057,36769,0,0,0
36221,12022,36695,0,0,0
36169,11992,36623,0,0,0
36103,11959,36551,0,0,0
36038,11927,36478,0,0,0
35977,11898,36405,0,0,0
35913,11871,36332,0,0,0
35847,11840,36257,0,0,0
35786,11806,36182,0,0,0
35730,11771,36110,0,0,0
35671,11736,36041,0,0,0
35611,11702,35972,0,0,0
35560,11672,35908,0,0,0
35518,11649,35849,0,0,0
35469,11628,35792,0,0,0
35416,11606,35732,0,0,0
35367,11580,35674,0,0,0
35318,11553,35618,0,0,0
35260,11524,35561,0,0,0
35204,11493,35501,0,0,0
35161,11464,35444,0,0,0
35123,11440,35392,0,0,0
35077,11415,35342,0,0,0
35032,11391,35292,0,0,0
34999,11371,35244,0,0,0
34967,11355,35200,0,0,0
34924,11336,35155,0,0,0
34878,11314,35107,0,0,0
34840,11291,35057,0,0,0
34805,11272,35010,0,0,0
34768,11254,34964,0,0,0
34734,11234,34919,0,0,0
34707,11215,34877,0,0,0
34680,11197,34838,0,0,0
34645,11179,34798,0,0,0
34607,11159,34754,0,0,0
34575,11142,34709,0,0,0
34538,11123,34663,0,0,0
34493,11101,34614,0,0,0
34451,11079,34564,0,0,0
34419,11058,34519,0,0,0
34384,11036,34476,0,0,0
34342,11013,34434,0,0,0
34304,10992,34392,0,0,0
34269,10976,34348,0,0,0
34228,10963,34302,0,0,0
34180,10948,34253,0,0,0
34135,10929,34204,0,0,0
34093,10906,34157,0,0,0
34044,10880,34106,0,0,0
33988,10850,34048,0,0,0
33939,10820,33989,0,0,0
33900,10793,33937,0,0,0
33862,10767,33891,0,0,0
33820,10741,33843,0,0,0
33788,10721,33793,0,0,0
33766,10708,33752,0,0,0
33744,10699,33722,0,0,0
33726,10692,33702,0,0,0
33728,10694,33699,0,0,0
33758,10710,33726,0,0,0
33811,10742,33782,0,0,0
33889,10788,33869,0,0,0
33998,10848,33991,0,0,0
34132,10920,34148,0,0,0
34279,11004,34334,0,0,0
34440,11097,34542,0,0,0
34622,11199,34772,0,0,0
34814,11305,35016,0,0,0
35008,11410,35266,0,0,0
35206,11517,35517,0,0,0
35412,11627,35766,0,0,0
35614,11736,36015,0,0,0
35799,11838,36257,0,0,0
35976,11933,36487,0,0,0
36151,12022,36705,0,0,0
36310,12107,36910,0,0,0
36446,12183,37098,0,0,0
36563,12247,37263,0,0,0
36665,12300,37407,0,0,0
36743,12343,37531,0,0,0
36795,12372,37630,0,0,0
36834,12389,37707,0,0,0
36869,12400,37767,0,0,0
36895,12407,37810,0,0,0
36911,12411,37837,0,0,0
36928,12413,37853,0,0,0
36950,12421,37868,0,0,0
36965,12430,37883,0,0,0
36967,12436,37888,0,0,0
36969,12437,37882,0,0,0
36975,12438,37869,0,0,0
36971,12434,37852,0,0,0
36961,12428,37833,0,0,0
36956,12422,37817,0,0,0
36953,12418,37806,0,0,0
36945,12414,37798,0,0,0
36934,12410,37787,0,0,0
36924,12405,37773,0,0,0
36909,12397,37753,0,0,0
36878,12384,37726,0,0,0
36840,12365,37690,0,0,0
36808,12340,37648,0,0,0
36778,12312,37606,0,0,0
36739,12284,37563,0,0,0
36696,12256,37517,0,0,0
36657,12233,37467,0,0,0
36617,12210,37417,0,0,0
36568,12187,37364,0,0,0
36520,12161,37308,0,0,0
36479,12135,37251,0,0,0
36444,12112,37196,0,0,0
36410,12092,37143,0,0,0
36382,12076,37090,0,0,0
36367,12064,37044,0,0,0
36354,12058,37010,0,0,0
36335,12051,36981,0,0,0
36315,12039,36953,0,0,0
36294,12021,36924,0,0,0
36263,11998,36893,0,0,0
36219,11969,36856,0,0,0
36169,11939,36814,0,0,0
36126,11915,36774,0,0,0
36088,11898,36743,0,0,0
36054,11885,36720,0,0,0
36030,11874,36699,0,0,0
36018,11867,36681,0,0,0
36008,11861,36666,0,0,0
35997,11855,36651,0,0,0
35993,11850,36633,0,0,0
35992,11846,36614,0,0,0
35982,11839,36588,0,0,0
35961,11828,36554,0,0,0
35941,11816,36516,0,0,0
35921,11802,36478,0,0,0
35894,11785,36441,0,0,0
35862,11767,36405,0,0,0
35834,11751,36370,0,0,0
35810,11736,36333,0,0,0
35777,11716,36289,0,0,0
35737,11691,36242,0,0,0
35704,11666,36192,0,0,0
35673,11640,36140,0,0,0
35631,11610,36085,0,0,0
35581,11579,36023,0,0,0
35530,11550,35953,0,0,0
35472,11522,35878,0,0,0
35399,11488,35799,0,0,0
35320,11449,35718,0,0,0
35243,11407,35637,0,0,0
35164,11367,35557,0,0,0
35082,11327,35471,0,0,0
35006,11288,35380,0,0,0
34942,11252,35292,0,0,0
34885,11220,35216,0,0,0
34827,11189,35147,0,0,0
34772,11159,35083,0,0,0
34720,11131,35019,0,0,0
34664,11104,34953,0,0,0
34601,11075,34882,0,0,0
34542,11046,34809,0,0,0
34492,11015,34737,0,0,0
34442,10983,34670,0,0,0
34389,10949,34607,0,0,0
34341,10919,34546,0,0,0
34305,10894,34490,0,0,0
34271,10868,34436,0,0,0
34233,10842,34381,0,0,0
34198,10818,34326,0,0,0
34170,10796,34276,0,0,0
34137,10774,34226,0,0,0
34095,10750,34173,0,0,0
34056,10729,34115,0,0,0
34020,10710,34058,0,0,0
33976,10693,34001,0,0,0
33924,10671,33944,0,0,0
33873,10649,33889,0,0,0
33823,10629,33837,0,0,0
33766,10607,33783,0,0,0
33705,10580,33725,0,0,0
33649,10551,33665,0,0,0
33601,10524,33609,0,0,0
33552,10496,33553,0,0,0
33503,10467,33496,0,0,0
33467,10442,33440,0,0,0
33439,10421,33388,0,0,0
33408,10405,33343,0,0,0
33375,10388,33298,0,0,0
33347,10371,33253,0,0,0
33318,10355,33209,0,0,0
33281,10337,33162,0,0,0
33243,10315,33110,0,0,0
33212,10291,33056,0,0,0
33182,10265,33006,0,0,0
33146,10239,32959,0,0,0
33108,10216,32913,0,0,0
33072,10195,32865,0,0,0
33032,10172,32813,0,0,0
32982,10146,32755,0,0,0
32930,10122,32695,0,0,0
32881,10097,32635,0,0,0
32828,10070,32575,0,0,0
32766,10039,32512,0,0,0
32710,10010,32447,0,0,0
32668,9988,32390,0,0,0
32635,9971,32344,0,0,0
32610,9958,32314,0,0,0
32606,9950,32307,0,0,0
32623,9950,32321,0,0,0
32652,9960,32350,0,0,0
32694,9979,32397,0,0,0
32764,10011,32471,0,0,0
32861,10064,32577,0,0,0
32974,10130,32710,0,0,0
33100,10204,32862,0,0,0
33249,10285,33036,0,0,0
33415,10371,33230,0,0,0
33579,10457,33438,0,0,0
33739,10539,33649,0,0,0
33903,10621,33858,0,0,0
34070,10706,34067,0,0,0
34232,10791,34273,0,0,0
34387,10870,34471,0,0,0
34542,10948,34659,0,0,0
34692,11026,34839,0,0,0
34825,11097,35004,0,0,0
34937,11156,35149,0,0,0
35031,11203,35276,0,0,0
35107,11240,35386,0,0,0
35161,11266,35478,0,0,0
35200,11284,35549,0,0,0
35237,11299,35605,0,0,0
35267,11313,35650,0,0,0
35279,11323,35684,0,0,0
35285,11329,35707,0,0,0
35293,11334,35721,0,0,0
35296,11335,35727,0,0,0
35284,11330,35727,0,0,0
35268,11322,35719,0,0,0
35258,11314,35704,0,0,0
35246,11304,35685,0,0,0
35228,11292,35666,0,0,0
35214,11279,35649,0,0,0
35210,11270,35637,0,0,0
35209,11265,35627,0,0,0
35202,11261,35617,0,0,0
35197,11259,35609,0,0,0
35193,11257,35599,0,0,0
35183,11252,35587,0,0,0
35164,11244,35570,0,0,0
35140,11233,35541,0,0,0
35125,11217,35506,0,0,0
35112,11197,35467,0,0,0
35091,11172,35421,0,0,0
35067,11147,35367,0,0,0
35037,11121,35312,0,0,0
34992,11093,35259,0,0,0
34937,11064,35202,0,0,0
34887,11036,35144,0,0,0
34845,11012,35088,0,0,0
34797,10991,35037,0,0,0
34746,10969,34986,0,0,0
34706,10950,34941,0,0,0
34678,10936,34907,0,0,0
34649,10925,34883,0,0,0
34621,10912,34860,0,0,0
34604,10897,34834,0,0,0
34593,10885,34810,0,0,0
34579,10875,34790,0,0,0
34566,10866,34774,0,0,0
34562,10861,34762,0,0,0
34563,10862,34756,0,0,0
34561,10865,34750,0,0,0
34560,10872,34741,0,0,0
34567,10882,34734,0,0,0
34574,10891,34730,0,0,0
34570,10892,34719,0,0,0
34557,10886,34700,0,0,0
34543,10876,34674,0,0,0
34527,10863,34644,0,0,0
34504,10846,34611,0,0,0
34481,10828,34576,0,0,0
34460,10812,34541,0,0,0
34436,10792,34506,0,0,0
34404,10772,34474,0,0,0
34372,10755,34443,0,0,0
34339,10739,34406,0,0,0
34293,10720,34362,0,0,0
34235,10696,34307,0,0,0
34177,10670,34245,0,0,0
34124,10644,34183,0,0,0
34068,10619,34123,0,0,0
34012,10593,34060,0,0,0
33968,10568,33993,0,0,0
33933,10543,33929,0,0,0
33891,10518,33869,0,0,0
33838,10489,33807,0,0,0
33787,10460,33743,0,0,0
33741,10432,33679,0,0,0
33686,10401,33614,0,0,0
33626,10369,33548,0,0,0
33577,10339,33481,0,0,0
33536,10307,33412,0,0,0
33494,10275,33340,0,0,0
33448,10244,33271,0,0,0
33409,10219,33207,0,0,0
33372,10201,33147,0,0,0
33326,10184,33086,0,0,0
33275,10163,33024,0,0,0
33225,10136,32961,0,0,0
33175,10109,32900,0,0,0
33119,10080,32843,0,0,0
33062,10050,32790,0,0,0
33013,10022,32739,0,0,0
32969,9998,32691,0,0,0
32925,9976,32644,0,0,0
32886,9957,32601,0,0,0
32854,9941,32560,0,0,0
32818,9924,32517,0,0,0
32773,9904,32470,0,0,0
32723,9880,32420,0,0,0
32675,9854,32365,0,0,0
32627,9827,32307,0,0,0
32575,9801,32251,0,0,0
32532,9779,32201,0,0,0
32501,9764,32160,0,0,0
32472,9750,32122,0,0,0
32437,9733,32083,0,0,0
32409,9715,32047,0,0,0
32392,9701,32015,0,0,0
32371,9687,31979,0,0,0
32343,9671,31939,0,0,0
32320,9655,31898,0,0,0
32306,9642,31856,0,0,0
32288,9628,31810,0,0,0
32261,9612,31760,0,0,0
32237,9596,31713,0,0,0
32215,9584,31673,0,0,0
32186,9572,31637,0,0,0
32149,9556,31601,0,0,0
32114,9541,31567,0,0,0
32081,9527,31537,0,0,0
32040,9509,31506,0,0,0
31995,9486,31468,0,0,0
31953,9458,31422,0,0,0
31916,9434,31373,0,0,0
31878,9414,31324,0,0,0
31841,9395,31277,0,0,0
31808,9378,31234,0,0,0
31774,9360,31192,0,0,0
31729,9337,31147,0,0,0
31678,9312,31096,0,0,0
31629,9288,31042,0,0,0
31582,9263,30986,0,0,0
31531,9236,30927,0,0,0
31484,9207,30866,0,0,0
31447,9182,30809,0,0,0
31414,9159,30755,0,0,0
31375,9135,30699,0,0,0
31335,9113,30644,0,0,0
31302,9094,30595,0,0,0
31269,9078,30547,0,0,0
31232,9059,30498,0,0,0
31201,9043,30455,0,0,0
31189,9035,30428,0,0,0
31192,9039,30422,0,0,0
31215,9054,30441,0,0,0
31264,9082,30488,0,0,0
31338,9123,30565,0,0,0
31427,9170,30663,0,0,0
31520,9220,30777,0,0,0
31628,9277,30910,0,0,0
31755,9342,31060,0,0,0
31889,9413,31221,0,0,0
32027,9487,31395,0,0,0
32177,9563,31583,0,0,0
32339,9645,31783,0,0,0
32498,9729,31988,0,0,0
32653,9811,32191,0,0,0
32810,9892,32388,0,0,0
32961,9969,32578,0,0,0
33094,10038,32754,0,0,0
33210,10097,32911,0,0,0
33320,10150,33046,0,0,0
33421,10199,33168,0,0,0
33509,10243,33278,0,0,0
33582,10278,33370,0,0,0
33648,10309,33446,0,0,0
33705,10335,33508,0,0,0
33743,10352,33559,0,0,0
33767,10362,33599,0,0,0
33787,10370,33626,0,0,0
33800,10376,33644,0,0,0
33798,10381,33654,0,0,0
33787,10383,33655,0,0,0
33781,10382,33650,0,0,0
33775,10378,33642,0,0,0
33758,10371,33627,0,0,0
33734,10363,33602,0,0,0
33712,10355,33577,0,0,0
33693,10347,33556,0,0,0
33671,10336,33538,0,0,0
33652,10322,33523,0,0,0
33646,10312,33514,0,0,0
33643,10305,33505,0,0,0
33632,10295,33490,0,0,0
33617,10280,33463,0,0,0
33599,10265,33425,0,0,0
33575,10249,33383,0,0,0
33542,10230,33339,0,0,0
33508,10210,33294,0,0,0
33479,10193,33251,0,0,0
33446,10177,33211,0,0,0
33405,10158,33167,0,0,0
33364,10137,33120,0,0,0
33327,10115,33072,0,0,0
33290,10092,33025,0,0,0
33253,10070,32981,0,0,0
33230,10052,32942,0,0,0
33221,10039,32911,0,0,0
33216,10031,32889,0,0,0
33210,10025,32871,0,0,0
33206,10022,32857,0,0,0
33206,10022,32849,0,0,0
33201,10021,32841,0,0,0
33190,10018,32830,0,0,0
33180,10016,32819,0,0,0
33171,10015,32814,0,0,0
33159,10014,32810,0,0,0
33146,10012,32805,0,0,0
33142,10012,32801,0,0,0
33142,10012,32797,0,0,0
33134,10008,32789,0,0,0
33125,10001,32779,0,0,0
33125,9998,32770,0,0,0
33129,9995,32763,0,0,0
33126,9991,32756,0,0,0
33124,9988,32751,0,0,0
33127,9987,32748,0,0,0
33125,9985,32743,0,0,0
33110,9979,32729,0,0,0
33087,9969,32706,0,0,0
33065,9956,32674,0,0,0
33035,9942,32637,0,0,0
32992,9923,32591,0,0,0
32945,9900,32541,0,0,0
32903,9879,32490,0,0,0
32861,9864,32440,0,0,0
32814,9848,32389,0,0,0
32769,9830,32338,0,0,0
32727,9808,32288,0,0,0
32680,9782,32239,0,0,0
32629,9750,32184,0,0,0
32583,9719,32127,0,0,0
32547,9692,32072,0,0,0
32509,9668,32019,0,0,0
32464,9643,31966,0,0,0
32423,9619,31916,0,0,0
32386,9598,31868,0,0,0
32342,9576,31819,0,0,0
32296,9552,31765,0,0,0
32255,9526,31710,0,0,0
32217,9503,31658,0,0,0
32174,9481,31610,0,0,0
32127,9458,31565,0,0,0
32088,9436,31522,0,0,0
32057,9417,31482,0,0,0
32026,9400,31440,0,0,0
31992,9384,31394,0,0,0
31961,9369,31344,0,0,0
31934,9356,31296,0,0,0
31902,9340,31250,0,0,0
31869,9322,31209,0,0,0
31843,9306,31173,0,0,0
31817,9293,31139,0,0,0
31782,9277,31103,0,0,0
31746,9259,31064,0,0,0
31717,9242,31025,0,0,0
31689,9227,30986,0,0,0
31660,9212,30943,0,0,0
31633,9196,30899,0,0,0
31608,9180,30859,0,0,0
31580,9167,30824,0,0,0
31547,9151,30790,0,0,0
31513,9134,30754,0,0,0
31482,9118,30714,0,0,0
31452,9105,30674,0,0,0
31423,9092,30634,0,0,0
31401,9082,30595,0,0,0
31387,9076,30562,0,0,0
31369,9069,30530,0,0,0
31340,9058,30495,0,0,0
31312,9042,30464,0,0,0
31287,9024,30438,0,0,0
31254,9002,30409,0,0,0
31213,8976,30374,0,0,0
31179,8954,30338,0,0,0
31155,8939,30307,0,0,0
31129,8928,30274,0,0,0
31100,8916,30238,0,0,0
31076,8904,30202,0,0,0
31054,8890,30164,0,0,0
31022,8870,30121,0,0,0
30980,8846,30073,0,0,0
30938,8823,30027,0,0,0
30901,8802,29987,0,0,0
30859,8779,29947,0,0,0
30814,8755,29907,0,0,0
30777,8734,29866,0,0,0
30746,8715,29826,0,0,0
30709,8696,29786,0,0,0
30668,8680,29743,0,0,0
30632,8666,29699,0,0,0
30596,8653,29656,0,0,0
30557,8639,29614,0,0,0
30522,8622,29576,0,0,0
30503,8609,29548,0,0,0
30496,8604,29534,0,0,0
30496,8606,29532,0,0,0
30514,8617,29548,0,0,0
30558,8641,29586,0,0,0
30619,8676,29646,0,0,0
30691,8716,29722,0,0,0
30779,8760,29815,0,0,0
30888,8811,29925,0,0,0
31009,8870,30055,0,0,0
31138,8933,30202,0,0,0
31282,9000,30366,0,0,0
31444,9074,30547,0,0,0
31609,9153,30738,0,0,0
31765,9231,30930,0,0,0
31913,9307,31118,0,0,0
32060,9384,31302,0,0,0
32199,9458,31481,0,0,0
32325,9526,31650,0,0,0
32438,9586,31808,0,0,0
32543,9642,31953,0,0,0
32632,9690,32081,0,0,0
32698,9729,32189,0,0,0
32753,9760,32278,0,0,0
32806,9785,32352,0,0,0
32848,9805,32412,0,0,0
32878,9819,32460,0,0,0
32903,9830,32495,0,0,0
32921,9842,32517,0,0,0
32930,9853,32528,0,0,0
32929,9860,32526,0,0,0
32922,9861,32514,0,0,0
32910,9858,32498,0,0,0
32889,9850,32477,0,0,0
32867,9840,32454,0,0,0
32855,9832,32434,0,0,0
32846,9826,32415,0,0,0
32829,9818,32396,0,0,0
32804,9807,32373,0,0,0
32784,9796,32350,0,0,0
32768,9787,32327,0,0,0
32747,9776,32304,0,0,0
32725,9763,32280,0,0,0
32705,9748,32254,0,0,0
32682,9734,32228,0,0,0
32650,9715,32197,0,0,0
32617,9693,32160,0,0,0
32591,9671,32120,0,0,0
32564,9649,32080,0,0,0
32533,9628,32039,0,0,0
32502,9609,31998,0,0,0
32478,9595,31964,0,0,0
32455,9583,31934,0,0,0
32428,9569,31908,0,0,0
32401,9551,31885,0,0,0
32377,9536,31864,0,0,0
32358,9526,31842,0,0,0
32342,9519,31821,0,0,0
32337,9516,31806,0,0,0
32342,9520,31798,0,0,0
32350,9528,31793,0,0,0
32351,9535,31787,0,0,0
32352,9539,31783,0,0,0
32357,9542,31779,0,0,0
32357,9541,31773,0,0,0
32353,9537,31765,0,0,0
32353,9533,31758,0,0,0
32356,9529,31750,0,0,0
32351,9523,31743,0,0,0
32340,9519,31735,0,0,0
32335,9515,31726,0,0,0
32335,9512,31719,0,0,0
32332,9510,31708,0,0,0
32325,9507,31695,0,0,0
32322,9505,31684,0,0,0
32316,9502,31676,0,0,0
32297,9495,31665,0,0,0
32267,9484,31649,0,0,0
32237,9471,31631,0,0,0
32208,9456,31608,0,0,0
32177,9440,31579,0,0,0
32150,9424,31546,0,0,0
32131,9409,31515,0,0,0
32113,9398,31482,0,0,0
32090,9385,31446,0,0,0
32064,9371,31409,0,0,0
32037,9354,31371,0,0,0
32004,9335,31330,0,0,0
31962,9313,31285,0,0,0
31922,9290,31234,0,0,0
31887,9269,31183,0,0,0
31853,9250,31134,0,0,0
31814,9230,31087,0,0,0
31775,9207,31039,0,0,0
31740,9184,30995,0,0,0
31699,9161,30950,0,0,0
31649,9136,30902,0,0,0
31599,9109,30852,0,0,0
31559,9086,30805,0,0,0
31523,9070,30760,0,0,0
31488,9056,30714,0,0,0
31459,9046,30671,0,0,0
31436,9037,30629,0,0,0
31408,9029,30585,0,0,0
31371,9016,30540,0,0,0
31333,8999,30498,0,0,0
31302,8981,30458,0,0,0
31272,8964,30419,0,0,0
31241,8950,30383,0,0,0
31219,8941,30355,0,0,0
31202,8934,30331,0,0,0
31181,8925,30306,0,0,0
31157,8913,30276,0,0,0
31140,8901,30247,0,0,0
31130,8890,30218,0,0,0
31114,8877,30185,0,0,0
31090,8861,30151,0,0,0
31070,8848,30120,0,0,0
31054,8837,30093,0,0,0
31030,8825,30066,0,0,0
30999,8810,30036,0,0,0
30971,8797,30007,0,0,0
30946,8785,29979,0,0,0
30914,8772,29950,0,0,0
30884,8759,29922,0,0,0
30865,8748,29895,0,0,0
30855,8741,29871,0,0,0
30846,8737,29847,0,0,0
30839,8734,29824,0,0,0
30837,8733,29804,0,0,0
30832,8737,29789,0,0,0
30819,8739,29773,0,0,0
30803,8736,29750,0,0,0
30789,8728,29722,0,0,0
30767,8713,29690,0,0,0
30732,8690,29657,0,0,0
30698,8662,29625,0,0,0
30663,8640,29597,0,0,0
30621,8626,29565,0,0,0
30574,8612,29531,0,0,0
30531,8597,29497,0,0,0
30491,8578,29459,0,0,0
30445,8554,29411,0,0,0
30394,8527,29355,0,0,0
30346,8500,29301,0,0,0
30305,8476,29252,0,0,0
30266,8452,29203,0,0,0
30230,8430,29156,0,0,0
30204,8415,29114,0,0,0
30186,8403,29076,0,0,0
30167,8392,29037,0,0,0
30145,8382,28998,0,0,0
30131,8374,28968,0,0,0
30127,8369,28954,0,0,0
30130,8367,28956,0,0,0
30147,8372,28975,0,0,0
30188,8388,29015,0,0,0
30254,8419,29081,0,0,0
30335,8462,29172,0,0,0
30430,8515,29282,0,0,0
30546,8579,29413,0,0,0
30674,8651,29561,0,0,0
30807,8728,29721,0,0,0
30946,8805,29888,0,0,0
31093,8881,30059,0,0,0
31242,8954,30234,0,0,0
31384,9024,30411,0,0,0
31523,9090,30587,0,0,0
31663,9155,30760,0,0,0
31799,9218,30928,0,0,0
31920,9278,31090,0,0,0
32029,9332,31241,0,0,0
32132,9381,31379,0,0,0
32223,9425,31498,0,0,0
32292,9457,31599,0,0,0
32343,9478,31684,0,0,0
32384,9494,31752,0,0,0
32413,9509,31803,0,0,0
32433,9519,31841,0,0,0
32448,9525,31869,0,0,0
32455,9528,31890,0,0,0
32450,9526,31901,0,0,0
32434,9518,31901,0,0,0
32418,9506,31891,0,0,0
32412,9495,31878,0,0,0
32406,9486,31863,0,0,0
32397,9479,31843,0,0,0
32389,9475,31818,0,0,0
32381,9471,31795,0,0,0
32366,9465,31772,0,0,0
32343,9456,31750,0,0,0
32323,9445,31728,0,0,0
32307,9434,31708,0,0,0
32288,9423,31686,0,0,0
32268,9411,31662,0,0,0
32253,9401,31640,0,0,0
32242,9393,31618,0,0,0
32226,9385,31591,0,0,0
32203,9373,31556,0,0,0
32182,9362,31521,0,0,0
32164,9352,31490,0,0,0
32142,9343,31457,0,0,0
32118,9333,31424,0,0,0
32099,9323,31393,0,0,0
32083,9312,31365,0,0,0
32059,9302,31342,0,0,0
32033,9293,31321,0,0,0
32014,9285,31303,0,0,0
32003,9279,31288,0,0,0
31990,9274,31272,0,0,0
31978,9266,31256,0,0,0
31975,9259,31242,0,0,0
31976,9255,31233,0,0,0
31977,9251,31227,0,0,0
31983,9250,31226,0,0,0
31999,9253,31233,0,0,0
32013,9259,31242,0,0,0
32015,9260,31247,0,0,0
32012,9259,31252,0,0,0
32011,9260,31262,0,0,0
32009,9261,31271,0,0,0
32004,9261,31278,0,0,0
32006,9261,31285,0,0,0
32014,9264,31290,0,0,0
32022,9268,31291,0,0,0
32026,9270,31289,0,0,0
32032,9273,31285,0,0,0
32039,9277,31281,0,0,0
32034,9280,31273,0,0,0
32013,9279,31256,0,0,0
31989,9273,31232,0,0,0
31966,9263,31207,0,0,0
31936,9245,31177,0,0,0
31902,9224,31142,0,0,0
31874,9204,31107,0,0,0
31852,9188,31072,0,0,0
31824,9171,31035,0,0,0
31789,9153,30994,0,0,0
31754,9133,30951,0,0,0
31722,9116,30906,0,0,0
31684,9098,30857,0,0,0
31642,9077,30804,0,0,0
31603,9057,30752,0,0,0
31565,9035,30701,0,0,0
31524,9010,30649,0,0,0
31480,8983,30599,0,0,0
31442,8958,30555,0,0,0
31410,8939,30514,0,0,0
31374,8923,30472,0,0,0
31340,8911,30432,0,0,0
31315,8902,30397,0,0,0
31290,8893,30360,0,0,0
31256,8880,30318,0,0,0
31217,8863,30273,0,0,0
31184,8843,30227,0,0,0
31152,8821,30179,0,0,0
31113,8800,30131,0,0,0
31071,8783,30088,0,0,0
31034,8770,30047,0,0,0
30997,8755,30009,0,0,0
30956,8738,29973,0,0,0
30918,8718,29941,0,0,0
30886,8700,29909,0,0,0
30856,8684,29877,0,0,0
30826,8668,29841,0,0,0
30801,8655,29806,0,0,0
30785,8647,29775,0,0,0
30769,8641,29744,0,0,0
30748,8634,29708,0,0,0
30729,8625,29670,0,0,0
30712,8615,29635,0,0,0
30689,8601,29601,0,0,0
30663,8585,29568,0,0,0
30643,8569,29535,0,0,0
30626,8555,29508,0,0,0
30605,8541,29485,0,0,0
30580,8526,29462,0,0,0
30560,8512,29441,0,0,0
30544,8501,29422,0,0,0
30527,8492,29402,0,0,0
30506,8482,29377,0,0,0
30485,8471,29350,0,0,0
30465,8461,29321,0,0,0
30439,8448,29288,0,0,0
30411,8435,29253,0,0,0
30390,8424,29221,0,0,0
30369,8416,29192,0,0,0
30340,8406,29162,0,0,0
30311,8393,29133,0,0,0
30289,8379,29109,0,0,0
30270,8367,29086,0,0,0
30244,8355,29055,0,0,0
30215,8339,29019,0,0,0
30191,8322,28983,0,0,0
30168,8307,28947,0,0,0
30140,8292,28909,0,0,0
30112,8279,28873,0,0,0
30092,8270,28840,0,0,0
30070,8265,28807,0,0,0
30042,8258,28773,0,0,0
30017,8250,28743,0,0,0
30005,8242,28719,0,0,0
30000,8237,28706,0,0,0
30003,8238,28709,0,0,0
30028,8250,28735,0,0,0
30080,8273,28787,0,0,0
30146,8305,28864,0,0,0
30220,8344,28960,0,0,0
30307,8392,29076,0,0,0
30410,8448,29209,0,0,0
30524,8507,29353,0,0,0
30649,8569,29506,0,0,0
30790,8638,29668,0,0,0
30946,8714,29841,0,0,0
31108,8792,30020,0,0,0
31264,8868,30201,0,0,0
31419,8946,30380,0,0,0
31570,9028,30557,0,0,0
31705,9106,30731,0,0,0
31823,9177,30893,0,0,0
31931,9239,31045,0,0,0
32034,9294,31186,0,0,0
32125,9339,31311,0,0,0
32202,9373,31417,0,0,0
32270,9402,31509,0,0,0
32324,9427,31586,0,0,0
32360,9446,31649,0,0,0
32384,9458,31699,0,0,0
32403,9466,31739,0,0,0
32415,9471,31766,0,0,0
32412,9470,31776,0,0,0
32399,9464,31773,0,0,0
32389,9457,31766,0,0,0
32382,9450,31755,0,0,0
32372,9438,31740,0,0,0
32362,9423,31723,0,0,0
32356,9410,31707,0,0,0
32346,9400,31694,0,0,0
32327,9391,31679,0,0,0
32305,9382,31664,0,0,0
32286,9374,31648,0,0,0
32269,9367,31629,0,0,0
32250,9359,31608,0,0,0
32233,9352,31585,0,0,0
32217,9346,31563,0,0,0
32196,9339,31543,0,0,0
32165,9327,31522,0,0,0
32134,9310,31496,0,0,0
32104,9291,31462,0,0,0
32067,9271,31420,0,0,0
32028,9249,31376,0,0,0
31997,9233,31333,0,0,0
31979,9225,31300,0,0,0
31966,9220,31274,0,0,0
31953,9213,31250,0,0,0
31945,9206,31228,0,0,0
31943,9203,31214,0,0,0
31940,9202,31205,0,0,0
31932,9201,31193,0,0,0
31928,9201,31180,0,0,0
31934,9202,31168,0,0,0
31939,9203,31159,0,0,0
31943,9205,31154,0,0,0
31951,9209,31158,0,0,0
31960,9215,31168,0,0,0
31959,9221,31179,0,0,0
31955,9225,31187,0,0,0
31959,9230,31195,0,0,0
31968,9235,31200,0,0,0
31972,9237,31200,0,0,0
31977,9236,31197,0,0,0
31990,9238,31199,0,0,0
32001,9241,31208,0,0,0
32006,9243,31220,0,0,0
32008,9242,31230,0,0,0
32011,9241,31236,0,0,0
32007,9239,31235,0,0,0
31992,9231,31223,0,0,0
31973,9220,31200,0,0,0
31958,9206,31176,0,0,0
31942,9194,31153,0,0,0
31919,9181,31131,0,0,0
31896,9167,31106,0,0,0
31877,9153,31079,0,0,0
31851,9140,31051,0,0,0
31817,9125,31017,0,0,0
31782,9105,30979,0,0,0
31743,9084,30937,0,0,0
31696,9061,30888,0,0,0
31647,9038,30834,0,0,0
31603,9017,30781,0,0,0
31566,8999,30732,0,0,0
31529,8979,30684,0,0,0
31490,8956,30634,0,0,0
31453,8934,30584,0,0,0
31416,8911,30535,0,0,0
31376,8888,30489,0,0,0
31336,8863,30438,0,0,0
31300,8841,30385,0,0,0
31272,8827,30339,0,0,0
31244,8816,30297,0,0,0
31212,8803,30258,0,0,0
31184,8792,30224,0,0,0
31161,8787,30197,0,0,0
31137,8784,30173,0,0,0
31112,8783,30149,0,0,0
31089,8781,30123,0,0,0
31066,8774,30092,0,0,0
31040,8762,30056,0,0,0
31013,8746,30018,0,0,0
30992,8731,29984,0,0,0
30974,8717,29952,0,0,0
30951,8701,29919,0,0,0
30924,8683,29885,0,0,0
30895,8667,29856,0,0,0
30863,8651,29827,0,0,0
30824,8635,29793,0,0,0
30785,8619,29756,0,0,0
30756,8603,29720,0,0,0
30728,8589,29687,0,0,0
30697,8574,29654,0,0,0
30667,8559,29619,0,0,0
30644,8546,29588,0,0,0
30630,8540,29561,0,0,0
30617,8535,29537,0,0,0
30605,8530,29515,0,0,0
30593,8525,29496,0,0,0
30575,8516,29477,0,0,0
30548,8501,29452,0,0,0
30519,8486,29425,0,0,0
30493,8471,29399,0,0,0
30465,8456,29372,0,0,0
30433,8440,29345,0,0,0
30406,8427,29316,0,0,0
30388,8417,29288,0,0,0
30369,8407,29257,0,0,0
30345,8396,29221,0,0,0
30323,8385,29190,0,0,0
30303,8374,29160,0,0,0
30274,8359,29120,0,0,0
30237,8340,29069,0,0,0
30205,8322,29019,0,0,0
30178,8308,28976,0,0,0
30149,8296,28939,0,0,0
30117,8284,28903,0,0,0
30091,8273,28868,0,0,0
30070,8262,28836,0,0,0
30047,8249,28804,0,0,0
30026,8237,28773,0,0,0
30014,8229,28751,0,0,0
30012,8227,28743,0,0,0
30020,8231,28752,0,0,0
30044,8246,28783,0,0,0
30094,8273,28836,0,0,0
30167,8314,28910,0,0,0
30251,8361,29006,0,0,0
30348,8414,29120,0,0,0
30464,8474,29252,0,0,0
30596,8541,29403,0,0,0
30737,8612,29567,0,0,0
30885,8687,29742,0,0,0
31042,8765,29929,0,0,0
31203,8846,30124,0,0,0
31358,8924,30320,0,0,0
31508,8996,30515,0,0,0
31653,9064,30708,0,0,0
31789,9130,30894,0,0,0
31910,9190,31068,0,0,0
32024,9246,31226,0,0,0
32134,9298,31369,0,0,0
32233,9345,31498,0,0,0
32318,9385,31613,0,0,0
32395,9422,31716,0,0,0
32463,9454,31805,0,0,0
32513,9479,31875,0,0,0
32545,9495,31926,0,0,0
32568,9504,31961,0,0,0
32589,9510,31987,0,0,0
32603,9514,32004,0,0,0
32608,9518,32015,0,0,0
32613,9525,32024,0,0,0
32618,9533,32029,0,0,0
32616,9537,32026,0,0,0
32609,9535,32017,0,0,0
32602,9531,32008,0,0,0
32599,9525,31998,0,0,0
32590,9516,31982,0,0,0
32575,9506,31963,0,0,0
32562,9498,31944,0,0,0
32548,9490,31925,0,0,0
32524,9480,31906,0,0,0
32494,9465,31881,0,0,0
32462,9447,31852,0,0,0
32427,9427,31816,0,0,0
32385,9402,31771,0,0,0
32345,9377,31724,0,0,0
32316,9357,31681,0,0,0
32290,9338,31643,0,0,0
32260,9319,31608,0,0,0
32229,9304,31578,0,0,0
32203,9294,31552,0,0,0
32180,9285,31526,0,0,0
32154,9272,31499,0,0,0
32131,9258,31476,0,0,0
32118,9249,31459,0,0,0
32113,9248,31446,0,0,0
32110,9251,31437,0,0,0
32111,9257,31433,0,0,0
32114,9261,31435,0,0,0
32115,9264,31439,0,0,0
32111,9265,31442,0,0,0
32112,9268,31448,0,0,0
32125,9276,31460,0,0,0
32137,9283,31470,0,0,0
32142,9288,31480,0,0,0
32151,9294,31489,0,0,0
32165,9302,31499,0,0,0
32174,9309,31508,0,0,0
32177,9312,31512,0,0,0
32185,9313,31513,0,0,0
32195,9314,31513,0,0,0
32197,9313,31512,0,0,0
32191,9311,31510,0,0,0
32187,9307,31504,0,0,0
32184,9301,31498,0,0,0
32176,9293,31489,0,0,0
32158,9282,31474,0,0,0
32140,9271,31449,0,0,0
32119,9261,31416,0,0,0
32089,9246,31376,0,0,0
32055,9227,31334,0,0,0
32025,9207,31295,0,0,0
31995,9188,31254,0,0,0
31960,9170,31210,0,0,0
31926,9153,31165,0,0,0
31898,9140,31121,0,0,0
31870,9129,31079,0,0,0
31833,9117,31037,0,0,0
31791,9100,30995,0,0,0
31755,9081,30955,0,0,0
31719,9060,30912,0,0,0
31677,9036,30862,0,0,0
31636,9010,30811,0,0,0
31603,8989,30762,0,0,0
31570,8973,30715,0,0,0
31529,8957,30666,0,0,0
31489,8939,30617,0,0,0
31450,8921,30571,0,0,0
31408,8904,30527,0,0,0
31363,8885,30485,0,0,0
31324,8866,30447,0,0,0
31295,8851,30417,0,0,0
31265,8838,30390,0,0,0
31228,8822,30357,0,0,0
31191,8807,30321,0,0,0
31160,8791,30281,0,0,0
31127,8772,30236,0,0,0
31093,8752,30186,0,0,0
31065,8735,30137,0,0,0
31039,8721,30093,0,0,0
31009,8707,30052,0,0,0
30973,8693,30013,0,0,0
30941,8682,29976,0,0,0
30913,8672,29942,0,0,0
30879,8659,29909,0,0,0
30844,8642,29877,0,0,0
30818,8626,29849,0,0,0
30798,8615,29826,0,0,0
30777,8609,29803,0,0,0
30756,8602,29776,0,0,0
30738,8596,29750,0,0,0
30717,8591,29724,0,0,0
30688,8581,29694,0,0,0
30659,8565,29662,0,0,0
30639,8549,29636,0,0,0
30624,8536,29615,0,0,0
30609,8525,29596,0,0,0
30592,8514,29573,0,0,0
30576,8504,29547,0,0,0
30557,8493,29517,0,0,0
30527,8480,29480,0,0,0
30494,8465,29442,0,0,0
30465,8450,29406,0,0,0
30440,8436,29372,0,0,0
30412,8420,29336,0,0,0
30386,8404,29305,0,0,0
30369,8391,29277,0,0,0
30354,8383,29251,0,0,0
30334,8375,29227,0,0,0
30310,8365,29205,0,0,0
30285,8354,29181,0,0,0
30255,8340,29152,0,0,0
30221,8323,29118,0,0,0
30191,8308,29080,0,0,0
30170,8298,29044,0,0,0
30149,8291,29009,0,0,0
30125,8283,28975,0,0,0
30102,8275,28941,0,0,0
30079,8266,28910,0,0,0
30054,8254,28883,0,0,0
30027,8240,28859,0,0,0
30008,8230,28843,0,0,0
30010,8229,28845,0,0,0
30028,8237,28865,0,0,0
30063,8255,28905,0,0,0
30126,8286,28969,0,0,0
30219,8329,29057,0,0,0
30330,8381,29165,0,0,0
30452,8439,29292,0,0,0
30591,8508,29441,0,0,0
30745,8584,29612,0,0,0
30902,8662,29796,0,0,0
31062,8742,29991,0,0,0
31234,8823,30199,0,0,0
31411,8906,30414,0,0,0
31579,8989,30625,0,0,0
31740,9070,30833,0,0,0
31899,9150,31039,0,0,0
32048,9229,31234,0,0,0
32179,9302,31412,0,0,0
32298,9367,31574,0,0,0
32410,9427,31721,0,0,0
32511,9481,31854,0,0,0
32595,9527,31972,0,0,0
32668,9566,32077,0,0,0
32737,9601,32172,0,0,0
32793,9630,32251,0,0,0
32829,9646,32308,0,0,0
32858,9652,32349,0,0,0
32889,9657,32381,0,0,0
32912,9662,32404,0,0,0
32918,9664,32418,0,0,0
32915,9664,32426,0,0,0
32908,9663,32426,0,0,0
32893,9659,32416,0,0,0
32871,9649,32396,0,0,0
32852,9636,32371,0,0,0
32840,9624,32350,0,0,0
32828,9616,32333,0,0,0
32815,9609,32319,0,0,0
32806,9604,32308,0,0,0
32795,9599,32295,0,0,0
32773,9592,32271,0,0,0
32742,9580,32240,0,0,0
32712,9563,32209,0,0,0
32690,9548,32180,0,0,0
32668,9534,32150,0,0,0
32640,9518,32119,0,0,0
32617,9504,32091,0,0,0
32599,9495,32067,0,0,0
32575,9488,32042,0,0,0
32545,9478,32014,0,0,0
32519,9465,31986,0,0,0
32499,9450,31960,0,0,0
32476,9432,31931,0,0,0
32454,9419,31903,0,0,0
32443,9414,31887,0,0,0
32439,9416,31883,0,0,0
32435,9422,31885,0,0,0
32432,9428,31885,0,0,0
32434,9434,31887,0,0,0
32436,9437,31892,0,0,0
32432,9437,31892,0,0,0
32425,9432,31888,0,0,0
32425,9426,31886,0,0,0
32429,9424,31887,0,0,0
32431,9427,31892,0,0,0
32435,9431,31898,0,0,0
32444,9439,31907,0,0,0
32453,9445,31916,0,0,0
32458,9446,31922,0,0,0
32466,9443,31925,0,0,0
32477,9441,31927,0,0,0
32485,9440,31927,0,0,0
32487,9438,31922,0,0,0
32489,9436,31914,0,0,0
32492,9437,31907,0,0,0
32487,9436,31898,0,0,0
32466,9430,31883,0,0,0
32438,9421,31865,0,0,0
32408,9409,31845,0,0,0
32371,9394,31819,0,0,0
32331,9376,31787,0,0,0
32298,9357,31752,0,0,0
32270,9340,31716,0,0,0
32240,9325,31673,0,0,0
32202,9308,31621,0,0,0
32167,9290,31566,0,0,0
32132,9272,31512,0,0,0
32089,9250,31455,0,0,0
32040,9225,31394,0,0,0
31993,9199,31334,0,0,0
31950,9175,31277,0,0,0
31906,9151,31224,0,0,0
31860,9131,31172,0,0,0
31821,9115,31126,0,0,0
31786,9099,31086,0,0,0
31749,9081,31047,0,0,0
31711,9059,31005,0,0,0
31680,9036,30960,0,0,0
31651,9016,30917,0,0,0
31618,8999,30873,0,0,0
31584,8984,30829,0,0,0
31552,8970,30785,0,0,0
31519,8953,30741,0,0,0
31485,8936,30698,0,0,0
31456,8921,30658,0,0,0
31435,8911,30625,0,0,0
31414,8903,30597,0,0,0
31388,8892,30571,0,0,0
31361,8879,30548,0,0,0
31339,8866,30526,0,0,0
31320,8856,30503,0,0,0
31298,8848,30479,0,0,0
31278,8843,30457,0,0,0
31263,8840,30439,0,0,0
31246,8832,30414,0,0,0
31223,8820,30381,0,0,0
31201,8807,30347,0,0,0
31185,8796,30317,0,0,0
31168,8787,30287,0,0,0
31146,8776,30256,0,0,0
31123,8763,30226,0,0,0
31103,8752,30198,0,0,0
31076,8740,30169,0,0,0
31044,8725,30138,0,0,0
31014,8706,30108,0,0,0
30995,8688,30083,0,0,0
30979,8671,30057,0,0,0
30963,8656,30030,0,0,0
30949,8644,30007,0,0,0
30937,8637,29981,0,0,0
30916,8629,29952,0,0,0
30884,8618,29921,0,0,0
30849,8608,29891,0,0,0
30813,8600,29860,0,0,0
30773,8587,29823,0,0,0
30733,8570,29781,0,0,0
30703,8552,29738,0,0,0
30679,8536,29701,0,0,0
30650,8521,29665,0,0,0
30621,8506,29632,0,0,0
30598,8496,29602,0,0,0
30576,8488,29573,0,0,0
30548,8480,29543,0,0,0
30521,8476,29513,0,0,0
30503,8475,29483,0,0,0
30487,8474,29452,0,0,0
30464,8469,29417,0,0,0
30434,8458,29383,0,0,0
30407,8447,29353,0,0,0
30381,8436,29326,0,0,0
30356,8424,29305,0,0,0
30347,8415,29295,0,0,0
30362,8418,29303,0,0,0
30399,8434,29336,0,0,0
30458,8464,29395,0,0,0
30544,8505,29480,0,0,0
30654,8558,29593,0,0,0
30777,8624,29730,0,0,0
30910,8696,29885,0,0,0
31060,8775,30056,0,0,0
31227,8859,30241,0,0,0
31398,8944,30434,0,0,0
31569,9027,30635,0,0,0
31746,9109,30844,0,0,0
31923,9191,31055,0,0,0
32091,9270,31266,0,0,0
32245,9343,31470,0,0,0
32391,9411,31668,0,0,0
32527,9473,31856,0,0,0
32647,9530,32028,0,0,0
32754,9579,32183,0,0,0
32858,9625,32327,0,0,0
32955,9669,32458,0,0,0
33031,9709,32571,0,0,0
33085,9740,32659,0,0,0
33124,9764,32727,0,0,0
33150,9785,32775,0,0,0
33160,9798,32802,0,0,0
33163,9805,32813,0,0,0
33165,9807,32814,0,0,0
33167,9808,32808,0,0,0
33166,9807,32798,0,0,0
33163,9804,32785,0,0,0
33156,9797,32770,0,0,0
33142,9787,32752,0,0,0
33116,9772,32730,0,0,0
33085,9752,32705,0,0,0
33057,9734,32678,0,0,0
33032,9721,32650,0,0,0
33003,9708,32617,0,0,0
32977,9696,32582,0,0,0
32955,9685,32550,0,0,0
32926,9675,32517,0,0,0
32884,9659,32479,0,0,0
32839,9638,32439,0,0,0
32799,9616,32400,0,0,0
32761,9597,32361,0,0,0
32725,9581,32318,0,0,0
32692,9569,32276,0,0,0
32663,9558,32237,0,0,0
32631,9545,32199,0,0,0
32597,9528,32162,0,0,0
32570,9512,32133,0,0,0
32558,9504,32112,0,0,0
32554,9500,32096,0,0,0
32549,9496,32082,0,0,0
32550,9491,32073,0,0,0
32556,9487,32070,0,0,0
32557,9481,32067,0,0,0
32549,9472,32060,0,0,0
32541,9464,32050,0,0,0
32537,9459,32043,0,0,0
32530,9455,32037,0,0,0
32522,9453,32034,0,0,0
32522,9455,32039,0,0,0
32530,9461,32050,0,0,0
32537,9467,32062,0,0,0
32540,9472,32071,0,0,0
32545,9474,32081,0,0,0
32550,9478,32092,0,0,0
32546,9481,32097,0,0,0
32536,9480,32092,0,0,0
32524,9478,32080,0,0,0
32510,9475,32064,0,0,0
32491,9470,32045,0,0,0
32473,9463,32024,0,0,0
32457,9456,32003,0,0,0
32439,9449,31983,0,0,0
32411,9441,31963,0,0,0
32377,9430,31941,0,0,0
32343,9417,31918,0,0,0
32308,9400,31891,0,0,0
32267,9379,31856,0,0,0
32221,9353,31812,0,0,0
32176,9326,31766,0,0,0
32130,9299,31718,0,0,0
32079,9272,31664,0,0,0
32028,9245,31609,0,0,0
31979,9222,31553,0,0,0
31927,9197,31493,0,0,0
31868,9170,31429,0,0,0
31812,9142,31366,0,0,0
31764,9113,31305,0,0,0
31715,9083,31245,0,0,0
31664,9053,31183,0,0,0
31620,9029,31122,0,0,0
31585,9010,31068,0,0,0
31549,8995,31020,0,0,0
31510,8981,30976,0,0,0
31476,8971,30938,0,0,0
31444,8961,30903,0,0,0
31403,8945,30861,0,0,0
31359,8924,30814,0,0,0
31319,8904,30770,0,0,0
31280,8887,30731,0,0,0
31240,8872,30692,0,0,0
31204,8860,30652,0,0,0
31177,8850,30615,0,0,0
31150,8838,30580,0,0,0
31114,8820,30542,0,0,0
31070,8798,30499,0,0,0
31028,8777,30456,0,0,0
30991,8762,30416,0,0,0
30956,8751,30376,0,0,0
30924,8743,30341,0,0,0
30901,8740,30313,0,0,0
30884,8736,30292,0,0,0
30865,8728,30274,0,0,0
30848,8717,30257,0,0,0
30833,8708,30240,0,0,0
30814,8698,30222,0,0,0
30790,8686,30202,0,0,0
30766,8672,30181,0,0,0
30747,8658,30156,0,0,0
30727,8645,30129,0,0,0
30703,8632,30101,0,0,0
30680,8622,30078,0,0,0
30660,8615,30061,0,0,0
30637,8608,30039,0,0,0
30607,8597,30010,0,0,0
30579,8586,29981,0,0,0
30556,8574,29952,0,0,0
30528,8558,29916,0,0,0
30498,8544,29877,0,0,0
30474,8536,29842,0,0,0
30460,8533,29812,0,0,0
30446,8532,29784,0,0,0
30426,8529,29757,0,0,0
30402,8523,29731,0,0,0
30375,8514,29704,0,0,0
30340,8500,29676,0,0,0
30305,8488,29651,0,0,0
30287,8482,29634,0,0,0
30286,8485,29628,0,0,0
30297,8494,29636,0,0,0
30321,8508,29658,0,0,0
30367,8532,29702,0,0,0
30432,8566,29768,0,0,0
30508,8605,29851,0,0,0
30595,8650,29950,0,0,0
30700,8701,30067,0,0,0
30823,8761,30209,0,0,0
30957,8826,30370,0,0,0
31101,8895,30542,0,0,0
31254,8970,30723,0,0,0
31409,9047,30910,0,0,0
31563,9126,31096,0,0,0
31716,9204,31279,0,0,0
31867,9279,31459,0,0,0
32006,9347,31628,0,0,0
32128,9405,31782,0,0,0
32238,9453,31924,0,0,0
32342,9498,32056,0,0,0
32438,9539,32177,0,0,0
32516,9575,32282,0,0,0
32581,9605,32372,0,0,0
32636,9633,32449,0,0,0
32677,9659,32512,0,0,0
32699,9677,32557,0,0,0
32708,9689,32588,0,0,0
32708,9695,32608,0,0,0
32698,9692,32615,0,0,0
32679,9683,32605,0,0,0
32659,9671,32583,0,0,0
32646,9661,32552,0,0,0
32633,9650,32516,0,0,0
32614,9636,32480,0,0,0
32595,9622,32444,0,0,0
32577,9610,32412,0,0,0
32554,9598,32383,0,0,0
32526,9585,32354,0,0,0
32496,9571,32327,0,0,0
32462,9555,32298,0,0,0
32420,9536,32265,0,0,0
32373,9515,32225,0,0,0
32328,9495,32180,0,0,0
32291,9478,32135,0,0,0
32251,9460,32088,0,0,0
32208,9442,32039,0,0,0
32176,9428,31992,0,0,0
32155,9418,31950,0,0,0
32135,9409,31911,0,0,0
32113,9401,31875,0,0,0
32091,9393,31845,0,0,0
32069,9383,31820,0,0,0
32043,9370,31798,0,0,0
32020,9358,31781,0,0,0
32010,9348,31771,0,0,0
32011,9343,31764,0,0,0
32017,9343,31763,0,0,0
32027,9348,31769,0,0,0
32046,9358,31780,0,0,0
32070,9369,31797,0,0,0
32097,9383,31819,0,0,0
32124,9396,31847,0,0,0
32149,9406,31875,0,0,0
32168,9414,31898,0,0,0
32183,9418,31915,0,0,0
32200,9422,31928,0,0,0
32220,9427,31941,0,0,0
32236,9432,31954,0,0,0
32245,9437,31967,0,0,0
32253,9443,31980,0,0,0
32261,9451,31996,0,0,0
32263,9458,32008,0,0,0
32256,9464,32011,0,0,0
32248,9468,32009,0,0,0
32240,9468,32003,0,0,0
32223,9461,31987,0,0,0
32200,9451,31963,0,0,0
32179,9439,31938,0,0,0
32162,9424,31912,0,0,0
32142,9410,31884,0,0,0
32118,9394,31852,0,0,0
32094,9378,31819,0,0,0
32069,9361,31782,0,0,0
32038,9343,31737,0,0,0
32000,9325,31686,0,0,0
31966,9306,31636,0,0,0
31937,9288,31593,0,0,0
31907,9270,31553,0,0,0
31875,9251,31514,0,0,0
31846,9237,31479,0,0,0
31818,9225,31446,0,0,0
31788,9213,31407,0,0,0
31760,9201,31364,0,0,0
31739,9192,31322,0,0,0
31718,9184,31279,0,0,0
31690,9173,31233,0,0,0
31661,9157,31187,0,0,0
31640,9143,31145,0,0,0
31620,9131,31107,0,0,0
31592,9118,31068,0,0,0
31562,9103,31029,0,0,0
31533,9085,30993,0,0,0
31499,9065,30958,0,0,0
31457,9043,30920,0,0,0
31418,9021,30879,0,0,0
31386,9000,30841,0,0,0
31358,8982,30807,0,0,0
31334,8967,30776,0,0,0
31318,8955,30751,0,0,0
31310,8951,30733,0,0,0
31299,8951,30715,0,0,0
31280,8948,30693,0,0,0
31260,8939,30669,0,0,0
31243,8929,30647,0,0,0
31223,8920,30626,0,0,0
31198,8912,30603,0,0,0
31175,8904,30579,0,0,0
31157,8899,30554,0,0,0
31137,8895,30525,0,0,0
31112,8886,30495,0,0,0
31092,8878,30468,0,0,0
31078,8873,30441,0,0,0
31060,8867,30410,0,0,0
31037,8858,30376,0,0,0
31018,8849,30341,0,0,0
31005,8841,30308,0,0,0
30989,8829,30278,0,0,0
30968,8813,30250,0,0,0
30948,8797,30226,0,0,0
30926,8783,30202,0,0,0
30898,8770,30175,0,0,0
30871,8762,30151,0,0,0
30858,8759,30136,0,0,0
30855,8762,30133,0,0,0
30862,8771,30144,0,0,0
30889,8788,30174,0,0,0
30946,8818,30230,0,0,0
31025,8860,30314,0,0,0
31117,8910,30420,0,0,0
31224,8965,30546,0,0,0
31350,9028,30693,0,0,0
31488,9097,30856,0,0,0
31632,9168,31031,0,0,0
31781,9241,31211,0,0,0
31940,9319,31396,0,0,0
32104,9398,31583,0,0,0
32266,9477,31770,0,0,0
32428,9555,31957,0,0,0
32590,9635,32146,0,0,0
32744,9714,32331,0,0,0
32878,9785,32506,0,0,0
32993,9846,32669,0,0,0
33093,9900,32814,0,0,0
33177,9943,32939,0,0,0
33245,9975,33041,0,0,0
33303,9998,33121,0,0,0
33350,10015,33183,0,0,0
33382,10024,33226,0,0,0
33402,10025,33254,0,0,0
33418,10023,33270,0,0,0
33428,10021,33278,0,0,0
33425,10018,33276,0,0,0
33412,10014,33262,0,0,0
33397,10013,33239,0,0,0
33381,10011,33211,0,0,0
33354,10005,33178,0,0,0
33320,9992,33140,0,0,0
33291,9976,33101,0,0,0
33267,9961,33067,0,0,0
33239,9946,33036,0,0,0
33210,9930,33004,0,0,0
33189,9914,32974,0,0,0
33172,9899,32942,0,0,0
33150,9884,32908,0,0,0
33122,9871,32873,0,0,0
33095,9859,32841,0,0,0
33067,9845,32810,0,0,0
33031,9828,32774,0,0,0
32993,9810,32731,0,0,0
32962,9793,32684,0,0,0
32933,9777,32637,0,0,0
32902,9760,32594,0,0,0
32876,9744,32559,0,0,0
32856,9735,32531,0,0,0
32839,9729,32507,0,0,0
32822,9724,32488,0,0,0
32811,9721,32475,0,0,0
32808,9719,32465,0,0,0
32809,9715,32454,0,0,0
32810,9711,32445,0,0,0
32818,9710,32442,0,0,0
32830,9714,32447,0,0,0
32836,9721,32456,0,0,0
32836,9728,32468,0,0,0
32843,9735,32482,0,0,0
32859,9744,32499,0,0,0
32872,9756,32516,0,0,0
32881,9766,32528,0,0,0
32895,9773,32536,0,0,0
32916,9780,32543,0,0,0
32934,9787,32549,0,0,0
32945,9792,32554,0,0,0
32956,9798,32563,0,0,0
32967,9802,32574,0,0,0
32967,9802,32578,0,0,0
32956,9795,32573,0,0,0
32943,9785,32563,0,0,0
32930,9776,32553,0,0,0
32917,9769,32539,0,0,0
32905,9764,32522,0,0,0
32897,9762,32507,0,0,0
32887,9759,32487,0,0,0
32861,9749,32455,0,0,0
32823,9734,32416,0,0,0
32784,9716,32376,0,0,0
32748,9698,32337,0,0,0
32714,9679,32296,0,0,0
32678,9658,32253,0,0,0
32644,9639,32206,0,0,0
32611,9619,32157,0,0,0
32573,9598,32103,0,0,0
32531,9573,32046,0,0,0
32488,9547,31991,0,0,0
32440,9520,31935,0,0,0
32387,9494,31877,0,0,0
32336,9469,31818,0,0,0
32293,9447,31761,0,0,0
32252,9428,31707,0,0,0
32207,9407,31662,0,0,0
32160,9381,31627,0,0,0
32117,9357,31595,0,0,0
32077,9337,31556,0,0,0
32037,9315,31510,0,0,0
32000,9295,31461,0,0,0
31970,9280,31417,0,0,0
31946,9269,31377,0,0,0
31923,9259,31340,0,0,0
31906,9251,31307,0,0,0
31891,9246,31277,0,0,0
31867,9241,31246,0,0,0
31835,9231,31211,0,0,0
31802,9219,31173,0,0,0
31776,9210,31139,0,0,0
31751,9203,31110,0,0,0
31726,9194,31087,0,0,0
31706,9188,31070,0,0,0
31693,9184,31056,0,0,0
31679,9179,31039,0,0,0
31665,9169,31015,0,0,0
31655,9157,30992,0,0,0
31649,9143,30970,0,0,0
31640,9124,30947,0,0,0
31626,9108,30922,0,0,0
31616,9097,30896,0,0,0
31606,9090,30872,0,0,0
31590,9083,30849,0,0,0
31570,9076,30823,0,0,0
31552,9071,30796,0,0,0
31529,9066,30767,0,0,0
31496,9057,30736,0,0,0
31466,9042,30704,0,0,0
31446,9026,30670,0,0,0
31433,9012,30637,0,0,0
31418,9000,30608,0,0,0
31408,8993,30584,0,0,0
31407,8994,30571,0,0,0
31409,9000,30570,0,0,0
31415,9008,30584,0,0,0
31439,9025,30618,0,0,0
31492,9054,30676,0,0,0
31572,9097,30759,0,0,0
31673,9150,30870,0,0,0
31798,9213,31011,0,0,0
31947,9289,31179,0,0,0
32106,9372,31364,0,0,0
32270,9458,31561,0,0,0
32439,9547,31772,0,0,0
32612,9638,31994,0,0,0
32786,9728,32219,0,0,0
32963,9820,32446,0,0,0
33149,9913,32679,0,0,0
33340,10009,32912,0,0,0
33523,10106,33136,0,0,0
33695,10198,33350,0,0,0
33858,10284,33552,0,0,0
34009,10365,33743,0,0,0
34139,10436,33917,0,0,0
34247,10493,34068,0,0,0
34341,10540,34196,0,0,0
34422,10577,34301,0,0,0
34483,10602,34384,0,0,0
34528,10619,34446,0,0,0
34570,10634,34493,0,0,0
34602,10645,34527,0,0,0
34618,10651,34549,0,0,0
34621,10652,34559,0,0,0
34622,10648,34557,0,0,0
34618,10640,34545,0,0,0
34603,10627,34528,0,0,0
34583,10611,34507,0,0,0
34568,10596,34484,0,0,0
34553,10587,34460,0,0,0
34539,10581,34435,0,0,0
34529,10578,34413,0,0,0
34524,10577,34398,0,0,0
34522,10580,34393,0,0,0
34515,10582,34389,0,0,0
34503,10580,34380,0,0,0
34487,10576,34368,0,0,0
34466,10568,34354,0,0,0
34438,10556,34335,0,0,0
34411,10541,34312,0,0,0
34390,10529,34290,0,0,0
34373,10519,34269,0,0,0
34354,10510,34247,0,0,0
34338,10500,34224,0,0,0
34324,10488,34198,0,0,0
34305,10476,34166,0,0,0
34281,10461,34128,0,0,0
34258,10449,34086,0,0,0
34242,10440,34049,0,0,0
34226,10429,34016,0,0,0
34211,10417,33989,0,0,0
34203,10409,33970,0,0,0
34199,10407,33962,0,0,0
34194,10407,33961,0,0,0
34184,10404,33961,0,0,0
34176,10403,33963,0,0,0
34173,10406,33965,0,0,0
34171,10410,33966,0,0,0
34175,10413,33967,0,0,0
34191,10418,33973,0,0,0
34212,10425,33984,0,0,0
34223,10432,33993,0,0,0
34225,10439,33998,0,0,0
34226,10448,34001,0,0,0
34227,10456,34004,0,0,0
34223,10457,34007,0,0,0
34219,10452,34004,0,0,0
34221,10445,33994,0,0,0
34223,10438,33982,0,0,0
34217,10430,33965,0,0,0
34204,10422,33944,0,0,0
34185,10413,33921,0,0,0
34159,10402,33894,0,0,0
34123,10384,33860,0,0,0
34086,10363,33819,0,0,0
34054,10343,33772,0,0,0
34020,10321,33721,0,0,0
33982,10299,33668,0,0,0
33947,10278,33617,0,0,0
33919,10261,33573,0,0,0
33891,10245,33532,0,0,0
33858,10226,33491,0,0,0
33821,10206,33450,0,0,0
33781,10184,33408,0,0,0
33733,10160,33362,0,0,0
33677,10131,33307,0,0,0
33624,10100,33246,0,0,0
33578,10070,33185,0,0,0
33530,10041,33128,0,0,0
33477,10015,33074,0,0,0
33431,9993,33024,0,0,0
33392,9977,32977,0,0,0
33352,9961,32930,0,0,0
33310,9944,32882,0,0,0
33274,9930,32839,0,0,0
33244,9918,32799,0,0,0
33210,9904,32754,0,0,0
33174,9888,32705,0,0,0
33144,9871,32657,0,0,0
33120,9858,32613,0,0,0
33094,9845,32570,0,0,0
33066,9829,32525,0,0,0
33042,9812,32485,0,0,0
33024,9797,32452,0,0,0
33005,9784,32423,0,0,0
32985,9773,32394,0,0,0
32967,9764,32370,0,0,0
32948,9756,32350,0,0,0
32920,9745,32328,0,0,0
32889,9731,32303,0,0,0
32864,9718,32279,0,0,0
32844,9704,32256,0,0,0
32821,9688,32232,0,0,0
32797,9673,32205,0,0,0
32778,9662,32180,0,0,0
32764,9654,32156,0,0,0
32749,9647,32129,0,0,0
32735,9640,32100,0,0,0
32724,9635,32070,0,0,0
32709,9629,32037,0,0,0
32682,9617,31999,0,0,0
32652,9602,31961,0,0,0
32624,9586,31924,0,0,0
32596,9570,31888,0,0,0
32563,9555,31850,0,0,0
32531,9542,31816,0,0,0
32504,9532,31786,0,0,0
32476,9524,31756,0,0,0
32442,9515,31725,0,0,0
32413,9505,31694,0,0,0
32396,9495,31668,0,0,0
32385,9486,31649,0,0,0
32386,9483,31642,0,0,0
32410,9493,31656,0,0,0
32461,9518,31699,0,0,0
32534,9554,31771,0,0,0
32625,9600,31871,0,0,0
32742,9660,32004,0,0,0
32881,9733,32166,0,0,0
33032,9812,32349,0,0,0
33194,9897,32550,0,0,0
33372,9988,32766,0,0,0
33561,10087,32997,0,0,0
33754,10189,33239,0,0,0
33952,10293,33487,0,0,0
34161,10402,33738,0,0,0
34373,10512,33992,0,0,0
34577,10616,34245,0,0,0
34770,10715,34491,0,0,0
34952,10809,34727,0,0,0
35118,10895,34950,0,0,0
35261,10969,35151,0,0,0
35380,11033,35327,0,0,0
35484,11089,35477,0,0,0
35577,11137,35606,0,0,0
35654,11177,35718,0,0,0
35720,11209,35813,0,0,0
35780,11241,35894,0,0,0
35830,11271,35962,0,0,0
35863,11294,36013,0,0,0
35883,11310,36046,0,0,0
35897,11319,36065,0,0,0
35904,11322,36076,0,0,0
35902,11317,36081,0,0,0
35898,11311,36083,0,0,0
35898,11308,36084,0,0,0
35896,11307,36082,0,0,0
35889,11306,36077,0,0,0
35884,11304,36069,0,0,0
35882,11300,36057,0,0,0
35875,11293,36044,0,0,0
35863,11283,36033,0,0,0
35855,11271,36024,0,0,0
35856,11261,36016,0,0,0
35854,11252,36005,0,0,0
35841,11240,35988,0,0,0
35825,11228,35968,0,0,0
35804,11213,35947,0,0,0
35779,11196,35923,0,0,0
35750,11175,35890,0,0,0
35720,11154,35853,0,0,0
35691,11138,35814,0,0,0
35659,11126,35772,0,0,0
35627,11112,35727,0,0,0
35600,11100,35680,0,0,0
35579,11089,35634,0,0,0
35558,11078,35588,0,0,0
35540,11068,35545,0,0,0
35529,11065,35514,0,0,0
35525,11065,35494,0,0,0
35519,11066,35480,0,0,0
35511,11065,35468,0,0,0
35507,11066,35459,0,0,0
35501,11066,35453,0,0,0
35488,11061,35446,0,0,0
35471,11050,35435,0,0,0
35458,11038,35427,0,0,0
35447,11029,35423,0,0,0
35436,11021,35421,0,0,0
35429,11014,35416,0,0,0
35427,11011,35411,0,0,0
35425,11011,35408,0,0,0
35414,11007,35401,0,0,0
35395,10996,35390,0,0,0
35376,10985,35377,0,0,0
35358,10977,35364,0,0,0
35335,10969,35346,0,0,0
35315,10960,35323,0,0,0
35302,10952,35297,0,0,0
35287,10944,35269,0,0,0
35267,10934,35239,0,0,0
35247,10921,35207,0,0,0
35230,10905,35174,0,0,0
35207,10888,35136,0,0,0
35172,10867,35088,0,0,0
35133,10847,35032,0,0,0
35091,10827,34975,0,0,0
35041,10805,34914,0,0,0
34986,10779,34849,0,0,0
34940,10754,34787,0,0,0
34900,10734,34732,0,0,0
34859,10712,34681,0,0,0
34813,10687,34624,0,0,0
34768,10664,34564,0,0,0
34726,10643,34503,0,0,0
34681,10621,34440,0,0,0
34636,10600,34377,0,0,0
34596,10579,34315,0,0,0
34562,10556,34256,0,0,0
34521,10531,34199,0,0,0
34473,10506,34143,0,0,0
34426,10481,34086,0,0,0
34381,10454,34028,0,0,0
34336,10429,33968,0,0,0
34289,10406,33908,0,0,0
34241,10383,33849,0,0,0
34192,10359,33792,0,0,0
34146,10336,33740,0,0,0
34110,10316,33691,0,0,0
34085,10302,33649,0,0,0
34064,10293,33615,0,0,0
34038,10281,33585,0,0,0
34008,10265,33552,0,0,0
33976,10246,33514,0,0,0
33944,10227,33472,0,0,0
33910,10205,33428,0,0,0
33877,10182,33382,0,0,0
33849,10164,33341,0,0,0
33819,10151,33303,0,0,0
33784,10139,33264,0,0,0
33752,10128,33225,0,0,0
33725,10118,33191,0,0,0
33694,10109,33161,0,0,0
33662,10099,33128,0,0,0
33636,10087,33090,0,0,0
33617,10077,33054,0,0,0
33601,10068,33022,0,0,0
33579,10057,32990,0,0,0
33555,10045,32960,0,0,0
33529,10032,32932,0,0,0
33498,10017,32904,0,0,0
33460,9999,32869,0,0,0
33423,9981,32832,0,0,0
33394,9964,32798,0,0,0
33368,9946,32765,0,0,0
33341,9930,32732,0,0,0
33318,9916,32700,0,0,0
33297,9905,32669,0,0,0
33269,9889,32631,0,0,0
33233,9869,32588,0,0,0
33201,9849,32541,0,0,0
33167,9829,32490,0,0,0
33125,9808,32437,0,0,0
33081,9785,32386,0,0,0
33048,9765,32340,0,0,0
33021,9748,32301,0,0,0
32987,9727,32261,0,0,0
32950,9704,32217,0,0,0
32916,9681,32175,0,0,0
32883,9661,32135,0,0,0
32845,9641,32095,0,0,0
32814,9626,32060,0,0,0
32802,9620,32039,0,0,0
32808,9626,32039,0,0,0
32834,9645,32067,0,0,0
32892,9680,32127,0,0,0
32986,9732,32222,0,0,0
33108,9797,32350,0,0,0
33247,9870,32506,0,0,0
33405,9953,32694,0,0,0
33583,10044,32908,0,0,0
33776,10140,33144,0,0,0
33982,10242,33397,0,0,0
34202,10351,33663,0,0,0
34431,10468,33941,0,0,0
34659,10590,34230,0,0,0
34882,10709,34519,0,0,0
35103,10826,34801,0,0,0
35313,10939,35073,0,0,0
35505,11047,35333,0,0,0
35680,11148,35576,0,0,0
35847,11239,35798,0,0,0
36003,11318,36000,0,0,0
36139,11386,36179,0,0,0
36256,11444,36334,0,0,0
36361,11495,36467,0,0,0
36450,11539,36580,0,0,0
36515,11575,36672,0,0,0
36560,11603,36739,0,0,0
36594,11625,36788,0,0,0
36615,11639,36824,0,0,0
36622,11643,36847,0,0,0
36624,11641,36859,0,0,0
36635,11641,36864,0,0,0
36650,11643,36866,0,0,0
36658,11644,36862,0,0,0
36660,11641,36853,0,0,0
36663,11640,36845,0,0,0
36666,11642,36844,0,0,0
36661,11645,36846,0,0,0
36656,11646,36845,0,0,0
36656,11647,36845,0,0,0
36656,11646,36848,0,0,0
36650,11643,36848,0,0,0
36638,11637,36839,0,0,0
36626,11630,36825,0,0,0
36610,11621,36806,0,0,0
36585,11609,36779,0,0,0
36557,11593,36747,0,0,0
36530,11579,36714,0,0,0
36499,11565,36681,0,0,0
36461,11547,36643,0,0,0
36423,11526,36598,0,0,0
36385,11503,36546,0,0,0
36344,11480,36492,0,0,0
36302,11455,36435,0,0,0
36265,11433,36379,0,0,0
36235,11415,36327,0,0,0
36208,11397,36279,0,0,0
36179,11380,36232,0,0,0
36158,11365,36194,0,0,0
36146,11354,36168,0,0,0
36135,11347,36152,0,0,0
36120,11341,36137,0,0,0
36105,11335,36124,0,0,0
36094,11331,36117,0,0,0
36084,11329,36110,0,0,0
36078,11330,36101,0,0,0
36084,11334,36099,0,0,0
36098,11336,36104,0,0,0
36114,11332,36113,0,0,0
36128,11329,36125,0,0,0
36137,11332,36137,0,0,0
36140,11336,36146,0,0,0
36132,11336,36146,0,0,0
36118,11333,36134,0,0,0
36105,11330,36112,0,0,0
36091,11325,36083,0,0,0
36070,11316,36045,0,0,0
36046,11303,36001,0,0,0
36027,11290,35959,0,0,0
36006,11279,35924,0,0,0
35977,11265,35887,0,0,0
35946,11247,35842,0,0,0
35914,11227,35794,0,0,0
35876,11206,35745,0,0,0
35830,11183,35695,0,0,0
35783,11156,35643,0,0,0
35739,11129,35590,0,0,0
35691,11103,35530,0,0,0
35637,11075,35463,0,0,0
35583,11044,35388,0,0,0
35528,11012,35310,0,0,0
35468,10979,35233,0,0,0
35404,10945,35156,0,0,0
35342,10912,35078,0,0,0
35287,10882,35005,0,0,0
35238,10854,34941,0,0,0
35190,10827,34885,0,0,0
35148,10804,34834,0,0,0
35111,10784,34787,0,0,0
35071,10762,34742,0,0,0
35024,10739,34691,0,0,0
34978,10719,34635,0,0,0
34934,10702,34577,0,0,0
34884,10683,34517,0,0,0
34832,10661,34455,0,0,0
34790,10639,34396,0,0,0
34758,10620,34342,0,0,0
34728,10601,34295,0,0,0
34698,10581,34251,0,0,0
34672,10563,34208,0,0,0
34645,10547,34165,0,0,0
34610,10529,34118,0,0,0
34570,10509,34067,0,0,0
34530,10487,34017,0,0,0
34489,10463,33967,0,0,0
34448,10440,33918,0,0,0
34414,10419,33873,0,0,0
34392,10401,33833,0,0,0
34377,10390,33800,0,0,0
34360,10384,33773,0,0,0
34340,10381,33747,0,0,0
34324,10377,33724,0,0,0
34310,10373,33703,0,0,0
34291,10366,33680,0,0,0
34267,10354,33650,0,0,0
34243,10342,33615,0,0,0
34216,10328,33578,0,0,0
34186,10313,33541,0,0,0
34158,10299,33504,0,0,0
34135,10286,33467,0,0,0
34111,10273,33431,0,0,0
34079,10257,33393,0,0,0
34044,10238,33355,0,0,0
34012,10221,33317,0,0,0
33979,10206,33278,0,0,0
33943,10190,33237,0,0,0
33909,10173,33192,0,0,0
33883,10158,33149,0,0,0
33859,10145,33108,0,0,0
33829,10130,33066,0,0,0
33800,10115,33026,0,0,0
33771,10098,32988,0,0,0
33734,10078,32946,0,0,0
33693,10057,32901,0,0,0
33660,10039,32854,0,0,0
33634,10024,32809,0,0,0
33608,10007,32764,0,0,0
33581,9993,32720,0,0,0
33559,9984,32677,0,0,0
33534,9973,32633,0,0,0
33498,9956,32584,0,0,0
33455,9936,32534,0,0,0
33411,9917,32488,0,0,0
33363,9899,32444,0,0,0
33311,9876,32400,0,0,0
33262,9850,32357,0,0,0
33229,9828,32323,0,0,0
33209,9812,32297,0,0,0
33199,9802,32284,0,0,0
33206,9801,32290,0,0,0
33238,9814,32325,0,0,0
33296,9843,32389,0,0,0
33379,9889,32481,0,0,0
33494,9949,32603,0,0,0
33641,10023,32757,0,0,0
33809,10108,32942,0,0,0
33988,10206,33155,0,0,0
34182,10311,33392,0,0,0
34395,10422,33651,0,0,0
34619,10537,33925,0,0,0
34846,10652,34207,0,0,0
35079,10769,34494,0,0,0
35322,10893,34792,0,0,0
35564,11020,35094,0,0,0
35795,11146,35386,0,0,0
36013,11265,35663,0,0,0
36212,11375,35918,0,0,0
36387,11470,36149,0,0,0
36540,11549,36354,0,0,0
36675,11618,36532,0,0,0
36793,11679,36686,0,0,0
36890,11729,36816,0,0,0
36964,11766,36921,0,0,0
37025,11795,37005,0,0,0
37077,11818,37074,0,0,0
37115,11834,37128,0,0,0
37138,11841,37165,0,0,0
37153,11844,37187,0,0,0
37165,11845,37197,0,0,0
37173,11846,37200,0,0,0
37176,11845,37195,0,0,0
37174,11844,37185,0,0,0
37167,11843,37172,0,0,0
37150,11837,37154,0,0,0
37131,11827,37129,0,0,0
37117,11818,37109,0,0,0
37108,11812,37096,0,0,0
37097,11804,37081,0,0,0
37080,11793,37063,0,0,0
37065,11783,37045,0,0,0
37051,11773,37027,0,0,0
37030,11759,37005,0,0,0
37007,11745,36979,0,0,0
36984,11731,36948,0,0,0
36953,11715,36909,0,0,0
36907,11692,36862,0,0,0
36857,11667,36811,0,0,0
36815,11644,36758,0,0,0
36778,11624,36706,0,0,0
36739,11603,36655,0,0,0
36703,11583,36605,0,0,0
36671,11566,36560,0,0,0
36640,11552,36518,0,0,0
36607,11535,36476,0,0,0
36578,11517,36433,0,0,0
36562,11506,36396,0,0,0
36550,11498,36369,0,0,0
36537,11493,36354,0,0,0
36529,11492,36349,0,0,0
36527,11494,36351,0,0,0
36525,11494,36353,0,0,0
36521,11492,36351,0,0,0
36523,11488,36346,0,0,0
36530,11483,36344,0,0,0
36534,11479,36344,0,0,0
36533,11475,36342,0,0,0
36536,11473,36339,0,0,0
36542,11472,36338,0,0,0
36543,11471,36340,0,0,0
36535,11467,36341,0,0,0
36530,11461,36336,0,0,0
36531,11459,36324,0,0,0
36526,11458,36309,0,0,0
36511,11455,36288,0,0,0
36494,11453,36264,0,0,0
36473,11449,36235,0,0,0
36443,11439,36197,0,0,0
36412,11426,36153,0,0,0
36387,11414,36109,0,0,0
36362,11402,36064,0,0,0
36333,11387,36015,0,0,0
36301,11369,35963,0,0,0
36271,11348,35912,0,0,0
36238,11320,35860,0,0,0
36194,11284,35800,0,0,0
36145,11244,35736,0,0,0
36098,11207,35670,0,0,0
36050,11173,35606,0,0,0
35995,11141,35540,0,0,0
35938,11112,35476,0,0,0
35886,11089,35414,0,0,0
35833,11066,35348,0,0,0
35773,11039,35276,0,0,0
35714,11012,35200,0,0,0
35663,10985,35128,0,0,0
35616,10958,35063,0,0,0
35566,10928,35000,0,0,0
35519,10901,34936,0,0,0
35476,10879,34875,0,0,0
35432,10860,34818,0,0,0
35380,10838,34760,0,0,0
35330,10816,34702,0,0,0
35290,10800,34649,0,0,0
35255,10786,34599,0,0,0
35224,10772,34550,0,0,0
35203,10759,34501,0,0,0
35185,10744,34450,0,0,0
35155,10723,34398,0,0,0
35111,10696,34347,0,0,0
35061,10668,34295,0,0,0
35014,10643,34245,0,0,0
34967,10622,34196,0,0,0
34922,10604,34150,0,0,0
34887,10590,34112,0,0,0
34857,10576,34080,0,0,0
34822,10560,34048,0,0,0
34787,10544,34013,0,0,0
34757,10529,33976,0,0,0
34732,10514,33942,0,0,0
34705,10496,33903,0,0,0
34677,10479,33858,0,0,0
34651,10466,33817,0,0,0
34623,10454,33783,0,0,0
34591,10438,33749,0,0,0
34559,10422,33711,0,0,0
34531,10410,33671,0,0,0
34506,10399,33631,0,0,0
34479,10388,33595,0,0,0
34454,10378,33560,0,0,0
34438,10370,33530,0,0,0
34424,10361,33501,0,0,0
34401,10346,33471,0,0,0
34374,10330,33439,0,0,0
34349,10317,33404,0,0,0
34324,10306,33367,0,0,0
34296,10293,33326,0,0,0
34268,10279,33284,0,0,0
34242,10266,33246,0,0,0
34212,10254,33209,0,0,0
34177,10239,33169,0,0,0
34143,10223,33127,0,0,0
34111,10204,33087,0,0,0
34074,10181,33048,0,0,0
34029,10154,33002,0,0,0
33985,10128,32952,0,0,0
33947,10106,32905,0,0,0
33911,10087,32861,0,0,0
33874,10068,32814,0,0,0
33844,10050,32764,0,0,0
33819,10036,32717,0,0,0
33790,10023,32672,0,0,0
33755,10007,32623,0,0,0
33720,9988,32574,0,0,0
33683,9969,32523,0,0,0
33640,9945,32468,0,0,0
33595,9921,32412,0,0,0
33558,9902,32362,0,0,0
33523,9885,32313,0,0,0
33481,9864,32265,0,0,0
33436,9839,32219,0,0,0
33398,9818,32181,0,0,0
33369,9802,32152,0,0,0
33346,9791,32133,0,0,0
33340,9791,32133,0,0,0
33366,9808,32161,0,0,0
33427,9842,32220,0,0,0
33518,9890,32310,0,0,0
33637,9955,32438,0,0,0
33787,10035,32606,0,0,0
33959,10127,32807,0,0,0
34147,10227,33034,0,0,0
34355,10335,33283,0,0,0
34582,10451,33554,0,0,0
34819,10574,33841,0,0,0
35060,10698,34135,0,0,0
35304,10820,34431,0,0,0
35553,10941,34727,0,0,0
35794,11059,35019,0,0,0
36022,11174,35301,0,0,0
36238,11287,35570,0,0,0
36439,11392,35825,0,0,0
36618,11486,36059,0,0,0
36773,11566,36266,0,0,0
36909,11635,36446,0,0,0
37026,11690,36600,0,0,0
37116,11732,36728,0,0,0
37179,11760,36826,0,0,0
37225,11780,36897,0,0,0
37264,11797,36945,0,0,0
37290,11810,36973,0,0,0
37305,11820,36988,0,0,0
37316,11830,36997,0,0,0
37321,11843,37003,0,0,0
37318,11852,37005,0,0,0
37309,11855,36999,0,0,0
37300,11851,36982,0,0,0
37294,11842,36961,0,0,0
37280,11828,36939,0,0,0
37259,11812,36913,0,0,0
37237,11796,36885,0,0,0
37214,11782,36855,0,0,0
37186,11765,36824,0,0,0
37157,11747,36790,0,0,0
37136,11730,36757,0,0,0
37115,11715,36725,0,0,0
37089,11700,36692,0,0,0
37064,11684,36658,0,0,0
37044,11670,36624,0,0,0
37024,11655,36590,0,0,0
36997,11641,36554,0,0,0
36961,11625,36512,0,0,0
36922,11607,36464,0,0,0
36879,11586,36414,0,0,0
36829,11560,36362,0,0,0
36784,11534,36308,0,0,0
36750,11513,36258,0,0,0
36723,11495,36213,0,0,0
36698,11479,36176,0,0,0
36681,11469,36147,0,0,0
36672,11467,36127,0,0,0
36664,11469,36115,0,0,0
36655,11471,36104,0,0,0
36651,11471,36097,0,0,0
36655,11471,36093,0,0,0
36659,11469,36091,0,0,0
36661,11466,36087,0,0,0
36664,11466,36082,0,0,0
36670,11468,36082,0,0,0
36675,11469,36086,0,0,0
36681,11469,36088,0,0,0
36691,11471,36090,0,0,0
36704,11477,36097,0,0,0
36716,11484,36109,0,0,0
36722,11490,36118,0,0,0
36727,11494,36122,0,0,0
36724,11496,36120,0,0,0
36706,11490,36107,0,0,0
36677,11477,36083,0,0,0
36649,11463,36052,0,0,0
36621,11448,36021,0,0,0
36586,11431,35987,0,0,0
36547,11412,35945,0,0,0
36513,11393,35898,0,0,0
36485,11376,35851,0,0,0
36454,11357,35806,0,0,0
36420,11337,35758,0,0,0
36382,11317,35706,0,0,0
36335,11295,35647,0,0,0
36278,11266,35578,0,0,0
36217,11232,35502,0,0,0
36161,11201,35425,0,0,0
36106,11172,35352,0,0,0
36046,11139,35279,0,0,0
35987,11105,35206,0,0,0
35935,11076,35138,0,0,0
35887,11048,35075,0,0,0
35839,11021,35019,0,0,0
35794,10994,34968,0,0,0
35751,10970,34918,0,0,0
35701,10945,34864,0,0,0
35643,10918,34803,0,0,0
35589,10891,34740,0,0,0
35541,10864,34676,0,0,0
35491,10834,34614,0,0,0
35435,10804,34550,0,0,0
35381,10777,34484,0,0,0
35331,10755,34422,0,0,0
35282,10733,34367,0,0,0
35234,10710,34312,0,0,0
35193,10689,34259,0,0,0
35156,10669,34212,0,0,0
35119,10650,34167,0,0,0
35084,10631,34118,0,0,0
35060,10618,34070,0,0,0
35039,10608,34028,0,0,0
35012,10598,33989,0,0,0
34983,10587,33948,0,0,0
34955,10577,33907,0,0,0
34925,10566,33868,0,0,0
34890,10552,33828,0,0,0
34856,10536,33788,0,0,0
34827,10522,33752,0,0,0
34802,10507,33717,0,0,0
34774,10490,33680,0,0,0
34744,10471,33639,0,0,0
34714,10454,33600,0,0,0
34683,10435,33564,0,0,0
34647,10414,33527,0,0,0
34614,10393,33487,0,0,0
34589,10376,33451,0,0,0
34563,10360,33417,0,0,0
34526,10341,33381,0,0,0
34489,10323,33343,0,0,0
34461,10308,33307,0,0,0
34437,10295,33273,0,0,0
34409,10281,33238,0,0,0
34382,10267,33202,0,0,0
34360,10253,33169,0,0,0
34339,10240,33138,0,0,0
34309,10225,33108,0,0,0
34272,10213,33079,0,0,0
34238,10199,33046,0,0,0
34207,10179,33008,0,0,0
34172,10158,32963,0,0,0
34134,10140,32913,0,0,0
34098,10124,32863,0,0,0
34060,10107,32813,0,0,0
34019,10088,32763,0,0,0
33981,10069,32716,0,0,0
33947,10053,32674,0,0,0
33910,10035,32630,0,0,0
33867,10012,32581,0,0,0
33827,9988,32527,0,0,0
33785,9963,32472,0,0,0
33734,9936,32417,0,0,0
33676,9907,32365,0,0,0
33622,9878,32318,0,0,0
33574,9850,32273,0,0,0
33525,9824,32224,0,0,0
33476,9800,32171,0,0,0
33436,9781,32121,0,0,0
33403,9766,32072,0,0,0
33367,9750,32023,0,0,0
33329,9733,31975,0,0,0
33294,9717,31930,0,0,0
33265,9703,31892,0,0,0
33241,9692,31864,0,0,0
33233,9687,31856,0,0,0
33249,9694,31878,0,0,0
33294,9715,31929,0,0,0
33366,9749,32008,0,0,0
33469,9797,32120,0,0,0
33605,9864,32269,0,0,0
33769,9950,32455,0,0,0
33952,10051,32673,0,0,0
34153,10162,32917,0,0,0
34376,10282,33184,0,0,0
34612,10407,33469,0,0,0
34849,10532,33762,0,0,0
35086,10655,34056,0,0,0
35323,10776,34345,0,0,0
35553,10893,34624,0,0,0
35772,11003,34890,0,0,0
35982,11106,35143,0,0,0
36178,11205,35384,0,0,0
36353,11294,35607,0,0,0
36507,11372,35805,0,0,0
36639,11438,35969,0,0,0
36748,11492,36106,0,0,0
36831,11536,36223,0,0,0
36890,11569,36316,0,0,0
36936,11595,36388,0,0,0
36971,11615,36443,0,0,0
36989,11626,36481,0,0,0
36992,11630,36503,0,0,0
36992,11630,36512,0,0,0
36989,11630,36511,0,0,0
36974,11625,36495,0,0,0
36953,11615,36462,0,0,0
36932,11600,36419,0,0,0
36911,11584,36378,0,0,0
36886,11567,36343,0,0,0
36860,11549,36308,0,0,0
36837,11533,36274,0,0,0
36811,11517,36243,0,0,0
36778,11498,36209,0,0,0
36742,11478,36169,0,0,0
36707,11460,36128,0,0,0
36670,11445,36086,0,0,0
36625,11426,36040,0,0,0
