green_channel,red_channel,ir_channel,Anomaly_ch0,Anomaly_ch1,Anomaly_ch2
5596,1367,24836,0,0,0
5618,1372,24860,0,0,0
5645,1380,24894,0,0,0
5670,1390,24929,0,0,0
5706,1404,24973,0,0,0
5756,1421,25031,0,0,0
5811,1437,25092,0,0,0
5866,1452,25153,0,0,0
5924,1469,25216,0,0,0
5979,1491,25286,0,0,0
6027,1509,25359,0,0,0
6066,1522,25427,0,0,0
6103,1533,25492,0,0,0
6136,1544,25552,0,0,0
6159,1553,25595,0,0,0
6174,1555,25619,0,0,0
6186,1555,25637,0,0,0
6191,1557,25646,0,0,0
6182,1556,25639,0,0,0
6164,1552,25617,0,0,0
6138,1546,25586,0,0,0
6103,1540,25544,0,0,0
6058,1529,25482,0,0,0
6006,1513,25404,0,0,0
5955,1496,25324,0,0,0
5904,1478,25245,0,0,0
5848,1455,25157,0,0,0
5788,1431,25061,0,0,0
5733,1409,24971,0,0,0
5682,1387,24887,0,0,0
5629,1362,24800,0,0,0
5572,1337,24709,0,0,0
5514,1316,24624,0,0,0
5455,1295,24538,0,0,0
5391,1271,24442,0,0,0
5325,1247,24344,0,0,0
5266,1227,24251,0,0,0
5206,1210,24159,0,0,0
5138,1189,24061,0,0,0
5066,1165,23958,0,0,0
4996,1139,23858,0,0,0
4925,1111,23757,0,0,0
4849,1079,23647,0,0,0
4768,1044,23532,0,0,0
4682,1010,23415,0,0,0
4595,975,23294,0,0,0
4507,939,23165,0,0,0
4418,905,23037,0,0,0
4332,873,22916,0,0,0
4246,841,22796,0,0,0
4162,809,22675,0,0,0
4086,782,22565,0,0,0
4023,763,22475,0,0,0
3977,749,22407,0,0,0
3959,743,22371,0,0,0
3980,750,22388,0,0,0
4050,775,22474,0,0,0
4172,817,22633,0,0,0
4349,875,22867,0,0,0
4581,954,23181,0,0,0
4858,1055,23567,0,0,0
5169,1170,24007,0,0,0
5508,1294,24489,0,0,0
5871,1429,25010,0,0,0
6247,1573,25557,0,0,0
6625,1716,26105,0,0,0
6994,1852,26639,0,0,0
7351,1986,27159,0,0,0
7689,2116,27654,0,0,0
7994,2235,28104,0,0,0
8263,2340,28501,0,0,0
8501,2434,28853,0,0,0
8702,2515,29153,0,0,0
8859,2578,29394,0,0,0
8980,2624,29584,0,0,0
9073,2662,29731,0,0,0
9129,2688,29823,0,0,0
9144,2699,29854,0,0,0
9131,2695,29837,0,0,0
9095,2682,29786,0,0,0
9036,2660,29701,0,0,0
8953,2629,29580,0,0,0
8854,2589,29434,0,0,0
8743,2547,29275,0,0,0
8619,2500,29097,0,0,0
8484,2447,28900,0,0,0
8349,2393,28699,0,0,0
8218,2340,28504,0,0,0
8088,2285,28309,0,0,0
7961,2228,28113,0,0,0
7840,2176,27927,0,0,0
7732,2133,27761,0,0,0
7631,2096,27612,0,0,0
7539,2064,27476,0,0,0
7464,2039,27362,0,0,0
7406,2023,27270,0,0,0
7352,2009,27185,0,0,0
7301,1992,27098,0,0,0
7256,1977,27017,0,0,0
7215,1962,26944,0,0,0
7171,1943,26875,0,0,0
7129,1922,26809,0,0,0
7094,1905,26752,0,0,0
7059,1891,26700,0,0,0
7021,1877,26646,0,0,0
6987,1862,26593,0,0,0
6964,1851,26550,0,0,0
6952,1845,26522,0,0,0
6947,1841,26503,0,0,0
6949,1840,26495,0,0,0
6962,1846,26506,0,0,0
6986,1857,26535,0,0,0
7015,1870,26571,0,0,0
7050,1886,26619,0,0,0
7096,1906,26685,0,0,0
7147,1928,26763,0,0,0
7197,1947,26837,0,0,0
7249,1968,26909,0,0,0
7308,1992,26985,0,0,0
7367,2017,27060,0,0,0
7419,2035,27121,0,0,0
7462,2050,27172,0,0,0
7498,2064,27221,0,0,0
7521,2073,27255,0,0,0
7524,2072,27261,0,0,0
7517,2065,27248,0,0,0
7503,2056,27224,0,0,0
7482,2047,27191,0,0,0
7453,2035,27146,0,0,0
7417,2021,27096,0,0,0
7377,2008,27046,0,0,0
7331,1994,26985,0,0,0
7281,1975,26912,0,0,0
7226,1955,26835,0,0,0
7168,1935,26758,0,0,0
7106,1913,26670,0,0,0
7042,1887,26570,0,0,0
6978,1860,26470,0,0,0
6913,1833,26373,0,0,0
6845,1807,26270,0,0,0
6780,1780,26162,0,0,0
6719,1756,26058,0,0,0
6656,1734,25956,0,0,0
6584,1709,25850,0,0,0
6506,1680,25736,0,0,0
6433,1654,25630,0,0,0
6368,1631,25534,0,0,0
6300,1605,25439,0,0,0
6231,1577,25342,0,0,0
6170,1551,25254,0,0,0
6114,1528,25171,0,0,0
6055,1504,25084,0,0,0
5989,1475,24993,0,0,0
5924,1447,24910,0,0,0
5859,1422,24827,0,0,0
5788,1394,24732,0,0,0
5715,1366,24628,0,0,0
5645,1342,24526,0,0,0
5575,1320,24425,0,0,0
5498,1294,24318,0,0,0
5421,1266,24211,0,0,0
5344,1239,24109,0,0,0
5266,1209,24002,0,0,0
5187,1176,23887,0,0,0
5118,1147,23777,0,0,0
5062,1125,23687,0,0,0
5022,1109,23620,0,0,0
5005,1099,23586,0,0,0
5025,1103,23607,0,0,0
5094,1129,23697,0,0,0
5214,1174,23860,0,0,0
5387,1238,24096,0,0,0
5616,1321,24412,0,0,0
5893,1422,24803,0,0,0
6209,1537,25251,0,0,0
6555,1664,25743,0,0,0
6928,1801,26276,0,0,0
7317,1949,26837,0,0,0
7707,2098,27399,0,0,0
8085,2243,27948,0,0,0
8449,2386,28482,0,0,0
8793,2524,28989,0,0,0
9104,2649,29453,0,0,0
9378,2758,29864,0,0,0
9617,2851,30224,0,0,0
9814,2930,30525,0,0,0
9964,2990,30758,0,0,0
10072,3030,30927,0,0,0
10145,3056,31039,0,0,0
10179,3067,31096,0,0,0
10172,3062,31096,0,0,0
10129,3044,31042,0,0,0
10055,3014,30941,0,0,0
9954,2976,30800,0,0,0
9829,2929,30619,0,0,0
9688,2875,30404,0,0,0
9540,2820,30174,0,0,0
9385,2765,29938,0,0,0
9223,2707,29695,0,0,0
9065,2650,29453,0,0,0
8915,2596,29222,0,0,0
8771,2545,29001,0,0,0
8628,2489,28785,0,0,0
8490,2432,28580,0,0,0
8364,2378,28395,0,0,0
8243,2331,28225,0,0,0
8124,2293,28063,0,0,0
8020,2260,27918,0,0,0
7931,2232,27791,0,0,0
7849,2203,27668,0,0,0
7769,2171,27543,0,0,0
7693,2139,27423,0,0,0
7619,2110,27308,0,0,0
7544,2080,27192,0,0,0
7467,2047,27074,0,0,0
7395,2015,26961,0,0,0
7327,1987,26860,0,0,0
7264,1960,26768,0,0,0
7212,1936,26685,0,0,0
7177,1919,26620,0,0,0
7154,1910,26576,0,0,0
7135,1903,26544,0,0,0
7122,1894,26520,0,0,0
7119,1890,26518,0,0,0
7129,1892,26542,0,0,0
7148,1898,26575,0,0,0
7179,1908,26613,0,0,0
7223,1926,26667,0,0,0
7278,1950,26739,0,0,0
7332,1975,26815,0,0,0
7387,2000,26888,0,0,0
7446,2026,26964,0,0,0
7505,2052,27037,0,0,0
7557,2071,27099,0,0,0
7603,2086,27150,0,0,0
7646,2102,27199,0,0,0
7677,2117,27240,0,0,0
7691,2127,27262,0,0,0
7695,2135,27265,0,0,0
7691,2140,27260,0,0,0
7676,2137,27244,0,0,0
7647,2125,27213,0,0,0
7610,2108,27171,0,0,0
7569,2090,27124,0,0,0
7522,2069,27068,0,0,0
7469,2045,26997,0,0,0
7411,2016,26914,0,0,0
7352,1988,26827,0,0,0
7287,1959,26732,0,0,0
7211,1925,26622,0,0,0
7129,1891,26502,0,0,0
7043,1858,26377,0,0,0
6952,1824,26244,0,0,0
6851,1786,26098,0,0,0
6748,1746,25948,0,0,0
6644,1706,25801,0,0,0
6537,1665,25651,0,0,0
6430,1621,25497,0,0,0
6329,1580,25350,0,0,0
6236,1545,25215,0,0,0
6144,1512,25081,0,0,0
6053,1481,24950,0,0,0
5971,1455,24828,0,0,0
5896,1434,24717,0,0,0
5822,1412,24607,0,0,0
5751,1389,24495,0,0,0
5687,1368,24389,0,0,0
5629,1350,24293,0,0,0
5572,1329,24197,0,0,0
5514,1304,24100,0,0,0
5457,1279,24007,0,0,0
5398,1252,23915,0,0,0
5329,1221,23815,0,0,0
5253,1187,23708,0,0,0
5178,1156,23606,0,0,0
5107,1128,23510,0,0,0
5032,1098,23409,0,0,0
4956,1067,23306,0,0,0
4883,1038,23209,0,0,0
4810,1010,23115,0,0,0
4737,982,23021,0,0,0
4677,956,22937,0,0,0
4645,943,22884,0,0,0
4652,944,22880,0,0,0
4701,961,22938,0,0,0
4804,998,23072,0,0,0
4965,1059,23285,0,0,0
5179,1139,23573,0,0,0
5441,1239,23927,0,0,0
5749,1357,24345,0,0,0
6095,1490,24817,0,0,0
6463,1629,25328,0,0,0
6841,1772,25860,0,0,0
7221,1919,26404,0,0,0
7595,2063,26952,0,0,0
7952,2200,27482,0,0,0
8287,2324,27977,0,0,0
8598,2439,28435,0,0,0
8880,2547,28856,0,0,0
9124,2642,29226,0,0,0
9323,2720,29534,0,0,0
9483,2783,29784,0,0,0
9604,2833,29977,0,0,0
9682,2867,30106,0,0,0
9719,2883,30176,0,0,0
9723,2886,30198,0,0,0
9696,2876,30173,0,0,0
9633,2851,30099,0,0,0
9540,2813,29981,0,0,0
9428,2770,29833,0,0,0
9303,2722,29657,0,0,0
9161,2669,29454,0,0,0
9011,2612,29234,0,0,0
8861,2556,29009,0,0,0
8710,2499,28784,0,0,0
8560,2441,28555,0,0,0
8415,2384,28329,0,0,0
8282,2334,28118,0,0,0
8157,2287,27922,0,0,0
8035,2241,27735,0,0,0
7921,2197,27559,0,0,0
7822,2161,27402,0,0,0
7735,2130,27259,0,0,0
7649,2099,27118,0,0,0
7561,2065,26984,0,0,0
7476,2036,26864,0,0,0
7391,2009,26751,0,0,0
7298,1976,26631,0,0,0
7206,1941,26508,0,0,0
7121,1907,26392,0,0,0
7039,1875,26279,0,0,0
6959,1843,26169,0,0,0
6890,1816,26075,0,0,0
6841,1796,26003,0,0,0
6806,1782,25950,0,0,0
6784,1771,25913,0,0,0
6780,1766,25898,0,0,0
6796,1769,25908,0,0,0
6825,1776,25937,0,0,0
6864,1788,25982,0,0,0
6916,1807,26047,0,0,0
6978,1833,26130,0,0,0
7042,1860,26218,0,0,0
7108,1885,26303,0,0,0
7177,1910,26389,0,0,0
7245,1934,26479,0,0,0
7306,1956,26564,0,0,0
7363,1976,26637,0,0,0
7421,1997,26708,0,0,0
7472,2018,26778,0,0,0
7507,2031,26833,0,0,0
7529,2036,26866,0,0,0
7547,2040,26891,0,0,0
7557,2043,26908,0,0,0
7549,2040,26901,0,0,0
7530,2033,26874,0,0,0
7509,2026,26839,0,0,0
7482,2014,26793,0,0,0
7441,1994,26730,0,0,0
7390,1967,26655,0,0,0
7334,1942,26578,0,0,0
7272,1917,26499,0,0,0
7197,1889,26406,0,0,0
7119,1860,26301,0,0,0
7046,1835,26192,0,0,0
6971,1810,26077,0,0,0
6891,1781,25951,0,0,0
6813,1751,25821,0,0,0
6737,1721,25697,0,0,0
6655,1689,25576,0,0,0
6567,1652,25451,0,0,0
6478,1614,25327,0,0,0
6394,1579,25211,0,0,0
6313,1546,25098,0,0,0
6228,1513,24983,0,0,0
6144,1481,24870,0,0,0
6065,1452,24762,0,0,0
5985,1424,24652,0,0,0
5902,1396,24534,0,0,0
5825,1368,24415,0,0,0
5756,1344,24306,0,0,0
5688,1321,24198,0,0,0
5617,1295,24089,0,0,0
5551,1269,23988,0,0,0
5490,1248,23896,0,0,0
5427,1227,23802,0,0,0
5357,1202,23699,0,0,0
5282,1177,23595,0,0,0
5207,1154,23492,0,0,0
5125,1126,23383,0,0,0
5041,1090,23268,0,0,0
4963,1055,23156,0,0,0
4890,1024,23052,0,0,0
4821,994,22956,0,0,0
4765,968,22879,0,0,0
4734,952,22835,0,0,0
4735,951,22836,0,0,0
4778,965,22893,0,0,0
4879,999,23025,0,0,0
5045,1058,23239,0,0,0
5266,1142,23532,0,0,0
5531,1244,23893,0,0,0
5838,1361,24314,0,0,0
6179,1493,24788,0,0,0
6538,1633,25294,0,0,0
6901,1773,25814,0,0,0
7262,1914,26332,0,0,0
7614,2051,26837,0,0,0
7948,2180,27316,0,0,0
8256,2294,27756,0,0,0
8534,2395,28156,0,0,0
8780,2484,28517,0,0,0
8986,2561,28830,0,0,0
9146,2623,29083,0,0,0
9270,2672,29283,0,0,0
9364,2710,29436,0,0,0
9424,2732,29538,0,0,0
9449,2742,29587,0,0,0
9444,2741,29588,0,0,0
9411,2730,29547,0,0,0
9350,2708,29464,0,0,0
9264,2674,29342,0,0,0
9161,2637,29197,0,0,0
9046,2598,29035,0,0,0
8917,2553,28853,0,0,0
8778,2501,28649,0,0,0
8635,2447,28434,0,0,0
8488,2392,28214,0,0,0
8338,2334,27986,0,0,0
8187,2277,27757,0,0,0
8043,2226,27544,0,0,0
7908,2179,27345,0,0,0
7772,2126,27148,0,0,0
7637,2069,26952,0,0,0
7514,2014,26769,0,0,0
7401,1964,26601,0,0,0
7288,1915,26435,0,0,0
7178,1867,26271,0,0,0
7081,1827,26127,0,0,0
6998,1794,26000,0,0,0
6921,1765,25881,0,0,0
6853,1738,25777,0,0,0
6801,1720,25701,0,0,0
6762,1707,25648,0,0,0
6732,1694,25605,0,0,0
6716,1686,25576,0,0,0
6719,1686,25575,0,0,0
6735,1692,25596,0,0,0
6760,1698,25626,0,0,0
6796,1711,25671,0,0,0
6845,1732,25737,0,0,0
6901,1757,25816,0,0,0
6963,1781,25900,0,0,0
7033,1808,25992,0,0,0
7107,1838,26092,0,0,0
7180,1869,26193,0,0,0
7254,1898,26289,0,0,0
7332,1928,26385,0,0,0
7414,1962,26485,0,0,0
7490,1992,26578,0,0,0
7555,2017,26657,0,0,0
7609,2036,26731,0,0,0
7652,2052,26803,0,0,0
7684,2062,26859,0,0,0
7705,2067,26894,0,0,0
7718,2070,26916,0,0,0
7718,2073,26930,0,0,0
7702,2070,26922,0,0,0
7672,2059,26891,0,0,0
7639,2045,26848,0,0,0
7603,2032,26798,0,0,0
7555,2012,26731,0,0,0
7497,1984,26645,0,0,0
7440,1955,26553,0,0,0
7384,1930,26458,0,0,0
7319,1904,26353,0,0,0
7251,1878,26241,0,0,0
7185,1855,26135,0,0,0
7121,1834,26032,0,0,0
7053,1810,25924,0,0,0
6983,1783,25812,0,0,0
6913,1757,25703,0,0,0
6841,1733,25594,0,0,0
6768,1705,25481,0,0,0
6698,1675,25371,0,0,0
6629,1646,25273,0,0,0
6558,1618,25176,0,0,0
6484,1588,25072,0,0,0
6410,1557,24966,0,0,0
6337,1528,24863,0,0,0
6261,1498,24761,0,0,0
6180,1464,24653,0,0,0
6101,1430,24543,0,0,0
6028,1400,24437,0,0,0
5955,1374,24330,0,0,0
5879,1345,24217,0,0,0
5804,1319,24108,0,0,0
5732,1298,24006,0,0,0
5661,1277,23904,0,0,0
5589,1252,23795,0,0,0
5522,1226,23687,0,0,0
5466,1202,23592,0,0,0
5417,1182,23511,0,0,0
5383,1167,23452,0,0,0
5380,1165,23437,0,0,0
5419,1180,23483,0,0,0
5504,1208,23590,0,0,0
5638,1251,23760,0,0,0
5823,1315,24003,0,0,0
6055,1400,24320,0,0,0
6321,1500,24692,0,0,0
6613,1609,25107,0,0,0
6930,1729,25564,0,0,0
7266,1858,26053,0,0,0
7603,1987,26549,0,0,0
7935,2112,27038,0,0,0
8258,2234,27514,0,0,0
8563,2351,27966,0,0,0
8840,2457,28378,0,0,0
9090,2552,28750,0,0,0
9311,2637,29082,0,0,0
9500,2712,29368,0,0,0
9652,2773,29602,0,0,0
9770,2823,29782,0,0,0
9855,2862,29912,0,0,0
9903,2888,29991,0,0,0
9915,2897,30013,0,0,0
9896,2892,29989,0,0,0
9854,2878,29933,0,0,0
9784,2854,29842,0,0,0
9686,2817,29714,0,0,0
9569,2771,29557,0,0,0
9439,2720,29380,0,0,0
9300,2665,29181,0,0,0
9151,2604,28961,0,0,0
9000,2541,28732,0,0,0
8851,2481,28509,0,0,0
8702,2425,28289,0,0,0
8553,2369,28070,0,0,0
8414,2316,27863,0,0,0
8291,2272,27674,0,0,0
8175,2231,27497,0,0,0
8066,2189,27329,0,0,0
7969,2150,27177,0,0,0
7883,2117,27039,0,0,0
7796,2086,26905,0,0,0
7711,2055,26772,0,0,0
7634,2026,26647,0,0,0
7564,2002,26532,0,0,0
7495,1978,26421,0,0,0
7431,1955,26319,0,0,0
7382,1935,26236,0,0,0
7346,1921,26174,0,0,0
7319,1909,26126,0,0,0
7299,1899,26090,0,0,0
7296,1897,26076,0,0,0
7308,1902,26088,0,0,0
7326,1909,26115,0,0,0
7351,1916,26157,0,0,0
7393,1932,26224,0,0,0
7450,1955,26306,0,0,0
7512,1979,26391,0,0,0
7579,2003,26480,0,0,0
7657,2029,26582,0,0,0
7739,2056,26689,0,0,0
7817,2080,26789,0,0,0
7888,2104,26883,0,0,0
7960,2129,26979,0,0,0
8025,2153,27070,0,0,0
8080,2171,27146,0,0,0
8126,2185,27206,0,0,0
8163,2198,27257,0,0,0
8187,2207,27296,0,0,0
8197,2212,27314,0,0,0
8195,2210,27316,0,0,0
8185,2205,27309,0,0,0
8164,2196,27292,0,0,0
8128,2183,27259,0,0,0
8086,2168,27215,0,0,0
8046,2153,27169,0,0,0
8003,2135,27112,0,0,0
7953,2112,27042,0,0,0
7904,2089,26967,0,0,0
7857,2068,26893,0,0,0
7804,2044,26809,0,0,0
7742,2016,26710,0,0,0
7677,1989,26605,0,0,0
7612,1966,26501,0,0,0
7542,1942,26391,0,0,0
7470,1916,26277,0,0,0
7402,1892,26168,0,0,0
7336,1871,26064,0,0,0
7264,1843,25952,0,0,0
7186,1807,25834,0,0,0
7107,1773,25721,0,0,0
7031,1744,25611,0,0,0
6950,1714,25495,0,0,0
6865,1680,25375,0,0,0
6782,1643,25259,0,0,0
6701,1609,25144,0,0,0
6622,1576,25023,0,0,0
6546,1540,24903,0,0,0
6474,1507,24793,0,0,0
6399,1477,24687,0,0,0
6317,1450,24575,0,0,0
6234,1425,24460,0,0,0
6156,1402,24351,0,0,0
6080,1379,24247,0,0,0
6004,1353,24145,0,0,0
5936,1328,24054,0,0,0
5886,1310,23988,0,0,0
5861,1303,23953,0,0,0
5870,1306,23957,0,0,0
5923,1325,24021,0,0,0
6029,1366,24166,0,0,0
6183,1425,24383,0,0,0
6380,1494,24658,0,0,0
6618,1579,24992,0,0,0
6896,1680,25385,0,0,0
7203,1794,25827,0,0,0
7527,1914,26294,0,0,0
7863,2037,26777,0,0,0
8202,2164,27271,0,0,0
8531,2290,27757,0,0,0
8839,2409,28213,0,0,0
9124,2520,28640,0,0,0
9385,2624,29034,0,0,0
9615,2717,29380,0,0,0
9808,2792,29670,0,0,0
9966,2856,29911,0,0,0
10092,2912,30103,0,0,0
10178,2955,30236,0,0,0
10223,2979,30308,0,0,0
10235,2987,30331,0,0,0
10218,2983,30315,0,0,0
10167,2966,30261,0,0,0
10090,2938,30173,0,0,0
10000,2905,30061,0,0,0
9900,2869,29928,0,0,0
9781,2825,29770,0,0,0
9649,2775,29588,0,0,0
9512,2724,29392,0,0,0
9370,2673,29186,0,0,0
9225,2617,28974,0,0,0
9087,2560,28762,0,0,0
8959,2508,28559,0,0,0
8836,2459,28368,0,0,0
8717,2408,28184,0,0,0
8606,2358,28008,0,0,0
8505,2315,27849,0,0,0
8405,2275,27701,0,0,0
8303,2234,27553,0,0,0
8207,2198,27403,0,0,0
8121,2169,27260,0,0,0
8040,2143,27127,0,0,0
7959,2114,27001,0,0,0
7879,2086,26884,0,0,0
7804,2062,26779,0,0,0
7734,2040,26682,0,0,0
7669,2018,26590,0,0,0
7617,1997,26511,0,0,0
7580,1980,26450,0,0,0
7550,1964,26400,0,0,0
7524,1946,26355,0,0,0
7508,1933,26325,0,0,0
7507,1927,26322,0,0,0
7515,1925,26333,0,0,0
7527,1924,26352,0,0,0
7547,1927,26384,0,0,0
7574,1939,26430,0,0,0
7606,1955,26481,0,0,0
7643,1974,26535,0,0,0
7690,1997,26599,0,0,0
7744,2024,26674,0,0,0
7796,2050,26747,0,0,0
7844,2071,26815,0,0,0
7890,2092,26886,0,0,0
7929,2113,26958,0,0,0
7961,2129,27020,0,0,0
7989,2139,27067,0,0,0
8016,2149,27108,0,0,0
8037,2155,27138,0,0,0
8046,2154,27146,0,0,0
8043,2147,27135,0,0,0
8028,2138,27113,0,0,0
8001,2125,27075,0,0,0
7959,2105,27016,0,0,0
7909,2079,26940,0,0,0
7853,2054,26855,0,0,0
7786,2027,26756,0,0,0
7708,1995,26639,0,0,0
7623,1960,26507,0,0,0
7536,1925,26374,0,0,0
7443,1890,26241,0,0,0
7346,1851,26102,0,0,0
7250,1812,25963,0,0,0
7161,1775,25835,0,0,0
7072,1740,25708,0,0,0
6978,1705,25575,0,0,0
6883,1671,25441,0,0,0
6792,1642,25316,0,0,0
6701,1612,25192,0,0,0
6606,1579,25060,0,0,0
6513,1542,24927,0,0,0
6426,1508,24804,0,0,0
6341,1474,24682,0,0,0
6251,1440,24552,0,0,0
6165,1406,24426,0,0,0
6086,1375,24313,0,0,0
6008,1346,24206,0,0,0
5930,1317,24099,0,0,0
5857,1291,23998,0,0,0
5790,1268,23906,0,0,0
5723,1244,23818,0,0,0
5654,1219,23730,0,0,0
5591,1198,23649,0,0,0
5536,1181,23580,0,0,0
5489,1164,23521,0,0,0
5460,1148,23483,0,0,0
5461,1143,23485,0,0,0
5503,1152,23539,0,0,0
5589,1179,23650,0,0,0
5723,1226,23823,0,0,0
5911,1292,24068,0,0,0
6148,1377,24384,0,0,0
6426,1476,24758,0,0,0
6737,1588,25179,0,0,0
7072,1711,25638,0,0,0
7417,1840,26120,0,0,0
7756,1966,26603,0,0,0
8083,2086,27078,0,0,0
8395,2203,27539,0,0,0
8681,2316,27971,0,0,0
8932,2417,28358,0,0,0
9152,2503,28697,0,0,0
9345,2579,28993,0,0,0
9505,2642,29239,0,0,0
9622,2688,29422,0,0,0
9702,2719,29551,0,0,0
9753,2739,29641,0,0,0
9769,2745,29685,0,0,0
9749,2739,29675,0,0,0
9702,2724,29622,0,0,0
9638,2704,29543,0,0,0
9560,2678,29440,0,0,0
9468,2643,29309,0,0,0
9368,2605,29161,0,0,0
9267,2566,29010,0,0,0
9157,2524,28847,0,0,0
9034,2477,28666,0,0,0
8912,2430,28485,0,0,0
8800,2389,28313,0,0,0
8691,2349,28143,0,0,0
8586,2309,27974,0,0,0
8489,2274,27819,0,0,0
8403,2242,27682,0,0,0
8322,2209,27553,0,0,0
8244,2173,27431,0,0,0
8172,2140,27323,0,0,0
8103,2114,27225,0,0,0
8034,2089,27127,0,0,0
7966,2065,27026,0,0,0
7903,2045,26932,0,0,0
7845,2026,26842,0,0,0
7786,2004,26749,0,0,0
7725,1979,26655,0,0,0
7669,1957,26570,0,0,0
7619,1939,26494,0,0,0
7569,1921,26422,0,0,0
7524,1902,26356,0,0,0
7490,1888,26305,0,0,0
7464,1876,26264,0,0,0
7445,1864,26232,0,0,0
7437,1855,26215,0,0,0
7445,1854,26220,0,0,0
7461,1857,26241,0,0,0
7483,1862,26270,0,0,0
7516,1871,26307,0,0,0
7561,1887,26360,0,0,0
7608,1909,26423,0,0,0
7654,1930,26487,0,0,0
7703,1951,26555,0,0,0
7758,1973,26630,0,0,0
7815,1995,26702,0,0,0
7865,2013,26758,0,0,0
7907,2025,26802,0,0,0
7940,2034,26839,0,0,0
7958,2038,26860,0,0,0
7958,2034,26861,0,0,0
7945,2024,26849,0,0,0
7927,2012,26830,0,0,0
7900,1995,26797,0,0,0
7861,1968,26744,0,0,0
7814,1937,26675,0,0,0
7763,1909,26597,0,0,0
7702,1881,26502,0,0,0
7632,1851,26394,0,0,0
7566,1823,26291,0,0,0
7507,1796,26202,0,0,0
7444,1767,26112,0,0,0
7377,1737,26011,0,0,0
7315,1712,25911,0,0,0
7256,1692,25813,0,0,0
7192,1671,25711,0,0,0
7122,1648,25608,0,0,0
7053,1626,25513,0,0,0
6987,1609,25421,0,0,0
6920,1592,25323,0,0,0
6855,1571,25222,0,0,0
6795,1548,25126,0,0,0
6736,1523,25032,0,0,0
6673,1497,24936,0,0,0
6609,1469,24841,0,0,0
6547,1442,24749,0,0,0
6483,1417,24656,0,0,0
6414,1390,24559,0,0,0
6344,1363,24465,0,0,0
6277,1337,24376,0,0,0
6214,1309,24289,0,0,0
6152,1279,24196,0,0,0
6095,1247,24104,0,0,0
6045,1221,24020,0,0,0
5992,1195,23936,0,0,0
5930,1166,23842,0,0,0
5871,1137,23746,0,0,0
5819,1114,23661,0,0,0
5777,1096,23591,0,0,0
5751,1084,23538,0,0,0
5756,1085,23526,0,0,0
5804,1104,23574,0,0,0
5895,1136,23687,0,0,0
6030,1184,23865,0,0,0
6213,1251,24117,0,0,0
6446,1339,24442,0,0,0
6719,1442,24824,0,0,0
7025,1556,25251,0,0,0
7358,1679,25717,0,0,0
7712,1809,26210,0,0,0
8068,1937,26710,0,0,0
8414,2061,27200,0,0,0
8747,2182,27677,0,0,0
9057,2298,28132,0,0,0
9336,2403,28548,0,0,0
9581,2494,28919,0,0,0
9799,2576,29250,0,0,0
9983,2648,29536,0,0,0
10126,2706,29767,0,0,0
10231,2748,29940,0,0,0
10306,2780,30061,0,0,0
10350,2801,30131,0,0,0
10358,2806,30145,0,0,0
10334,2797,30114,0,0,0
10285,2780,30053,0,0,0
10217,2758,29964,0,0,0
10131,2728,29844,0,0,0
10031,2693,29704,0,0,0
9927,2655,29555,0,0,0
9816,2613,29398,0,0,0
9697,2565,29228,0,0,0
9581,2514,29059,0,0,0
9478,2469,28900,0,0,0
9382,2432,28749,0,0,0
9288,2396,28602,0,0,0
9202,2361,28467,0,0,0
9127,2329,28348,0,0,0
9060,2300,28240,0,0,0
8997,2271,28135,0,0,0
8941,2242,28036,0,0,0
8890,2218,27944,0,0,0
8835,2195,27850,0,0,0
8775,2169,27752,0,0,0
8716,2144,27655,0,0,0
8660,2122,27565,0,0,0
8604,2099,27477,0,0,0
8549,2075,27386,0,0,0
8500,2050,27304,0,0,0
8458,2027,27233,0,0,0
8421,2007,27167,0,0,0
8390,1991,27109,0,0,0
8374,1983,27069,0,0,0
8368,1981,27050,0,0,0
8363,1979,27041,0,0,0
8361,1977,27037,0,0,0
8370,1976,27045,0,0,0
8389,1979,27062,0,0,0
8408,1982,27081,0,0,0
8428,1984,27101,0,0,0
8459,1990,27132,0,0,0
8495,1999,27169,0,0,0
8526,2007,27206,0,0,0
8552,2014,27240,0,0,0
8580,2023,27280,0,0,0
8605,2034,27319,0,0,0
8621,2041,27346,0,0,0
8632,2046,27361,0,0,0
8639,2051,27375,0,0,0
8640,2056,27383,0,0,0
8633,2058,27381,0,0,0
8626,2059,27370,0,0,0
8620,2059,27358,0,0,0
8609,2058,27343,0,0,0
8590,2049,27317,0,0,0
8567,2034,27282,0,0,0
8539,2020,27241,0,0,0
8504,2005,27187,0,0,0
8462,1986,27119,0,0,0
8418,1965,27048,0,0,0
8369,1942,26974,0,0,0
8315,1920,26891,0,0,0
8259,1897,26797,0,0,0
8202,1873,26697,0,0,0
8142,1847,26596,0,0,0
8074,1817,26488,0,0,0
8001,1783,26370,0,0,0
7931,1750,26248,0,0,0
7863,1721,26131,0,0,0
7790,1692,26013,0,0,0
7710,1662,25894,0,0,0
7631,1636,25783,0,0,0
7556,1611,25680,0,0,0
7479,1583,25574,0,0,0
7399,1551,25466,0,0,0
7325,1521,25364,0,0,0
7258,1493,25272,0,0,0
7194,1464,25182,0,0,0
7134,1436,25091,0,0,0
7084,1412,25007,0,0,0
7038,1395,24931,0,0,0
6985,1379,24852,0,0,0
6928,1361,24770,0,0,0
6874,1344,24696,0,0,0
6822,1328,24627,0,0,0
6770,1309,24555,0,0,0
6720,1287,24483,0,0,0
6677,1265,24420,0,0,0
6638,1246,24362,0,0,0
6595,1227,24299,0,0,0
6550,1208,24233,0,0,0
6508,1192,24170,0,0,0
6466,1177,24106,0,0,0
6421,1157,24032,0,0,0
6375,1136,23957,0,0,0
6333,1119,23898,0,0,0
6301,1106,23860,0,0,0
6291,1098,23845,0,0,0
6319,1104,23875,0,0,0
6394,1131,23969,0,0,0
6515,1176,24128,0,0,0
6683,1237,24346,0,0,0
6894,1314,24629,0,0,0
7141,1409,24978,0,0,0
7418,1520,25378,0,0,0
7721,1640,25810,0,0,0
8042,1764,26261,0,0,0
8370,1888,26719,0,0,0
8689,2007,27170,0,0,0
8990,2118,27602,0,0,0
9273,2220,28012,0,0,0
9530,2314,28394,0,0,0
9750,2395,28732,0,0,0
9927,2460,29013,0,0,0
10068,2514,29240,0,0,0
10175,2557,29415,0,0,0
10244,2585,29532,0,0,0
10275,2597,29591,0,0,0
10275,2597,29605,0,0,0
10245,2589,29581,0,0,0
10184,2570,29515,0,0,0
10099,2541,29412,0,0,0
10003,2506,29288,0,0,0
9899,2466,29147,0,0,0
9787,2422,28990,0,0,0
9673,2378,28823,0,0,0
9566,2338,28653,0,0,0
9462,2300,28486,0,0,0
9354,2262,28322,0,0,0
9250,2224,28163,0,0,0
9155,2188,28021,0,0,0
9071,2157,27897,0,0,0
8992,2127,27783,0,0,0
8919,2100,27679,0,0,0
8856,2080,27590,0,0,0
8798,2063,27513,0,0,0
8739,2042,27433,0,0,0
8684,2018,27352,0,0,0
8639,1995,27277,0,0,0
8594,1971,27201,0,0,0
8543,1943,27115,0,0,0
8490,1914,27025,0,0,0
8440,1891,26937,0,0,0
8392,1871,26852,0,0,0
8345,1853,26769,0,0,0
8304,1838,26698,0,0,0
8271,1827,26641,0,0,0
8242,1817,26594,0,0,0
8221,1809,26554,0,0,0
8211,1808,26529,0,0,0
8212,1815,26523,0,0,0
8221,1823,26528,0,0,0
8237,1826,26539,0,0,0
8257,1829,26562,0,0,0
8277,1835,26596,0,0,0
8291,1841,26626,0,0,0
8302,1848,26648,0,0,0
8319,1860,26675,0,0,0
8343,1876,26710,0,0,0
8365,1890,26743,0,0,0
8381,1899,26768,0,0,0
8400,1908,26792,0,0,0
8419,1917,26817,0,0,0
8430,1921,26832,0,0,0
8435,1918,26836,0,0,0
8439,1917,26841,0,0,0
8441,1918,26842,0,0,0
8431,1913,26829,0,0,0
8412,1904,26801,0,0,0
8388,1897,26767,0,0,0
8360,1891,26729,0,0,0
8324,1881,26680,0,0,0
8281,1867,26620,0,0,0
8232,1850,26551,0,0,0
8175,1829,26473,0,0,0
8110,1804,26380,0,0,0
8042,1776,26279,0,0,0
7972,1749,26176,0,0,0
7900,1720,26070,0,0,0
7823,1690,25955,0,0,0
7749,1662,25838,0,0,0
7681,1636,25727,0,0,0
7613,1609,25621,0,0,0
7538,1579,25512,0,0,0
7464,1549,25406,0,0,0
7397,1522,25306,0,0,0
7327,1495,25208,0,0,0
7250,1466,25108,0,0,0
7176,1440,25014,0,0,0
7110,1419,24926,0,0,0
7047,1400,24838,0,0,0
6983,1379,24744,0,0,0
6920,1359,24652,0,0,0
6857,1341,24563,0,0,0
6794,1321,24474,0,0,0
6730,1299,24382,0,0,0
6671,1278,24294,0,0,0
6615,1257,24210,0,0,0
6556,1234,24124,0,0,0
6493,1208,24036,0,0,0
6433,1183,23952,0,0,0
6374,1161,23877,0,0,0
6309,1139,23803,0,0,0
6245,1117,23728,0,0,0
6191,1101,23661,0,0,0
6146,1088,23604,0,0,0
6102,1075,23544,0,0,0
6056,1058,23479,0,0,0
6015,1043,23421,0,0,0
5980,1032,23367,0,0,0
5941,1020,23307,0,0,0
5902,1007,23243,0,0,0
5869,996,23185,0,0,0
5835,986,23127,0,0,0
5796,971,23063,0,0,0
5755,952,22997,0,0,0
5719,934,22938,0,0,0
5683,916,22882,0,0,0
5644,897,22824,0,0,0
5616,881,22777,0,0,0
5607,875,22760,0,0,0
5623,879,22785,0,0,0
5670,896,22857,0,0,0
5760,931,22989,0,0,0
5897,985,23191,0,0,0
6075,1054,23453,0,0,0
6289,1134,23764,0,0,0
6537,1226,24120,0,0,0
6816,1332,24516,0,0,0
7111,1444,24935,0,0,0
7408,1556,25363,0,0,0
7702,1667,25788,0,0,0
7984,1774,26199,0,0,0
8241,1873,26578,0,0,0
8469,1959,26918,0,0,0
8669,2032,27216,0,0,0
8837,2093,27469,0,0,0
8963,2136,27660,0,0,0
9049,2161,27788,0,0,0
9102,2176,27872,0,0,0
9123,2181,27915,0,0,0
9110,2172,27906,0,0,0
9067,2154,27848,0,0,0
9009,2131,27761,0,0,0
8934,2104,27655,0,0,0
8837,2070,27524,0,0,0
8722,2030,27374,0,0,0
8600,1988,27216,0,0,0
8471,1946,27050,0,0,0
8338,1902,26876,0,0,0
8203,1856,26698,0,0,0
8075,1811,26525,0,0,0
7953,1765,26360,0,0,0
7834,1718,26198,0,0,0
7723,1673,26039,0,0,0
7625,1638,25892,0,0,0
7540,1611,25757,0,0,0
7459,1587,25623,0,0,0
7384,1564,25492,0,0,0
7321,1545,25374,0,0,0
7263,1528,25266,0,0,0
7206,1507,25158,0,0,0
7152,1485,25059,0,0,0
7101,1465,24975,0,0,0
7047,1446,24898,0,0,0
6988,1424,24819,0,0,0
6930,1403,24741,0,0,0
6875,1382,24670,0,0,0
6820,1362,24605,0,0,0
6766,1341,24543,0,0,0
6722,1323,24489,0,0,0
6692,1312,24452,0,0,0
6670,1302,24425,0,0,0
6656,1294,24404,0,0,0
6653,1293,24395,0,0,0
6661,1298,24402,0,0,0
6672,1306,24416,0,0,0
6687,1312,24436,0,0,0
6712,1322,24470,0,0,0
6749,1337,24521,0,0,0
6787,1352,24577,0,0,0
6822,1367,24635,0,0,0
6858,1385,24699,0,0,0
6897,1402,24766,0,0,0
6932,1416,24823,0,0,0
6960,1426,24868,0,0,0
6987,1435,24909,0,0,0
7011,1444,24946,0,0,0
7024,1448,24967,0,0,0
7026,1448,24976,0,0,0
7023,1450,24979,0,0,0
7013,1453,24972,0,0,0
6986,1451,24945,0,0,0
6951,1442,24900,0,0,0
6912,1430,24847,0,0,0
6867,1414,24786,0,0,0
6808,1391,24711,0,0,0
6743,1367,24625,0,0,0
6679,1343,24539,0,0,0
6613,1318,24448,0,0,0
6540,1292,24346,0,0,0
6465,1265,24241,0,0,0
6395,1242,24144,0,0,0
6327,1220,24050,0,0,0
6259,1197,23951,0,0,0
6195,1173,23852,0,0,0
6138,1150,23760,0,0,0
6079,1129,23664,0,0,0
6012,1104,23563,0,0,0
5944,1079,23461,0,0,0
5876,1058,23366,0,0,0
5807,1038,23274,0,0,0
5737,1015,23182,0,0,0
5673,994,23095,0,0,0
5614,978,23014,0,0,0
5553,959,22932,0,0,0
5491,934,22842,0,0,0
5433,911,22754,0,0,0
5377,891,22673,0,0,0
5322,870,22592,0,0,0
5271,849,22511,0,0,0
5227,831,22437,0,0,0
5187,819,22369,0,0,0
5145,808,22299,0,0,0
5097,796,22229,0,0,0
5052,785,22169,0,0,0
5012,776,22120,0,0,0
4970,764,22068,0,0,0
4925,749,22011,0,0,0
4886,733,21955,0,0,0
4848,719,21901,0,0,0
4805,703,21843,0,0,0
4758,686,21784,0,0,0
4713,670,21729,0,0,0
4669,654,21676,0,0,0
4620,638,21616,0,0,0
4568,620,21550,0,0,0
4523,601,21490,0,0,0
4483,585,21437,0,0,0
4441,569,21381,0,0,0
4402,555,21324,0,0,0
4370,546,21273,0,0,0
4342,538,21229,0,0,0
4315,530,21185,0,0,0
4297,527,21153,0,0,0
4297,531,21151,0,0,0
4318,541,21183,0,0,0
4364,559,21252,0,0,0
4447,590,21371,0,0,0
4573,636,21550,0,0,0
4734,695,21781,0,0,0
4927,765,22053,0,0,0
5152,846,22366,0,0,0
5407,940,22721,0,0,0
5676,1040,23097,0,0,0
5951,1138,23479,0,0,0
6225,1235,23861,0,0,0
6490,1330,24235,0,0,0
6734,1419,24585,0,0,0
6953,1496,24902,0,0,0
7150,1567,25185,0,0,0
7315,1630,25431,0,0,0
7443,1681,25631,0,0,0
7537,1717,25780,0,0,0
7603,1741,25884,0,0,0
7639,1756,25943,0,0,0
7639,1759,25953,0,0,0
7605,1749,25914,0,0,0
7546,1727,25840,0,0,0
7463,1696,25736,0,0,0
7353,1654,25598,0,0,0
7222,1604,25428,0,0,0
7084,1553,25239,0,0,0
6941,1502,25042,0,0,0
6792,1448,24836,0,0,0
6642,1394,24626,0,0,0
6503,1346,24424,0,0,0
6375,1304,24234,0,0,0
6253,1263,24050,0,0,0
6140,1225,23878,0,0,0
6042,1196,23728,0,0,0
5951,1170,23595,0,0,0
5863,1142,23467,0,0,0
5781,1113,23348,0,0,0
5710,1088,23243,0,0,0
5644,1065,23146,0,0,0
5578,1041,23049,0,0,0
5511,1016,22953,0,0,0
5442,991,22864,0,0,0
5371,968,22782,0,0,0
5302,944,22703,0,0,0
5245,920,22628,0,0,0
5202,901,22565,0,0,0
5166,883,22512,0,0,0
5133,868,22468,0,0,0
5113,858,22440,0,0,0
5108,853,22434,0,0,0
5116,851,22443,0,0,0
5134,854,22465,0,0,0
5164,865,22503,0,0,0
5205,882,22559,0,0,0
5249,902,22624,0,0,0
5295,921,22693,0,0,0
5350,945,22771,0,0,0
5414,977,22858,0,0,0
5474,1004,22938,0,0,0
5525,1023,23008,0,0,0
5573,1038,23077,0,0,0
5616,1053,23143,0,0,0
5649,1065,23194,0,0,0
5675,1075,23229,0,0,0
5696,1086,23259,0,0,0
5707,1097,23283,0,0,0
5704,1103,23291,0,0,0
5693,1104,23284,0,0,0
5679,1104,23268,0,0,0
5661,1099,23242,0,0,0
5632,1087,23203,0,0,0
5595,1070,23155,0,0,0
5557,1054,23105,0,0,0
5518,1040,23048,0,0,0
5470,1024,22976,0,0,0
5413,1005,22893,0,0,0
5354,986,22808,0,0,0
5290,966,22718,0,0,0
5220,941,22619,0,0,0
5150,916,22514,0,0,0
5088,893,22407,0,0,0
5025,869,22297,0,0,0
4954,839,22177,0,0,0
4880,806,22058,0,0,0
4808,776,21952,0,0,0
4736,747,21852,0,0,0
4661,716,21749,0,0,0
4590,688,21647,0,0,0
4525,663,21553,0,0,0
4459,640,21462,0,0,0
4393,616,21371,0,0,0
4331,598,21285,0,0,0
4276,583,21211,0,0,0
4220,570,21137,0,0,0
4161,554,21058,0,0,0
4100,539,20979,0,0,0
4042,528,20905,0,0,0
3979,513,20827,0,0,0
3912,494,20743,0,0,0
3849,475,20662,0,0,0
3791,458,20588,0,0,0
3731,440,20513,0,0,0
3673,420,20432,0,0,0
3624,402,20354,0,0,0
3581,387,20283,0,0,0
3538,373,20212,0,0,0
3493,358,20143,0,0,0
3449,345,20084,0,0,0
3409,333,20033,0,0,0
3369,320,19980,0,0,0
3328,306,19927,0,0,0
3290,293,19886,0,0,0
3258,281,19854,0,0,0
3234,269,19825,0,0,0
3223,258,19807,0,0,0
3233,255,19819,0,0,0
3275,263,19871,0,0,0
3348,283,19963,0,0,0
3457,317,20106,0,0,0
3609,369,20312,0,0,0
3795,436,20573,0,0,0
4006,513,20876,0,0,0
4245,597,21211,0,0,0
4509,688,21579,0,0,0
4782,781,21967,0,0,0
5052,873,22355,0,0,0
5316,965,22734,0,0,0
5569,1055,23101,0,0,0
5803,1139,23442,0,0,0
6009,1212,23742,0,0,0
6184,1276,24000,0,0,0
6331,1333,24218,0,0,0
6447,1380,24386,0,0,0
6524,1411,24501,0,0,0
6568,1430,24572,0,0,0
6584,1440,24604,0,0,0
6571,1438,24593,0,0,0
6532,1421,24537,0,0,0
6472,1393,24448,0,0,0
6394,1360,24330,0,0,0
6295,1321,24183,0,0,0
6180,1276,24011,0,0,0
6058,1230,23828,0,0,0
5933,1187,23646,0,0,0
5804,1144,23459,0,0,0
5675,1101,23264,0,0,0
5553,1062,23077,0,0,0
5438,1027,22902,0,0,0
5323,990,22730,0,0,0
5208,949,22566,0,0,0
5106,913,22420,0,0,0
5019,885,22296,0,0,0
4940,858,22181,0,0,0
4866,834,22074,0,0,0
4803,815,21982,0,0,0
4749,803,21903,0,0,0
4692,788,21822,0,0,0
4634,771,21739,0,0,0
4582,756,21664,0,0,0
4531,739,21591,0,0,0
4475,717,21513,0,0,0
4420,697,21438,0,0,0
4370,684,21376,0,0,0
4325,675,21329,0,0,0
4293,666,21290,0,0,0
4279,660,21262,0,0,0
4282,660,21256,0,0,0
4296,663,21271,0,0,0
4320,668,21300,0,0,0
4359,678,21347,0,0,0
4412,696,21417,0,0,0
4472,717,21499,0,0,0
4531,738,21581,0,0,0
4597,759,21667,0,0,0
4672,784,21762,0,0,0
4744,806,21856,0,0,0
4806,824,21943,0,0,0
4861,841,22026,0,0,0
4909,860,22108,0,0,0
4949,876,22181,0,0,0
4982,889,22242,0,0,0
5010,901,22294,0,0,0
5033,914,22338,0,0,0
5042,924,22367,0,0,0
5042,927,22378,0,0,0
5045,929,22381,0,0,0
5047,932,22380,0,0,0
5036,931,22365,0,0,0
5013,923,22332,0,0,0
4988,915,22294,0,0,0
4964,906,22255,0,0,0
4930,891,22206,0,0,0
4888,873,22147,0,0,0
4841,857,22085,0,0,0
4789,841,22018,0,0,0
4726,822,21941,0,0,0
4660,797,21856,0,0,0
4601,773,21774,0,0,0
4548,750,21690,0,0,0
4491,726,21595,0,0,0
4434,701,21495,0,0,0
4379,681,21401,0,0,0
4320,662,21311,0,0,0
4255,641,21217,0,0,0
4192,621,21130,0,0,0
4138,604,21054,0,0,0
4086,590,20983,0,0,0
4037,574,20909,0,0,0
3994,560,20834,0,0,0
3952,547,20765,0,0,0
3906,533,20695,0,0,0
3856,517,20620,0,0,0
3809,501,20549,0,0,0
3768,488,20486,0,0,0
3722,474,20422,0,0,0
3668,456,20349,0,0,0
3617,437,20274,0,0,0
3571,419,20208,0,0,0
3523,398,20140,0,0,0
3470,373,20062,0,0,0
3415,351,19983,0,0,0
3359,332,19911,0,0,0
3299,312,19836,0,0,0
3240,291,19758,0,0,0
3189,273,19690,0,0,0
3152,260,19640,0,0,0
3131,254,19611,0,0,0
3135,255,19616,0,0,0
3181,268,19677,0,0,0
3271,298,19803,0,0,0
3405,342,19986,0,0,0
3584,400,20227,0,0,0
3806,476,20532,0,0,0
4064,567,20891,0,0,0
4348,666,21288,0,0,0
4647,770,21711,0,0,0
4955,878,22152,0,0,0
5265,988,22593,0,0,0
5560,1093,23016,0,0,0
5838,1189,23411,0,0,0
6103,1281,23784,0,0,0
6342,1367,24124,0,0,0
6541,1441,24415,0,0,0
6702,1505,24660,0,0,0
6830,1558,24866,0,0,0
6924,1599,25027,0,0,0
6986,1625,25136,0,0,0
7021,1638,25202,0,0,0
7032,1645,25233,0,0,0
7018,1643,25228,0,0,0
6978,1629,25184,0,0,0
6921,1607,25109,0,0,0
6849,1580,25010,0,0,0
6758,1547,24884,0,0,0
6651,1507,24735,0,0,0
6539,1464,24572,0,0,0
6429,1424,24407,0,0,0
6319,1386,24241,0,0,0
6210,1346,24076,0,0,0
6106,1309,23920,0,0,0
6008,1276,23778,0,0,0
5913,1246,23643,0,0,0
5822,1218,23511,0,0,0
5744,1194,23396,0,0,0
5681,1175,23303,0,0,0
5627,1156,23220,0,0,0
5577,1137,23142,0,0,0
5534,1122,23075,0,0,0
5494,1111,23019,0,0,0
5452,1098,22958,0,0,0
5409,1082,22893,0,0,0
5374,1069,22834,0,0,0
5341,1058,22777,0,0,0
5305,1045,22717,0,0,0
5267,1030,22656,0,0,0
5231,1016,22600,0,0,0
5198,1003,22549,0,0,0
5170,990,22503,0,0,0
5149,978,22467,0,0,0
5141,972,22448,0,0,0
5146,970,22443,0,0,0
5158,970,22445,0,0,0
5177,972,22458,0,0,0
5207,979,22492,0,0,0
5238,992,22544,0,0,0
5267,1004,22598,0,0,0
5301,1019,22658,0,0,0
5344,1037,22726,0,0,0
5387,1055,22793,0,0,0
5426,1070,22853,0,0,0
5466,1084,22911,0,0,0
5510,1101,22973,0,0,0
5547,1117,23031,0,0,0
5577,1129,23078,0,0,0
5606,1139,23117,0,0,0
5632,1151,23148,0,0,0
5647,1161,23167,0,0,0
5652,1165,23173,0,0,0
5655,1167,23171,0,0,0
5653,1170,23168,0,0,0
5639,1169,23154,0,0,0
5612,1162,23123,0,0,0
5581,1154,23085,0,0,0
5549,1146,23042,0,0,0
5510,1131,22986,0,0,0
5460,1109,22913,0,0,0
5405,1084,22833,0,0,0
5348,1061,22749,0,0,0
5286,1037,22658,0,0,0
5222,1009,22567,0,0,0
5159,979,22482,0,0,0
5095,951,22399,0,0,0
5025,923,22310,0,0,0
4957,896,22215,0,0,0
4897,875,22127,0,0,0
4841,858,22046,0,0,0
4783,840,21964,0,0,0
4723,824,21882,0,0,0
4669,812,21806,0,0,0
4618,799,21732,0,0,0
4564,782,21651,0,0,0
4510,765,21570,0,0,0
4458,748,21500,0,0,0
4408,731,21433,0,0,0
4351,709,21356,0,0,0
4290,684,21271,0,0,0
4236,661,21192,0,0,0
4185,641,21120,0,0,0
4130,622,21047,0,0,0
4072,603,20975,0,0,0
4018,587,20905,0,0,0
3963,570,20831,0,0,0
3904,552,20751,0,0,0
3847,534,20676,0,0,0
3798,519,20613,0,0,0
3752,506,20553,0,0,0
3709,492,20493,0,0,0
3675,481,20442,0,0,0
3659,477,20412,0,0,0
3661,479,20405,0,0,0
3690,488,20426,0,0,0
3760,509,20500,0,0,0
3877,546,20638,0,0,0
4035,594,20836,0,0,0
4230,652,21092,0,0,0
4466,725,21411,0,0,0
4734,815,21784,0,0,0
5020,913,22189,0,0,0
5315,1015,22612,0,0,0
5615,1123,23055,0,0,0
5916,1235,23505,0,0,0
6209,1344,23938,0,0,0
6490,1446,24343,0,0,0
6755,1542,24721,0,0,0
6993,1631,25064,0,0,0
7198,1708,25358,0,0,0
7369,1772,25602,0,0,0
7509,1826,25804,0,0,0
7617,1867,25963,0,0,0
7686,1893,26068,0,0,0
7722,1906,26125,0,0,0
7734,1913,26150,0,0,0
7721,1913,26143,0,0,0
7679,1899,26097,0,0,0
7612,1876,26015,0,0,0
7532,1850,25913,0,0,0
7438,1820,25792,0,0,0
7327,1783,25648,0,0,0
7212,1742,25492,0,0,0
7102,1702,25336,0,0,0
6997,1661,25179,0,0,0
6895,1619,25020,0,0,0
6799,1579,24867,0,0,0
6709,1545,24728,0,0,0
6622,1515,24599,0,0,0
6541,1487,24476,0,0,0
6471,1462,24365,0,0,0
6413,1443,24272,0,0,0
6362,1423,24186,0,0,0
6313,1401,24101,0,0,0
6268,1381,24025,0,0,0
6230,1365,23960,0,0,0
6190,1350,23897,0,0,0
6143,1334,23832,0,0,0
6095,1318,23770,0,0,0
6048,1303,23714,0,0,0
5996,1288,23656,0,0,0
5944,1271,23595,0,0,0
5901,1257,23542,0,0,0
5865,1247,23499,0,0,0
5834,1238,23461,0,0,0
5812,1231,23429,0,0,0
5803,1227,23410,0,0,0
5805,1226,23404,0,0,0
5817,1224,23404,0,0,0
5838,1227,23414,0,0,0
5866,1239,23443,0,0,0
5897,1258,23488,0,0,0
5929,1276,23534,0,0,0
5964,1294,23583,0,0,0
6002,1313,23644,0,0,0
6040,1332,23715,0,0,0
6071,1346,23781,0,0,0
6099,1358,23839,0,0,0
6132,1372,23899,0,0,0
6166,1385,23953,0,0,0
6191,1391,23988,0,0,0
6211,1393,24008,0,0,0
6232,1395,24027,0,0,0
6248,1397,24041,0,0,0
6252,1395,24039,0,0,0
6246,1390,24026,0,0,0
6233,1387,24008,0,0,0
6210,1383,23979,0,0,0
6179,1374,23937,0,0,0
6146,1361,23885,0,0,0
6113,1348,23829,0,0,0
6072,1333,23766,0,0,0
6022,1316,23693,0,0,0
5972,1300,23616,0,0,0
5923,1287,23543,0,0,0
5870,1272,23467,0,0,0
5811,1252,23381,0,0,0
5749,1228,23289,0,0,0
5683,1203,23192,0,0,0
5611,1174,23086,0,0,0
5535,1145,22979,0,0,0
5465,1119,22879,0,0,0
5398,1096,22784,0,0,0
5325,1070,22683,0,0,0
5249,1041,22577,0,0,0
5182,1015,22480,0,0,0
5121,990,22391,0,0,0
5061,965,22298,0,0,0
4999,940,22204,0,0,0
4940,922,22123,0,0,0
4887,908,22060,0,0,0
4836,895,22002,0,0,0
4789,883,21945,0,0,0
4748,876,21896,0,0,0
4712,870,21855,0,0,0
4674,861,21806,0,0,0
4634,845,21752,0,0,0
4597,831,21702,0,0,0
4560,816,21654,0,0,0
4518,798,21597,0,0,0
4473,777,21535,0,0,0
4431,758,21473,0,0,0
4387,740,21408,0,0,0
4332,718,21331,0,0,0
4273,695,21250,0,0,0
4218,673,21176,0,0,0
4161,652,21101,0,0,0
4102,628,21023,0,0,0
4051,606,20954,0,0,0
4015,594,20907,0,0,0
3993,591,20881,0,0,0
3994,594,20878,0,0,0
4035,609,20917,0,0,0
4119,641,21017,0,0,0
4244,686,21178,0,0,0
4415,744,21397,0,0,0
4633,819,21680,0,0,0
4892,908,22025,0,0,0
5179,1008,22417,0,0,0
5489,1116,22842,0,0,0
5813,1234,23291,0,0,0
6139,1357,23752,0,0,0
6452,1475,24208,0,0,0
6749,1586,24645,0,0,0
7027,1689,25059,0,0,0
7280,1784,25444,0,0,0
7500,1868,25783,0,0,0
7687,1938,26067,0,0,0
7844,2000,26303,0,0,0
7968,2051,26494,0,0,0
8057,2086,26632,0,0,0
8112,2105,26717,0,0,0
8137,2115,26764,0,0,0
8131,2115,26774,0,0,0
8092,2104,26740,0,0,0
8026,2082,26667,0,0,0
7946,2053,26569,0,0,0
7852,2018,26445,0,0,0
7742,1975,26289,0,0,0
7623,1930,26112,0,0,0
7504,1887,25934,0,0,0
7380,1845,25760,0,0,0
7253,1800,25585,0,0,0
7131,1756,25415,0,0,0
7024,1719,25264,0,0,0
6928,1686,25127,0,0,0
6842,1654,24998,0,0,0
6767,1627,24884,0,0,0
6705,1607,24792,0,0,0
6651,1591,24714,0,0,0
6601,1575,24638,0,0,0
6559,1561,24570,0,0,0
6527,1551,24518,0,0,0
6495,1541,24473,0,0,0
6459,1527,24422,0,0,0
6425,1515,24372,0,0,0
6393,1506,24328,0,0,0
6357,1495,24280,0,0,0
6314,1483,24224,0,0,0
6275,1475,24175,0,0,0
6243,1471,24139,0,0,0
6215,1462,24104,0,0,0
6185,1447,24067,0,0,0
6164,1434,24037,0,0,0
6155,1429,24020,0,0,0
6150,1424,24007,0,0,0
6147,1419,23999,0,0,0
6151,1419,24005,0,0,0
6160,1424,24026,0,0,0
6168,1428,24050,0,0,0
6181,1434,24076,0,0,0
6206,1444,24115,0,0,0
6238,1456,24163,0,0,0
6271,1468,24207,0,0,0
6305,1480,24251,0,0,0
6344,1496,24304,0,0,0
6385,1513,24362,0,0,0
6422,1527,24415,0,0,0
6452,1537,24461,0,0,0
6479,1546,24507,0,0,0
6499,1554,24546,0,0,0
6512,1560,24568,0,0,0
6518,1563,24575,0,0,0
6521,1568,24576,0,0,0
6518,1570,24570,0,0,0
6502,1565,24543,0,0,0
6476,1554,24500,0,0,0
6443,1543,24448,0,0,0
6399,1529,24384,0,0,0
6340,1508,24302,0,0,0
6275,1484,24210,0,0,0
6210,1462,24119,0,0,0
6138,1438,24027,0,0,0
6059,1410,23929,0,0,0
5979,1380,23831,0,0,0
5906,1353,23742,0,0,0
5836,1326,23654,0,0,0
5765,1297,23557,0,0,0
5699,1267,23457,0,0,0
5636,1239,23361,0,0,0
5567,1212,23262,0,0,0
5495,1184,23156,0,0,0
5426,1159,23053,0,0,0
5361,1138,22956,0,0,0
5293,1115,22855,0,0,0
5223,1086,22750,0,0,0
5156,1056,22647,0,0,0
5093,1027,22547,0,0,0
5029,1000,22442,0,0,0
4962,975,22336,0,0,0
4896,954,22240,0,0,0
4833,936,22153,0,0,0
4771,917,22069,0,0,0
4710,899,21989,0,0,0
4657,883,21922,0,0,0
4608,869,21867,0,0,0
4557,852,21813,0,0,0
4508,835,21758,0,0,0
4466,822,21707,0,0,0
4425,812,21657,0,0,0
4382,798,21602,0,0,0
4339,782,21549,0,0,0
4298,770,21504,0,0,0
4259,760,21459,0,0,0
4219,747,21405,0,0,0
4178,733,21346,0,0,0
4138,720,21291,0,0,0
4096,707,21238,0,0,0
4051,692,21176,0,0,0
4006,679,21108,0,0,0
3962,666,21040,0,0,0
3912,651,20970,0,0,0
3856,632,20897,0,0,0
3809,617,20832,0,0,0
3779,608,20788,0,0,0
3765,602,20767,0,0,0
3775,602,20774,0,0,0
3827,615,20833,0,0,0
3926,645,20958,0,0,0
4070,692,21148,0,0,0
4255,754,21396,0,0,0
4481,834,21708,0,0,0
4746,931,22077,0,0,0
5034,1038,22480,0,0,0
5336,1147,22900,0,0,0
5646,1260,23339,0,0,0
5956,1376,23790,0,0,0
6253,1486,24230,0,0,0
6535,1586,24644,0,0,0
6806,1679,25033,0,0,0
7056,1766,25390,0,0,0
7273,1843,25695,0,0,0
7452,1906,25946,0,0,0
7599,1959,26155,0,0,0
7713,2003,26323,0,0,0
7789,2033,26441,0,0,0
7828,2052,26511,0,0,0
7838,2064,26543,0,0,0
7818,2065,26532,0,0,0
7765,2052,26477,0,0,0
7688,2030,26386,0,0,0
7600,2002,26274,0,0,0
7498,1967,26141,0,0,0
7379,1921,25980,0,0,0
7250,1870,25802,0,0,0
7120,1821,25621,0,0,0
6988,1773,25437,0,0,0
6854,1725,25249,0,0,0
6724,1678,25065,0,0,0
6603,1635,24894,0,0,0
6492,1596,24734,0,0,0
6390,1559,24580,0,0,0
6298,1525,24436,0,0,0
6216,1496,24308,0,0,0
6139,1471,24191,0,0,0
6063,1444,24078,0,0,0
5993,1418,23977,0,0,0
5929,1396,23894,0,0,0
5865,1373,23818,0,0,0
5800,1345,23738,0,0,0
5739,1316,23659,0,0,0
5685,1292,23589,0,0,0
5629,1269,23522,0,0,0
5573,1246,23452,0,0,0
5529,1229,23395,0,0,0
5499,1221,23359,0,0,0
5475,1216,23334,0,0,0
5456,1212,23317,0,0,0
5454,1216,23314,0,0,0
5469,1228,23330,0,0,0
5487,1242,23356,0,0,0
5507,1256,23388,0,0,0
5540,1275,23433,0,0,0
5586,1300,23494,0,0,0
5635,1324,23557,0,0,0
5688,1345,23621,0,0,0
5749,1367,23697,0,0,0
5813,1389,23781,0,0,0
5868,1408,23858,0,0,0
5919,1424,23927,0,0,0
5973,1443,23995,0,0,0
6024,1462,24063,0,0,0
6065,1477,24121,0,0,0
6103,1488,24172,0,0,0
6139,1498,24220,0,0,0
6167,1506,24258,0,0,0
6182,1509,24278,0,0,0
6186,1509,24287,0,0,0
6183,1509,24293,0,0,0
6173,1506,24288,0,0,0
6153,1498,24264,0,0,0
6125,1487,24225,0,0,0
6092,1475,24178,0,0,0
6049,1461,24117,0,0,0
5993,1440,24037,0,0,0
5931,1418,23948,0,0,0
5868,1397,23863,0,0,0
5799,1376,23775,0,0,0
5720,1350,23676,0,0,0
5641,1326,23574,0,0,0
5566,1304,23476,0,0,0
5490,1279,23369,0,0,0
5414,1249,23252,0,0,0
5341,1220,23138,0,0,0
5272,1194,23033,0,0,0
5201,1166,22922,0,0,0
5129,1135,22802,0,0,0
5064,1105,22691,0,0,0
5006,1082,22594,0,0,0
4943,1060,22498,0,0,0
4873,1034,22399,0,0,0
4805,1009,22302,0,0,0
4740,990,22209,0,0,0
4669,969,22113,0,0,0
4596,947,22013,0,0,0
4530,929,21921,0,0,0
4469,913,21836,0,0,0
4403,892,21747,0,0,0
4337,866,21656,0,0,0
4279,841,21574,0,0,0
4222,819,21498,0,0,0
4161,797,21418,0,0,0
4104,776,21340,0,0,0
4053,760,21271,0,0,0
4003,746,21206,0,0,0
3952,731,21136,0,0,0
3905,716,21063,0,0,0
3862,703,20993,0,0,0
3817,689,20924,0,0,0
3764,670,20848,0,0,0
3709,649,20768,0,0,0
3656,629,20695,0,0,0
3600,611,20622,0,0,0
3539,590,20538,0,0,0
3477,567,20456,0,0,0
3420,547,20389,0,0,0
3370,531,20332,0,0,0
3333,516,20285,0,0,0
3322,508,20268,0,0,0
3349,514,20305,0,0,0
3417,536,20396,0,0,0
3530,574,20541,0,0,0
3692,630,20753,0,0,0
3900,704,21035,0,0,0
4142,789,21370,0,0,0
4413,883,21743,0,0,0
4706,986,22150,0,0,0
5012,1097,22580,0,0,0
5316,1209,23017,0,0,0
5612,1317,23448,0,0,0
5900,1423,23869,0,0,0
6172,1524,24271,0,0,0
6418,1617,24636,0,0,0
6634,1697,24956,0,0,0
6824,1767,25236,0,0,0
6983,1827,25477,0,0,0
7109,1873,25668,0,0,0
7202,1904,25806,0,0,0
7265,1924,25902,0,0,0
7297,1935,25958,0,0,0
7297,1933,25966,0,0,0
7263,1919,25928,0,0,0
7206,1899,25862,0,0,0
7128,1874,25770,0,0,0
7027,1837,25638,0,0,0
6906,1790,25472,0,0,0
6779,1740,25290,0,0,0
6644,1688,25099,0,0,0
6500,1632,24892,0,0,0
6353,1578,24679,0,0,0
6215,1534,24475,0,0,0
6083,1496,24278,0,0,0
5951,1456,24081,0,0,0
5827,1417,23895,0,0,0
5717,1382,23731,0,0,0
5617,1349,23584,0,0,0
5521,1312,23444,0,0,0
5434,1277,23320,0,0,0
5353,1251,23216,0,0,0
5270,1227,23117,0,0,0
5184,1199,23011,0,0,0
5100,1170,22904,0,0,0
5018,1142,22801,0,0,0
4935,1115,22694,0,0,0
4854,1086,22584,0,0,0
4784,1058,22486,0,0,0
4726,1037,22405,0,0,0
4678,1020,22335,0,0,0
4640,1005,22278,0,0,0
4621,997,22247,0,0,0
4623,998,22246,0,0,0
4639,1004,22264,0,0,0
4668,1015,22300,0,0,0
4715,1033,22359,0,0,0
4776,1057,22439,0,0,0
4840,1083,22527,0,0,0
4906,1108,22618,0,0,0
4982,1137,22721,0,0,0
5059,1167,22834,0,0,0
5129,1191,22945,0,0,0
5195,1210,23051,0,0,0
5264,1230,23160,0,0,0
5332,1252,23265,0,0,0
5388,1267,23352,0,0,0
5434,1278,23421,0,0,0
5474,1292,23485,0,0,0
5507,1309,23540,0,0,0
5531,1321,23578,0,0,0
5549,1331,23602,0,0,0
5566,1345,23618,0,0,0
5573,1354,23624,0,0,0
5565,1351,23609,0,0,0
5545,1340,23580,0,0,0
5519,1329,23545,0,0,0
5480,1312,23498,0,0,0
5429,1290,23434,0,0,0
5376,1267,23362,0,0,0
5325,1248,23290,0,0,0
5270,1230,23212,0,0,0
5209,1209,23120,0,0,0
5148,1188,23025,0,0,0
5090,1171,22932,0,0,0
5029,1153,22837,0,0,0
4964,1132,22734,0,0,0
4900,1112,22632,0,0,0
4837,1091,22536,0,0,0
4765,1067,22439,0,0,0
4686,1036,22334,0,0,0
4608,1003,22229,0,0,0
4532,975,22130,0,0,0
4453,948,22031,0,0,0
4372,922,21925,0,0,0
4297,895,21823,0,0,0
4228,870,21728,0,0,0
4155,845,21629,0,0,0
4081,818,21523,0,0,0
4014,795,21424,0,0,0
3955,775,21334,0,0,0
3893,753,21240,0,0,0
3829,728,21138,0,0,0
3773,705,21042,0,0,0
3725,686,20953,0,0,0
3675,667,20863,0,0,0
3623,647,20775,0,0,0
3575,630,20699,0,0,0
3526,614,20626,0,0,0
3466,592,20543,0,0,0
3399,567,20455,0,0,0
3338,545,20377,0,0,0
3279,524,20301,0,0,0
3220,501,20221,0,0,0
3166,478,20148,0,0,0
3130,459,20101,0,0,0
3111,449,20082,0,0,0
3112,447,20094,0,0,0
3150,459,20151,0,0,0
3240,490,20271,0,0,0
3377,541,20454,0,0,0
3553,606,20694,0,0,0
3772,685,20995,0,0,0
4033,781,21360,0,0,0
4326,888,21774,0,0,0
4637,998,22218,0,0,0
4958,1111,22685,0,0,0
5286,1230,23165,0,0,0
5608,1347,23637,0,0,0
5914,1457,24083,0,0,0
6204,1562,24502,0,0,0
6474,1665,24892,0,0,0
6709,1757,25237,0,0,0
6907,1834,25532,0,0,0
7076,1898,25781,0,0,0
7215,1950,25989,0,0,0
7318,1985,26145,0,0,0
7385,2007,26249,0,0,0
7420,2019,26310,0,0,0
7426,2024,26330,0,0,0
7400,2018,26303,0,0,0
7344,2000,26235,0,0,0
7267,1973,26137,0,0,0
7171,1942,26011,0,0,0
7054,1904,25855,0,0,0
6928,1859,25677,0,0,0
6802,1817,25491,0,0,0
6674,1775,25300,0,0,0
6537,1729,25099,0,0,0
6396,1681,24895,0,0,0
6261,1634,24700,0,0,0
6133,1589,24515,0,0,0
6009,1542,24330,0,0,0
5890,1494,24150,0,0,0
5782,1450,23984,0,0,0
5680,1410,23828,0,0,0
5581,1370,23677,0,0,0
5487,1332,23537,0,0,0
5404,1301,23414,0,0,0
5323,1270,23297,0,0,0
5237,1238,23177,0,0,0
5154,1206,23063,0,0,0
5080,1181,22963,0,0,0
5010,1162,22871,0,0,0
4943,1143,22783,0,0,0
4888,1127,22711,0,0,0
4850,1119,22661,0,0,0
4825,1113,22628,0,0,0
4812,1108,22610,0,0,0
4815,1106,22614,0,0,0
4835,1112,22639,0,0,0
4860,1120,22675,0,0,0
4892,1129,22718,0,0,0
4939,1142,22773,0,0,0
4996,1161,22844,0,0,0
5059,1182,22921,0,0,0
5128,1206,23001,0,0,0
5209,1236,23090,0,0,0
5292,1268,23190,0,0,0
5368,1297,23284,0,0,0
5435,1320,23369,0,0,0
5498,1340,23454,0,0,0
5554,1360,23537,0,0,0
5599,1377,23604,0,0,0
5634,1393,23654,0,0,0
5665,1410,23701,0,0,0
5691,1423,23741,0,0,0
5700,1427,23759,0,0,0
5692,1422,23753,0,0,0
5677,1415,23736,0,0,0
5656,1408,23708,0,0,0
5619,1395,23661,0,0,0
5572,1377,23598,0,0,0
5522,1360,23532,0,0,0
5467,1342,23461,0,0,0
5401,1318,23376,0,0,0
5333,1290,23283,0,0,0
5268,1263,23190,0,0,0
5201,1235,23091,0,0,0
5125,1206,22980,0,0,0
5046,1178,22864,0,0,0
4968,1153,22751,0,0,0
4888,1125,22637,0,0,0
4803,1094,22515,0,0,0
4720,1062,22391,0,0,0
4642,1034,22274,0,0,0
4567,1005,22159,0,0,0
4492,975,22043,0,0,0
4422,946,21933,0,0,0
4357,922,21834,0,0,0
4292,900,21737,0,0,0
4221,877,21636,0,0,0
4154,856,21543,0,0,0
4093,837,21464,0,0,0
4031,814,21385,0,0,0
3966,786,21296,0,0,0
3906,758,21206,0,0,0
3850,733,21116,0,0,0
3790,708,21018,0,0,0
3726,681,20910,0,0,0
3664,658,20805,0,0,0
3603,640,20707,0,0,0
3537,619,20609,0,0,0
3465,593,20508,0,0,0
3395,566,20413,0,0,0
3328,543,20327,0,0,0
3258,520,20241,0,0,0
3195,497,20159,0,0,0
3153,481,20098,0,0,0
3136,475,20070,0,0,0
3147,479,20077,0,0,0
3193,497,20134,0,0,0
3287,534,20263,0,0,0
3433,591,20469,0,0,0
3626,663,20744,0,0,0
3865,750,21082,0,0,0
4146,855,21484,0,0,0
4457,969,21932,0,0,0
4786,1085,22405,0,0,0
5130,1203,22899,0,0,0
5486,1329,23415,0,0,0
5842,1457,23934,0,0,0
6186,1580,24435,0,0,0
6516,1698,24911,0,0,0
6827,1811,25358,0,0,0
7105,1916,25763,0,0,0
7346,2005,26119,0,0,0
7553,2080,26428,0,0,0
7725,2145,26693,0,0,0
7856,2194,26901,0,0,0
7944,2226,27048,0,0,0
7993,2246,27141,0,0,0
8008,2256,27188,0,0,0
7989,2252,27184,0,0,0
7946,2238,27132,0,0,0
7889,2219,27049,0,0,0
7816,2197,26946,0,0,0
7719,2165,26816,0,0,0
7603,2123,26658,0,0,0
7483,2080,26486,0,0,0
7363,2037,26308,0,0,0
7236,1992,26122,0,0,0
7104,1945,25931,0,0,0
6978,1902,25748,0,0,0
6855,1860,25575,0,0,0
6735,1816,25406,0,0,0
6626,1773,25245,0,0,0
6531,1737,25105,0,0,0
6447,1707,24984,0,0,0
6363,1678,24869,0,0,0
6283,1653,24754,0,0,0
6215,1632,24651,0,0,0
6153,1613,24557,0,0,0
6089,1591,24458,0,0,0
6028,1568,24359,0,0,0
5978,1549,24269,0,0,0
5935,1531,24186,0,0,0
5887,1510,24099,0,0,0
5837,1488,24018,0,0,0
5796,1474,23955,0,0,0
5763,1463,23904,0,0,0
5736,1449,23861,0,0,0
5719,1438,23834,0,0,0
5720,1436,23832,0,0,0
5734,1443,23848,0,0,0
5756,1452,23878,0,0,0
5786,1462,23924,0,0,0
5825,1476,23982,0,0,0
5870,1493,24047,0,0,0
5920,1511,24120,0,0,0
5981,1532,24203,0,0,0
6050,1558,24300,0,0,0
6119,1585,24396,0,0,0
6184,1608,24484,0,0,0
6250,1629,24574,0,0,0
6314,1650,24667,0,0,0
6366,1666,24745,0,0,0
6404,1676,24799,0,0,0
6435,1685,24843,0,0,0
6459,1692,24880,0,0,0
6470,1692,24901,0,0,0
6469,1685,24900,0,0,0
6461,1677,24888,0,0,0
6443,1671,24866,0,0,0
6410,1663,24824,0,0,0
6366,1650,24766,0,0,0
6321,1640,24705,0,0,0
6273,1628,24643,0,0,0
6216,1610,24568,0,0,0
6157,1587,24479,0,0,0
6101,1565,24389,0,0,0
6043,1543,24297,0,0,0
5975,1516,24197,0,0,0
5898,1486,24090,0,0,0
5821,1457,23983,0,0,0
5744,1427,23874,0,0,0
5663,1393,23756,0,0,0
5581,1358,23636,0,0,0
5501,1327,23524,0,0,0
5421,1297,23414,0,0,0
5338,1265,23297,0,0,0
5259,1237,23178,0,0,0
5190,1215,23071,0,0,0
5122,1195,22969,0,0,0
5051,1172,22861,0,0,0
4978,1149,22751,0,0,0
4908,1127,22647,0,0,0
4841,1108,22547,0,0,0
4776,1090,22444,0,0,0
4718,1070,22346,0,0,0
4668,1051,22253,0,0,0
4616,1027,22161,0,0,0
4558,999,22064,0,0,0
4498,969,21970,0,0,0
4436,941,21878,0,0,0
4366,911,21777,0,0,0
4288,879,21667,0,0,0
4213,852,21559,0,0,0
4140,830,21456,0,0,0
4060,806,21349,0,0,0
3979,780,21241,0,0,0
3916,757,21151,0,0,0
3881,741,21095,0,0,0
3875,732,21075,0,0,0
3906,733,21106,0,0,0
3990,757,21209,0,0,0
4135,807,21392,0,0,0
4326,877,21646,0,0,0
4558,961,21965,0,0,0
4834,1062,22355,0,0,0
5149,1180,22806,0,0,0
5487,1306,23295,0,0,0
5841,1437,23811,0,0,0
6205,1574,24347,0,0,0
6566,1712,24887,0,0,0
6910,1844,25408,0,0,0
7234,1966,25899,0,0,0
7538,2081,26362,0,0,0
7814,2186,26782,0,0,0
8051,2275,27141,0,0,0
8249,2349,27441,0,0,0
8414,2412,27692,0,0,0
8541,2463,27889,0,0,0
8626,2497,28027,0,0,0
8679,2519,28115,0,0,0
8708,2532,28162,0,0,0
8711,2534,28170,0,0,0
8686,2525,28137,0,0,0
8636,2510,28074,0,0,0
8571,2489,27988,0,0,0
8489,2459,27876,0,0,0
8389,2421,27735,0,0,0
8280,2380,27580,0,0,0
8167,2339,27420,0,0,0
8045,2294,27247,0,0,0
7914,2244,27062,0,0,0
7784,2195,26877,0,0,0
7659,2152,26699,0,0,0
7536,2112,26524,0,0,0
7417,2071,26356,0,0,0
7309,2030,26203,0,0,0
7214,1994,26067,0,0,0
7123,1958,25937,0,0,0
7036,1922,25811,0,0,0
6961,1894,25697,0,0,0
6895,1870,25594,0,0,0
6833,1846,25493,0,0,0
6775,1823,25394,0,0,0
6725,1805,25308,0,0,0
6675,1788,25232,0,0,0
6624,1769,25161,0,0,0
6580,1751,25095,0,0,0
6548,1737,25044,0,0,0
6522,1731,25009,0,0,0
6499,1728,24981,0,0,0
6484,1727,24965,0,0,0
6485,1730,24975,0,0,0
6499,1738,24999,0,0,0
6515,1745,25020,0,0,0
6534,1754,25042,0,0,0
6563,1767,25081,0,0,0
6598,1782,25129,0,0,0
6633,1793,25175,0,0,0
6671,1805,25226,0,0,0
6715,1822,25289,0,0,0
6762,1844,25358,0,0,0
6807,1866,25421,0,0,0
6854,1890,25485,0,0,0
6904,1917,25556,0,0,0
6948,1942,25626,0,0,0
6983,1961,25686,0,0,0
7016,1974,25742,0,0,0
7049,1985,25798,0,0,0
7074,1991,25843,0,0,0
7089,1990,25866,0,0,0
7101,1987,25878,0,0,0
7111,1984,25885,0,0,0
7107,1976,25875,0,0,0
7089,1961,25843,0,0,0
7065,1945,25800,0,0,0
7036,1931,25751,0,0,0
6995,1912,25683,0,0,0
6941,1889,25593,0,0,0
6879,1867,25493,0,0,0
6810,1847,25391,0,0,0
6731,1822,25278,0,0,0
6645,1791,25153,0,0,0
6559,1758,25027,0,0,0
6473,1726,24900,0,0,0
6384,1691,24765,0,0,0
6296,1657,24631,0,0,0
6215,1630,24506,0,0,0
6136,1603,24389,0,0,0
6052,1573,24273,0,0,0
5968,1541,24160,0,0,0
5891,1512,24060,0,0,0
5822,1485,23972,0,0,0
5755,1458,23882,0,0,0
5693,1432,23792,0,0,0
5639,1414,23713,0,0,0
5588,1401,23640,0,0,0
5532,1387,23560,0,0,0
5478,1372,23476,0,0,0
5427,1359,23399,0,0,0
5374,1341,23321,0,0,0
5312,1314,23234,0,0,0
5247,1285,23146,0,0,0
5184,1261,23070,0,0,0
5123,1241,22999,0,0,0
5061,1219,22923,0,0,0
5006,1197,22845,0,0,0
4955,1174,22770,0,0,0
4901,1150,22689,0,0,0
4844,1123,22601,0,0,0
4788,1101,22514,0,0,0
4736,1083,22436,0,0,0
4683,1065,22356,0,0,0
4629,1044,22272,0,0,0
4585,1024,22201,0,0,0
4555,1011,22154,0,0,0
4540,1006,22132,0,0,0
4554,1010,22143,0,0,0
4613,1030,22214,0,0,0
4726,1069,22361,0,0,0
4885,1124,22578,0,0,0
5090,1196,22861,0,0,0
5347,1290,23218,0,0,0
5648,1404,23644,0,0,0
5977,1531,24117,0,0,0
6326,1666,24623,0,0,0
6692,1810,25164,0,0,0
7064,1956,25725,0,0,0
7429,2099,26285,0,0,0
7789,2239,26834,0,0,0
8141,2378,27365,0,0,0
8472,2509,27866,0,0,0
8769,2626,28317,0,0,0
9031,2728,28712,0,0,0
9261,2821,29055,0,0,0
9452,2899,29339,0,0,0
9597,2957,29553,0,0,0
9696,2999,29697,0,0,0
9757,3030,29783,0,0,0
9781,3046,29818,0,0,0
9764,3042,29800,0,0,0
9715,3023,29736,0,0,0
9647,2998,29637,0,0,0
9556,2962,29506,0,0,0
9438,2913,29340,0,0,0
9308,2858,29153,0,0,0
9176,2804,28959,0,0,0
9040,2749,28760,0,0,0
8901,2694,28552,0,0,0
8765,2643,28351,0,0,0
8637,2596,28160,0,0,0
8512,2551,27973,0,0,0
8391,2505,27789,0,0,0
8281,2461,27620,0,0,0
8180,2419,27474,0,0,0
8082,2376,27338,0,0,0
7988,2336,27206,0,0,0
7907,2304,27090,0,0,0
7841,2280,26989,0,0,0
7780,2258,26890,0,0,0
7718,2234,26787,0,0,0
7659,2214,26692,0,0,0
7604,2196,26603,0,0,0
7543,2177,26509,0,0,0
7481,2153,26412,0,0,0
7426,2132,26329,0,0,0
7377,2114,26264,0,0,0
7330,2099,26209,0,0,0
7289,2086,26163,0,0,0
7260,2080,26131,0,0,0
7243,2078,26117,0,0,0
7234,2075,26109,0,0,0
7238,2076,26111,0,0,0
7260,2086,26133,0,0,0
7296,2102,26171,0,0,0
7334,2115,26211,0,0,0
7377,2125,26255,0,0,0
7426,2142,26313,0,0,0
7473,2159,26379,0,0,0
7515,2171,26437,0,0,0
7556,2185,26493,0,0,0
7598,2205,26555,0,0,0
7635,2224,26617,0,0,0
7667,2238,26672,0,0,0
7700,2249,26722,0,0,0
7733,2259,26770,0,0,0
7757,2267,26804,0,0,0
7767,2269,26817,0,0,0
7764,2266,26813,0,0,0
7751,2260,26798,0,0,0
7727,2252,26764,0,0,0
7689,2237,26708,0,0,0
7642,2219,26643,0,0,0
7589,2200,26578,0,0,0
7527,2178,26498,0,0,0
7456,2150,26399,0,0,0
7383,2121,26295,0,0,0
7311,2095,26197,0,0,0
7237,2068,26097,0,0,0
7161,2037,25989,0,0,0
7087,2008,25884,0,0,0
7010,1980,25783,0,0,0
6928,1951,25678,0,0,0
6845,1921,25565,0,0,0
6769,1892,25449,0,0,0
6697,1867,25332,0,0,0
6618,1838,25206,0,0,0
6534,1807,25070,0,0,0
6451,1779,24938,0,0,0
6370,1750,24811,0,0,0
6285,1716,24675,0,0,0
6197,1678,24531,0,0,0
6109,1641,24391,0,0,0
6019,1607,24255,0,0,0
5924,1569,24117,0,0,0
5829,1531,23984,0,0,0
5744,1498,23871,0,0,0
5667,1470,23769,0,0,0
5593,1443,23665,0,0,0
5524,1419,23567,0,0,0
5464,1399,23486,0,0,0
5408,1381,23413,0,0,0
5351,1361,23336,0,0,0
5299,1342,23261,0,0,0
5253,1324,23192,0,0,0
5203,1306,23121,0,0,0
5146,1283,23041,0,0,0
5090,1261,22962,0,0,0
5037,1240,22887,0,0,0
4982,1217,22807,0,0,0
4924,1191,22717,0,0,0
4865,1168,22625,0,0,0
4807,1149,22538,0,0,0
4742,1129,22448,0,0,0
4670,1106,22353,0,0,0
4604,1088,22267,0,0,0
4550,1075,22197,0,0,0
4500,1062,22133,0,0,0
4459,1048,22078,0,0,0
4446,1045,22053,0,0,0
4474,1058,22080,0,0,0
4541,1084,22161,0,0,0
4651,1124,22307,0,0,0
4817,1185,22534,0,0,0
5038,1268,22841,0,0,0
5306,1366,23213,0,0,0
5612,1478,23642,0,0,0
5955,1605,24126,0,0,0
6321,1745,24655,0,0,0
6698,1889,25207,0,0,0
7080,2035,25766,0,0,0
7463,2182,26327,0,0,0
7835,2327,26875,0,0,0
8182,2462,27388,0,0,0
8499,2586,27859,0,0,0
8787,2699,28291,0,0,0
9040,2800,28671,0,0,0
9245,2881,28980,0,0,0
9400,2943,29222,0,0,0
9512,2993,29405,0,0,0
9578,3027,29522,0,0,0
9596,3040,29566,0,0,0
9575,3036,29550,0,0,0
9524,3022,29489,0,0,0
9445,2997,29388,0,0,0
9338,2962,29250,0,0,0
9216,2919,29088,0,0,0
9089,2875,28918,0,0,0
8954,2826,28734,0,0,0
8809,2771,28530,0,0,0
8666,2714,28323,0,0,0
8527,2658,28126,0,0,0
8389,2602,27934,0,0,0
8250,2544,27739,0,0,0
8120,2491,27554,0,0,0
8004,2447,27389,0,0,0
7902,2410,27234,0,0,0
7807,2374,27081,0,0,0
7722,2340,26943,0,0,0
7647,2310,26821,0,0,0
7571,2281,26704,0,0,0
7493,2252,26586,0,0,0
7417,2226,26476,0,0,0
7346,2202,26373,0,0,0
7272,2175,26269,0,0,0
7193,2144,26160,0,0,0
7115,2116,26053,0,0,0
7042,2090,25953,0,0,0
6975,2062,25851,0,0,0
6911,2035,25756,0,0,0
6862,2017,25690,0,0,0
6831,2011,25653,0,0,0
6810,2008,25629,0,0,0
6799,2007,25617,0,0,0
6808,2012,25631,0,0,0
6831,2023,25666,0,0,0
6860,2036,25707,0,0,0
6896,2052,25760,0,0,0
6946,2074,25830,0,0,0
7004,2098,25906,0,0,0
7066,2118,25983,0,0,0
7132,2136,26066,0,0,0
7199,2157,26160,0,0,0
7263,2179,26254,0,0,0
7320,2198,26337,0,0,0
7373,2214,26409,0,0,0
7423,2230,26477,0,0,0
7462,2243,26536,0,0,0
7484,2250,26575,0,0,0
7496,2252,26600,0,0,0
7502,2254,26617,0,0,0
7493,2255,26616,0,0,0
7466,2248,26590,0,0,0
7425,2237,26548,0,0,0
7376,2221,26497,0,0,0
7319,2200,26427,0,0,0
7253,2173,26333,0,0,0
7182,2144,26228,0,0,0
7110,2118,26120,0,0,0
7031,2090,26001,0,0,0
6945,2058,25868,0,0,0
6861,2026,25731,0,0,0
6778,1996,25597,0,0,0
6692,1965,25457,0,0,0
6604,1933,25311,0,0,0
6519,1903,25173,0,0,0
6440,1873,25047,0,0,0
6353,1838,24923,0,0,0
6260,1798,24795,0,0,0
6169,1762,24671,0,0,0
6083,1730,24549,0,0,0
5993,1694,24419,0,0,0
5901,1655,24284,0,0,0
5816,1620,24161,0,0,0
5739,1585,24047,0,0,0
5661,1548,23930,0,0,0
5583,1509,23808,0,0,0
5510,1477,23690,0,0,0
5440,1449,23580,0,0,0
5367,1418,23471,0,0,0
5295,1386,23365,0,0,0
5228,1360,23269,0,0,0
5159,1336,23178,0,0,0
5087,1312,23082,0,0,0
5015,1288,22983,0,0,0
4944,1267,22890,0,0,0
4876,1245,22796,0,0,0
4803,1221,22693,0,0,0
4728,1196,22587,0,0,0
4658,1172,22488,0,0,0
4586,1146,22388,0,0,0
4509,1115,22278,0,0,0
4435,1086,22168,0,0,0
4372,1064,22072,0,0,0
4310,1043,21980,0,0,0
4248,1017,21886,0,0,0
4196,994,21805,0,0,0
4163,981,21751,0,0,0
4153,977,21728,0,0,0
4171,983,21744,0,0,0
4232,1006,21823,0,0,0
4343,1049,21979,0,0,0
4505,1111,22204,0,0,0
4716,1190,22491,0,0,0
4974,1288,22846,0,0,0
5269,1403,23265,0,0,0
5591,1526,23727,0,0,0
5931,1655,24221,0,0,0
6292,1790,24745,0,0,0
6664,1929,25287,0,0,0
7025,2063,25821,0,0,0
7368,2193,26333,0,0,0
7690,2321,26823,0,0,0
7985,2442,27277,0,0,0
8241,2545,27675,0,0,0
8458,2631,28014,0,0,0
8636,2702,28299,0,0,0
8771,2756,28523,0,0,0
8854,2788,28675,0,0,0
8894,2802,28762,0,0,0
8904,2805,28796,0,0,0
8883,2798,28781,0,0,0
8828,2779,28713,0,0,0
8745,2749,28604,0,0,0
8644,2716,28468,0,0,0
8527,2678,28305,0,0,0
8392,2631,28112,0,0,0
8247,2579,27903,0,0,0
8102,2527,27690,0,0,0
7954,2473,27472,0,0,0
7800,2415,27244,0,0,0
7647,2359,27018,0,0,0
7503,2308,26808,0,0,0
7365,2260,26607,0,0,0
7229,2210,26410,0,0,0
7103,2160,26224,0,0,0
6987,2114,26051,0,0,0
6873,2066,25883,0,0,0
6760,2019,25714,0,0,0
6658,1977,25554,0,0,0
6564,1940,25406,0,0,0
6471,1904,25260,0,0,0
6380,1866,25114,0,0,0
6296,1831,24981,0,0,0
6217,1802,24865,0,0,0
6140,1773,24757,0,0,0
6069,1746,24659,0,0,0
6013,1727,24582,0,0,0
5976,1719,24527,0,0,0
5949,1713,24483,0,0,0
5933,1709,24449,0,0,0
5936,1712,24438,0,0,0
5952,1719,24452,0,0,0
5971,1726,24475,0,0,0
5997,1733,24511,0,0,0
6039,1745,24569,0,0,0
6091,1761,24649,0,0,0
6146,1777,24734,0,0,0
6207,1795,24822,0,0,0
6274,1816,24921,0,0,0
6339,1837,25027,0,0,0
6398,1856,25126,0,0,0
6455,1877,25218,0,0,0
6515,1902,25311,0,0,0
6570,1927,25392,0,0,0
6609,1945,25452,0,0,0
6639,1959,25497,0,0,0
6663,1973,25541,0,0,0
6679,1986,25571,0,0,0
6679,1991,25575,0,0,0
6669,1990,25561,0,0,0
6653,1985,25536,0,0,0
6626,1975,25498,0,0,0
6584,1957,25438,0,0,0
6535,1935,25365,0,0,0
6481,1912,25288,0,0,0
6420,1889,25202,0,0,0
6353,1862,25105,0,0,0
6290,1834,25007,0,0,0
6229,1807,24912,0,0,0
6159,1775,24812,0,0,0
6081,1737,24699,0,0,0
6005,1702,24582,0,0,0
5932,1672,24467,0,0,0
5849,1640,24342,0,0,0
5750,1605,24206,0,0,0
5652,1571,24071,0,0,0
5560,1540,23939,0,0,0
5466,1510,23803,0,0,0
5371,1480,23668,0,0,0
5280,1455,23541,0,0,0
5191,1430,23422,0,0,0
5103,1402,23302,0,0,0
5024,1372,23183,0,0,0
4957,1346,23077,0,0,0
4894,1320,22980,0,0,0
4830,1292,22881,0,0,0
4767,1264,22778,0,0,0
4709,1241,22682,0,0,0
4648,1216,22587,0,0,0
4580,1185,22483,0,0,0
4510,1152,22377,0,0,0
4447,1126,22280,0,0,0
4385,1102,22189,0,0,0
4316,1072,22093,0,0,0
4244,1042,21998,0,0,0
4177,1018,21912,0,0,0
4113,997,21830,0,0,0
4049,977,21746,0,0,0
3992,959,21673,0,0,0
3952,949,21626,0,0,0
3930,944,21601,0,0,0
3931,944,21602,0,0,0
3968,958,21650,0,0,0
4054,991,21765,0,0,0
4191,1042,21951,0,0,0
4381,1110,22208,0,0,0
4627,1200,22547,0,0,0
4926,1311,22961,0,0,0
5259,1434,23431,0,0,0
5618,1565,23943,0,0,0
6001,1706,24496,0,0,0
6400,1859,25081,0,0,0
6797,2013,25674,0,0,0
7184,2165,26254,0,0,0
7561,2317,26820,0,0,0
7917,2465,27363,0,0,0
8241,2599,27861,0,0,0
8530,2715,28305,0,0,0
8783,2819,28697,0,0,0
8996,2910,29032,0,0,0
9161,2980,29297,0,0,0
9282,3030,29491,0,0,0
9362,3064,29620,0,0,0
9397,3079,29682,0,0,0
9385,3073,29676,0,0,0
9336,3053,29611,0,0,0
9263,3025,29506,0,0,0
9168,2991,29368,0,0,0
9048,2948,29194,0,0,0
8913,2898,28998,0,0,0
8775,2847,28797,0,0,0
8636,2794,28589,0,0,0
8494,2736,28369,0,0,0
8356,2676,28151,0,0,0
8227,2621,27947,0,0,0
8109,2568,27754,0,0,0
7997,2516,27563,0,0,0
7892,2466,27381,0,0,0
7795,2423,27217,0,0,0
7701,2381,27064,0,0,0
7602,2338,26913,0,0,0
7506,2297,26771,0,0,0
7420,2263,26645,0,0,0
7337,2231,26522,0,0,0
7251,2195,26392,0,0,0
7168,2158,26261,0,0,0
7090,2127,26139,0,0,0
7012,2099,26020,0,0,0
6937,2072,25905,0,0,0
6870,2051,25805,0,0,0
6817,2035,25725,0,0,0
6774,2022,25655,0,0,0
6741,2011,25598,0,0,0
6723,2005,25564,0,0,0
6722,2005,25552,0,0,0
6727,2006,25554,0,0,0
6738,2010,25565,0,0,0
6761,2019,25594,0,0,0
6793,2033,25640,0,0,0
6829,2048,25694,0,0,0
6871,2061,25754,0,0,0
6922,2077,25827,0,0,0
6980,2097,25909,0,0,0
7037,2116,25991,0,0,0
7091,2133,26070,0,0,0
7151,2155,26158,0,0,0
7213,2182,26253,0,0,0
7265,2206,26338,0,0,0
7309,2227,26413,0,0,0
7353,2249,26487,0,0,0
7391,2270,26550,0,0,0
7413,2282,26591,0,0,0
7421,2287,26611,0,0,0
7428,2292,26617,0,0,0
7426,2294,26610,0,0,0
7405,2288,26582,0,0,0
7373,2273,26540,0,0,0
7335,2254,26491,0,0,0
7287,2229,26429,0,0,0
7229,2200,26350,0,0,0
7168,2172,26264,0,0,0
7105,2147,26179,0,0,0
7037,2121,26088,0,0,0
6961,2089,25986,0,0,0
6883,2057,25879,0,0,0
6806,2028,25777,0,0,0
6724,1999,25669,0,0,0
6637,1968,25549,0,0,0
6554,1938,25432,0,0,0
6477,1912,25325,0,0,0
6403,1886,25216,0,0,0
6329,1859,25100,0,0,0
6260,1832,24987,0,0,0
6198,1808,24885,0,0,0
6131,1781,24786,0,0,0
6060,1751,24680,0,0,0
5992,1724,24576,0,0,0
5929,1703,24478,0,0,0
5863,1682,24378,0,0,0
5796,1658,24277,0,0,0
5735,1634,24180,0,0,0
5677,1610,24086,0,0,0
5612,1583,23984,0,0,0
5544,1554,23880,0,0,0
5478,1528,23787,0,0,0
5412,1506,23701,0,0,0
5343,1482,23611,0,0,0
5276,1454,23519,0,0,0
5216,1427,23438,0,0,0
5159,1404,23364,0,0,0
5102,1382,23288,0,0,0
5050,1361,23212,0,0,0
5014,1344,23155,0,0,0
4996,1336,23121,0,0,0
4998,1334,23112,0,0,0
5028,1343,23142,0,0,0
5102,1370,23234,0,0,0
5225,1417,23397,0,0,0
5395,1480,23627,0,0,0
5618,1562,23934,0,0,0
5898,1667,24323,0,0,0
6223,1791,24781,0,0,0
6580,1927,25291,0,0,0
6968,2078,25849,0,0,0
7383,2246,26452,0,0,0
7808,2420,27081,0,0,0
8231,2592,27714,0,0,0
8647,2763,28342,0,0,0
9050,2933,28954,0,0,0
9426,3092,29527,0,0,0
9767,3232,30044,0,0,0
10074,3358,30508,0,0,0
10341,3469,30914,0,0,0
10558,3561,31247,0,0,0
10724,3632,31507,0,0,0
10841,3685,31701,0,0,0
10912,3719,31831,0,0,0
10937,3733,31890,0,0,0
10924,3726,31881,0,0,0
10880,3704,31826,0,0,0
10812,3671,31738,0,0,0
10718,3628,31609,0,0,0
10604,3579,31449,0,0,0
10482,3530,31276,0,0,0
10356,3482,31095,0,0,0
10224,3428,30895,0,0,0
10088,3372,30684,0,0,0
9957,3319,30481,0,0,0
9836,3271,30291,0,0,0
9718,3224,30103,0,0,0
9605,3179,29923,0,0,0
9504,3141,29762,0,0,0
9416,3110,29618,0,0,0
9333,3080,29481,0,0,0
9258,3052,29360,0,0,0
9195,3029,29263,0,0,0
9140,3009,29177,0,0,0
9086,2984,29085,0,0,0
9032,2955,28993,0,0,0
8981,2929,28904,0,0,0
8928,2905,28817,0,0,0
8870,2879,28730,0,0,0
8814,2856,28652,0,0,0
8769,2842,28588,0,0,0
8728,2829,28529,0,0,0
8690,2814,28473,0,0,0
8663,2802,28429,0,0,0
8652,2797,28399,0,0,0
8647,2796,28377,0,0,0
8645,2795,28355,0,0,0
8651,2799,28348,0,0,0
8665,2808,28360,0,0,0
8677,2816,28378,0,0,0
8683,2817,28396,0,0,0
8697,2821,28426,0,0,0
8722,2831,28472,0,0,0
8748,2841,28520,0,0,0
8774,2848,28566,0,0,0
8807,2859,28620,0,0,0
8849,2875,28683,0,0,0
8890,2891,28740,0,0,0
8923,2903,28790,0,0,0
8954,2917,28840,0,0,0
8986,2933,28889,0,0,0
9012,2942,28925,0,0,0
9029,2946,28944,0,0,0
9040,2949,28958,0,0,0
9040,2951,28965,0,0,0
9023,2947,28949,0,0,0
8995,2937,28910,0,0,0
8961,2926,28863,0,0,0
8918,2912,28804,0,0,0
8860,2891,28720,0,0,0
8792,2863,28620,0,0,0
8721,2831,28516,0,0,0
8646,2797,28409,0,0,0
8558,2757,28288,0,0,0
8465,2713,28156,0,0,0
8376,2673,28026,0,0,0
8287,2634,27891,0,0,0
8189,2590,27738,0,0,0
8087,2544,27579,0,0,0
7991,2504,27429,0,0,0
7895,2464,27279,0,0,0
7794,2420,27123,0,0,0
7696,2378,26972,0,0,0
7605,2342,26831,0,0,0
7514,2309,26693,0,0,0
7421,2274,26552,0,0,0
7329,2242,26417,0,0,0
7244,2216,26292,0,0,0
7159,2190,26170,0,0,0
7075,2162,26043,0,0,0
6996,2134,25925,0,0,0
6923,2107,25815,0,0,0
6850,2079,25703,0,0,0
6775,2047,25587,0,0,0
6704,2014,25478,0,0,0
6638,1983,25376,0,0,0
6568,1950,25272,0,0,0
6495,1915,25160,0,0,0
6427,1881,25056,0,0,0
6363,1850,24959,0,0,0
6290,1818,24852,0,0,0
6210,1784,24735,0,0,0
6137,1752,24620,0,0,0
6072,1726,24512,0,0,0
6005,1701,24404,0,0,0
5941,1676,24299,0,0,0
5891,1658,24219,0,0,0
5857,1646,24167,0,0,0
5840,1641,24144,0,0,0
5855,1648,24168,0,0,0
5923,1678,24268,0,0,0
6045,1727,24449,0,0,0
6221,1792,24704,0,0,0
6454,1878,25039,0,0,0
6742,1987,25457,0,0,0
7077,2116,25947,0,0,0
7443,2259,26488,0,0,0
7837,2415,27071,0,0,0
8257,2582,27690,0,0,0
8682,2752,28320,0,0,0
9096,2916,28939,0,0,0
9496,3075,29541,0,0,0
9879,3230,30119,0,0,0
10230,3375,30650,0,0,0
10536,3500,31116,0,0,0
10800,3610,31518,0,0,0
11024,3704,31860,0,0,0
11197,3780,32133,0,0,0
11315,3832,32328,0,0,0
11394,3870,32459,0,0,0
11441,3897,32536,0,0,0
11450,3906,32553,0,0,0
11420,3895,32510,0,0,0
11362,3872,32427,0,0,0
11284,3844,32315,0,0,0
11183,3805,32172,0,0,0
11065,3760,32002,0,0,0
10943,3715,31819,0,0,0
10819,3670,31630,0,0,0
10688,3618,31432,0,0,0
10554,3560,31228,0,0,0
10425,3502,31032,0,0,0
10301,3446,30848,0,0,0
10182,3390,30673,0,0,0
10073,3338,30511,0,0,0
9977,3295,30369,0,0,0
9889,3261,30240,0,0,0
9803,3229,30115,0,0,0
9725,3199,29997,0,0,0
9658,3176,29895,0,0,0
9600,3157,29804,0,0,0
9541,3136,29711,0,0,0
9481,3113,29619,0,0,0
9431,3094,29535,0,0,0
9383,3076,29453,0,0,0
9330,3053,29363,0,0,0
9276,3031,29274,0,0,0
9229,3013,29198,0,0,0
9186,2995,29130,0,0,0
9142,2972,29064,0,0,0
9107,2953,29010,0,0,0
9090,2942,28976,0,0,0
9080,2935,28953,0,0,0
9070,2929,28931,0,0,0
9069,2930,28922,0,0,0
9086,2939,28935,0,0,0
9110,2950,28962,0,0,0
9134,2957,28994,0,0,0
9163,2967,29033,0,0,0
9198,2981,29085,0,0,0
9234,2998,29145,0,0,0
9271,3013,29210,0,0,0
9314,3033,29281,0,0,0
9360,3058,29358,0,0,0
9401,3083,29428,0,0,0
9438,3103,29484,0,0,0
9473,3121,29531,0,0,0
9503,3135,29570,0,0,0
9521,3140,29596,0,0,0
9529,3138,29608,0,0,0
9531,3135,29614,0,0,0
9526,3129,29614,0,0,0
9505,3116,29592,0,0,0
9471,3095,29544,0,0,0
9427,3071,29480,0,0,0
9375,3046,29404,0,0,0
9311,3016,29310,0,0,0
9237,2984,29203,0,0,0
9165,2956,29095,0,0,0
9095,2929,28982,0,0,0
9018,2898,28856,0,0,0
8939,2865,28728,0,0,0
8862,2837,28610,0,0,0
8781,2810,28494,0,0,0
8688,2778,28367,0,0,0
8592,2742,28235,0,0,0
8505,2707,28108,0,0,0
8421,2673,27980,0,0,0
8333,2636,27840,0,0,0
8244,2599,27698,0,0,0
8162,2565,27566,0,0,0
8080,2529,27434,0,0,0
7992,2485,27296,0,0,0
7904,2443,27165,0,0,0
7823,2406,27049,0,0,0
7745,2372,26935,0,0,0
7664,2340,26817,0,0,0
7587,2310,26702,0,0,0
7514,2284,26595,0,0,0
7438,2256,26490,0,0,0
7360,2226,26383,0,0,0
7287,2197,26282,0,0,0
7221,2171,26191,0,0,0
7155,2147,26101,0,0,0
7086,2120,26006,0,0,0
7022,2093,25916,0,0,0
6961,2070,25833,0,0,0
6895,2047,25746,0,0,0
6827,2023,25648,0,0,0
6768,2001,25556,0,0,0
6717,1978,25473,0,0,0
6667,1952,25392,0,0,0
6620,1927,25311,0,0,0
6584,1908,25242,0,0,0
6556,1896,25186,0,0,0
6521,1886,25130,0,0,0
6482,1874,25074,0,0,0
6452,1864,25029,0,0,0
6431,1854,24992,0,0,0
6406,1843,24950,0,0,0
6372,1829,24900,0,0,0
6340,1816,24852,0,0,0
6309,1803,24805,0,0,0
6272,1786,24747,0,0,0
6231,1768,24682,0,0,0
6190,1755,24624,0,0,0
6145,1742,24562,0,0,0
6091,1723,24487,0,0,0
6038,1701,24411,0,0,0
6001,1687,24355,0,0,0
5984,1682,24321,0,0,0
5987,1683,24316,0,0,0
6029,1698,24368,0,0,0
6128,1737,24499,0,0,0
6284,1799,24707,0,0,0
6490,1877,24986,0,0,0
6748,1975,25344,0,0,0
7057,2095,25785,0,0,0
7404,2228,26290,0,0,0
7778,2368,26838,0,0,0
8178,2516,27427,0,0,0
8599,2678,28046,0,0,0
9017,2844,28669,0,0,0
9420,3006,29275,0,0,0
9808,3164,29861,0,0,0
10175,3315,30414,0,0,0
10505,3452,30915,0,0,0
10790,3570,31353,0,0,0
11033,3672,31731,0,0,0
11228,3758,32042,0,0,0
11371,3820,32274,0,0,0
11465,3857,32429,0,0,0
11518,3879,32521,0,0,0
11533,3886,32555,0,0,0
11509,3875,32530,0,0,0
11456,3848,32452,0,0,0
11383,3815,32340,0,0,0
11289,3777,32201,0,0,0
11176,3730,32037,0,0,0
11051,3678,31857,0,0,0
10929,3628,31674,0,0,0
10804,3578,31483,0,0,0
10669,3524,31280,0,0,0
10530,3468,31073,0,0,0
10398,3416,30876,0,0,0
10273,3365,30686,0,0,0
10149,3314,30497,0,0,0
10035,3264,30315,0,0,0
9934,3220,30148,0,0,0
9839,3177,29991,0,0,0
9745,3134,29836,0,0,0
9659,3094,29690,0,0,0
9581,3061,29565,0,0,0
9507,3031,29448,0,0,0
9433,2999,29328,0,0,0
9366,2967,29212,0,0,0
9307,2942,29107,0,0,0
9248,2917,29003,0,0,0
9185,2891,28897,0,0,0
9129,2868,28802,0,0,0
9082,2852,28724,0,0,0
9038,2837,28654,0,0,0
8994,2821,28591,0,0,0
8959,2809,28547,0,0,0
8938,2802,28524,0,0,0
8922,2794,28510,0,0,0
8914,2785,28500,0,0,0
8923,2783,28510,0,0,0
8949,2790,28540,0,0,0
8977,2797,28579,0,0,0
9007,2804,28625,0,0,0
9049,2819,28688,0,0,0
9100,2844,28765,0,0,0
9150,2873,28840,0,0,0
9201,2899,28908,0,0,0
9259,2926,28983,0,0,0
9320,2954,29063,0,0,0
9370,2976,29133,0,0,0
9407,2992,29189,0,0,0
9441,3008,29240,0,0,0
9467,3021,29282,0,0,0
9478,3022,29304,0,0,0
9476,3015,29308,0,0,0
9466,3010,29303,0,0,0
9444,3003,29284,0,0,0
9407,2991,29243,0,0,0
9361,2976,29186,0,0,0
9316,2959,29119,0,0,0
9266,2939,29041,0,0,0
9207,2911,28949,0,0,0
9143,2879,28849,0,0,0
9082,2851,28751,0,0,0
9016,2820,28647,0,0,0
8939,2782,28527,0,0,0
8854,2745,28400,0,0,0
8768,2712,28275,0,0,0
8674,2679,28146,0,0,0
8568,2640,28004,0,0,0
8463,2601,27865,0,0,0
8370,2564,27733,0,0,0
8282,2527,27592,0,0,0
8189,2485,27440,0,0,0
8096,2447,27293,0,0,0
8009,2415,27156,0,0,0
7921,2381,27020,0,0,0
7832,2344,26880,0,0,0
7747,2309,26745,0,0,0
7663,2275,26616,0,0,0
7577,2239,26484,0,0,0
7491,2203,26353,0,0,0
7411,2170,26233,0,0,0
7332,2141,26124,0,0,0
7248,2110,26014,0,0,0
7164,2075,25899,0,0,0
7091,2042,25791,0,0,0
7026,2013,25693,0,0,0
6959,1985,25598,0,0,0
6894,1958,25504,0,0,0
6839,1936,25419,0,0,0
6788,1916,25340,0,0,0
6734,1893,25253,0,0,0
6677,1868,25168,0,0,0
6625,1847,25098,0,0,0
6579,1827,25037,0,0,0
6527,1805,24968,0,0,0
6474,1782,24892,0,0,0
6426,1764,24823,0,0,0
6378,1747,24756,0,0,0
6320,1726,24680,0,0,0
6263,1701,24603,0,0,0
6218,1679,24537,0,0,0
6177,1658,24473,0,0,0
6132,1634,24402,0,0,0
6088,1611,24335,0,0,0
6050,1596,24281,0,0,0
6015,1584,24235,0,0,0
5979,1572,24188,0,0,0
5950,1563,24150,0,0,0
5930,1557,24121,0,0,0
5909,1551,24090,0,0,0
5883,1541,24050,0,0,0
5858,1531,24013,0,0,0
5838,1523,23982,0,0,0
5814,1512,23944,0,0,0
5782,1498,23893,0,0,0
5749,1481,23838,0,0,0
5714,1463,23780,0,0,0
5670,1441,23710,0,0,0
5616,1415,23630,0,0,0
5561,1391,23549,0,0,0
5505,1370,23468,0,0,0
5441,1347,23376,0,0,0
5367,1317,23270,0,0,0
5295,1288,23164,0,0,0
5224,1264,23063,0,0,0
5148,1236,22953,0,0,0
5069,1204,22832,0,0,0
4992,1172,22714,0,0,0
4912,1143,22599,0,0,0
4828,1110,22483,0,0,0
4750,1079,22378,0,0,0
4697,1061,22310,0,0,0
4681,1058,22290,0,0,0
4707,1068,22324,0,0,0
4788,1095,22431,0,0,0
4941,1146,22632,0,0,0
5160,1222,22920,0,0,0
5432,1317,23279,0,0,0
5750,1430,23701,0,0,0
6104,1563,24180,0,0,0
6477,1707,24701,0,0,0
6856,1852,25243,0,0,0
7236,1998,25796,0,0,0
7613,2143,26352,0,0,0
7976,2282,26891,0,0,0
8313,2410,27394,0,0,0
8623,2529,27864,0,0,0
8907,2639,28303,0,0,0
9156,2736,28694,0,0,0
9367,2818,29027,0,0,0
9544,2886,29308,0,0,0
9688,2944,29540,0,0,0
9792,2987,29714,0,0,0
9856,3014,29824,0,0,0
9891,3030,29887,0,0,0
9899,3040,29908,0,0,0
9869,3036,29877,0,0,0
9803,3014,29795,0,0,0
9716,2981,29677,0,0,0
9615,2942,29531,0,0,0
9497,2893,29355,0,0,0
9363,2836,29150,0,0,0
9223,2777,28933,0,0,0
9077,2719,28707,0,0,0
8920,2656,28468,0,0,0
8760,2590,28225,0,0,0
8607,2529,27996,0,0,0
8463,2471,27780,0,0,0
8321,2414,27568,0,0,0
8186,2357,27362,0,0,0
8067,2308,27181,0,0,0
7963,2267,27020,0,0,0
7866,2229,26868,0,0,0
7776,2193,26728,0,0,0
7699,2164,26610,0,0,0
7629,2138,26503,0,0,0
7560,2109,26391,0,0,0
7492,2078,26282,0,0,0
7428,2051,26187,0,0,0
7367,2025,26102,0,0,0
7305,1998,26019,0,0,0
7248,1973,25945,0,0,0
7205,1955,25887,0,0,0
7174,1942,25839,0,0,0
7153,1930,25799,0,0,0
7146,1926,25776,0,0,0
7158,1933,25780,0,0,0
7182,1944,25801,0,0,0
7213,1954,25833,0,0,0
7255,1969,25884,0,0,0
7313,1991,25956,0,0,0
7380,2018,26040,0,0,0
7453,2047,26131,0,0,0
7532,2080,26239,0,0,0
7618,2118,26360,0,0,0
7699,2152,26480,0,0,0
7773,2180,26587,0,0,0
7844,2205,26688,0,0,0
7909,2228,26786,0,0,0
7957,2245,26865,0,0,0
7993,2255,26923,0,0,0
8022,2263,26969,0,0,0
8040,2267,27000,0,0,0
8038,2263,27003,0,0,0
8022,2252,26981,0,0,0
7997,2238,26949,0,0,0
7961,2221,26903,0,0,0
7912,2198,26836,0,0,0
7855,2171,26752,0,0,0
7794,2145,26663,0,0,0
7728,2121,26569,0,0,0
7655,2094,26460,0,0,0
7578,2065,26337,0,0,0
7505,2039,26214,0,0,0
7432,2011,26094,0,0,0
7348,1979,25964,0,0,0
7261,1944,25827,0,0,0
7181,1912,25693,0,0,0
7101,1881,25563,0,0,0
7014,1845,25427,0,0,0
6926,1809,25294,0,0,0
6844,1777,25168,0,0,0
6759,1746,25042,0,0,0
6670,1711,24909,0,0,0
6580,1677,24778,0,0,0
6494,1646,24654,0,0,0
6408,1616,24530,0,0,0
6320,1582,24403,0,0,0
6239,1550,24280,0,0,0
6164,1520,24163,0,0,0
6084,1487,24042,0,0,0
5998,1449,23917,0,0,0
5919,1413,23800,0,0,0
5848,1382,23695,0,0,0
5774,1350,23591,0,0,0
5697,1315,23478,0,0,0
5629,1285,23374,0,0,0
5571,1262,23284,0,0,0
5518,1239,23193,0,0,0
5469,1214,23105,0,0,0
5429,1193,23034,0,0,0
5398,1181,22978,0,0,0
5364,1172,22924,0,0,0
5330,1159,22868,0,0,0
5304,1149,22821,0,0,0
5282,1142,22786,0,0,0
5258,1136,22754,0,0,0
5238,1128,22724,0,0,0
5230,1122,22703,0,0,0
5226,1119,22688,0,0,0
5215,1112,22664,0,0,0
5195,1101,22632,0,0,0
5175,1091,22601,0,0,0
5153,1081,22563,0,0,0
5126,1069,22510,0,0,0
5092,1056,22454,0,0,0
5057,1045,22405,0,0,0
5017,1034,22357,0,0,0
4967,1016,22295,0,0,0
4916,993,22223,0,0,0
4871,970,22152,0,0,0
4821,948,22082,0,0,0
4758,921,22000,0,0,0
4690,896,21914,0,0,0
4628,876,21838,0,0,0
4569,856,21766,0,0,0
4506,836,21690,0,0,0
4455,822,21623,0,0,0
4432,818,21583,0,0,0
4438,821,21579,0,0,0
4478,836,21620,0,0,0
4566,866,21726,0,0,0
4705,915,21907,0,0,0
4886,978,22151,0,0,0
5108,1057,22448,0,0,0
5376,1155,22803,0,0,0
5678,1267,23210,0,0,0
5987,1382,23645,0,0,0
6297,1497,24094,0,0,0
6613,1614,24555,0,0,0
6926,1734,25019,0,0,0
7223,1848,25465,0,0,0
7499,1951,25880,0,0,0
7756,2046,26265,0,0,0
7984,2134,26615,0,0,0
8175,2207,26915,0,0,0
8333,2265,27162,0,0,0
8464,2313,27363,0,0,0
8564,2351,27519,0,0,0
8628,2376,27624,0,0,0
8660,2389,27683,0,0,0
8665,2391,27703,0,0,0
8643,2382,27685,0,0,0
8590,2360,27623,0,0,0
8513,2328,27526,0,0,0
8422,2294,27412,0,0,0
8319,2257,27278,0,0,0
8198,2212,27114,0,0,0
8069,2162,26931,0,0,0
7940,2116,26745,0,0,0
7811,2071,26552,0,0,0
7673,2024,26349,0,0,0
7534,1976,26147,0,0,0
7404,1932,25959,0,0,0
7284,1893,25780,0,0,0
7175,1854,25608,0,0,0
7082,1820,25450,0,0,0
7001,1793,25310,0,0,0
6922,1768,25178,0,0,0
6840,1739,25049,0,0,0
6763,1709,24931,0,0,0
6693,1680,24826,0,0,0
6622,1650,24719,0,0,0
6547,1617,24605,0,0,0
6474,1588,24497,0,0,0
6406,1565,24402,0,0,0
6338,1543,24312,0,0,0
6276,1521,24224,0,0,0
6231,1504,24155,0,0,0
6204,1494,24112,0,0,0
6184,1488,24087,0,0,0
6173,1482,24070,0,0,0
6179,1480,24067,0,0,0
6203,1485,24084,0,0,0
6234,1492,24114,0,0,0
6275,1500,24157,0,0,0
6333,1515,24222,0,0,0
6401,1537,24306,0,0,0
6473,1562,24392,0,0,0
6551,1588,24481,0,0,0
6634,1619,24582,0,0,0
6714,1650,24691,0,0,0
6786,1679,24795,0,0,0
6853,1703,24894,0,0,0
6915,1728,24991,0,0,0
6971,1752,25083,0,0,0
7014,1770,25158,0,0,0
7050,1783,25216,0,0,0
7083,1797,25266,0,0,0
7105,1810,25300,0,0,0
7110,1814,25311,0,0,0
7102,1813,25306,0,0,0
7090,1809,25295,0,0,0
7068,1801,25269,0,0,0
7031,1787,25221,0,0,0
6985,1770,25161,0,0,0
6940,1753,25099,0,0,0
6887,1734,25026,0,0,0
6820,1706,24934,0,0,0
6745,1674,24833,0,0,0
6668,1645,24730,0,0,0
6583,1614,24616,0,0,0
6489,1577,24488,0,0,0
6393,1536,24355,0,0,0
6297,1497,24225,0,0,0
6199,1456,24088,0,0,0
6096,1411,23941,0,0,0
5995,1366,23792,0,0,0
5893,1325,23645,0,0,0
5786,1285,23493,0,0,0
5677,1244,23333,0,0,0
5576,1206,23181,0,0,0
5485,1174,23045,0,0,0
5397,1142,22915,0,0,0
5308,1111,22786,0,0,0
5231,1085,22673,0,0,0
5170,1066,22580,0,0,0
5117,1048,22492,0,0,0
5068,1029,22408,0,0,0
5028,1017,22339,0,0,0
4996,1010,22281,0,0,0
4957,1000,22216,0,0,0
4911,985,22145,0,0,0
4869,969,22076,0,0,0
4823,952,22004,0,0,0
4767,930,21921,0,0,0
4708,904,21830,0,0,0
4653,880,21741,0,0,0
4597,858,21653,0,0,0
4535,834,21555,0,0,0
4470,808,21456,0,0,0
4406,786,21365,0,0,0
4341,764,21276,0,0,0
4271,737,21182,0,0,0
4201,709,21089,0,0,0
4139,683,21006,0,0,0
4082,661,20925,0,0,0
4025,638,20842,0,0,0
3973,616,20768,0,0,0
3934,601,20715,0,0,0
3911,591,20684,0,0,0
3907,588,20678,0,0,0
3940,599,20717,0,0,0
4024,630,20822,0,0,0
4153,678,20989,0,0,0
4327,742,21214,0,0,0
4550,825,21503,0,0,0
4814,925,21855,0,0,0
5103,1034,22247,0,0,0
5409,1147,22667,0,0,0
5732,1266,23116,0,0,0
6061,1387,23584,0,0,0
6378,1502,24050,0,0,0
6680,1612,24499,0,0,0
6970,1720,24933,0,0,0
7243,1824,25343,0,0,0
7490,1919,25715,0,0,0
7709,2000,26042,0,0,0
7899,2072,26329,0,0,0
8057,2134,26572,0,0,0
8176,2181,26762,0,0,0
8262,2215,26900,0,0,0
8319,2241,26991,0,0,0
8345,2255,27036,0,0,0
8335,2253,27030,0,0,0
8292,2236,26983,0,0,0
8227,2212,26911,0,0,0
8144,2186,26810,0,0,0
8040,2150,26671,0,0,0
7925,2109,26506,0,0,0
7808,2069,26333,0,0,0
7684,2028,26150,0,0,0
7545,1979,25954,0,0,0
7405,1928,25755,0,0,0
7276,1882,25568,0,0,0
7154,1840,25390,0,0,0
7033,1796,25213,0,0,0
6923,1754,25043,0,0,0
6829,1715,24887,0,0,0
6740,1676,24737,0,0,0
6650,1635,24592,0,0,0
6568,1598,24459,0,0,0
6496,1568,24341,0,0,0
6429,1540,24229,0,0,0
6364,1513,24117,0,0,0
6305,1487,24015,0,0,0
6247,1466,23923,0,0,0
6180,1443,23830,0,0,0
6107,1418,23733,0,0,0
6042,1396,23645,0,0,0
5987,1379,23571,0,0,0
5933,1362,23500,0,0,0
5880,1342,23432,0,0,0
5841,1328,23384,0,0,0
5820,1325,23361,0,0,0
5809,1327,23348,0,0,0
5809,1328,23344,0,0,0
5830,1336,23363,0,0,0
5868,1350,23402,0,0,0
5912,1365,23451,0,0,0
5960,1382,23507,0,0,0
6018,1403,23578,0,0,0
6079,1427,23657,0,0,0
6137,1450,23735,0,0,0
6196,1471,23818,0,0,0
6263,1495,23914,0,0,0
6332,1520,24012,0,0,0
6391,1539,24100,0,0,0
6440,1554,24180,0,0,0
6484,1573,24257,0,0,0
6519,1592,24327,0,0,0
6541,1604,24378,0,0,0
6557,1612,24413,0,0,0
6575,1624,24440,0,0,0
6589,1635,24451,0,0,0
6591,1637,24438,0,0,0
6583,1630,24415,0,0,0
6568,1617,24392,0,0,0
6543,1600,24357,0,0,0
6506,1580,24303,0,0,0
6465,1563,24238,0,0,0
6424,1551,24174,0,0,0
6373,1534,24102,0,0,0
6312,1509,24016,0,0,0
6251,1483,23924,0,0,0
6190,1460,23833,0,0,0
6121,1438,23736,0,0,0
6045,1414,23629,0,0,0
5974,1391,23529,0,0,0
5907,1372,23437,0,0,0
5836,1349,23340,0,0,0
5764,1322,23237,0,0,0
5699,1296,23138,0,0,0
5642,1273,23046,0,0,0
5582,1250,22951,0,0,0
5516,1225,22854,0,0,0
5453,1203,22769,0,0,0
5397,1185,22695,0,0,0
5338,1166,22617,0,0,0
5273,1144,22532,0,0,0
5211,1125,22450,0,0,0
5149,1106,22368,0,0,0
5082,1084,22276,0,0,0
5015,1060,22178,0,0,0
4953,1038,22085,0,0,0
4892,1017,21994,0,0,0
4827,992,21899,0,0,0
4765,965,21807,0,0,0
4708,942,21726,0,0,0
4651,922,21651,0,0,0
4590,899,21571,0,0,0
4532,876,21490,0,0,0
4480,857,21415,0,0,0
4427,839,21342,0,0,0
4370,819,21265,0,0,0
4320,801,21196,0,0,0
4290,791,21151,0,0,0
4279,785,21134,0,0,0
4295,787,21149,0,0,0
4351,805,21217,0,0,0
4461,845,21357,0,0,0
4621,901,21563,0,0,0
4826,973,21825,0,0,0
5074,1063,22151,0,0,0
5357,1168,22540,0,0,0
5664,1281,22970,0,0,0
5991,1399,23428,0,0,0
6337,1526,23910,0,0,0
6691,1659,24406,0,0,0
7032,1790,24890,0,0,0
7355,1913,25352,0,0,0
7661,2029,25795,0,0,0
7946,2138,26213,0,0,0
8195,2235,26583,0,0,0
8408,2316,26899,0,0,0
8588,2384,27171,0,0,0
8734,2441,27399,0,0,0
8838,2481,27568,0,0,0
8903,2505,27682,0,0,0
8939,2520,27752,0,0,0
8944,2525,27780,0,0,0
8917,2517,27763,0,0,0
8867,2500,27709,0,0,0
8804,2478,27629,0,0,0
8728,2451,27528,0,0,0
8636,2414,27400,0,0,0
8537,2373,27253,0,0,0
8440,2331,27107,0,0,0
8340,2290,26962,0,0,0
8233,2247,26810,0,0,0
8126,2207,26658,0,0,0
8030,2172,26516,0,0,0
7937,2139,26379,0,0,0
7838,2104,26239,0,0,0
7743,2069,26103,0,0,0
7662,2039,25981,0,0,0
7590,2014,25868,0,0,0
7519,1988,25757,0,0,0
7457,1965,25653,0,0,0
7405,1948,25558,0,0,0
7352,1931,25467,0,0,0
7296,1910,25378,0,0,0
7245,1889,25296,0,0,0
7199,1872,25222,0,0,0
7147,1853,25147,0,0,0
7090,1832,25066,0,0,0
7042,1813,24995,0,0,0
7004,1801,24940,0,0,0
6968,1789,24890,0,0,0
6935,1775,24840,0,0,0
6914,1766,24804,0,0,0
6908,1764,24788,0,0,0
6907,1764,24777,0,0,0
6910,1764,24771,0,0,0
6925,1768,24783,0,0,0
6949,1779,24811,0,0,0
6977,1792,24844,0,0,0
7009,1804,24884,0,0,0
7050,1819,24938,0,0,0
7097,1838,25000,0,0,0
7142,1856,25057,0,0,0
7186,1871,25110,0,0,0
7234,1886,25174,0,0,0
7280,1898,25240,0,0,0
7313,1904,25288,0,0,0
7335,1905,25321,0,0,0
7358,1909,25355,0,0,0
7378,1915,25383,0,0,0
7382,1915,25392,0,0,0
7374,1911,25388,0,0,0
7361,1910,25383,0,0,0
7342,1910,25367,0,0,0
7311,1905,25330,0,0,0
7274,1893,25281,0,0,0
7239,1877,25229,0,0,0
7195,1858,25172,0,0,0
7136,1831,25103,0,0,0
7072,1802,25027,0,0,0
7012,1777,24955,0,0,0
6951,1754,24885,0,0,0
6887,1730,24806,0,0,0
6827,1708,24725,0,0,0
6774,1691,24651,0,0,0
6718,1673,24568,0,0,0
6653,1649,24470,0,0,0
6585,1625,24369,0,0,0
6519,1605,24272,0,0,0
6448,1583,24168,0,0,0
6371,1557,24056,0,0,0
6293,1529,23946,0,0,0
6219,1502,23840,0,0,0
6142,1473,23728,0,0,0
6064,1444,23612,0,0,0
5997,1417,23507,0,0,0
5938,1395,23415,0,0,0
5879,1374,23324,0,0,0
5819,1353,23234,0,0,0
5763,1334,23154,0,0,0
5711,1318,23084,0,0,0
5656,1299,23009,0,0,0
5597,1276,22927,0,0,0
5544,1255,22854,0,0,0
5498,1239,22792,0,0,0
5448,1222,22722,0,0,0
5398,1204,22647,0,0,0
5353,1187,22580,0,0,0
5307,1168,22516,0,0,0
5256,1145,22441,0,0,0
5202,1120,22361,0,0,0
5152,1098,22286,0,0,0
5103,1078,22214,0,0,0
5053,1055,22137,0,0,0
5008,1032,22061,0,0,0
4971,1014,21997,0,0,0
4944,1003,21950,0,0,0
4933,1000,21927,0,0,0
4956,1011,21948,0,0,0
5028,1042,22037,0,0,0
5146,1090,22190,0,0,0
5309,1151,22401,0,0,0
5523,1227,22678,0,0,0
5788,1323,23025,0,0,0
6089,1432,23425,0,0,0
6411,1549,23862,0,0,0
6750,1671,24328,0,0,0
7096,1800,24815,0,0,0
7434,1928,25297,0,0,0
7753,2051,25761,0,0,0
8058,2172,26207,0,0,0
8345,2286,26631,0,0,0
8598,2386,27013,0,0,0
8812,2469,27346,0,0,0
8993,2542,27632,0,0,0
9143,2606,27874,0,0,0
9255,2654,28061,0,0,0
9332,2684,28193,0,0,0
9383,2704,28282,0,0,0
9407,2715,28336,0,0,0
9401,2712,28344,0,0,0
9370,2700,28309,0,0,0
9323,2686,28249,0,0,0
9263,2668,28167,0,0,0
9182,2638,28058,0,0,0
9085,2600,27924,0,0,0
8980,2561,27780,0,0,0
8871,2522,27628,0,0,0
8754,2477,27457,0,0,0
8641,2430,27279,0,0,0
8541,2392,27112,0,0,0
8450,2359,26958,0,0,0
8356,2321,26804,0,0,0
8265,2283,26664,0,0,0
8183,2254,26550,0,0,0
8110,2229,26457,0,0,0
8040,2204,26372,0,0,0
7977,2182,26297,0,0,0
7928,2169,26231,0,0,0
7888,2161,26170,0,0,0
7847,2151,26107,0,0,0
7810,2138,26047,0,0,0
7780,2125,25993,0,0,0
7750,2109,25935,0,0,0
7713,2090,25867,0,0,0
7677,2072,25801,0,0,0
7646,2058,25747,0,0,0
7612,2045,25694,0,0,0
7572,2031,25638,0,0,0
7539,2024,25593,0,0,0
7522,2023,25569,0,0,0
7513,2022,25556,0,0,0
7508,2019,25551,0,0,0
7514,2017,25562,0,0,0
7531,2020,25591,0,0,0
7550,2025,25625,0,0,0
7571,2029,25661,0,0,0
7600,2037,25704,0,0,0
7635,2051,25759,0,0,0
7672,2066,25814,0,0,0
7716,2081,25869,0,0,0
7771,2101,25933,0,0,0
7826,2122,26005,0,0,0
7873,2141,26071,0,0,0
7912,2157,26129,0,0,0
7948,2173,26183,0,0,0
7976,2188,26230,0,0,0
7989,2199,26256,0,0,0
7994,2204,26265,0,0,0
7999,2210,26271,0,0,0
8001,2216,26269,0,0,0
7989,2213,26245,0,0,0
7966,2203,26202,0,0,0
7940,2191,26155,0,0,0
7906,2179,26101,0,0,0
7860,2164,26031,0,0,0
7808,2146,25955,0,0,0
7760,2129,25884,0,0,0
7713,2109,25814,0,0,0
7663,2085,25737,0,0,0
7614,2061,25661,0,0,0
7564,2041,25586,0,0,0
7507,2020,25503,0,0,0
7438,1996,25408,0,0,0
7366,1970,25312,0,0,0
7297,1947,25222,0,0,0
7226,1920,25125,0,0,0
7149,1885,25015,0,0,0
7072,1852,24905,0,0,0
6998,1822,24798,0,0,0
6919,1791,24684,0,0,0
6835,1755,24562,0,0,0
6754,1722,24444,0,0,0
6680,1695,24340,0,0,0
6607,1671,24238,0,0,0
6533,1644,24134,0,0,0
6467,1622,24037,0,0,0
6408,1604,23949,0,0,0
6349,1584,23863,0,0,0
6289,1561,23774,0,0,0
6234,1541,23693,0,0,0
6182,1523,23616,0,0,0
6126,1502,23533,0,0,0
6069,1480,23450,0,0,0
6017,1462,23377,0,0,0
5965,1445,23309,0,0,0
5905,1423,23233,0,0,0
5840,1400,23153,0,0,0
5781,1383,23080,0,0,0
5726,1367,23012,0,0,0
5667,1348,22933,0,0,0
5610,1325,22850,0,0,0
5558,1303,22774,0,0,0
5506,1282,22701,0,0,0
5449,1256,22622,0,0,0
5392,1226,22540,0,0,0
5339,1201,22463,0,0,0
5290,1178,22389,0,0,0
5242,1155,22319,0,0,0
5208,1140,22268,0,0,0
5205,1139,22261,0,0,0
5237,1153,22302,0,0,0
5309,1181,22394,0,0,0
5435,1229,22554,0,0,0
5620,1300,22792,0,0,0
5855,1390,23097,0,0,0
6126,1494,23454,0,0,0
6426,1611,23858,0,0,0
6748,1738,24303,0,0,0
7080,1866,24767,0,0,0
7408,1990,25234,0,0,0
7735,2112,25705,0,0,0
8056,2235,26171,0,0,0
8354,2349,26610,0,0,0
8624,2451,27011,0,0,0
8874,2546,27380,0,0,0
9098,2635,27714,0,0,0
9283,2710,27997,0,0,0
9428,2769,28224,0,0,0
9542,2816,28403,0,0,0
9622,2851,28535,0,0,0
9669,2875,28616,0,0,0
9687,2888,28655,0,0,0
9683,2895,28662,0,0,0
9658,2894,28637,0,0,0
9604,2878,28572,0,0,0
9526,2847,28468,0,0,0
9436,2809,28341,0,0,0
9337,2768,28195,0,0,0
9221,2719,28026,0,0,0
9095,2664,27844,0,0,0
8973,2612,27668,0,0,0
8853,2564,27497,0,0,0
8730,2516,27322,0,0,0
8612,2470,27151,0,0,0
8507,2433,26998,0,0,0
8411,2400,26859,0,0,0
8316,2367,26726,0,0,0
8228,2337,26606,0,0,0
8155,2314,26509,0,0,0
8091,2294,26424,0,0,0
8032,2272,26340,0,0,0
7986,2250,26264,0,0,0
7952,2233,26201,0,0,0
7918,2216,26140,0,0,0
7874,2197,26074,0,0,0
7828,2180,26014,0,0,0
7789,2168,25961,0,0,0
7753,2158,25910,0,0,0
7719,2146,25859,0,0,0
7698,2138,25819,0,0,0
7692,2135,25795,0,0,0
7691,2133,25781,0,0,0
7692,2129,25773,0,0,0
7708,2132,25785,0,0,0
7741,2148,25821,0,0,0
7779,2165,25867,0,0,0
7818,2181,25915,0,0,0
7870,2201,25977,0,0,0
7933,2229,26051,0,0,0
7995,2256,26124,0,0,0
8054,2278,26192,0,0,0
8117,2304,26267,0,0,0
8178,2330,26350,0,0,0
8227,2352,26432,0,0,0
8266,2370,26509,0,0,0
8304,2388,26586,0,0,0
8343,2402,26657,0,0,0
8374,2411,26709,0,0,0
8397,2419,26742,0,0,0
8416,2431,26769,0,0,0
8424,2442,26783,0,0,0
8418,2446,26777,0,0,0
8400,2443,26757,0,0,0
8378,2439,26736,0,0,0
8350,2431,26709,0,0,0
8312,2416,26660,0,0,0
8268,2396,26596,0,0,0
8225,2376,26529,0,0,0
8176,2354,26450,0,0,0
8117,2326,26353,0,0,0
8055,2298,26247,0,0,0
7993,2274,26146,0,0,0
7926,2248,26044,0,0,0
7850,2216,25932,0,0,0
7774,2184,25821,0,0,0
7702,2153,25718,0,0,0
7627,2122,25613,0,0,0
7548,2088,25501,0,0,0
7474,2059,25396,0,0,0
7410,2036,25301,0,0,0
7348,2015,25205,0,0,0
7286,1993,25104,0,0,0
7227,1972,25009,0,0,0
7171,1954,24923,0,0,0
7113,1933,24835,0,0,0
7053,1911,24739,0,0,0
7000,1890,24647,0,0,0
6951,1871,24569,0,0,0
6899,1849,24493,0,0,0
6844,1823,24414,0,0,0
6793,1798,24342,0,0,0
6743,1776,24277,0,0,0
6683,1750,24201,0,0,0
6614,1720,24113,0,0,0
6549,1694,24031,0,0,0
6488,1671,23957,0,0,0
6422,1644,23878,0,0,0
6355,1612,23793,0,0,0
6298,1587,23716,0,0,0
6246,1570,23643,0,0,0
6190,1552,23560,0,0,0
6134,1533,23476,0,0,0
6088,1518,23404,0,0,0
6045,1504,23337,0,0,0
5995,1487,23267,0,0,0
5948,1470,23200,0,0,0
5908,1457,23144,0,0,0
5869,1444,23089,0,0,0
5824,1427,23021,0,0,0
5782,1409,22951,0,0,0
5754,1397,22893,0,0,0
5735,1390,22851,0,0,0
5728,1388,22831,0,0,0
5751,1399,22858,0,0,0
5816,1429,22947,0,0,0
5923,1475,23095,0,0,0
6071,1533,23297,0,0,0
6263,1605,23561,0,0,0
6496,1693,23888,0,0,0
6756,1789,24255,0,0,0
7034,1889,24646,0,0,0
7330,1999,25062,0,0,0
7639,2116,25498,0,0,0
7939,2229,25927,0,0,0
8219,2332,26337,0,0,0
8486,2434,26732,0,0,0
8740,2533,27106,0,0,0
8965,2622,27439,0,0,0
9158,2697,27725,0,0,0
9324,2762,27970,0,0,0
9458,2817,28175,0,0,0
9550,2855,28328,0,0,0
9605,2877,28427,0,0,0
9631,2887,28485,0,0,0
9625,2886,28503,0,0,0
9585,2870,28472,0,0,0
9520,2843,28394,0,0,0
9442,2812,28285,0,0,0
9348,2777,28153,0,0,0
9235,2735,27994,0,0,0
9110,2687,27820,0,0,0
8987,2642,27645,0,0,0
8863,2599,27468,0,0,0
8732,2553,27282,0,0,0
8604,2508,27097,0,0,0
8492,2468,26929,0,0,0
8388,2431,26775,0,0,0
8286,2393,26624,0,0,0
8191,2357,26480,0,0,0
8106,2329,26353,0,0,0
8025,2303,26240,0,0,0
7944,2275,26134,0,0,0
7869,2249,26040,0,0,0
7806,2229,25958,0,0,0
7744,2211,25874,0,0,0
7678,2188,25778,0,0,0
7614,2164,25682,0,0,0
7555,2141,25594,0,0,0
7492,2115,25506,0,0,0
7427,2084,25415,0,0,0
7373,2057,25332,0,0,0
7332,2037,25267,0,0,0
7295,2022,25215,0,0,0
7266,2009,25178,0,0,0
7256,2004,25169,0,0,0
7266,2009,25186,0,0,0
7285,2018,25216,0,0,0
7315,2030,25257,0,0,0
7360,2046,25315,0,0,0
7416,2067,25387,0,0,0
7472,2087,25461,0,0,0
7530,2104,25535,0,0,0
7594,2125,25621,0,0,0
7661,2148,25716,0,0,0
7725,2168,25807,0,0,0
7783,2187,25890,0,0,0
7841,2211,25974,0,0,0
7896,2235,26051,0,0,0
7941,2254,26110,0,0,0
7975,2268,26154,0,0,0
8005,2281,26199,0,0,0
8029,2294,26239,0,0,0
8037,2299,26257,0,0,0
8035,2298,26257,0,0,0
8030,2298,26255,0,0,0
8019,2298,26242,0,0,0
7997,2290,26206,0,0,0
7966,2275,26155,0,0,0
7933,2260,26104,0,0,0
7892,2242,26044,0,0,0
7840,2220,25970,0,0,0
7783,2197,25889,0,0,0
7726,2173,25809,0,0,0
7665,2149,25722,0,0,0
7594,2120,25622,0,0,0
7518,2089,25516,0,0,0
7436,2058,25411,0,0,0
7343,2025,25299,0,0,0
7241,1989,25175,0,0,0
7141,1953,25053,0,0,0
7049,1921,24941,0,0,0
6958,1887,24826,0,0,0
6868,1851,24701,0,0,0
6787,1820,24587,0,0,0
6716,1796,24491,0,0,0
6647,1775,24400,0,0,0
6580,1754,24308,0,0,0
6524,1739,24223,0,0,0
6479,1729,24150,0,0,0
6436,1717,24080,0,0,0
6392,1701,24012,0,0,0
6351,1685,23951,0,0,0
6311,1671,23898,0,0,0
6265,1654,23836,0,0,0
6214,1634,23764,0,0,0
6164,1613,23691,0,0,0
6117,1592,23618,0,0,0
6061,1567,23533,0,0,0
5996,1535,23437,0,0,0
5930,1504,23342,0,0,0
5865,1474,23245,0,0,0
5792,1443,23137,0,0,0
5715,1411,23026,0,0,0
5644,1383,22928,0,0,0
5582,1359,22841,0,0,0
5523,1334,22759,0,0,0
5474,1313,22692,0,0,0
5449,1303,22656,0,0,0
5451,1305,22654,0,0,0
5476,1317,22687,0,0,0
5537,1343,22777,0,0,0
5648,1390,22938,0,0,0
5806,1450,23161,0,0,0
6002,1522,23433,0,0,0
6236,1607,23759,0,0,0
6503,1702,24133,0,0,0
6788,1804,24538,0,0,0
7084,1909,24959,0,0,0
7390,2019,25395,0,0,0
7698,2133,25838,0,0,0
7992,2243,26271,0,0,0
8265,2349,26679,0,0,0
8525,2451,27066,0,0,0
8768,2550,27427,0,0,0
8982,2637,27744,0,0,0
9162,2707,28010,0,0,0
9317,2767,28237,0,0,0
9447,2817,28429,0,0,0
9539,2850,28568,0,0,0
9589,2866,28651,0,0,0
9609,2875,28695,0,0,0
9604,2880,28705,0,0,0
9568,2871,28669,0,0,0
9502,2850,28589,0,0,0
9418,2825,28482,0,0,0
9319,2795,28354,0,0,0
9201,2755,28198,0,0,0
9073,2709,28018,0,0,0
8946,2664,27833,0,0,0
8820,2619,27646,0,0,0
8689,2570,27449,0,0,0
8559,2519,27251,0,0,0
8444,2476,27071,0,0,0
8340,2437,26902,0,0,0
8239,2396,26734,0,0,0
8145,2357,26574,0,0,0
8066,2324,26440,0,0,0
7999,2296,26327,0,0,0
7932,2269,26222,0,0,0
7865,2242,26122,0,0,0
7800,2216,26031,0,0,0
7732,2191,25940,0,0,0
7654,2159,25841,0,0,0
7575,2128,25740,0,0,0
7503,2105,25649,0,0,0
7434,2084,25560,0,0,0
7365,2059,25471,0,0,0
7306,2037,25398,0,0,0
7262,2022,25348,0,0,0
7227,2011,25312,0,0,0
7200,2003,25287,0,0,0
7190,2002,25282,0,0,0
7200,2011,25301,0,0,0
7221,2022,25330,0,0,0
7250,2031,25365,0,0,0
7294,2047,25419,0,0,0
7352,2072,25497,0,0,0
7413,2098,25583,0,0,0
7474,2121,25667,0,0,0
7541,2147,25761,0,0,0
7613,2177,25865,0,0,0
7678,2204,25964,0,0,0
7737,2226,26056,0,0,0
7799,2249,26152,0,0,0
7859,2272,26245,0,0,0
7905,2291,26319,0,0,0
7942,2306,26373,0,0,0
7975,2322,26417,0,0,0
8001,2335,26447,0,0,0
8010,2337,26451,0,0,0
8002,2328,26427,0,0,0
7984,2315,26389,0,0,0
7957,2298,26340,0,0,0
7912,2274,26270,0,0,0
7855,2245,26186,0,0,0
7795,2218,26103,0,0,0
7729,2189,26013,0,0,0
7650,2153,25902,0,0,0
7565,2114,25781,0,0,0
7486,2079,25668,0,0,0
7407,2046,25556,0,0,0
7320,2009,25433,0,0,0
7230,1969,25310,0,0,0
7141,1932,25194,0,0,0
7051,1897,25081,0,0,0
6959,1861,24964,0,0,0
6872,1828,24850,0,0,0
6794,1799,24739,0,0,0
6716,1770,24625,0,0,0
6638,1740,24507,0,0,0
6568,1716,24397,0,0,0
6509,1699,24303,0,0,0
6447,1681,24209,0,0,0
6376,1659,24107,0,0,0
6306,1637,24008,0,0,0
6242,1618,23917,0,0,0
6180,1600,23822,0,0,0
6115,1577,23721,0,0,0
6053,1555,23624,0,0,0
5993,1534,23534,0,0,0
5929,1511,23439,0,0,0
5859,1484,23336,0,0,0
5794,1457,23238,0,0,0
5733,1432,23146,0,0,0
5666,1403,23051,0,0,0
5596,1371,22952,0,0,0
5531,1340,22859,0,0,0
5471,1311,22778,0,0,0
5413,1282,22701,0,0,0
5364,1258,22635,0,0,0
5338,1245,22599,0,0,0
5339,1245,22603,0,0,0
5367,1255,22647,0,0,0
5433,1278,22747,0,0,0
5548,1321,22920,0,0,0
5710,1385,23159,0,0,0
5911,1461,23450,0,0,0
6147,1550,23790,0,0,0
6420,1653,24182,0,0,0
6719,1766,24611,0,0,0
7028,1883,25058,0,0,0
7343,2003,25517,0,0,0
7662,2125,25982,0,0,0
7970,2244,26435,0,0,0
8256,2353,26855,0,0,0
8519,2452,27244,0,0,0
8757,2545,27604,0,0,0
8960,2625,27916,0,0,0
9125,2684,28170,0,0,0
9256,2729,28371,0,0,0
9354,2764,28527,0,0,0
9412,2788,28632,0,0,0
9434,2800,28682,0,0,0
9433,2803,28691,0,0,0
9409,2801,28667,0,0,0
9354,2789,28601,0,0,0
9272,2765,28492,0,0,0
9181,2735,28361,0,0,0
9091,2706,28218,0,0,0
8991,2671,28057,0,0,0
8879,2627,27884,0,0,0
8763,2583,27711,0,0,0
8648,2542,27542,0,0,0
8525,2498,27368,0,0,0
8399,2452,27190,0,0,0
8278,2409,27020,0,0,0
8164,2369,26862,0,0,0
8053,2328,26706,0,0,0
7947,2287,26555,0,0,0
7853,2252,26419,0,0,0
7767,2219,26296,0,0,0
7677,2183,26173,0,0,0
7586,2147,26048,0,0,0
7505,2117,25936,0,0,0
7433,2093,25833,0,0,0
7360,2067,25725,0,0,0
7288,2041,25621,0,0,0
7225,2020,25534,0,0,0
7168,2002,25454,0,0,0
7113,1983,25369,0,0,0
7066,1966,25294,0,0,0
7037,1955,25243,0,0,0
7020,1948,25213,0,0,0
7009,1940,25196,0,0,0
7009,1935,25196,0,0,0
7023,1938,25213,0,0,0
7041,1944,25239,0,0,0
7060,1949,25270,0,0,0
7086,1957,25314,0,0,0
7121,1970,25374,0,0,0
7158,1982,25435,0,0,0
7193,1993,25492,0,0,0
7234,2006,25555,0,0,0
7283,2025,25627,0,0,0
7331,2045,25692,0,0,0
7372,2060,25744,0,0,0
7413,2075,25798,0,0,0
7457,2091,25855,0,0,0
7491,2102,25903,0,0,0
7510,2107,25932,0,0,0
7525,2111,25953,0,0,0
7537,2116,25968,0,0,0
7532,2117,25965,0,0,0
7511,2110,25943,0,0,0
7486,2101,25914,0,0,0
7457,2089,25878,0,0,0
7417,2069,25819,0,0,0
7369,2045,25740,0,0,0
7320,2022,25659,0,0,0
7267,2002,25572,0,0,0
7200,1977,25469,0,0,0
7122,1948,25356,0,0,0
7044,1921,25247,0,0,0
6965,1895,25140,0,0,0
6879,1864,25021,0,0,0
6788,1829,24897,0,0,0
6702,1796,24781,0,0,0
6616,1764,24670,0,0,0
6526,1732,24554,0,0,0
6440,1698,24436,0,0,0
6360,1669,24330,0,0,0
6286,1642,24228,0,0,0
6210,1612,24119,0,0,0
6136,1584,24009,0,0,0
6071,1563,23910,0,0,0
6005,1542,23815,0,0,0
5931,1515,23711,0,0,0
5861,1488,23609,0,0,0
5801,1464,23521,0,0,0
5739,1441,23435,0,0,0
5672,1416,23341,0,0,0
5608,1393,23250,0,0,0
5550,1374,23171,0,0,0
5488,1353,23090,0,0,0
5421,1328,23001,0,0,0
5358,1303,22915,0,0,0
5301,1283,22837,0,0,0
5242,1259,22754,0,0,0
5176,1231,22666,0,0,0
5113,1205,22585,0,0,0
5056,1181,22514,0,0,0
4999,1157,22444,0,0,0
4948,1135,22379,0,0,0
4920,1124,22343,0,0,0
4922,1125,22349,0,0,0
4954,1137,22392,0,0,0
5021,1161,22485,0,0,0
5140,1205,22653,0,0,0
5311,1270,22897,0,0,0
5522,1351,23197,0,0,0
5771,1444,23553,0,0,0
6066,1552,23972,0,0,0
6396,1674,24439,0,0,0
6741,1800,24928,0,0,0
7096,1928,25428,0,0,0
7458,2062,25938,0,0,0
7811,2196,26443,0,0,0
8136,2321,26919,0,0,0
8436,2435,27364,0,0,0
8713,2544,27782,0,0,0
8961,2640,28159,0,0,0
9170,2718,28479,0,0,0
9344,2785,28749,0,0,0
9488,2845,28978,0,0,0
9595,2895,29157,0,0,0
9660,2930,29276,0,0,0
9688,2948,29339,0,0,0
9689,2956,29362,0,0,0
9663,2953,29340,0,0,0
9608,2936,29270,0,0,0
9531,2910,29165,0,0,0
9441,2882,29042,0,0,0
9336,2846,28900,0,0,0
9219,2799,28744,0,0,0
9100,2751,28589,0,0,0
8981,2709,28440,0,0,0
8859,2665,28285,0,0,0
8736,2617,28118,0,0,0
8627,2570,27953,0,0,0
8532,2531,27800,0,0,0
8441,2495,27651,0,0,0
8355,2459,27507,0,0,0
8284,2430,27386,0,0,0
8228,2408,27288,0,0,0
8173,2386,27201,0,0,0
8119,2363,27117,0,0,0
8073,2345,27045,0,0,0
8030,2331,26983,0,0,0
7980,2316,26919,0,0,0
7926,2299,26849,0,0,0
7878,2283,26781,0,0,0
7834,2269,26714,0,0,0
7790,2251,26638,0,0,0
7747,2233,26558,0,0,0
7712,2218,26494,0,0,0
7679,2208,26443,0,0,0
7640,2194,26390,0,0,0
7606,2178,26343,0,0,0
7586,2168,26316,0,0,0
7575,2163,26303,0,0,0
7561,2155,26288,0,0,0
7550,2150,26284,0,0,0
7553,2152,26303,0,0,0
7568,2159,26337,0,0,0
7588,2166,26369,0,0,0
7615,2177,26406,0,0,0
7650,2193,26454,0,0,0
7684,2208,26503,0,0,0
7714,2217,26547,0,0,0
7747,2225,26589,0,0,0
7785,2235,26633,0,0,0
7816,2243,26667,0,0,0
7837,2248,26687,0,0,0
7857,2254,26706,0,0,0
7875,2265,26728,0,0,0
7879,2272,26733,0,0,0
7868,2273,26715,0,0,0
7849,2269,26685,0,0,0
7824,2261,26650,0,0,0
7785,2242,26595,0,0,0
7732,2216,26519,0,0,0
7673,2190,26437,0,0,0
7611,2168,26352,0,0,0
7541,2145,26255,0,0,0
7465,2118,26144,0,0,0
7388,2090,26026,0,0,0
7311,2059,25906,0,0,0
7231,2024,25780,0,0,0
7144,1986,25649,0,0,0
7057,1952,25527,0,0,0
6972,1923,25409,0,0,0
6883,1888,25283,0,0,0
6791,1850,25156,0,0,0
6707,1817,25042,0,0,0
6628,1789,24937,0,0,0
6546,1759,24824,0,0,0
6466,1725,24705,0,0,0
6391,1695,24593,0,0,0
6313,1665,24484,0,0,0
6230,1633,24366,0,0,0
6152,1602,24250,0,0,0
6079,1578,24151,0,0,0
6005,1554,24058,0,0,0
5932,1527,23959,0,0,0
5865,1501,23863,0,0,0
5807,1480,23778,0,0,0
5753,1460,23696,0,0,0
5697,1441,23609,0,0,0
5646,1426,23525,0,0,0
5601,1416,23455,0,0,0
5555,1403,23382,0,0,0
5500,1383,23296,0,0,0
5446,1362,23205,0,0,0
5397,1345,23120,0,0,0
5346,1325,23031,0,0,0
5291,1299,22938,0,0,0
5239,1274,22850,0,0,0
5188,1250,22769,0,0,0
5128,1221,22682,0,0,0
5060,1188,22585,0,0,0
4992,1155,22490,0,0,0
4926,1126,22399,0,0,0
4859,1098,22308,0,0,0
4795,1074,22219,0,0,0
4747,1060,22151,0,0,0
4722,1058,22118,0,0,0
4720,1063,22121,0,0,0
4752,1075,22170,0,0,0
4836,1107,22293,0,0,0
4977,1159,22496,0,0,0
5160,1227,22760,0,0,0
5387,1310,23084,0,0,0
5666,1413,23479,0,0,0
5986,1535,23937,0,0,0
6330,1662,24435,0,0,0
6695,1794,24964,0,0,0
7079,1933,25520,0,0,0
7464,2076,26080,0,0,0
7834,2215,26618,0,0,0
8180,2348,27125,0,0,0
8504,2477,27608,0,0,0
8796,2597,28052,0,0,0
9046,2702,28438,0,0,0
9255,2789,28767,0,0,0
9429,2862,29050,0,0,0
9564,2920,29278,0,0,0
9655,2958,29444,0,0,0
9713,2982,29558,0,0,0
9744,2999,29627,0,0,0
9741,3006,29646,0,0,0
9709,2996,29612,0,0,0
9658,2976,29540,0,0,0
9593,2952,29444,0,0,0
9510,2921,29320,0,0,0
9407,2879,29169,0,0,0
9297,2834,29008,0,0,0
9187,2793,28852,0,0,0
9073,2750,28688,0,0,0
8957,2703,28515,0,0,0
8848,2660,28354,0,0,0
8746,2621,28210,0,0,0
8644,2583,28073,0,0,0
8548,2546,27941,0,0,0
8468,2518,27828,0,0,0
8405,2497,27735,0,0,0
8349,2477,27646,0,0,0
8298,2456,27561,0,0,0
8255,2441,27491,0,0,0
8216,2428,27434,0,0,0
8175,2411,27373,0,0,0
8133,2392,27310,0,0,0
8094,2377,27256,0,0,0
8053,2362,27205,0,0,0
8002,2343,27140,0,0,0
7949,2324,27069,0,0,0
7909,2313,27011,0,0,0
7879,2306,26961,0,0,0
7849,2295,26906,0,0,0
7824,2283,26854,0,0,0
7815,2279,26826,0,0,0
7817,2281,26815,0,0,0
7822,2281,26808,0,0,0
7830,2279,26812,0,0,0
7849,2284,26839,0,0,0
7872,2294,26875,0,0,0
7890,2302,26910,0,0,0
7911,2311,26951,0,0,0
7939,2324,27006,0,0,0
7969,2338,27063,0,0,0
7994,2350,27107,0,0,0
8021,2364,27150,0,0,0
8051,2378,27199,0,0,0
8079,2389,27246,0,0,0
8103,2395,27283,0,0,0
8131,2403,27318,0,0,0
8162,2418,27355,0,0,0
8188,2429,27382,0,0,0
8203,2431,27387,0,0,0
8210,2431,27383,0,0,0
8209,2433,27374,0,0,0
8194,2425,27344,0,0,0
8166,2406,27292,0,0,0
8132,2386,27230,0,0,0
8093,2366,27165,0,0,0
8039,2341,27084,0,0,0
7971,2310,26986,0,0,0
7897,2280,26886,0,0,0
7819,2251,26783,0,0,0
7731,2219,26664,0,0,0
7638,2186,26533,0,0,0
7550,2154,26402,0,0,0
7463,2125,26268,0,0,0
7371,2092,26123,0,0,0
7278,2056,25973,0,0,0
7190,2024,25836,0,0,0
7105,1996,25709,0,0,0
7018,1965,25581,0,0,0
6934,1932,25459,0,0,0
6863,1903,25354,0,0,0
6799,1881,25258,0,0,0
6734,1858,25157,0,0,0
6668,1834,25053,0,0,0
6604,1811,24958,0,0,0
6537,1787,24863,0,0,0
6461,1759,24758,0,0,0
6386,1729,24653,0,0,0
6320,1702,24557,0,0,0
6254,1676,24459,0,0,0
6181,1645,24353,0,0,0
6110,1615,24257,0,0,0
6044,1591,24174,0,0,0
5977,1568,24090,0,0,0
5911,1544,23999,0,0,0
5852,1525,23908,0,0,0
5800,1509,23825,0,0,0
5745,1491,23742,0,0,0
5689,1471,23658,0,0,0
5646,1455,23583,0,0,0
5614,1442,23519,0,0,0
5578,1425,23455,0,0,0
5534,1404,23387,0,0,0
5493,1384,23328,0,0,0
5462,1366,23281,0,0,0
5433,1346,23233,0,0,0
5399,1325,23185,0,0,0
5369,1307,23148,0,0,0
5342,1297,23119,0,0,0
5303,1286,23081,0,0,0
5259,1271,23033,0,0,0
5218,1259,22989,0,0,0
5182,1251,22944,0,0,0
5143,1242,22890,0,0,0
5107,1230,22834,0,0,0
5082,1222,22792,0,0,0
5060,1214,22756,0,0,0
5034,1203,22713,0,0,0
5007,1191,22670,0,0,0
4989,1181,22636,0,0,0
4970,1174,22607,0,0,0
4939,1164,22570,0,0,0
4900,1152,22525,0,0,0
4862,1142,22486,0,0,0
4825,1131,22449,0,0,0
4782,1115,22404,0,0,0
4737,1099,22356,0,0,0
4697,1085,22310,0,0,0
4656,1071,22258,0,0,0
4605,1053,22191,0,0,0
4555,1033,22120,0,0,0
4515,1018,22059,0,0,0
4476,1001,21993,0,0,0
4428,978,21911,0,0,0
4379,955,21828,0,0,0
4331,938,21755,0,0,0
4278,919,21678,0,0,0
4221,897,21591,0,0,0
4166,877,21505,0,0,0
4113,862,21425,0,0,0
4055,846,21346,0,0,0
4001,830,21276,0,0,0
3969,822,21239,0,0,0
3965,828,21246,0,0,0
3993,845,21299,0,0,0
4067,874,21409,0,0,0
4199,919,21599,0,0,0
4387,983,21872,0,0,0
4622,1062,22212,0,0,0
4905,1159,22616,0,0,0
5237,1276,23088,0,0,0
5605,1412,23621,0,0,0
5991,1558,24187,0,0,0
6389,1708,24774,0,0,0
6796,1863,25379,0,0,0
7205,2019,25985,0,0,0
7597,2167,26564,0,0,0
7969,2306,27109,0,0,0
8323,2440,27629,0,0,0
8646,2567,28109,0,0,0
8923,2677,28526,0,0,0
9154,2771,28878,0,0,0
9344,2852,29173,0,0,0
9490,2918,29407,0,0,0
9587,2961,29570,0,0,0
9642,2985,29669,0,0,0
9665,2998,29719,0,0,0
9654,2996,29718,0,0,0
9607,2979,29666,0,0,0
9532,2954,29575,0,0,0
9439,2930,29459,0,0,0
9331,2899,29313,0,0,0
9208,2857,29140,0,0,0
9080,2809,28953,0,0,0
8953,2761,28770,0,0,0
8822,2710,28588,0,0,0
8690,2657,28402,0,0,0
8569,2606,28221,0,0,0
8458,2559,28050,0,0,0
8350,2514,27880,0,0,0
8244,2469,27711,0,0,0
8147,2430,27559,0,0,0
8062,2401,27428,0,0,0
7982,2373,27305,0,0,0
7905,2345,27183,0,0,0
7835,2320,27074,0,0,0
7771,2297,26979,0,0,0
7703,2273,26888,0,0,0
7635,2249,26802,0,0,0
7577,2228,26730,0,0,0
7532,2211,26674,0,0,0
7495,2194,26621,0,0,0
7463,2175,26573,0,0,0
7445,2164,26544,0,0,0
7438,2159,26528,0,0,0
7432,2155,26514,0,0,0
7431,2150,26506,0,0,0
7445,2152,26522,0,0,0
7470,2160,26553,0,0,0
7495,2168,26586,0,0,0
7527,2180,26625,0,0,0
7571,2200,26678,0,0,0
7620,2222,26737,0,0,0
7662,2240,26791,0,0,0
7704,2257,26850,0,0,0
7755,2280,26921,0,0,0
7807,2303,26993,0,0,0
7848,2322,27060,0,0,0
7886,2338,27127,0,0,0
7926,2354,27196,0,0,0
7962,2365,27254,0,0,0
7992,2369,27296,0,0,0
8019,2374,27334,0,0,0
8044,2381,27372,0,0,0
8055,2386,27390,0,0,0
8052,2387,27384,0,0,0
8042,2388,27369,0,0,0
8025,2389,27353,0,0,0
7996,2386,27325,0,0,0
7955,2378,27278,0,0,0
7911,2366,27220,0,0,0
7865,2350,27152,0,0,0
7808,2327,27063,0,0,0
7739,2297,26953,0,0,0
7668,2266,26839,0,0,0
7597,2239,26725,0,0,0
7517,2207,26600,0,0,0
7429,2171,26463,0,0,0
7345,2138,26333,0,0,0
7267,2110,26212,0,0,0
7187,2078,26087,0,0,0
7104,2041,25958,0,0,0
7025,2006,25840,0,0,0
6950,1975,25727,0,0,0
6868,1941,25602,0,0,0
6782,1904,25468,0,0,0
6704,1872,25343,0,0,0
6631,1843,25225,0,0,0
6553,1809,25101,0,0,0
6473,1774,24974,0,0,0
6399,1746,24857,0,0,0
6326,1722,24746,0,0,0
6249,1694,24631,0,0,0
6171,1666,24513,0,0,0
6097,1645,24402,0,0,0
6019,1623,24294,0,0,0
5934,1596,24182,0,0,0
5854,1568,24072,0,0,0
5786,1542,23973,0,0,0
5722,1517,23879,0,0,0
5656,1490,23779,0,0,0
5595,1467,23688,0,0,0
5544,1449,23614,0,0,0
5494,1432,23547,0,0,0
5442,1410,23480,0,0,0
5397,1388,23422,0,0,0
5360,1369,23376,0,0,0
5323,1351,23327,0,0,0
5287,1331,23272,0,0,0
5259,1315,23220,0,0,0
5237,1303,23173,0,0,0
5205,1287,23113,0,0,0
5163,1266,23038,0,0,0
5118,1245,22967,0,0,0
5075,1229,22904,0,0,0
5029,1213,22840,0,0,0
4983,1196,22775,0,0,0
4944,1183,22719,0,0,0
4911,1175,22671,0,0,0
4874,1165,22620,0,0,0
4837,1152,22566,0,0,0
4808,1142,22520,0,0,0
4780,1136,22480,0,0,0
4745,1129,22432,0,0,0
4710,1117,22379,0,0,0
4683,1105,22336,0,0,0
4657,1094,22300,0,0,0
4622,1078,22256,0,0,0
4580,1060,22205,0,0,0
4545,1049,22155,0,0,0
4513,1040,22104,0,0,0
4476,1027,22043,0,0,0
4437,1011,21976,0,0,0
4401,996,21916,0,0,0
4362,980,21858,0,0,0
4315,958,21793,0,0,0
4268,936,21732,0,0,0
4227,920,21683,0,0,0
4184,905,21638,0,0,0
4134,887,21582,0,0,0
4087,869,21524,0,0,0
4050,857,21469,0,0,0
4013,843,21407,0,0,0
3969,826,21329,0,0,0
3920,809,21249,0,0,0
3867,793,21173,0,0,0
3804,773,21090,0,0,0
3734,749,20996,0,0,0
3670,725,20906,0,0,0
3616,702,20826,0,0,0
3560,678,20738,0,0,0
3496,649,20635,0,0,0
3431,622,20529,0,0,0
3367,596,20427,0,0,0
3291,567,20322,0,0,0
3205,537,20213,0,0,0
3121,510,20112,0,0,0
3039,485,20020,0,0,0
2958,459,19925,0,0,0
2885,435,19832,0,0,0
2833,420,19762,0,0,0
2808,416,19730,0,0,0
2814,421,19740,0,0,0
2864,440,19807,0,0,0
2972,482,19956,0,0,0
3141,547,20193,0,0,0
3363,629,20505,0,0,0
3633,727,20891,0,0,0
3954,844,21351,0,0,0
4312,976,21866,0,0,0
4689,1113,22408,0,0,0
5082,1254,22972,0,0,0
5488,1403,23562,0,0,0
5895,1552,24158,0,0,0
6283,1693,24733,0,0,0
6650,1827,25279,0,0,0
7000,1958,25797,0,0,0
7324,2082,26275,0,0,0
7606,2191,26696,0,0,0
7849,2285,27060,0,0,0
8058,2369,27374,0,0,0
8221,2437,27628,0,0,0
8335,2486,27814,0,0,0
8411,2521,27945,0,0,0
8456,2544,28029,0,0,0
8463,2551,28058,0,0,0
8431,2542,28029,0,0,0
8375,2524,27957,0,0,0
8300,2500,27855,0,0,0
8203,2467,27718,0,0,0
8084,2422,27545,0,0,0
7954,2373,27351,0,0,0
7821,2323,27149,0,0,0
7678,2264,26933,0,0,0
7525,2201,26704,0,0,0
7375,2142,26482,0,0,0
7233,2089,26277,0,0,0
7095,2037,26074,0,0,0
6959,1987,25869,0,0,0
6833,1945,25678,0,0,0
6721,1908,25509,0,0,0
6612,1869,25349,0,0,0
6505,1830,25198,0,0,0
6416,1798,25065,0,0,0
6342,1774,24948,0,0,0
6268,1748,24832,0,0,0
6195,1720,24719,0,0,0
6131,1698,24620,0,0,0
6072,1681,24533,0,0,0
6012,1658,24448,0,0,0
5960,1634,24374,0,0,0
5923,1614,24319,0,0,0
5896,1597,24280,0,0,0
5876,1580,24246,0,0,0
5864,1570,24227,0,0,0
5865,1570,24233,0,0,0
5877,1577,24259,0,0,0
5895,1584,24292,0,0,0
5925,1594,24337,0,0,0
5974,1612,24405,0,0,0
6033,1635,24487,0,0,0
6096,1658,24573,0,0,0
6168,1685,24671,0,0,0
6252,1720,24789,0,0,0
6342,1756,24909,0,0,0
6430,1786,25021,0,0,0
6520,1815,25137,0,0,0
6612,1846,25262,0,0,0
6696,1874,25376,0,0,0
6763,1894,25469,0,0,0
6816,1912,25554,0,0,0
6860,1933,25632,0,0,0
6882,1950,25687,0,0,0
6885,1958,25710,0,0,0
6881,1965,25717,0,0,0
6873,1969,25711,0,0,0
6851,1962,25680,0,0,0
6816,1947,25626,0,0,0
6780,1932,25565,0,0,0
6739,1919,25497,0,0,0
6683,1900,25409,0,0,0
6612,1874,25302,0,0,0
6537,1847,25190,0,0,0
6459,1818,25074,0,0,0
6371,1783,24947,0,0,0
6277,1743,24813,0,0,0
6186,1707,24686,0,0,0
6095,1674,24561,0,0,0
5997,1637,24422,0,0,0
5897,1596,24270,0,0,0
5804,1558,24124,0,0,0
5714,1521,23981,0,0,0
5616,1479,23828,0,0,0
5516,1435,23671,0,0,0
5423,1396,23523,0,0,0
5329,1361,23382,0,0,0
5226,1325,23238,0,0,0
5124,1292,23099,0,0,0
5032,1264,22969,0,0,0
4942,1237,22841,0,0,0
4848,1203,22710,0,0,0
4759,1168,22583,0,0,0
4680,1137,22467,0,0,0
4610,1107,22355,0,0,0
4543,1077,22242,0,0,0
4483,1050,22138,0,0,0
4430,1028,22047,0,0,0
4370,1005,21956,0,0,0
4302,977,21857,0,0,0
4237,951,21761,0,0,0
4181,928,21678,0,0,0
4127,907,21597,0,0,0
4072,888,21513,0,0,0
4025,876,21440,0,0,0
3989,867,21380,0,0,0
3955,858,21321,0,0,0
3918,847,21259,0,0,0
3887,840,21207,0,0,0
3860,836,21169,0,0,0
3828,824,21128,0,0,0
3790,807,21082,0,0,0
3760,793,21044,0,0,0
3736,784,21015,0,0,0
3708,771,20979,0,0,0
3674,754,20933,0,0,0
3647,740,20892,0,0,0
3620,730,20854,0,0,0
3583,716,20804,0,0,0
3539,703,20746,0,0,0
3499,694,20695,0,0,0
3463,687,20650,0,0,0
3421,672,20598,0,0,0
3375,651,20537,0,0,0
3331,632,20474,0,0,0
3284,615,20403,0,0,0
3226,594,20316,0,0,0
3167,571,20228,0,0,0
3121,551,20154,0,0,0
3085,535,20100,0,0,0
3062,522,20066,0,0,0
3064,518,20069,0,0,0
3104,532,20125,0,0,0
3187,563,20235,0,0,0
3314,607,20400,0,0,0
3491,668,20634,0,0,0
3718,746,20944,0,0,0
3980,835,21309,0,0,0
4267,932,21712,0,0,0
4579,1042,22153,0,0,0
4911,1162,22628,0,0,0
5244,1282,23112,0,0,0
5567,1396,23585,0,0,0
5885,1512,24050,0,0,0
6192,1626,24502,0,0,0
6470,1731,24920,0,0,0
6713,1823,25291,0,0,0
6927,1908,25623,0,0,0
7112,1984,25913,0,0,0
7261,2044,26147,0,0,0
7372,2087,26322,0,0,0
7454,2119,26453,0,0,0
7505,2144,26542,0,0,0
7521,2155,26581,0,0,0
7510,2153,26573,0,0,0
7482,2147,26534,0,0,0
7437,2134,26464,0,0,0
7368,2110,26354,0,0,0
7278,2078,26209,0,0,0
7175,2042,26048,0,0,0
7060,2001,25874,0,0,0
6927,1950,25678,0,0,0
6781,1894,25470,0,0,0
6641,1841,25269,0,0,0
6504,1791,25071,0,0,0
6361,1738,24864,0,0,0
6223,1685,24662,0,0,0
6102,1642,24482,0,0,0
5989,1602,24318,0,0,0
5876,1559,24154,0,0,0
5771,1516,23997,0,0,0
5679,1481,23860,0,0,0
5592,1450,23733,0,0,0
5504,1416,23607,0,0,0
5423,1381,23488,0,0,0
5351,1352,23383,0,0,0
5278,1322,23278,0,0,0
5202,1289,23164,0,0,0
5132,1261,23056,0,0,0
5074,1242,22969,0,0,0
5021,1226,22896,0,0,0
4971,1213,22834,0,0,0
4936,1206,22797,0,0,0
4922,1205,22789,0,0,0
4919,1205,22792,0,0,0
4926,1205,22799,0,0,0
4950,1208,22825,0,0,0
4988,1219,22873,0,0,0
5034,1234,22930,0,0,0
5085,1250,22996,0,0,0
5152,1273,23083,0,0,0
5233,1304,23193,0,0,0
5313,1331,23303,0,0,0
5389,1354,23411,0,0,0
5472,1384,23526,0,0,0
5556,1418,23641,0,0,0
5626,1446,23742,0,0,0
5685,1468,23830,0,0,0
5744,1490,23916,0,0,0
5797,1509,23992,0,0,0
5832,1521,24042,0,0,0
5853,1528,24071,0,0,0
5867,1534,24091,0,0,0
5870,1536,24098,0,0,0
5856,1529,24078,0,0,0
5828,1517,24037,0,0,0
5796,1508,23992,0,0,0
5757,1496,23938,0,0,0
5702,1475,23863,0,0,0
5639,1452,23775,0,0,0
5579,1434,23688,0,0,0
5516,1414,23591,0,0,0
5442,1385,23476,0,0,0
5364,1354,23353,0,0,0
5289,1323,23235,0,0,0
5210,1289,23112,0,0,0
5119,1250,22974,0,0,0
5028,1213,22834,0,0,0
4940,1180,22703,0,0,0
4845,1145,22569,0,0,0
4743,1105,22426,0,0,0
4642,1065,22283,0,0,0
4543,1030,22143,0,0,0
4443,995,21997,0,0,0
4340,959,21844,0,0,0
4241,925,21698,0,0,0
4149,895,21561,0,0,0
4059,861,21417,0,0,0
3970,823,21266,0,0,0
3885,786,21124,0,0,0
3806,752,20995,0,0,0
3725,716,20870,0,0,0
3641,682,20748,0,0,0
3568,656,20643,0,0,0
3504,637,20557,0,0,0
3437,618,20471,0,0,0
3365,597,20382,0,0,0
3302,580,20309,0,0,0
3248,565,20244,0,0,0
3191,546,20170,0,0,0
3131,524,20093,0,0,0
3078,506,20029,0,0,0
3029,490,19975,0,0,0
2977,471,19913,0,0,0
2926,449,19849,0,0,0
2886,433,19794,0,0,0
2849,418,19740,0,0,0
2808,399,19676,0,0,0
2767,381,19610,0,0,0
2730,369,19553,0,0,0
2689,358,19495,0,0,0
2640,342,19425,0,0,0
2590,328,19355,0,0,0
2544,317,19291,0,0,0
2496,305,19223,0,0,0
2447,288,19152,0,0,0
2411,274,19097,0,0,0
2398,266,19079,0,0,0
2405,266,19094,0,0,0
2443,276,19150,0,0,0
2529,305,19268,0,0,0
2670,357,19459,0,0,0
2857,423,19714,0,0,0
3088,501,20025,0,0,0
3365,597,20397,0,0,0
3680,709,20826,0,0,0
4012,826,21286,0,0,0
4352,942,21764,0,0,0
4704,1063,22266,0,0,0
5063,1189,22785,0,0,0
5412,1312,23295,0,0,0
5745,1430,23787,0,0,0
6065,1549,24262,0,0,0
6365,1665,24707,0,0,0
6628,1766,25103,0,0,0
6855,1853,25446,0,0,0
7050,1930,25744,0,0,0
7206,1995,25992,0,0,0
7316,2041,26178,0,0,0
7389,2069,26302,0,0,0
7436,2086,26378,0,0,0
7454,2091,26405,0,0,0
7438,2083,26379,0,0,0
7396,2065,26309,0,0,0
7338,2043,26215,0,0,0
7257,2016,26095,0,0,0
7150,1977,25940,0,0,0
7031,1933,25769,0,0,0
6915,1892,25601,0,0,0
6798,1851,25427,0,0,0
6672,1804,25242,0,0,0
6548,1757,25057,0,0,0
6435,1715,24883,0,0,0
6326,1677,24716,0,0,0
6218,1638,24550,0,0,0
6118,1603,24395,0,0,0
6033,1578,24262,0,0,0
5954,1553,24141,0,0,0
5879,1526,24022,0,0,0
5816,1501,23918,0,0,0
5762,1479,23833,0,0,0
5707,1456,23753,0,0,0
5651,1431,23673,0,0,0
5600,1411,23602,0,0,0
5555,1396,23544,0,0,0
5509,1378,23484,0,0,0
5459,1358,23413,0,0,0
5416,1342,23346,0,0,0
5381,1332,23289,0,0,0
5342,1318,23232,0,0,0
5300,1300,23171,0,0,0
5272,1287,23123,0,0,0
5261,1280,23093,0,0,0
5256,1271,23073,0,0,0
5256,1264,23064,0,0,0
5272,1267,23081,0,0,0
5301,1278,23118,0,0,0
5335,1289,23164,0,0,0
5376,1300,23225,0,0,0
5433,1321,23310,0,0,0
5501,1352,23409,0,0,0
5567,1384,23505,0,0,0
5636,1414,23604,0,0,0
5715,1446,23716,0,0,0
5795,1480,23833,0,0,0
5865,1510,23940,0,0,0
5929,1536,24038,0,0,0
5992,1563,24134,0,0,0
6050,1587,24220,0,0,0
6092,1604,24283,0,0,0
6122,1617,24327,0,0,0
6145,1627,24360,0,0,0
6155,1630,24376,0,0,0
6150,1623,24370,0,0,0
6137,1613,24351,0,0,0
6121,1604,24327,0,0,0
6093,1593,24286,0,0,0
6047,1576,24221,0,0,0
5996,1559,24146,0,0,0
5942,1544,24073,0,0,0
5880,1525,23988,0,0,0
5811,1500,23886,0,0,0
5747,1477,23783,0,0,0
5691,1457,23688,0,0,0
5626,1433,23583,0,0,0
5548,1401,23462,0,0,0
5469,1370,23340,0,0,0
5392,1343,23221,0,0,0
5309,1311,23095,0,0,0
5222,1276,22962,0,0,0
5140,1244,22838,0,0,0
5061,1217,22724,0,0,0
4980,1187,22608,0,0,0
4899,1154,22487,0,0,0
4823,1124,22368,0,0,0
4749,1097,22249,0,0,0
4673,1068,22125,0,0,0
4598,1038,22001,0,0,0
4534,1014,21892,0,0,0
4478,993,21798,0,0,0
4420,968,21703,0,0,0
4359,939,21614,0,0,0
4308,915,21544,0,0,0
4260,895,21486,0,0,0
4208,873,21423,0,0,0
4159,856,21358,0,0,0
4122,847,21303,0,0,0
4084,838,21245,0,0,0
4037,823,21177,0,0,0
3987,807,21107,0,0,0
3939,795,21044,0,0,0
3890,783,20977,0,0,0
3835,768,20901,0,0,0
3779,751,20824,0,0,0
3726,734,20757,0,0,0
3672,713,20689,0,0,0
3614,687,20613,0,0,0
3562,661,20546,0,0,0
3523,639,20491,0,0,0
3487,621,20433,0,0,0
3445,603,20370,0,0,0
3415,590,20324,0,0,0
3410,588,20307,0,0,0
3429,593,20318,0,0,0
3474,607,20367,0,0,0
3563,638,20483,0,0,0
3703,688,20672,0,0,0
3885,754,20920,0,0,0
4108,835,21223,0,0,0
4377,935,21592,0,0,0
4683,1049,22021,0,0,0
5009,1170,22483,0,0,0
5350,1294,22966,0,0,0
5707,1427,23474,0,0,0
6071,1567,23996,0,0,0
6424,1702,24503,0,0,0
6755,1828,24990,0,0,0
7072,1951,25466,0,0,0
7370,2068,25918,0,0,0
7631,2167,26320,0,0,0
7857,2250,26667,0,0,0
8055,2323,26965,0,0,0
8215,2384,27211,0,0,0
8323,2426,27394,0,0,0
8392,2455,27520,0,0,0
8436,2479,27601,0,0,0
8453,2491,27637,0,0,0
8442,2488,27621,0,0,0
8413,2474,27572,0,0,0
8372,2456,27505,0,0,0
8314,2432,27414,0,0,0
8231,2401,27290,0,0,0
8134,2366,27147,0,0,0
8034,2331,27002,0,0,0
7925,2294,26849,0,0,0
7804,2249,26680,0,0,0
7686,2204,26511,0,0,0
7577,2166,26352,0,0,0
7471,2130,26195,0,0,0
7368,2090,26040,0,0,0
7278,2055,25902,0,0,0
7204,2027,25788,0,0,0
7139,2001,25681,0,0,0
7080,1978,25577,0,0,0
7032,1960,25492,0,0,0
6994,1949,25428,0,0,0
6956,1935,25364,0,0,0
6917,1918,25296,0,0,0
6885,1904,25237,0,0,0
6858,1893,25183,0,0,0
6824,1879,25118,0,0,0
6781,1861,25044,0,0,0
6741,1843,24979,0,0,0
6708,1829,24925,0,0,0
6670,1812,24871,0,0,0
6633,1791,24818,0,0,0
6608,1777,24781,0,0,0
6597,1770,24756,0,0,0
6590,1764,24733,0,0,0
6586,1757,24712,0,0,0
6592,1756,24710,0,0,0
6607,1761,24727,0,0,0
6625,1767,24749,0,0,0
6651,1777,24780,0,0,0
6691,1797,24834,0,0,0
6737,1822,24899,0,0,0
6779,1843,24961,0,0,0
6824,1860,25025,0,0,0
6882,1882,25106,0,0,0
6945,1907,25194,0,0,0
7001,1929,25274,0,0,0
7054,1951,25349,0,0,0
7105,1978,25425,0,0,0
7145,2000,25489,0,0,0
7167,2012,25532,0,0,0
7182,2018,25562,0,0,0
7194,2023,25584,0,0,0
7194,2021,25584,0,0,0
7178,2009,25557,0,0,0
7156,1995,25521,0,0,0
7131,1982,25485,0,0,0
7092,1965,25434,0,0,0
7037,1942,25364,0,0,0
6979,1920,25292,0,0,0
6923,1898,25219,0,0,0
6856,1871,25132,0,0,0
6776,1838,25026,0,0,0
6698,1810,24913,0,0,0
6627,1788,24803,0,0,0
6553,1767,24687,0,0,0
6474,1742,24566,0,0,0
6401,1717,24451,0,0,0
6335,1695,24341,0,0,0
6266,1671,24230,0,0,0
6195,1643,24121,0,0,0
6129,1617,24024,0,0,0
6068,1593,23931,0,0,0
6006,1566,23827,0,0,0
5940,1538,23717,0,0,0
5876,1515,23617,0,0,0
5809,1493,23523,0,0,0
5734,1467,23420,0,0,0
5657,1439,23317,0,0,0
5590,1415,23227,0,0,0
5530,1394,23145,0,0,0
5467,1369,23058,0,0,0
5406,1342,22971,0,0,0
5359,1323,22900,0,0,0
5319,1307,22835,0,0,0
5273,1288,22760,0,0,0
5227,1269,22684,0,0,0
5190,1255,22620,0,0,0
5155,1242,22557,0,0,0
5111,1224,22485,0,0,0
5066,1203,22411,0,0,0
5024,1184,22347,0,0,0
4980,1165,22286,0,0,0
4932,1141,22221,0,0,0
4886,1120,22158,0,0,0
4845,1103,22102,0,0,0
4798,1087,22041,0,0,0
4742,1068,21970,0,0,0
4691,1049,21902,0,0,0
4648,1030,21843,0,0,0
4603,1011,21780,0,0,0
4555,990,21711,0,0,0
4517,976,21653,0,0,0
4495,969,21617,0,0,0
4485,965,21595,0,0,0
4490,965,21593,0,0,0
4529,979,21640,0,0,0
4609,1011,21748,0,0,0
4726,1054,21909,0,0,0
4884,1109,22127,0,0,0
5093,1182,22419,0,0,0
5348,1277,22777,0,0,0
5629,1384,23173,0,0,0
5933,1499,23607,0,0,0
6265,1628,24081,0,0,0
6611,1764,24577,0,0,0
6951,1896,25068,0,0,0
7279,2024,25546,0,0,0
7597,2150,26014,0,0,0
7897,2270,26462,0,0,0
8167,2375,26866,0,0,0
8409,2468,27226,0,0,0
8627,2552,27551,0,0,0
8808,2623,27831,0,0,0
8948,2674,28050,0,0,0
9051,2709,28215,0,0,0
9126,2734,28338,0,0,0
9166,2748,28410,0,0,0
9170,2751,28426,0,0,0
9147,2746,28401,0,0,0
9105,2737,28351,0,0,0
9038,2719,28264,0,0,0
8946,2690,28139,0,0,0
8847,2657,27996,0,0,0
8749,2624,27848,0,0,0
8643,2583,27688,0,0,0
8527,2534,27509,0,0,0
8415,2484,27333,0,0,0
8312,2438,27168,0,0,0
8207,2395,27001,0,0,0
8103,2352,26833,0,0,0
8015,2316,26681,0,0,0
7942,2284,26551,0,0,0
7870,2252,26428,0,0,0
7801,2219,26311,0,0,0
7743,2194,26214,0,0,0
7695,2176,26138,0,0,0
7646,2157,26064,0,0,0
7593,2134,25983,0,0,0
7544,2117,25913,0,0,0
7501,2104,25853,0,0,0
7450,2089,25782,0,0,0
7395,2069,25704,0,0,0
7352,2055,25637,0,0,0
7320,2048,25582,0,0,0
7284,2039,25528,0,0,0
7250,2030,25483,0,0,0
7231,2028,25460,0,0,0
7225,2030,25450,0,0,0
7222,2029,25441,0,0,0
7223,2028,25444,0,0,0
7235,2035,25467,0,0,0
7259,2045,25502,0,0,0
7288,2053,25537,0,0,0
7323,2063,25577,0,0,0
7366,2082,25632,0,0,0
7412,2102,25690,0,0,0
7450,2116,25742,0,0,0
7485,2128,25795,0,0,0
7525,2140,25858,0,0,0
7562,2152,25915,0,0,0
7590,2160,25956,0,0,0
7620,2169,25998,0,0,0
7653,2184,26048,0,0,0
7680,2197,26092,0,0,0
7700,2202,26120,0,0,0
7723,2205,26144,0,0,0
7744,2211,26166,0,0,0
7755,2215,26175,0,0,0
7753,2214,26166,0,0,0
7743,2211,26155,0,0,0
7731,2208,26146,0,0,0
7707,2200,26121,0,0,0
7672,2187,26076,0,0,0
7635,2173,26025,0,0,0
7597,2160,25976,0,0,0
7549,2141,25913,0,0,0
7492,2118,25834,0,0,0
7436,2099,25753,0,0,0
7382,2083,25670,0,0,0
7322,2060,25575,0,0,0
7259,2032,25472,0,0,0
7200,2007,25376,0,0,0
7143,1985,25285,0,0,0
7079,1961,25184,0,0,0
7010,1935,25076,0,0,0
6946,1912,24978,0,0,0
6882,1891,24887,0,0,0
6813,1867,24789,0,0,0
6744,1841,24690,0,0,0
6682,1818,24604,0,0,0
6623,1796,24523,0,0,0
6561,1769,24434,0,0,0
6500,1742,24344,0,0,0
6443,1718,24265,0,0,0
6388,1697,24190,0,0,0
6329,1673,24108,0,0,0
6273,1652,24026,0,0,0
6227,1634,23955,0,0,0
6184,1618,23887,0,0,0
6139,1600,23817,0,0,0
6101,1585,23756,0,0,0
6070,1575,23708,0,0,0
6037,1562,23659,0,0,0
6000,1544,23599,0,0,0
5972,1527,23547,0,0,0
5952,1515,23510,0,0,0
5927,1502,23476,0,0,0
5894,1485,23438,0,0,0
5866,1471,23404,0,0,0
5846,1466,23375,0,0,0
5821,1460,23342,0,0,0
5787,1451,23299,0,0,0
5759,1445,23261,0,0,0
5740,1443,23232,0,0,0
5715,1435,23198,0,0,0
5686,1419,23158,0,0,0
5660,1403,23121,0,0,0
5638,1388,23084,0,0,0
5606,1369,23029,0,0,0
5564,1347,22963,0,0,0
5523,1330,22903,0,0,0
5486,1319,22850,0,0,0
5451,1308,22798,0,0,0
5427,1300,22757,0,0,0
5427,1303,22753,0,0,0
5456,1320,22795,0,0,0
5515,1346,22880,0,0,0
5615,1385,23022,0,0,0
5771,1443,23235,0,0,0
5972,1517,23512,0,0,0
6206,1600,23833,0,0,0
6474,1696,24201,0,0,0
6775,1809,24622,0,0,0
7092,1933,25080,0,0,0
7415,2058,25551,0,0,0
7747,2186,26031,0,0,0
8084,2321,26518,0,0,0
8412,2453,26991,0,0,0
8715,2573,27432,0,0,0
8996,2686,27847,0,0,0
9254,2793,28233,0,0,0
9476,2884,28574,0,0,0
9656,2956,28856,0,0,0
9807,3017,29088,0,0,0
9929,3071,29278,0,0,0
10013,3109,29417,0,0,0
10059,3127,29500,0,0,0
10079,3135,29542,0,0,0
10076,3135,29545,0,0,0
10045,3122,29501,0,0,0
9985,3095,29413,0,0,0
9910,3063,29299,0,0,0
9823,3026,29168,0,0,0
9717,2982,29013,0,0,0
9597,2934,28841,0,0,0
9478,2888,28670,0,0,0
9362,2846,28506,0,0,0
9239,2799,28330,0,0,0
9115,2747,28148,0,0,0
9004,2702,27980,0,0,0
8905,2664,27829,0,0,0
8810,2623,27683,0,0,0
8722,2584,27545,0,0,0
8649,2554,27430,0,0,0
8585,2528,27335,0,0,0
8523,2502,27247,0,0,0
8468,2480,27165,0,0,0
8425,2463,27098,0,0,0
8385,2449,27040,0,0,0
8339,2430,26972,0,0,0
8294,2408,26897,0,0,0
8259,2390,26832,0,0,0
8227,2373,26775,0,0,0
8190,2354,26715,0,0,0
8158,2336,26660,0,0,0
8141,2327,26623,0,0,0
8133,2327,26598,0,0,0
8127,2331,26577,0,0,0
8128,2338,26568,0,0,0
8143,2348,26581,0,0,0
8164,2359,26605,0,0,0
8184,2368,26629,0,0,0
8216,2380,26664,0,0,0
8263,2400,26720,0,0,0
8311,2421,26783,0,0,0
8352,2437,26844,0,0,0
8396,2457,26916,0,0,0
8448,2484,27000,0,0,0
8501,2509,27082,0,0,0
8551,2530,27154,0,0,0
8603,2555,27227,0,0,0
8654,2582,27300,0,0,0
8696,2602,27359,0,0,0
8729,2614,27400,0,0,0
8756,2622,27436,0,0,0
8772,2626,27466,0,0,0
8770,2622,27475,0,0,0
8758,2613,27463,0,0,0
8748,2607,27445,0,0,0
8732,2602,27420,0,0,0
8701,2591,27374,0,0,0
8656,2575,27313,0,0,0
8611,2558,27252,0,0,0
