green_channel,red_channel,ir_channel,Anomaly_ch0,Anomaly_ch1,Anomaly_ch2
60789,32766,41377,0,0,0
60740,32721,41295,0,0,0
60679,32666,41195,0,0,0
60601,32597,41071,0,0,0
60510,32517,40926,0,0,0
60412,32429,40769,0,0,0
60311,32337,40599,0,0,0
60206,32241,40419,0,0,0
60104,32149,40244,0,0,0
60006,32065,40078,0,0,0
59909,31985,39921,0,0,0
59811,31906,39773,0,0,0
59719,31833,39639,0,0,0
59639,31772,39519,0,0,0
59567,31719,39412,0,0,0
59502,31669,39315,0,0,0
59451,31629,39237,0,0,0
59411,31598,39175,0,0,0
59376,31568,39119,0,0,0
59346,31540,39070,0,0,0
59323,31519,39031,0,0,0
59305,31501,38998,0,0,0
59290,31484,38963,0,0,0
59276,31467,38926,0,0,0
59261,31454,38893,0,0,0
59242,31441,38862,0,0,0
59217,31420,38822,0,0,0
59187,31392,38777,0,0,0
59156,31364,38729,0,0,0
59118,31334,38671,0,0,0
59071,31299,38599,0,0,0
59018,31256,38516,0,0,0
58963,31210,38426,0,0,0
58906,31161,38325,0,0,0
58840,31105,38208,0,0,0
58766,31042,38078,0,0,0
58684,30975,37937,0,0,0
58590,30900,37783,0,0,0
58485,30813,37612,0,0,0
58372,30717,37427,0,0,0
58256,30617,37235,0,0,0
58133,30510,37034,0,0,0
58002,30396,36821,0,0,0
57865,30278,36598,0,0,0
57727,30162,36373,0,0,0
57589,30045,36144,0,0,0
57445,29926,35909,0,0,0
57298,29807,35673,0,0,0
57153,29692,35443,0,0,0
57010,29581,35217,0,0,0
56867,29472,34993,0,0,0
56726,29368,34774,0,0,0
56590,29269,34562,0,0,0
56457,29170,34354,0,0,0
56327,29069,34145,0,0,0
56200,28969,33941,0,0,0
56078,28872,33747,0,0,0
55958,28777,33556,0,0,0
55842,28685,33366,0,0,0
55728,28598,33182,0,0,0
55617,28514,33007,0,0,0
55507,28428,32833,0,0,0
55398,28341,32657,0,0,0
55294,28260,32484,0,0,0
55197,28184,32321,0,0,0
55101,28104,32162,0,0,0
55006,28019,32004,0,0,0
54914,27937,31853,0,0,0
54828,27861,31709,0,0,0
54744,27788,31567,0,0,0
54663,27718,31429,0,0,0
54588,27657,31300,0,0,0
54515,27600,31178,0,0,0
54441,27540,31054,0,0,0
54366,27478,30930,0,0,0
54292,27417,30814,0,0,0
54216,27357,30702,0,0,0
54136,27294,30591,0,0,0
54057,27233,30484,0,0,0
53986,27180,30384,0,0,0
53920,27130,30285,0,0,0
53853,27075,30179,0,0,0
53782,27018,30069,0,0,0
53710,26961,29959,0,0,0
53635,26903,29849,0,0,0
53557,26841,29733,0,0,0
53479,26779,29613,0,0,0
53404,26723,29497,0,0,0
53333,26670,29383,0,0,0
53263,26615,29268,0,0,0
53193,26561,29154,0,0,0
53125,26510,29043,0,0,0
53055,26459,28932,0,0,0
52982,26402,28818,0,0,0
52910,26342,28703,0,0,0
52840,26285,28593,0,0,0
52770,26229,28482,0,0,0
52697,26172,28369,0,0,0
52626,26118,28259,0,0,0
52556,26065,28154,0,0,0
52482,26011,28051,0,0,0
52406,25955,27948,0,0,0
52335,25902,27848,0,0,0
52264,25849,27748,0,0,0
52189,25792,27640,0,0,0
52112,25732,27528,0,0,0
52038,25671,27420,0,0,0
51965,25613,27315,0,0,0
51891,25556,27210,0,0,0
51818,25503,27105,0,0,0
51749,25456,27006,0,0,0
51683,25412,26910,0,0,0
51618,25368,26811,0,0,0
51551,25323,26710,0,0,0
51484,25277,26611,0,0,0
51414,25230,26511,0,0,0
51341,25180,26405,0,0,0
51266,25127,26294,0,0,0
51193,25077,26184,0,0,0
51119,25030,26077,0,0,0
51042,24979,25971,0,0,0
50967,24926,25867,0,0,0
50899,24874,25770,0,0,0
50833,24824,25679,0,0,0
50774,24779,25599,0,0,0
50729,24746,25543,0,0,0
50708,24732,25526,0,0,0
50717,24745,25560,0,0,0
50763,24790,25658,0,0,0
50860,24878,25846,0,0,0
51025,25024,26155,0,0,0
51275,25236,26611,0,0,0
51623,25525,27234,0,0,0
52082,25901,28040,0,0,0
52647,26365,29018,0,0,0
53300,26899,30125,0,0,0
54011,27476,31306,0,0,0
54741,28069,32506,0,0,0
55452,28652,33672,0,0,0
56118,29197,34758,0,0,0
56726,29689,35738,0,0,0
57267,30122,36602,0,0,0
57736,30499,37351,0,0,0
58133,30817,37985,0,0,0
58465,31078,38506,0,0,0
58738,31291,38928,0,0,0
58957,31461,39263,0,0,0
59122,31589,39519,0,0,0
59243,31682,39703,0,0,0
59330,31748,39831,0,0,0
59389,31790,39912,0,0,0
59420,31808,39953,0,0,0
59430,31810,39963,0,0,0
59429,31805,39957,0,0,0
59421,31795,39941,0,0,0
59402,31776,39910,0,0,0
59375,31750,39870,0,0,0
59347,31722,39828,0,0,0
59320,31693,39783,0,0,0
59292,31661,39733,0,0,0
59267,31632,39685,0,0,0
59249,31613,39645,0,0,0
59236,31599,39612,0,0,0
59224,31583,39579,0,0,0
59215,31569,39551,0,0,0
59215,31565,39533,0,0,0
59221,31563,39521,0,0,0
59230,31561,39511,0,0,0
59240,31562,39505,0,0,0
59251,31567,39506,0,0,0
59261,31574,39511,0,0,0
59270,31581,39516,0,0,0
59278,31587,39519,0,0,0
59283,31592,39518,0,0,0
59278,31589,39504,0,0,0
59263,31576,39475,0,0,0
59237,31555,39430,0,0,0
59197,31525,39367,0,0,0
59143,31484,39284,0,0,0
59078,31431,39180,0,0,0
59003,31372,39060,0,0,0
58917,31307,38925,0,0,0
58820,31234,38774,0,0,0
58718,31157,38609,0,0,0
58615,31077,38438,0,0,0
58514,30992,38269,0,0,0
58411,30904,38102,0,0,0
58312,30816,37940,0,0,0
58218,30736,37790,0,0,0
58129,30662,37655,0,0,0
58047,30591,37528,0,0,0
57980,30528,37414,0,0,0
57927,30479,37322,0,0,0
57888,30441,37252,0,0,0
57861,30411,37196,0,0,0
57846,30391,37154,0,0,0
57844,30384,37132,0,0,0
57850,30386,37123,0,0,0
57854,30386,37115,0,0,0
57854,30387,37110,0,0,0
57855,30394,37112,0,0,0
57859,30405,37117,0,0,0
57859,30411,37115,0,0,0
57855,30412,37107,0,0,0
57849,30413,37098,0,0,0
57838,30408,37084,0,0,0
57819,30396,37058,0,0,0
57795,30380,37020,0,0,0
57768,30363,36974,0,0,0
57729,30339,36917,0,0,0
57678,30300,36840,0,0,0
57617,30250,36743,0,0,0
57546,30191,36632,0,0,0
57460,30120,36505,0,0,0
57361,30036,36358,0,0,0
57258,29947,36198,0,0,0
57152,29856,36029,0,0,0
57043,29762,35849,0,0,0
56931,29666,35661,0,0,0
56818,29571,35468,0,0,0
56701,29476,35273,0,0,0
56581,29377,35071,0,0,0
56459,29276,34863,0,0,0
56334,29174,34650,0,0,0
56207,29071,34437,0,0,0
56076,28966,34222,0,0,0
55944,28861,34005,0,0,0
55817,28761,33793,0,0,0
55693,28667,33591,0,0,0
55573,28575,33395,0,0,0
55457,28483,33203,0,0,0
55346,28394,33018,0,0,0
55238,28305,32837,0,0,0
55130,28214,32657,0,0,0
55024,28123,32480,0,0,0
54925,28038,32312,0,0,0
54829,27957,32152,0,0,0
54731,27876,31991,0,0,0
54634,27797,31834,0,0,0
54542,27724,31686,0,0,0
54453,27656,31544,0,0,0
54364,27588,31404,0,0,0
54277,27525,31269,0,0,0
54196,27472,31146,0,0,0
54119,27425,31034,0,0,0
54042,27374,30925,0,0,0
53967,27321,30816,0,0,0
53897,27272,30711,0,0,0
53829,27222,30607,0,0,0
53760,27169,30498,0,0,0
53692,27114,30388,0,0,0
53630,27064,30285,0,0,0
53570,27016,30185,0,0,0
53510,26967,30087,0,0,0
53455,26920,29991,0,0,0
53403,26878,29897,0,0,0
53349,26834,29801,0,0,0
53292,26784,29701,0,0,0
53232,26733,29602,0,0,0
53171,26686,29508,0,0,0
53108,26639,29413,0,0,0
53043,26590,29316,0,0,0
52981,26541,29218,0,0,0
52920,26496,29123,0,0,0
52861,26449,29026,0,0,0
52802,26401,28927,0,0,0
52746,26358,28830,0,0,0
52687,26315,28733,0,0,0
52621,26266,28629,0,0,0
52548,26212,28519,0,0,0
52473,26156,28408,0,0,0
52397,26097,28295,0,0,0
52317,26036,28177,0,0,0
52236,25974,28058,0,0,0
52159,25915,27942,0,0,0
52084,25859,27828,0,0,0
52011,25801,27714,0,0,0
51940,25745,27606,0,0,0
51871,25693,27502,0,0,0
51802,25642,27401,0,0,0
51734,25592,27303,0,0,0
51673,25547,27215,0,0,0
51624,25515,27147,0,0,0
51592,25497,27103,0,0,0
51580,25494,27088,0,0,0
51595,25511,27123,0,0,0
51649,25562,27234,0,0,0
51756,25656,27442,0,0,0
51933,25804,27775,0,0,0
52200,26024,28260,0,0,0
52567,26330,28910,0,0,0
53034,26719,29719,0,0,0
53591,27180,30663,0,0,0
54217,27697,31701,0,0,0
54881,28244,32785,0,0,0
55545,28790,33859,0,0,0
56183,29310,34879,0,0,0
56779,29790,35824,0,0,0
57324,30224,36683,0,0,0
57807,30605,37444,0,0,0
58226,30931,38104,0,0,0
58587,31209,38667,0,0,0
58890,31448,39140,0,0,0
59138,31646,39524,0,0,0
59336,31802,39826,0,0,0
59491,31924,40062,0,0,0
59608,32019,40244,0,0,0
59693,32086,40375,0,0,0
59754,32130,40464,0,0,0
59798,32162,40522,0,0,0
59828,32187,40558,0,0,0
59846,32204,40574,0,0,0
59856,32208,40572,0,0,0
59861,32207,40561,0,0,0
59863,32202,40543,0,0,0
59859,32190,40513,0,0,0
59850,32170,40476,0,0,0
59838,32152,40442,0,0,0
59826,32135,40409,0,0,0
59809,32113,40370,0,0,0
59793,32088,40329,0,0,0
59781,32068,40296,0,0,0
59775,32053,40271,0,0,0
59770,32039,40250,0,0,0
59770,32026,40234,0,0,0
59777,32023,40229,0,0,0
59788,32024,40233,0,0,0
59796,32024,40236,0,0,0
59803,32023,40239,0,0,0
59813,32027,40245,0,0,0
59823,32030,40251,0,0,0
59828,32025,40247,0,0,0
59828,32016,40231,0,0,0
59823,32006,40204,0,0,0
59804,31987,40158,0,0,0
59770,31953,40084,0,0,0
59724,31905,39988,0,0,0
59666,31851,39878,0,0,0
59594,31788,39753,0,0,0
59510,31717,39612,0,0,0
59418,31642,39463,0,0,0
59321,31568,39313,0,0,0
59220,31489,39159,0,0,0
59118,31404,39000,0,0,0
59022,31325,38848,0,0,0
58937,31255,38708,0,0,0
58857,31190,38578,0,0,0
58785,31130,38459,0,0,0
58723,31080,38359,0,0,0
58672,31041,38280,0,0,0
58630,31005,38216,0,0,0
58595,30972,38163,0,0,0
58571,30949,38124,0,0,0
58554,30935,38095,0,0,0
58540,30922,38070,0,0,0
58529,30910,38046,0,0,0
58524,30908,38029,0,0,0
58520,30911,38017,0,0,0
58513,30911,38004,0,0,0
58504,30905,37988,0,0,0
58496,30897,37974,0,0,0
58489,30888,37956,0,0,0
58476,30871,37925,0,0,0
58456,30847,37883,0,0,0
58432,30822,37838,0,0,0
58403,30793,37786,0,0,0
58362,30754,37716,0,0,0
58313,30710,37630,0,0,0
58257,30667,37532,0,0,0
58193,30618,37424,0,0,0
58114,30557,37300,0,0,0
58021,30485,37162,0,0,0
57920,30408,37014,0,0,0
57813,30326,36856,0,0,0
57702,30234,36682,0,0,0
57586,30136,36495,0,0,0
57464,30036,36300,0,0,0
57336,29932,36096,0,0,0
57203,29823,35881,0,0,0
57068,29712,35664,0,0,0
56936,29605,35451,0,0,0
56807,29499,35236,0,0,0
56679,29392,35015,0,0,0
56558,29289,34799,0,0,0
56441,29191,34589,0,0,0
56323,29092,34382,0,0,0
56203,28991,34176,0,0,0
56081,28893,33974,0,0,0
55959,28799,33781,0,0,0
55838,28705,33590,0,0,0
55720,28612,33404,0,0,0
55608,28526,33228,0,0,0
55502,28450,33066,0,0,0
55400,28375,32907,0,0,0
55301,28300,32749,0,0,0
55208,28227,32600,0,0,0
55118,28154,32457,0,0,0
55028,28079,32309,0,0,0
54939,28001,32158,0,0,0
54850,27927,32013,0,0,0
54761,27857,31876,0,0,0
54672,27785,31739,0,0,0
54585,27713,31604,0,0,0
54502,27648,31474,0,0,0
54423,27587,31345,0,0,0
54344,27523,31212,0,0,0
54265,27462,31082,0,0,0
54192,27408,30961,0,0,0
54121,27358,30845,0,0,0
54048,27306,30729,0,0,0
53979,27254,30614,0,0,0
53915,27207,30507,0,0,0
53855,27160,30404,0,0,0
53795,27108,30302,0,0,0
53737,27055,30203,0,0,0
53678,27007,30110,0,0,0
53617,26962,30020,0,0,0
53552,26916,29925,0,0,0
53488,26870,29829,0,0,0
53422,26824,29735,0,0,0
53353,26776,29637,0,0,0
53282,26723,29532,0,0,0
53215,26669,29429,0,0,0
53153,26618,29331,0,0,0
53093,26567,29234,0,0,0
53033,26514,29137,0,0,0
52973,26465,29043,0,0,0
52913,26418,28953,0,0,0
52851,26371,28864,0,0,0
52787,26321,28772,0,0,0
52722,26270,28680,0,0,0
52658,26221,28588,0,0,0
52592,26171,28490,0,0,0
52526,26119,28386,0,0,0
52462,26067,28281,0,0,0
52398,26015,28177,0,0,0
52330,25960,28069,0,0,0
52259,25902,27956,0,0,0
52190,25849,27844,0,0,0
52122,25802,27733,0,0,0
52052,25753,27616,0,0,0
51981,25702,27495,0,0,0
51914,25654,27378,0,0,0
51847,25607,27263,0,0,0
51774,25556,27148,0,0,0
51702,25504,27037,0,0,0
51634,25457,26937,0,0,0
51566,25412,26845,0,0,0
51500,25368,26758,0,0,0
51444,25331,26685,0,0,0
51408,25310,26642,0,0,0
51398,25308,26641,0,0,0
51421,25330,26699,0,0,0
51490,25389,26838,0,0,0
51624,25503,27094,0,0,0
51842,25685,27496,0,0,0
52161,25945,28067,0,0,0
52592,26295,28824,0,0,0
53132,26738,29759,0,0,0
53760,27257,30825,0,0,0
54443,27819,31962,0,0,0
55149,28397,33112,0,0,0
55845,28964,34232,0,0,0
56508,29500,35287,0,0,0
57120,29988,36252,0,0,0
57673,30428,37118,0,0,0
58163,30819,37883,0,0,0
58584,31156,38537,0,0,0
58935,31436,39079,0,0,0
59226,31665,39524,0,0,0
59462,31851,39883,0,0,0
59648,31997,40159,0,0,0
59792,32105,40366,0,0,0
59902,32185,40524,0,0,0
59984,32245,40640,0,0,0
60042,32283,40716,0,0,0
60084,32305,40761,0,0,0
60119,32319,40791,0,0,0
60146,32328,40812,0,0,0
60164,32328,40820,0,0,0
60175,32326,40820,0,0,0
60184,32329,40823,0,0,0
60194,32336,40828,0,0,0
60203,32338,40828,0,0,0
60212,32338,40830,0,0,0
60228,32345,40844,0,0,0
60252,32360,40864,0,0,0
60276,32372,40882,0,0,0
60300,32383,40898,0,0,0
60326,32397,40920,0,0,0
60353,32414,40943,0,0,0
60378,32428,40962,0,0,0
60405,32444,40985,0,0,0
60438,32466,41017,0,0,0
60474,32491,41056,0,0,0
60510,32514,41094,0,0,0
60547,32535,41128,0,0,0
60583,32557,41161,0,0,0
60616,32576,41190,0,0,0
60642,32590,41213,0,0,0
60658,32600,41229,0,0,0
60665,32606,41236,0,0,0
60663,32605,41226,0,0,0
60652,32592,41194,0,0,0
60630,32569,41144,0,0,0
60597,32538,41078,0,0,0
60552,32497,40995,0,0,0
60497,32448,40893,0,0,0
60437,32393,40776,0,0,0
60369,32331,40647,0,0,0
60293,32262,40507,0,0,0
60212,32187,40360,0,0,0
60130,32114,40220,0,0,0
60050,32047,40087,0,0,0
59970,31983,39962,0,0,0
59897,31921,39844,0,0,0
59833,31865,39738,0,0,0
59777,31815,39646,0,0,0
59729,31770,39565,0,0,0
59690,31735,39496,0,0,0
59662,31710,39444,0,0,0
59640,31693,39405,0,0,0
59617,31679,39371,0,0,0
59597,31666,39341,0,0,0
59582,31657,39315,0,0,0
59567,31649,39290,0,0,0
59548,31635,39261,0,0,0
59530,31620,39229,0,0,0
59513,31605,39200,0,0,0
59496,31588,39168,0,0,0
59478,31566,39126,0,0,0
59460,31544,39080,0,0,0
59439,31524,39034,0,0,0
59408,31497,38982,0,0,0
59364,31460,38916,0,0,0
59309,31417,38842,0,0,0
59244,31369,38762,0,0,0
59171,31313,38670,0,0,0
59094,31247,38562,0,0,0
59019,31177,38440,0,0,0
58942,31104,38308,0,0,0
58858,31029,38163,0,0,0
58764,30949,38003,0,0,0
58665,30867,37836,0,0,0
58561,30783,37667,0,0,0
58451,30693,37489,0,0,0
58337,30597,37301,0,0,0
58222,30504,37110,0,0,0
58106,30412,36917,0,0,0
57985,30314,36718,0,0,0
57860,30210,36516,0,0,0
57736,30106,36316,0,0,0
57612,30004,36114,0,0,0
57484,29899,35907,0,0,0
57354,29793,35697,0,0,0
57227,29690,35494,0,0,0
57102,29590,35299,0,0,0
56980,29489,35108,0,0,0
56864,29391,34923,0,0,0
56755,29299,34744,0,0,0
56650,29212,34568,0,0,0
56545,29126,34392,0,0,0
56440,29041,34218,0,0,0
56341,28959,34053,0,0,0
56244,28879,33893,0,0,0
56145,28798,33735,0,0,0
56046,28719,33578,0,0,0
55948,28644,33427,0,0,0
55851,28570,33276,0,0,0
55755,28495,33123,0,0,0
55663,28421,32976,0,0,0
55578,28353,32839,0,0,0
55496,28289,32705,0,0,0
55413,28225,32570,0,0,0
55332,28163,32439,0,0,0
55256,28105,32315,0,0,0
55180,28050,32193,0,0,0
55102,27992,32070,0,0,0
55026,27932,31952,0,0,0
54953,27874,31840,0,0,0
54881,27815,31725,0,0,0
54806,27756,31602,0,0,0
54729,27696,31476,0,0,0
54652,27638,31349,0,0,0
54571,27579,31220,0,0,0
54487,27517,31087,0,0,0
54406,27455,30953,0,0,0
54330,27395,30825,0,0,0
54254,27336,30703,0,0,0
54178,27277,30586,0,0,0
54106,27221,30476,0,0,0
54036,27169,30370,0,0,0
53968,27116,30264,0,0,0
53901,27062,30156,0,0,0
53834,27008,30049,0,0,0
53764,26953,29939,0,0,0
53688,26893,29824,0,0,0
53612,26831,29709,0,0,0
53541,26773,29599,0,0,0
53474,26719,29494,0,0,0
53408,26666,29386,0,0,0
53345,26618,29276,0,0,0
53283,26575,29173,0,0,0
53219,26533,29074,0,0,0
53151,26485,28969,0,0,0
53085,26434,28859,0,0,0
53020,26384,28749,0,0,0
52953,26335,28635,0,0,0
52879,26280,28514,0,0,0
52801,26220,28390,0,0,0
52722,26160,28269,0,0,0
52638,26097,28149,0,0,0
52549,26028,28025,0,0,0
52460,25958,27899,0,0,0
52378,25893,27779,0,0,0
52301,25833,27663,0,0,0
52224,25772,27544,0,0,0
52147,25710,27424,0,0,0
52070,25653,27308,0,0,0
51993,25599,27195,0,0,0
51917,25544,27083,0,0,0
51844,25492,26977,0,0,0
51777,25446,26880,0,0,0
51715,25405,26792,0,0,0
51662,25369,26714,0,0,0
51627,25346,26664,0,0,0
51619,25345,26658,0,0,0
51643,25369,26708,0,0,0
51710,25425,26834,0,0,0
51838,25529,27070,0,0,0
52046,25700,27451,0,0,0
52350,25950,28001,0,0,0
52761,26287,28732,0,0,0
53283,26717,29639,0,0,0
53898,27227,30688,0,0,0
54574,27784,31821,0,0,0
55273,28354,32977,0,0,0
55965,28917,34111,0,0,0
56624,29455,35184,0,0,0
57233,29952,36169,0,0,0
57781,30400,37053,0,0,0
58268,30796,37830,0,0,0
58690,31139,38495,0,0,0
59044,31424,39047,0,0,0
59336,31656,39495,0,0,0
59572,31843,39854,0,0,0
59757,31991,40135,0,0,0
59899,32102,40345,0,0,0
60010,32182,40497,0,0,0
60096,32241,40607,0,0,0
60158,32277,40686,0,0,0
60196,32294,40733,0,0,0
60217,32300,40755,0,0,0
60232,32302,40762,0,0,0
60239,32299,40755,0,0,0
60238,32286,40731,0,0,0
60232,32271,40700,0,0,0
60226,32256,40671,0,0,0
60215,32241,40640,0,0,0
60201,32222,40607,0,0,0
60186,32206,40576,0,0,0
60176,32198,40554,0,0,0
60171,32195,40540,0,0,0
60172,32192,40528,0,0,0
60181,32193,40519,0,0,0
60196,32200,40518,0,0,0
60213,32211,40522,0,0,0
60230,32224,40526,0,0,0
60251,32239,40534,0,0,0
60271,32254,40547,0,0,0
60291,32266,40560,0,0,0
60310,32275,40571,0,0,0
60326,32283,40581,0,0,0
60336,32288,40588,0,0,0
60337,32283,40580,0,0,0
60326,32266,40553,0,0,0
60304,32240,40511,0,0,0
60268,32202,40455,0,0,0
60217,32148,40377,0,0,0
60152,32081,40274,0,0,0
60079,32013,40152,0,0,0
59997,31941,40013,0,0,0
59902,31860,39855,0,0,0
59800,31773,39682,0,0,0
59696,31687,39506,0,0,0
59590,31601,39332,0,0,0
59483,31513,39159,0,0,0
59380,31426,38990,0,0,0
59288,31346,38834,0,0,0
59203,31272,38692,0,0,0
59123,31203,38563,0,0,0
59049,31143,38451,0,0,0
58986,31099,38363,0,0,0
58934,31063,38292,0,0,0
58892,31030,38233,0,0,0
58861,31003,38188,0,0,0
58844,30986,38159,0,0,0
58834,30978,38143,0,0,0
58829,30971,38133,0,0,0
58829,30967,38128,0,0,0
58832,30970,38131,0,0,0
58836,30973,38136,0,0,0
58840,30973,38135,0,0,0
58843,30969,38127,0,0,0
58843,30966,38116,0,0,0
58837,30961,38097,0,0,0
58823,30950,38068,0,0,0
58803,30935,38031,0,0,0
58782,30920,37989,0,0,0
58753,30895,37932,0,0,0
58711,30858,37857,0,0,0
58660,30814,37770,0,0,0
58602,30768,37669,0,0,0
58533,30713,37551,0,0,0
58453,30648,37418,0,0,0
58360,30575,37271,0,0,0
58256,30496,37111,0,0,0
58144,30408,36939,0,0,0
58029,30315,36758,0,0,0
57913,30221,36572,0,0,0
57795,30125,36383,0,0,0
57674,30023,36187,0,0,0
57550,29921,35984,0,0,0
57425,29822,35783,0,0,0
57300,29725,35582,0,0,0
57174,29628,35377,0,0,0
57054,29529,35169,0,0,0
56939,29431,34967,0,0,0
56827,29332,34769,0,0,0
56711,29228,34570,0,0,0
56592,29122,34373,0,0,0
56476,29022,34183,0,0,0
56361,28928,33996,0,0,0
56246,28834,33809,0,0,0
56134,28742,33627,0,0,0
56027,28659,33456,0,0,0
55921,28581,33294,0,0,0
55816,28504,33136,0,0,0
55716,28428,32985,0,0,0
55621,28358,32845,0,0,0
55528,28289,32711,0,0,0
55434,28219,32580,0,0,0
55344,28152,32453,0,0,0
55262,28093,32334,0,0,0
55186,28036,32216,0,0,0
55116,27980,32094,0,0,0
55051,27926,31975,0,0,0
54991,27876,31863,0,0,0
54930,27826,31754,0,0,0
54869,27775,31643,0,0,0
54810,27727,31540,0,0,0
54754,27686,31447,0,0,0
54699,27648,31357,0,0,0
54643,27606,31266,0,0,0
54586,27563,31177,0,0,0
54526,27521,31088,0,0,0
54460,27475,30994,0,0,0
54391,27424,30894,0,0,0
54324,27375,30794,0,0,0
54261,27330,30695,0,0,0
54197,27282,30595,0,0,0
54131,27232,30495,0,0,0
54067,27183,30399,0,0,0
54003,27133,30304,0,0,0
53936,27080,30203,0,0,0
53864,27025,30096,0,0,0
53796,26973,29990,0,0,0
53730,26926,29882,0,0,0
53660,26876,29768,0,0,0
53586,26821,29648,0,0,0
53513,26766,29529,0,0,0
53441,26713,29411,0,0,0
53367,26656,29290,0,0,0
53292,26599,29167,0,0,0
53220,26547,29045,0,0,0
53145,26496,28924,0,0,0
53066,26440,28803,0,0,0
52987,26385,28685,0,0,0
52915,26337,28575,0,0,0
52849,26290,28473,0,0,0
52788,26243,28378,0,0,0
52735,26200,28297,0,0,0
52698,26171,28242,0,0,0
52681,26158,28223,0,0,0
52690,26167,28253,0,0,0
52738,26212,28356,0,0,0
52843,26309,28565,0,0,0
53024,26468,28907,0,0,0
53296,26699,29400,0,0,0
53667,27009,30059,0,0,0
54136,27402,30877,0,0,0
54688,27864,31821,0,0,0
55298,28371,32842,0,0,0
55937,28900,33896,0,0,0
56575,29430,34941,0,0,0
57190,29936,35937,0,0,0
57767,30405,36862,0,0,0
58298,30835,37705,0,0,0
58773,31221,38456,0,0,0
59185,31554,39104,0,0,0
59536,31833,39647,0,0,0
59830,32065,40098,0,0,0
60068,32254,40470,0,0,0
60255,32403,40767,0,0,0
60400,32518,40998,0,0,0
60512,32605,41174,0,0,0
60597,32668,41300,0,0,0
60658,32709,41380,0,0,0
60702,32733,41428,0,0,0
60737,32747,41456,0,0,0
60760,32753,41469,0,0,0
60772,32750,41464,0,0,0
60778,32741,41445,0,0,0
60778,32729,41422,0,0,0
60770,32711,41393,0,0,0
60756,32688,41354,0,0,0
60742,32666,41313,0,0,0
60732,32652,41279,0,0,0
60726,32644,41248,0,0,0
60721,32638,41218,0,0,0
60719,32632,41195,0,0,0
60718,32631,41185,0,0,0
60719,32634,41186,0,0,0
60719,32635,41186,0,0,0
60720,32636,41189,0,0,0
60729,32644,41202,0,0,0
60747,32655,41222,0,0,0
60766,32663,41238,0,0,0
60781,32669,41247,0,0,0
60795,32674,41250,0,0,0
60803,32675,41239,0,0,0
60802,32666,41210,0,0,0
60791,32650,41168,0,0,0
60768,32626,41115,0,0,0
60728,32589,41042,0,0,0
60673,32540,40949,0,0,0
60607,32485,40843,0,0,0
60531,32426,40723,0,0,0
60443,32357,40582,0,0,0
60349,32279,40423,0,0,0
60255,32196,40258,0,0,0
60158,32110,40092,0,0,0
60058,32017,39921,0,0,0
59959,31925,39755,0,0,0
59869,31842,39606,0,0,0
59788,31771,39475,0,0,0
59713,31706,39354,0,0,0
59648,31646,39243,0,0,0
59595,31597,39151,0,0,0
59553,31559,39077,0,0,0
59519,31530,39018,0,0,0
59493,31510,38974,0,0,0
59477,31501,38950,0,0,0
59468,31499,38937,0,0,0
59460,31499,38928,0,0,0
59452,31500,38922,0,0,0
59447,31503,38921,0,0,0
59443,31504,38919,0,0,0
59439,31499,38911,0,0,0
59436,31491,38901,0,0,0
59434,31486,38891,0,0,0
59423,31479,38877,0,0,0
59403,31465,38849,0,0,0
59379,31447,38810,0,0,0
59354,31426,38762,0,0,0
59319,31398,38702,0,0,0
59271,31358,38626,0,0,0
59214,31308,38533,0,0,0
59150,31255,38430,0,0,0
59076,31194,38316,0,0,0
58994,31122,38186,0,0,0
58905,31043,38043,0,0,0
58810,30962,37889,0,0,0
58704,30876,37719,0,0,0
58588,30782,37531,0,0,0
58466,30685,37334,0,0,0
58341,30588,37134,0,0,0
58213,30486,36930,0,0,0
58083,30381,36720,0,0,0
57952,30277,36506,0,0,0
57817,30173,36287,0,0,0
57678,30064,36063,0,0,0
57541,29954,35838,0,0,0
57411,29846,35619,0,0,0
57285,29741,35403,0,0,0
57159,29636,35188,0,0,0
57036,29531,34978,0,0,0
56917,29430,34781,0,0,0
56798,29332,34595,0,0,0
56681,29234,34410,0,0,0
56570,29141,34225,0,0,0
56465,29058,34050,0,0,0
56363,28978,33882,0,0,0
56258,28895,33716,0,0,0
56153,28810,33555,0,0,0
56052,28731,33401,0,0,0
55959,28659,33252,0,0,0
55870,28588,33100,0,0,0
55787,28521,32952,0,0,0
55709,28462,32815,0,0,0
55632,28405,32685,0,0,0
55550,28343,32550,0,0,0
55469,28277,32413,0,0,0
55390,28214,32281,0,0,0
55309,28151,32152,0,0,0
55224,28084,32021,0,0,0
55137,28018,31892,0,0,0
55056,27957,31772,0,0,0
54981,27898,31656,0,0,0
54908,27839,31541,0,0,0
54838,27785,31428,0,0,0
54769,27736,31320,0,0,0
54698,27687,31208,0,0,0
54625,27635,31095,0,0,0
54555,27584,30987,0,0,0
54490,27534,30885,0,0,0
54427,27483,30783,0,0,0
54361,27429,30677,0,0,0
54295,27377,30570,0,0,0
54231,27324,30466,0,0,0
54164,27267,30360,0,0,0
54095,27212,30249,0,0,0
54027,27160,30140,0,0,0
53961,27112,30037,0,0,0
53891,27062,29936,0,0,0
53821,27011,29837,0,0,0
53755,26964,29745,0,0,0
53691,26920,29656,0,0,0
53626,26873,29560,0,0,0
53565,26827,29460,0,0,0
53506,26785,29361,0,0,0
53446,26743,29261,0,0,0
53381,26696,29154,0,0,0
53313,26644,29042,0,0,0
53243,26591,28934,0,0,0
53171,26537,28828,0,0,0
53094,26478,28721,0,0,0
53016,26416,28611,0,0,0
52943,26357,28500,0,0,0
52871,26301,28385,0,0,0
52799,26241,28262,0,0,0
52728,26180,28139,0,0,0
52660,26123,28025,0,0,0
52591,26069,27914,0,0,0
52518,26014,27800,0,0,0
52445,25958,27687,0,0,0
52373,25905,27582,0,0,0
52302,25852,27478,0,0,0
52231,25801,27373,0,0,0
52162,25756,27271,0,0,0
52097,25717,27179,0,0,0
52037,25680,27094,0,0,0
51983,25646,27017,0,0,0
51945,25621,26962,0,0,0
51930,25614,26950,0,0,0
51945,25631,26996,0,0,0
52004,25682,27124,0,0,0
52129,25785,27367,0,0,0
52339,25958,27760,0,0,0
52650,26213,28326,0,0,0
53076,26561,29078,0,0,0
53614,27003,30008,0,0,0
54245,27527,31083,0,0,0
54936,28101,32242,0,0,0
55654,28692,33426,0,0,0
56369,29277,34587,0,0,0
57053,29838,35692,0,0,0
57687,30356,36710,0,0,0
58264,30820,37626,0,0,0
58774,31230,38432,0,0,0
59210,31585,39124,0,0,0
59574,31883,39698,0,0,0
59875,32125,40164,0,0,0
60125,32322,40539,0,0,0
60325,32478,40834,0,0,0
60479,32595,41059,0,0,0
60597,32682,41229,0,0,0
60687,32750,41359,0,0,0
60753,32799,41452,0,0,0
60800,32829,41507,0,0,0
60834,32847,41536,0,0,0
60858,32861,41551,0,0,0
60870,32870,41556,0,0,0
60873,32868,41549,0,0,0
60874,32860,41535,0,0,0
60877,32854,41523,0,0,0
60883,32852,41515,0,0,0
60891,32849,41510,0,0,0
60900,32846,41510,0,0,0
60910,32848,41517,0,0,0
60921,32852,41525,0,0,0
60934,32856,41533,0,0,0
60951,32862,41545,0,0,0
60973,32874,41561,0,0,0
60999,32890,41584,0,0,0
61025,32906,41613,0,0,0
61053,32926,41651,0,0,0
61083,32949,41696,0,0,0
61112,32972,41738,0,0,0
61141,32991,41774,0,0,0
61169,33006,41808,0,0,0
61194,33020,41838,0,0,0
61214,33027,41858,0,0,0
61232,33029,41868,0,0,0
61246,33030,41870,0,0,0
61249,33027,41859,0,0,0
61236,33013,41824,0,0,0
61211,32986,41763,0,0,0
61174,32949,41685,0,0,0
61122,32900,41588,0,0,0
61054,32838,41468,0,0,0
60974,32768,41328,0,0,0
60889,32694,41177,0,0,0
60798,32617,41019,0,0,0
60702,32531,40855,0,0,0
60603,32442,40689,0,0,0
60506,32358,40531,0,0,0
60411,32276,40381,0,0,0
60319,32193,40234,0,0,0
60234,32116,40095,0,0,0
60160,32048,39973,0,0,0
60094,31988,39867,0,0,0
60036,31932,39773,0,0,0
59989,31885,39692,0,0,0
59954,31848,39625,0,0,0
59926,31819,39573,0,0,0
59900,31796,39529,0,0,0
59878,31778,39494,0,0,0
59863,31766,39470,0,0,0
59851,31755,39449,0,0,0
59838,31741,39424,0,0,0
59823,31728,39395,0,0,0
59806,31716,39367,0,0,0
59786,31702,39337,0,0,0
59762,31679,39300,0,0,0
59736,31653,39256,0,0,0
59709,31628,39206,0,0,0
59676,31599,39143,0,0,0
59634,31562,39067,0,0,0
59583,31519,38983,0,0,0
59524,31470,38891,0,0,0
59453,31411,38784,0,0,0
59372,31345,38659,0,0,0
59286,31278,38524,0,0,0
59197,31212,38382,0,0,0
59101,31141,38228,0,0,0
58998,31062,38062,0,0,0
58891,30978,37890,0,0,0
58779,30890,37711,0,0,0
58659,30793,37521,0,0,0
58534,30686,37322,0,0,0
58409,30580,37124,0,0,0
58285,30475,36928,0,0,0
58159,30368,36725,0,0,0
58032,30259,36518,0,0,0
57907,30153,36317,0,0,0
57782,30048,36121,0,0,0
57653,29943,35920,0,0,0
57524,29838,35714,0,0,0
57400,29740,35513,0,0,0
57281,29646,35321,0,0,0
57165,29551,35132,0,0,0
57051,29456,34947,0,0,0
56942,29370,34769,0,0,0
56834,29289,34595,0,0,0
56722,29207,34418,0,0,0
56611,29124,34243,0,0,0
56505,29045,34077,0,0,0
56403,28969,33916,0,0,0
56303,28895,33754,0,0,0
56206,28821,33596,0,0,0
56115,28751,33447,0,0,0
56026,28682,33300,0,0,0
55936,28612,33151,0,0,0
55849,28542,33002,0,0,0
55764,28474,32858,0,0,0
55677,28404,32716,0,0,0
55593,28332,32576,0,0,0
55511,28260,32441,0,0,0
55430,28189,32310,0,0,0
55348,28119,32180,0,0,0
55265,28051,32050,0,0,0
55189,27986,31927,0,0,0
55117,27924,31809,0,0,0
55045,27860,31692,0,0,0
54976,27800,31577,0,0,0
54909,27747,31467,0,0,0
54842,27698,31359,0,0,0
54769,27643,31246,0,0,0
54692,27584,31129,0,0,0
54616,27525,31016,0,0,0
54542,27467,30904,0,0,0
54463,27404,30788,0,0,0
54383,27341,30669,0,0,0
54306,27281,30552,0,0,0
54230,27224,30435,0,0,0
54152,27164,30315,0,0,0
54075,27103,30192,0,0,0
53997,27045,30076,0,0,0
53918,26989,29962,0,0,0
53842,26932,29846,0,0,0
53771,26875,29730,0,0,0
53705,26822,29618,0,0,0
53639,26770,29506,0,0,0
53570,26714,29389,0,0,0
53498,26657,29274,0,0,0
53428,26606,29167,0,0,0
53357,26557,29065,0,0,0
53284,26508,28963,0,0,0
53216,26461,28866,0,0,0
53153,26419,28774,0,0,0
53089,26380,28681,0,0,0
53026,26339,28584,0,0,0
52967,26297,28488,0,0,0
52911,26256,28401,0,0,0
52854,26216,28317,0,0,0
52798,26174,28233,0,0,0
52746,26133,28149,0,0,0
52697,26094,28070,0,0,0
52645,26052,27990,0,0,0
52590,26006,27908,0,0,0
52534,25962,27826,0,0,0
52478,25919,27741,0,0,0
52419,25873,27649,0,0,0
52357,25823,27551,0,0,0
52297,25774,27453,0,0,0
52234,25729,27355,0,0,0
52167,25685,27254,0,0,0
52099,25642,27151,0,0,0
52031,25602,27051,0,0,0
51961,25561,26953,0,0,0
51889,25514,26853,0,0,0
51818,25464,26753,0,0,0
51751,25415,26660,0,0,0
51685,25368,26574,0,0,0
51619,25321,26492,0,0,0
51562,25278,26418,0,0,0
51522,25248,26369,0,0,0
51504,25238,26357,0,0,0
51513,25246,26390,0,0,0
51563,25284,26494,0,0,0
51678,25375,26702,0,0,0
51874,25532,27046,0,0,0
52162,25767,27554,0,0,0
52560,26095,28253,0,0,0
53075,26522,29146,0,0,0
53694,27033,30200,0,0,0
54388,27604,31360,0,0,0
55122,28207,32569,0,0,0
55863,28815,33774,0,0,0
56578,29403,34927,0,0,0
57243,29949,35991,0,0,0
57847,30443,36952,0,0,0
58384,30882,37806,0,0,0
58848,31261,38544,0,0,0
59237,31577,39162,0,0,0
59560,31836,39671,0,0,0
59823,32047,40080,0,0,0
60032,32214,40399,0,0,0
60195,32339,40640,0,0,0
60320,32430,40823,0,0,0
60415,32494,40957,0,0,0
60482,32533,41046,0,0,0
60524,32551,41096,0,0,0
60547,32555,41125,0,0,0
60560,32551,41142,0,0,0
60565,32538,41142,0,0,0
60564,32517,41122,0,0,0
60560,32498,41099,0,0,0
60556,32483,41076,0,0,0
60548,32466,41049,0,0,0
60538,32449,41022,0,0,0
60534,32436,41000,0,0,0
60534,32431,40984,0,0,0
60532,32426,40970,0,0,0
60531,32422,40957,0,0,0
60537,32426,40954,0,0,0
60549,32439,40961,0,0,0
60562,32453,40971,0,0,0
60577,32467,40984,0,0,0
60599,32485,41004,0,0,0
60626,32505,41029,0,0,0
60653,32523,41053,0,0,0
60677,32540,41074,0,0,0
60703,32560,41098,0,0,0
60725,32581,41120,0,0,0
60740,32594,41133,0,0,0
60749,32597,41137,0,0,0
60753,32593,41130,0,0,0
60743,32582,41104,0,0,0
60715,32554,41051,0,0,0
60672,32514,40973,0,0,0
60617,32464,40877,0,0,0
60552,32404,40765,0,0,0
60473,32330,40630,0,0,0
60382,32247,40478,0,0,0
60282,32160,40315,0,0,0
60175,32067,40141,0,0,0
60065,31967,39960,0,0,0
59960,31871,39785,0,0,0
59861,31785,39621,0,0,0
59766,31704,39464,0,0,0
59678,31629,39317,0,0,0
59601,31565,39189,0,0,0
59535,31515,39086,0,0,0
59477,31471,39000,0,0,0
59431,31436,38932,0,0,0
59398,31414,38883,0,0,0
59375,31402,38850,0,0,0
59360,31392,38824,0,0,0
59353,31386,38807,0,0,0
59354,31386,38797,0,0,0
59355,31390,38789,0,0,0
59353,31392,38779,0,0,0
59350,31391,38768,0,0,0
59350,31392,38763,0,0,0
59348,31391,38759,0,0,0
59340,31382,38747,0,0,0
59328,31367,38725,0,0,0
59312,31353,38695,0,0,0
59288,31336,38654,0,0,0
59251,31307,38596,0,0,0
59205,31270,38526,0,0,0
59151,31231,38447,0,0,0
59090,31190,38357,0,0,0
59023,31137,38252,0,0,0
58953,31074,38134,0,0,0
58880,31007,38008,0,0,0
58799,30933,37869,0,0,0
58708,30852,37716,0,0,0
58609,30770,37553,0,0,0
58509,30689,37385,0,0,0
58407,30607,37210,0,0,0
58300,30518,37027,0,0,0
58190,30427,36842,0,0,0
58080,30339,36657,0,0,0
57969,30248,36470,0,0,0
57852,30153,36278,0,0,0
57735,30058,36086,0,0,0
57620,29965,35897,0,0,0
57505,29869,35707,0,0,0
57388,29771,35515,0,0,0
57273,29675,35329,0,0,0
57161,29584,35148,0,0,0
57049,29496,34969,0,0,0
56939,29409,34792,0,0,0
56834,29327,34623,0,0,0
56732,29249,34462,0,0,0
56632,29172,34301,0,0,0
56538,29095,34138,0,0,0
56450,29022,33984,0,0,0
56366,28955,33839,0,0,0
56280,28889,33696,0,0,0
56194,28825,33559,0,0,0
56110,28764,33430,0,0,0
56026,28701,33305,0,0,0
55942,28634,33181,0,0,0
55860,28566,33058,0,0,0
55782,28502,32942,0,0,0
55706,28441,32828,0,0,0
55629,28379,32712,0,0,0
55553,28319,32594,0,0,0
55482,28263,32484,0,0,0
55413,28208,32375,0,0,0
55342,28150,32261,0,0,0
55274,28092,32145,0,0,0
55211,28041,32038,0,0,0
55150,27993,31934,0,0,0
55085,27940,31822,0,0,0
55016,27882,31708,0,0,0
54950,27827,31601,0,0,0
54886,27773,31496,0,0,0
54817,27716,31383,0,0,0
54745,27658,31266,0,0,0
54674,27603,31154,0,0,0
54604,27547,31045,0,0,0
54534,27489,30933,0,0,0
54464,27432,30821,0,0,0
54395,27379,30712,0,0,0
54326,27330,30604,0,0,0
54257,27278,30494,0,0,0
54189,27223,30385,0,0,0
54120,27169,30276,0,0,0
54046,27115,30165,0,0,0
53970,27060,30051,0,0,0
53896,27011,29938,0,0,0
53825,26966,29827,0,0,0
53751,26916,29710,0,0,0
53679,26861,29583,0,0,0
53609,26802,29455,0,0,0
53538,26737,29330,0,0,0
53462,26666,29202,0,0,0
53381,26592,29074,0,0,0
53301,26522,28953,0,0,0
53226,26460,28839,0,0,0
53150,26400,28725,0,0,0
53076,26342,28611,0,0,0
53003,26290,28500,0,0,0
52931,26242,28389,0,0,0
52858,26192,28275,0,0,0
52785,26143,28164,0,0,0
52717,26099,28068,0,0,0
52660,26065,27993,0,0,0
52617,26039,27936,0,0,0
52597,26029,27913,0,0,0
52611,26047,27952,0,0,0
52671,26101,28070,0,0,0
52788,26199,28289,0,0,0
52982,26359,28639,0,0,0
53269,26599,29152,0,0,0
53657,26922,29835,0,0,0
54140,27323,30676,0,0,0
54711,27795,31654,0,0,0
55346,28323,32729,0,0,0
56012,28876,33840,0,0,0
56675,29424,34933,0,0,0
57314,29952,35972,0,0,0
57913,30444,36940,0,0,0
58459,30892,37819,0,0,0
58945,31287,38594,0,0,0
59370,31629,39264,0,0,0
59731,31920,39831,0,0,0
60028,32158,40296,0,0,0
60266,32345,40666,0,0,0
60455,32494,40959,0,0,0
60605,32612,41189,0,0,0
60717,32700,41358,0,0,0
60797,32759,41473,0,0,0
60851,32797,41549,0,0,0
60884,32822,41595,0,0,0
60898,32834,41609,0,0,0
60899,32833,41598,0,0,0
60895,32826,41574,0,0,0
60887,32816,41543,0,0,0
60871,32799,41501,0,0,0
60850,32775,41449,0,0,0
60828,32749,41397,0,0,0
60805,32725,41347,0,0,0
60778,32697,41298,0,0,0
60754,32669,41256,0,0,0
60736,32650,41226,0,0,0
60726,32639,41204,0,0,0
60718,32631,41184,0,0,0
60713,32626,41167,0,0,0
60714,32626,41157,0,0,0
60718,32627,41149,0,0,0
60725,32626,41141,0,0,0
60738,32632,41137,0,0,0
60755,32644,41141,0,0,0
60770,32653,41146,0,0,0
60777,32652,41145,0,0,0
60776,32645,41132,0,0,0
60769,32631,41107,0,0,0
60749,32606,41064,0,0,0
60714,32569,41002,0,0,0
60665,32520,40919,0,0,0
60602,32463,40818,0,0,0
60525,32399,40697,0,0,0
60434,32325,40555,0,0,0
60334,32243,40398,0,0,0
60228,32154,40231,0,0,0
60116,32059,40056,0,0,0
60002,31960,39873,0,0,0
59889,31864,39691,0,0,0
59781,31777,39516,0,0,0
59681,31695,39351,0,0,0
59590,31618,39197,0,0,0
59510,31548,39060,0,0,0
59444,31486,38940,0,0,0
59388,31429,38833,0,0,0
59340,31378,38739,0,0,0
59298,31336,38663,0,0,0
59260,31305,38602,0,0,0
59225,31279,38550,0,0,0
59196,31258,38509,0,0,0
59175,31246,38483,0,0,0
59161,31243,38471,0,0,0
59151,31241,38464,0,0,0
59143,31239,38455,0,0,0
59142,31239,38447,0,0,0
59142,31240,38438,0,0,0
59134,31233,38419,0,0,0
59118,31217,38389,0,0,0
59098,31198,38353,0,0,0
59072,31176,38306,0,0,0
59037,31145,38242,0,0,0
58992,31107,38164,0,0,0
58940,31064,38075,0,0,0
58878,31014,37972,0,0,0
58803,30952,37848,0,0,0
58719,30883,37709,0,0,0
58628,30811,37559,0,0,0
58530,30734,37397,0,0,0
58423,30650,37221,0,0,0
58312,30562,37038,0,0,0
58198,30473,36848,0,0,0
58079,30377,36648,0,0,0
57954,30273,36436,0,0,0
57827,30165,36222,0,0,0
57697,30054,36007,0,0,0
57561,29941,35786,0,0,0
57423,29826,35556,0,0,0
57287,29711,35323,0,0,0
57155,29600,35093,0,0,0
57023,29491,34864,0,0,0
56892,29383,34638,0,0,0
56769,29277,34423,0,0,0
56650,29176,34218,0,0,0
56534,29078,34017,0,0,0
56419,28981,33822,0,0,0
56309,28887,33634,0,0,0
56198,28792,33451,0,0,0
56084,28697,33266,0,0,0
55971,28602,33083,0,0,0
55864,28513,32910,0,0,0
55760,28431,32749,0,0,0
55658,28349,32591,0,0,0
55560,28268,32433,0,0,0
55468,28194,32284,0,0,0
55379,28125,32146,0,0,0
55288,28057,32009,0,0,0
55199,27992,31871,0,0,0
55116,27931,31740,0,0,0
55038,27875,31616,0,0,0
54958,27816,31488,0,0,0
54880,27756,31357,0,0,0
54809,27698,31233,0,0,0
54741,27642,31116,0,0,0
54670,27582,30997,0,0,0
54599,27522,30881,0,0,0
54533,27467,30772,0,0,0
54470,27415,30666,0,0,0
54401,27358,30553,0,0,0
54328,27297,30436,0,0,0
54257,27239,30324,0,0,0
54187,27182,30216,0,0,0
54117,27119,30107,0,0,0
54051,27057,30003,0,0,0
53988,27000,29904,0,0,0
53923,26945,29806,0,0,0
53855,26890,29707,0,0,0
53787,26838,29610,0,0,0
53718,26791,29515,0,0,0
53646,26745,29416,0,0,0
53574,26696,29312,0,0,0
53505,26646,29208,0,0,0
53437,26598,29106,0,0,0
53366,26550,29001,0,0,0
53297,26501,28895,0,0,0
53231,26451,28791,0,0,0
53169,26399,28686,0,0,0
53106,26345,28577,0,0,0
53042,26290,28468,0,0,0
52980,26240,28365,0,0,0
52918,26192,28270,0,0,0
52854,26142,28173,0,0,0
52791,26089,28069,0,0,0
52729,26040,27964,0,0,0
52667,25993,27861,0,0,0
52601,25942,27756,0,0,0
52537,25888,27650,0,0,0
52476,25834,27547,0,0,0
52414,25780,27448,0,0,0
52348,25723,27348,0,0,0
52280,25663,27244,0,0,0
52212,25608,27143,0,0,0
52148,25558,27044,0,0,0
52086,25508,26944,0,0,0
52023,25455,26844,0,0,0
51962,25406,26750,0,0,0
51901,25361,26658,0,0,0
51835,25315,26561,0,0,0
51768,25267,26462,0,0,0
51707,25226,26366,0,0,0
51648,25188,26272,0,0,0
51587,25147,26179,0,0,0
51529,25105,26090,0,0,0
51474,25067,26006,0,0,0
51420,25031,25926,0,0,0
51365,24994,25846,0,0,0
51317,24961,25776,0,0,0
51284,24938,25728,0,0,0
51267,24925,25708,0,0,0
51274,24930,25729,0,0,0
51322,24970,25817,0,0,0
51425,25057,26002,0,0,0
51596,25201,26310,0,0,0
51849,25413,26773,0,0,0
52206,25711,27420,0,0,0
52677,26104,28264,0,0,0
53253,26586,29286,0,0,0
53918,27138,30445,0,0,0
54647,27738,31689,0,0,0
55403,28356,32953,0,0,0
56146,28958,34175,0,0,0
56847,29521,35312,0,0,0
57489,30037,36342,0,0,0
58062,30498,37256,0,0,0
58559,30898,38047,0,0,0
58983,31234,38716,0,0,0
59339,31514,39271,0,0,0
59631,31741,39721,0,0,0
59860,31919,40074,0,0,0
60034,32052,40342,0,0,0
60166,32153,40544,0,0,0
60261,32230,40689,0,0,0
60324,32281,40782,0,0,0
60362,32312,40838,0,0,0
60385,32333,40870,0,0,0
60395,32343,40882,0,0,0
60396,32337,40875,0,0,0
60390,32319,40855,0,0,0
60381,32301,40831,0,0,0
60367,32284,40800,0,0,0
60348,32267,40758,0,0,0
60330,32251,40715,0,0,0
60317,32240,40677,0,0,0
60307,32228,40639,0,0,0
60296,32213,40604,0,0,0
60290,32201,40578,0,0,0
60293,32196,40566,0,0,0
60300,32195,40563,0,0,0
60311,32196,40567,0,0,0
60329,32202,40583,0,0,0
60355,32216,40612,0,0,0
60385,32233,40646,0,0,0
60415,32251,40677,0,0,0
60445,32271,40711,0,0,0
60474,32293,40747,0,0,0
60502,32314,40780,0,0,0
60527,32329,40807,0,0,0
60547,32340,40826,0,0,0
60560,32348,40836,0,0,0
60560,32347,40827,0,0,0
60548,32334,40794,0,0,0
60523,32312,40738,0,0,0
60485,32279,40662,0,0,0
60428,32230,40560,0,0,0
60355,32162,40431,0,0,0
60271,32084,40284,0,0,0
60177,31999,40126,0,0,0
60073,31907,39957,0,0,0
59963,31811,39778,0,0,0
59852,31723,39603,0,0,0
59744,31640,39434,0,0,0
59640,31553,39270,0,0,0
59543,31465,39113,0,0,0
59456,31383,38968,0,0,0
59374,31310,38835,0,0,0
59297,31244,38707,0,0,0
59224,31186,38588,0,0,0
59160,31139,38485,0,0,0
59105,31099,38397,0,0,0
59058,31062,38316,0,0,0
59019,31030,38246,0,0,0
58989,31005,38190,0,0,0
58965,30984,38139,0,0,0
58943,30960,38087,0,0,0
58921,30937,38038,0,0,0
58896,30917,37995,0,0,0
58866,30897,37954,0,0,0
58830,30871,37909,0,0,0
58796,30847,37862,0,0,0
58764,30827,37814,0,0,0
58731,30801,37754,0,0,0
58691,30766,37681,0,0,0
58646,30723,37596,0,0,0
58595,30674,37500,0,0,0
58535,30620,37392,0,0,0
58466,30559,37273,0,0,0
58393,30496,37145,0,0,0
58314,30430,37009,0,0,0
58225,30357,36859,0,0,0
58126,30275,36698,0,0,0
58021,30187,36528,0,0,0
57912,30095,36350,0,0,0
57795,29998,36158,0,0,0
57674,29895,35951,0,0,0
57549,29791,35737,0,0,0
57420,29687,35515,0,0,0
57288,29578,35283,0,0,0
57155,29467,35046,0,0,0
57024,29362,34815,0,0,0
56892,29261,34592,0,0,0
56757,29155,34369,0,0,0
56624,29046,34147,0,0,0
56496,28940,33932,0,0,0
56371,28836,33723,0,0,0
56247,28730,33514,0,0,0
56126,28626,33310,0,0,0
56011,28528,33117,0,0,0
55898,28434,32930,0,0,0
55786,28339,32743,0,0,0
55676,28246,32560,0,0,0
55571,28161,32386,0,0,0
55468,28083,32221,0,0,0
55370,28007,32057,0,0,0
55276,27934,31897,0,0,0
55187,27867,31749,0,0,0
55100,27799,31609,0,0,0
55013,27728,31472,0,0,0
54931,27660,31340,0,0,0
54853,27600,31217,0,0,0
54777,27543,31098,0,0,0
54700,27483,30976,0,0,0
54626,27424,30857,0,0,0
54557,27366,30744,0,0,0
54488,27309,30631,0,0,0
54417,27251,30515,0,0,0
54347,27198,30402,0,0,0
54281,27151,30296,0,0,0
54214,27105,30190,0,0,0
54147,27054,30082,0,0,0
54083,27004,29978,0,0,0
54021,26957,29880,0,0,0
53961,26909,29781,0,0,0
53901,26856,29680,0,0,0
53841,26802,29582,0,0,0
53780,26748,29486,0,0,0
53714,26694,29385,0,0,0
53646,26640,29277,0,0,0
53578,26588,29166,0,0,0
53509,26537,29055,0,0,0
53437,26483,28943,0,0,0
53366,26425,28830,0,0,0
53295,26367,28723,0,0,0
53225,26309,28617,0,0,0
53156,26251,28507,0,0,0
53091,26199,28400,0,0,0
53034,26152,28301,0,0,0
52979,26106,28207,0,0,0
52920,26055,28110,0,0,0
52858,26004,28010,0,0,0
52799,25961,27918,0,0,0
52739,25923,27830,0,0,0
52674,25881,27738,0,0,0
52609,25838,27647,0,0,0
52553,25801,27564,0,0,0
52501,25764,27480,0,0,0
52448,25723,27389,0,0,0
52392,25677,27292,0,0,0
52333,25632,27197,0,0,0
52271,25589,27104,0,0,0
52206,25541,27010,0,0,0
52144,25493,26918,0,0,0
52087,25450,26833,0,0,0
52032,25413,26752,0,0,0
51979,25377,26668,0,0,0
51929,25341,26583,0,0,0
51878,25305,26502,0,0,0
51824,25264,26419,0,0,0
51768,25219,26332,0,0,0
51712,25176,26248,0,0,0
51657,25139,26171,0,0,0
51600,25101,26095,0,0,0
51540,25060,26017,0,0,0
51482,25020,25941,0,0,0
51426,24983,25867,0,0,0
51369,24944,25790,0,0,0
51312,24901,25709,0,0,0
51259,24859,25628,0,0,0
51210,24824,25549,0,0,0
51160,24787,25469,0,0,0
51109,24747,25388,0,0,0
51058,24709,25313,0,0,0
51007,24672,25243,0,0,0
50953,24633,25172,0,0,0
50899,24594,25101,0,0,0
50847,24562,25036,0,0,0
50795,24534,24974,0,0,0
50742,24501,24908,0,0,0
50694,24468,24847,0,0,0
50659,24443,24800,0,0,0
50639,24431,24773,0,0,0
50640,24435,24777,0,0,0
50669,24464,24831,0,0,0
50739,24531,24959,0,0,0
50862,24641,25181,0,0,0
51050,24799,25518,0,0,0
51318,25024,26000,0,0,0
51686,25330,26659,0,0,0
52163,25725,27504,0,0,0
52744,26200,28516,0,0,0
53410,26745,29665,0,0,0
54139,27342,30905,0,0,0
54893,27961,32169,0,0,0
55636,28567,33392,0,0,0
56338,29138,34532,0,0,0
56979,29662,35566,0,0,0
57549,30124,36478,0,0,0
58045,30520,37261,0,0,0
58469,30852,37921,0,0,0
58823,31127,38466,0,0,0
59109,31348,38901,0,0,0
59333,31519,39236,0,0,0
59507,31652,39489,0,0,0
59638,31754,39674,0,0,0
59728,31826,39799,0,0,0
59786,31871,39872,0,0,0
59819,31896,39908,0,0,0
59832,31906,39916,0,0,0
59825,31903,39903,0,0,0
59807,31888,39874,0,0,0
59784,31866,39839,0,0,0
59758,31839,39798,0,0,0
59727,31806,39748,0,0,0
59696,31774,39692,0,0,0
59667,31746,39638,0,0,0
59640,31719,39589,0,0,0
59612,31690,39542,0,0,0
59589,31662,39496,0,0,0
59570,31638,39457,0,0,0
59555,31620,39425,0,0,0
59540,31605,39397,0,0,0
59531,31594,39376,0,0,0
59531,31590,39370,0,0,0
59538,31591,39372,0,0,0
59546,31591,39375,0,0,0
59557,31591,39380,0,0,0
59569,31595,39389,0,0,0
59578,31599,39391,0,0,0
59581,31596,39381,0,0,0
59578,31587,39361,0,0,0
59570,31578,39335,0,0,0
59551,31561,39295,0,0,0
59516,31529,39230,0,0,0
59464,31483,39141,0,0,0
59396,31428,39032,0,0,0
59314,31360,38899,0,0,0
59220,31279,38741,0,0,0
59115,31190,38567,0,0,0
59004,31100,38382,0,0,0
58888,31005,38188,0,0,0
58767,30904,37987,0,0,0
58645,30803,37789,0,0,0
58527,30707,37597,0,0,0
58414,30613,37413,0,0,0
58310,30524,37241,0,0,0
58219,30444,37086,0,0,0
58141,30375,36952,0,0,0
58076,30317,36835,0,0,0
58023,30269,36739,0,0,0
57983,30235,36667,0,0,0
57951,30210,36614,0,0,0
57922,30191,36568,0,0,0
57900,30178,36533,0,0,0
57889,30174,36515,0,0,0
57885,30171,36507,0,0,0
57880,30166,36498,0,0,0
57876,30158,36488,0,0,0
57873,30152,36478,0,0,0
57867,30144,36465,0,0,0
57854,30132,36441,0,0,0
57837,30118,36412,0,0,0
57818,30104,36381,0,0,0
57793,30086,36339,0,0,0
57757,30056,36278,0,0,0
57711,30019,36200,0,0,0
57659,29982,36118,0,0,0
57603,29939,36026,0,0,0
57539,29883,35917,0,0,0
57462,29818,35793,0,0,0
57377,29752,35659,0,0,0
57284,29681,35511,0,0,0
57181,29598,35344,0,0,0
57073,29510,35163,0,0,0
56964,29421,34972,0,0,0
56854,29327,34773,0,0,0
56739,29226,34564,0,0,0
56622,29124,34352,0,0,0
56506,29026,34142,0,0,0
56385,28926,33930,0,0,0
56261,28823,33714,0,0,0
56138,28724,33502,0,0,0
56017,28630,33298,0,0,0
55895,28537,33096,0,0,0
55774,28442,32894,0,0,0
55659,28350,32695,0,0,0
55548,28260,32500,0,0,0
55437,28170,32309,0,0,0
55331,28079,32123,0,0,0
55231,27992,31943,0,0,0
55138,27911,31769,0,0,0
55045,27831,31599,0,0,0
54952,27752,31436,0,0,0
54862,27679,31283,0,0,0
54777,27611,31141,0,0,0
54693,27546,31006,0,0,0
54610,27483,30877,0,0,0
54532,27428,30760,0,0,0
54458,27377,30651,0,0,0
54388,27328,30540,0,0,0
54319,27278,30427,0,0,0
54254,27229,30319,0,0,0
54191,27181,30220,0,0,0
54126,27129,30119,0,0,0
54061,27075,30019,0,0,0
53998,27025,29924,0,0,0
53938,26978,29832,0,0,0
53878,26930,29736,0,0,0
53819,26884,29638,0,0,0
53765,26841,29545,0,0,0
53711,26797,29453,0,0,0
53653,26749,29356,0,0,0
53593,26702,29261,0,0,0
53534,26661,29176,0,0,0
53478,26618,29091,0,0,0
53424,26572,29001,0,0,0
53370,26529,28910,0,0,0
53314,26488,28823,0,0,0
53256,26442,28734,0,0,0
53196,26391,28642,0,0,0
53139,26342,28550,0,0,0
53085,26296,28462,0,0,0
53033,26253,28373,0,0,0
52981,26211,28283,0,0,0
52930,26170,28196,0,0,0
52877,26131,28112,0,0,0
52824,26091,28023,0,0,0
52768,26050,27932,0,0,0
52712,26009,27841,0,0,0
52658,25969,27752,0,0,0
52603,25927,27660,0,0,0
52546,25881,27564,0,0,0
52488,25835,27468,0,0,0
52428,25788,27373,0,0,0
52364,25738,27277,0,0,0
52298,25684,27180,0,0,0
52232,25630,27085,0,0,0
52164,25580,26987,0,0,0
52094,25531,26884,0,0,0
52026,25483,26780,0,0,0
51962,25440,26682,0,0,0
51902,25400,26591,0,0,0
51840,25356,26498,0,0,0
51779,25309,26403,0,0,0
51722,25267,26315,0,0,0
51670,25234,26239,0,0,0
51624,25207,26173,0,0,0
51590,25188,26129,0,0,0
51579,25190,26129,0,0,0
51601,25217,26184,0,0,0
51664,25274,26306,0,0,0
51786,25378,26527,0,0,0
51980,25543,26878,0,0,0
52256,25779,27378,0,0,0
52625,26088,28042,0,0,0
53096,26478,28875,0,0,0
53662,26947,29855,0,0,0
54301,27475,30940,0,0,0
54983,28034,32081,0,0,0
55680,28602,33229,0,0,0
56361,29155,34338,0,0,0
56999,29671,35368,0,0,0
57578,30135,36292,0,0,0
58088,30544,37105,0,0,0
58531,30900,37808,0,0,0
58907,31202,38405,0,0,0
59221,31450,38898,0,0,0
59481,31649,39298,0,0,0
59691,31810,39619,0,0,0
59855,31934,39866,0,0,0
59979,32025,40046,0,0,0
60067,32092,40172,0,0,0
60124,32140,40252,0,0,0
60158,32169,40289,0,0,0
60178,32179,40295,0,0,0
60188,32178,40283,0,0,0
60188,32168,40263,0,0,0
60176,32152,40232,0,0,0
60156,32131,40193,0,0,0
60134,32111,40153,0,0,0
60112,32093,40113,0,0,0
60086,32072,40066,0,0,0
60057,32050,40013,0,0,0
60031,32031,39965,0,0,0
60009,32017,39927,0,0,0
59990,32003,39893,0,0,0
59975,31991,39866,0,0,0
59965,31984,39852,0,0,0
59962,31981,39848,0,0,0
59963,31977,39845,0,0,0
59971,31978,39843,0,0,0
59988,31988,39848,0,0,0
60007,31998,39855,0,0,0
60023,32001,39858,0,0,0
60038,31999,39858,0,0,0
60050,31992,39856,0,0,0
60051,31979,39843,0,0,0
60038,31955,39808,0,0,0
60011,31922,39752,0,0,0
59972,31881,39678,0,0,0
59917,31829,39584,0,0,0
59845,31765,39465,0,0,0
59761,31697,39328,0,0,0
59666,31625,39177,0,0,0
59561,31542,39013,0,0,0
59453,31451,38835,0,0,0
59344,31360,38651,0,0,0
59234,31273,38464,0,0,0
59127,31185,38278,0,0,0
59029,31097,38100,0,0,0
58939,31014,37940,0,0,0
58857,30944,37801,0,0,0
58778,30882,37676,0,0,0
58703,30826,37562,0,0,0
58635,30776,37460,0,0,0
58575,30736,37377,0,0,0
58524,30701,37304,0,0,0
58483,30670,37241,0,0,0
58452,30648,37194,0,0,0
58432,30633,37161,0,0,0
58415,30616,37131,0,0,0
58397,30597,37098,0,0,0
58381,30583,37070,0,0,0
58368,30573,37048,0,0,0
58356,30563,37026,0,0,0
58345,30553,37004,0,0,0
58335,30544,36986,0,0,0
58324,30531,36963,0,0,0
58304,30508,36925,0,0,0
58276,30479,36873,0,0,0
58242,30448,36812,0,0,0
58201,30414,36739,0,0,0
58150,30370,36648,0,0,0
58092,30318,36541,0,0,0
58025,30262,36425,0,0,0
57947,30199,36295,0,0,0
57860,30126,36149,0,0,0
57766,30047,35989,0,0,0
57667,29969,35818,0,0,0
57561,29886,35637,0,0,0
57448,29794,35444,0,0,0
57333,29700,35243,0,0,0
57215,29608,35035,0,0,0
57091,29511,34819,0,0,0
56961,29411,34596,0,0,0
56832,29310,34375,0,0,0
56702,29208,34156,0,0,0
56568,29102,33939,0,0,0
56433,28993,33723,0,0,0
56305,28888,33511,0,0,0
56184,28788,33305,0,0,0
56066,28688,33101,0,0,0
55948,28588,32897,0,0,0
55833,28494,32700,0,0,0
55721,28406,32512,0,0,0
55609,28321,32327,0,0,0
55502,28236,32145,0,0,0
55403,28156,31971,0,0,0
55309,28080,31806,0,0,0
55214,28004,31646,0,0,0
55121,27928,31492,0,0,0
55032,27859,31350,0,0,0
54948,27798,31219,0,0,0
54868,27739,31092,0,0,0
54792,27682,30972,0,0,0
54724,27629,30864,0,0,0
54660,27577,30761,0,0,0
54596,27523,30658,0,0,0
54534,27471,30553,0,0,0
54476,27422,30455,0,0,0
54420,27376,30363,0,0,0
54363,27329,30269,0,0,0
54305,27281,30172,0,0,0
54248,27235,30081,0,0,0
54189,27188,29989,0,0,0
54125,27137,29887,0,0,0
54061,27083,29780,0,0,0
54001,27035,29678,0,0,0
53942,26990,29578,0,0,0
53882,26942,29478,0,0,0
53822,26892,29379,0,0,0
53765,26844,29287,0,0,0
53707,26795,29194,0,0,0
53645,26745,29098,0,0,0
53581,26697,29003,0,0,0
53516,26655,28915,0,0,0
53452,26614,28827,0,0,0
53389,26566,28735,0,0,0
53326,26517,28642,0,0,0
53266,26469,28549,0,0,0
53205,26419,28452,0,0,0
53142,26364,28352,0,0,0
53081,26311,28253,0,0,0
53022,26261,28156,0,0,0
52961,26209,28055,0,0,0
52900,26154,27953,0,0,0
52840,26102,27858,0,0,0
52779,26053,27768,0,0,0
52715,26004,27674,0,0,0
52649,25954,27574,0,0,0
52588,25910,27478,0,0,0
52533,25872,27388,0,0,0
52477,25834,27298,0,0,0
52419,25794,27207,0,0,0
52362,25754,27118,0,0,0
52308,25715,27030,0,0,0
52255,25673,26937,0,0,0
52201,25628,26843,0,0,0
52148,25586,26755,0,0,0
52095,25548,26667,0,0,0
52037,25507,26574,0,0,0
51976,25465,26478,0,0,0
51915,25426,26386,0,0,0
51852,25385,26294,0,0,0
51783,25341,26199,0,0,0
51717,25296,26105,0,0,0
51655,25252,26018,0,0,0
51591,25203,25933,0,0,0
51525,25152,25846,0,0,0
51464,25104,25760,0,0,0
51411,25063,25681,0,0,0
51363,25024,25611,0,0,0
51318,24988,25550,0,0,0
51286,24963,25506,0,0,0
51273,24957,25492,0,0,0
51285,24973,25522,0,0,0
51332,25021,25615,0,0,0
51434,25110,25800,0,0,0
51605,25254,26104,0,0,0
51855,25462,26555,0,0,0
52201,25748,27176,0,0,0
52657,26122,27983,0,0,0
53219,26583,28964,0,0,0
53868,27117,30080,0,0,0
54581,27703,31285,0,0,0
55321,28313,32522,0,0,0
56053,28914,33730,0,0,0
56745,29479,34859,0,0,0
57378,29995,35882,0,0,0
57946,30458,36793,0,0,0
58446,30863,37588,0,0,0
58874,31207,38262,0,0,0
59235,31490,38819,0,0,0
59534,31724,39275,0,0,0
59777,31915,39641,0,0,0
59968,32059,39921,0,0,0
60113,32165,40133,0,0,0
60225,32245,40293,0,0,0
60307,32305,40407,0,0,0
60358,32341,40477,0,0,0
60386,32360,40514,0,0,0
60399,32367,40531,0,0,0
60401,32367,40530,0,0,0
60393,32359,40514,0,0,0
60380,32348,40490,0,0,0
60367,32340,40466,0,0,0
60354,32334,40440,0,0,0
60340,32322,40407,0,0,0
60330,32310,40378,0,0,0
60329,32306,40362,0,0,0
60336,32306,40354,0,0,0
60345,32307,40349,0,0,0
60359,32313,40351,0,0,0
60378,32326,40364,0,0,0
60399,32341,40382,0,0,0
60421,32355,40402,0,0,0
60446,32371,40431,0,0,0
60479,32395,40467,0,0,0
60514,32421,40506,0,0,0
60550,32447,40544,0,0,0
60588,32477,40585,0,0,0
60626,32506,40627,0,0,0
60658,32529,40659,0,0,0
60685,32546,40679,0,0,0
60710,32561,40690,0,0,0
60730,32573,40691,0,0,0
60736,32573,40674,0,0,0
60722,32559,40636,0,0,0
60691,32533,40578,0,0,0
60643,32493,40495,0,0,0
60578,32437,40387,0,0,0
60502,32367,40261,0,0,0
60419,32290,40127,0,0,0
60328,32210,39984,0,0,0
60232,32124,39826,0,0,0
60135,32037,39659,0,0,0
60041,31954,39496,0,0,0
59949,31873,39341,0,0,0
59857,31793,39192,0,0,0
59767,31716,39052,0,0,0
59685,31646,38928,0,0,0
59613,31585,38818,0,0,0
59548,31528,38714,0,0,0
59495,31477,38617,0,0,0
59452,31433,38535,0,0,0
59412,31397,38464,0,0,0
59370,31362,38397,0,0,0
59330,31329,38338,0,0,0
59298,31302,38291,0,0,0
59270,31279,38248,0,0,0
59242,31255,38199,0,0,0
59214,31233,38147,0,0,0
59191,31218,38097,0,0,0
59170,31206,38046,0,0,0
59147,31188,37989,0,0,0
59121,31163,37932,0,0,0
59089,31132,37873,0,0,0
59048,31095,37804,0,0,0
58997,31050,37719,0,0,0
58937,30999,37625,0,0,0
58870,30946,37525,0,0,0
58795,30888,37414,0,0,0
58715,30824,37290,0,0,0
58634,30756,37155,0,0,0
58548,30683,37010,0,0,0
58450,30603,36848,0,0,0
58344,30516,36670,0,0,0
58238,30429,36485,0,0,0
58129,30339,36294,0,0,0
58012,30242,36092,0,0,0
57891,30137,35880,0,0,0
57771,30029,35668,0,0,0
57645,29919,35454,0,0,0
57512,29804,35234,0,0,0
57378,29688,35012,0,0,0
57246,29576,34795,0,0,0
57115,29469,34580,0,0,0
56981,29360,34361,0,0,0
56845,29252,34143,0,0,0
56717,29148,33934,0,0,0
56594,29048,33731,0,0,0
56475,28948,33528,0,0,0
56358,28848,33329,0,0,0
56246,28754,33141,0,0,0
56138,28664,32960,0,0,0
56032,28574,32778,0,0,0
55926,28483,32598,0,0,0
55820,28397,32425,0,0,0
55714,28311,32256,0,0,0
55609,28224,32087,0,0,0
55508,28142,31925,0,0,0
55416,28070,31776,0,0,0
55332,28005,31636,0,0,0
55250,27939,31497,0,0,0
55173,27874,31359,0,0,0
55099,27813,31230,0,0,0
55026,27752,31104,0,0,0
54951,27689,30976,0,0,0
54877,27626,30849,0,0,0
54806,27567,30727,0,0,0
54735,27509,30607,0,0,0
54664,27445,30486,0,0,0
54595,27383,30375,0,0,0
54528,27327,30273,0,0,0
54460,27270,30171,0,0,0
54389,27210,30068,0,0,0
54321,27153,29965,0,0,0
54254,27100,29861,0,0,0
54184,27048,29755,0,0,0
54115,26993,29647,0,0,0
54051,26942,29543,0,0,0
53990,26895,29443,0,0,0
53924,26847,29342,0,0,0
53857,26796,29239,0,0,0
53793,26746,29139,0,0,0
53729,26695,29038,0,0,0
53665,26641,28933,0,0,0
53601,26585,28826,0,0,0
53539,26533,28721,0,0,0
53476,26484,28620,0,0,0
53408,26432,28515,0,0,0
53339,26377,28407,0,0,0
53272,26323,28304,0,0,0
53206,26271,28204,0,0,0
53139,26217,28097,0,0,0
53072,26163,27987,0,0,0
53008,26113,27882,0,0,0
52946,26064,27781,0,0,0
52882,26012,27676,0,0,0
52820,25960,27570,0,0,0
52760,25911,27471,0,0,0
52699,25864,27375,0,0,0
52636,25813,27274,0,0,0
52576,25761,27168,0,0,0
52520,25711,27063,0,0,0
52466,25665,26963,0,0,0
52410,25617,26867,0,0,0
52353,25572,26779,0,0,0
52298,25532,26701,0,0,0
52245,25495,26627,0,0,0
52193,25457,26549,0,0,0
52141,25421,26473,0,0,0
52091,25388,26401,0,0,0
52042,25353,26325,0,0,0
51993,25318,26247,0,0,0
51944,25283,26174,0,0,0
51896,25247,26105,0,0,0
51842,25208,26033,0,0,0
51785,25165,25955,0,0,0
51728,25122,25877,0,0,0
51670,25083,25799,0,0,0
51609,25043,25715,0,0,0
51551,25004,25629,0,0,0
51500,24968,25548,0,0,0
51450,24933,25471,0,0,0
51396,24893,25391,0,0,0
51339,24849,25311,0,0,0
51284,24810,25237,0,0,0
51233,24777,25165,0,0,0
51183,24746,25092,0,0,0
51137,24718,25022,0,0,0
51099,24697,24965,0,0,0
51067,24681,24918,0,0,0
51041,24671,24881,0,0,0
51032,24672,24870,0,0,0
51052,24693,24904,0,0,0
51105,24742,24996,0,0,0
51197,24821,25159,0,0,0
51343,24944,25425,0,0,0
51562,25127,25822,0,0,0
51862,25378,26371,0,0,0
52254,25704,27086,0,0,0
52749,26114,27980,0,0,0
53346,26608,29039,0,0,0
54023,27166,30220,0,0,0
54751,27762,31461,0,0,0
55495,28369,32708,0,0,0
56223,28963,33907,0,0,0
56902,29514,35014,0,0,0
57514,30005,35999,0,0,0
58051,30432,36855,0,0,0
58509,30799,37583,0,0,0
58890,31107,38185,0,0,0
59200,31359,38670,0,0,0
59448,31561,39054,0,0,0
59638,31720,39351,0,0,0
59779,31835,39570,0,0,0
59875,31912,39717,0,0,0
59935,31962,39808,0,0,0
59967,31992,39855,0,0,0
59976,32000,39863,0,0,0
59969,31987,39842,0,0,0
59953,31963,39805,0,0,0
59929,31937,39758,0,0,0
59898,31903,39695,0,0,0
59864,31863,39624,0,0,0
59830,31826,39554,0,0,0
59794,31791,39487,0,0,0
59752,31755,39421,0,0,0
59710,31720,39355,0,0,0
59674,31693,39297,0,0,0
59645,31674,39252,0,0,0
59622,31657,39213,0,0,0
59607,31641,39179,0,0,0
59598,31631,39155,0,0,0
59593,31626,39139,0,0,0
59592,31624,39128,0,0,0
59601,31626,39125,0,0,0
59619,31633,39133,0,0,0
59638,31639,39144,0,0,0
59650,31640,39149,0,0,0
59655,31638,39148,0,0,0
59656,31635,39141,0,0,0
59645,31625,39120,0,0,0
59620,31602,39077,0,0,0
59583,31566,39013,0,0,0
59536,31519,38927,0,0,0
59473,31458,38813,0,0,0
59392,31384,38668,0,0,0
59298,31302,38504,0,0,0
59194,31216,38329,0,0,0
59079,31127,38141,0,0,0
58959,31030,37941,0,0,0
58837,30930,37735,0,0,0
58718,30834,37531,0,0,0
58601,30739,37331,0,0,0
58489,30645,37139,0,0,0
58389,30559,36961,0,0,0
58298,30483,36806,0,0,0
58214,30414,36671,0,0,0
58138,30355,36556,0,0,0
58075,30308,36465,0,0,0
58027,30269,36396,0,0,0
57989,30235,36341,0,0,0
57959,30206,36296,0,0,0
57940,30187,36261,0,0,0
57933,30177,36237,0,0,0
57927,30170,36216,0,0,0
57922,30163,36195,0,0,0
57924,30159,36180,0,0,0
57927,30157,36169,0,0,0
57928,30152,36155,0,0,0
57926,30144,36137,0,0,0
57920,30138,36119,0,0,0
57908,30131,36096,0,0,0
57886,30114,36062,0,0,0
57856,30089,36017,0,0,0
57822,30061,35965,0,0,0
57779,30029,35902,0,0,0
57728,29988,35820,0,0,0
57670,29941,35722,0,0,0
57609,29892,35611,0,0,0
57537,29835,35482,0,0,0
57451,29763,35328,0,0,0
57356,29680,35156,0,0,0
57255,29595,34973,0,0,0
57147,29504,34782,0,0,0
57030,29405,34581,0,0,0
56906,29301,34373,0,0,0
56776,29195,34163,0,0,0
56642,29088,33948,0,0,0
56509,28981,33726,0,0,0
56380,28878,33504,0,0,0
56256,28781,33288,0,0,0
56136,28683,33075,0,0,0
56017,28581,32860,0,0,0
55898,28481,32649,0,0,0
55782,28388,32449,0,0,0
55668,28298,32255,0,0,0
55555,28209,32064,0,0,0
55447,28123,31880,0,0,0
55340,28040,31705,0,0,0
55237,27959,31533,0,0,0
55139,27877,31365,0,0,0
55049,27802,31206,0,0,0
54963,27736,31057,0,0,0
54877,27670,30913,0,0,0
54793,27602,30772,0,0,0
54716,27539,30643,0,0,0
54644,27479,30523,0,0,0
54573,27418,30407,0,0,0
54504,27357,30295,0,0,0
54440,27303,30191,0,0,0
54376,27255,30092,0,0,0
54311,27206,29995,0,0,0
54250,27159,29903,0,0,0
54193,27117,29817,0,0,0
54134,27076,29732,0,0,0
54072,27029,29642,0,0,0
54011,26982,29549,0,0,0
53953,26941,29460,0,0,0
53898,26903,29372,0,0,0
53842,26860,29282,0,0,0
53788,26815,29196,0,0,0
53741,26774,29118,0,0,0
53695,26735,29041,0,0,0
53646,26692,28959,0,0,0
53596,26648,28876,0,0,0
53547,26608,28800,0,0,0
53495,26568,28723,0,0,0
53438,26526,28640,0,0,0
53382,26483,28556,0,0,0
53329,26444,28474,0,0,0
53276,26405,28391,0,0,0
53221,26363,28301,0,0,0
53167,26321,28209,0,0,0
53114,26282,28121,0,0,0
53058,26242,28036,0,0,0
53001,26199,27952,0,0,0
52944,26159,27871,0,0,0
52887,26121,27791,0,0,0
52829,26081,27704,0,0,0
52774,26039,27608,0,0,0
52719,25995,27509,0,0,0
52661,25949,27411,0,0,0
52599,25900,27309,0,0,0
52537,25848,27201,0,0,0
52477,25797,27096,0,0,0
52418,25748,26996,0,0,0
52358,25697,26896,0,0,0
52298,25641,26795,0,0,0
52236,25585,26699,0,0,0
52170,25532,26606,0,0,0
52099,25477,26508,0,0,0
52025,25422,26406,0,0,0
51955,25372,26307,0,0,0
51889,25327,26212,0,0,0
51823,25283,26114,0,0,0
51761,25238,26015,0,0,0
51704,25198,25927,0,0,0
51653,25164,25849,0,0,0
51607,25134,25781,0,0,0
51572,25111,25732,0,0,0
51556,25103,25714,0,0,0
51562,25113,25730,0,0,0
51597,25143,25792,0,0,0
51674,25207,25926,0,0,0
51806,25319,26165,0,0,0
52005,25487,26528,0,0,0
52282,25716,27033,0,0,0
52653,26023,27705,0,0,0
53126,26415,28549,0,0,0
53692,26883,29539,0,0,0
54332,27408,30638,0,0,0
55019,27971,31798,0,0,0
55721,28547,32967,0,0,0
56403,29105,34088,0,0,0
57042,29620,35122,0,0,0
57623,30084,36050,0,0,0
58135,30492,36867,0,0,0
58575,30843,37567,0,0,0
58948,31137,38152,0,0,0
59261,31380,38633,0,0,0
59515,31578,39020,0,0,0
59712,31732,39320,0,0,0
59861,31846,39546,0,0,0
59973,31932,39715,0,0,0
60053,31996,39837,0,0,0
60100,32037,39913,0,0,0
60122,32056,39948,0,0,0
60130,32063,39957,0,0,0
60128,32063,39949,0,0,0
60115,32052,39924,0,0,0
60097,32033,39886,0,0,0
60079,32014,39846,0,0,0
60058,31994,39804,0,0,0
60033,31973,39756,0,0,0
60007,31950,39703,0,0,0
59983,31929,39655,0,0,0
59960,31909,39612,0,0,0
59940,31888,39573,0,0,0
59928,31873,39542,0,0,0
59923,31868,39521,0,0,0
59923,31869,39509,0,0,0
59924,31870,39499,0,0,0
59928,31874,39497,0,0,0
59938,31885,39510,0,0,0
59953,31895,39530,0,0,0
59969,31903,39546,0,0,0
59984,31910,39560,0,0,0
59997,31918,39571,0,0,0
60005,31923,39575,0,0,0
60009,31921,39565,0,0,0
60006,31911,39539,0,0,0
59994,31899,39498,0,0,0
59971,31875,39435,0,0,0
59931,31834,39345,0,0,0
59873,31781,39231,0,0,0
59801,31720,39099,0,0,0
59712,31648,38949,0,0,0
59609,31565,38780,0,0,0
59500,31474,38601,0,0,0
59391,31381,38416,0,0,0
59282,31286,38227,0,0,0
59173,31190,38036,0,0,0
59070,31101,37854,0,0,0
58971,31019,37684,0,0,0
58874,30942,37524,0,0,0
58786,30868,37377,0,0,0
58711,30805,37250,0,0,0
58647,30752,37143,0,0,0
58592,30703,37052,0,0,0
58543,30659,36977,0,0,0
58502,30625,36918,0,0,0
58466,30598,36871,0,0,0
58435,30570,36828,0,0,0
58411,30544,36786,0,0,0
58393,30528,36752,0,0,0
58380,30517,36725,0,0,0
58367,30506,36696,0,0,0
58353,30491,36664,0,0,0
58340,30477,36635,0,0,0
58325,30461,36605,0,0,0
58301,30439,36560,0,0,0
58271,30411,36504,0,0,0
58237,30384,36444,0,0,0
58197,30354,36372,0,0,0
58145,30313,36279,0,0,0
58083,30261,36173,0,0,0
58016,30203,36055,0,0,0
57939,30136,35921,0,0,0
57853,30061,35768,0,0,0
57763,29983,35605,0,0,0
57669,29904,35435,0,0,0
57568,29823,35257,0,0,0
57460,29735,35068,0,0,0
57348,29640,34871,0,0,0
57232,29541,34669,0,0,0
57111,29438,34459,0,0,0
56984,29329,34243,0,0,0
56856,29220,34026,0,0,0
56728,29114,33809,0,0,0
56600,29010,33591,0,0,0
56473,28907,33370,0,0,0
56352,28811,33156,0,0,0
56236,28721,32953,0,0,0
56122,28629,32757,0,0,0
56008,28534,32564,0,0,0
55900,28443,32382,0,0,0
55796,28358,32211,0,0,0
55696,28277,32044,0,0,0
55601,28200,31882,0,0,0
55512,28130,31730,0,0,0
55429,28065,31586,0,0,0
55348,28000,31446,0,0,0
55267,27935,31312,0,0,0
55189,27874,31186,0,0,0
55113,27817,31064,0,0,0
55035,27760,30940,0,0,0
54961,27705,30817,0,0,0
54894,27655,30703,0,0,0
54831,27610,30595,0,0,0
54767,27564,30485,0,0,0
54708,27517,30379,0,0,0
54654,27472,30284,0,0,0
54603,27428,30195,0,0,0
54547,27379,30104,0,0,0
54490,27329,30009,0,0,0
54436,27283,29917,0,0,0
54382,27241,29827,0,0,0
54327,27198,29735,0,0,0
54275,27155,29644,0,0,0
54224,27112,29558,0,0,0
54169,27068,29472,0,0,0
54110,27021,29384,0,0,0
54053,26974,29298,0,0,0
53999,26932,29216,0,0,0
53944,26893,29130,0,0,0
53885,26852,29038,0,0,0
53828,26808,28942,0,0,0
53772,26763,28849,0,0,0
53713,26713,28753,0,0,0
53649,26660,28653,0,0,0
53588,26608,28557,0,0,0
53529,26557,28469,0,0,0
53469,26507,28382,0,0,0
53410,26458,28293,0,0,0
53354,26415,28206,0,0,0
53299,26378,28122,0,0,0
53242,26337,28033,0,0,0
53183,26292,27939,0,0,0
53130,26251,27849,0,0,0
53081,26216,27763,0,0,0
53032,26181,27676,0,0,0
52980,26147,27587,0,0,0
52926,26116,27503,0,0,0
52874,26087,27425,0,0,0
52822,26055,27343,0,0,0
52770,26020,27257,0,0,0
52719,25986,27175,0,0,0
52669,25954,27097,0,0,0
52615,25920,27017,0,0,0
52560,25881,26937,0,0,0
52505,25842,26863,0,0,0
52454,25801,26793,0,0,0
52401,25757,26719,0,0,0
52349,25713,26646,0,0,0
52297,25675,26579,0,0,0
52244,25636,26509,0,0,0
52190,25592,26432,0,0,0
52137,25544,26349,0,0,0
52085,25497,26265,0,0,0
52031,25451,26181,0,0,0
51973,25401,26092,0,0,0
51912,25351,26003,0,0,0
51853,25307,25919,0,0,0
51798,25267,25836,0,0,0
51747,25225,25752,0,0,0
51698,25183,25670,0,0,0
51647,25143,25593,0,0,0
51595,25107,25520,0,0,0
51543,25069,25444,0,0,0
51492,25030,25368,0,0,0
51443,24993,25294,0,0,0
51389,24954,25216,0,0,0
51331,24910,25131,0,0,0
51275,24868,25048,0,0,0
51223,24830,24970,0,0,0
51172,24791,24891,0,0,0
51125,24750,24811,0,0,0
51085,24716,24742,0,0,0
51051,24694,24693,0,0,0
51027,24681,24666,0,0,0
51019,24680,24667,0,0,0
51041,24702,24717,0,0,0
51099,24754,24830,0,0,0
51203,24844,25024,0,0,0
51369,24986,25323,0,0,0
51612,25192,25759,0,0,0
51944,25474,26360,0,0,0
52377,25839,27142,0,0,0
52918,26289,28100,0,0,0
53555,26813,29209,0,0,0
54262,27391,30416,0,0,0
55001,27992,31658,0,0,0
55741,28591,32879,0,0,0
56450,29169,34040,0,0,0
57107,29706,35103,0,0,0
57696,30185,36044,0,0,0
58214,30604,36859,0,0,0
58662,30967,37559,0,0,0
59038,31273,38145,0,0,0
59342,31521,38620,0,0,0
59584,31716,38999,0,0,0
59775,31871,39299,0,0,0
59921,31989,39526,0,0,0
60027,32072,39685,0,0,0
60099,32127,39789,0,0,0
60148,32163,39856,0,0,0
60176,32182,39891,0,0,0
60185,32184,39898,0,0,0
60182,32174,39888,0,0,0
60174,32160,39867,0,0,0
60161,32140,39834,0,0,0
60147,32116,39790,0,0,0
60134,32094,39746,0,0,0
60123,32076,39708,0,0,0
60110,32060,39674,0,0,0
60101,32044,39643,0,0,0
60098,32031,39621,0,0,0
60095,32023,39607,0,0,0
60091,32015,39598,0,0,0
60091,32009,39592,0,0,0
60100,32009,39596,0,0,0
60116,32015,39608,0,0,0
60134,32023,39622,0,0,0
60153,32035,39636,0,0,0
60177,32052,39655,0,0,0
60203,32069,39678,0,0,0
60228,32080,39701,0,0,0
60252,32089,39721,0,0,0
60279,32100,39741,0,0,0
60302,32112,39756,0,0,0
60312,32116,39755,0,0,0
60311,32111,39737,0,0,0
60302,32101,39708,0,0,0
60282,32082,39662,0,0,0
60244,32042,39587,0,0,0
60188,31984,39485,0,0,0
60120,31920,39364,0,0,0
60039,31848,39223,0,0,0
59942,31763,39062,0,0,0
59837,31670,38890,0,0,0
59732,31582,38717,0,0,0
59627,31494,38542,0,0,0
59520,31403,38369,0,0,0
59416,31316,38202,0,0,0
59319,31238,38045,0,0,0
59227,31166,37897,0,0,0
59141,31095,37758,0,0,0
59064,31030,37633,0,0,0
59000,30973,37526,0,0,0
58946,30923,37431,0,0,0
58898,30879,37346,0,0,0
58860,30845,37275,0,0,0
58830,30821,37219,0,0,0
58805,30798,37170,0,0,0
58783,30776,37126,0,0,0
58766,30758,37089,0,0,0
58752,30743,37058,0,0,0
58739,30728,37028,0,0,0
58722,30712,36995,0,0,0
58704,30697,36962,0,0,0
58684,30685,36930,0,0,0
58659,30668,36889,0,0,0
58629,30645,36838,0,0,0
58598,30621,36782,0,0,0
58560,30592,36719,0,0,0
58512,30554,36642,0,0,0
58457,30509,36550,0,0,0
58397,30461,36448,0,0,0
58336,30409,36339,0,0,0
58266,30347,36215,0,0,0
58185,30274,36075,0,0,0
58098,30198,35925,0,0,0
58003,30119,35766,0,0,0
57899,30031,35588,0,0,0
57787,29936,35399,0,0,0
57674,29842,35207,0,0,0
57558,29748,35009,0,0,0
57436,29648,34798,0,0,0
57311,29546,34583,0,0,0
57188,29445,34369,0,0,0
57065,29344,34153,0,0,0
56940,29238,33931,0,0,0
56815,29132,33709,0,0,0
56696,29030,33492,0,0,0
56580,28932,33282,0,0,0
56467,28836,33075,0,0,0
56357,28745,32876,0,0,0
56249,28660,32688,0,0,0
56140,28573,32506,0,0,0
56029,28480,32326,0,0,0
55920,28388,32152,0,0,0
55814,28303,31983,0,0,0
55711,28220,31817,0,0,0
55609,28135,31651,0,0,0
55510,28051,31491,0,0,0
55418,27973,31344,0,0,0
55333,27901,31207,0,0,0
55254,27836,31075,0,0,0
55181,27778,30951,0,0,0
55114,27726,30836,0,0,0
55046,27672,30724,0,0,0
54978,27614,30614,0,0,0
54914,27559,30509,0,0,0
54851,27508,30411,0,0,0
54787,27457,30312,0,0,0
54727,27406,30212,0,0,0
54672,27358,30116,0,0,0
54619,27312,30022,0,0,0
54563,27265,29922,0,0,0
54504,27218,29819,0,0,0
54447,27177,29722,0,0,0
54389,27138,29632,0,0,0
54326,27094,29541,0,0,0
54261,27049,29450,0,0,0
54199,27008,29364,0,0,0
54138,26968,29279,0,0,0
54074,26922,29186,0,0,0
54008,26873,29085,0,0,0
53946,26828,28987,0,0,0
53885,26783,28893,0,0,0
53824,26733,28795,0,0,0
53765,26683,28696,0,0,0
53709,26637,28598,0,0,0
53652,26592,28495,0,0,0
53590,26541,28384,0,0,0
53527,26489,28276,0,0,0
53466,26439,28175,0,0,0
53408,26388,28076,0,0,0
53349,26334,27973,0,0,0
53291,26279,27869,0,0,0
53233,26227,27769,0,0,0
53169,26175,27668,0,0,0
53098,26123,27564,0,0,0
53024,26071,27462,0,0,0
52952,26021,27364,0,0,0
52882,25970,27266,0,0,0
52815,25920,27169,0,0,0
52751,25876,27079,0,0,0
52692,25839,26996,0,0,0
52634,25802,26915,0,0,0
52575,25762,26833,0,0,0
52517,25721,26753,0,0,0
52461,25679,26669,0,0,0
52404,25631,26578,0,0,0
52348,25581,26483,0,0,0
52297,25536,26391,0,0,0
52245,25494,26304,0,0,0
52193,25450,26218,0,0,0
52143,25406,26135,0,0,0
52098,25368,26058,0,0,0
52051,25332,25981,0,0,0
52000,25291,25896,0,0,0
51946,25248,25807,0,0,0
51893,25211,25725,0,0,0
51839,25178,25647,0,0,0
51783,25143,25564,0,0,0
51724,25105,25476,0,0,0
51666,25067,25391,0,0,0
51608,25030,25307,0,0,0
51546,24986,25219,0,0,0
51487,24938,25129,0,0,0
51435,24898,25049,0,0,0
51388,24864,24978,0,0,0
51346,24831,24914,0,0,0
51314,24803,24866,0,0,0
51300,24791,24852,0,0,0
51309,24799,24878,0,0,0
51349,24833,24958,0,0,0
51432,24907,25116,0,0,0
51572,25031,25379,0,0,0
51783,25213,25766,0,0,0
52078,25463,26304,0,0,0
52471,25793,27015,0,0,0
52968,26209,27904,0,0,0
53563,26707,28947,0,0,0
54236,27268,30102,0,0,0
54958,27863,31316,0,0,0
55694,28461,32530,0,0,0
56406,29031,33685,0,0,0
57070,29559,34747,0,0,0
57670,30036,35700,0,0,0
58195,30456,36532,0,0,0
58641,30811,37238,0,0,0
59011,31104,37823,0,0,0
59313,31344,38298,0,0,0
59551,31537,38674,0,0,0
59732,31684,38961,0,0,0
59865,31788,39169,0,0,0
59961,31861,39316,0,0,0
60030,31911,39413,0,0,0
60075,31939,39463,0,0,0
60096,31945,39478,0,0,0
60096,31939,39468,0,0,0
60078,31924,39438,0,0,0
60046,31897,39385,0,0,0
60003,31859,39317,0,0,0
59959,31818,39247,0,0,0
59912,31773,39172,0,0,0
59862,31722,39088,0,0,0
59813,31671,39001,0,0,0
59769,31628,38921,0,0,0
59730,31589,38847,0,0,0
59693,31553,38776,0,0,0
59662,31524,38712,0,0,0
59643,31507,38663,0,0,0
59629,31494,38624,0,0,0
59617,31481,38590,0,0,0
59608,31472,38566,0,0,0
59603,31467,38553,0,0,0
59600,31464,38544,0,0,0
59596,31461,38533,0,0,0
59595,31456,38520,0,0,0
59593,31450,38505,0,0,0
59579,31439,38478,0,0,0
59550,31419,38435,0,0,0
59515,31391,38379,0,0,0
59474,31353,38308,0,0,0
59423,31305,38213,0,0,0
59360,31245,38095,0,0,0
59287,31179,37959,0,0,0
59206,31107,37807,0,0,0
59113,31025,37635,0,0,0
59009,30937,37451,0,0,0
58900,30849,37266,0,0,0
58792,30763,37086,0,0,0
58682,30675,36905,0,0,0
58575,30586,36726,0,0,0
58477,30504,36561,0,0,0
58391,30430,36411,0,0,0
58312,30360,36273,0,0,0
58241,30299,36151,0,0,0
58183,30250,36051,0,0,0
58136,30211,35971,0,0,0
58098,30177,35907,0,0,0
58069,30151,35859,0,0,0
58048,30137,35831,0,0,0
58032,30129,35814,0,0,0
58018,30121,35800,0,0,0
58008,30115,35789,0,0,0
58002,30115,35785,0,0,0
57995,30113,35780,0,0,0
57985,30107,35765,0,0,0
57973,30100,35740,0,0,0
57961,30095,35713,0,0,0
57942,30086,35679,0,0,0
57913,30069,35633,0,0,0
57882,30047,35580,0,0,0
57849,30022,35523,0,0,0
57810,29991,35456,0,0,0
57762,29949,35371,0,0,0
57709,29904,35276,0,0,0
57651,29855,35174,0,0,0
57585,29798,35058,0,0,0
57508,29727,34920,0,0,0
57425,29647,34767,0,0,0
57335,29564,34601,0,0,0
57235,29477,34420,0,0,0
57126,29384,34225,0,0,0
57015,29290,34020,0,0,0
56901,29192,33808,0,0,0
56781,29088,33587,0,0,0
56656,28980,33364,0,0,0
56529,28873,33144,0,0,0
56400,28769,32928,0,0,0
56268,28663,32711,0,0,0
56136,28557,32493,0,0,0
56007,28455,32280,0,0,0
55882,28357,32071,0,0,0
55762,28261,31866,0,0,0
55647,28166,31665,0,0,0
55540,28081,31477,0,0,0
55437,28001,31302,0,0,0
55336,27919,31131,0,0,0
55237,27836,30966,0,0,0
55141,27761,30812,0,0,0
55049,27693,30669,0,0,0
54957,27628,30528,0,0,0
54869,27562,30391,0,0,0
54789,27500,30262,0,0,0
54717,27440,30142,0,0,0
54650,27381,30024,0,0,0
54584,27325,29913,0,0,0
54524,27275,29813,0,0,0
54466,27227,29716,0,0,0
54405,27179,29615,0,0,0
54344,27133,29516,0,0,0
54286,27092,29425,0,0,0
54229,27052,29334,0,0,0
54171,27008,29239,0,0,0
54116,26962,29144,0,0,0
54065,26919,29053,0,0,0
54017,26878,28967,0,0,0
53969,26834,28879,0,0,0
53919,26791,28792,0,0,0
53867,26752,28711,0,0,0
53813,26714,28627,0,0,0
53758,26670,28538,0,0,0
53707,26628,28448,0,0,0
53657,26588,28361,0,0,0
53605,26545,28272,0,0,0
53548,26498,28182,0,0,0
53491,26451,28096,0,0,0
53434,26404,28011,0,0,0
53375,26353,27923,0,0,0
53314,26300,27834,0,0,0
53256,26253,27747,0,0,0
53199,26209,27663,0,0,0
53141,26167,27579,0,0,0
53085,26125,27495,0,0,0
53032,26086,27415,0,0,0
52980,26048,27335,0,0,0
52925,26007,27251,0,0,0
52869,25965,27163,0,0,0
52816,25928,27080,0,0,0
52765,25893,26999,0,0,0
52714,25854,26913,0,0,0
52660,25809,26826,0,0,0
52605,25762,26739,0,0,0
52548,25717,26649,0,0,0
52489,25670,26553,0,0,0
52431,25624,26455,0,0,0
52377,25584,26361,0,0,0
52323,25547,26268,0,0,0
52265,25505,26171,0,0,0
52205,25461,26076,0,0,0
52145,25417,25986,0,0,0
52085,25371,25895,0,0,0
52022,25320,25800,0,0,0
51961,25269,25703,0,0,0
51903,25220,25612,0,0,0
51845,25171,25523,0,0,0
51784,25122,25436,0,0,0
51724,25075,25351,0,0,0
51664,25029,25266,0,0,0
51603,24983,25181,0,0,0
51543,24937,25097,0,0,0
51487,24897,25017,0,0,0
51435,24865,24945,0,0,0
51384,24836,24875,0,0,0
51340,24808,24808,0,0,0
51307,24788,24755,0,0,0
51284,24777,24723,0,0,0
51273,24777,24715,0,0,0
51285,24795,24743,0,0,0
51338,24840,24833,0,0,0
51441,24923,25007,0,0,0
51599,25050,25286,0,0,0
51825,25235,25693,0,0,0
52139,25499,26266,0,0,0
52553,25851,27021,0,0,0
53071,26288,27948,0,0,0
53684,26799,29020,0,0,0
54370,27370,30201,0,0,0
55098,27971,31431,0,0,0
55828,28567,32643,0,0,0
56527,29137,33789,0,0,0
57179,29669,34845,0,0,0
57769,30150,35793,0,0,0
58285,30566,36617,0,0,0
58726,30917,37315,0,0,0
59100,31214,37897,0,0,0
59410,31461,38370,0,0,0
59657,31657,38741,0,0,0
59852,31810,39027,0,0,0
60004,31929,39248,0,0,0
60116,32015,39412,0,0,0
60192,32068,39522,0,0,0
60242,32097,39593,0,0,0
60277,32115,39638,0,0,0
60298,32122,39658,0,0,0
60306,32115,39656,0,0,0
60307,32102,39640,0,0,0
60299,32088,39616,0,0,0
60282,32071,39583,0,0,0
60258,32044,39542,0,0,0
60235,32015,39498,0,0,0
60216,31991,39458,0,0,0
60200,31970,39423,0,0,0
60190,31955,39391,0,0,0
60188,31948,39367,0,0,0
60192,31952,39355,0,0,0
60198,31959,39350,0,0,0
60206,31969,39351,0,0,0
60219,31983,39361,0,0,0
60236,31998,39378,0,0,0
60252,32009,39395,0,0,0
60269,32015,39411,0,0,0
60288,32023,39431,0,0,0
60310,32037,39455,0,0,0
60331,32050,39473,0,0,0
60350,32061,39482,0,0,0
60368,32071,39487,0,0,0
60378,32078,39489,0,0,0
60373,32074,39473,0,0,0
60355,32059,39435,0,0,0
60328,32036,39382,0,0,0
60291,32005,39313,0,0,0
60237,31958,39217,0,0,0
60166,31895,39092,0,0,0
60086,31825,38950,0,0,0
60000,31749,38796,0,0,0
59905,31663,38629,0,0,0
59803,31569,38454,0,0,0
59699,31480,38281,0,0,0
59599,31398,38113,0,0,0
59498,31313,37945,0,0,0
59399,31229,37780,0,0,0
59308,31154,37629,0,0,0
59223,31085,37489,0,0,0
59141,31017,37354,0,0,0
59067,30953,37228,0,0,0
59003,30899,37119,0,0,0
58949,30854,37027,0,0,0
58902,30814,36951,0,0,0
58864,30784,36891,0,0,0
58836,30761,36847,0,0,0
58817,30740,36810,0,0,0
58801,30718,36774,0,0,0
58786,30698,36741,0,0,0
58772,30683,36715,0,0,0
58757,30669,36685,0,0,0
58740,30653,36648,0,0,0
58720,30636,36610,0,0,0
58699,30616,36569,0,0,0
58673,30591,36523,0,0,0
58644,30562,36469,0,0,0
58615,30533,36410,0,0,0
58585,30503,36344,0,0,0
58547,30466,36263,0,0,0
58498,30420,36167,0,0,0
58443,30370,36062,0,0,0
58377,30315,35946,0,0,0
58297,30251,35814,0,0,0
58207,30176,35665,0,0,0
58110,30095,35502,0,0,0
58005,30009,35324,0,0,0
57889,29912,35128,0,0,0
57764,29807,34918,0,0,0
57636,29699,34703,0,0,0
57505,29589,34485,0,0,0
57370,29475,34259,0,0,0
57232,29358,34029,0,0,0
57097,29245,33805,0,0,0
56965,29137,33585,0,0,0
56837,29029,33363,0,0,0
56711,28921,33141,0,0,0
56590,28820,32926,0,0,0
56473,28729,32719,0,0,0
56358,28637,32513,0,0,0
56246,28547,32315,0,0,0
56142,28466,32131,0,0,0
56044,28390,31959,0,0,0
55947,28314,31789,0,0,0
55853,28239,31622,0,0,0
55764,28168,31460,0,0,0
55676,28098,31300,0,0,0
55586,28025,31141,0,0,0
55498,27953,30986,0,0,0
55412,27886,30841,0,0,0
55327,27819,30703,0,0,0
55241,27748,30563,0,0,0
55158,27679,30429,0,0,0
55077,27616,30305,0,0,0
54999,27556,30183,0,0,0
54927,27496,30059,0,0,0
54859,27438,29939,0,0,0
54792,27382,29823,0,0,0
54721,27324,29704,0,0,0
54647,27267,29584,0,0,0
54574,27213,29468,0,0,0
54501,27161,29355,0,0,0
54427,27105,29239,0,0,0
54355,27049,29120,0,0,0
54287,26995,29005,0,0,0
54219,26940,28896,0,0,0
54145,26880,28789,0,0,0
54068,26818,28680,0,0,0
53994,26762,28574,0,0,0
53925,26710,28470,0,0,0
53859,26657,28361,0,0,0
53794,26603,28253,0,0,0
53735,26553,28156,0,0,0
53679,26505,28066,0,0,0
53620,26457,27974,0,0,0
53559,26407,27878,0,0,0
53498,26357,27783,0,0,0
53437,26308,27685,0,0,0
53375,26256,27581,0,0,0
53314,26207,27477,0,0,0
53257,26165,27381,0,0,0
53200,26125,27288,0,0,0
53139,26078,27190,0,0,0
53076,26026,27087,0,0,0
53013,25977,26989,0,0,0
52948,25929,26893,0,0,0
52879,25874,26791,0,0,0
52808,25815,26685,0,0,0
52744,25761,26581,0,0,0
52681,25710,26474,0,0,0
52614,25654,26361,0,0,0
52547,25599,26250,0,0,0
52488,25550,26146,0,0,0
52432,25504,26045,0,0,0
52374,25456,25946,0,0,0
52318,25408,25853,0,0,0
52265,25360,25768,0,0,0
52211,25310,25686,0,0,0
52156,25257,25602,0,0,0
52102,25211,25521,0,0,0
52050,25173,25445,0,0,0
52001,25136,25371,0,0,0
51953,25099,25297,0,0,0
51906,25068,25226,0,0,0
51858,25042,25154,0,0,0
51806,25012,25075,0,0,0
51753,24979,24991,0,0,0
51704,24944,24907,0,0,0
51657,24911,24823,0,0,0
51606,24874,24739,0,0,0
51555,24833,24654,0,0,0
51506,24792,24576,0,0,0
51458,24752,24507,0,0,0
51407,24709,24440,0,0,0
51354,24666,24373,0,0,0
51301,24628,24312,0,0,0
51248,24589,24250,0,0,0
51192,24546,24183,0,0,0
51135,24504,24114,0,0,0
51082,24468,24048,0,0,0
51031,24432,23985,0,0,0
50979,24392,23921,0,0,0
50929,24355,23860,0,0,0
50888,24324,23809,0,0,0
50854,24300,23768,0,0,0
50830,24285,23744,0,0,0
50828,24288,23754,0,0,0
50859,24322,23818,0,0,0
50930,24388,23949,0,0,0
51049,24493,24163,0,0,0
51231,24649,24488,0,0,0
51490,24871,24955,0,0,0
51840,25167,25583,0,0,0
52290,25541,26382,0,0,0
52846,25995,27351,0,0,0
53494,26525,28470,0,0,0
54207,27105,29687,0,0,0
54949,27707,30935,0,0,0
55688,28307,32163,0,0,0
56395,28880,33325,0,0,0
57041,29404,34379,0,0,0
57615,29866,35304,0,0,0
58111,30266,36101,0,0,0
58527,30604,36773,0,0,0
58865,30875,37317,0,0,0
59136,31086,37743,0,0,0
59350,31250,38070,0,0,0
59513,31376,38311,0,0,0
59629,31465,38480,0,0,0
59708,31524,38592,0,0,0
59760,31561,38659,0,0,0
59790,31582,38686,0,0,0
59797,31583,38679,0,0,0
59785,31569,38647,0,0,0
59760,31542,38602,0,0,0
59725,31506,38546,0,0,0
59681,31462,38477,0,0,0
59633,31413,38402,0,0,0
59584,31365,38326,0,0,0
59535,31320,38249,0,0,0
59490,31275,38170,0,0,0
59450,31234,38095,0,0,0
59420,31202,38034,0,0,0
59398,31177,37980,0,0,0
59379,31151,37929,0,0,0
59364,31129,37886,0,0,0
59356,31117,37853,0,0,0
59349,31114,37828,0,0,0
59341,31111,37807,0,0,0
59335,31110,37793,0,0,0
59334,31114,37790,0,0,0
59336,31120,37792,0,0,0
59335,31120,37787,0,0,0
59331,31113,37776,0,0,0
59324,31102,37758,0,0,0
59312,31084,37727,0,0,0
59291,31059,37678,0,0,0
59259,31029,37613,0,0,0
59214,30992,37525,0,0,0
59153,30943,37412,0,0,0
59076,30882,37273,0,0,0
58987,30811,37114,0,0,0
58887,30732,36938,0,0,0
58774,30639,36741,0,0,0
58656,30538,36530,0,0,0
58537,30435,36318,0,0,0
58416,30331,36110,0,0,0
58292,30224,35904,0,0,0
58171,30118,35701,0,0,0
58058,30021,35509,0,0,0
57951,29934,35332,0,0,0
57850,29853,35169,0,0,0
57759,29781,35026,0,0,0
57684,29724,34907,0,0,0
57624,29681,34812,0,0,0
57576,29645,34732,0,0,0
57542,29615,34669,0,0,0
57519,29599,34627,0,0,0
57503,29592,34602,0,0,0
57487,29585,34580,0,0,0
57475,29577,34561,0,0,0
57470,29573,34549,0,0,0
57465,29567,34537,0,0,0
57455,29552,34516,0,0,0
57440,29535,34487,0,0,0
57423,29520,34457,0,0,0
57402,29504,34423,0,0,0
57377,29482,34375,0,0,0
57348,29456,34314,0,0,0
57314,29425,34244,0,0,0
57270,29387,34159,0,0,0
57210,29338,34053,0,0,0
57137,29281,33930,0,0,0
57053,29219,33796,0,0,0
56961,29152,33648,0,0,0
56857,29076,33482,0,0,0
56744,28996,33303,0,0,0
56627,28910,33117,0,0,0
56508,28815,32920,0,0,0
56390,28714,32711,0,0,0
56273,28612,32497,0,0,0
56154,28510,32282,0,0,0
56031,28403,32063,0,0,0
55903,28294,31843,0,0,0
55777,28191,31627,0,0,0
55654,28091,31414,0,0,0
55530,27989,31197,0,0,0
55410,27887,30980,0,0,0
55296,27789,30771,0,0,0
55185,27694,30572,0,0,0
55075,27600,30381,0,0,0
54969,27511,30199,0,0,0
54871,27430,30029,0,0,0
54778,27353,29873,0,0,0
54693,27276,29721,0,0,0
54615,27201,29573,0,0,0
54545,27135,29436,0,0,0
54475,27075,29309,0,0,0
54404,27016,29187,0,0,0
54334,26960,29069,0,0,0
54270,26910,28964,0,0,0
54208,26864,28868,0,0,0
54146,26817,28772,0,0,0
54085,26771,28676,0,0,0
54029,26730,28588,0,0,0
53975,26694,28502,0,0,0
53920,26655,28413,0,0,0
53864,26611,28325,0,0,0
53814,26571,28247,0,0,0
53763,26533,28170,0,0,0
53708,26489,28083,0,0,0
53654,26442,27991,0,0,0
53604,26400,27902,0,0,0
53557,26360,27814,0,0,0
53509,26320,27727,0,0,0
53459,26280,27643,0,0,0
53413,26243,27562,0,0,0
53367,26204,27480,0,0,0
53320,26162,27398,0,0,0
53276,26121,27319,0,0,0
53233,26083,27243,0,0,0
53184,26043,27162,0,0,0
53129,26003,27076,0,0,0
53075,25966,26991,0,0,0
53023,25933,26909,0,0,0
52972,25899,26827,0,0,0
52924,25863,26748,0,0,0
52878,25832,26677,0,0,0
52830,25802,26609,0,0,0
52778,25768,26538,0,0,0
52724,25729,26461,0,0,0
52674,25693,26387,0,0,0
52623,25659,26314,0,0,0
52570,25622,26237,0,0,0
52520,25582,26157,0,0,0
52473,25541,26078,0,0,0
52426,25503,26001,0,0,0
52373,25462,25920,0,0,0
52319,25420,25837,0,0,0
52269,25380,25755,0,0,0
52220,25340,25670,0,0,0
52165,25294,25577,0,0,0
52108,25245,25481,0,0,0
52051,25202,25388,0,0,0
51991,25162,25298,0,0,0
51928,25118,25207,0,0,0
51865,25073,25116,0,0,0
51807,25033,25029,0,0,0
51752,24995,24943,0,0,0
51695,24954,24854,0,0,0
51641,24913,24768,0,0,0
51596,24880,24696,0,0,0
51560,24855,24639,0,0,0
51530,24836,24598,0,0,0
51515,24831,24585,0,0,0
51523,24845,24613,0,0,0
51564,24885,24694,0,0,0
51649,24958,24848,0,0,0
51791,25082,25106,0,0,0
52004,25266,25496,0,0,0
52300,25517,26036,0,0,0
52689,25841,26739,0,0,0
53174,26245,27609,0,0,0
53748,26725,28631,0,0,0
54392,27261,29757,0,0,0
55077,27827,30933,0,0,0
55773,28399,32107,0,0,0
56448,28951,33228,0,0,0
57074,29461,34255,0,0,0
57638,29917,35169,0,0,0
58138,30317,35967,0,0,0
58571,30661,36648,0,0,0
58934,30948,37214,0,0,0
59232,31181,37676,0,0,0
59473,31369,38047,0,0,0
59661,31516,38334,0,0,0
59799,31623,38542,0,0,0
59897,31698,38685,0,0,0
59966,31749,38781,0,0,0
60013,31780,38840,0,0,0
60037,31791,38865,0,0,0
60043,31788,38862,0,0,0
60033,31777,38840,0,0,0
60009,31755,38801,0,0,0
59975,31722,38745,0,0,0
59937,31685,38680,0,0,0
59901,31653,38615,0,0,0
59867,31624,38550,0,0,0
59832,31592,38480,0,0,0
59798,31562,38413,0,0,0
59770,31539,38358,0,0,0
59747,31524,38314,0,0,0
59726,31511,38276,0,0,0
59710,31502,38245,0,0,0
59702,31500,38224,0,0,0
59702,31500,38208,0,0,0
59707,31498,38197,0,0,0
59719,31500,38195,0,0,0
59734,31507,38203,0,0,0
59744,31512,38211,0,0,0
59747,31511,38209,0,0,0
59743,31506,38199,0,0,0
59732,31497,38182,0,0,0
59714,31480,38150,0,0,0
59687,31453,38100,0,0,0
59651,31420,38032,0,0,0
59604,31380,37944,0,0,0
59541,31326,37832,0,0,0
59464,31258,37698,0,0,0
59379,31183,37549,0,0,0
59286,31103,37387,0,0,0
59182,31014,37209,0,0,0
59069,30917,37017,0,0,0
58954,30819,36821,0,0,0
58839,30725,36632,0,0,0
58727,30635,36449,0,0,0
58622,30549,36276,0,0,0
58526,30473,36121,0,0,0
58443,30406,35987,0,0,0
58371,30343,35868,0,0,0
58310,30285,35760,0,0,0
58261,30239,35668,0,0,0
58220,30203,35596,0,0,0
58185,30169,35538,0,0,0
58158,30139,35490,0,0,0
58138,30120,35452,0,0,0
58121,30108,35417,0,0,0
58106,30095,35383,0,0,0
58096,30083,35354,0,0,0
58090,30076,35333,0,0,0
58082,30069,35312,0,0,0
58067,30058,35285,0,0,0
58049,30044,35250,0,0,0
58030,30031,35209,0,0,0
58004,30014,35163,0,0,0
57970,29989,35106,0,0,0
57929,29958,35038,0,0,0
57884,29924,34962,0,0,0
57831,29881,34873,0,0,0
57769,29827,34767,0,0,0
57698,29766,34646,0,0,0
57616,29702,34515,0,0,0
57523,29627,34370,0,0,0
57422,29543,34210,0,0,0
57317,29454,34037,0,0,0
57211,29360,33849,0,0,0
57100,29261,33645,0,0,0
56987,29159,33430,0,0,0
56873,29057,33210,0,0,0
56754,28958,32989,0,0,0
56631,28857,32765,0,0,0
56507,28755,32537,0,0,0
56386,28656,32312,0,0,0
56266,28558,32095,0,0,0
56145,28457,31881,0,0,0
56023,28354,31669,0,0,0
55904,28256,31466,0,0,0
55791,28166,31274,0,0,0
55681,28079,31088,0,0,0
55573,27995,30910,0,0,0
55473,27917,30745,0,0,0
55380,27847,30590,0,0,0
55290,27778,30438,0,0,0
55204,27708,30288,0,0,0
55125,27642,30152,0,0,0
55047,27580,30028,0,0,0
54971,27519,29906,0,0,0
54902,27459,29787,0,0,0
54839,27403,29677,0,0,0
54778,27347,29568,0,0,0
54715,27289,29456,0,0,0
54653,27237,29348,0,0,0
54596,27194,29250,0,0,0
54542,27157,29156,0,0,0
54485,27117,29059,0,0,0
54426,27074,28964,0,0,0
54368,27033,28874,0,0,0
54313,26993,28786,0,0,0
54258,26949,28694,0,0,0
54203,26902,28606,0,0,0
54150,26859,28522,0,0,0
54097,26818,28435,0,0,0
54043,26776,28344,0,0,0
53990,26736,28254,0,0,0
53938,26695,28166,0,0,0
53885,26653,28076,0,0,0
53832,26611,27985,0,0,0
53783,26572,27903,0,0,0
53737,26537,27828,0,0,0
53691,26501,27750,0,0,0
53644,26463,27670,0,0,0
53597,26426,27595,0,0,0
53548,26387,27520,0,0,0
53492,26341,27438,0,0,0
53434,26293,27351,0,0,0
53376,26248,27268,0,0,0
53320,26207,27190,0,0,0
53263,26165,27109,0,0,0
53207,26123,27024,0,0,0
53155,26086,26943,0,0,0
53103,26052,26867,0,0,0
53049,26011,26785,0,0,0
52996,25965,26699,0,0,0
52945,25923,26614,0,0,0
52896,25884,26530,0,0,0
52843,25843,26441,0,0,0
52789,25802,26350,0,0,0
52739,25765,26261,0,0,0
52692,25730,26175,0,0,0
52642,25690,26086,0,0,0
52589,25647,25996,0,0,0
52536,25606,25913,0,0,0
52481,25564,25829,0,0,0
52422,25519,25741,0,0,0
52366,25476,25654,0,0,0
52314,25437,25572,0,0,0
52261,25397,25490,0,0,0
52207,25354,25403,0,0,0
52156,25310,25318,0,0,0
52106,25268,25238,0,0,0
52052,25228,25159,0,0,0
51994,25185,25076,0,0,0
51935,25142,24993,0,0,0
51878,25101,24911,0,0,0
51820,25060,24829,0,0,0
51762,25016,24745,0,0,0
51707,24977,24669,0,0,0
51656,24946,24604,0,0,0
51608,24920,24550,0,0,0
51572,24897,24510,0,0,0
51556,24887,24498,0,0,0
51563,24900,24524,0,0,0
51601,24939,24602,0,0,0
51682,25013,24755,0,0,0
51821,25136,25012,0,0,0
52032,25315,25394,0,0,0
52325,25560,25925,0,0,0
52715,25883,26628,0,0,0
53211,26294,27509,0,0,0
53803,26783,28549,0,0,0
54470,27330,29699,0,0,0
55179,27908,30900,0,0,0
55897,28495,32101,0,0,0
56593,29064,33252,0,0,0
57243,29590,34311,0,0,0
57831,30064,35257,0,0,0
58351,30483,36087,0,0,0
58800,30844,36802,0,0,0
59179,31143,37400,0,0,0
59492,31386,37892,0,0,0
59750,31587,38293,0,0,0
59956,31747,38612,0,0,0
60111,31867,38851,0,0,0
60223,31954,39024,0,0,0
60306,32020,39149,0,0,0
60363,32065,39235,0,0,0
60396,32089,39283,0,0,0
60412,32097,39304,0,0,0
60418,32098,39310,0,0,0
60417,32092,39304,0,0,0
60413,32080,39285,0,0,0
60409,32067,39260,0,0,0
60405,32055,39235,0,0,0
60398,32043,39206,0,0,0
60390,32029,39175,0,0,0
60386,32017,39148,0,0,0
60384,32008,39131,0,0,0
60384,32000,39117,0,0,0
60387,31994,39103,0,0,0
60393,31996,39097,0,0,0
60403,32002,39098,0,0,0
60416,32007,39103,0,0,0
60433,32014,39113,0,0,0
60454,32027,39131,0,0,0
60478,32044,39156,0,0,0
60501,32060,39184,0,0,0
60524,32076,39213,0,0,0
60546,32095,39243,0,0,0
60564,32113,39272,0,0,0
60575,32123,39292,0,0,0
60581,32126,39297,0,0,0
60584,32121,39290,0,0,0
60581,32109,39269,0,0,0
60566,32083,39222,0,0,0
60536,32045,39151,0,0,0
60491,31998,39059,0,0,0
60430,31940,38944,0,0,0
60354,31871,38807,0,0,0
60269,31796,38655,0,0,0
60179,31723,38496,0,0,0
60085,31648,38329,0,0,0
59986,31565,38153,0,0,0
59889,31479,37976,0,0,0
59794,31398,37810,0,0,0
59704,31320,37655,0,0,0
59617,31242,37508,0,0,0
59537,31168,37370,0,0,0
59467,31106,37248,0,0,0
59404,31052,37139,0,0,0
59348,30999,37040,0,0,0
59300,30950,36950,0,0,0
59257,30910,36874,0,0,0
59218,30874,36807,0,0,0
59181,30840,36745,0,0,0
59149,30814,36689,0,0,0
59122,30796,36644,0,0,0
59099,30780,36604,0,0,0
59077,30764,36565,0,0,0
59052,30749,36527,0,0,0
59026,30734,36490,0,0,0
58998,30715,36445,0,0,0
58971,30692,36392,0,0,0
58942,30666,36335,0,0,0
58907,30635,36274,0,0,0
58866,30596,36203,0,0,0
58820,30551,36118,0,0,0
58770,30503,36022,0,0,0
58710,30452,35914,0,0,0
58636,30392,35791,0,0,0
58551,30324,35651,0,0,0
58460,30252,35502,0,0,0
58366,30177,35343,0,0,0
58267,30094,35173,0,0,0
58163,30005,34991,0,0,0
58059,29914,34803,0,0,0
57959,29823,34609,0,0,0
57853,29728,34407,0,0,0
57741,29629,34202,0,0,0
57624,29531,33999,0,0,0
57504,29433,33795,0,0,0
57381,29334,33585,0,0,0
57258,29238,33378,0,0,0
57138,29145,33179,0,0,0
57019,29053,32981,0,0,0
56902,28956,32778,0,0,0
56788,28860,32579,0,0,0
56679,28769,32388,0,0,0
56570,28679,32200,0,0,0
56461,28586,32012,0,0,0
56355,28496,31831,0,0,0
56254,28414,31660,0,0,0
56157,28338,31498,0,0,0
56068,28265,31343,0,0,0
55986,28198,31198,0,0,0
55909,28137,31064,0,0,0
55835,28077,30934,0,0,0
55764,28018,30805,0,0,0
55695,27962,30681,0,0,0
55628,27908,30562,0,0,0
55558,27851,30442,0,0,0
55487,27790,30321,0,0,0
55418,27731,30205,0,0,0
55348,27674,30096,0,0,0
55276,27613,29986,0,0,0
55200,27550,29875,0,0,0
55128,27489,29767,0,0,0
55060,27433,29665,0,0,0
54991,27379,29566,0,0,0
54923,27325,29466,0,0,0
54864,27277,29370,0,0,0
54812,27236,29277,0,0,0
54758,27192,29181,0,0,0
54704,27144,29083,0,0,0
54653,27099,28988,0,0,0
54606,27058,28897,0,0,0
54558,27015,28807,0,0,0
54509,26971,28715,0,0,0
54461,26932,28626,0,0,0
54413,26895,28541,0,0,0
54359,26856,28453,0,0,0
54299,26813,28362,0,0,0
54240,26770,28269,0,0,0
54181,26726,28173,0,0,0
54120,26678,28071,0,0,0
54060,26629,27969,0,0,0
54002,26582,27873,0,0,0
53944,26536,27780,0,0,0
53884,26488,27683,0,0,0
53821,26439,27585,0,0,0
53758,26394,27492,0,0,0
53697,26349,27404,0,0,0
53633,26300,27312,0,0,0
53569,26250,27219,0,0,0
53507,26205,27132,0,0,0
53447,26161,27045,0,0,0
53389,26114,26954,0,0,0
53331,26066,26862,0,0,0
53275,26020,26775,0,0,0
53221,25975,26690,0,0,0
53165,25931,26605,0,0,0
53109,25889,26523,0,0,0
53055,25848,26442,0,0,0
53003,25806,26354,0,0,0
52948,25762,26260,0,0,0
52891,25719,26166,0,0,0
52834,25676,26076,0,0,0
52774,25630,25984,0,0,0
52717,25584,25891,0,0,0
52664,25543,25803,0,0,0
52614,25504,25719,0,0,0
52561,25460,25634,0,0,0
52508,25412,25549,0,0,0
52457,25365,25469,0,0,0
52407,25320,25391,0,0,0
52355,25275,25310,0,0,0
52302,25232,25227,0,0,0
52253,25194,25152,0,0,0
52205,25159,25079,0,0,0
52155,25121,25001,0,0,0
52102,25084,24920,0,0,0
52049,25053,24841,0,0,0
51996,25022,24767,0,0,0
51943,24986,24694,0,0,0
51895,24949,24622,0,0,0
51852,24919,24557,0,0,0
51814,24895,24502,0,0,0
51785,24875,24460,0,0,0
51774,24868,24447,0,0,0
51792,24886,24479,0,0,0
51841,24932,24570,0,0,0
51932,25010,24733,0,0,0
52078,25134,24998,0,0,0
52295,25319,25397,0,0,0
52594,25572,25950,0,0,0
52988,25900,26666,0,0,0
53483,26310,27552,0,0,0
54072,26800,28594,0,0,0
54729,27345,29745,0,0,0
55423,27917,30944,0,0,0
56125,28491,32136,0,0,0
56806,29050,33276,0,0,0
57441,29572,34326,0,0,0
58016,30041,35265,0,0,0
58521,30453,36084,0,0,0
58956,30807,36785,0,0,0
59320,31102,37368,0,0,0
59619,31341,37843,0,0,0
59861,31534,38225,0,0,0
60052,31688,38523,0,0,0
60194,31802,38741,0,0,0
60297,31881,38890,0,0,0
60371,31935,38991,0,0,0
60419,31970,39053,0,0,0
60442,31984,39081,0,0,0
60445,31982,39082,0,0,0
60436,31973,39070,0,0,0
60418,31961,39048,0,0,0
60393,31941,39011,0,0,0
60366,31914,38963,0,0,0
60343,31889,38915,0,0,0
60323,31868,38871,0,0,0
60301,31846,38825,0,0,0
60283,31826,38780,0,0,0
60273,31812,38745,0,0,0
60268,31804,38719,0,0,0
60264,31794,38700,0,0,0
60262,31786,38688,0,0,0
60266,31784,38686,0,0,0
60276,31785,38687,0,0,0
60287,31783,38688,0,0,0
60301,31786,38694,0,0,0
60319,31800,38710,0,0,0
60339,31818,38731,0,0,0
60355,31834,38748,0,0,0
60368,31847,38761,0,0,0
60380,31859,38769,0,0,0
60385,31863,38765,0,0,0
60377,31854,38743,0,0,0
60355,31834,38705,0,0,0
60320,31803,38647,0,0,0
60269,31759,38563,0,0,0
60204,31698,38449,0,0,0
60127,31625,38313,0,0,0
60041,31545,38161,0,0,0
59942,31458,37991,0,0,0
59838,31365,37807,0,0,0
59734,31272,37623,0,0,0
59629,31181,37444,0,0,0
59524,31093,37266,0,0,0
59421,31005,37091,0,0,0
59323,30922,36929,0,0,0
59233,30846,36781,0,0,0
59152,30773,36647,0,0,0
59080,30706,36528,0,0,0
59023,30651,36431,0,0,0
58980,30610,36357,0,0,0
58943,30576,36296,0,0,0
58909,30546,36245,0,0,0
58884,30526,36205,0,0,0
58866,30514,36176,0,0,0
58853,30503,36153,0,0,0
58847,30494,36134,0,0,0
58846,30488,36124,0,0,0
58844,30482,36117,0,0,0
58837,30473,36107,0,0,0
58830,30466,36091,0,0,0
58823,30462,36071,0,0,0
58810,30454,36037,0,0,0
58788,30438,35989,0,0,0
58762,30416,35933,0,0,0
58733,30393,35874,0,0,0
58700,30367,35808,0,0,0
58657,30331,35729,0,0,0
58606,30287,35635,0,0,0
58545,30238,35528,0,0,0
58475,30179,35406,0,0,0
58396,30110,35266,0,0,0
58307,30036,35112,0,0,0
58211,29959,34947,0,0,0
58108,29874,34770,0,0,0
57998,29777,34578,0,0,0
57881,29680,34373,0,0,0
57760,29588,34161,0,0,0
57636,29496,33945,0,0,0
57514,29400,33731,0,0,0
57399,29305,33523,0,0,0
57288,29210,33322,0,0,0
57174,29113,33121,0,0,0
57056,29015,32920,0,0,0
56939,28920,32720,0,0,0
56822,28826,32521,0,0,0
56703,28730,32321,0,0,0
56586,28636,32126,0,0,0
56478,28548,31943,0,0,0
56378,28465,31774,0,0,0
56282,28384,31611,0,0,0
56192,28307,31452,0,0,0
56108,28235,31305,0,0,0
56030,28170,31166,0,0,0
55954,28109,31028,0,0,0
55883,28050,30892,0,0,0
55819,27994,30767,0,0,0
55758,27939,30651,0,0,0
55694,27883,30540,0,0,0
55630,27830,30433,0,0,0
55569,27784,30335,0,0,0
55507,27740,30243,0,0,0
55441,27694,30149,0,0,0
55376,27647,30055,0,0,0
55317,27604,29968,0,0,0
55262,27561,29882,0,0,0
55205,27515,29791,0,0,0
55151,27472,29702,0,0,0
55103,27435,29620,0,0,0
55057,27400,29540,0,0,0
55011,27363,29459,0,0,0
54967,27327,29379,0,0,0
54927,27294,29304,0,0,0
54883,27259,29228,0,0,0
54837,27222,29152,0,0,0
54792,27184,29078,0,0,0
54747,27151,29005,0,0,0
54699,27116,28930,0,0,0
54648,27075,28853,0,0,0
54599,27036,28780,0,0,0
54554,27000,28714,0,0,0
54507,26965,28646,0,0,0
54457,26928,28573,0,0,0
54407,26889,28500,0,0,0
54359,26849,28425,0,0,0
54308,26808,28345,0,0,0
54256,26765,28259,0,0,0
54203,26725,28170,0,0,0
54147,26686,28080,0,0,0
54086,26642,27986,0,0,0
54024,26593,27890,0,0,0
53964,26546,27795,0,0,0
53905,26500,27701,0,0,0
53845,26453,27601,0,0,0
53786,26405,27497,0,0,0
53728,26362,27398,0,0,0
53670,26321,27302,0,0,0
53608,26276,27206,0,0,0
53546,26228,27108,0,0,0
53486,26182,27010,0,0,0
53423,26136,26910,0,0,0
53357,26085,26804,0,0,0
53292,26032,26698,0,0,0
53230,25985,26602,0,0,0
53172,25941,26513,0,0,0
53114,25897,26425,0,0,0
53064,25855,26347,0,0,0
53031,25825,26296,0,0,0
53016,25811,26279,0,0,0
53023,25817,26301,0,0,0
53066,25858,26385,0,0,0
53156,25946,26558,0,0,0
53308,26087,26847,0,0,0
53534,26286,27272,0,0,0
53850,26558,27856,0,0,0
54264,26910,28610,0,0,0
54768,27337,29513,0,0,0
55348,27820,30528,0,0,0
55979,28344,31615,0,0,0
56630,28885,32724,0,0,0
57272,29416,33803,0,0,0
57880,29913,34814,0,0,0
58441,30367,35736,0,0,0
58945,30775,36557,0,0,0
59386,31132,37270,0,0,0
59765,31440,37879,0,0,0
60089,31702,38394,0,0,0
60360,31920,38823,0,0,0
60582,32094,39168,0,0,0
60761,32230,39439,0,0,0
60903,32339,39650,0,0,0
61009,32424,39809,0,0,0
61082,32485,39920,0,0,0
61130,32523,39989,0,0,0
61162,32546,40032,0,0,0
61182,32559,40053,0,0,0
61190,32558,40050,0,0,0
61189,32546,40027,0,0,0
61188,32534,39998,0,0,0
61188,32522,39968,0,0,0
61186,32507,39934,0,0,0
61181,32491,39898,0,0,0
61175,32480,39869,0,0,0
61169,32472,39848,0,0,0
61163,32465,39829,0,0,0
61159,32464,39817,0,0,0
61163,32469,39816,0,0,0
61170,32474,39820,0,0,0
61177,32477,39823,0,0,0
61190,32481,39831,0,0,0
61210,32494,39847,0,0,0
61233,32510,39866,0,0,0
61256,32523,39885,0,0,0
61283,32534,39909,0,0,0
61310,32548,39934,0,0,0
61334,32562,39951,0,0,0
61350,32571,39957,0,0,0
61359,32573,39955,0,0,0
61358,32570,39943,0,0,0
61345,32556,39913,0,0,0
61315,32527,39860,0,0,0
61269,32487,39783,0,0,0
61210,32438,39684,0,0,0
61141,32378,39565,0,0,0
61060,32305,39424,0,0,0
60970,32224,39267,0,0,0
60872,32140,39101,0,0,0
60768,32050,38927,0,0,0
60663,31960,38752,0,0,0
60561,31876,38586,0,0,0
60464,31797,38432,0,0,0
60373,31722,38288,0,0,0
60293,31651,38153,0,0,0
60226,31591,38033,0,0,0
60169,31543,37933,0,0,0
60120,31500,37847,0,0,0
60080,31464,37771,0,0,0
60052,31438,37710,0,0,0
60034,31420,37665,0,0,0
60022,31409,37634,0,0,0
60016,31401,37616,0,0,0
60015,31397,37612,0,0,0
60014,31396,37613,0,0,0
60012,31394,37610,0,0,0
60012,31391,37603,0,0,0
60014,31389,37594,0,0,0
60011,31384,37576,0,0,0
60002,31371,37548,0,0,0
59992,31352,37512,0,0,0
59977,31332,37472,0,0,0
59953,31306,37422,0,0,0
59919,31272,37355,0,0,0
59879,31231,37275,0,0,0
59832,31191,37189,0,0,0
59777,31148,37093,0,0,0
59713,31097,36983,0,0,0
59642,31038,36863,0,0,0
59568,30978,36736,0,0,0
59487,30912,36599,0,0,0
59396,30834,36446,0,0,0
59297,30748,36282,0,0,0
59195,30660,36110,0,0,0
59088,30571,35927,0,0,0
58978,30479,35731,0,0,0
58867,30388,35532,0,0,0
58751,30298,35333,0,0,0
58631,30205,35129,0,0,0
58511,30107,34922,0,0,0
58395,30009,34715,0,0,0
58282,29915,34510,0,0,0
58169,29817,34301,0,0,0
58057,29715,34092,0,0,0
57947,29618,33893,0,0,0
57839,29527,33705,0,0,0
57734,29438,33522,0,0,0
57634,29351,33342,0,0,0
57539,29270,33172,0,0,0
57448,29194,33008,0,0,0
57356,29119,32848,0,0,0
57265,29043,32692,0,0,0
57177,28971,32546,0,0,0
57092,28898,32411,0,0,0
57006,28824,32278,0,0,0
56921,28755,32144,0,0,0
56842,28693,32014,0,0,0
56766,28630,31887,0,0,0
56694,28565,31760,0,0,0
56627,28502,31639,0,0,0
56565,28447,31525,0,0,0
56506,28398,31417,0,0,0
56446,28346,31308,0,0,0
56387,28293,31202,0,0,0
56329,28245,31103,0,0,0
56270,28199,31008,0,0,0
56210,28150,30908,0,0,0
56148,28099,30803,0,0,0
56086,28051,30698,0,0,0
56023,28001,30594,0,0,0
55961,27949,30485,0,0,0
55898,27898,30376,0,0,0
55834,27848,30275,0,0,0
55768,27797,30175,0,0,0
55700,27744,30067,0,0,0
55632,27691,29958,0,0,0
55566,27642,29853,0,0,0
55501,27594,29747,0,0,0
55437,27546,29638,0,0,0
55376,27498,29532,0,0,0
55317,27452,29432,0,0,0
55254,27403,29332,0,0,0
55188,27351,29230,0,0,0
55125,27302,29131,0,0,0
55066,27256,29036,0,0,0
55006,27207,28937,0,0,0
54947,27155,28836,0,0,0
54890,27106,28742,0,0,0
54834,27059,28650,0,0,0
54776,27011,28555,0,0,0
54719,26964,28460,0,0,0
54664,26921,28373,0,0,0
54609,26879,28288,0,0,0
54551,26833,28198,0,0,0
54491,26785,28104,0,0,0
54430,26740,28012,0,0,0
54370,26697,27922,0,0,0
54311,26653,27830,0,0,0
54259,26608,27739,0,0,0
54212,26569,27653,0,0,0
54164,26532,27571,0,0,0
54110,26492,27486,0,0,0
54052,26449,27399,0,0,0
53997,26410,27314,0,0,0
53941,26373,27229,0,0,0
53881,26331,27136,0,0,0
53818,26288,27040,0,0,0
53757,26247,26949,0,0,0
53697,26206,26857,0,0,0
53635,26158,26763,0,0,0
53575,26110,26669,0,0,0
53517,26066,26579,0,0,0
53461,26023,26489,0,0,0
53403,25979,26398,0,0,0
53347,25940,26311,0,0,0
53296,25906,26229,0,0,0
53246,25870,26147,0,0,0
53197,25830,26064,0,0,0
53155,25796,25995,0,0,0
53122,25772,25949,0,0,0
53100,25758,25930,0,0,0
53102,25761,25950,0,0,0
53141,25794,26032,0,0,0
53228,25868,26198,0,0,0
53371,25990,26469,0,0,0
53589,26176,26878,0,0,0
53903,26444,27459,0,0,0
54320,26801,28220,0,0,0
54836,27241,29147,0,0,0
55441,27751,30209,0,0,0
56111,28314,31360,0,0,0
56810,28900,32543,0,0,0
57500,29476,33701,0,0,0
58158,30020,34796,0,0,0
58769,30523,35805,0,0,0
59323,30976,36709,0,0,0
59814,31372,37499,0,0,0
60244,31715,38178,0,0,0
60613,32010,38755,0,0,0
60920,32256,39237,0,0,0
61168,32453,39623,0,0,0
61369,32607,39927,0,0,0
61532,32732,40170,0,0,0
61659,32833,40359,0,0,0
61752,32906,40496,0,0,0
61820,32958,40595,0,0,0
61873,32999,40671,0,0,0
61914,33032,40724,0,0,0
61944,33053,40753,0,0,0
61967,33062,40767,0,0,0
61989,33067,40777,0,0,0
62009,33072,40783,0,0,0
62027,33074,40785,0,0,0
62044,33077,40788,0,0,0
62066,33082,40798,0,0,0
62089,33090,40810,0,0,0
62113,33097,40819,0,0,0
62138,33105,40832,0,0,0
62164,33120,40855,0,0,0
62188,33137,40882,0,0,0
62213,33154,40907,0,0,0
62246,33177,40941,0,0,0
62287,33207,40987,0,0,0
62331,33239,41037,0,0,0
62378,33270,41088,0,0,0
62428,33303,41143,0,0,0
62476,33335,41197,0,0,0
62518,33361,41241,0,0,0
62554,33381,41275,0,0,0
62585,33400,41306,0,0,0
62608,33415,41332,0,0,0
62618,33421,41345,0,0,0
62620,33419,41340,0,0,0
62617,33410,41320,0,0,0
62604,33390,41282,0,0,0
62574,33357,41220,0,0,0
62533,33314,41138,0,0,0
62484,33265,41041,0,0,0
62425,33207,40928,0,0,0
62354,33138,40794,0,0,0
62277,33063,40648,0,0,0
62198,32988,40504,0,0,0
62116,32915,40362,0,0,0
62035,32839,40218,0,0,0
61959,32765,40081,0,0,0
61893,32702,39961,0,0,0
61832,32648,39856,0,0,0
61775,32596,39756,0,0,0
61724,32551,39666,0,0,0
61684,32516,39593,0,0,0
61651,32489,39535,0,0,0
61624,32463,39485,0,0,0
61605,32443,39444,0,0,0
61595,32433,39416,0,0,0
61588,32427,39395,0,0,0
61578,32420,39372,0,0,0
61566,32413,39350,0,0,0
61554,32406,39332,0,0,0
61541,32395,39311,0,0,0
61525,32379,39283,0,0,0
61510,32364,39251,0,0,0
61495,32351,39219,0,0,0
61474,32333,39180,0,0,0
61448,32307,39131,0,0,0
61420,32278,39075,0,0,0
61384,32246,39013,0,0,0
61341,32207,38940,0,0,0
61293,32160,38856,0,0,0
61243,32113,38766,0,0,0
61187,32066,38666,0,0,0
61121,32014,38550,0,0,0
61049,31955,38420,0,0,0
60975,31892,38281,0,0,0
60896,31824,38135,0,0,0
60810,31745,37977,0,0,0
60719,31659,37813,0,0,0
60627,31572,37646,0,0,0
60530,31485,37478,0,0,0
60427,31395,37305,0,0,0
60321,31303,37131,0,0,0
60216,31214,36962,0,0,0
60110,31124,36795,0,0,0
60003,31030,36622,0,0,0
59898,30938,36450,0,0,0
59796,30854,36284,0,0,0
59690,30772,36123,0,0,0
59580,30688,35955,0,0,0
59473,30603,35782,0,0,0
59374,30524,35615,0,0,0
59279,30451,35452,0,0,0
59183,30378,35290,0,0,0
59088,30306,35130,0,0,0
58996,30238,34975,0,0,0
58910,30173,34825,0,0,0
58828,30103,34678,0,0,0
58748,30033,34535,0,0,0
58667,29964,34398,0,0,0
58585,29893,34262,0,0,0
58499,29817,34123,0,0,0
58416,29744,33987,0,0,0
58337,29678,33858,0,0,0
58259,29614,33730,0,0,0
58180,29549,33601,0,0,0
58107,29491,33478,0,0,0
58036,29436,33360,0,0,0
57961,29377,33237,0,0,0
57884,29313,33110,0,0,0
57808,29250,32984,0,0,0
57731,29188,32859,0,0,0
57652,29123,32735,0,0,0
57573,29061,32611,0,0,0
57497,29004,32489,0,0,0
57423,28950,32368,0,0,0
57346,28892,32244,0,0,0
57268,28832,32120,0,0,0
57195,28772,32004,0,0,0
57120,28710,31891,0,0,0
57041,28644,31772,0,0,0
56960,28577,31646,0,0,0
56883,28514,31522,0,0,0
56808,28455,31401,0,0,0
56733,28396,31279,0,0,0
56656,28338,31158,0,0,0
56584,28284,31042,0,0,0
56514,28231,30927,0,0,0
56440,28174,30807,0,0,0
56368,28116,30685,0,0,0
56302,28063,30567,0,0,0
56239,28008,30449,0,0,0
56174,27945,30325,0,0,0
56110,27881,30201,0,0,0
56044,27821,30085,0,0,0
55976,27763,29972,0,0,0
55905,27705,29859,0,0,0
55833,27647,29749,0,0,0
55762,27593,29644,0,0,0
55691,27540,29538,0,0,0
55622,27485,29432,0,0,0
55555,27433,29332,0,0,0
55490,27387,29238,0,0,0
55425,27341,29142,0,0,0
55359,27291,29044,0,0,0
55297,27242,28952,0,0,0
55236,27198,28866,0,0,0
55175,27153,28784,0,0,0
55118,27108,28701,0,0,0
55063,27066,28617,0,0,0
55009,27026,28532,0,0,0
54952,26983,28440,0,0,0
54893,26934,28338,0,0,0
54833,26886,28234,0,0,0
54771,26840,28132,0,0,0
54706,26791,28025,0,0,0
54641,26739,27913,0,0,0
54578,26692,27805,0,0,0
54518,26649,27705,0,0,0
54454,26605,27605,0,0,0
54387,26560,27506,0,0,0
54325,26516,27412,0,0,0
54266,26473,27323,0,0,0
54206,26426,27229,0,0,0
54143,26379,27131,0,0,0
54083,26337,27038,0,0,0
54023,26296,26950,0,0,0
53967,26253,26862,0,0,0
53918,26211,26784,0,0,0
53882,26180,26725,0,0,0
53861,26160,26692,0,0,0
53856,26153,26689,0,0,0
53878,26169,26738,0,0,0
53943,26225,26867,0,0,0
54060,26331,27097,0,0,0
54245,26497,27452,0,0,0
54522,26738,27968,0,0,0
54904,27067,28664,0,0,0
55387,27478,29532,0,0,0
55962,27960,30543,0,0,0
56607,28496,31657,0,0,0
57294,29065,32822,0,0,0
57982,29635,33977,0,0,0
58640,30178,35075,0,0,0
59251,30680,36089,0,0,0
59803,31133,37006,0,0,0
60292,31529,37809,0,0,0
60715,31866,38495,0,0,0
61077,32154,39073,0,0,0
61383,32397,39554,0,0,0
61634,32594,39941,0,0,0
61837,32749,40246,0,0,0
61996,32872,40484,0,0,0
62115,32967,40666,0,0,0
62200,33035,40797,0,0,0
62258,33079,40885,0,0,0
62300,33109,40943,0,0,0
62331,33125,40977,0,0,0
62349,33127,40989,0,0,0
62358,33121,40988,0,0,0
62364,33115,40984,0,0,0
62367,33112,40975,0,0,0
62366,33107,40954,0,0,0
62365,33100,40927,0,0,0
62366,33097,40904,0,0,0
62371,33100,40887,0,0,0
62380,33104,40872,0,0,0
62393,33108,40858,0,0,0
62412,33117,40855,0,0,0
62432,33130,40863,0,0,0
62450,33142,40875,0,0,0
62467,33154,40892,0,0,0
62487,33172,40919,0,0,0
62509,33194,40952,0,0,0
62531,33212,40979,0,0,0
62554,33228,41001,0,0,0
62577,33245,41025,0,0,0
62599,33259,41050,0,0,0
62620,33264,41071,0,0,0
62640,33267,41086,0,0,0
62656,33267,41094,0,0,0
62659,33261,41084,0,0,0
62646,33245,41054,0,0,0
62623,33220,41004,0,0,0
62587,33184,40933,0,0,0
62540,33138,40840,0,0,0
62481,33081,40725,0,0,0
62414,33016,40595,0,0,0
62342,32948,40457,0,0,0
62263,32874,40311,0,0,0
62177,32795,40161,0,0,0
62090,32717,40016,0,0,0
62003,32646,39878,0,0,0
61918,32579,39745,0,0,0
61838,32515,39616,0,0,0
61767,32460,39503,0,0,0
61708,32417,39410,0,0,0
61656,32382,39330,0,0,0
61612,32347,39260,0,0,0
61581,32319,39207,0,0,0
61564,32300,39171,0,0,0
61555,32285,39142,0,0,0
61550,32273,39119,0,0,0
61550,32267,39107,0,0,0
61553,32266,39104,0,0,0
61558,32267,39103,0,0,0
61564,32266,39102,0,0,0
61572,32267,39104,0,0,0
61575,32265,39104,0,0,0
61571,32256,39094,0,0,0
61561,32241,39074,0,0,0
61547,32228,39047,0,0,0
61526,32212,39010,0,0,0
61498,32188,38959,0,0,0
61463,32160,38900,0,0,0
61424,32131,38835,0,0,0
61378,32096,38760,0,0,0
61323,32052,38672,0,0,0
61260,32000,38574,0,0,0
61192,31946,38469,0,0,0
61119,31888,38351,0,0,0
61039,31821,38216,0,0,0
60954,31749,38070,0,0,0
60864,31676,37915,0,0,0
60768,31597,37752,0,0,0
60663,31508,37579,0,0,0
60554,31414,37399,0,0,0
60444,31321,37216,0,0,0
60331,31226,37027,0,0,0
60215,31127,36830,0,0,0
60101,31024,36635,0,0,0
59990,30920,36443,0,0,0
59879,30815,36248,0,0,0
59764,30712,36048,0,0,0
59650,30613,35852,0,0,0
59538,30517,35662,0,0,0
59422,30421,35470,0,0,0
59306,30328,35279,0,0,0
59198,30241,35094,0,0,0
59095,30155,34917,0,0,0
58989,30071,34746,0,0,0
58884,29991,34585,0,0,0
58788,29915,34433,0,0,0
58700,29839,34287,0,0,0
58610,29759,34143,0,0,0
58519,29678,34002,0,0,0
58433,29605,33867,0,0,0
58350,29537,33733,0,0,0
58267,29469,33597,0,0,0
58187,29402,33463,0,0,0
58110,29342,33338,0,0,0
58036,29286,33219,0,0,0
57963,29230,33096,0,0,0
57890,29172,32974,0,0,0
57821,29120,32860,0,0,0
57754,29072,32754,0,0,0
57688,29024,32649,0,0,0
57627,28977,32545,0,0,0
57567,28934,32448,0,0,0
57506,28891,32353,0,0,0
57442,28846,32254,0,0,0
57376,28796,32153,0,0,0
57312,28744,32055,0,0,0
57249,28686,31956,0,0,0
57181,28624,31850,0,0,0
57108,28565,31745,0,0,0
57034,28511,31644,0,0,0
56961,28456,31537,0,0,0
56891,28399,31419,0,0,0
56823,28345,31305,0,0,0
56753,28293,31198,0,0,0
56683,28239,31088,0,0,0
56613,28182,30974,0,0,0
56547,28127,30860,0,0,0
56482,28075,30746,0,0,0
56418,28023,30629,0,0,0
56355,27972,30511,0,0,0
56290,27924,30395,0,0,0
56220,27877,30279,0,0,0
56144,27826,30159,0,0,0
56068,27769,30036,0,0,0
55993,27711,29918,0,0,0
55919,27654,29803,0,0,0
55841,27591,29684,0,0,0
55758,27525,29559,0,0,0
55677,27462,29434,0,0,0
55598,27405,29309,0,0,0
55515,27344,29179,0,0,0
55430,27278,29046,0,0,0
55352,27217,28919,0,0,0
55283,27159,28799,0,0,0
55215,27099,28681,0,0,0
55147,27040,28568,0,0,0
55088,26995,28477,0,0,0
55042,26967,28414,0,0,0
55016,26952,28384,0,0,0
55024,26963,28409,0,0,0
55082,27014,28517,0,0,0
55199,27114,28733,0,0,0
55388,27271,29081,0,0,0
55661,27502,29589,0,0,0
56029,27817,30267,0,0,0
56488,28209,31099,0,0,0
57024,28662,32050,0,0,0
57617,29163,33080,0,0,0
58236,29686,34144,0,0,0
58852,30203,35189,0,0,0
59444,30692,36176,0,0,0
59998,31146,37086,0,0,0
60506,31565,37910,0,0,0
60962,31942,38640,0,0,0
61360,32272,39271,0,0,0
61702,32556,39811,0,0,0
61989,32796,40267,0,0,0
62222,32990,40639,0,0,0
62410,33141,40930,0,0,0
62564,33259,41159,0,0,0
62686,33352,41336,0,0,0
62776,33421,41465,0,0,0
62841,33467,41552,0,0,0
62887,33497,41612,0,0,0
62918,33517,41648,0,0,0
62935,33524,41661,0,0,0
62945,33520,41659,0,0,0
62950,33514,41652,0,0,0
62953,33508,41644,0,0,0
62953,33499,41630,0,0,0
62956,33487,41613,0,0,0
62964,33481,41601,0,0,0
62972,33478,41592,0,0,0
62979,33475,41581,0,0,0
62986,33475,41574,0,0,0
62999,33485,41578,0,0,0
63018,33501,41591,0,0,0
63038,33514,41602,0,0,0
63057,33525,41614,0,0,0
63079,33538,41631,0,0,0
63101,33551,41649,0,0,0
63120,33558,41661,0,0,0
63140,33565,41671,0,0,0
63162,33574,41682,0,0,0
63182,33582,41689,0,0,0
63193,33583,41689,0,0,0
63198,33580,41682,0,0,0
63198,33576,41666,0,0,0
63186,33564,41635,0,0,0
63160,33538,41581,0,0,0
63123,33501,41509,0,0,0
63075,33457,41420,0,0,0
63012,33401,41311,0,0,0
62936,33330,41182,0,0,0
62852,33252,41044,0,0,0
62757,33173,40898,0,0,0
62655,33091,40739,0,0,0
62554,33004,40570,0,0,0
62460,32917,40405,0,0,0
62375,32834,40252,0,0,0
62294,32757,40107,0,0,0
62219,32686,39968,0,0,0
62152,32627,39845,0,0,0
62094,32578,39739,0,0,0
62041,32532,39643,0,0,0
61995,32486,39558,0,0,0
61958,32449,39492,0,0,0
61929,32423,39445,0,0,0
61905,32405,39407,0,0,0
61889,32393,39376,0,0,0
61885,32391,39360,0,0,0
61889,32394,39353,0,0,0
61891,32392,39345,0,0,0
61888,32383,39338,0,0,0
61886,32376,39337,0,0,0
61886,32372,39335,0,0,0
61881,32363,39321,0,0,0
61872,32348,39298,0,0,0
61856,32330,39272,0,0,0
61833,32306,39239,0,0,0
61801,32272,39187,0,0,0
61759,32234,39117,0,0,0
61709,32196,39037,0,0,0
61646,32152,38945,0,0,0
61569,32094,38835,0,0,0
61482,32029,38711,0,0,0
61390,31960,38577,0,0,0
61291,31885,38426,0,0,0
61184,31798,38255,0,0,0
61071,31703,38071,0,0,0
60955,31606,37881,0,0,0
60835,31507,37682,0,0,0
60709,31402,37472,0,0,0
60580,31296,37257,0,0,0
60452,31192,37043,0,0,0
60326,31087,36827,0,0,0
60200,30979,36609,0,0,0
60076,30875,36395,0,0,0
59956,30775,36186,0,0,0
59838,30678,35977,0,0,0
59721,30582,35771,0,0,0
59609,30490,35572,0,0,0
59498,30400,35381,0,0,0
59387,30308,35190,0,0,0
59278,30213,34999,0,0,0
59171,30120,34813,0,0,0
59064,30031,34634,0,0,0
58956,29944,34456,0,0,0
58850,29860,34280,0,0,0
58749,29786,34114,0,0,0
58652,29717,33958,0,0,0
58560,29647,33804,0,0,0
58472,29574,33652,0,0,0
58388,29505,33506,0,0,0
58305,29437,33364,0,0,0
58220,29365,33221,0,0,0
58138,29293,33081,0,0,0
58060,29227,32951,0,0,0
57985,29166,32828,0,0,0
57908,29102,32703,0,0,0
57832,29038,32578,0,0,0
57761,28981,32462,0,0,0
57690,28927,32352,0,0,0
57616,28868,32239,0,0,0
57543,28804,32124,0,0,0
57472,28741,32014,0,0,0
57402,28683,31905,0,0,0
57329,28625,31796,0,0,0
57258,28568,31688,0,0,0
57193,28515,31586,0,0,0
57130,28466,31486,0,0,0
57065,28413,31380,0,0,0
57001,28362,31272,0,0,0
56940,28314,31167,0,0,0
56878,28265,31060,0,0,0
56813,28213,30952,0,0,0
56746,28161,30848,0,0,0
56677,28108,30746,0,0,0
56607,28053,30643,0,0,0
56535,27994,30538,0,0,0
56464,27934,30430,0,0,0
56392,27876,30324,0,0,0
56317,27818,30215,0,0,0
56243,27760,30102,0,0,0
56174,27706,29990,0,0,0
56110,27655,29885,0,0,0
56049,27606,29781,0,0,0
55993,27561,29678,0,0,0
55942,27523,29581,0,0,0
55890,27490,29487,0,0,0
55832,27454,29393,0,0,0
55772,27415,29299,0,0,0
55714,27376,29209,0,0,0
55655,27337,29121,0,0,0
55593,27293,29031,0,0,0
55532,27248,28939,0,0,0
55475,27205,28855,0,0,0
55420,27164,28775,0,0,0
55364,27120,28689,0,0,0
55307,27072,28595,0,0,0
55253,27025,28503,0,0,0
55198,26975,28413,0,0,0
55134,26919,28320,0,0,0
55066,26862,28226,0,0,0
55002,26810,28138,0,0,0
54940,26762,28051,0,0,0
54877,26713,27954,0,0,0
54813,26667,27854,0,0,0
54750,26626,27759,0,0,0
54689,26588,27666,0,0,0
54627,26549,27570,0,0,0
54566,26513,27473,0,0,0
54504,26480,27379,0,0,0
54443,26444,27291,0,0,0
54384,26403,27207,0,0,0
54335,26365,27137,0,0,0
54300,26340,27092,0,0,0
54286,26330,27081,0,0,0
54296,26340,27115,0,0,0
54341,26384,27217,0,0,0
54437,26476,27415,0,0,0
54604,26624,27737,0,0,0
54860,26843,28212,0,0,0
55220,27148,28869,0,0,0
55685,27545,29711,0,0,0
56248,28021,30712,0,0,0
56889,28560,31833,0,0,0
57580,29145,33021,0,0,0
58284,29744,34215,0,0,0
58969,30322,35362,0,0,0
59613,30862,36431,0,0,0
60203,31354,37406,0,0,0
60730,31792,38274,0,0,0
61193,32171,39028,0,0,0
61589,32492,39667,0,0,0
61922,32763,40202,0,0,0
62199,32986,40644,0,0,0
62424,33164,40997,0,0,0
62604,33304,41272,0,0,0
62744,33414,41482,0,0,0
62852,33496,41637,0,0,0
62932,33552,41742,0,0,0
62995,33589,41810,0,0,0
63044,33619,41856,0,0,0
63077,33639,41884,0,0,0
63097,33645,41892,0,0,0
63111,33643,41887,0,0,0
63122,33643,41879,0,0,0
63133,33644,41871,0,0,0
63143,33642,41861,0,0,0
63155,33640,41853,0,0,0
63169,33642,41855,0,0,0
63186,33649,41865,0,0,0
63204,33655,41879,0,0,0
63225,33663,41900,0,0,0
63251,33676,41932,0,0,0
63280,33692,41967,0,0,0
63313,33710,42000,0,0,0
63350,33730,42037,0,0,0
63389,33756,42079,0,0,0
63427,33784,42122,0,0,0
63465,33810,42162,0,0,0
63506,33839,42205,0,0,0
63547,33870,42251,0,0,0
63584,33896,42290,0,0,0
63616,33918,42323,0,0,0
63647,33940,42353,0,0,0
63674,33959,42375,0,0,0
63690,33966,42382,0,0,0
63697,33960,42371,0,0,0
63694,33946,42342,0,0,0
63677,33922,42293,0,0,0
63641,33884,42221,0,0,0
63589,33835,42126,0,0,0
63524,33778,42015,0,0,0
63447,33714,41894,0,0,0
63362,33644,41763,0,0,0
63276,33573,41626,0,0,0
63194,33507,41490,0,0,0
63115,33442,41354,0,0,0
63039,33376,41217,0,0,0
62968,33310,41084,0,0,0
62903,33250,40963,0,0,0
62842,33198,40851,0,0,0
62781,33151,40746,0,0,0
62727,33106,40656,0,0,0
62682,33069,40583,0,0,0
62644,33037,40518,0,0,0
62608,33005,40454,0,0,0
62576,32977,40400,0,0,0
62553,32955,40360,0,0,0
62537,32934,40330,0,0,0
62520,32910,40303,0,0,0
62506,32889,40280,0,0,0
62493,32875,40263,0,0,0
62480,32865,40241,0,0,0
62464,32852,40209,0,0,0
62448,32836,40172,0,0,0
62432,32820,40134,0,0,0
62409,32800,40089,0,0,0
62376,32772,40032,0,0,0
62336,32738,39968,0,0,0
62293,32701,39897,0,0,0
62241,32656,39814,0,0,0
62178,32601,39717,0,0,0
62110,32541,39614,0,0,0
62040,32480,39502,0,0,0
61964,32410,39375,0,0,0
61880,32330,39233,0,0,0
61788,32245,39079,0,0,0
61691,32157,38916,0,0,0
61583,32060,38737,0,0,0
61463,31954,38545,0,0,0
61339,31849,38347,0,0,0
61211,31746,38142,0,0,0
61078,31638,37928,0,0,0
60941,31525,37708,0,0,0
60806,31414,37489,0,0,0
60675,31307,37271,0,0,0
60545,31200,37051,0,0,0
60415,31091,36830,0,0,0
60287,30987,36614,0,0,0
60162,30885,36400,0,0,0
60034,30778,36184,0,0,0
59908,30671,35969,0,0,0
59785,30568,35761,0,0,0
59665,30465,35559,0,0,0
59542,30358,35358,0,0,0
59421,30252,35162,0,0,0
59304,30151,34974,0,0,0
59188,30053,34790,0,0,0
59073,29956,34608,0,0,0
58964,29866,34430,0,0,0
58862,29784,34262,0,0,0
58764,29706,34100,0,0,0
58669,29629,33940,0,0,0
58580,29555,33788,0,0,0
58494,29485,33644,0,0,0
58407,29414,33504,0,0,0
58321,29340,33363,0,0,0
58236,29269,33226,0,0,0
58151,29205,33094,0,0,0
58065,29143,32962,0,0,0
57982,29080,32829,0,0,0
57903,29018,32698,0,0,0
57826,28960,32571,0,0,0
57748,28904,32442,0,0,0
57668,28850,32310,0,0,0
57592,28799,32184,0,0,0
57523,28751,32067,0,0,0
57456,28701,31954,0,0,0
57391,28645,31841,0,0,0
57330,28591,31733,0,0,0
57271,28541,31634,0,0,0
57210,28491,31535,0,0,0
57149,28438,31434,0,0,0
57090,28388,31334,0,0,0
57030,28338,31235,0,0,0
56965,28284,31131,0,0,0
56899,28224,31021,0,0,0
56834,28168,30912,0,0,0
56767,28114,30804,0,0,0
56695,28056,30691,0,0,0
56620,27995,30577,0,0,0
56546,27938,30468,0,0,0
56472,27885,30363,0,0,0
56402,27832,30255,0,0,0
56336,27780,30147,0,0,0
56271,27732,30041,0,0,0
56203,27683,29933,0,0,0
56132,27630,29821,0,0,0
56064,27579,29709,0,0,0
55998,27533,29601,0,0,0
55930,27486,29496,0,0,0
55860,27435,29390,0,0,0
55791,27382,29288,0,0,0
55727,27331,29193,0,0,0
55662,27282,29101,0,0,0
55598,27231,29008,0,0,0
55536,27180,28914,0,0,0
55475,27132,28820,0,0,0
55412,27084,28722,0,0,0
55348,27035,28620,0,0,0
55285,26986,28518,0,0,0
55221,26936,28418,0,0,0
55153,26880,28318,0,0,0
55082,26824,28216,0,0,0
55011,26770,28114,0,0,0
54944,26717,28013,0,0,0
54878,26661,27908,0,0,0
54811,26606,27797,0,0,0
54747,26557,27691,0,0,0
54682,26510,27588,0,0,0
54615,26457,27486,0,0,0
54548,26402,27384,0,0,0
54482,26349,27284,0,0,0
54413,26296,27188,0,0,0
54339,26241,27087,0,0,0
54269,26188,26984,0,0,0
54206,26143,26889,0,0,0
54146,26105,26805,0,0,0
54092,26070,26730,0,0,0
54053,26040,26672,0,0,0
54035,26028,26647,0,0,0
54042,26041,26668,0,0,0
54081,26081,26747,0,0,0
54164,26156,26910,0,0,0
54310,26284,27191,0,0,0
54533,26476,27613,0,0,0
54844,26742,28195,0,0,0
55257,27092,28953,0,0,0
55772,27530,29888,0,0,0
56374,28042,30965,0,0,0
57039,28606,32129,0,0,0
57737,29194,33327,0,0,0
58434,29780,34508,0,0,0
59097,30339,35623,0,0,0
59707,30848,36639,0,0,0
60257,31300,37541,0,0,0
60744,31698,38330,0,0,0
61163,32037,39001,0,0,0
61518,32315,39558,0,0,0
61808,32541,40009,0,0,0
62034,32721,40364,0,0,0
62206,32860,40633,0,0,0
62335,32959,40827,0,0,0
62433,33031,40963,0,0,0
62503,33083,41054,0,0,0
62548,33112,41108,0,0,0
62571,33122,41130,0,0,0
62579,33121,41132,0,0,0
62576,33114,41122,0,0,0
62564,33099,41094,0,0,0
62548,33078,41052,0,0,0
62532,33056,41009,0,0,0
62516,33035,40972,0,0,0
62498,33009,40931,0,0,0
62482,32983,40890,0,0,0
62469,32964,40859,0,0,0
62463,32955,40840,0,0,0
62461,32949,40824,0,0,0
62462,32943,40812,0,0,0
62465,32942,40811,0,0,0
62470,32944,40819,0,0,0
62477,32946,40826,0,0,0
62487,32948,40834,0,0,0
62501,32958,40851,0,0,0
62520,32974,40874,0,0,0
62543,32990,40898,0,0,0
62570,33006,40923,0,0,0
62599,33023,40949,0,0,0
62626,33036,40967,0,0,0
62642,33041,40965,0,0,0
62647,33036,40947,0,0,0
62638,33023,40913,0,0,0
62612,33001,40858,0,0,0
62567,32962,40777,0,0,0
62506,32908,40672,0,0,0
62431,32843,40548,0,0,0
62342,32764,40402,0,0,0
62241,32672,40236,0,0,0
62133,32575,40059,0,0,0
62020,32479,39877,0,0,0
61905,32383,39693,0,0,0
61793,32286,39507,0,0,0
61687,32195,39328,0,0,0
61585,32114,39167,0,0,0
61490,32039,39016,0,0,0
61407,31967,38873,0,0,0
61338,31905,38746,0,0,0
61279,31856,38639,0,0,0
61227,31816,38551,0,0,0
61184,31782,38482,0,0,0
61152,31757,38429,0,0,0
61131,31742,38391,0,0,0
61113,31731,38361,0,0,0
61099,31720,38340,0,0,0
61092,31713,38328,0,0,0
61091,31710,38322,0,0,0
61089,31708,38313,0,0,0
61086,31703,38299,0,0,0
61082,31698,38283,0,0,0
61074,31691,38262,0,0,0
61059,31678,38233,0,0,0
61038,31658,38197,0,0,0
61014,31636,38156,0,0,0
60985,31609,38103,0,0,0
60945,31572,38032,0,0,0
60894,31528,37950,0,0,0
60837,31484,37863,0,0,0
60771,31434,37763,0,0,0
60695,31374,37638,0,0,0
60613,31307,37500,0,0,0
60524,31239,37355,0,0,0
60427,31164,37202,0,0,0
60323,31077,37036,0,0,0
60216,30983,36862,0,0,0
60105,30891,36682,0,0,0
59990,30796,36494,0,0,0
59869,30695,36294,0,0,0
59748,30593,36091,0,0,0
59626,30493,35892,0,0,0
59501,30391,35689,0,0,0
59373,30286,35477,0,0,0
59245,30185,35263,0,0,0
59118,30090,35052,0,0,0
58994,29992,34842,0,0,0
58871,29892,34631,0,0,0
58752,29797,34428,0,0,0
58640,29709,34238,0,0,0
58532,29623,34055,0,0,0
58424,29536,33875,0,0,0
58320,29453,33703,0,0,0
58221,29378,33540,0,0,0
58124,29303,33380,0,0,0
58030,29228,33220,0,0,0
57941,29160,33063,0,0,0
57856,29096,32912,0,0,0
57772,29029,32768,0,0,0
57687,28959,32631,0,0,0
57607,28893,32505,0,0,0
57530,28835,32387,0,0,0
57458,28778,32270,0,0,0
57388,28721,32156,0,0,0
57323,28669,32049,0,0,0
57263,28621,31951,0,0,0
57205,28569,31850,0,0,0
57146,28517,31749,0,0,0
57087,28470,31653,0,0,0
57027,28423,31557,0,0,0
56964,28372,31455,0,0,0
56899,28323,31355,0,0,0
56833,28281,31262,0,0,0
56769,28239,31171,0,0,0
56706,28194,31075,0,0,0
56648,28147,30976,0,0,0
56593,28102,30881,0,0,0
56534,28055,30787,0,0,0
56472,28002,30694,0,0,0
56412,27948,30600,0,0,0
56356,27899,30511,0,0,0
56300,27855,30425,0,0,0
56240,27814,30336,0,0,0
56181,27773,30244,0,0,0
56126,27735,30153,0,0,0
56071,27696,30060,0,0,0
56013,27654,29962,0,0,0
55951,27608,29860,0,0,0
55888,27560,29756,0,0,0
55824,27506,29650,0,0,0
55756,27448,29538,0,0,0
55690,27392,29427,0,0,0
55626,27336,29318,0,0,0
55555,27273,29205,0,0,0
55478,27202,29085,0,0,0
55401,27133,28965,0,0,0
55326,27070,28850,0,0,0
55248,27008,28733,0,0,0
55167,26947,28611,0,0,0
55087,26887,28491,0,0,0
55008,26830,28375,0,0,0
54928,26775,28257,0,0,0
54851,26720,28140,0,0,0
54781,26669,28027,0,0,0
54712,26620,27919,0,0,0
54644,26571,27815,0,0,0
54580,26523,27721,0,0,0
54526,26482,27644,0,0,0
54484,26453,27586,0,0,0
54460,26436,27553,0,0,0
54465,26440,27565,0,0,0
54511,26480,27651,0,0,0
54610,26567,27836,0,0,0
54772,26707,28139,0,0,0
55015,26914,28589,0,0,0
55349,27203,29212,0,0,0
55778,27574,30001,0,0,0
56294,28017,30931,0,0,0
56881,28519,31966,0,0,0
57518,29066,33067,0,0,0
58173,29623,34181,0,0,0
58816,30161,35255,0,0,0
59422,30661,36260,0,0,0
59978,31117,37177,0,0,0
60475,31524,37992,0,0,0
60909,31876,38698,0,0,0
61281,32178,39302,0,0,0
61596,32435,39812,0,0,0
61855,32645,40225,0,0,0
62062,32811,40549,0,0,0
62226,32941,40796,0,0,0
62353,33044,40980,0,0,0
62443,33120,41108,0,0,0
62504,33170,41194,0,0,0
62543,33200,41249,0,0,0
62565,33215,41278,0,0,0
62571,33218,41282,0,0,0
62570,33213,41266,0,0,0
62565,33206,41240,0,0,0
62554,33201,41209,0,0,0
62537,33192,41168,0,0,0
62519,33176,41122,0,0,0
62504,33161,41082,0,0,0
62490,33148,41051,0,0,0
62476,33131,41023,0,0,0
62466,33117,41001,0,0,0
62467,33113,40991,0,0,0
62475,33117,40991,0,0,0
62486,33122,40996,0,0,0
62500,33127,41006,0,0,0
62520,33136,41023,0,0,0
62546,33149,41043,0,0,0
62572,33160,41057,0,0,0
62595,33173,41070,0,0,0
62615,33189,41086,0,0,0
62630,33203,41097,0,0,0
62638,33207,41093,0,0,0
62641,33203,41077,0,0,0
62636,33194,41052,0,0,0
62615,33177,41009,0,0,0
62574,33145,40943,0,0,0
62517,33099,40857,0,0,0
62452,33043,40753,0,0,0
62377,32976,40630,0,0,0
62291,32895,40486,0,0,0
62197,32808,40332,0,0,0
62099,32721,40174,0,0,0
61994,32634,40006,0,0,0
61887,32544,39829,0,0,0
61786,32457,39653,0,0,0
61693,32376,39488,0,0,0
61605,32301,39337,0,0,0
61523,32232,39197,0,0,0
61448,32171,39073,0,0,0
61382,32122,38965,0,0,0
61324,32080,38870,0,0,0
61278,32042,38790,0,0,0
61244,32013,38728,0,0,0
61216,31991,38677,0,0,0
61190,31969,38632,0,0,0
61170,31946,38590,0,0,0
61155,31928,38555,0,0,0
61143,31915,38527,0,0,0
61128,31899,38498,0,0,0
61109,31878,38466,0,0,0
61091,31858,38435,0,0,0
61074,31841,38405,0,0,0
61053,31818,38366,0,0,0
61026,31787,38321,0,0,0
60993,31754,38274,0,0,0
60955,31718,38216,0,0,0
60912,31677,38143,0,0,0
60863,31632,38056,0,0,0
60809,31585,37960,0,0,0
60745,31533,37852,0,0,0
60672,31471,37729,0,0,0
60594,31403,37594,0,0,0
60514,31333,37452,0,0,0
60424,31258,37298,0,0,0
60319,31172,37126,0,0,0
60208,31081,36943,0,0,0
60093,30991,36754,0,0,0
59971,30895,36551,0,0,0
59842,30791,36333,0,0,0
59714,30683,36109,0,0,0
59585,30576,35888,0,0,0
59454,30468,35671,0,0,0
59320,30358,35452,0,0,0
59188,30250,35234,0,0,0
59059,30149,35022,0,0,0
58931,30048,34812,0,0,0
58803,29945,34603,0,0,0
58683,29847,34403,0,0,0
58571,29755,34216,0,0,0
58464,29666,34035,0,0,0
58361,29578,33858,0,0,0
58263,29493,33687,0,0,0
58172,29415,33523,0,0,0
58083,29340,33362,0,0,0
57997,29265,33205,0,0,0
57916,29196,33058,0,0,0
57836,29132,32921,0,0,0
57755,29067,32787,0,0,0
57674,29002,32657,0,0,0
57595,28944,32537,0,0,0
