green_channel,red_channel,ir_channel,Anomaly_ch0,Anomaly_ch1,Anomaly_ch2
4003,55534,44809,0,0,0
4028,55557,44842,0,0,0
4035,55575,44864,0,0,0
4028,55587,44879,0,0,0
4015,55596,44889,0,0,0
4000,55605,44896,0,0,0
3986,55612,44899,0,0,0
3973,55615,44900,0,0,0
3961,55616,44898,0,0,0
3949,55614,44894,0,0,0
3937,55609,44885,0,0,0
3929,55601,44871,0,0,0
3923,55594,44855,0,0,0
3919,55589,44837,0,0,0
3913,55583,44819,0,0,0
3900,55575,44795,0,0,0
3882,55566,44764,0,0,0
3858,55554,44730,0,0,0
3828,55538,44692,0,0,0
3797,55518,44648,0,0,0
3766,55494,44600,0,0,0
3731,55465,44549,0,0,0
3693,55432,44495,0,0,0
3654,55397,44436,0,0,0
3616,55361,44374,0,0,0
3578,55325,44314,0,0,0
3544,55290,44258,0,0,0
3515,55259,44207,0,0,0
3492,55233,44164,0,0,0
3475,55212,44130,0,0,0
3458,55199,44107,0,0,0
3444,55188,44091,0,0,0
3434,55180,44078,0,0,0
3426,55174,44069,0,0,0
3422,55171,44064,0,0,0
3425,55172,44064,0,0,0
3433,55173,44066,0,0,0
3443,55174,44068,0,0,0
3454,55176,44072,0,0,0
3465,55180,44077,0,0,0
3476,55184,44080,0,0,0
3481,55187,44078,0,0,0
3481,55188,44075,0,0,0
3476,55186,44068,0,0,0
3468,55179,44055,0,0,0
3455,55168,44033,0,0,0
3439,55156,44004,0,0,0
3421,55143,43973,0,0,0
3402,55128,43942,0,0,0
3379,55110,43912,0,0,0
3352,55089,43879,0,0,0
3321,55064,43841,0,0,0
3286,55033,43798,0,0,0
3248,55001,43752,0,0,0
3212,54969,43703,0,0,0
3176,54938,43652,0,0,0
3139,54906,43599,0,0,0
3099,54872,43542,0,0,0
3057,54837,43479,0,0,0
3013,54798,43410,0,0,0
2967,54756,43337,0,0,0
2918,54710,43263,0,0,0
2866,54663,43190,0,0,0
2814,54618,43117,0,0,0
2763,54575,43044,0,0,0
2712,54534,42970,0,0,0
2661,54496,42896,0,0,0
2613,54458,42825,0,0,0
2566,54420,42759,0,0,0
2519,54383,42695,0,0,0
2475,54347,42633,0,0,0
2432,54311,42573,0,0,0
2390,54273,42515,0,0,0
2349,54236,42459,0,0,0
2309,54198,42404,0,0,0
2271,54162,42348,0,0,0
2235,54129,42291,0,0,0
2203,54099,42237,0,0,0
2177,54070,42185,0,0,0
2151,54040,42135,0,0,0
2122,54009,42087,0,0,0
2091,53980,42040,0,0,0
2059,53953,41992,0,0,0
2026,53929,41944,0,0,0
1993,53904,41898,0,0,0
1964,53881,41854,0,0,0
1941,53862,41813,0,0,0
1920,53845,41774,0,0,0
1899,53826,41737,0,0,0
1878,53806,41700,0,0,0
1856,53783,41663,0,0,0
1831,53757,41626,0,0,0
1802,53730,41587,0,0,0
1773,53701,41548,0,0,0
1742,53673,41510,0,0,0
1708,53644,41468,0,0,0
1669,53613,41421,0,0,0
1631,53583,41370,0,0,0
1594,53554,41316,0,0,0
1555,53523,41265,0,0,0
1518,53493,41215,0,0,0
1485,53463,41165,0,0,0
1453,53432,41112,0,0,0
1421,53403,41060,0,0,0
1387,53373,41011,0,0,0
1352,53340,40961,0,0,0
1314,53305,40909,0,0,0
1274,53271,40858,0,0,0
1231,53240,40803,0,0,0
1189,53209,40742,0,0,0
1147,53177,40677,0,0,0
1103,53141,40609,0,0,0
1055,53100,40540,0,0,0
1005,53056,40468,0,0,0
952,53011,40394,0,0,0
896,52963,40319,0,0,0
836,52915,40243,0,0,0
777,52868,40167,0,0,0
724,52824,40096,0,0,0
674,52784,40032,0,0,0
630,52751,39977,0,0,0
595,52727,39932,0,0,0
571,52711,39901,0,0,0
559,52705,39888,0,0,0
568,52717,39899,0,0,0
602,52752,39942,0,0,0
663,52810,40026,0,0,0
757,52892,40155,0,0,0
883,53000,40328,0,0,0
1041,53134,40542,0,0,0
1228,53295,40797,0,0,0
1446,53479,41092,0,0,0
1690,53681,41421,0,0,0
1951,53896,41772,0,0,0
2217,54118,42138,0,0,0
2485,54344,42508,0,0,0
2752,54568,42875,0,0,0
3012,54788,43232,0,0,0
3257,54996,43570,0,0,0
3488,55189,43889,0,0,0
3704,55367,44184,0,0,0
3901,55528,44451,0,0,0
4077,55672,44689,0,0,0
4233,55798,44902,0,0,0
4370,55908,45088,0,0,0
4489,56003,45251,0,0,0
4588,56082,45391,0,0,0
4668,56144,45506,0,0,0
4734,56191,45600,0,0,0
4786,56226,45674,0,0,0
4826,56253,45734,0,0,0
4857,56273,45782,0,0,0
4882,56290,45821,0,0,0
4902,56301,45853,0,0,0
4916,56310,45875,0,0,0
4924,56318,45892,0,0,0
4931,56329,45906,0,0,0
4941,56341,45920,0,0,0
4952,56353,45931,0,0,0
4964,56364,45940,0,0,0
4977,56375,45948,0,0,0
4989,56385,45955,0,0,0
5000,56397,45964,0,0,0
5012,56410,45977,0,0,0
5024,56424,45992,0,0,0
5036,56436,46008,0,0,0
5046,56444,46022,0,0,0
5054,56448,46032,0,0,0
5056,56448,46034,0,0,0
5051,56442,46025,0,0,0
5039,56432,46005,0,0,0
5023,56418,45973,0,0,0
5004,56399,45935,0,0,0
4981,56375,45893,0,0,0
4953,56348,45846,0,0,0
4923,56320,45796,0,0,0
4894,56295,45747,0,0,0
4862,56269,45697,0,0,0
4830,56239,45642,0,0,0
4799,56208,45586,0,0,0
4770,56175,45536,0,0,0
4741,56144,45493,0,0,0
4713,56118,45457,0,0,0
4687,56099,45429,0,0,0
4665,56087,45408,0,0,0
4648,56078,45391,0,0,0
4632,56072,45374,0,0,0
4619,56069,45360,0,0,0
4610,56066,45348,0,0,0
4604,56062,45338,0,0,0
4605,56058,45331,0,0,0
4611,56053,45326,0,0,0
4618,56048,45321,0,0,0
4623,56044,45315,0,0,0
4626,56041,45311,0,0,0
4627,56037,45307,0,0,0
4626,56032,45303,0,0,0
4623,56024,45294,0,0,0
4619,56015,45279,0,0,0
4611,56007,45258,0,0,0
4599,55997,45234,0,0,0
4581,55982,45208,0,0,0
4556,55964,45176,0,0,0
4529,55945,45139,0,0,0
4506,55924,45101,0,0,0
4483,55900,45061,0,0,0
4457,55874,45018,0,0,0
4427,55848,44972,0,0,0
4395,55821,44922,0,0,0
4358,55792,44867,0,0,0
4319,55762,44808,0,0,0
4279,55730,44748,0,0,0
4235,55695,44688,0,0,0
4187,55655,44626,0,0,0
4138,55614,44560,0,0,0
4091,55573,44494,0,0,0
4043,55531,44426,0,0,0
3996,55489,44358,0,0,0
3952,55449,44290,0,0,0
3911,55412,44226,0,0,0
3869,55377,44165,0,0,0
3826,55343,44109,0,0,0
3785,55310,44057,0,0,0
3745,55279,44005,0,0,0
3706,55248,43954,0,0,0
3670,55218,43903,0,0,0
3637,55187,43852,0,0,0
3603,55152,43801,0,0,0
3566,55117,43752,0,0,0
3528,55083,43704,0,0,0
3495,55053,43657,0,0,0
3464,55025,43612,0,0,0
3433,54998,43566,0,0,0
3401,54973,43518,0,0,0
3372,54949,43470,0,0,0
3343,54926,43424,0,0,0
3311,54905,43381,0,0,0
3277,54880,43336,0,0,0
3244,54853,43290,0,0,0
3211,54825,43243,0,0,0
3178,54795,43197,0,0,0
3144,54767,43153,0,0,0
3111,54740,43111,0,0,0
3080,54714,43068,0,0,0
3051,54688,43024,0,0,0
3024,54666,42981,0,0,0
2997,54643,42939,0,0,0
2970,54618,42899,0,0,0
2941,54592,42856,0,0,0
2910,54566,42809,0,0,0
2877,54541,42762,0,0,0
2845,54518,42717,0,0,0
2814,54494,42670,0,0,0
2784,54465,42620,0,0,0
2753,54431,42566,0,0,0
2719,54397,42509,0,0,0
2680,54363,42451,0,0,0
2640,54330,42391,0,0,0
2601,54297,42331,0,0,0
2562,54260,42270,0,0,0
2522,54220,42210,0,0,0
2481,54181,42150,0,0,0
2436,54142,42088,0,0,0
2386,54100,42025,0,0,0
2335,54061,41964,0,0,0
2288,54025,41903,0,0,0
2244,53991,41839,0,0,0
2197,53956,41772,0,0,0
2149,53918,41702,0,0,0
2105,53879,41632,0,0,0
2067,53842,41563,0,0,0
2032,53807,41496,0,0,0
1999,53773,41434,0,0,0
1968,53742,41380,0,0,0
1944,53719,41340,0,0,0
1929,53704,41317,0,0,0
1929,53702,41317,0,0,0
1948,53718,41344,0,0,0
1989,53754,41404,0,0,0
2053,53812,41503,0,0,0
2146,53898,41644,0,0,0
2269,54009,41824,0,0,0
2422,54142,42039,0,0,0
2602,54294,42287,0,0,0
2803,54462,42564,0,0,0
3021,54643,42867,0,0,0
3249,54833,43187,0,0,0
3482,55027,43516,0,0,0
3715,55225,43844,0,0,0
3945,55422,44166,0,0,0
4169,55612,44477,0,0,0
4380,55792,44774,0,0,0
4578,55960,45055,0,0,0
4763,56119,45317,0,0,0
4933,56266,45557,0,0,0
5086,56401,45777,0,0,0
5222,56521,45974,0,0,0
5340,56622,46145,0,0,0
5441,56705,46287,0,0,0
5524,56772,46404,0,0,0
5591,56826,46498,0,0,0
5646,56872,46575,0,0,0
5694,56911,46639,0,0,0
5735,56941,46690,0,0,0
5768,56964,46727,0,0,0
5793,56983,46755,0,0,0
5812,56997,46778,0,0,0
5825,57005,46798,0,0,0
5836,57013,46816,0,0,0
5844,57022,46835,0,0,0
5850,57034,46852,0,0,0
5857,57048,46868,0,0,0
5867,57061,46880,0,0,0
5881,57071,46890,0,0,0
5894,57078,46899,0,0,0
5906,57083,46907,0,0,0
5915,57086,46915,0,0,0
5923,57088,46921,0,0,0
5926,57088,46923,0,0,0
5924,57085,46917,0,0,0
5915,57079,46904,0,0,0
5899,57070,46884,0,0,0
5875,57053,46857,0,0,0
5845,57030,46818,0,0,0
5812,57002,46772,0,0,0
5778,56968,46721,0,0,0
5741,56931,46666,0,0,0
5702,56892,46608,0,0,0
5663,56853,46550,0,0,0
5623,56813,46491,0,0,0
5584,56775,46431,0,0,0
5543,56741,46372,0,0,0
5504,56709,46318,0,0,0
5470,56680,46271,0,0,0
5440,56653,46232,0,0,0
5415,56629,46195,0,0,0
5397,56608,46163,0,0,0
5385,56594,46137,0,0,0
5376,56587,46119,0,0,0
5370,56585,46104,0,0,0
5364,56584,46092,0,0,0
5359,56582,46082,0,0,0
5352,56579,46072,0,0,0
5347,56575,46061,0,0,0
5344,56573,46049,0,0,0
5339,56570,46036,0,0,0
5331,56564,46024,0,0,0
5322,56555,46012,0,0,0
5313,56545,45997,0,0,0
5302,56532,45978,0,0,0
5285,56519,45957,0,0,0
5264,56507,45936,0,0,0
5240,56493,45913,0,0,0
5213,56475,45887,0,0,0
5183,56450,45855,0,0,0
5151,56420,45819,0,0,0
5117,56387,45777,0,0,0
5080,56353,45730,0,0,0
5040,56318,45679,0,0,0
4997,56283,45625,0,0,0
4952,56246,45568,0,0,0
4907,56206,45506,0,0,0
4861,56165,45442,0,0,0
4816,56128,45375,0,0,0
4770,56093,45305,0,0,0
4723,56057,45236,0,0,0
4676,56023,45168,0,0,0
4629,55990,45103,0,0,0
4582,55955,45039,0,0,0
4534,55917,44973,0,0,0
4483,55878,44904,0,0,0
4430,55835,44833,0,0,0
4376,55787,44758,0,0,0
4324,55737,44682,0,0,0
4276,55689,44609,0,0,0
4229,55645,44539,0,0,0
4182,55602,44473,0,0,0
4134,55563,44409,0,0,0
4089,55526,44345,0,0,0
4047,55490,44281,0,0,0
4002,55450,44219,0,0,0
3955,55408,44160,0,0,0
3906,55367,44102,0,0,0
3860,55330,44047,0,0,0
3815,55298,43993,0,0,0
3771,55268,43939,0,0,0
3728,55238,43886,0,0,0
3687,55209,43834,0,0,0
3648,55183,43783,0,0,0
3612,55160,43732,0,0,0
3578,55137,43680,0,0,0
3544,55111,43627,0,0,0
3506,55082,43572,0,0,0
3466,55052,43518,0,0,0
3423,55019,43464,0,0,0
3380,54981,43410,0,0,0
3336,54941,43354,0,0,0
3294,54900,43300,0,0,0
3255,54862,43248,0,0,0
3218,54827,43197,0,0,0
3183,54793,43146,0,0,0
3149,54761,43095,0,0,0
3115,54732,43043,0,0,0
3082,54705,42992,0,0,0
3047,54678,42941,0,0,0
3010,54651,42890,0,0,0
2971,54624,42841,0,0,0
2928,54597,42793,0,0,0
2885,54571,42741,0,0,0
2845,54545,42686,0,0,0
2804,54519,42629,0,0,0
2760,54492,42569,0,0,0
2711,54461,42507,0,0,0
2659,54424,42445,0,0,0
2605,54382,42382,0,0,0
2548,54335,42314,0,0,0
2489,54284,42243,0,0,0
2429,54231,42169,0,0,0
2369,54179,42094,0,0,0
2310,54128,42018,0,0,0
2250,54076,41937,0,0,0
2188,54025,41855,0,0,0
2125,53974,41776,0,0,0
2063,53924,41700,0,0,0
2003,53874,41622,0,0,0
1946,53827,41541,0,0,0
1889,53782,41459,0,0,0
1834,53735,41383,0,0,0
1787,53692,41314,0,0,0
1746,53655,41253,0,0,0
1717,53628,41203,0,0,0
1702,53613,41174,0,0,0
1705,53616,41173,0,0,0
1730,53639,41208,0,0,0
1785,53686,41283,0,0,0
1870,53759,41401,0,0,0
1985,53862,41562,0,0,0
2132,53995,41767,0,0,0
2315,54155,42019,0,0,0
2528,54339,42314,0,0,0
2765,54542,42644,0,0,0
3020,54761,42996,0,0,0
3285,54987,43365,0,0,0
3553,55212,43739,0,0,0
3816,55431,44110,0,0,0
4069,55643,44466,0,0,0
4309,55843,44803,0,0,0
4534,56029,45117,0,0,0
4742,56201,45404,0,0,0
4929,56357,45664,0,0,0
5096,56498,45895,0,0,0
5242,56623,46097,0,0,0
5366,56733,46270,0,0,0
5468,56824,46415,0,0,0
5550,56895,46534,0,0,0
5614,56946,46631,0,0,0
5664,56984,46708,0,0,0
5703,57014,46769,0,0,0
5731,57034,46815,0,0,0
5749,57046,46848,0,0,0
5758,57053,46869,0,0,0
5760,57058,46880,0,0,0
5757,57057,46885,0,0,0
5752,57053,46884,0,0,0
5748,57048,46879,0,0,0
5745,57042,46871,0,0,0
5742,57036,46863,0,0,0
5739,57029,46856,0,0,0
5740,57025,46853,0,0,0
5742,57026,46855,0,0,0
5745,57028,46861,0,0,0
5748,57032,46868,0,0,0
5752,57038,46870,0,0,0
5751,57039,46865,0,0,0
5742,57032,46853,0,0,0
5727,57019,46832,0,0,0
5707,57002,46804,0,0,0
5681,56983,46768,0,0,0
5647,56962,46724,0,0,0
5608,56937,46674,0,0,0
5569,56908,46616,0,0,0
5530,56878,46554,0,0,0
5491,56846,46492,0,0,0
5452,56815,46433,0,0,0
5417,56785,46375,0,0,0
5383,56753,46319,0,0,0
5352,56721,46267,0,0,0
5322,56689,46219,0,0,0
5296,56661,46177,0,0,0
5274,56634,46140,0,0,0
5254,56612,46110,0,0,0
5237,56594,46086,0,0,0
5220,56581,46070,0,0,0
5205,56573,46061,0,0,0
5194,56570,46057,0,0,0
5190,56571,46059,0,0,0
5195,56577,46065,0,0,0
5206,56587,46072,0,0,0
5217,56600,46077,0,0,0
5228,56612,46081,0,0,0
5240,56621,46085,0,0,0
5251,56626,46087,0,0,0
5261,56627,46088,0,0,0
5270,56630,46088,0,0,0
5276,56631,46085,0,0,0
5276,56630,46077,0,0,0
5270,56626,46063,0,0,0
5259,56617,46043,0,0,0
5245,56604,46017,0,0,0
5228,56588,45986,0,0,0
5205,56563,45949,0,0,0
5177,56535,45908,0,0,0
5142,56505,45862,0,0,0
5103,56475,45814,0,0,0
5062,56445,45764,0,0,0
5021,56414,45712,0,0,0
4979,56381,45655,0,0,0
4935,56346,45593,0,0,0
4890,56309,45525,0,0,0
4845,56269,45454,0,0,0
4802,56226,45383,0,0,0
4758,56180,45312,0,0,0
4714,56137,45242,0,0,0
4670,56097,45174,0,0,0
4623,56059,45110,0,0,0
4575,56021,45046,0,0,0
4529,55981,44978,0,0,0
4484,55940,44905,0,0,0
4438,55902,44834,0,0,0
4388,55867,44765,0,0,0
4339,55835,44700,0,0,0
4296,55805,44637,0,0,0
4257,55773,44575,0,0,0
4219,55737,44514,0,0,0
4182,55697,44454,0,0,0
4148,55659,44400,0,0,0
4117,55623,44352,0,0,0
4087,55590,44306,0,0,0
4055,55560,44262,0,0,0
4022,55533,44218,0,0,0
3987,55507,44173,0,0,0
3952,55480,44128,0,0,0
3919,55453,44085,0,0,0
3887,55425,44041,0,0,0
3853,55394,43997,0,0,0
3820,55366,43955,0,0,0
3791,55344,43915,0,0,0
3765,55323,43872,0,0,0
3737,55300,43829,0,0,0
3705,55273,43785,0,0,0
3672,55244,43742,0,0,0
3641,55216,43701,0,0,0
3610,55188,43662,0,0,0
3582,55160,43621,0,0,0
3553,55132,43573,0,0,0
3521,55105,43522,0,0,0
3485,55076,43471,0,0,0
3448,55048,43420,0,0,0
3410,55018,43368,0,0,0
3369,54985,43314,0,0,0
3326,54948,43257,0,0,0
3279,54911,43197,0,0,0
3229,54874,43132,0,0,0
3177,54833,43065,0,0,0
3121,54787,42996,0,0,0
3065,54737,42927,0,0,0
3009,54686,42859,0,0,0
2952,54637,42791,0,0,0
2896,54588,42721,0,0,0
2841,54540,42646,0,0,0
2784,54496,42570,0,0,0
2725,54452,42493,0,0,0
2665,54408,42416,0,0,0
2609,54364,42339,0,0,0
2556,54322,42265,0,0,0
2505,54281,42195,0,0,0
2454,54241,42129,0,0,0
2408,54204,42070,0,0,0
2372,54173,42022,0,0,0
2350,54153,41991,0,0,0
2345,54145,41980,0,0,0
2362,54155,41994,0,0,0
2404,54188,42041,0,0,0
2474,54246,42129,0,0,0
2574,54332,42261,0,0,0
2703,54447,42440,0,0,0
2862,54589,42663,0,0,0
3048,54755,42928,0,0,0
3257,54939,43226,0,0,0
3484,55138,43549,0,0,0
3721,55345,43886,0,0,0
3962,55553,44226,0,0,0
4206,55760,44563,0,0,0
4447,55964,44892,0,0,0
4681,56160,45207,0,0,0
4902,56345,45504,0,0,0
5107,56515,45781,0,0,0
5294,56670,46033,0,0,0
5461,56809,46258,0,0,0
5606,56930,46457,0,0,0
5732,57036,46631,0,0,0
5841,57128,46781,0,0,0
5935,57205,46909,0,0,0
6011,57263,47012,0,0,0
6071,57307,47094,0,0,0
6118,57342,47160,0,0,0
6152,57371,47214,0,0,0
6175,57393,47257,0,0,0
6192,57407,47286,0,0,0
6207,57414,47304,0,0,0
6215,57415,47315,0,0,0
6217,57414,47318,0,0,0
6216,57412,47318,0,0,0
6214,57408,47314,0,0,0
6210,57403,47306,0,0,0
6203,57396,47295,0,0,0
6198,57389,47284,0,0,0
6194,57383,47276,0,0,0
6189,57376,47267,0,0,0
6183,57368,47254,0,0,0
6176,57360,47237,0,0,0
6164,57350,47212,0,0,0
6146,57336,47178,0,0,0
6120,57314,47137,0,0,0
6087,57285,47090,0,0,0
6051,57250,47040,0,0,0
6011,57212,46986,0,0,0
5968,57171,46926,0,0,0
5925,57129,46860,0,0,0
5880,57086,46792,0,0,0
5832,57041,46727,0,0,0
5784,56996,46663,0,0,0
5740,56955,46601,0,0,0
5699,56920,46540,0,0,0
5663,56890,46482,0,0,0
5634,56864,46430,0,0,0
5610,56842,46386,0,0,0
5593,56824,46351,0,0,0
5582,56808,46324,0,0,0
5575,56796,46302,0,0,0
5571,56790,46286,0,0,0
5569,56788,46278,0,0,0
5569,56788,46274,0,0,0
5570,56792,46275,0,0,0
5571,56799,46281,0,0,0
5573,56805,46291,0,0,0
5576,56812,46300,0,0,0
5576,56818,46304,0,0,0
5570,56822,46302,0,0,0
5558,56823,46295,0,0,0
5546,56819,46284,0,0,0
5533,56811,46271,0,0,0
5519,56799,46254,0,0,0
5503,56783,46230,0,0,0
5488,56764,46199,0,0,0
5471,56743,46163,0,0,0
5451,56719,46123,0,0,0
5425,56693,46078,0,0,0
5393,56664,46030,0,0,0
5357,56631,45981,0,0,0
5318,56593,45931,0,0,0
5275,56551,45876,0,0,0
5231,56507,45818,0,0,0
5187,56466,45759,0,0,0
5140,56424,45697,0,0,0
5089,56380,45630,0,0,0
5038,56336,45558,0,0,0
4991,56293,45484,0,0,0
4944,56253,45411,0,0,0
4895,56215,45342,0,0,0
4845,56178,45273,0,0,0
4792,56140,45203,0,0,0
4739,56101,45131,0,0,0
4686,56059,45062,0,0,0
4632,56017,44993,0,0,0
4578,55976,44924,0,0,0
4524,55936,44854,0,0,0
4470,55896,44781,0,0,0
4420,55858,44708,0,0,0
4373,55819,44636,0,0,0
4327,55778,44566,0,0,0
4281,55735,44499,0,0,0
4237,55694,44436,0,0,0
4195,55655,44376,0,0,0
4151,55621,44319,0,0,0
4107,55589,44264,0,0,0
4068,55558,44212,0,0,0
4035,55530,44163,0,0,0
4003,55501,44115,0,0,0
3971,55469,44065,0,0,0
3940,55437,44016,0,0,0
3909,55408,43968,0,0,0
3874,55378,43919,0,0,0
3837,55344,43867,0,0,0
3800,55309,43813,0,0,0
3763,55277,43762,0,0,0
3723,55248,43712,0,0,0
3684,55219,43663,0,0,0
3647,55189,43614,0,0,0
3609,55156,43564,0,0,0
3571,55122,43513,0,0,0
3534,55089,43462,0,0,0
3497,55059,43411,0,0,0
3458,55029,43359,0,0,0
3417,55000,43306,0,0,0
3378,54973,43254,0,0,0
3340,54947,43203,0,0,0
3302,54921,43150,0,0,0
3262,54892,43098,0,0,0
3219,54860,43044,0,0,0
3175,54826,42984,0,0,0
3130,54790,42921,0,0,0
3084,54751,42856,0,0,0
3033,54711,42789,0,0,0
2982,54672,42724,0,0,0
2928,54632,42660,0,0,0
2871,54591,42596,0,0,0
2814,54550,42530,0,0,0
2758,54508,42460,0,0,0
2704,54463,42386,0,0,0
2649,54415,42310,0,0,0
2595,54366,42233,0,0,0
2540,54318,42155,0,0,0
2483,54270,42075,0,0,0
2425,54223,41995,0,0,0
2368,54174,41914,0,0,0
2311,54124,41830,0,0,0
2252,54074,41749,0,0,0
2190,54025,41672,0,0,0
2130,53977,41599,0,0,0
2077,53933,41531,0,0,0
2030,53895,41475,0,0,0
1995,53867,41439,0,0,0
1978,53859,41429,0,0,0
1986,53872,41450,0,0,0
2022,53910,41505,0,0,0
2091,53976,41603,0,0,0
2197,54071,41748,0,0,0
2339,54194,41944,0,0,0
2520,54348,42193,0,0,0
2737,54531,42494,0,0,0
2990,54743,42844,0,0,0
3269,54978,43229,0,0,0
3564,55229,43636,0,0,0
3863,55488,44053,0,0,0
4163,55748,44471,0,0,0
4456,56001,44878,0,0,0
4736,56239,45264,0,0,0
4996,56456,45623,0,0,0
5234,56654,45949,0,0,0
5448,56835,46245,0,0,0
5641,56997,46511,0,0,0
5812,57138,46746,0,0,0
5963,57260,46954,0,0,0
6096,57366,47137,0,0,0
6208,57456,47296,0,0,0
6302,57534,47431,0,0,0
6382,57602,47546,0,0,0
6449,57656,47642,0,0,0
6499,57699,47718,0,0,0
6536,57731,47777,0,0,0
6567,57759,47821,0,0,0
6591,57781,47854,0,0,0
6610,57797,47879,0,0,0
6624,57809,47898,0,0,0
6637,57820,47915,0,0,0
6647,57831,47932,0,0,0
6657,57843,47949,0,0,0
6670,57857,47967,0,0,0
6688,57871,47984,0,0,0
6710,57885,48001,0,0,0
6731,57897,48020,0,0,0
6753,57912,48042,0,0,0
6776,57929,48065,0,0,0
6799,57945,48088,0,0,0
6820,57957,48104,0,0,0
6838,57966,48111,0,0,0
6850,57970,48110,0,0,0
6852,57966,48101,0,0,0
6844,57955,48082,0,0,0
6828,57937,48051,0,0,0
6803,57912,48011,0,0,0
6772,57881,47967,0,0,0
6738,57845,47919,0,0,0
6700,57805,47867,0,0,0
6657,57761,47812,0,0,0
6608,57718,47753,0,0,0
6558,57678,47692,0,0,0
6510,57642,47631,0,0,0
6468,57607,47570,0,0,0
6431,57575,47511,0,0,0
6397,57544,47455,0,0,0
6368,57515,47402,0,0,0
6341,57489,47354,0,0,0
6317,57468,47316,0,0,0
6297,57453,47287,0,0,0
6285,57443,47265,0,0,0
6279,57436,47249,0,0,0
6277,57432,47240,0,0,0
6277,57429,47235,0,0,0
6277,57427,47234,0,0,0
6278,57428,47234,0,0,0
6281,57431,47232,0,0,0
6286,57436,47228,0,0,0
6291,57438,47220,0,0,0
6293,57437,47209,0,0,0
6288,57434,47196,0,0,0
6282,57428,47179,0,0,0
6273,57419,47161,0,0,0
6257,57406,47138,0,0,0
6233,57388,47108,0,0,0
6205,57366,47073,0,0,0
6173,57341,47034,0,0,0
6140,57313,46993,0,0,0
6107,57283,46947,0,0,0
6071,57251,46897,0,0,0
6033,57219,46844,0,0,0
5995,57185,46788,0,0,0
5956,57149,46730,0,0,0
5918,57111,46670,0,0,0
5877,57075,46610,0,0,0
5833,57038,46549,0,0,0
5789,56999,46486,0,0,0
5745,56960,46422,0,0,0
5700,56921,46356,0,0,0
5653,56881,46289,0,0,0
5605,56841,46222,0,0,0
5558,56804,46155,0,0,0
5512,56766,46089,0,0,0
5466,56727,46025,0,0,0
5422,56690,45963,0,0,0
5380,56654,45904,0,0,0
5339,56617,45846,0,0,0
5298,56578,45788,0,0,0
5256,56540,45730,0,0,0
5214,56505,45673,0,0,0
5174,56470,45616,0,0,0
5136,56438,45561,0,0,0
5101,56408,45506,0,0,0
5066,56379,45451,0,0,0
5029,56349,45394,0,0,0
4986,56315,45337,0,0,0
4943,56280,45279,0,0,0
4904,56246,45221,0,0,0
4865,56214,45165,0,0,0
4825,56180,45111,0,0,0
4787,56147,45061,0,0,0
4749,56120,45013,0,0,0
4710,56094,44966,0,0,0
4671,56066,44916,0,0,0
4631,56039,44862,0,0,0
4592,56010,44808,0,0,0
4550,55977,44755,0,0,0
4506,55942,44699,0,0,0
4461,55905,44643,0,0,0
4418,55868,44589,0,0,0
4380,55832,44538,0,0,0
4344,55796,44486,0,0,0
4310,55765,44433,0,0,0
4277,55735,44378,0,0,0
4245,55703,44321,0,0,0
4213,55671,44264,0,0,0
4178,55638,44210,0,0,0
4137,55605,44160,0,0,0
4093,55572,44109,0,0,0
4049,55539,44054,0,0,0
4004,55509,43999,0,0,0
3963,55482,43945,0,0,0
3923,55454,43892,0,0,0
3882,55425,43838,0,0,0
3840,55395,43781,0,0,0
3795,55360,43724,0,0,0
3749,55321,43665,0,0,0
3705,55280,43601,0,0,0
3666,55239,43535,0,0,0
3625,55195,43469,0,0,0
3580,55150,43400,0,0,0
3532,55102,43327,0,0,0
3479,55053,43252,0,0,0
3420,55002,43176,0,0,0
3359,54951,43095,0,0,0
3298,54902,43010,0,0,0
3238,54856,42921,0,0,0
3175,54808,42831,0,0,0
3110,54759,42741,0,0,0
3044,54710,42654,0,0,0
2981,54662,42571,0,0,0
2922,54614,42490,0,0,0
2865,54568,42413,0,0,0
2811,54526,42339,0,0,0
2765,54488,42273,0,0,0
2729,54452,42218,0,0,0
2705,54425,42178,0,0,0
2695,54416,42161,0,0,0
2703,54423,42173,0,0,0
2735,54450,42221,0,0,0
2796,54499,42311,0,0,0
2890,54580,42450,0,0,0
3019,54697,42642,0,0,0
3186,54847,42887,0,0,0
3387,55027,43176,0,0,0
3619,55231,43503,0,0,0
3877,55453,43861,0,0,0
4151,55686,44241,0,0,0
4434,55925,44633,0,0,0
4718,56165,45025,0,0,0
4999,56399,45413,0,0,0
5276,56627,45790,0,0,0
5543,56847,46152,0,0,0
5794,57056,46490,0,0,0
6026,57249,46800,0,0,0
6232,57421,47080,0,0,0
6415,57572,47332,0,0,0
6576,57707,47553,0,0,0
6715,57825,47745,0,0,0
6835,57926,47912,0,0,0
6936,58010,48055,0,0,0
7021,58080,48176,0,0,0
7090,58140,48279,0,0,0
7146,58192,48364,0,0,0
7190,58233,48431,0,0,0
7224,58264,48481,0,0,0
7247,58283,48519,0,0,0
7261,58296,48549,0,0,0
7275,58309,48573,0,0,0
7290,58323,48596,0,0,0
7302,58334,48615,0,0,0
7311,58342,48630,0,0,0
7321,58350,48641,0,0,0
7333,58358,48654,0,0,0
7346,58368,48667,0,0,0
7361,58381,48680,0,0,0
7378,58396,48694,0,0,0
7395,58410,48708,0,0,0
7409,58419,48721,0,0,0
7421,58422,48731,0,0,0
7430,58422,48737,0,0,0
7431,58417,48735,0,0,0
7423,58406,48726,0,0,0
7408,58392,48708,0,0,0
7386,58373,48679,0,0,0
7359,58350,48641,0,0,0
7325,58321,48593,0,0,0
7285,58285,48534,0,0,0
7240,58242,48465,0,0,0
7191,58193,48392,0,0,0
7138,58143,48318,0,0,0
7084,58094,48245,0,0,0
7031,58050,48176,0,0,0
6981,58009,48109,0,0,0
6935,57969,48047,0,0,0
6893,57933,47990,0,0,0
6857,57902,47940,0,0,0
6826,57877,47898,0,0,0
6799,57856,47862,0,0,0
6777,57840,47830,0,0,0
6759,57828,47803,0,0,0
6744,57818,47784,0,0,0
6735,57808,47770,0,0,0
6732,57802,47759,0,0,0
6729,57797,47748,0,0,0
6724,57792,47740,0,0,0
6720,57788,47731,0,0,0
6718,57785,47724,0,0,0
6714,57785,47714,0,0,0
6708,57785,47702,0,0,0
6698,57781,47687,0,0,0
6686,57775,47667,0,0,0
6670,57767,47641,0,0,0
6651,57753,47613,0,0,0
6627,57733,47581,0,0,0
6601,57709,47545,0,0,0
6572,57684,47504,0,0,0
6541,57654,47459,0,0,0
6509,57620,47410,0,0,0
6473,57586,47360,0,0,0
6431,57550,47307,0,0,0
6384,57512,47249,0,0,0
6334,57471,47184,0,0,0
6286,57428,47114,0,0,0
6239,57383,47042,0,0,0
6188,57334,46967,0,0,0
6132,57283,46890,0,0,0
6075,57236,46815,0,0,0
6018,57192,46741,0,0,0
5961,57148,46666,0,0,0
5903,57102,46589,0,0,0
5845,57054,46512,0,0,0
5789,57006,46437,0,0,0
5735,56959,46363,0,0,0
5679,56912,46287,0,0,0
5622,56867,46210,0,0,0
5565,56824,46136,0,0,0
5511,56779,46066,0,0,0
5462,56734,45997,0,0,0
5415,56692,45928,0,0,0
5368,56653,45858,0,0,0
5318,56613,45786,0,0,0
5266,56571,45714,0,0,0
5211,56527,45643,0,0,0
5153,56483,45574,0,0,0
5095,56438,45507,0,0,0
5040,56396,45442,0,0,0
4990,56356,45377,0,0,0
4941,56315,45311,0,0,0
4893,56271,45245,0,0,0
4846,56226,45179,0,0,0
4799,56184,45112,0,0,0
4752,56140,45043,0,0,0
4703,56096,44975,0,0,0
4652,56053,44910,0,0,0
4600,56010,44847,0,0,0
4550,55969,44785,0,0,0
4503,55932,44725,0,0,0
4457,55898,44665,0,0,0
4407,55861,44599,0,0,0
4355,55819,44526,0,0,0
4302,55776,44448,0,0,0
4249,55736,44367,0,0,0
4196,55698,44292,0,0,0
4141,55660,44220,0,0,0
4086,55621,44150,0,0,0
4033,55582,44081,0,0,0
3981,55546,44012,0,0,0
3929,55511,43944,0,0,0
3875,55471,43876,0,0,0
3823,55429,43808,0,0,0
3772,55388,43741,0,0,0
3721,55346,43673,0,0,0
3669,55303,43604,0,0,0
3616,55260,43535,0,0,0
3563,55217,43469,0,0,0
3513,55176,43407,0,0,0
3466,55135,43346,0,0,0
3419,55096,43283,0,0,0
3369,55055,43221,0,0,0
3317,55011,43158,0,0,0
3267,54965,43092,0,0,0
3220,54920,43023,0,0,0
3173,54876,42954,0,0,0
3122,54830,42885,0,0,0
3068,54784,42815,0,0,0
3009,54738,42741,0,0,0
2944,54692,42661,0,0,0
2877,54646,42577,0,0,0
2809,54598,42491,0,0,0
2742,54549,42402,0,0,0
2675,54496,42307,0,0,0
2604,54439,42205,0,0,0
2530,54380,42101,0,0,0
2456,54320,41998,0,0,0
2381,54258,41896,0,0,0
2308,54197,41794,0,0,0
2238,54136,41695,0,0,0
2172,54078,41598,0,0,0
2108,54024,41507,0,0,0
2048,53976,41426,0,0,0
1997,53938,41357,0,0,0
1958,53911,41306,0,0,0
1938,53899,41283,0,0,0
1944,53910,41297,0,0,0
1984,53947,41354,0,0,0
2059,54012,41460,0,0,0
2172,54109,41619,0,0,0
2328,54243,41837,0,0,0
2528,54416,42113,0,0,0
2770,54625,42446,0,0,0
3047,54863,42830,0,0,0
3352,55125,43254,0,0,0
3679,55403,43704,0,0,0
4016,55687,44169,0,0,0
4354,55968,44636,0,0,0
4683,56241,45091,0,0,0
4998,56500,45524,0,0,0
5290,56738,45926,0,0,0
5554,56955,46291,0,0,0
5791,57151,46616,0,0,0
6000,57324,46902,0,0,0
6178,57475,47151,0,0,0
6329,57602,47366,0,0,0
6456,57708,47548,0,0,0
6563,57796,47700,0,0,0
6649,57868,47822,0,0,0
6716,57924,47916,0,0,0
6769,57967,47988,0,0,0
6808,58001,48040,0,0,0
6834,58025,48074,0,0,0
6851,58041,48097,0,0,0
6862,58050,48113,0,0,0
6868,58053,48124,0,0,0
6868,58051,48128,0,0,0
6864,58045,48125,0,0,0
6857,58037,48119,0,0,0
6850,58030,48111,0,0,0
6841,58023,48105,0,0,0
6832,58016,48099,0,0,0
6826,58010,48093,0,0,0
6822,58005,48087,0,0,0
6820,58001,48086,0,0,0
6819,57996,48085,0,0,0
6817,57991,48081,0,0,0
6811,57984,48071,0,0,0
6800,57973,48051,0,0,0
6786,57957,48023,0,0,0
6768,57938,47989,0,0,0
6748,57916,47950,0,0,0
6723,57891,47907,0,0,0
6694,57864,47859,0,0,0
6662,57834,47806,0,0,0
6625,57800,47748,0,0,0
6582,57761,47684,0,0,0
6533,57721,47615,0,0,0
6483,57684,47543,0,0,0
6433,57649,47475,0,0,0
6384,57617,47412,0,0,0
6338,57587,47354,0,0,0
6300,57561,47300,0,0,0
6268,57537,47252,0,0,0
6244,57515,47210,0,0,0
6224,57497,47176,0,0,0
6208,57482,47146,0,0,0
6194,57469,47122,0,0,0
6185,57460,47103,0,0,0
6181,57454,47089,0,0,0
6178,57450,47084,0,0,0
6177,57447,47083,0,0,0
6178,57446,47083,0,0,0
6182,57444,47080,0,0,0
6187,57441,47073,0,0,0
6191,57436,47063,0,0,0
6188,57430,47051,0,0,0
6182,57422,47035,0,0,0
6173,57414,47016,0,0,0
6162,57402,46994,0,0,0
6147,57389,46972,0,0,0
6131,57377,46949,0,0,0
6114,57364,46923,0,0,0
6093,57346,46891,0,0,0
6069,57325,46853,0,0,0
6042,57303,46811,0,0,0
6009,57279,46766,0,0,0
5969,57251,46717,0,0,0
5923,57220,46662,0,0,0
5878,57187,46603,0,0,0
5833,57151,46541,0,0,0
5787,57110,46472,0,0,0
5739,57063,46398,0,0,0
5688,57013,46322,0,0,0
5634,56959,46245,0,0,0
5576,56902,46166,0,0,0
5516,56844,46083,0,0,0
5454,56784,45998,0,0,0
5392,56726,45909,0,0,0
5327,56667,45818,0,0,0
5261,56612,45729,0,0,0
5196,56563,45643,0,0,0
5133,56516,45563,0,0,0
5073,56469,45488,0,0,0
5018,56422,45415,0,0,0
4966,56375,45342,0,0,0
4916,56329,45269,0,0,0
4865,56283,45195,0,0,0
4814,56240,45125,0,0,0
4764,56201,45059,0,0,0
4714,56167,44998,0,0,0
4668,56135,44940,0,0,0
4626,56102,44880,0,0,0
4583,56066,44823,0,0,0
4540,56031,44769,0,0,0
4499,55997,44714,0,0,0
4460,55965,44655,0,0,0
4423,55933,44596,0,0,0
4387,55900,44536,0,0,0
4353,55867,44477,0,0,0
4322,55838,44420,0,0,0
4289,55810,44367,0,0,0
4252,55779,44314,0,0,0
4211,55745,44258,0,0,0
4168,55707,44199,0,0,0
4123,55667,44138,0,0,0
4076,55626,44078,0,0,0
4031,55587,44023,0,0,0
3985,55552,43969,0,0,0
3941,55518,43914,0,0,0
3900,55484,43860,0,0,0
3861,55453,43809,0,0,0
3822,55425,43761,0,0,0
3783,55397,43712,0,0,0
3742,55364,43660,0,0,0
3702,55327,43604,0,0,0
3663,55293,43545,0,0,0
3621,55257,43483,0,0,0
3575,55220,43417,0,0,0
3526,55180,43347,0,0,0
3476,55138,43276,0,0,0
3428,55095,43204,0,0,0
3380,55051,43133,0,0,0
3329,55008,43065,0,0,0
3274,54965,42995,0,0,0
3216,54918,42921,0,0,0
3155,54866,42843,0,0,0
3094,54812,42759,0,0,0
3032,54757,42669,0,0,0
2966,54700,42576,0,0,0
2897,54641,42480,0,0,0
2828,54581,42384,0,0,0
2760,54521,42286,0,0,0
2693,54457,42187,0,0,0
2625,54393,42090,0,0,0
2556,54331,41994,0,0,0
2486,54271,41897,0,0,0
2416,54219,41806,0,0,0
2349,54176,41723,0,0,0
2291,54144,41653,0,0,0
2250,54123,41605,0,0,0
2230,54115,41585,0,0,0
2231,54125,41594,0,0,0
2261,54159,41639,0,0,0
2325,54220,41726,0,0,0
2424,54309,41863,0,0,0
2561,54425,42053,0,0,0
2738,54573,42298,0,0,0
2955,54753,42593,0,0,0
3205,54962,42931,0,0,0
3483,55194,43308,0,0,0
3783,55444,43713,0,0,0
4094,55703,44134,0,0,0
4407,55963,44558,0,0,0
4714,56216,44974,0,0,0
5007,56456,45371,0,0,0
5277,56679,45742,0,0,0
5524,56884,46080,0,0,0
5745,57068,46385,0,0,0
5941,57231,46656,0,0,0
6110,57372,46893,0,0,0
6254,57493,47095,0,0,0
6376,57598,47265,0,0,0
6479,57686,47404,0,0,0
6559,57756,47515,0,0,0
6618,57805,47599,0,0,0
6657,57839,47658,0,0,0
6680,57859,47698,0,0,0
6688,57867,47721,0,0,0
6687,57863,47731,0,0,0
6683,57855,47730,0,0,0
6677,57848,47721,0,0,0
6667,57839,47704,0,0,0
6655,57828,47682,0,0,0
6643,57814,47658,0,0,0
6629,57799,47633,0,0,0
6612,57779,47606,0,0,0
6594,57757,47577,0,0,0
6578,57736,47547,0,0,0
6561,57716,47518,0,0,0
6538,57695,47489,0,0,0
6510,57673,47457,0,0,0
6479,57648,47419,0,0,0
6449,57620,47372,0,0,0
6416,57589,47321,0,0,0
6380,57556,47267,0,0,0
6340,57523,47206,0,0,0
6294,57486,47137,0,0,0
6241,57444,47062,0,0,0
6184,57400,46984,0,0,0
6126,57351,46903,0,0,0
6066,57300,46820,0,0,0
6006,57250,46738,0,0,0
5948,57202,46661,0,0,0
5895,57158,46590,0,0,0
5849,57120,46527,0,0,0
5810,57092,46473,0,0,0
5779,57068,46424,0,0,0
5752,57047,46382,0,0,0
5729,57030,46348,0,0,0
5709,57015,46321,0,0,0
5695,57003,46301,0,0,0
5686,56995,46287,0,0,0
5681,56989,46277,0,0,0
5677,56985,46268,0,0,0
5675,56985,46259,0,0,0
5675,56987,46251,0,0,0
5675,56987,46245,0,0,0
5675,56984,46242,0,0,0
5678,56979,46241,0,0,0
5680,56973,46241,0,0,0
5678,56966,46236,0,0,0
5671,56956,46225,0,0,0
5662,56946,46208,0,0,0
5650,56936,46185,0,0,0
5634,56924,46158,0,0,0
5613,56910,46127,0,0,0
5587,56891,46087,0,0,0
5557,56865,46037,0,0,0
5524,56836,45983,0,0,0
5491,56804,45926,0,0,0
5455,56770,45867,0,0,0
5412,56731,45803,0,0,0
5362,56687,45735,0,0,0
5307,56638,45662,0,0,0
5248,56585,45584,0,0,0
5184,56530,45502,0,0,0
5117,56472,45417,0,0,0
5047,56414,45328,0,0,0
4978,56356,45236,0,0,0
4912,56297,45143,0,0,0
4847,56239,45048,0,0,0
4781,56179,44950,0,0,0
4716,56119,44854,0,0,0
4654,56061,44763,0,0,0
4594,56010,44678,0,0,0
4536,55964,44594,0,0,0
4478,55918,44511,0,0,0
4418,55870,44430,0,0,0
4358,55821,44350,0,0,0
4300,55772,44271,0,0,0
4244,55723,44190,0,0,0
4190,55675,44109,0,0,0
4135,55626,44028,0,0,0
4080,55576,43947,0,0,0
4025,55526,43868,0,0,0
3971,55479,43792,0,0,0
3918,55434,43719,0,0,0
3868,55393,43648,0,0,0
3818,55353,43578,0,0,0
3764,55309,43508,0,0,0
3710,55262,43439,0,0,0
3659,55216,43372,0,0,0
3613,55172,43303,0,0,0
3569,55130,43234,0,0,0
3523,55091,43166,0,0,0
3475,55056,43100,0,0,0
3426,55020,43034,0,0,0
3376,54982,42968,0,0,0
3328,54943,42906,0,0,0
3282,54907,42849,0,0,0
3240,54877,42792,0,0,0
3201,54846,42733,0,0,0
3161,54816,42673,0,0,0
3125,54785,42613,0,0,0
3089,54755,42555,0,0,0
3050,54724,42498,0,0,0
3009,54693,42444,0,0,0
2969,54662,42390,0,0,0
2927,54628,42334,0,0,0
2881,54591,42276,0,0,0
2835,54553,42217,0,0,0
2791,54516,42158,0,0,0
2746,54476,42097,0,0,0
2697,54435,42035,0,0,0
2650,54396,41973,0,0,0
2605,54358,41911,0,0,0
2561,54319,41848,0,0,0
2516,54280,41783,0,0,0
2468,54238,41715,0,0,0
2417,54195,41643,0,0,0
2363,54151,41570,0,0,0
2307,54107,41495,0,0,0
2252,54061,41418,0,0,0
2198,54012,41339,0,0,0
2141,53959,41258,0,0,0
2082,53904,41177,0,0,0
2022,53849,41092,0,0,0
1960,53794,41002,0,0,0
1897,53739,40909,0,0,0
1834,53684,40814,0,0,0
1771,53630,40717,0,0,0
1705,53579,40619,0,0,0
1636,53529,40520,0,0,0
1565,53479,40421,0,0,0
1491,53428,40323,0,0,0
1417,53376,40228,0,0,0
1347,53324,40139,0,0,0
1285,53272,40058,0,0,0
1237,53227,39988,0,0,0
1203,53194,39941,0,0,0
1187,53178,39924,0,0,0
1195,53186,39946,0,0,0
1238,53224,40015,0,0,0
1318,53298,40138,0,0,0
1444,53408,40320,0,0,0
1619,53559,40564,0,0,0
1846,53752,40870,0,0,0
2119,53982,41236,0,0,0
2432,54244,41654,0,0,0
2780,54533,42116,0,0,0
3152,54841,42610,0,0,0
3535,55157,43123,0,0,0
3915,55469,43642,0,0,0
4279,55769,44149,0,0,0
4624,56053,44630,0,0,0
4944,56318,45079,0,0,0
5237,56563,45490,0,0,0
5498,56784,45860,0,0,0
5726,56980,46185,0,0,0
5921,57148,46465,0,0,0
6084,57290,46705,0,0,0
6222,57409,46907,0,0,0
6338,57506,47072,0,0,0
6431,57583,47205,0,0,0
6504,57642,47309,0,0,0
6560,57686,47387,0,0,0
6603,57718,47443,0,0,0
6632,57738,47481,0,0,0
6650,57748,47503,0,0,0
6663,57754,47517,0,0,0
6673,57759,47525,0,0,0
6682,57763,47530,0,0,0
6689,57765,47532,0,0,0
6693,57763,47533,0,0,0
6694,57760,47536,0,0,0
6693,57755,47539,0,0,0
6691,57749,47537,0,0,0
6687,57746,47534,0,0,0
6680,57747,47533,0,0,0
6673,57749,47534,0,0,0
6667,57748,47532,0,0,0
6661,57747,47526,0,0,0
6657,57744,47516,0,0,0
6650,57738,47499,0,0,0
6638,57726,47475,0,0,0
6619,57708,47444,0,0,0
6593,57683,47407,0,0,0
6561,57654,47363,0,0,0
6527,57622,47312,0,0,0
6489,57587,47253,0,0,0
6445,57546,47188,0,0,0
6397,57501,47119,0,0,0
6346,57453,47046,0,0,0
6293,57404,46968,0,0,0
6240,57355,46888,0,0,0
6189,57306,46812,0,0,0
6143,57262,46742,0,0,0
6102,57226,46679,0,0,0
6063,57195,46622,0,0,0
6028,57167,46571,0,0,0
5997,57142,46526,0,0,0
5970,57124,46488,0,0,0
5949,57111,46457,0,0,0
5933,57101,46430,0,0,0
5921,57093,46407,0,0,0
5911,57087,46389,0,0,0
5900,57080,46375,0,0,0
5891,57071,46365,0,0,0
5884,57063,46358,0,0,0
5880,57051,46350,0,0,0
5877,57040,46340,0,0,0
5875,57035,46329,0,0,0
5872,57036,46318,0,0,0
5870,57036,46305,0,0,0
5863,57032,46290,0,0,0
5852,57024,46270,0,0,0
5836,57010,46243,0,0,0
5813,56990,46212,0,0,0
5782,56965,46177,0,0,0
5747,56939,46139,0,0,0
5711,56911,46097,0,0,0
5671,56882,46047,0,0,0
5630,56850,45991,0,0,0
5588,56816,45928,0,0,0
5545,56780,45861,0,0,0
5500,56739,45788,0,0,0
5449,56691,45710,0,0,0
5392,56638,45628,0,0,0
5332,56585,45544,0,0,0
5270,56533,45461,0,0,0
5209,56480,45378,0,0,0
5149,56430,45294,0,0,0
5091,56381,45207,0,0,0
5033,56332,45122,0,0,0
4974,56280,45039,0,0,0
4913,56227,44955,0,0,0
4850,56174,44870,0,0,0
4785,56120,44784,0,0,0
4719,56063,44696,0,0,0
4657,56008,44609,0,0,0
4600,55956,44527,0,0,0
4543,55906,44451,0,0,0
4486,55858,44378,0,0,0
4430,55815,44306,0,0,0
4377,55775,44236,0,0,0
4325,55735,44166,0,0,0
4272,55694,44094,0,0,0
4221,55653,44020,0,0,0
4171,55611,43945,0,0,0
4121,55569,43870,0,0,0
4073,55527,43795,0,0,0
4027,55485,43723,0,0,0
3984,55446,43656,0,0,0
3939,55407,43591,0,0,0
3892,55368,43525,0,0,0
3846,55330,43457,0,0,0
3802,55293,43390,0,0,0
3757,55255,43325,0,0,0
3710,55217,43262,0,0,0
3661,55181,43199,0,0,0
3613,55146,43135,0,0,0
3564,55110,43070,0,0,0
3512,55071,43001,0,0,0
3458,55030,42930,0,0,0
3406,54987,42859,0,0,0
3353,54940,42788,0,0,0
3302,54894,42719,0,0,0
3255,54850,42648,0,0,0
3209,54806,42579,0,0,0
3163,54760,42512,0,0,0
3117,54715,42446,0,0,0
3072,54671,42381,0,0,0
3025,54629,42316,0,0,0
2977,54588,42249,0,0,0
2929,54548,42183,0,0,0
2882,54508,42119,0,0,0
2830,54465,42052,0,0,0
2773,54419,41982,0,0,0
2716,54372,41909,0,0,0
2661,54325,41833,0,0,0
2609,54275,41758,0,0,0
2555,54226,41683,0,0,0
2498,54178,41609,0,0,0
2440,54132,41532,0,0,0
2380,54084,41451,0,0,0
2317,54035,41366,0,0,0
2256,53986,41279,0,0,0
2197,53938,41193,0,0,0
2134,53887,41105,0,0,0
2066,53832,41015,0,0,0
1997,53775,40922,0,0,0
1929,53719,40827,0,0,0
1860,53662,40732,0,0,0
1787,53603,40635,0,0,0
1715,53544,40538,0,0,0
1646,53487,40441,0,0,0
1578,53430,40345,0,0,0
1512,53374,40251,0,0,0
1448,53322,40161,0,0,0
1386,53274,40081,0,0,0
1328,53231,40013,0,0,0
1281,53198,39963,0,0,0
1256,53180,39935,0,0,0
1257,53182,39937,0,0,0
1288,53208,39979,0,0,0
1355,53266,40070,0,0,0
1462,53360,40219,0,0,0
1614,53492,40427,0,0,0
1810,53662,40698,0,0,0
2054,53871,41033,0,0,0
2342,54116,41428,0,0,0
2669,54389,41875,0,0,0
3025,54684,42360,0,0,0
3398,54992,42868,0,0,0
3776,55306,43380,0,0,0
4147,55613,43882,0,0,0
4499,55907,44364,0,0,0
4828,56182,44815,0,0,0
5131,56435,45229,0,0,0
5406,56665,45605,0,0,0
5651,56868,45944,0,0,0
5867,57045,46242,0,0,0
6053,57198,46498,0,0,0
6209,57330,46716,0,0,0
6338,57441,46899,0,0,0
6442,57532,47049,0,0,0
6524,57606,47171,0,0,0
6588,57662,47269,0,0,0
6636,57702,47343,0,0,0
6672,57731,47397,0,0,0
6694,57748,47432,0,0,0
6705,57756,47452,0,0,0
6710,57757,47462,0,0,0
6713,57754,47463,0,0,0
6715,57751,47459,0,0,0
6713,57748,47453,0,0,0
6709,57740,47445,0,0,0
6707,57729,47434,0,0,0
6706,57714,47424,0,0,0
6701,57699,47417,0,0,0
6693,57686,47408,0,0,0
6687,57678,47398,0,0,0
6681,57674,47388,0,0,0
6674,57670,47381,0,0,0
6664,57663,47371,0,0,0
6650,57654,47355,0,0,0
6631,57644,47331,0,0,0
6607,57627,47299,0,0,0
6575,57606,47258,0,0,0
6538,57580,47211,0,0,0
6498,57549,47158,0,0,0
6456,57513,47098,0,0,0
6413,57474,47030,0,0,0
6368,57431,46957,0,0,0
6318,57387,46880,0,0,0
6264,57342,46801,0,0,0
6208,57297,46725,0,0,0
6154,57254,46652,0,0,0
6102,57213,46584,0,0,0
6051,57174,46520,0,0,0
6001,57135,46461,0,0,0
5952,57099,46406,0,0,0
5907,57066,46357,0,0,0
5866,57036,46311,0,0,0
5829,57008,46267,0,0,0
5798,56983,46224,0,0,0
5773,56961,46186,0,0,0
5754,56943,46156,0,0,0
5740,56931,46130,0,0,0
5729,56922,46108,0,0,0
5720,56913,46089,0,0,0
5711,56905,46070,0,0,0
5700,56896,46051,0,0,0
5688,56884,46034,0,0,0
5674,56869,46016,0,0,0
5653,56852,45994,0,0,0
5627,56832,45966,0,0,0
5598,56811,45937,0,0,0
5569,56786,45908,0,0,0
5539,56757,45874,0,0,0
5509,56727,45832,0,0,0
5476,56695,45784,0,0,0
5438,56660,45730,0,0,0
5398,56622,45671,0,0,0
5357,56583,45607,0,0,0
5312,56541,45535,0,0,0
5259,56495,45459,0,0,0
5203,56445,45379,0,0,0
5144,56395,45294,0,0,0
5082,56342,45205,0,0,0
5013,56283,45110,0,0,0
4939,56224,45012,0,0,0
4866,56167,44914,0,0,0
4793,56111,44818,0,0,0
4720,56055,44721,0,0,0
4647,55998,44622,0,0,0
4575,55940,44522,0,0,0
4504,55881,44424,0,0,0
4432,55822,44329,0,0,0
4359,55761,44234,0,0,0
4288,55700,44138,0,0,0
4214,55640,44040,0,0,0
4136,55581,43941,0,0,0
4059,55522,43841,0,0,0
3984,55464,43743,0,0,0
3909,55406,43645,0,0,0
3837,55349,43548,0,0,0
3769,55295,43453,0,0,0
3704,55242,43360,0,0,0
3640,55189,43269,0,0,0
3576,55138,43182,0,0,0
3514,55089,43102,0,0,0
3457,55043,43024,0,0,0
3401,54994,42947,0,0,0
3345,54943,42869,0,0,0
3287,54893,42789,0,0,0
3229,54844,42712,0,0,0
3172,54794,42637,0,0,0
3115,54747,42562,0,0,0
3058,54704,42485,0,0,0
3004,54664,42408,0,0,0
2951,54621,42332,0,0,0
2900,54576,42258,0,0,0
2852,54535,42187,0,0,0
2804,54496,42117,0,0,0
2756,54457,42048,0,0,0
2704,54419,41980,0,0,0
2652,54381,41912,0,0,0
2602,54342,41845,0,0,0
2551,54300,41776,0,0,0
2496,54257,41705,0,0,0
2439,54217,41633,0,0,0
2383,54180,41563,0,0,0
2329,54143,41494,0,0,0
2279,54105,41423,0,0,0
2229,54063,41353,0,0,0
2178,54019,41286,0,0,0
2124,53979,41221,0,0,0
2067,53939,41155,0,0,0
2007,53897,41087,0,0,0
1945,53849,41016,0,0,0
1882,53798,40940,0,0,0
1820,53748,40862,0,0,0
1760,53699,40782,0,0,0
1699,53651,40700,0,0,0
1637,53602,40616,0,0,0
1574,53551,40529,0,0,0
1506,53496,40439,0,0,0
1433,53439,40347,0,0,0
1357,53381,40253,0,0,0
1281,53324,40157,0,0,0
1206,53265,40058,0,0,0
1128,53201,39958,0,0,0
1049,53137,39856,0,0,0
968,53070,39749,0,0,0
884,53001,39638,0,0,0
796,52932,39527,0,0,0
706,52863,39413,0,0,0
619,52797,39298,0,0,0
533,52734,39184,0,0,0
450,52673,39079,0,0,0
377,52618,38991,0,0,0
323,52572,38926,0,0,0
289,52545,38890,0,0,0
278,52540,38887,0,0,0
299,52563,38928,0,0,0
361,52620,39024,0,0,0
469,52713,39180,0,0,0
624,52846,39398,0,0,0
830,53020,39683,0,0,0
1086,53234,40036,0,0,0
1388,53487,40454,0,0,0
1730,53774,40928,0,0,0
2104,54090,41443,0,0,0
2502,54424,41985,0,0,0
2909,54764,42539,0,0,0
3312,55101,43091,0,0,0
3697,55425,43623,0,0,0
4061,55729,44121,0,0,0
4396,56005,44577,0,0,0
4695,56251,44984,0,0,0
4954,56463,45339,0,0,0
5174,56645,45642,0,0,0
5356,56799,45895,0,0,0
5504,56929,46103,0,0,0
5623,57036,46271,0,0,0
5716,57121,46404,0,0,0
5785,57183,46505,0,0,0
5835,57225,46574,0,0,0
5870,57250,46616,0,0,0
5891,57263,46640,0,0,0
5899,57265,46652,0,0,0
5898,57256,46652,0,0,0
5887,57239,46637,0,0,0
5868,57217,46611,0,0,0
5842,57191,46578,0,0,0
5812,57165,46544,0,0,0
5780,57141,46511,0,0,0
5750,57121,46475,0,0,0
5719,57101,46438,0,0,0
5690,57081,46400,0,0,0
5663,57060,46360,0,0,0
5638,57039,46322,0,0,0
5612,57016,46285,0,0,0
5582,56990,46243,0,0,0
5550,56962,46198,0,0,0
5514,56932,46150,0,0,0
5476,56900,46095,0,0,0
5435,56867,46033,0,0,0
5388,56831,45965,0,0,0
5333,56787,45893,0,0,0
5274,56737,45816,0,0,0
5214,56685,45734,0,0,0
5153,56633,45650,0,0,0
5090,56582,45567,0,0,0
5026,56529,45485,0,0,0
4962,56478,45408,0,0,0
4901,56433,45337,0,0,0
4845,56392,45272,0,0,0
4794,56355,45212,0,0,0
4751,56324,45155,0,0,0
4716,56295,45103,0,0,0
4689,56270,45056,0,0,0
4673,56252,45018,0,0,0
4665,56239,44994,0,0,0
4662,56232,44982,0,0,0
4662,56230,44979,0,0,0
4663,56230,44980,0,0,0
4668,56234,44987,0,0,0
4679,56240,45000,0,0,0
4690,56247,45015,0,0,0
4700,56255,45030,0,0,0
4709,56265,45044,0,0,0
4717,56275,45055,0,0,0
4721,56285,45061,0,0,0
4717,56291,45061,0,0,0
4707,56291,45054,0,0,0
4692,56287,45041,0,0,0
4671,56276,45020,0,0,0
4645,56260,44991,0,0,0
4613,56238,44954,0,0,0
4576,56211,44904,0,0,0
4533,56177,44845,0,0,0
4483,56140,44779,0,0,0
4429,56100,44708,0,0,0
4371,56057,44630,0,0,0
4307,56008,44549,0,0,0
4240,55953,44462,0,0,0
4171,55893,44370,0,0,0
4098,55827,44272,0,0,0
4023,55757,44170,0,0,0
3946,55687,44065,0,0,0
3871,55621,43959,0,0,0
3794,55556,43855,0,0,0
3715,55492,43752,0,0,0
3638,55432,43651,0,0,0
3565,55377,43551,0,0,0
3494,55324,43453,0,0,0
3423,55272,43355,0,0,0
3354,55217,43258,0,0,0
3288,55161,43161,0,0,0
3220,55105,43065,0,0,0
3151,55048,42971,0,0,0
3082,54991,42878,0,0,0
3015,54934,42786,0,0,0
2952,54878,42696,0,0,0
2894,54829,42612,0,0,0
2841,54784,42533,0,0,0
2791,54741,42460,0,0,0
2741,54697,42392,0,0,0
2687,54653,42327,0,0,0
2632,54609,42261,0,0,0
2582,54569,42197,0,0,0
2537,54530,42135,0,0,0
2494,54491,42076,0,0,0
2452,54455,42018,0,0,0
2411,54420,41959,0,0,0
2370,54384,41900,0,0,0
2328,54346,41840,0,0,0
2285,54308,41780,0,0,0
2243,54274,41721,0,0,0
2203,54241,41665,0,0,0
2165,54209,41610,0,0,0
2131,54178,41557,0,0,0
2098,54148,41503,0,0,0
2062,54118,41451,0,0,0
2023,54089,41400,0,0,0
1985,54061,41347,0,0,0
1947,54032,41292,0,0,0
1908,53999,41235,0,0,0
1870,53962,41175,0,0,0
1831,53923,41113,0,0,0
1791,53885,41051,0,0,0
1749,53851,40992,0,0,0
1707,53820,40933,0,0,0
1664,53787,40871,0,0,0
1616,53747,40805,0,0,0
1565,53704,40737,0,0,0
1513,53660,40667,0,0,0
1459,53618,40592,0,0,0
1401,53577,40514,0,0,0
1337,53531,40433,0,0,0
1272,53479,40347,0,0,0
1206,53423,40257,0,0,0
1141,53365,40167,0,0,0
1076,53305,40075,0,0,0
1012,53245,39980,0,0,0
947,53185,39885,0,0,0
882,53125,39791,0,0,0
816,53067,39699,0,0,0
751,53011,39609,0,0,0
687,52959,39526,0,0,0
628,52915,39454,0,0,0
578,52881,39398,0,0,0
545,52862,39363,0,0,0
532,52861,39356,0,0,0
549,52881,39384,0,0,0
599,52928,39456,0,0,0
688,53010,39577,0,0,0
818,53129,39756,0,0,0
993,53284,39999,0,0,0
1214,53476,40306,0,0,0
1479,53703,40672,0,0,0
1783,53958,41089,0,0,0
2117,54237,41548,0,0,0
2475,54532,42036,0,0,0
2849,54836,42538,0,0,0
3226,55138,43038,0,0,0
3590,55431,43526,0,0,0
3933,55710,43990,0,0,0
4251,55970,44420,0,0,0
4541,56206,44809,0,0,0
4797,56415,45154,0,0,0
5019,56598,45454,0,0,0
5206,56753,45708,0,0,0
5358,56880,45918,0,0,0
5475,56979,46086,0,0,0
5563,57055,46217,0,0,0
5625,57113,46318,0,0,0
5665,57151,46395,0,0,0
5689,57173,46444,0,0,0
5703,57182,46470,0,0,0
5710,57180,46478,0,0,0
5705,57169,46471,0,0,0
5691,57155,46452,0,0,0
5673,57137,46422,0,0,0
5650,57114,46381,0,0,0
5621,57081,46331,0,0,0
5587,57044,46278,0,0,0
5550,57007,46222,0,0,0
5510,56969,46167,0,0,0
5470,56929,46113,0,0,0
5430,56890,46058,0,0,0
5393,56854,46002,0,0,0
5358,56820,45945,0,0,0
5322,56788,45888,0,0,0
5281,56756,45829,0,0,0
5233,56719,45765,0,0,0
5181,56677,45695,0,0,0
5124,56629,45620,0,0,0
5064,56579,45538,0,0,0
5002,56528,45452,0,0,0
4941,56477,45366,0,0,0
4880,56428,45279,0,0,0
4820,56380,45191,0,0,0
4765,56336,45107,0,0,0
4711,56295,45028,0,0,0
4662,56256,44957,0,0,0
4618,56219,44894,0,0,0
4578,56186,44840,0,0,0
4540,56157,44794,0,0,0
4509,56133,44760,0,0,0
4487,56116,44736,0,0,0
4477,56106,44723,0,0,0
4476,56101,44717,0,0,0
4479,56100,44714,0,0,0
4485,56104,44714,0,0,0
4494,56113,44714,0,0,0
4505,56124,44718,0,0,0
4518,56137,44725,0,0,0
4534,56150,44732,0,0,0
4550,56162,44739,0,0,0
4560,56171,44745,0,0,0
4563,56175,44748,0,0,0
4561,56175,44748,0,0,0
4557,56171,44743,0,0,0
4547,56163,44735,0,0,0
4535,56151,44723,0,0,0
4521,56135,44705,0,0,0
4505,56116,44679,0,0,0
4483,56094,44648,0,0,0
4452,56065,44609,0,0,0
4415,56030,44563,0,0,0
4375,55994,44511,0,0,0
4330,55958,44452,0,0,0
4282,55919,44386,0,0,0
4231,55878,44315,0,0,0
4177,55836,44241,0,0,0
4117,55790,44162,0,0,0
4054,55740,44078,0,0,0
3989,55688,43989,0,0,0
3925,55634,43898,0,0,0
3859,55574,43802,0,0,0
3790,55511,43704,0,0,0
3722,55449,43606,0,0,0
3655,55387,43509,0,0,0
3587,55327,43415,0,0,0
3521,55269,43321,0,0,0
3458,55215,43230,0,0,0
3396,55162,43141,0,0,0
3332,55111,43054,0,0,0
3269,55062,42969,0,0,0
3207,55016,42886,0,0,0
3146,54971,42803,0,0,0
3083,54925,42720,0,0,0
3020,54878,42639,0,0,0
2959,54832,42560,0,0,0
2903,54784,42483,0,0,0
2853,54736,42409,0,0,0
2807,54689,42339,0,0,0
2764,54646,42272,0,0,0
2718,54603,42206,0,0,0
2670,54561,42143,0,0,0
2621,54521,42082,0,0,0
2574,54483,42020,0,0,0
2529,54446,41959,0,0,0
2485,54411,41900,0,0,0
2445,54379,41845,0,0,0
2410,54351,41795,0,0,0
2378,54323,41748,0,0,0
2343,54297,41701,0,0,0
2309,54273,41653,0,0,0
2275,54249,41603,0,0,0
2240,54222,41553,0,0,0
2206,54194,41502,0,0,0
2172,54164,41449,0,0,0
2138,54133,41397,0,0,0
2104,54100,41345,0,0,0
2072,54069,41292,0,0,0
2042,54038,41238,0,0,0
2010,54008,41186,0,0,0
1974,53979,41135,0,0,0
1936,53949,41085,0,0,0
1898,53915,41032,0,0,0
1860,53880,40976,0,0,0
1820,53844,40919,0,0,0
1780,53807,40864,0,0,0
1737,53768,40808,0,0,0
1691,53730,40749,0,0,0
1642,53692,40687,0,0,0
1591,53653,40622,0,0,0
1539,53613,40553,0,0,0
1488,53570,40479,0,0,0
1437,53526,40402,0,0,0
1386,53479,40325,0,0,0
1334,53431,40245,0,0,0
1278,53382,40159,0,0,0
1219,53329,40069,0,0,0
1159,53277,39978,0,0,0
1101,53229,39892,0,0,0
1045,53185,39813,0,0,0
993,53146,39745,0,0,0
952,53117,39697,0,0,0
928,53104,39672,0,0,0
927,53110,39678,0,0,0
955,53140,39722,0,0,0
1017,53199,39812,0,0,0
1121,53288,39955,0,0,0
1265,53409,40156,0,0,0
1450,53565,40414,0,0,0
1679,53757,40731,0,0,0
1954,53984,41107,0,0,0
2270,54241,41537,0,0,0
2617,54527,42011,0,0,0
2986,54832,42512,0,0,0
3368,55146,43022,0,0,0
3751,55458,43529,0,0,0
4121,55759,44020,0,0,0
4469,56043,44485,0,0,0
4792,56308,44920,0,0,0
5085,56549,45320,0,0,0
5342,56762,45677,0,0,0
5569,56952,45991,0,0,0
5768,57118,46263,0,0,0
5940,57258,46495,0,0,0
6083,57378,46691,0,0,0
6198,57483,46855,0,0,0
6289,57568,46991,0,0,0
6360,57634,47102,0,0,0
6416,57682,47187,0,0,0
6464,57717,47252,0,0,0
6503,57742,47302,0,0,0
6533,57759,47337,0,0,0
6555,57769,47363,0,0,0
6570,57777,47385,0,0,0
6578,57782,47401,0,0,0
6583,57781,47409,0,0,0
6585,57777,47411,0,0,0
6586,57774,47410,0,0,0
6586,57771,47411,0,0,0
6582,57770,47411,0,0,0
6576,57771,47413,0,0,0
6571,57775,47416,0,0,0
6569,57780,47420,0,0,0
6568,57785,47420,0,0,0
6568,57788,47415,0,0,0
6566,57789,47408,0,0,0
6559,57786,47399,0,0,0
6548,57779,47385,0,0,0
6532,57766,47362,0,0,0
6511,57746,47329,0,0,0
6484,57720,47287,0,0,0
6452,57687,47237,0,0,0
6416,57650,47177,0,0,0
6377,57609,47112,0,0,0
6335,57566,47043,0,0,0
6289,57523,46971,0,0,0
6244,57483,46903,0,0,0
6201,57443,46839,0,0,0
6160,57407,46780,0,0,0
6122,57376,46726,0,0,0
6090,57352,46678,0,0,0
6064,57332,46637,0,0,0
6044,57314,46603,0,0,0
6027,57299,46573,0,0,0
6014,57288,46548,0,0,0
6004,57280,46527,0,0,0
5998,57272,46510,0,0,0
5996,57267,46498,0,0,0
6002,57263,46489,0,0,0
6013,57261,46483,0,0,0
6022,57260,46481,0,0,0
6025,57260,46483,0,0,0
6024,57260,46484,0,0,0
6022,57258,46482,0,0,0
6021,57257,46474,0,0,0
6021,57254,46462,0,0,0
6021,57252,46448,0,0,0
6019,57245,46435,0,0,0
6012,57234,46419,0,0,0
6002,57219,46398,0,0,0
5989,57202,46371,0,0,0
5970,57183,46340,0,0,0
5944,57163,46306,0,0,0
5911,57142,46267,0,0,0
5875,57115,46226,0,0,0
5834,57082,46184,0,0,0
5789,57043,46136,0,0,0
5742,57002,46080,0,0,0
5691,56956,46014,0,0,0
5639,56908,45942,0,0,0
5588,56860,45866,0,0,0
5536,56816,45789,0,0,0
5484,56775,45715,0,0,0
5433,56735,45642,0,0,0
5385,56694,45569,0,0,0
5338,56654,45495,0,0,0
5289,56612,45419,0,0,0
5239,56568,45345,0,0,0
5190,56523,45272,0,0,0
5141,56480,45198,0,0,0
5092,56436,45124,0,0,0
5041,56391,45051,0,0,0
4991,56348,44979,0,0,0
4940,56306,44908,0,0,0
4891,56268,44842,0,0,0
4845,56231,44780,0,0,0
4800,56195,44719,0,0,0
4757,56161,44661,0,0,0
4715,56126,44605,0,0,0
4673,56088,44549,0,0,0
4632,56047,44492,0,0,0
4590,56007,44436,0,0,0
4546,55968,44381,0,0,0
4501,55931,44326,0,0,0
4459,55895,44270,0,0,0
4420,55863,44214,0,0,0
4381,55834,44158,0,0,0
4343,55807,44106,0,0,0
4310,55780,44056,0,0,0
4279,55751,44005,0,0,0
4249,55722,43955,0,0,0
4220,55691,43903,0,0,0
4191,55659,43848,0,0,0
4160,55627,43792,0,0,0
4126,55593,43736,0,0,0
4088,55559,43685,0,0,0
4050,55529,43638,0,0,0
4013,55502,43595,0,0,0
3977,55475,43553,0,0,0
3944,55447,43510,0,0,0
3914,55421,43462,0,0,0
3882,55395,43411,0,0,0
3845,55365,43356,0,0,0
3804,55333,43297,0,0,0
3763,55298,43235,0,0,0
3718,55262,43171,0,0,0
3670,55224,43105,0,0,0
3617,55186,43037,0,0,0
3565,55144,42968,0,0,0
3512,55100,42899,0,0,0
3458,55055,42831,0,0,0
3402,55009,42763,0,0,0
3344,54962,42692,0,0,0
3286,54915,42615,0,0,0
3229,54867,42535,0,0,0
3172,54817,42455,0,0,0
3115,54764,42374,0,0,0
3056,54706,42291,0,0,0
2994,54649,42210,0,0,0
2933,54595,42130,0,0,0
2872,54548,42052,0,0,0
2812,54505,41977,0,0,0
2754,54466,41906,0,0,0
2703,54430,41840,0,0,0
2666,54402,41787,0,0,0
2646,54385,41757,0,0,0
2648,54387,41757,0,0,0
2678,54411,41794,0,0,0
2740,54465,41876,0,0,0
2834,54551,42013,0,0,0
2967,54669,42206,0,0,0
3145,54824,42454,0,0,0
3365,55014,42753,0,0,0
3618,55231,43099,0,0,0
3901,55471,43486,0,0,0
4206,55729,43903,0,0,0
4519,55996,44336,0,0,0
4829,56263,44770,0,0,0
5132,56521,45194,0,0,0
5427,56767,45600,0,0,0
5710,56999,45986,0,0,0
5976,57214,46349,0,0,0
6220,57412,46683,0,0,0
6445,57594,46988,0,0,0
6648,57760,47264,0,0,0
6830,57907,47510,0,0,0
6990,58036,47725,0,0,0
7131,58148,47912,0,0,0
7251,58242,48074,0,0,0
7351,58320,48212,0,0,0
7432,58386,48329,0,0,0
7499,58440,48424,0,0,0
7555,58485,48502,0,0,0
7601,58525,48565,0,0,0
7638,58559,48615,0,0,0
7668,58588,48654,0,0,0
7691,58613,48684,0,0,0
7708,58632,48709,0,0,0
7723,58645,48725,0,0,0
7735,58652,48733,0,0,0
7745,58657,48741,0,0,0
7753,58660,48751,0,0,0
7762,58663,48761,0,0,0
7774,58668,48770,0,0,0
7788,58674,48780,0,0,0
7800,58679,48791,0,0,0
7810,58682,48801,0,0,0
7820,58684,48809,0,0,0
7826,58683,48815,0,0,0
7829,58678,48815,0,0,0
7830,58672,48809,0,0,0
7828,58666,48800,0,0,0
7818,58656,48782,0,0,0
7800,58637,48753,0,0,0
7772,58612,48714,0,0,0
7737,58584,48665,0,0,0
7694,58549,48606,0,0,0
7646,58510,48540,0,0,0
7596,58471,48472,0,0,0
7548,58434,48406,0,0,0
7498,58401,48340,0,0,0
7451,58369,48275,0,0,0
7409,58338,48212,0,0,0
7368,58305,48156,0,0,0
7331,58274,48108,0,0,0
7302,58245,48069,0,0,0
7279,58222,48037,0,0,0
7261,58203,48011,0,0,0
7246,58186,47989,0,0,0
7232,58174,47968,0,0,0
7220,58165,47947,0,0,0
7210,58161,47928,0,0,0
7204,58160,47915,0,0,0
7200,58158,47905,0,0,0
7195,58154,47895,0,0,0
7190,58150,47884,0,0,0
7182,58148,47872,0,0,0
7176,58149,47860,0,0,0
7173,58149,47844,0,0,0
7169,58143,47823,0,0,0
7163,58132,47801,0,0,0
7156,58117,47779,0,0,0
7146,58100,47758,0,0,0
7131,58081,47732,0,0,0
7109,58060,47703,0,0,0
7083,58036,47670,0,0,0
7052,58009,47632,0,0,0
7017,57975,47586,0,0,0
6978,57937,47534,0,0,0
6935,57899,47474,0,0,0
6889,57858,47410,0,0,0
6840,57817,47347,0,0,0
6791,57779,47285,0,0,0
6744,57741,47220,0,0,0
6699,57701,47152,0,0,0
6651,57656,47082,0,0,0
6601,57610,47010,0,0,0
6551,57566,46938,0,0,0
6501,57525,46869,0,0,0
6450,57484,46802,0,0,0
6399,57443,46735,0,0,0
6349,57404,46667,0,0,0
6301,57365,46600,0,0,0
6254,57325,46536,0,0,0
6209,57287,46473,0,0,0
6170,57252,46414,0,0,0
6135,57219,46358,0,0,0
6098,57187,46303,0,0,0
6061,57154,46250,0,0,0
6022,57118,46196,0,0,0
5979,57079,46139,0,0,0
5935,57042,46082,0,0,0
5893,57012,46026,0,0,0
5856,56985,45971,0,0,0
5820,56957,45919,0,0,0
5782,56926,45867,0,0,0
5743,56892,45814,0,0,0
5705,56857,45759,0,0,0
5666,56820,45704,0,0,0
5624,56782,45648,0,0,0
5583,56745,45590,0,0,0
5544,56707,45531,0,0,0
5505,56669,45472,0,0,0
5464,56633,45414,0,0,0
5421,56598,45358,0,0,0
5380,56567,45302,0,0,0
5339,56536,45247,0,0,0
5297,56504,45193,0,0,0
5256,56471,45137,0,0,0
5212,56434,45079,0,0,0
5166,56393,45020,0,0,0
5117,56352,44960,0,0,0
5067,56313,44902,0,0,0
5016,56274,44843,0,0,0
4967,56237,44781,0,0,0
4921,56203,44720,0,0,0
4879,56172,44662,0,0,0
4836,56140,44604,0,0,0
4791,56106,44546,0,0,0
4745,56071,44484,0,0,0
4701,56037,44422,0,0,0
4659,55999,44361,0,0,0
4617,55959,44301,0,0,0
4573,55918,44242,0,0,0
4527,55877,44179,0,0,0
4481,55834,44112,0,0,0
4433,55788,44042,0,0,0
4383,55741,43968,0,0,0
4328,55695,43889,0,0,0
4271,55650,43809,0,0,0
4212,55603,43727,0,0,0
4152,55555,43645,0,0,0
4091,55508,43564,0,0,0
4031,55458,43484,0,0,0
3970,55403,43401,0,0,0
3911,55347,43320,0,0,0
3853,55297,43244,0,0,0
3796,55252,43172,0,0,0
3739,55210,43105,0,0,0
3690,55172,43044,0,0,0
3653,55142,42996,0,0,0
3630,55122,42964,0,0,0
3623,55117,42953,0,0,0
3637,55133,42974,0,0,0
3680,55177,43034,0,0,0
3759,55250,43142,0,0,0
3875,55353,43304,0,0,0
4029,55492,43520,0,0,0
4222,55663,43789,0,0,0
4450,55859,44103,0,0,0
4704,56076,44453,0,0,0
4976,56306,44827,0,0,0
5259,56547,45216,0,0,0
5546,56793,45613,0,0,0
5829,57038,46009,0,0,0
6108,57277,46395,0,0,0
6376,57504,46766,0,0,0
6628,57715,47118,0,0,0
6862,57911,47447,0,0,0
7076,58091,47750,0,0,0
7270,58256,48027,0,0,0
7443,58404,48273,0,0,0
7596,58534,48484,0,0,0
7731,58643,48662,0,0,0
7845,58731,48812,0,0,0
7935,58802,48939,0,0,0
8007,58860,49042,0,0,0
8065,58907,49125,0,0,0
8111,58945,49191,0,0,0
8149,58974,49242,0,0,0
8181,58997,49281,0,0,0
8208,59015,49310,0,0,0
8227,59026,49331,0,0,0
8237,59033,49344,0,0,0
8240,59039,49350,0,0,0
8242,59042,49351,0,0,0
8244,59044,49351,0,0,0
8244,59045,49351,0,0,0
8241,59047,49352,0,0,0
8241,59051,49358,0,0,0
8243,59058,49367,0,0,0
8247,59065,49376,0,0,0
8250,59070,49383,0,0,0
8250,59074,49387,0,0,0
8244,59074,49387,0,0,0
8234,59070,49380,0,0,0
8220,59060,49366,0,0,0
8205,59044,49344,0,0,0
8185,59021,49312,0,0,0
8159,58992,49273,0,0,0
8128,58960,49227,0,0,0
8093,58923,49174,0,0,0
8052,58883,49111,0,0,0
8004,58838,49040,0,0,0
7951,58793,48965,0,0,0
7898,58747,48889,0,0,0
7845,58702,48813,0,0,0
7793,58658,48740,0,0,0
7743,58616,48671,0,0,0
7699,58580,48611,0,0,0
7662,58548,48560,0,0,0
7630,58521,48517,0,0,0
7601,58498,48479,0,0,0
7574,58477,48446,0,0,0
7551,58458,48419,0,0,0
7532,58445,48400,0,0,0
7522,58436,48387,0,0,0
7518,58430,48378,0,0,0
7518,58426,48369,0,0,0
7517,58426,48359,0,0,0
7517,58427,48349,0,0,0
7516,58426,48339,0,0,0
7511,58423,48326,0,0,0
7502,58420,48313,0,0,0
7493,58417,48300,0,0,0
7481,58411,48288,0,0,0
7466,58399,48272,0,0,0
7445,58385,48251,0,0,0
7420,58369,48224,0,0,0
7393,58348,48194,0,0,0
7368,58322,48161,0,0,0
7342,58293,48122,0,0,0
7315,58263,48076,0,0,0
7282,58233,48022,0,0,0
7244,58199,47964,0,0,0
7200,58162,47904,0,0,0
7153,58122,47841,0,0,0
7103,58077,47773,0,0,0
7047,58028,47703,0,0,0
6988,57979,47631,0,0,0
6929,57932,47557,0,0,0
6870,57883,47479,0,0,0
6809,57833,47397,0,0,0
6749,57785,47315,0,0,0
6689,57739,47233,0,0,0
6630,57692,47152,0,0,0
6573,57646,47071,0,0,0
6517,57600,46990,0,0,0
6461,57557,46911,0,0,0
6404,57515,46836,0,0,0
6348,57473,46765,0,0,0
6293,57430,46697,0,0,0
6239,57387,46629,0,0,0
6185,57342,46565,0,0,0
6134,57301,46506,0,0,0
6088,57262,46448,0,0,0
6046,57225,46391,0,0,0
6005,57188,46333,0,0,0
5964,57151,46274,0,0,0
5926,57116,46216,0,0,0
5888,57084,46160,0,0,0
5847,57054,46106,0,0,0
5806,57025,46053,0,0,0
5767,56997,46000,0,0,0
5728,56970,45946,0,0,0
5685,56941,45890,0,0,0
5642,56909,45832,0,0,0
5601,56876,45775,0,0,0
5560,56843,45718,0,0,0
5519,56807,45661,0,0,0
5478,56769,45605,0,0,0
5438,56730,45551,0,0,0
5399,56690,45497,0,0,0
5358,56652,45444,0,0,0
5319,56619,45390,0,0,0
5282,56588,45335,0,0,0
5245,56555,45282,0,0,0
5209,56520,45229,0,0,0
5171,56486,45176,0,0,0
5130,56453,45120,0,0,0
5086,56419,45062,0,0,0
5041,56384,45003,0,0,0
4996,56347,44943,0,0,0
4950,56310,44883,0,0,0
4903,56271,44823,0,0,0
4855,56232,44760,0,0,0
4806,56191,44691,0,0,0
4755,56148,44618,0,0,0
4700,56104,44545,0,0,0
4641,56060,44473,0,0,0
4578,56017,44399,0,0,0
4515,55969,44322,0,0,0
4451,55916,44243,0,0,0
4390,55863,44164,0,0,0
4329,55810,44083,0,0,0
4265,55754,43999,0,0,0
4195,55695,43911,0,0,0
4121,55636,43820,0,0,0
4047,55578,43727,0,0,0
3973,55523,43633,0,0,0
3899,55469,43540,0,0,0
3830,55417,43450,0,0,0
3768,55370,43364,0,0,0
3716,55327,43285,0,0,0
3671,55290,43215,0,0,0
3635,55264,43158,0,0,0
3610,55249,43120,0,0,0
3598,55246,43108,0,0,0
3607,55262,43128,0,0,0
3646,55302,43187,0,0,0
3722,55370,43293,0,0,0
3837,55470,43452,0,0,0
3992,55604,43666,0,0,0
4187,55767,43936,0,0,0
4420,55960,44256,0,0,0
4684,56181,44619,0,0,0
4970,56422,45016,0,0,0
5268,56676,45432,0,0,0
5572,56936,45850,0,0,0
5871,57191,46263,0,0,0
6159,57437,46665,0,0,0
6433,57671,47046,0,0,0
6690,57889,47403,0,0,0
6925,58089,47731,0,0,0
7136,58268,48027,0,0,0
7323,58426,48285,0,0,0
7488,58564,48506,0,0,0
7629,58683,48692,0,0,0
7746,58783,48852,0,0,0
7844,58867,48985,0,0,0
7922,58935,49092,0,0,0
7979,58984,49172,0,0,0
8021,59018,49228,0,0,0
8050,59041,49266,0,0,0
8069,59056,49291,0,0,0
8078,59062,49304,0,0,0
8079,59058,49307,0,0,0
8074,59048,49303,0,0,0
8063,59034,49292,0,0,0
8046,59016,49275,0,0,0
8025,58997,49255,0,0,0
8006,58978,49234,0,0,0
7991,58961,49214,0,0,0
7978,58946,49195,0,0,0
7965,58932,49178,0,0,0
7955,58922,49162,0,0,0
7944,58914,49145,0,0,0
7932,58909,49126,0,0,0
7915,58903,49104,0,0,0
7891,58893,49078,0,0,0
7861,58876,49045,0,0,0
7826,58851,49005,0,0,0
7788,58819,48955,0,0,0
7747,58783,48891,0,0,0
7700,58740,48817,0,0,0
7646,58691,48736,0,0,0
7590,58641,48650,0,0,0
7534,58590,48562,0,0,0
7478,58537,48477,0,0,0
7421,58483,48395,0,0,0
7366,58432,48317,0,0,0
7316,58387,48248,0,0,0
7273,58351,48190,0,0,0
7238,58321,48142,0,0,0
7212,58300,48102,0,0,0
7196,58285,48072,0,0,0
7187,58275,48051,0,0,0
7181,58269,48035,0,0,0
7182,58268,48026,0,0,0
7187,58272,48024,0,0,0
7195,58282,48030,0,0,0
7206,58296,48043,0,0,0
7220,58313,48061,0,0,0
7234,58331,48082,0,0,0
7247,58346,48104,0,0,0
7256,58357,48119,0,0,0
7261,58361,48123,0,0,0
7263,58361,48123,0,0,0
7262,58360,48123,0,0,0
7262,58360,48119,0,0,0
7260,58355,48106,0,0,0
7255,58346,48089,0,0,0
7244,58334,48069,0,0,0
7229,58319,48044,0,0,0
7210,58303,48016,0,0,0
7187,58280,47983,0,0,0
7159,58252,47942,0,0,0
7125,58222,47895,0,0,0
7086,58189,47842,0,0,0
7043,58153,47782,0,0,0
6999,58113,47720,0,0,0
6954,58070,47656,0,0,0
6905,58025,47588,0,0,0
6852,57978,47518,0,0,0
6797,57929,47444,0,0,0
6741,57878,47369,0,0,0
6682,57828,47293,0,0,0
6623,57779,47216,0,0,0
6563,57732,47140,0,0,0
6508,57688,47063,0,0,0
6457,57646,46985,0,0,0
6406,57606,46908,0,0,0
6357,57567,46832,0,0,0
6307,57529,46757,0,0,0
6256,57487,46681,0,0,0
6203,57443,46607,0,0,0
6152,57401,46535,0,0,0
6105,57361,46467,0,0,0
6062,57323,46402,0,0,0
6019,57283,46341,0,0,0
5978,57242,46282,0,0,0
5941,57201,46225,0,0,0
5905,57164,46170,0,0,0
5869,57131,46120,0,0,0
5835,57100,46070,0,0,0
5805,57071,46022,0,0,0
5774,57045,45977,0,0,0
5741,57019,45933,0,0,0
5708,56994,45887,0,0,0
5675,56967,45837,0,0,0
5641,56939,45790,0,0,0
5604,56909,45746,0,0,0
5567,56879,45702,0,0,0
5531,56850,45658,0,0,0
5497,56823,45615,0,0,0
5465,56801,45573,0,0,0
5436,56784,45531,0,0,0
5407,56766,45489,0,0,0
5378,56744,45443,0,0,0
5347,56718,45392,0,0,0
5315,56688,45338,0,0,0
5283,56656,45285,0,0,0
5250,56623,45235,0,0,0
5214,56591,45185,0,0,0
5178,56559,45132,0,0,0
5142,56522,45073,0,0,0
5102,56481,45010,0,0,0
5057,56437,44944,0,0,0
5007,56391,44875,0,0,0
4953,56348,44803,0,0,0
4895,56305,44729,0,0,0
4837,56260,44652,0,0,0
4778,56213,44571,0,0,0
4717,56166,44488,0,0,0
4656,56118,44402,0,0,0
4594,56071,44316,0,0,0
4535,56023,44230,0,0,0
4478,55975,44146,0,0,0
4423,55926,44064,0,0,0
4370,55878,43984,0,0,0
4318,55836,43908,0,0,0
4269,55801,43842,0,0,0
4225,55770,43786,0,0,0
4191,55744,43741,0,0,0
4170,55729,43714,0,0,0
4169,55728,43714,0,0,0
4191,55745,43750,0,0,0
4241,55790,43829,0,0,0
4329,55868,43956,0,0,0
4456,55978,44132,0,0,0
4621,56119,44357,0,0,0
4820,56286,44628,0,0,0
5053,56480,44941,0,0,0
5316,56696,45290,0,0,0
5599,56926,45662,0,0,0
5891,57166,46044,0,0,0
6184,57410,46430,0,0,0
6471,57653,46813,0,0,0
6749,57888,47185,0,0,0
7014,58111,47541,0,0,0
7264,58318,47876,0,0,0
7493,58506,48188,0,0,0
7699,58673,48470,0,0,0
7882,58821,48717,0,0,0
8044,58948,48928,0,0,0
8182,59057,49105,0,0,0
8298,59148,49249,0,0,0
8394,59222,49367,0,0,0
8469,59280,49464,0,0,0
8523,59319,49540,0,0,0
8561,59345,49599,0,0,0
8587,59363,49641,0,0,0
8607,59376,49668,0,0,0
8620,59383,49684,0,0,0
8626,59384,49690,0,0,0
8626,59381,49686,0,0,0
8621,59375,49675,0,0,0
8613,59366,49661,0,0,0
8604,59353,49645,0,0,0
8596,59341,49631,0,0,0
8585,59333,49617,0,0,0
8576,59326,49604,0,0,0
8568,59319,49590,0,0,0
8562,59313,49576,0,0,0
8557,59306,49562,0,0,0
8548,59296,49546,0,0,0
8532,59280,49524,0,0,0
8511,59260,49494,0,0,0
8487,59233,49456,0,0,0
8458,59201,49410,0,0,0
8422,59166,49355,0,0,0
8380,59131,49291,0,0,0
8331,59094,49223,0,0,0
8276,59055,49151,0,0,0
8219,59015,49074,0,0,0
8164,58972,48997,0,0,0
8111,58926,48924,0,0,0
8057,58882,48854,0,0,0
8008,58839,48786,0,0,0
7965,58800,48720,0,0,0
7928,58767,48663,0,0,0
7897,58741,48617,0,0,0
7872,58721,48584,0,0,0
7855,58709,48559,0,0,0
7845,58702,48540,0,0,0
7841,58699,48529,0,0,0
7843,58696,48524,0,0,0
7849,58693,48524,0,0,0
7859,58690,48527,0,0,0
7870,58690,48530,0,0,0
7881,58691,48530,0,0,0
7892,58695,48527,0,0,0
7898,58700,48524,0,0,0
7900,58705,48522,0,0,0
7902,58709,48519,0,0,0
7903,58713,48511,0,0,0
7901,58710,48498,0,0,0
7891,58701,48481,0,0,0
7876,58687,48459,0,0,0
7857,58669,48433,0,0,0
7834,58648,48400,0,0,0
7803,58624,48360,0,0,0
7767,58599,48311,0,0,0
7728,58571,48254,0,0,0
7684,58537,48193,0,0,0
7637,58496,48131,0,0,0
7588,58452,48070,0,0,0
7539,58407,48008,0,0,0
7489,58362,47943,0,0,0
7440,58317,47874,0,0,0
7392,58270,47805,0,0,0
7342,58221,47736,0,0,0
7288,58171,47664,0,0,0
7234,58120,47589,0,0,0
7181,58072,47513,0,0,0
7127,58024,47436,0,0,0
7070,57976,47359,0,0,0
7015,57931,47279,0,0,0
6962,57888,47199,0,0,0
6911,57847,47123,0,0,0
6861,57805,47052,0,0,0
6810,57762,46983,0,0,0
6760,57720,46915,0,0,0
6711,57678,46850,0,0,0
6662,57637,46788,0,0,0
6617,57599,46727,0,0,0
6576,57562,46666,0,0,0
6537,57526,46605,0,0,0
6501,57495,46544,0,0,0
6463,57465,46482,0,0,0
6424,57434,46420,0,0,0
6383,57405,46365,0,0,0
6342,57375,46312,0,0,0
6303,57342,46259,0,0,0
6266,57309,46206,0,0,0
6230,57275,46154,0,0,0
6196,57239,46105,0,0,0
6163,57202,46057,0,0,0
6130,57167,46009,0,0,0
6096,57134,45963,0,0,0
6061,57102,45917,0,0,0
6022,57070,45868,0,0,0
5983,57039,45820,0,0,0
5947,57011,45772,0,0,0
5914,56985,45725,0,0,0
5879,56960,45675,0,0,0
5843,56935,45622,0,0,0
5805,56908,45567,0,0,0
5767,56880,45511,0,0,0
5734,56850,45455,0,0,0
5701,56817,45400,0,0,0
5664,56781,45343,0,0,0
5626,56742,45285,0,0,0
5586,56703,45227,0,0,0
5545,56664,45166,0,0,0
5506,56625,45106,0,0,0
5468,56588,45048,0,0,0
5425,56553,44992,0,0,0
5378,56518,44935,0,0,0
5330,56480,44874,0,0,0
5283,56439,44807,0,0,0
5235,56397,44738,0,0,0
5186,56354,44665,0,0,0
5133,56312,44587,0,0,0
5080,56271,44506,0,0,0
5025,56227,44425,0,0,0
4969,56179,44347,0,0,0
4913,56129,44271,0,0,0
4858,56077,44190,0,0,0
4803,56026,44107,0,0,0
4747,55976,44025,0,0,0
4693,55930,43950,0,0,0
4649,55892,43890,0,0,0
4619,55868,43851,0,0,0
4607,55859,43838,0,0,0
4617,55869,43853,0,0,0
4653,55902,43903,0,0,0
4721,55961,43994,0,0,0
4823,56048,44133,0,0,0
4962,56169,44323,0,0,0
5141,56325,44568,0,0,0
5358,56513,44863,0,0,0
5604,56726,45205,0,0,0
5871,56957,45581,0,0,0
6157,57202,45981,0,0,0
6458,57458,46396,0,0,0
6761,57715,46813,0,0,0
7058,57967,47220,0,0,0
7345,58208,47613,0,0,0
7619,58436,47986,0,0,0
7876,58648,48333,0,0,0
8114,58844,48652,0,0,0
8332,59023,48945,0,0,0
8527,59186,49212,0,0,0
8701,59330,49451,0,0,0
8856,59456,49658,0,0,0
8991,59563,49838,0,0,0
9107,59655,49993,0,0,0
9208,59732,50124,0,0,0
9296,59797,50230,0,0,0
9369,59852,50316,0,0,0
9427,59895,50387,0,0,0
9472,59929,50445,0,0,0
9508,59954,50491,0,0,0
9537,59971,50527,0,0,0
9564,59985,50555,0,0,0
9587,60000,50577,0,0,0
9604,60016,50594,0,0,0
9616,60032,50612,0,0,0
9625,60047,50627,0,0,0
9632,60058,50639,0,0,0
9636,60068,50648,0,0,0
9642,60078,50656,0,0,0
9648,60087,50667,0,0,0
9654,60095,50680,0,0,0
9664,60104,50694,0,0,0
9675,60114,50707,0,0,0
9684,60122,50716,0,0,0
9687,60125,50717,0,0,0
9688,60124,50711,0,0,0
9685,60117,50697,0,0,0
9671,60104,50674,0,0,0
9646,60083,50643,0,0,0
9613,60055,50600,0,0,0
9573,60019,50547,0,0,0
9527,59976,50483,0,0,0
9480,59929,50412,0,0,0
9436,59882,50336,0,0,0
9390,59836,50259,0,0,0
9342,59788,50184,0,0,0
9293,59742,50113,0,0,0
9243,59697,50045,0,0,0
9193,59655,49983,0,0,0
9148,59615,49925,0,0,0
9112,59581,49874,0,0,0
9084,59552,49827,0,0,0
9058,59526,49786,0,0,0
9032,59505,49750,0,0,0
9012,59490,49720,0,0,0
9001,59480,49697,0,0,0
8996,59475,49684,0,0,0
8992,59474,49674,0,0,0
8989,59474,49666,0,0,0
8984,59473,49660,0,0,0
8977,59470,49653,0,0,0
8968,59463,49644,0,0,0
8960,59453,49633,0,0,0
8951,59442,49619,0,0,0
8940,59427,49601,0,0,0
8925,59411,49580,0,0,0
8906,59396,49554,0,0,0
8884,59379,49525,0,0,0
8858,59360,49491,0,0,0
8831,59339,49455,0,0,0
8802,59313,49413,0,0,0
8771,59283,49368,0,0,0
8737,59250,49320,0,0,0
8698,59218,49267,0,0,0
8659,59187,49209,0,0,0
8619,59156,49148,0,0,0
8577,59122,49083,0,0,0
8530,59085,49014,0,0,0
8481,59046,48944,0,0,0
8431,59003,48874,0,0,0
8378,58958,48805,0,0,0
8324,58909,48733,0,0,0
8270,58860,48660,0,0,0
8214,58812,48585,0,0,0
8157,58765,48506,0,0,0
8100,58717,48427,0,0,0
8045,58669,48347,0,0,0
7990,58623,48268,0,0,0
7935,58579,48190,0,0,0
7884,58538,48117,0,0,0
7836,58497,48047,0,0,0
7789,58455,47980,0,0,0
7743,58414,47917,0,0,0
7698,58374,47856,0,0,0
7654,58337,47793,0,0,0
7609,58299,47727,0,0,0
7564,58260,47662,0,0,0
7520,58219,47600,0,0,0
7478,58180,47539,0,0,0
7439,58143,47481,0,0,0
7402,58109,47422,0,0,0
7366,58078,47364,0,0,0
7331,58046,47309,0,0,0
7293,58013,47255,0,0,0
7254,57980,47202,0,0,0
7215,57948,47147,0,0,0
7178,57917,47093,0,0,0
7139,57886,47037,0,0,0
7098,57853,46981,0,0,0
7055,57822,46926,0,0,0
7013,57791,46870,0,0,0
6969,57758,46813,0,0,0
6925,57724,46754,0,0,0
6882,57689,46693,0,0,0
6840,57655,46634,0,0,0
6800,57623,46576,0,0,0
6760,57589,46519,0,0,0
6722,57554,46463,0,0,0
6683,57517,46405,0,0,0
6643,57477,46346,0,0,0
6603,57437,46285,0,0,0
6563,57399,46224,0,0,0
6522,57361,46165,0,0,0
6478,57322,46106,0,0,0
6433,57284,46048,0,0,0
6389,57249,45989,0,0,0
6343,57212,45929,0,0,0
6293,57173,45870,0,0,0
6239,57132,45808,0,0,0
6184,57088,45739,0,0,0
6125,57039,45665,0,0,0
6065,56983,45586,0,0,0
6005,56925,45503,0,0,0
5947,56869,45417,0,0,0
5888,56815,45328,0,0,0
5825,56762,45241,0,0,0
5762,56709,45156,0,0,0
5699,56657,45073,0,0,0
5637,56604,44991,0,0,0
5575,56552,44912,0,0,0
5517,56506,44836,0,0,0
5467,56465,44763,0,0,0
5423,56430,44699,0,0,0
5385,56400,44649,0,0,0
5357,56380,44616,0,0,0
5347,56373,44605,0,0,0
5361,56387,44627,0,0,0
5405,56427,44689,0,0,0
5481,56497,44796,0,0,0
5595,56599,44954,0,0,0
5747,56735,45164,0,0,0
5936,56902,45420,0,0,0
6157,57097,45715,0,0,0
6402,57314,46044,0,0,0
6665,57545,46399,0,0,0
6937,57785,46771,0,0,0
7215,58026,47149,0,0,0
7493,58264,47525,0,0,0
7765,58494,47892,0,0,0
8028,58712,48243,0,0,0
8277,58917,48575,0,0,0
8509,59107,48881,0,0,0
8719,59277,49160,0,0,0
8908,59427,49411,0,0,0
9077,59558,49636,0,0,0
9224,59673,49836,0,0,0
9350,59774,50011,0,0,0
9456,59857,50158,0,0,0
9544,59924,50281,0,0,0
9617,59977,50382,0,0,0
9676,60018,50465,0,0,0
9723,60051,50531,0,0,0
9759,60079,50581,0,0,0
9785,60099,50615,0,0,0
9804,60114,50639,0,0,0
9816,60125,50656,0,0,0
9825,60134,50668,0,0,0
9831,60138,50673,0,0,0
9832,60139,50672,0,0,0
9833,60140,50667,0,0,0
9836,60145,50664,0,0,0
9839,60150,50663,0,0,0
9841,60153,50663,0,0,0
9844,60157,50664,0,0,0
9848,60162,50666,0,0,0
9850,60165,50673,0,0,0
9849,60167,50682,0,0,0
9846,60168,50688,0,0,0
9842,60165,50686,0,0,0
9836,60156,50675,0,0,0
9825,60141,50655,0,0,0
9808,60122,50625,0,0,0
9785,60099,50587,0,0,0
9756,60073,50541,0,0,0
9722,60041,50488,0,0,0
9683,60000,50426,0,0,0
9638,59955,50357,0,0,0
9588,59909,50283,0,0,0
9538,59862,50205,0,0,0
9488,59815,50127,0,0,0
9439,59772,50054,0,0,0
9392,59732,49985,0,0,0
9346,59694,49919,0,0,0
9305,59660,49858,0,0,0
9266,59631,49805,0,0,0
9232,59605,49762,0,0,0
9204,59582,49725,0,0,0
9181,59562,49694,0,0,0
9163,59547,49668,0,0,0
9146,59531,49645,0,0,0
9130,59515,49623,0,0,0
9112,59501,49601,0,0,0
9094,59489,49580,0,0,0
9077,59479,49563,0,0,0
9064,59467,49547,0,0,0
9053,59454,49530,0,0,0
9045,59439,49513,0,0,0
9037,59427,49495,0,0,0
9028,59420,49474,0,0,0
9016,59413,49450,0,0,0
8997,59399,49425,0,0,0
8973,59379,49396,0,0,0
8945,59356,49361,0,0,0
8915,59331,49319,0,0,0
8883,59303,49272,0,0,0
8848,59274,49224,0,0,0
8813,59248,49175,0,0,0
8777,59221,49119,0,0,0
8735,59190,49058,0,0,0
8687,59155,48993,0,0,0
8636,59116,48923,0,0,0
8582,59071,48850,0,0,0
8526,59024,48777,0,0,0
8467,58975,48704,0,0,0
8404,58923,48632,0,0,0
8338,58870,48558,0,0,0
8268,58817,48482,0,0,0
8197,58763,48401,0,0,0
8128,58709,48318,0,0,0
8065,58657,48233,0,0,0
8005,58604,48147,0,0,0
7948,58553,48060,0,0,0
7893,58503,47973,0,0,0
7836,58455,47890,0,0,0
7776,58403,47811,0,0,0
7715,58352,47733,0,0,0
7653,58301,47652,0,0,0
7590,58249,47569,0,0,0
7527,58198,47487,0,0,0
7467,58150,47407,0,0,0
7412,58103,47330,0,0,0
7359,58056,47257,0,0,0
7304,58008,47190,0,0,0
7251,57962,47127,0,0,0
7200,57920,47065,0,0,0
7152,57880,47000,0,0,0
7104,57843,46932,0,0,0
7055,57806,46864,0,0,0
7005,57771,46796,0,0,0
6956,57736,46729,0,0,0
6908,57700,46664,0,0,0
6864,57665,46599,0,0,0
6824,57632,46537,0,0,0
6782,57600,46479,0,0,0
6738,57565,46423,0,0,0
6696,57528,46367,0,0,0
6653,57488,46309,0,0,0
6603,57445,46249,0,0,0
6550,57403,46191,0,0,0
6498,57362,46134,0,0,0
6448,57322,46079,0,0,0
6399,57282,46020,0,0,0
6348,57238,45953,0,0,0
6298,57192,45883,0,0,0
6250,57145,45814,0,0,0
6199,57099,45747,0,0,0
6148,57055,45680,0,0,0
6099,57016,45616,0,0,0
6052,56978,45551,0,0,0
6004,56938,45484,0,0,0
5952,56896,45412,0,0,0
5901,56855,45338,0,0,0
5851,56815,45265,0,0,0
5800,56772,45192,0,0,0
5748,56729,45118,0,0,0
5696,56685,45040,0,0,0
5642,56637,44960,0,0,0
5583,56586,44881,0,0,0
5520,56534,44801,0,0,0
5455,56481,44717,0,0,0
5389,56427,44628,0,0,0
5321,56370,44534,0,0,0
5252,56312,44439,0,0,0
5182,56251,44345,0,0,0
5111,56190,44254,0,0,0
5040,56131,44166,0,0,0
4971,56076,44080,0,0,0
4907,56025,43996,0,0,0
4846,55980,43916,0,0,0
4791,55939,43842,0,0,0
4744,55906,43780,0,0,0
4712,55885,43739,0,0,0
4697,55877,43727,0,0,0
4707,55888,43749,0,0,0
4750,55927,43813,0,0,0
4833,56001,43926,0,0,0
4955,56110,44094,0,0,0
5117,56253,44320,0,0,0
5319,56427,44603,0,0,0
5557,56633,44937,0,0,0
5826,56863,45307,0,0,0
6117,57109,45704,0,0,0
6419,57366,46111,0,0,0
6721,57623,46517,0,0,0
7015,57873,46914,0,0,0
7297,58113,47294,0,0,0
7564,58338,47653,0,0,0
7812,58548,47986,0,0,0
8036,58737,48287,0,0,0
8234,58902,48556,0,0,0
8405,59045,48792,0,0,0
8550,59168,48997,0,0,0
8671,59270,49170,0,0,0
8770,59354,49313,0,0,0
8851,59423,49427,0,0,0
8915,59480,49515,0,0,0
8962,59522,49579,0,0,0
8994,59549,49625,0,0,0
9013,59562,49652,0,0,0
9020,59566,49665,0,0,0
9018,59564,49667,0,0,0
9011,59561,49664,0,0,0
9002,59558,49658,0,0,0
8989,59554,49648,0,0,0
8975,59549,49634,0,0,0
8959,59543,49615,0,0,0
8944,59534,49594,0,0,0
8929,59523,49574,0,0,0
8914,59510,49558,0,0,0
8902,59500,49542,0,0,0
8893,59491,49524,0,0,0
8884,59479,49506,0,0,0
8877,59465,49490,0,0,0
8871,59452,49473,0,0,0
8861,59438,49451,0,0,0
8842,59421,49424,0,0,0
8816,59400,49390,0,0,0
8785,59376,49349,0,0,0
8751,59348,49301,0,0,0
8712,59314,49245,0,0,0
8668,59274,49183,0,0,0
8621,59230,49115,0,0,0
8572,59185,49044,0,0,0
8520,59138,48969,0,0,0
8469,59093,48892,0,0,0
8419,59049,48816,0,0,0
8369,59004,48744,0,0,0
8319,58957,48677,0,0,0
8271,58912,48615,0,0,0
8229,58873,48559,0,0,0
8189,58837,48509,0,0,0
8154,58806,48462,0,0,0
8126,58781,48420,0,0,0
8102,58764,48384,0,0,0
8082,58753,48358,0,0,0
8065,58747,48340,0,0,0
8054,58746,48329,0,0,0
8049,58751,48322,0,0,0
8048,58755,48317,0,0,0
8050,58755,48314,0,0,0
8053,58755,48314,0,0,0
8056,58756,48318,0,0,0
8057,58759,48324,0,0,0
8056,58761,48329,0,0,0
8052,58761,48330,0,0,0
8044,58756,48325,0,0,0
8031,58747,48312,0,0,0
8010,58735,48292,0,0,0
7987,58722,48264,0,0,0
7961,58705,48226,0,0,0
7933,58685,48181,0,0,0
7902,58660,48131,0,0,0
7866,58630,48077,0,0,0
7824,58594,48018,0,0,0
7774,58552,47956,0,0,0
7720,58506,47887,0,0,0
7664,58457,47813,0,0,0
7605,58407,47737,0,0,0
7545,58358,47661,0,0,0
7482,58307,47581,0,0,0
7418,58253,47499,0,0,0
7354,58197,47415,0,0,0
7289,58137,47332,0,0,0
7225,58078,47249,0,0,0
7163,58022,47166,0,0,0
7101,57966,47082,0,0,0
7041,57914,46998,0,0,0
6981,57867,46914,0,0,0
6922,57821,46834,0,0,0
6867,57776,46759,0,0,0
6814,57730,46687,0,0,0
6758,57682,46614,0,0,0
6701,57635,46542,0,0,0
6642,57591,46468,0,0,0
6582,57548,46393,0,0,0
6521,57508,46317,0,0,0
6462,57466,46241,0,0,0
6406,57424,46166,0,0,0
6354,57380,46093,0,0,0
6304,57336,46022,0,0,0
6258,57294,45954,0,0,0
6211,57251,45889,0,0,0
6164,57208,45826,0,0,0
6118,57164,45763,0,0,0
6073,57121,45702,0,0,0
6027,57079,45645,0,0,0
5983,57040,45591,0,0,0
5941,57006,45540,0,0,0
5905,56974,45490,0,0,0
5871,56941,45440,0,0,0
5839,56908,45389,0,0,0
5805,56879,45339,0,0,0
5769,56853,45290,0,0,0
5729,56826,45241,0,0,0
5689,56798,45192,0,0,0
5651,56770,45142,0,0,0
5615,56741,45088,0,0,0
5580,56713,45033,0,0,0
5543,56685,44977,0,0,0
5504,56656,44921,0,0,0
5464,56625,44864,0,0,0
5423,56590,44803,0,0,0
5378,56553,44739,0,0,0
5331,56515,44675,0,0,0
5282,56476,44612,0,0,0
5233,56435,44547,0,0,0
5183,56393,44480,0,0,0
5132,56349,44407,0,0,0
5079,56305,44330,0,0,0
5020,56259,44250,0,0,0
4957,56210,44167,0,0,0
4893,56159,44081,0,0,0
4828,56104,43993,0,0,0
4763,56049,43905,0,0,0
4698,55994,43818,0,0,0
4636,55938,43732,0,0,0
4574,55886,43650,0,0,0
4516,55839,43577,0,0,0
4463,55795,43511,0,0,0
4420,55759,43455,0,0,0
4388,55734,43415,0,0,0
4371,55725,43397,0,0,0
4378,55739,43408,0,0,0
4418,55778,43458,0,0,0
4495,55843,43556,0,0,0
4610,55937,43705,0,0,0
4764,56065,43908,0,0,0
4957,56226,44165,0,0,0
5186,56420,44472,0,0,0
5446,56641,44821,0,0,0
5726,56878,45198,0,0,0
6019,57125,45590,0,0,0
6314,57374,45985,0,0,0
6605,57618,46371,0,0,0
6887,57852,46739,0,0,0
7155,58071,47083,0,0,0
7400,58271,47396,0,0,0
7620,58452,47680,0,0,0
7816,58613,47933,0,0,0
7988,58753,48155,0,0,0
8134,58872,48345,0,0,0
8256,58971,48504,0,0,0
8356,59048,48635,0,0,0
8434,59107,48740,0,0,0
8491,59151,48820,0,0,0
8531,59181,48875,0,0,0
8555,59198,48909,0,0,0
8567,59208,48926,0,0,0
8569,59208,48929,0,0,0
8557,59200,48916,0,0,0
8539,59185,48894,0,0,0
8517,59166,48869,0,0,0
8492,59145,48840,0,0,0
8466,59125,48808,0,0,0
8442,59103,48776,0,0,0
8417,59081,48744,0,0,0
8389,59060,48715,0,0,0
8361,59041,48689,0,0,0
8337,59024,48662,0,0,0
8314,59005,48633,0,0,0
8289,58981,48603,0,0,0
8262,58954,48570,0,0,0
8233,58925,48533,0,0,0
8201,58894,48488,0,0,0
8166,58859,48434,0,0,0
8127,58821,48371,0,0,0
8086,58783,48303,0,0,0
8045,58743,48234,0,0,0
8002,58700,48166,0,0,0
7956,58659,48098,0,0,0
7907,58619,48030,0,0,0
7856,58578,47959,0,0,0
7806,58537,47884,0,0,0
7758,58497,47812,0,0,0
7713,58459,47746,0,0,0
7671,58424,47686,0,0,0
7630,58392,47633,0,0,0
7594,58364,47590,0,0,0
7567,58343,47558,0,0,0
7549,58330,47535,0,0,0
7539,58323,47517,0,0,0
7535,58319,47503,0,0,0
7533,58316,47493,0,0,0
7530,58314,47488,0,0,0
7530,58313,47489,0,0,0
7534,58314,47491,0,0,0
7540,58316,47495,0,0,0
7547,58318,47499,0,0,0
7555,58322,47503,0,0,0
7562,58326,47505,0,0,0
7564,58323,47503,0,0,0
7561,58315,47499,0,0,0
7556,58305,47491,0,0,0
7548,58295,47477,0,0,0
7535,58284,47456,0,0,0
7518,58270,47428,0,0,0
7497,58254,47394,0,0,0
7473,58236,47356,0,0,0
7444,58212,47313,0,0,0
7411,58184,47264,0,0,0
7375,58154,47213,0,0,0
7339,58121,47157,0,0,0
7297,58085,47097,0,0,0
7251,58046,47036,0,0,0
7206,58006,46975,0,0,0
7164,57966,46912,0,0,0
7122,57922,46846,0,0,0
7077,57877,46778,0,0,0
7028,57832,46709,0,0,0
6978,57787,46637,0,0,0
6927,57745,46563,0,0,0
6874,57700,46487,0,0,0
6820,57652,46411,0,0,0
6765,57603,46332,0,0,0
6709,57554,46253,0,0,0
6650,57508,46173,0,0,0
6593,57466,46093,0,0,0
6539,57424,46016,0,0,0
6484,57382,45942,0,0,0
6430,57338,45871,0,0,0
6381,57297,45804,0,0,0
6335,57256,45739,0,0,0
6293,57214,45675,0,0,0
6252,57169,45611,0,0,0
6211,57125,45550,0,0,0
6169,57084,45491,0,0,0
6127,57048,45435,0,0,0
6085,57014,45379,0,0,0
6044,56980,45323,0,0,0
6003,56945,45267,0,0,0
5961,56911,45210,0,0,0
5920,56879,45153,0,0,0
5881,56848,45095,0,0,0
5843,56819,45039,0,0,0
5806,56792,44985,0,0,0
5770,56764,44934,0,0,0
5736,56734,44886,0,0,0
5703,56701,44840,0,0,0
5670,56669,44794,0,0,0
5636,56641,44747,0,0,0
5604,56617,44700,0,0,0
5574,56595,44655,0,0,0
5544,56573,44611,0,0,0
5512,56549,44564,0,0,0
5479,56523,44515,0,0,0
5444,56495,44466,0,0,0
5410,56465,44417,0,0,0
5377,56435,44365,0,0,0
5343,56405,44311,0,0,0
5305,56373,44253,0,0,0
5261,56341,44192,0,0,0
5213,56307,44128,0,0,0
5162,56270,44059,0,0,0
5111,56227,43987,0,0,0
5060,56179,43911,0,0,0
5011,56125,43834,0,0,0
4961,56071,43755,0,0,0
4906,56018,43678,0,0,0
4848,55967,43601,0,0,0
4791,55918,43524,0,0,0
4736,55871,43447,0,0,0
4679,55820,43371,0,0,0
4622,55769,43297,0,0,0
4572,55725,43223,0,0,0
4527,55688,43153,0,0,0
4485,55655,43092,0,0,0
4449,55625,43041,0,0,0
4422,55603,43000,0,0,0
4409,55591,42975,0,0,0
4415,55596,42976,0,0,0
4447,55626,43015,0,0,0
4514,55685,43102,0,0,0
4621,55775,43243,0,0,0
4772,55897,43437,0,0,0
4962,56052,43684,0,0,0
5189,56238,43981,0,0,0
5444,56450,44316,0,0,0
5717,56679,44680,0,0,0
6003,56918,45062,0,0,0
6296,57163,45452,0,0,0
6590,57405,45842,0,0,0
6878,57644,46222,0,0,0
7153,57873,46582,0,0,0
7410,58088,46918,0,0,0
7644,58284,47230,0,0,0
7856,58459,47516,0,0,0
8046,58614,47774,0,0,0
8212,58748,48000,0,0,0
8354,58865,48195,0,0,0
8474,58965,48358,0,0,0
8576,59049,48495,0,0,0
8663,59118,48610,0,0,0
8735,59173,48707,0,0,0
8791,59217,48782,0,0,0
8834,59251,48836,0,0,0
8865,59276,48872,0,0,0
8882,59291,48895,0,0,0
8887,59296,48905,0,0,0
8888,59297,48908,0,0,0
8886,59293,48903,0,0,0
8878,59284,48894,0,0,0
8864,59270,48882,0,0,0
8851,59255,48870,0,0,0
8840,59241,48857,0,0,0
8829,59227,48843,0,0,0
8816,59216,48829,0,0,0
8807,59210,48817,0,0,0
8804,59208,48808,0,0,0
8801,59209,48800,0,0,0
8798,59207,48789,0,0,0
8796,59202,48774,0,0,0
8792,59192,48757,0,0,0
8781,59176,48735,0,0,0
8763,59154,48706,0,0,0
8738,59128,48671,0,0,0
8708,59100,48629,0,0,0
8673,59068,48585,0,0,0
8636,59034,48537,0,0,0
8597,58999,48486,0,0,0
8557,58963,48431,0,0,0
8517,58927,48376,0,0,0
8478,58891,48319,0,0,0
8441,58856,48261,0,0,0
8405,58822,48203,0,0,0
8369,58790,48147,0,0,0
8337,58764,48095,0,0,0
8308,58745,48050,0,0,0
8282,58730,48014,0,0,0
8263,58719,47989,0,0,0
8251,58714,47972,0,0,0
8246,58713,47959,0,0,0
8245,58713,47950,0,0,0
8246,58714,47943,0,0,0
8246,58714,47936,0,0,0
8247,58716,47929,0,0,0
8247,58717,47922,0,0,0
8243,58716,47915,0,0,0
8240,58714,47907,0,0,0
8235,58708,47897,0,0,0
8227,58696,47885,0,0,0
8219,58680,47873,0,0,0
8213,58663,47858,0,0,0
8202,58647,47841,0,0,0
8185,58630,47821,0,0,0
8165,58611,47800,0,0,0
8145,58594,47775,0,0,0
8121,58576,47744,0,0,0
8094,58553,47709,0,0,0
8068,58530,47674,0,0,0
8047,58507,47638,0,0,0
8023,58482,47599,0,0,0
7996,58455,47554,0,0,0
7965,58426,47504,0,0,0
7930,58396,47450,0,0,0
7890,58361,47387,0,0,0
7844,58321,47319,0,0,0
7797,58279,47248,0,0,0
7752,58239,47179,0,0,0
7707,58198,47113,0,0,0
7660,58158,47050,0,0,0
7614,58117,46991,0,0,0
7573,58078,46933,0,0,0
7533,58040,46874,0,0,0
7492,58003,46814,0,0,0
7452,57972,46756,0,0,0
7415,57943,46700,0,0,0
7378,57913,46644,0,0,0
7341,57881,46588,0,0,0
7305,57848,46533,0,0,0
7271,57815,46480,0,0,0
7236,57782,46427,0,0,0
7198,57746,46373,0,0,0
7159,57708,46315,0,0,0
7119,57669,46256,0,0,0
7079,57631,46199,0,0,0
7037,57594,46144,0,0,0
6996,57561,46090,0,0,0
6958,57530,46038,0,0,0
6920,57499,45986,0,0,0
6884,57469,45932,0,0,0
6853,57440,45879,0,0,0
6824,57413,45830,0,0,0
6794,57386,45782,0,0,0
6760,57359,45731,0,0,0
6726,57332,45681,0,0,0
6692,57306,45634,0,0,0
6660,57284,45590,0,0,0
6628,57265,45549,0,0,0
6600,57245,45507,0,0,0
6571,57221,45464,0,0,0
6540,57195,45419,0,0,0
6507,57169,45371,0,0,0
6476,57145,45325,0,0,0
6447,57124,45280,0,0,0
6418,57103,45236,0,0,0
6390,57081,45190,0,0,0
6360,57054,45139,0,0,0
6326,57022,45086,0,0,0
6290,56985,45035,0,0,0
6255,56946,44986,0,0,0
6219,56908,44936,0,0,0
6181,56873,44883,0,0,0
6141,56837,44827,0,0,0
6101,56802,44770,0,0,0
6059,56766,44712,0,0,0
6013,56727,44652,0,0,0
5961,56683,44593,0,0,0
5907,56639,44532,0,0,0
5854,56594,44467,0,0,0
5800,56546,44399,0,0,0
5746,56498,44327,0,0,0
5692,56453,44252,0,0,0
5640,56411,44177,0,0,0
5590,56369,44103,0,0,0
5543,56327,44032,0,0,0
5500,56288,43963,0,0,0
5462,56253,43901,0,0,0
5430,56226,43853,0,0,0
5410,56213,43826,0,0,0
5409,56217,43825,0,0,0
5431,56241,43858,0,0,0
5479,56288,43931,0,0,0
5558,56359,44045,0,0,0
5675,56459,44204,0,0,0
5830,56589,44412,0,0,0
6019,56750,44665,0,0,0
6237,56938,44958,0,0,0
6476,57148,45285,0,0,0
6732,57370,45633,0,0,0
6999,57598,45995,0,0,0
7269,57826,46359,0,0,0
7539,58049,46717,0,0,0
7803,58265,47065,0,0,0
8057,58472,47399,0,0,0
8297,58667,47710,0,0,0
8519,58847,47995,0,0,0
8720,59008,48255,0,0,0
8898,59148,48490,0,0,0
9054,59269,48698,0,0,0
9190,59376,48874,0,0,0
9302,59467,49019,0,0,0
9394,59538,49138,0,0,0
9468,59595,49235,0,0,0
9528,59640,49313,0,0,0
9573,59676,49379,0,0,0
9605,59703,49432,0,0,0
9628,59723,49470,0,0,0
9642,59736,49500,0,0,0
9650,59745,49521,0,0,0
9654,59750,49534,0,0,0
9654,59751,49541,0,0,0
9655,59752,49546,0,0,0
9655,59754,49548,0,0,0
9655,59757,49547,0,0,0
9655,59758,49547,0,0,0
9656,59758,49548,0,0,0
9656,59754,49547,0,0,0
9658,59750,49543,0,0,0
9662,59747,49539,0,0,0
9666,59742,49537,0,0,0
9669,59736,49534,0,0,0
9671,59728,49528,0,0,0
9669,59720,49517,0,0,0
9664,59710,49502,0,0,0
9654,59699,49480,0,0,0
9642,59686,49450,0,0,0
9626,59670,49415,0,0,0
9605,59645,49374,0,0,0
9575,59610,49326,0,0,0
9538,59575,49273,0,0,0
9498,59541,49219,0,0,0
9457,59508,49165,0,0,0
9415,59475,49114,0,0,0
9373,59444,49064,0,0,0
9332,59414,49013,0,0,0
9288,59385,48961,0,0,0
9247,59353,48909,0,0,0
9211,59323,48863,0,0,0
9184,59297,48825,0,0,0
9163,59276,48793,0,0,0
9145,59257,48768,0,0,0
9133,59243,48749,0,0,0
9126,59237,48737,0,0,0
9123,59234,48731,0,0,0
9122,59233,48729,0,0,0
9121,59234,48728,0,0,0
9121,59235,48725,0,0,0
9122,59236,48721,0,0,0
9124,59238,48716,0,0,0
9127,59239,48709,0,0,0
9130,59236,48701,0,0,0
9130,59226,48692,0,0,0
9126,59212,48680,0,0,0
9122,59199,48662,0,0,0
9116,59186,48643,0,0,0
9106,59173,48621,0,0,0
9092,59159,48593,0,0,0
9075,59144,48558,0,0,0
9054,59129,48520,0,0,0
9030,59111,48480,0,0,0
9005,59092,48437,0,0,0
8979,59071,48393,0,0,0
8950,59046,48347,0,0,0
8913,59018,48300,0,0,0
8870,58987,48249,0,0,0
8829,58956,48193,0,0,0
8791,58924,48136,0,0,0
8753,58890,48078,0,0,0
8715,58854,48019,0,0,0
8676,58819,47963,0,0,0
8635,58785,47906,0,0,0
8591,58749,47849,0,0,0
8549,58711,47792,0,0,0
8510,58673,47737,0,0,0
8473,58634,47683,0,0,0
8434,58595,47631,0,0,0
8397,58561,47578,0,0,0
8361,58530,47527,0,0,0
8325,58498,47475,0,0,0
8290,58467,47423,0,0,0
8253,58437,47370,0,0,0
8216,58409,47317,0,0,0
8180,58381,47265,0,0,0
8145,58353,47214,0,0,0
8110,58326,47164,0,0,0
8074,58295,47115,0,0,0
8036,58261,47066,0,0,0
7998,58228,47019,0,0,0
7966,58199,46973,0,0,0
7939,58171,46930,0,0,0
7912,58141,46886,0,0,0
7883,58111,46841,0,0,0
7851,58080,46795,0,0,0
7819,58049,46748,0,0,0
7784,58018,46700,0,0,0
7744,57989,46654,0,0,0
7702,57963,46611,0,0,0
7661,57937,46568,0,0,0
7623,57909,46522,0,0,0
7587,57882,46478,0,0,0
7552,57857,46435,0,0,0
7517,57831,46390,0,0,0
7482,57804,46344,0,0,0
7448,57777,46299,0,0,0
7413,57748,46256,0,0,0
7379,57717,46215,0,0,0
7344,57685,46174,0,0,0
7308,57654,46131,0,0,0
7271,57622,46082,0,0,0
7232,57588,46028,0,0,0
7190,57554,45971,0,0,0
7149,57518,45912,0,0,0
7107,57480,45852,0,0,0
7063,57442,45795,0,0,0
7019,57405,45738,0,0,0
6976,57369,45678,0,0,0
6935,57334,45614,0,0,0
6890,57295,45544,0,0,0
6837,57250,45468,0,0,0
6780,57201,45389,0,0,0
6720,57150,45308,0,0,0
6657,57099,45229,0,0,0
6592,57047,45153,0,0,0
6531,56997,45078,0,0,0
6472,56949,45003,0,0,0
6416,56902,44930,0,0,0
6364,56858,44859,0,0,0
6314,56819,44794,0,0,0
6271,56785,44737,0,0,0
6236,56758,44694,0,0,0
6216,56742,44669,0,0,0
6215,56744,44670,0,0,0
6236,56768,44700,0,0,0
6280,56813,44764,0,0,0
6353,56882,44865,0,0,0
6460,56976,45010,0,0,0
6599,57098,45199,0,0,0
6767,57245,45430,0,0,0
6962,57415,45699,0,0,0
7179,57606,45997,0,0,0
7412,57811,46318,0,0,0
7657,58023,46650,0,0,0
7906,58237,46986,0,0,0
8152,58448,47319,0,0,0
8389,58653,47645,0,0,0
8616,58849,47957,0,0,0
8828,59031,48254,0,0,0
9025,59198,48532,0,0,0
9206,59347,48784,0,0,0
9366,59477,49007,0,0,0
9507,59592,49206,0,0,0
9630,59693,49378,0,0,0
9735,59780,49524,0,0,0
9824,59853,49643,0,0,0
9900,59913,49738,0,0,0
9961,59962,49814,0,0,0
10008,60000,49876,0,0,0
10041,60027,49921,0,0,0
10062,60044,49951,0,0,0
10074,60053,49971,0,0,0
10077,60056,49983,0,0,0
10073,60054,49987,0,0,0
10068,60051,49985,0,0,0
10063,60046,49981,0,0,0
10056,60040,49977,0,0,0
10047,60031,49972,0,0,0
10040,60023,49966,0,0,0
10037,60016,49962,0,0,0
10032,60009,49959,0,0,0
10026,60002,49955,0,0,0
10020,59996,49949,0,0,0
10012,59990,49939,0,0,0
10000,59980,49924,0,0,0
9984,59967,49905,0,0,0
9964,59952,49880,0,0,0
9942,59935,49850,0,0,0
9913,59916,49816,0,0,0
9881,59895,49777,0,0,0
9847,59871,49732,0,0,0
9812,59843,49681,0,0,0
9774,59809,49627,0,0,0
9735,59772,49573,0,0,0
9696,59732,49517,0,0,0
9655,59691,49459,0,0,0
9609,59647,49399,0,0,0
9562,59603,49338,0,0,0
9518,59564,49280,0,0,0
9477,59529,49228,0,0,0
9439,59498,49180,0,0,0
9408,59471,49136,0,0,0
9385,59448,49098,0,0,0
9367,59428,49067,0,0,0
9351,59412,49042,0,0,0
9338,59399,49022,0,0,0
9328,59393,49006,0,0,0
9320,59387,48996,0,0,0
9313,59382,48991,0,0,0
9306,59377,48987,0,0,0
9299,59372,48981,0,0,0
9294,59368,48977,0,0,0
9291,59365,48973,0,0,0
9289,59364,48966,0,0,0
9286,59363,48957,0,0,0
9279,59359,48944,0,0,0
9269,59351,48927,0,0,0
9256,59343,48908,0,0,0
9242,59333,48887,0,0,0
9224,59321,48865,0,0,0
9201,59305,48841,0,0,0
9176,59285,48813,0,0,0
9148,59260,48781,0,0,0
9117,59230,48745,0,0,0
9083,59196,48700,0,0,0
9044,59162,48646,0,0,0
9001,59125,48586,0,0,0
8954,59086,48522,0,0,0
8906,59044,48456,0,0,0
8857,59003,48392,0,0,0
8804,58963,48329,0,0,0
8750,58926,48267,0,0,0
8696,58890,48205,0,0,0
8645,58855,48139,0,0,0
8596,58818,48072,0,0,0
8546,58779,48007,0,0,0
8495,58740,47940,0,0,0
8446,58698,47871,0,0,0
8399,58655,47803,0,0,0
8352,58611,47736,0,0,0
8301,58566,47668,0,0,0
8249,58525,47601,0,0,0
8198,58487,47535,0,0,0
8148,58449,47474,0,0,0
8100,58411,47416,0,0,0
8052,58374,47357,0,0,0
8007,58337,47299,0,0,0
7964,58303,47242,0,0,0
7924,58272,47185,0,0,0
7884,58246,47129,0,0,0
7844,58222,47077,0,0,0
7804,58196,47026,0,0,0
7763,58167,46971,0,0,0
7721,58136,46914,0,0,0
7681,58104,46859,0,0,0
7642,58072,46806,0,0,0
7604,58038,46754,0,0,0
7564,58001,46702,0,0,0
7524,57963,46649,0,0,0
7481,57923,46595,0,0,0
7436,57883,46543,0,0,0
7393,57845,46495,0,0,0
7351,57811,46448,0,0,0
7310,57779,46403,0,0,0
7272,57752,46359,0,0,0
7236,57726,46318,0,0,0
7202,57699,46274,0,0,0
7166,57671,46227,0,0,0
7130,57642,46177,0,0,0
7090,57612,46123,0,0,0
7047,57578,46066,0,0,0
7003,57542,46008,0,0,0
6958,57506,45950,0,0,0
6912,57470,45891,0,0,0
6862,57434,45831,0,0,0
6810,57396,45767,0,0,0
6757,57357,45700,0,0,0
6702,57312,45629,0,0,0
6645,57263,45555,0,0,0
6584,57214,45480,0,0,0
6524,57166,45405,0,0,0
6464,57117,45327,0,0,0
6404,57069,45248,0,0,0
6343,57018,45168,0,0,0
6283,56967,45088,0,0,0
6224,56917,45011,0,0,0
6169,56869,44940,0,0,0
6122,56829,44877,0,0,0
6085,56799,44826,0,0,0
6060,56777,44789,0,0,0
6050,56768,44773,0,0,0
6062,56777,44788,0,0,0
6101,56810,44842,0,0,0
6169,56869,44943,0,0,0
6270,56956,45090,0,0,0
6406,57074,45280,0,0,0
6578,57224,45512,0,0,0
6780,57404,45787,0,0,0
7007,57606,46096,0,0,0
7251,57825,46428,0,0,0
7505,58053,46776,0,0,0
7767,58285,47133,0,0,0
8028,58514,47488,0,0,0
8282,58734,47833,0,0,0
8527,58941,48159,0,0,0
8756,59132,48462,0,0,0
8965,59307,48741,0,0,0
9152,59465,48993,0,0,0
9318,59603,49218,0,0,0
9461,59721,49414,0,0,0
9583,59819,49580,0,0,0
9684,59900,49717,0,0,0
9763,59963,49825,0,0,0
9822,60011,49910,0,0,0
9865,60048,49974,0,0,0
9897,60073,50019,0,0,0
9916,60085,50048,0,0,0
9925,60088,50063,0,0,0
9927,60083,50066,0,0,0
9925,60074,50058,0,0,0
9918,60059,50044,0,0,0
9904,60039,50024,0,0,0
9884,60021,50001,0,0,0
9863,60005,49982,0,0,0
9843,59990,49965,0,0,0
9820,59975,49947,0,0,0
9794,59960,49927,0,0,0
9771,59946,49906,0,0,0
9750,59932,49886,0,0,0
9729,59918,49866,0,0,0
9706,59904,49841,0,0,0
9681,59885,49812,0,0,0
9654,59861,49778,0,0,0
9626,59833,49738,0,0,0
9595,59804,49690,0,0,0
9560,59772,49639,0,0,0
9522,59736,49584,0,0,0
9480,59698,49525,0,0,0
9435,59659,49459,0,0,0
9389,59621,49389,0,0,0
9339,59582,49318,0,0,0
9286,59543,49246,0,0,0
9236,59507,49176,0,0,0
9191,59475,49112,0,0,0
9150,59444,49057,0,0,0
9115,59414,49011,0,0,0
9085,59385,48973,0,0,0
9061,59365,48942,0,0,0
9043,59352,48920,0,0,0
9030,59346,48907,0,0,0
9024,59347,48904,0,0,0
9024,59352,48904,0,0,0
9029,59357,48906,0,0,0
9036,59362,48909,0,0,0
9048,59369,48916,0,0,0
9061,59377,48926,0,0,0
9073,59387,48937,0,0,0
9082,59399,48949,0,0,0
9091,59409,48961,0,0,0
9098,59413,48967,0,0,0
9101,59411,48969,0,0,0
9101,59407,48966,0,0,0
9099,59402,48960,0,0,0
9091,59395,48952,0,0,0
9076,59383,48940,0,0,0
9056,59365,48923,0,0,0
9038,59347,48900,0,0,0
9020,59330,48871,0,0,0
8997,59307,48835,0,0,0
8968,59279,48791,0,0,0
8934,59246,48739,0,0,0
8895,59213,48683,0,0,0
8851,59176,48624,0,0,0
8806,59138,48565,0,0,0
8759,59100,48502,0,0,0
8710,59063,48438,0,0,0
8659,59027,48372,0,0,0
8607,58989,48303,0,0,0
8554,58947,48228,0,0,0
8500,58899,48149,0,0,0
8447,58849,48070,0,0,0
8398,58799,47994,0,0,0
8350,58752,47921,0,0,0
8303,58704,47850,0,0,0
8256,58658,47782,0,0,0
8211,58615,47717,0,0,0
8166,58575,47656,0,0,0
8118,58536,47596,0,0,0
8072,58497,47537,0,0,0
8031,58462,47479,0,0,0
7993,58427,47424,0,0,0
7956,58391,47372,0,0,0
7920,58355,47320,0,0,0
7885,58320,47269,0,0,0
7849,58287,47218,0,0,0
7813,58256,47168,0,0,0
7778,58226,47117,0,0,0
7744,58196,47066,0,0,0
7711,58169,47018,0,0,0
7675,58143,46971,0,0,0
7637,58120,46923,0,0,0
7602,58101,46877,0,0,0
7568,58082,46835,0,0,0
7534,58062,46797,0,0,0
7503,58041,46760,0,0,0
7472,58022,46721,0,0,0
7441,58000,46679,0,0,0
7412,57977,46637,0,0,0
7384,57950,46593,0,0,0
7358,57922,46548,0,0,0
7329,57892,46505,0,0,0
7298,57859,46463,0,0,0
7268,57826,46421,0,0,0
7235,57792,46376,0,0,0
7197,57756,46328,0,0,0
7157,57719,46275,0,0,0
7112,57681,46219,0,0,0
7063,57645,46156,0,0,0
7011,57610,46088,0,0,0
6958,57572,46017,0,0,0
6905,57530,45944,0,0,0
6849,57486,45871,0,0,0
6793,57440,45796,0,0,0
6737,57394,45721,0,0,0
6682,57350,45645,0,0,0
6627,57308,45570,0,0,0
6571,57264,45496,0,0,0
6521,57221,45425,0,0,0
6480,57183,45361,0,0,0
6446,57151,45310,0,0,0
6423,57130,45277,0,0,0
6416,57122,45265,0,0,0
6431,57133,45283,0,0,0
6475,57167,45337,0,0,0
6546,57226,45431,0,0,0
6646,57312,45566,0,0,0
6778,57426,45743,0,0,0
6940,57567,45964,0,0,0
7130,57733,46226,0,0,0
7343,57919,46521,0,0,0
7571,58119,46836,0,0,0
7809,58327,47163,0,0,0
8052,58537,47493,0,0,0
8295,58743,47820,0,0,0
8536,58942,48139,0,0,0
8768,59131,48449,0,0,0
8990,59310,48747,0,0,0
9201,59477,49027,0,0,0
9396,59630,49284,0,0,0
9572,59768,49516,0,0,0
9729,59891,49724,0,0,0
9866,59998,49906,0,0,0
9983,60089,50060,0,0,0
10079,60164,50187,0,0,0
10153,60225,50291,0,0,0
10207,60272,50375,0,0,0
10245,60307,50438,0,0,0
10272,60330,50483,0,0,0
10290,60344,50512,0,0,0
10301,60352,50527,0,0,0
10305,60355,50530,0,0,0
10301,60353,50525,0,0,0
10291,60345,50511,0,0,0
10278,60334,50494,0,0,0
10267,60321,50476,0,0,0
10255,60310,50460,0,0,0
10243,60302,50444,0,0,0
10233,60298,50431,0,0,0
10223,60293,50418,0,0,0
10213,60287,50402,0,0,0
10200,60277,50380,0,0,0
10186,60264,50355,0,0,0
10170,60247,50328,0,0,0
10153,60228,50298,0,0,0
10133,60209,50266,0,0,0
10109,60187,50231,0,0,0
10082,60161,50192,0,0,0
10049,60130,50145,0,0,0
10010,60096,50092,0,0,0
9967,60061,50034,0,0,0
9919,60023,49971,0,0,0
9868,59979,49904,0,0,0
9816,59933,49833,0,0,0
9763,59887,49761,0,0,0
9713,59846,49692,0,0,0
9668,59811,49630,0,0,0
9631,59781,49577,0,0,0
9603,59755,49533,0,0,0
9580,59733,49499,0,0,0
9562,59717,49474,0,0,0
9549,59706,49455,0,0,0
9540,59701,49440,0,0,0
9535,59701,49430,0,0,0
9533,59702,49424,0,0,0
9534,59706,49420,0,0,0
9535,59711,49418,0,0,0
9536,59715,49418,0,0,0
9535,59717,49422,0,0,0
9533,59718,49426,0,0,0
9529,59718,49429,0,0,0
9521,59713,49426,0,0,0
9512,59703,49418,0,0,0
9503,59690,49405,0,0,0
9495,59673,49388,0,0,0
9485,59652,49368,0,0,0
9473,59630,49344,0,0,0
9460,59609,49317,0,0,0
9445,59590,49288,0,0,0
9424,59571,49254,0,0,0
9401,59552,49215,0,0,0
9375,59533,49170,0,0,0
9346,59515,49120,0,0,0
9313,59494,49065,0,0,0
9278,59468,49007,0,0,0
9237,59437,48949,0,0,0
9192,59402,48890,0,0,0
9144,59363,48826,0,0,0
9096,59319,48760,0,0,0
9049,59273,48693,0,0,0
9000,59226,48623,0,0,0
8949,59179,48552,0,0,0
8897,59132,48480,0,0,0
8846,59085,48410,0,0,0
8797,59039,48343,0,0,0
8751,58994,48278,0,0,0
8704,58953,48214,0,0,0
8659,58916,48150,0,0,0
8612,58879,48088,0,0,0
8564,58838,48027,0,0,0
8515,58796,47967,0,0,0
8469,58758,47909,0,0,0
8424,58722,47855,0,0,0
8379,58688,47803,0,0,0
8337,58654,47749,0,0,0
8298,58623,47695,0,0,0
8260,58591,47640,0,0,0
8223,58558,47583,0,0,0
8187,58525,47526,0,0,0
8152,58492,47469,0,0,0
8117,58459,47416,0,0,0
8082,58426,47366,0,0,0
8050,58392,47321,0,0,0
8020,58358,47280,0,0,0
7989,58326,47241,0,0,0
7958,58296,47201,0,0,0
7927,58266,47158,0,0,0
7893,58236,47113,0,0,0
7860,58208,47067,0,0,0
7827,58183,47021,0,0,0
7798,58163,46978,0,0,0
7772,58144,46934,0,0,0
7745,58126,46889,0,0,0
7718,58107,46843,0,0,0
7692,58088,46798,0,0,0
7664,58064,46748,0,0,0
7630,58033,46694,0,0,0
7594,57998,46637,0,0,0
7556,57963,46577,0,0,0
7516,57927,46516,0,0,0
7473,57890,46455,0,0,0
7426,57852,46395,0,0,0
7378,57812,46334,0,0,0
7329,57771,46274,0,0,0
7278,57729,46213,0,0,0
7228,57687,46150,0,0,0
7179,57646,46084,0,0,0
7132,57605,46018,0,0,0
7084,57566,45952,0,0,0
7035,57527,45888,0,0,0
6985,57486,45824,0,0,0
6934,57445,45758,0,0,0
6886,57407,45696,0,0,0
6848,57375,45643,0,0,0
6825,57354,45607,0,0,0
6818,57347,45596,0,0,0
6829,57360,45616,0,0,0
6867,57399,45670,0,0,0
6939,57466,45767,0,0,0
7048,57559,45912,0,0,0
7196,57680,46103,0,0,0
7377,57830,46339,0,0,0
7587,58004,46615,0,0,0
7819,58197,46922,0,0,0
8068,58406,47256,0,0,0
8327,58625,47608,0,0,0
8588,58849,47972,0,0,0
8849,59075,48338,0,0,0
9107,59296,48699,0,0,0
9358,59511,49048,0,0,0
9598,59718,49378,0,0,0
9822,59913,49687,0,0,0
10032,60091,49972,0,0,0
10225,60253,50230,0,0,0
10399,60396,50459,0,0,0
10550,60518,50657,0,0,0
10680,60618,50825,0,0,0
10792,60700,50967,0,0,0
10884,60767,51086,0,0,0
10958,60822,51184,0,0,0
11016,60863,51262,0,0,0
11062,60895,51326,0,0,0
11096,60919,51375,0,0,0
11119,60935,51410,0,0,0
11135,60947,51436,0,0,0
11149,60956,51454,0,0,0
11163,60962,51467,0,0,0
11172,60964,51476,0,0,0
11178,60964,51482,0,0,0
11182,60964,51486,0,0,0
11185,60963,51490,0,0,0
11188,60962,51496,0,0,0
11192,60964,51506,0,0,0
11200,60970,51516,0,0,0
11206,60974,51524,0,0,0
11208,60974,51529,0,0,0
11209,60974,51531,0,0,0
11209,60973,51529,0,0,0
11207,60971,51523,0,0,0
11199,60964,51510,0,0,0
11188,60955,51488,0,0,0
11173,60943,51456,0,0,0
11153,60922,51415,0,0,0
11126,60893,51367,0,0,0
11091,60859,51314,0,0,0
11050,60825,51258,0,0,0
11003,60787,51199,0,0,0
10952,60746,51135,0,0,0
10903,60705,51069,0,0,0
10858,60667,51006,0,0,0
10816,60631,50949,0,0,0
10778,60597,50897,0,0,0
10745,60565,50849,0,0,0
10716,60538,50804,0,0,0
10690,60517,50769,0,0,0
10666,60500,50741,0,0,0
10645,60486,50719,0,0,0
10628,60473,50700,0,0,0
10613,60460,50685,0,0,0
10602,60451,50673,0,0,0
10594,60445,50665,0,0,0
10589,60441,50659,0,0,0
10585,60437,50653,0,0,0
10581,60433,50645,0,0,0
10577,60430,50638,0,0,0
10576,60425,50634,0,0,0
10575,60420,50628,0,0,0
10573,60416,50616,0,0,0
10570,60411,50598,0,0,0
10563,60404,50576,0,0,0
10554,60394,50553,0,0,0
10542,60382,50530,0,0,0
10526,60370,50504,0,0,0
10505,60355,50474,0,0,0
10481,60336,50439,0,0,0
10455,60314,50398,0,0,0
10425,60288,50354,0,0,0
10391,60256,50307,0,0,0
10354,60219,50254,0,0,0
10315,60182,50194,0,0,0
10274,60146,50134,0,0,0
10231,60110,50074,0,0,0
10187,60074,50014,0,0,0
10142,60039,49953,0,0,0
10094,60000,49889,0,0,0
10041,59955,49824,0,0,0
9988,59909,49758,0,0,0
9935,59867,49692,0,0,0
9886,59827,49628,0,0,0
9839,59788,49566,0,0,0
9793,59747,49504,0,0,0
9752,59706,49441,0,0,0
9710,59667,49378,0,0,0
9666,59628,49314,0,0,0
9622,59588,49251,0,0,0
9580,59553,49189,0,0,0
9538,59522,49129,0,0,0
9494,59491,49073,0,0,0
9454,59460,49020,0,0,0
9416,59427,48966,0,0,0
9377,59391,48909,0,0,0
9335,59356,48851,0,0,0
9293,59326,48795,0,0,0
9254,59301,48744,0,0,0
9218,59275,48699,0,0,0
9180,59244,48656,0,0,0
9140,59210,48611,0,0,0
9101,59175,48566,0,0,0
9064,59143,48519,0,0,0
9026,59109,48471,0,0,0
8992,59077,48424,0,0,0
8963,59046,48378,0,0,0
8935,59018,48332,0,0,0
8904,58993,48288,0,0,0
8873,58971,48246,0,0,0
8844,58949,48203,0,0,0
8816,58925,48161,0,0,0
8789,58900,48117,0,0,0
8762,58875,48070,0,0,0
8734,58850,48019,0,0,0
8702,58824,47966,0,0,0
8665,58794,47910,0,0,0
8621,58760,47850,0,0,0
8571,58721,47787,0,0,0
8515,58677,47719,0,0,0
8455,58631,47651,0,0,0
8396,58585,47582,0,0,0
8341,58540,47514,0,0,0
8284,58495,47445,0,0,0
8227,58452,47376,0,0,0
8174,58409,47306,0,0,0
8125,58368,47237,0,0,0
8078,58327,47172,0,0,0
8034,58286,47111,0,0,0
7994,58250,47055,0,0,0
7959,58219,47006,0,0,0
7930,58194,46966,0,0,0
7911,58178,46940,0,0,0
7908,58175,46932,0,0,0
7920,58186,46947,0,0,0
7950,58214,46991,0,0,0
8005,58266,47072,0,0,0
8091,58343,47191,0,0,0
8210,58445,47352,0,0,0
8358,58573,47555,0,0,0
8533,58725,47797,0,0,0
8730,58899,48069,0,0,0
8947,59090,48367,0,0,0
9178,59294,48684,0,0,0
9419,59505,49012,0,0,0
9661,59716,49340,0,0,0
9899,59923,49666,0,0,0
10129,60124,49985,0,0,0
10351,60313,50293,0,0,0
10561,60489,50582,0,0,0
10757,60649,50848,0,0,0
10937,60794,51086,0,0,0
11101,60923,51297,0,0,0
11245,61033,51482,0,0,0
11365,61122,51641,0,0,0
11463,61193,51775,0,0,0
11544,61252,51884,0,0,0
11610,61300,51972,0,0,0
11661,61338,52043,0,0,0
11698,61367,52098,0,0,0
11726,61389,52140,0,0,0
11747,61406,52168,0,0,0
11760,61416,52187,0,0,0
11769,61418,52197,0,0,0
11772,61418,52202,0,0,0
11770,61417,52207,0,0,0
11767,61414,52212,0,0,0
11761,61408,52213,0,0,0
11754,61399,52211,0,0,0
11749,61391,52209,0,0,0
11746,61383,52204,0,0,0
11742,61379,52196,0,0,0
11736,61377,52185,0,0,0
11726,61376,52172,0,0,0
11715,61373,52160,0,0,0
11701,61367,52147,0,0,0
11683,61356,52133,0,0,0
11662,61340,52115,0,0,0
11636,61319,52088,0,0,0
11604,61296,52052,0,0,0
11565,61269,52008,0,0,0
11520,61237,51959,0,0,0
11471,61199,51903,0,0,0
11421,61158,51840,0,0,0
11368,61117,51768,0,0,0
11313,61072,51693,0,0,0
11258,61026,51615,0,0,0
11203,60982,51536,0,0,0
11152,60941,51459,0,0,0
11106,60904,51393,0,0,0
11066,60868,51336,0,0,0
11030,60835,51285,0,0,0
10998,60808,51241,0,0,0
10969,60784,51204,0,0,0
10944,60761,51173,0,0,0
10924,60741,51151,0,0,0
10909,60726,51138,0,0,0
10899,60715,51129,0,0,0
10889,60706,51123,0,0,0
10879,60697,51116,0,0,0
10871,60692,51105,0,0,0
10865,60688,51092,0,0,0
10858,60685,51076,0,0,0
10849,60681,51057,0,0,0
10839,60674,51037,0,0,0
10829,60662,51016,0,0,0
10816,60646,50996,0,0,0
10800,60626,50976,0,0,0
10780,60602,50953,0,0,0
10756,60574,50925,0,0,0
10725,60549,50894,0,0,0
10692,60526,50858,0,0,0
10659,60504,50817,0,0,0
10624,60481,50771,0,0,0
10589,60457,50721,0,0,0
10552,60431,50669,0,0,0
10513,60398,50613,0,0,0
10470,60357,50551,0,0,0
10424,60312,50485,0,0,0
10375,60264,50415,0,0,0
10321,60215,50343,0,0,0
10263,60165,50270,0,0,0
10206,60116,50197,0,0,0
10152,60071,50124,0,0,0
10097,60028,50053,0,0,0
10039,59987,49982,0,0,0
9983,59944,49912,0,0,0
9929,59902,49843,0,0,0
9880,59865,49776,0,0,0
9834,59832,49712,0,0,0
9787,59798,49650,0,0,0
9739,59763,49589,0,0,0
9691,59725,49528,0,0,0
9646,59685,49470,0,0,0
9604,59646,49414,0,0,0
9565,59609,49358,0,0,0
9527,59573,49306,0,0,0
9487,59536,49255,0,0,0
9447,59500,49205,0,0,0
9408,59466,49155,0,0,0
9372,59434,49107,0,0,0
9335,59403,49063,0,0,0
9297,59374,49019,0,0,0
9257,59347,48971,0,0,0
9216,59321,48922,0,0,0
9178,59296,48872,0,0,0
9140,59269,48822,0,0,0
9100,59241,48769,0,0,0
9058,59213,48715,0,0,0
9017,59184,48662,0,0,0
8978,59156,48611,0,0,0
8938,59128,48561,0,0,0
8898,59096,48514,0,0,0
8857,59062,48467,0,0,0
8817,59027,48416,0,0,0
8775,58992,48362,0,0,0
8732,58954,48306,0,0,0
8686,58915,48249,0,0,0
8637,58875,48189,0,0,0
8580,58832,48127,0,0,0
8519,58789,48062,0,0,0
8459,58744,47990,0,0,0
8402,58698,47916,0,0,0
8349,58652,47842,0,0,0
8294,58605,47771,0,0,0
8240,58559,47700,0,0,0
8188,58515,47629,0,0,0
8137,58472,47560,0,0,0
8083,58428,47489,0,0,0
8029,58383,47416,0,0,0
7977,58340,47342,0,0,0
7924,58296,47267,0,0,0
7869,58251,47194,0,0,0
7818,58209,47128,0,0,0
7775,58172,47073,0,0,0
7742,58145,47036,0,0,0
7724,58132,47021,0,0,0
7729,58141,47034,0,0,0
7761,58172,47078,0,0,0
7825,58225,47157,0,0,0
7919,58303,47277,0,0,0
8046,58409,47440,0,0,0
8202,58543,47647,0,0,0
8383,58701,47896,0,0,0
8584,58879,48177,0,0,0
8803,59071,48483,0,0,0
9035,59272,48805,0,0,0
9273,59476,49134,0,0,0
9514,59680,49462,0,0,0
9751,59881,49784,0,0,0
9977,60073,50094,0,0,0
10186,60253,50388,0,0,0
10377,60421,50661,0,0,0
10553,60577,50909,0,0,0
10714,60717,51134,0,0,0
10858,60838,51334,0,0,0
10983,60943,51508,0,0,0
11091,61033,51655,0,0,0
11180,61109,51777,0,0,0
11251,61171,51875,0,0,0
11307,61221,51951,0,0,0
11347,61258,52006,0,0,0
11374,61281,52043,0,0,0
11390,61291,52065,0,0,0
11394,61291,52073,0,0,0
11391,61285,52070,0,0,0
11382,61274,52058,0,0,0
11367,61260,52042,0,0,0
11348,61245,52025,0,0,0
11328,61228,52007,0,0,0
11308,61209,51986,0,0,0
11288,61191,51965,0,0,0
11269,61173,51944,0,0,0
11249,61156,51925,0,0,0
11231,61141,51905,0,0,0
11215,61127,51883,0,0,0
11203,61116,51860,0,0,0
11189,61106,51834,0,0,0
11170,61092,51804,0,0,0
11145,61071,51769,0,0,0
11115,61045,51727,0,0,0
11077,61014,51678,0,0,0
11033,60976,51626,0,0,0
10987,60933,51571,0,0,0
10938,60891,51513,0,0,0
10885,60848,51450,0,0,0
10829,60801,51381,0,0,0
10772,60753,51307,0,0,0
10717,60708,51235,0,0,0
10663,60667,51168,0,0,0
10609,60627,51105,0,0,0
10560,60591,51043,0,0,0
10516,60559,50986,0,0,0
10475,60531,50938,0,0,0
10440,60508,50898,0,0,0
10412,60492,50863,0,0,0
10393,60480,50835,0,0,0
10380,60473,50816,0,0,0
10372,60470,50808,0,0,0
10369,60473,50808,0,0,0
10369,60477,50812,0,0,0
10371,60481,50818,0,0,0
10371,60482,50823,0,0,0
10371,60484,50824,0,0,0
10372,60489,50822,0,0,0
10372,60492,50816,0,0,0
10371,60489,50806,0,0,0
10366,60483,50794,0,0,0
10360,60475,50783,0,0,0
10350,60464,50769,0,0,0
10337,60450,50749,0,0,0
10319,60434,50724,0,0,0
10297,60417,50694,0,0,0
10271,60396,50657,0,0,0
10238,60368,50614,0,0,0
10202,60334,50567,0,0,0
10161,60299,50518,0,0,0
10117,60262,50467,0,0,0
10071,60223,50411,0,0,0
10026,60183,50350,0,0,0
9980,60143,50289,0,0,0
9932,60103,50224,0,0,0
9881,60058,50156,0,0,0
9828,60008,50083,0,0,0
9776,59956,50009,0,0,0
9722,59903,49939,0,0,0
9669,59852,49872,0,0,0
9618,59804,49800,0,0,0
9568,59758,49727,0,0,0
9518,59714,49652,0,0,0
9469,59675,49578,0,0,0
9423,59644,49506,0,0,0
9377,59614,49440,0,0,0
9330,59584,49380,0,0,0
9284,59555,49324,0,0,0
9245,59528,49271,0,0,0
9210,59502,49224,0,0,0
9175,59479,49181,0,0,0
9138,59456,49140,0,0,0
9105,59433,49098,0,0,0
9073,59407,49058,0,0,0
9039,59380,49017,0,0,0
9004,59353,48972,0,0,0
8967,59325,48925,0,0,0
8928,59295,48879,0,0,0
8891,59264,48834,0,0,0
8855,59233,48790,0,0,0
8821,59204,48748,0,0,0
8786,59176,48704,0,0,0
8747,59145,48658,0,0,0
8706,59113,48612,0,0,0
8669,59082,48568,0,0,0
8630,59051,48522,0,0,0
8589,59019,48475,0,0,0
8547,58987,48425,0,0,0
8505,58953,48372,0,0,0
8463,58918,48319,0,0,0
8421,58883,48265,0,0,0
8381,58850,48206,0,0,0
8343,58820,48145,0,0,0
8306,58792,48086,0,0,0
8266,58765,48029,0,0,0
8224,58735,47970,0,0,0
8178,58702,47909,0,0,0
8124,58663,47846,0,0,0
8066,58619,47782,0,0,0
8010,58573,47714,0,0,0
7957,58527,47642,0,0,0
7903,58481,47570,0,0,0
7850,58435,47499,0,0,0
7802,58392,47431,0,0,0
7755,58353,47369,0,0,0
7714,58318,47315,0,0,0
7683,58291,47273,0,0,0
7662,58275,47244,0,0,0
7653,58268,47232,0,0,0
7658,58272,47239,0,0,0
7679,58294,47269,0,0,0
7724,58339,47329,0,0,0
7796,58407,47425,0,0,0
7897,58497,47561,0,0,0
8031,58610,47739,0,0,0
8194,58748,47956,0,0,0
8383,58906,48207,0,0,0
8592,59079,48481,0,0,0
8814,59264,48772,0,0,0
9045,59458,49076,0,0,0
9280,59655,49387,0,0,0
9515,59851,49699,0,0,0
9746,60039,50004,0,0,0
9969,60217,50296,0,0,0
10178,60382,50572,0,0,0
10366,60532,50824,0,0,0
10537,60667,51054,0,0,0
10689,60789,51261,0,0,0
10820,60896,51443,0,0,0
10930,60987,51598,0,0,0
11023,61064,51728,0,0,0
11099,61128,51836,0,0,0
11160,61177,51920,0,0,0
11205,61213,51982,0,0,0
11237,61238,52025,0,0,0
11257,61254,52050,0,0,0
11265,61258,52060,0,0,0
11260,61253,52056,0,0,0
11246,61241,52039,0,0,0
11227,61228,52014,0,0,0
11207,61216,51986,0,0,0
11187,61207,51957,0,0,0
11170,61197,51929,0,0,0
11157,61186,51903,0,0,0
11145,61174,51877,0,0,0
11132,61160,51848,0,0,0
11117,61142,51819,0,0,0
11099,61124,51792,0,0,0
11080,61104,51766,0,0,0
11059,61082,51739,0,0,0
11035,61057,51707,0,0,0
11004,61027,51667,0,0,0
10968,60993,51619,0,0,0
10926,60957,51563,0,0,0
10880,60917,51498,0,0,0
10833,60876,51428,0,0,0
10783,60832,51353,0,0,0
10733,60786,51276,0,0,0
10685,60739,51203,0,0,0
10641,60694,51135,0,0,0
10599,60653,51070,0,0,0
10559,60619,51008,0,0,0
10526,60589,50952,0,0,0
10500,60561,50904,0,0,0
10483,60537,50865,0,0,0
10473,60517,50836,0,0,0
10470,60503,50814,0,0,0
10469,60494,50797,0,0,0
10470,60490,50787,0,0,0
10472,60491,50785,0,0,0
10473,60496,50787,0,0,0
10474,60503,50793,0,0,0
10475,60512,50800,0,0,0
10479,60523,50808,0,0,0
10483,60533,50817,0,0,0
10486,60542,50823,0,0,0
10486,60546,50825,0,0,0
10485,60549,50824,0,0,0
10485,60548,50821,0,0,0
10482,60543,50815,0,0,0
10476,60532,50805,0,0,0
10466,60518,50788,0,0,0
10452,60503,50766,0,0,0
10435,60484,50739,0,0,0
10417,60463,50708,0,0,0
10394,60441,50672,0,0,0
10365,60416,50629,0,0,0
10332,60386,50581,0,0,0
10295,60353,50529,0,0,0
10255,60318,50475,0,0,0
10213,60281,50419,0,0,0
10166,60241,50359,0,0,0
10115,60199,50295,0,0,0
10060,60153,50226,0,0,0
10002,60101,50153,0,0,0
9944,60049,50079,0,0,0
9890,60003,50007,0,0,0
9838,59959,49935,0,0,0
9785,59915,49863,0,0,0
9733,59867,49792,0,0,0
9681,59819,49722,0,0,0
9630,59773,49652,0,0,0
9579,59731,49582,0,0,0
9529,59690,49514,0,0,0
9482,59652,49448,0,0,0
9440,59614,49384,0,0,0
9402,59577,49319,0,0,0
9365,59542,49255,0,0,0
9330,59510,49196,0,0,0
9298,59480,49143,0,0,0
9267,59449,49096,0,0,0
9237,59419,49051,0,0,0
9209,59392,49009,0,0,0
9182,59368,48971,0,0,0
9154,59343,48934,0,0,0
9125,59317,48897,0,0,0
9096,59291,48861,0,0,0
9066,59267,48824,0,0,0
9036,59246,48787,0,0,0
9009,59227,48749,0,0,0
8984,59208,48709,0,0,0
8960,59189,48667,0,0,0
8935,59169,48623,0,0,0
8910,59147,48576,0,0,0
8880,59121,48525,0,0,0
8846,59091,48471,0,0,0
8809,59057,48415,0,0,0
8769,59021,48360,0,0,0
8724,58983,48306,0,0,0
8676,58945,48249,0,0,0
8627,58905,48191,0,0,0
8580,58865,48133,0,0,0
8538,58824,48076,0,0,0
8498,58786,48019,0,0,0
8456,58748,47961,0,0,0
8413,58712,47901,0,0,0
8372,58680,47841,0,0,0
8332,58648,47783,0,0,0
8291,58612,47726,0,0,0
8252,58576,47669,0,0,0
8215,58540,47612,0,0,0
8179,58504,47554,0,0,0
8143,58469,47497,0,0,0
8110,58437,47441,0,0,0
8080,58408,47390,0,0,0
8056,58384,47349,0,0,0
8042,58370,47326,0,0,0
8044,58373,47327,0,0,0
8068,58397,47356,0,0,0
8116,58442,47419,0,0,0
8191,58511,47520,0,0,0
8296,58603,47662,0,0,0
8432,58718,47845,0,0,0
8595,58856,48067,0,0,0
8780,59013,48321,0,0,0
8983,59188,48601,0,0,0
9203,59378,48906,0,0,0
9437,59577,49228,0,0,0
9679,59780,49558,0,0,0
9925,59983,49888,0,0,0
10170,60184,50212,0,0,0
10406,60380,50527,0,0,0
10631,60567,50830,0,0,0
10842,60747,51116,0,0,0
11040,60916,51384,0,0,0
11220,61073,51631,0,0,0
11381,61214,51854,0,0,0
11525,61337,52052,0,0,0
11650,61440,52222,0,0,0
11757,61525,52367,0,0,0
11849,61595,52487,0,0,0
11927,61652,52586,0,0,0
11990,61697,52664,0,0,0
12037,61731,52723,0,0,0
12072,61756,52767,0,0,0
12096,61774,52798,0,0,0
12111,61784,52818,0,0,0
12120,61789,52830,0,0,0
12124,61792,52836,0,0,0
12124,61792,52837,0,0,0
12121,61790,52834,0,0,0
12118,61786,52827,0,0,0
12117,61784,52822,0,0,0
12120,61788,52821,0,0,0
12124,61793,52822,0,0,0
12127,61796,52822,0,0,0
12127,61795,52818,0,0,0
12124,61791,52810,0,0,0
12120,61783,52801,0,0,0
12113,61772,52789,0,0,0
12105,61757,52774,0,0,0
12094,61741,52755,0,0,0
12077,61720,52732,0,0,0
12052,61695,52701,0,0,0
12021,61667,52659,0,0,0
11984,61636,52611,0,0,0
11940,61602,52559,0,0,0
11891,61565,52499,0,0,0
11839,61524,52433,0,0,0
11787,61483,52363,0,0,0
11733,61439,52292,0,0,0
11679,61395,52223,0,0,0
11630,61354,52157,0,0,0
11589,61319,52098,0,0,0
11555,61290,52048,0,0,0
11529,61268,52007,0,0,0
11510,61253,51973,0,0,0
11498,61244,51946,0,0,0
11492,61241,51928,0,0,0
11492,61242,51917,0,0,0
11494,61244,51911,0,0,0
11497,61247,51909,0,0,0
11500,61250,51913,0,0,0
11503,61251,51915,0,0,0
11507,61249,51914,0,0,0
11510,61248,51912,0,0,0
11513,61245,51908,0,0,0
11513,61240,51900,0,0,0
11512,61232,51888,0,0,0
11507,61223,51874,0,0,0
11496,61214,51857,0,0,0
11483,61202,51837,0,0,0
11467,61186,51813,0,0,0
11447,61167,51786,0,0,0
11423,61144,51755,0,0,0
11396,61118,51715,0,0,0
11366,61089,51669,0,0,0
11331,61057,51620,0,0,0
11295,61027,51571,0,0,0
11260,60995,51522,0,0,0
11223,60962,51470,0,0,0
11183,60925,51416,0,0,0
11141,60887,51356,0,0,0
11099,60849,51293,0,0,0
11053,60809,51226,0,0,0
11004,60766,51157,0,0,0
10957,60725,51088,0,0,0
10913,60689,51020,0,0,0
10872,60656,50957,0,0,0
10831,60622,50900,0,0,0
10786,60588,50843,0,0,0
10739,60553,50784,0,0,0
10686,60515,50722,0,0,0
10628,60472,50660,0,0,0
10568,60425,50596,0,0,0
10508,60376,50530,0,0,0
10450,60325,50463,0,0,0
10396,60276,50395,0,0,0
10347,60229,50328,0,0,0
10301,60186,50265,0,0,0
10259,60150,50205,0,0,0
10220,60119,50146,0,0,0
10185,60092,50089,0,0,0
10155,60067,50035,0,0,0
10126,60041,49984,0,0,0
10096,60015,49937,0,0,0
10068,59990,49891,0,0,0
10041,59965,49843,0,0,0
10012,59940,49797,0,0,0
9980,59914,49750,0,0,0
9949,59888,49704,0,0,0
9916,59861,49657,0,0,0
9882,59834,49613,0,0,0
9848,59806,49570,0,0,0
9813,59775,49525,0,0,0
9777,59743,49480,0,0,0
9739,59711,49433,0,0,0
9701,59679,49386,0,0,0
9665,59646,49337,0,0,0
9630,59614,49289,0,0,0
9597,59579,49239,0,0,0
9563,59541,49184,0,0,0
9529,59502,49125,0,0,0
9492,59463,49065,0,0,0
9451,59421,49005,0,0,0
9405,59379,48947,0,0,0
9357,59337,48886,0,0,0
9306,59295,48825,0,0,0
9254,59253,48763,0,0,0
9201,59209,48700,0,0,0
9146,59165,48632,0,0,0
9089,59120,48560,0,0,0
9031,59073,48484,0,0,0
8972,59024,48408,0,0,0
8914,58976,48333,0,0,0
8860,58932,48260,0,0,0
8810,58894,48195,0,0,0
8769,58863,48138,0,0,0
8741,58840,48095,0,0,0
8727,58829,48071,0,0,0
8729,58830,48071,0,0,0
8752,58848,48100,0,0,0
8806,58890,48169,0,0,0
8890,58961,48280,0,0,0
9002,59062,48435,0,0,0
9143,59192,48629,0,0,0
9314,59345,48861,0,0,0
9510,59517,49129,0,0,0
9725,59703,49427,0,0,0
9959,59904,49747,0,0,0
10205,60116,50083,0,0,0
10458,60331,50423,0,0,0
10713,60549,50763,0,0,0
10965,60764,51097,0,0,0
11209,60974,51421,0,0,0
11436,61169,51728,0,0,0
11646,61349,52013,0,0,0
11840,61512,52276,0,0,0
12016,61657,52514,0,0,0
12172,61784,52727,0,0,0
12310,61895,52915,0,0,0
12433,61992,53079,0,0,0
12540,62076,53219,0,0,0
12629,62147,53336,0,0,0
12703,62206,53430,0,0,0
12764,62255,53505,0,0,0
12812,62294,53564,0,0,0
12848,62322,53611,0,0,0
12874,62338,53648,0,0,0
12892,62347,53673,0,0,0
12904,62351,53690,0,0,0
12913,62350,53700,0,0,0
12921,62348,53703,0,0,0
12930,62350,53701,0,0,0
12938,62353,53697,0,0,0
12943,62356,53695,0,0,0
12948,62361,53698,0,0,0
12956,62369,53705,0,0,0
12966,62377,53714,0,0,0
12978,62383,53722,0,0,0
12989,62387,53727,0,0,0
12998,62389,53721,0,0,0
12998,62386,53707,0,0,0
12988,62375,53687,0,0,0
12971,62358,53660,0,0,0
12951,62339,53625,0,0,0
12928,62316,53585,0,0,0
12901,62287,53539,0,0,0
12867,62252,53487,0,0,0
12828,62214,53429,0,0,0
12785,62174,53369,0,0,0
12740,62133,53308,0,0,0
12693,62091,53245,0,0,0
12646,62050,53179,0,0,0
12601,62010,53111,0,0,0
12556,61972,53044,0,0,0
12514,61938,52981,0,0,0
12479,61909,52927,0,0,0
12447,61884,52882,0,0,0
12419,61861,52844,0,0,0
12397,61839,52813,0,0,0
12383,61822,52786,0,0,0
12374,61807,52763,0,0,0
12369,61795,52740,0,0,0
12369,61786,52721,0,0,0
12371,61781,52706,0,0,0
12374,61778,52697,0,0,0
12377,61777,52696,0,0,0
12380,61776,52697,0,0,0
12383,61777,52699,0,0,0
12384,61778,52698,0,0,0
12383,61780,52693,0,0,0
12380,61781,52684,0,0,0
12375,61780,52672,0,0,0
12369,61775,52656,0,0,0
12362,61767,52639,0,0,0
12355,61758,52620,0,0,0
12344,61746,52599,0,0,0
12328,61732,52572,0,0,0
12307,61712,52541,0,0,0
12282,61690,52506,0,0,0
12255,61665,52469,0,0,0
12227,61636,52428,0,0,0
12196,61604,52381,0,0,0
12162,61567,52330,0,0,0
12125,61529,52276,0,0,0
12085,61490,52218,0,0,0
12043,61452,52157,0,0,0
11999,61415,52097,0,0,0
11951,61379,52039,0,0,0
11903,61342,51982,0,0,0
11858,61306,51924,0,0,0
11812,61269,51865,0,0,0
11766,61231,51804,0,0,0
11720,61193,51744,0,0,0
11678,61156,51681,0,0,0
11637,61120,51617,0,0,0
11595,61080,51554,0,0,0
11550,61036,51492,0,0,0
11507,60994,51431,0,0,0
11467,60954,51370,0,0,0
11426,60914,51314,0,0,0
11384,60877,51262,0,0,0
11340,60842,51209,0,0,0
11293,60809,51157,0,0,0
11244,60778,51106,0,0,0
11197,60749,51056,0,0,0
11157,60723,51005,0,0,0
11120,60696,50954,0,0,0
11086,60668,50904,0,0,0
11052,60638,50856,0,0,0
11017,60608,50810,0,0,0
10984,60577,50765,0,0,0
10948,60545,50721,0,0,0
10910,60514,50678,0,0,0
10872,60482,50635,0,0,0
10833,60448,50592,0,0,0
10795,60411,50546,0,0,0
10758,60377,50497,0,0,0
10722,60346,50446,0,0,0
10687,60315,50392,0,0,0
10653,60281,50335,0,0,0
10620,60246,50277,0,0,0
10586,60213,50218,0,0,0
10549,60182,50157,0,0,0
10509,60151,50095,0,0,0
10466,60119,50031,0,0,0
10421,60084,49965,0,0,0
10374,60047,49899,0,0,0
10326,60005,49833,0,0,0
10278,59962,49767,0,0,0
10227,59915,49698,0,0,0
10174,59865,49629,0,0,0
10120,59814,49561,0,0,0
10066,59763,49492,0,0,0
10011,59714,49419,0,0,0
9957,59666,49344,0,0,0
9903,59621,49269,0,0,0
9853,59580,49196,0,0,0
9805,59543,49126,0,0,0
9758,59507,49064,0,0,0
9715,59475,49012,0,0,0
9683,59453,48973,0,0,0
9665,59443,48950,0,0,0
9663,59449,48952,0,0,0
9683,59470,48984,0,0,0
9728,59511,49048,0,0,0
9799,59571,49148,0,0,0
9897,59652,49286,0,0,0
10021,59758,49459,0,0,0
10171,59889,49667,0,0,0
10345,60043,49907,0,0,0
10541,60216,50174,0,0,0
10758,60402,50465,0,0,0
10992,60601,50774,0,0,0
11235,60807,51094,0,0,0
11477,61015,51415,0,0,0
11713,61219,51735,0,0,0
11945,61416,52048,0,0,0
12167,61603,52346,0,0,0
12377,61775,52624,0,0,0
12570,61934,52882,0,0,0
12743,62078,53120,0,0,0
12895,62208,53337,0,0,0
13029,62324,53527,0,0,0
13147,62424,53689,0,0,0
13246,62505,53826,0,0,0
13327,62564,53941,0,0,0
13392,62607,54031,0,0,0
13444,62638,54097,0,0,0
13487,62662,54143,0,0,0
13516,62679,54175,0,0,0
13530,62690,54198,0,0,0
13536,62697,54211,0,0,0
13536,62700,54214,0,0,0
13535,62699,54211,0,0,0
13531,62693,54206,0,0,0
13524,62687,54199,0,0,0
13515,62679,54190,0,0,0
13505,62668,54179,0,0,0
13493,62654,54164,0,0,0
13479,62639,54146,0,0,0
13464,62625,54132,0,0,0
13448,62614,54122,0,0,0
13432,62606,54110,0,0,0
13415,62597,54092,0,0,0
13395,62585,54067,0,0,0
13372,62571,54035,0,0,0
13344,62554,53996,0,0,0
13314,62532,53947,0,0,0
13279,62505,53890,0,0,0
13239,62474,53827,0,0,0
13193,62439,53760,0,0,0
13145,62398,53688,0,0,0
13094,62350,53613,0,0,0
13042,62298,53533,0,0,0
12989,62245,53451,0,0,0
12937,62193,53367,0,0,0
12884,62144,53287,0,0,0
12830,62094,53214,0,0,0
12776,62046,53149,0,0,0
12728,62001,53089,0,0,0
12686,61961,53034,0,0,0
12649,61928,52985,0,0,0
12619,61900,52946,0,0,0
12594,61878,52917,0,0,0
12574,61860,52894,0,0,0
12557,61848,52876,0,0,0
12542,61839,52863,0,0,0
12529,61834,52851,0,0,0
12517,61830,52841,0,0,0
12506,61825,52831,0,0,0
12499,61820,52821,0,0,0
12493,61813,52809,0,0,0
12484,61805,52794,0,0,0
12471,61796,52775,0,0,0
12456,61786,52754,0,0,0
12438,61773,52730,0,0,0
12415,61756,52701,0,0,0
12389,61734,52666,0,0,0
12362,61707,52626,0,0,0
12331,61675,52581,0,0,0
12296,61641,52533,0,0,0
12257,61609,52486,0,0,0
12215,61577,52439,0,0,0
12170,61542,52387,0,0,0
12125,61504,52330,0,0,0
12078,61464,52266,0,0,0
12029,61419,52197,0,0,0
11977,61373,52127,0,0,0
11921,61328,52061,0,0,0
11865,61284,51997,0,0,0
11811,61239,51931,0,0,0
11757,61193,51861,0,0,0
11702,61144,51787,0,0,0
11645,61093,51710,0,0,0
11586,61041,51632,0,0,0
11527,60993,51555,0,0,0
11468,60946,51478,0,0,0
11409,60900,51399,0,0,0
11353,60859,51322,0,0,0
11300,60823,51252,0,0,0
11245,60787,51186,0,0,0
11190,60750,51122,0,0,0
11133,60712,51056,0,0,0
11076,60670,50989,0,0,0
11021,60626,50924,0,0,0
10965,60585,50861,0,0,0
10910,60544,50799,0,0,0
10857,60504,50737,0,0,0
10807,60466,50676,0,0,0
10761,60428,50616,0,0,0
10716,60391,50558,0,0,0
10671,60357,50503,0,0,0
10628,60324,50451,0,0,0
10587,60291,50399,0,0,0
10548,60258,50342,0,0,0
10509,60223,50280,0,0,0
10469,60187,50217,0,0,0
10428,60152,50158,0,0,0
10385,60118,50104,0,0,0
10339,60085,50050,0,0,0
10294,60051,49995,0,0,0
10250,60017,49937,0,0,0
10205,59981,49879,0,0,0
10157,59943,49820,0,0,0
10108,59900,49756,0,0,0
10058,59853,49691,0,0,0
10008,59805,49628,0,0,0
9958,59758,49567,0,0,0
9907,59711,49506,0,0,0
9854,59666,49442,0,0,0
9800,59624,49376,0,0,0
9743,59580,49305,0,0,0
9687,59537,49234,0,0,0
9635,59497,49165,0,0,0
9586,59457,49095,0,0,0
9534,59411,49022,0,0,0
9479,59364,48946,0,0,0
9418,59315,48864,0,0,0
9355,59264,48779,0,0,0
9290,59212,48694,0,0,0
9221,59162,48611,0,0,0
9152,59112,48526,0,0,0
9083,59060,48442,0,0,0
9016,59009,48359,0,0,0
8950,58957,48276,0,0,0
8884,58904,48193,0,0,0
8817,58850,48111,0,0,0
8751,58797,48033,0,0,0
8691,58750,47963,0,0,0
8645,58714,47909,0,0,0
8620,58695,47881,0,0,0
8622,58700,47889,0,0,0
8656,58734,47942,0,0,0
8724,58800,48042,0,0,0
8825,58894,48191,0,0,0
8957,59015,48388,0,0,0
9122,59163,48630,0,0,0
9316,59335,48913,0,0,0
9534,59527,49226,0,0,0
9766,59735,49560,0,0,0
10009,59954,49908,0,0,0
10257,60176,50263,0,0,0
10506,60398,50620,0,0,0
10753,60615,50969,0,0,0
10992,60825,51304,0,0,0
11219,61021,51620,0,0,0
11426,61200,51914,0,0,0
11614,61361,52179,0,0,0
11781,61507,52418,0,0,0
11927,61635,52629,0,0,0
12049,61742,52812,0,0,0
12149,61830,52966,0,0,0
12232,61903,53091,0,0,0
12298,61964,53190,0,0,0
12346,62007,53263,0,0,0
12377,62034,53310,0,0,0
12395,62046,53334,0,0,0
12400,62044,53342,0,0,0
12393,62029,53337,0,0,0
12380,62009,53321,0,0,0
12364,61987,53293,0,0,0
12345,61966,53260,0,0,0
12323,61946,53225,0,0,0
12300,61927,53187,0,0,0
12278,61908,53146,0,0,0
12253,61887,53104,0,0,0
12228,61863,53062,0,0,0
12204,61838,53021,0,0,0
12179,61816,52981,0,0,0
12153,61794,52941,0,0,0
12125,61772,52900,0,0,0
12094,61748,52856,0,0,0
12059,61722,52806,0,0,0
12017,61689,52749,0,0,0
11968,61648,52681,0,0,0
11917,61604,52609,0,0,0
11865,61558,52535,0,0,0
11811,61509,52457,0,0,0
11756,61457,52374,0,0,0
11702,61404,52292,0,0,0
11648,61351,52217,0,0,0
11595,61302,52149,0,0,0
11545,61259,52087,0,0,0
11502,61223,52031,0,0,0
11467,61194,51985,0,0,0
11438,61172,51947,0,0,0
11415,61156,51915,0,0,0
11395,61143,51890,0,0,0
11377,61132,51870,0,0,0
11364,61122,51855,0,0,0
11354,61116,51844,0,0,0
11348,61114,51838,0,0,0
11347,61116,51835,0,0,0
11348,61117,51834,0,0,0
11349,61116,51834,0,0,0
11352,61116,51833,0,0,0
11359,61119,51835,0,0,0
11367,61124,51838,0,0,0
11374,61128,51841,0,0,0
11379,61133,51840,0,0,0
11378,61135,51834,0,0,0
11369,61129,51822,0,0,0
11356,61119,51804,0,0,0
11338,61105,51783,0,0,0
11314,61085,51755,0,0,0
11280,61058,51720,0,0,0
11242,61028,51677,0,0,0
11204,60996,51628,0,0,0
11166,60964,51575,0,0,0
11126,60928,51518,0,0,0
11080,60888,51456,0,0,0
11030,60844,51390,0,0,0
