green_channel,red_channel,ir_channel,Anomaly_ch0,Anomaly_ch1,Anomaly_ch2
56994,33686,10484,1,0,0
56963,33651,10426,1,0,0
56928,33627,10372,1,0,0
56880,33613,10322,1,0,0
56852,33612,10281,1,0,0
56870,33617,10252,1,0,0
56915,33622,10229,1,0,0
56966,33621,10209,1,0,0
57037,33609,10195,1,0,0
57132,33586,10185,1,0,0
57221,33552,10170,1,0,0
57284,33508,10148,1,0,0
57343,33456,10123,1,0,0
57401,33400,10090,1,0,0
57422,33341,10041,1,0,0
57399,33283,9979,1,0,0
57365,33228,9912,1,0,0
57333,33179,9846,1,0,0
57285,33139,9780,1,0,0
57225,33114,9717,1,0,0
57182,33105,9655,1,0,0
57166,33108,9593,1,0,0
57159,33117,9529,1,0,0
57166,33135,9470,1,0,0
57208,33159,9417,1,0,0
57279,33178,9367,1,0,0
57356,33184,9319,1,0,0
57439,33175,9276,1,0,0
57542,33151,9239,1,0,0
57654,33119,9205,1,0,0
57742,33087,9172,1,0,0
57801,33063,9137,1,0,0
57846,33045,9101,1,0,0
57873,33033,9061,1,0,0
57862,33032,9019,1,0,0
57827,33044,8974,1,0,0
57800,33067,8927,1,0,0
57774,33095,8879,1,0,0
57733,33116,8833,1,0,0
57696,33127,8786,1,0,0
57688,33124,8734,1,0,0
57695,33107,8681,1,0,0
57703,33079,8631,1,0,0
57734,33050,8584,1,0,0
57803,33022,8537,1,0,0
57868,32994,8489,1,0,0
57898,32972,8440,1,0,0
57906,32959,8393,1,0,0
57900,32955,8348,1,0,0
57852,32960,8303,1,0,0
57756,32971,8257,1,0,0
57644,32993,8209,1,0,0
57533,33019,8155,1,0,0
57402,33047,8097,1,0,0
57253,33078,8044,1,0,0
57129,33115,8006,1,0,0
57049,33161,7982,1,0,0
56982,33210,7976,1,0,0
56923,33261,7991,1,0,0
56894,33315,8035,1,0,0
56894,33373,8103,1,0,0
56895,33435,8189,1,0,0
56899,33504,8292,1,0,0
56922,33582,8410,1,0,0
56941,33667,8541,1,0,0
56915,33755,8683,1,0,0
56851,33842,8833,1,0,0
56773,33929,8990,1,0,0
56673,34011,9151,1,0,0
56534,34087,9313,1,0,0
56389,34153,9477,1,0,0
56276,34209,9639,1,0,0
56197,34254,9797,1,0,0
56142,34291,9948,1,0,0
56131,34318,10085,1,0,0
56187,34342,10202,1,0,0
56294,34363,10298,1,0,0
56413,34377,10372,1,0,0
56533,34384,10428,1,0,0
56648,34386,10470,1,0,0
56732,34384,10494,1,0,0
56758,34384,10503,1,0,0
56726,34392,10505,1,0,0
56643,34409,10504,1,0,0
56503,34432,10501,1,0,0
56301,34454,10498,1,0,0
56065,34472,10497,1,0,0
55822,34485,10499,1,0,0
55576,34492,10502,1,0,0
55336,34498,10512,1,0,0
55131,34510,10533,1,0,0
54985,34527,10564,1,0,0
54883,34545,10597,1,0,0
54813,34568,10633,1,0,0
54782,34597,10673,1,0,0
54783,34631,10714,1,0,0
54786,34662,10746,1,0,0
54781,34682,10771,1,0,0
54780,34690,10790,1,0,0
54778,34689,10793,1,0,0
54762,34679,10778,1,0,0
54731,34662,10755,1,0,0
54702,34638,10730,1,0,0
54668,34609,10701,1,0,0
54611,34575,10668,1,0,0
54535,34539,10632,1,0,0
54460,34506,10592,1,0,0
54385,34478,10548,1,0,0
54293,34459,10499,1,0,0
54186,34448,10449,1,0,0
54091,34442,10404,1,0,0
54019,34436,10360,1,0,0
53961,34431,10319,1,0,0
53925,34425,10281,1,0,0
53928,34416,10241,1,0,0
53969,34403,10201,1,0,0
54034,34383,10165,1,0,0
54128,34362,10131,1,0,0
54251,34341,10099,1,0,0
54386,34319,10069,1,0,0
54515,34297,10046,1,0,0
54650,34283,10026,1,0,0
54805,34284,10001,1,0,0
54971,34296,9968,1,0,0
55147,34311,9933,1,0,0
55344,34320,9894,1,0,0
55561,34321,9849,1,0,0
55770,34313,9799,1,0,0
55955,34299,9749,1,0,0
56125,34281,9702,1,0,0
56278,34261,9655,1,0,0
56393,34239,9608,1,0,0
56464,34212,9567,1,0,0
56509,34181,9530,1,0,0
56536,34148,9498,1,0,0
56534,34111,9468,1,0,0
56499,34074,9439,1,0,0
56455,34040,9407,1,0,0
56412,34009,9360,1,0,0
56359,33978,9294,1,0,0
56303,33946,9214,1,0,0
56272,33917,9127,1,0,0
56270,33895,9033,1,0,0
56280,33875,8935,1,0,0
56307,33858,8835,1,0,0
56374,33844,8735,1,0,0
56473,33834,8636,1,0,0
56575,33828,8536,1,0,0
56675,33828,8439,1,0,0
56787,33827,8346,1,0,0
56898,33821,8257,1,0,0
56984,33809,8176,1,0,0
57049,33793,8100,1,0,0
57106,33776,8026,1,0,0
57143,33752,7954,1,0,0
57143,33719,7891,1,0,0
57124,33679,7836,1,0,0
57106,33634,7788,1,0,0
57079,33580,7748,1,0,0
57039,33523,7718,1,0,0
57010,33467,7699,1,0,0
57006,33415,7684,1,0,0
57010,33367,7667,1,0,0
57008,33323,7644,1,0,0
57021,33284,7615,1,0,0
57056,33256,7580,1,0,0
57091,33237,7533,1,0,0
57113,33221,7475,1,0,0
57128,33210,7408,1,0,0
57140,33200,7331,1,0,0
57131,33188,7249,1,0,0
57103,33175,7170,1,0,0
57074,33165,7096,1,0,0
57042,33155,7023,1,0,0
56981,33141,6951,1,0,0
56898,33125,6886,1,0,0
56827,33107,6825,1,0,0
56777,33083,6763,1,0,0
56735,33052,6695,1,0,0
56708,33014,6622,1,0,0
56721,32974,6541,1,0,0
56762,32936,6456,1,0,0
56796,32900,6373,1,0,0
56817,32864,6295,1,0,0
56830,32836,6223,1,0,0
56813,32812,6159,1,0,0
56741,32790,6108,1,0,0
56630,32771,6075,1,0,0
56512,32754,6061,1,0,0
56387,32735,6071,1,0,0
56252,32712,6107,1,0,0
56141,32680,6167,1,0,0
56078,32649,6247,1,0,0
56038,32625,6345,1,0,0
55998,32610,6456,1,0,0
55971,32607,6580,1,0,0
55966,32620,6713,1,0,0
55947,32649,6856,1,0,0
55898,32700,7013,1,0,0
55843,32770,7178,1,0,0
55795,32852,7344,1,0,0
55728,32942,7512,1,0,0
55639,33035,7685,1,0,0
55563,33130,7861,1,0,0
55512,33226,8034,1,0,0
55461,33325,8204,1,0,0
55414,33425,8374,1,0,0
55407,33525,8543,1,0,0
55450,33627,8702,1,0,0
55517,33727,8848,1,0,0
55603,33824,8983,1,0,0
55726,33917,9102,1,0,0
55878,34004,9203,1,0,0
56024,34077,9284,1,0,0
56155,34133,9346,1,0,0
56287,34175,9388,1,0,0
56406,34209,9407,1,0,0
56474,34238,9415,1,0,0
56486,34266,9426,1,0,0
56461,34296,9440,1,0,0
56398,34331,9455,1,0,0
56283,34369,9479,1,0,0
56138,34411,9512,1,0,0
56000,34451,9551,1,0,0
55871,34483,9593,1,0,0
55742,34510,9638,1,0,0
55635,34536,9679,1,0,0
55578,34563,9714,1,0,0
55568,34592,9742,1,0,0
55582,34619,9761,1,0,0
55621,34644,9768,1,0,0
55684,34674,9763,1,0,0
55743,34707,9747,1,0,0
55766,34739,9726,1,0,0
55756,34773,9701,1,0,0
55714,34809,9672,1,0,0
55619,34841,9641,1,0,0
55466,34868,9611,1,0,0
55285,34888,9584,1,0,0
55101,34899,9557,1,0,0
54916,34898,9535,1,0,0
54735,34882,9516,1,0,0
54589,34849,9492,1,0,0
54489,34799,9456,1,0,0
54417,34735,9407,1,0,0
54361,34670,9352,1,0,0
54331,34616,9288,1,0,0
54328,34577,9215,1,0,0
54328,34551,9139,1,0,0
54321,34536,9070,1,0,0
54327,34535,9010,1,0,0
54359,34541,8961,1,0,0
54400,34550,8925,1,0,0
54453,34558,8902,1,0,0
54542,34563,8888,1,0,0
54669,34562,8879,1,0,0
54808,34552,8871,1,0,0
54952,34536,8860,1,0,0
55111,34518,8841,1,0,0
55274,34496,8808,1,0,0
55407,34466,8769,1,0,0
55508,34427,8726,1,0,0
55595,34386,8671,1,0,0
55666,34350,8604,1,0,0
55716,34321,8531,1,0,0
55771,34303,8461,1,0,0
55868,34294,8393,1,0,0
56001,34291,8329,1,0,0
56154,34293,8273,1,0,0
56345,34297,8224,1,0,0
56579,34299,8178,1,0,0
56809,34295,8137,1,0,0
56996,34285,8107,1,0,0
57153,34271,8082,1,0,0
57284,34251,8053,1,0,0
57355,34224,8023,1,0,0
57353,34186,8002,1,0,0
57312,34136,7985,1,0,0
57257,34084,7968,1,0,0
57177,34036,7955,1,0,0
57078,33994,7949,1,0,0
57002,33962,7940,1,0,0
56971,33935,7922,1,0,0
56963,33911,7896,1,0,0
56968,33893,7868,1,0,0
57010,33885,7835,1,0,0
57087,33886,7793,1,0,0
57175,33894,7750,1,0,0
57267,33902,7712,1,0,0
57376,33908,7678,1,0,0
57494,33911,7645,1,0,0
57594,33907,7618,1,0,0
57671,33897,7602,1,0,0
57740,33881,7589,1,0,0
57804,33860,7575,1,0,0
57844,33831,7563,1,0,0
57861,33797,7554,1,0,0
57886,33766,7542,1,0,0
57922,33746,7521,1,0,0
57950,33740,7492,1,0,0
57979,33744,7457,1,0,0
58035,33761,7412,1,0,0
58100,33789,7361,1,0,0
58143,33826,7308,1,0,0
58174,33873,7254,1,0,0
58211,33926,7201,1,0,0
58231,33972,7155,1,0,0
58214,34011,7120,1,0,0
58196,34040,7097,1,0,0
58211,34062,7079,1,0,0
58246,34076,7065,1,0,0
58288,34078,7052,1,0,0
58368,34071,7033,1,0,0
58499,34059,7003,1,0,0
58642,34047,6963,1,0,0
58771,34037,6916,1,0,0
58902,34029,6859,1,0,0
59037,34017,6790,1,0,0
59126,33999,6718,1,0,0
59149,33977,6651,1,0,0
59133,33949,6586,1,0,0
59085,33914,6522,1,0,0
58970,33872,6465,1,0,0
58788,33824,6419,1,0,0
58582,33775,6386,1,0,0
58377,33732,6364,1,0,0
58175,33698,6359,1,0,0
58001,33681,6371,1,0,0
57893,33684,6396,1,0,0
57848,33705,6433,1,0,0
57835,33739,6488,1,0,0
57848,33782,6562,1,0,0
57893,33835,6648,1,0,0
57942,33896,6745,1,0,0
57944,33963,6857,1,0,0
57879,34025,6988,1,0,0
57760,34081,7131,1,0,0
57596,34135,7277,1,0,0
57386,34186,7422,1,0,0
57155,34236,7561,1,0,0
56947,34286,7689,1,0,0
56778,34335,7798,1,0,0
56644,34381,7889,1,0,0
56563,34422,7961,1,0,0
56547,34456,8012,1,0,0
56561,34482,8043,1,0,0
56565,34498,8062,1,0,0
56563,34506,8075,1,0,0
56554,34511,8086,1,0,0
56502,34510,8105,1,0,0
56388,34503,8139,1,0,0
56241,34492,8185,1,0,0
56084,34483,8237,1,0,0
55906,34470,8297,1,0,0
55719,34455,8367,1,0,0
55580,34442,8446,1,0,0
55513,34431,8525,1,0,0
55496,34421,8601,1,0,0
55525,34415,8671,1,0,0
55629,34415,8731,1,0,0
55795,34428,8773,1,0,0
55961,34450,8799,1,0,0
56101,34479,8817,1,0,0
56234,34512,8831,1,0,0
56347,34547,8842,1,0,0
56397,34586,8856,1,0,0
56399,34630,8874,1,0,0
56404,34678,8894,1,0,0
56422,34724,8911,1,0,0
56432,34763,8924,1,0,0
56451,34794,8932,1,0,0
56520,34821,8933,1,0,0
56634,34842,8921,1,0,0
56757,34851,8895,1,0,0
56890,34847,8859,1,0,0
57053,34836,8815,1,0,0
57216,34822,8760,1,0,0
57326,34806,8703,1,0,0
57370,34790,8646,1,0,0
57362,34776,8587,1,0,0
57279,34764,8531,1,0,0
57096,34757,8483,1,0,0
56834,34756,8444,1,0,0
56534,34760,8410,1,0,0
56221,34762,8379,1,0,0
55919,34760,8356,1,0,0
55670,34750,8339,1,0,0
55506,34734,8323,1,0,0
55425,34712,8308,1,0,0
55423,34684,8297,1,0,0
55505,34656,8285,1,0,0
55670,34630,8265,1,0,0
55888,34606,8239,1,0,0
56130,34586,8211,1,0,0
56396,34570,8181,1,0,0
56676,34559,8141,1,0,0
56926,34555,8098,1,0,0
57122,34555,8062,1,0,0
57292,34559,8033,1,0,0
57452,34570,8010,1,0,0
57584,34582,7993,1,0,0
57694,34592,7983,1,0,0
57819,34596,7974,1,0,0
57972,34593,7958,1,0,0
58134,34583,7936,1,0,0
58313,34564,7908,1,0,0
58539,34537,7869,1,0,0
58791,34501,7819,1,0,0
59003,34455,7762,1,0,0
59162,34402,7699,1,0,0
59293,34349,7630,1,0,0
59372,34309,7553,1,0,0
59359,34281,7477,1,0,0
59284,34263,7406,1,0,0
59206,34251,7340,1,0,0
59138,34240,7279,1,0,0
59082,34230,7229,1,0,0
59092,34221,7186,1,0,0
59218,34214,7146,1,0,0
59425,34208,7105,1,0,0
59662,34197,7067,1,0,0
59944,34178,7026,1,0,0
60281,34152,6971,1,0,0
60614,34120,6906,1,0,0
60884,34086,6839,1,0,0
61095,34056,6768,1,0,0
61245,34032,6686,1,0,0
61281,34009,6598,1,0,0
61184,33986,6519,1,0,0
61012,33967,6449,1,0,0
60817,33954,6387,1,0,0
60591,33948,6337,1,0,0
60348,33945,6307,1,0,0
60155,33939,6295,1,0,0
60042,33930,6293,1,0,0
59967,33918,6299,1,0,0
59911,33906,6312,1,0,0
59907,33893,6321,1,0,0
59946,33880,6319,1,0,0
59961,33863,6306,1,0,0
59936,33844,6285,1,0,0
59910,33825,6250,1,0,0
59877,33804,6195,1,0,0
59798,33778,6130,1,0,0
59679,33746,6064,1,0,0
59565,33712,5997,1,0,0
59454,33682,5928,1,0,0
59314,33659,5860,1,0,0
59152,33645,5798,1,0,0
59000,33640,5741,1,0,0
58845,33637,5689,1,0,0
58649,33632,5647,1,0,0
58419,33629,5616,1,0,0
58190,33627,5587,1,0,0
57962,33625,5557,1,0,0
57720,33618,5531,1,0,0
57492,33605,5508,1,0,0
57312,33592,5480,1,0,0
57163,33585,5446,1,0,0
57023,33583,5409,1,0,0
56919,33591,5371,1,0,0
56870,33612,5334,1,0,0
56835,33650,5311,1,0,0
56786,33707,5311,1,0,0
56745,33786,5337,1,0,0
56713,33883,5388,1,0,0
56652,33996,5464,1,0,0
56541,34118,5566,1,0,0
56398,34239,5687,1,0,0
56234,34350,5821,1,0,0
56029,34446,5968,1,0,0
55789,34527,6127,1,0,0
55560,34594,6284,1,0,0
55374,34646,6430,1,0,0
55225,34684,6564,1,0,0
55123,34707,6686,1,0,0
55093,34719,6795,1,0,0
55126,34726,6886,1,0,0
55189,34732,6963,1,0,0
55262,34734,7033,1,0,0
55345,34738,7096,1,0,0
55413,34744,7149,1,0,0
55427,34749,7196,1,0,0
55383,34755,7242,1,0,0
55310,34764,7283,1,0,0
55223,34773,7316,1,0,0
55117,34778,7344,1,0,0
55019,34777,7367,1,0,0
54965,34774,7385,1,0,0
54954,34776,7396,1,0,0
54958,34782,7402,1,0,0
54999,34791,7401,1,0,0
55098,34802,7394,1,0,0
55208,34812,7384,1,0,0
55273,34818,7372,1,0,0
55307,34819,7361,1,0,0
55323,34817,7353,1,0,0
55291,34812,7348,1,0,0
55193,34803,7343,1,0,0
55068,34794,7338,1,0,0
54953,34789,7334,1,0,0
54853,34791,7334,1,0,0
54767,34799,7337,1,0,0
54728,34811,7341,1,0,0
54753,34830,7344,1,0,0
54817,34853,7343,1,0,0
54889,34875,7338,1,0,0
54969,34889,7332,1,0,0
55046,34892,7323,1,0,0
55082,34882,7306,1,0,0
55053,34863,7283,1,0,0
54978,34840,7258,1,0,0
54878,34815,7233,1,0,0
54752,34797,7202,1,0,0
54611,34790,7166,1,0,0
54494,34796,7132,1,0,0
54415,34816,7098,1,0,0
54361,34842,7058,1,0,0
54345,34873,7013,1,0,0
54396,34908,6970,1,0,0
54502,34938,6932,1,0,0
54610,34956,6896,1,0,0
54716,34957,6863,1,0,0
54850,34940,6840,1,0,0
54988,34912,6828,1,0,0
55067,34878,6824,1,0,0
55087,34840,6828,1,0,0
55076,34799,6839,1,0,0
55018,34759,6852,1,0,0
54896,34724,6864,1,0,0
54755,34698,6879,1,0,0
54643,34682,6891,1,0,0
54557,34672,6893,1,0,0
54494,34663,6883,1,0,0
54495,34655,6865,1,0,0
54591,34647,6838,1,0,0
54750,34642,6799,1,0,0
54938,34635,6753,1,0,0
55162,34624,6706,1,0,0
55416,34611,6656,1,0,0
55656,34594,6607,1,0,0
55847,34574,6561,1,0,0
55993,34553,6523,1,0,0
56100,34532,6489,1,0,0
56153,34511,6454,1,0,0
56151,34489,6420,1,0,0
56122,34463,6386,1,0,0
56087,34434,6348,1,0,0
56042,34408,6306,1,0,0
55985,34386,6267,1,0,0
55936,34365,6231,1,0,0
55903,34339,6194,1,0,0
55867,34306,6157,1,0,0
55830,34268,6128,1,0,0
55816,34231,6105,1,0,0
55817,34191,6089,1,0,0
55795,34148,6079,1,0,0
55752,34101,6074,1,0,0
55716,34054,6069,1,0,0
55681,34009,6063,1,0,0
55609,33968,6053,1,0,0
55501,33927,6040,1,0,0
55390,33887,6024,1,0,0
55281,33854,6003,1,0,0
55161,33827,5975,1,0,0
55053,33804,5945,1,0,0
54991,33782,5918,1,0,0
54960,33761,5899,1,0,0
54935,33741,5888,1,0,0
54928,33724,5888,1,0,0
54958,33706,5894,1,0,0
55006,33683,5896,1,0,0
55037,33655,5892,1,0,0
55059,33625,5886,1,0,0
55084,33595,5878,1,0,0
55092,33561,5862,1,0,0
55068,33516,5837,1,0,0
55026,33462,5803,1,0,0
54977,33407,5758,1,0,0
54905,33355,5702,1,0,0
54803,33308,5640,1,0,0
54699,33270,5576,1,0,0
54612,33247,5514,1,0,0
54527,33237,5451,1,0,0
54433,33237,5390,1,0,0
54341,33255,5336,1,0,0
54256,33297,5291,1,0,0
54164,33361,5253,1,0,0
54059,33441,5222,1,0,0
53963,33532,5203,1,0,0
53888,33631,5193,1,0,0
53816,33735,5188,1,0,0
53747,33841,5188,1,0,0
53713,33945,5190,1,0,0
53719,34044,5192,1,0,0
53737,34134,5192,1,0,0
53769,34217,5192,1,0,0
53842,34293,5192,1,0,0
53940,34365,5191,1,0,0
54014,34432,5196,1,0,0
54055,34490,5214,1,0,0
54076,34538,5249,1,0,0
54049,34580,5304,1,0,0
53940,34619,5381,1,0,0
53768,34654,5484,1,0,0
53574,34685,5616,1,0,0
53362,34708,5775,1,0,0
53132,34719,5959,1,0,0
52922,34716,6165,1,0,0
52769,34704,6386,1,0,0
52678,34692,6612,1,0,0
52636,34684,6841,1,0,0
52642,34679,7069,1,0,0
52694,34675,7284,1,0,0
52773,34674,7474,1,0,0
52853,34679,7640,1,0,0
52935,34690,7785,1,0,0
53020,34708,7910,1,0,0
53079,34726,8016,1,0,0
53098,34744,8111,1,0,0
53095,34763,8199,1,0,0
53084,34782,8280,1,0,0
53048,34802,8357,1,0,0
52993,34821,8432,1,0,0
52951,34839,8500,1,0,0
52930,34856,8556,1,0,0
52900,34870,8603,1,0,0
52856,34877,8645,1,0,0
52820,34876,8681,1,0,0
52786,34868,8707,1,0,0
52720,34849,8723,1,0,0
52621,34818,8735,1,0,0
52520,34779,8745,1,0,0
52415,34735,8753,1,0,0
52285,34691,8761,1,0,0
52146,34647,8774,1,0,0
52038,34606,8787,1,0,0
51967,34574,8794,1,0,0
51919,34550,8801,1,0,0
51905,34533,8811,1,0,0
51939,34525,8823,1,0,0
52004,34522,8831,1,0,0
52074,34523,8834,1,0,0
52148,34525,8833,1,0,0
52228,34524,8826,1,0,0
52300,34522,8809,1,0,0
52349,34519,8783,1,0,0
52381,34516,8748,1,0,0
52405,34509,8697,1,0,0
52411,34498,8635,1,0,0
52383,34481,8569,1,0,0
52325,34458,8503,1,0,0
52248,34437,8434,1,0,0
52153,34418,8364,1,0,0
52045,34399,8302,1,0,0
51958,34382,8245,1,0,0
51916,34365,8186,1,0,0
51912,34345,8131,1,0,0
51941,34318,8082,1,0,0
52013,34282,8035,1,0,0
52114,34241,7985,1,0,0
52212,34196,7934,1,0,0
52292,34142,7887,1,0,0
52368,34078,7843,1,0,0
52440,34012,7795,1,0,0
52489,33946,7743,1,0,0
52520,33882,7696,1,0,0
52564,33821,7657,1,0,0
52631,33762,7621,1,0,0
52705,33706,7589,1,0,0
52796,33659,7563,1,0,0
52934,33618,7542,1,0,0
53109,33583,7528,1,0,0
53281,33554,7519,1,0,0
53444,33528,7514,1,0,0
53614,33512,7511,1,0,0
53772,33504,7507,1,0,0
53879,33500,7501,1,0,0
53938,33502,7494,1,0,0
53976,33512,7486,1,0,0
53991,33526,7473,1,0,0
53979,33538,7454,1,0,0
53969,33544,7434,1,0,0
53996,33543,7415,1,0,0
54045,33540,7396,1,0,0
54095,33533,7379,1,0,0
54166,33517,7365,1,0,0
54270,33494,7355,1,0,0
54376,33463,7343,1,0,0
54456,33425,7325,1,0,0
54525,33388,7307,1,0,0
54604,33359,7292,1,0,0
54683,33340,7269,1,0,0
54761,33329,7236,1,0,0
54854,33324,7200,1,0,0
54971,33327,7165,1,0,0
55098,33333,7124,1,0,0
55219,33337,7076,1,0,0
55340,33335,7031,1,0,0
55464,33327,6992,1,0,0
55568,33309,6951,1,0,0
55642,33277,6904,1,0,0
55707,33238,6859,1,0,0
55773,33203,6813,1,0,0
55822,33170,6761,1,0,0
55858,33137,6703,1,0,0
55922,33102,6645,1,0,0
56026,33071,6589,1,0,0
56134,33046,6534,1,0,0
56233,33029,6484,1,0,0
56340,33023,6437,1,0,0
56445,33032,6389,1,0,0
56515,33055,6347,1,0,0
56550,33094,6313,1,0,0
56571,33148,6282,1,0,0
56567,33215,6247,1,0,0
56519,33291,6206,1,0,0
56447,33369,6160,1,0,0
56379,33449,6109,1,0,0
56317,33530,6049,1,0,0
56251,33613,5985,1,0,0
56194,33695,5917,1,0,0
56171,33779,5844,1,0,0
56176,33863,5767,1,0,0
56187,33943,5698,1,0,0
56209,34023,5638,1,0,0
56250,34103,5581,1,0,0
56279,34181,5529,1,0,0
56267,34252,5489,1,0,0
56229,34314,5467,1,0,0
56186,34362,5458,1,0,0
56121,34400,5462,1,0,0
56025,34429,5482,1,0,0
55936,34445,5513,1,0,0
55879,34449,5545,1,0,0
55842,34449,5584,1,0,0
55823,34444,5637,1,0,0
55839,34441,5700,1,0,0
55894,34447,5770,1,0,0
55962,34463,5847,1,0,0
56030,34483,5937,1,0,0
56103,34504,6045,1,0,0
56180,34530,6165,1,0,0
56231,34563,6292,1,0,0
56241,34600,6426,1,0,0
56226,34639,6568,1,0,0
56188,34679,6712,1,0,0
56121,34721,6852,1,0,0
56036,34762,6988,1,0,0
55968,34801,7120,1,0,0
55922,34834,7241,1,0,0
55880,34859,7345,1,0,0
55855,34878,7436,1,0,0
55877,34889,7520,1,0,0
55930,34892,7596,1,0,0
55978,34889,7661,1,0,0
56031,34879,7720,1,0,0
56103,34860,7776,1,0,0
56161,34834,7826,1,0,0
56160,34801,7866,1,0,0
56105,34761,7904,1,0,0
56020,34718,7945,1,0,0
55895,34673,7986,1,0,0
55715,34629,8027,1,0,0
55498,34583,8074,1,0,0
55279,34537,8130,1,0,0
55075,34495,8189,1,0,0
54890,34463,8249,1,0,0
54749,34437,8317,1,0,0
54669,34419,8386,1,0,0
54634,34408,8443,1,0,0
54630,34406,8489,1,0,0
54664,34408,8527,1,0,0
54725,34410,8552,1,0,0
54769,34408,8562,1,0,0
54772,34400,8560,1,0,0
54753,34387,8551,1,0,0
54712,34373,8532,1,0,0
54615,34354,8507,1,0,0
54455,34323,8481,1,0,0
54266,34282,8453,1,0,0
54064,34236,8416,1,0,0
53842,34191,8375,1,0,0
53617,34147,8336,1,0,0
53428,34102,8300,1,0,0
53292,34065,8264,1,0,0
53204,34040,8223,1,0,0
53171,34024,8180,1,0,0
53210,34015,8138,1,0,0
53309,34012,8094,1,0,0
53429,34005,8048,1,0,0
53554,33989,8008,1,0,0
53688,33966,7977,1,0,0
53793,33941,7955,1,0,0
53829,33913,7941,1,0,0
53804,33879,7936,1,0,0
53748,33843,7947,1,0,0
53649,33815,7968,1,0,0
53498,33801,7990,1,0,0
53331,33803,8015,1,0,0
53191,33821,8044,1,0,0
53080,33849,8067,1,0,0
52987,33878,8076,1,0,0
52930,33910,8073,1,0,0
52922,33944,8061,1,0,0
52939,33973,8037,1,0,0
52957,33991,8001,1,0,0
52984,33991,7960,1,0,0
53026,33971,7916,1,0,0
53064,33938,7864,1,0,0
53078,33894,7810,1,0,0
53083,33844,7768,1,0,0
53089,33800,7739,1,0,0
53079,33766,7712,1,0,0
53045,33739,7685,1,0,0
53014,33720,7667,1,0,0
53003,33712,7657,1,0,0
52996,33710,7645,1,0,0
52984,33711,7628,1,0,0
53000,33711,7612,1,0,0
53055,33708,7597,1,0,0
53127,33701,7576,1,0,0
53217,33689,7551,1,0,0
53355,33672,7522,1,0,0
53533,33653,7492,1,0,0
53711,33636,7454,1,0,0
53878,33621,7411,1,0,0
54055,33609,7363,1,0,0
54235,33600,7311,1,0,0
54394,33589,7258,1,0,0
54538,33575,7203,1,0,0
54685,33563,7153,1,0,0
54824,33554,7110,1,0,0
54930,33544,7076,1,0,0
54999,33523,7051,1,0,0
55045,33492,7029,1,0,0
55064,33461,7006,1,0,0
55047,33438,6985,1,0,0
55010,33419,6968,1,0,0
54986,33402,6952,1,0,0
54971,33388,6931,1,0,0
54962,33379,6909,1,0,0
54995,33377,6889,1,0,0
55096,33382,6868,1,0,0
55237,33393,6849,1,0,0
55383,33409,6834,1,0,0
55542,33434,6823,1,0,0
55714,33472,6812,1,0,0
55855,33523,6799,1,0,0
55937,33589,6789,1,0,0
55975,33668,6784,1,0,0
55982,33755,6785,1,0,0
55940,33845,6779,1,0,0
55853,33935,6765,1,0,0
55752,34029,6750,1,0,0
55665,34128,6737,1,0,0
55587,34232,6713,1,0,0
55520,34332,6677,1,0,0
55486,34423,6640,1,0,0
55489,34508,6600,1,0,0
55502,34589,6552,1,0,0
55513,34661,6499,1,0,0
55532,34722,6447,1,0,0
55545,34772,6400,1,0,0
55519,34809,6359,1,0,0
55452,34827,6331,1,0,0
55376,34827,6317,1,0,0
55292,34815,6316,1,0,0
55173,34792,6333,1,0,0
55038,34757,6374,1,0,0
54928,34712,6437,1,0,0
54837,34660,6517,1,0,0
54746,34609,6614,1,0,0
54678,34562,6729,1,0,0
54658,34522,6857,1,0,0
54667,34501,6991,1,0,0
54674,34502,7123,1,0,0
54687,34530,7254,1,0,0
54722,34580,7384,1,0,0
54755,34641,7509,1,0,0
54765,34707,7628,1,0,0
54761,34770,7746,1,0,0
54756,34826,7870,1,0,0
54739,34879,7994,1,0,0
54704,34930,8115,1,0,0
54656,34973,8241,1,0,0
54596,35005,8372,1,0,0
54511,35032,8492,1,0,0
54399,35049,8593,1,0,0
54275,35058,8681,1,0,0
54148,35060,8759,1,0,0
54008,35051,8821,1,0,0
53859,35029,8868,1,0,0
53731,35001,8900,1,0,0
53636,34971,8915,1,0,0
53555,34950,8919,1,0,0
53487,34940,8918,1,0,0
53449,34939,8916,1,0,0
53434,34946,8912,1,0,0
53410,34960,8909,1,0,0
53372,34979,8919,1,0,0
53346,34998,8939,1,0,0
53319,35014,8967,1,0,0
53257,35023,9007,1,0,0
53177,35022,9059,1,0,0
53113,35015,9117,1,0,0
53056,35004,9177,1,0,0
52984,34988,9233,1,0,0
52917,34967,9281,1,0,0
52886,34943,9320,1,0,0
52885,34914,9346,1,0,0
52892,34884,9357,1,0,0
52908,34856,9353,1,0,0
52942,34829,9331,1,0,0
52977,34807,9288,1,0,0
52988,34792,9230,1,0,0
52973,34784,9165,1,0,0
52947,34785,9099,1,0,0
52904,34795,9035,1,0,0
52834,34811,8973,1,0,0
52758,34828,8921,1,0,0
52701,34841,8881,1,0,0
52656,34852,8853,1,0,0
52618,34863,8832,1,0,0
52618,34865,8822,1,0,0
52665,34855,8822,1,0,0
52726,34833,8817,1,0,0
52778,34801,8803,1,0,0
52838,34765,8783,1,0,0
52903,34730,8757,1,0,0
52935,34696,8725,1,0,0
52928,34660,8692,1,0,0
52917,34619,8665,1,0,0
52922,34580,8646,1,0,0
52929,34547,8638,1,0,0
52944,34519,8651,1,0,0
53001,34490,8682,1,0,0
53103,34454,8725,1,0,0
53228,34413,8777,1,0,0
53380,34371,8838,1,0,0
53581,34329,8901,1,0,0
53809,34290,8961,1,0,0
54016,34258,9014,1,0,0
54194,34228,9059,1,0,0
54354,34206,9090,1,0,0
54473,34195,9102,1,0,0
54516,34196,9094,1,0,0
54489,34207,9071,1,0,0
54427,34224,9038,1,0,0
54346,34245,8999,1,0,0
54249,34267,8953,1,0,0
54166,34288,8903,1,0,0
54147,34304,8848,1,0,0
54202,34312,8787,1,0,0
54323,34311,8721,1,0,0
54520,34300,8657,1,0,0
54797,34285,8603,1,0,0
55110,34267,8556,1,0,0
55406,34248,8508,1,0,0
55668,34224,8462,1,0,0
55880,34197,8423,1,0,0
55995,34178,8387,1,0,0
55991,34167,8346,1,0,0
55901,34162,8307,1,0,0
55757,34163,8273,1,0,0
55563,34167,8233,1,0,0
55341,34167,8187,1,0,0
55150,34164,8144,1,0,0
55029,34157,8106,1,0,0
54965,34148,8064,1,0,0
54953,34135,8016,1,0,0
55016,34114,7970,1,0,0
55148,34085,7928,1,0,0
55294,34052,7883,1,0,0
55433,34024,7837,1,0,0
55584,34006,7795,1,0,0
55734,33998,7755,1,0,0
55835,34004,7713,1,0,0
55883,34030,7671,1,0,0
55910,34079,7625,1,0,0
55911,34150,7571,1,0,0
55858,34240,7511,1,0,0
55771,34349,7449,1,0,0
55688,34469,7382,1,0,0
55592,34599,7311,1,0,0
55454,34739,7243,1,0,0
55286,34882,7183,1,0,0
55109,35023,7129,1,0,0
54917,35160,7080,1,0,0
54700,35289,7039,1,0,0
54478,35409,7008,1,0,0
54279,35524,6981,1,0,0
54103,35638,6954,1,0,0
53937,35751,6928,1,0,0
53798,35858,6901,1,0,0
53704,35956,6872,1,0,0
53638,36047,6837,1,0,0
53576,36132,6793,1,0,0
53525,36211,6745,1,0,0
53488,36284,6698,1,0,0
53436,36350,6656,1,0,0
53339,36404,6624,1,0,0
53204,36447,6607,1,0,0
53049,36479,6609,1,0,0
52876,36498,6631,1,0,0
52686,36507,6674,1,0,0
52503,36509,6740,1,0,0
52348,36509,6828,1,0,0
52214,36514,6925,1,0,0
52097,36527,7029,1,0,0
52014,36543,7148,1,0,0
51966,36558,7283,1,0,0
51935,36574,7427,1,0,0
51917,36588,7577,1,0,0
51925,36601,7732,1,0,0
51953,36615,7890,1,0,0
51977,36631,8042,1,0,0
51993,36645,8190,1,0,0
52016,36658,8332,1,0,0
52037,36672,8465,1,0,0
52031,36685,8587,1,0,0
52001,36693,8696,1,0,0
51968,36692,8789,1,0,0
51928,36683,8865,1,0,0
51858,36667,8929,1,0,0
51769,36646,8984,1,0,0
51691,36619,9034,1,0,0
51625,36589,9079,1,0,0
51565,36556,9126,1,0,0
51523,36523,9179,1,0,0
51514,36494,9236,1,0,0
51525,36470,9296,1,0,0
51535,36453,9362,1,0,0
51551,36439,9432,1,0,0
51576,36423,9496,1,0,0
51578,36406,9556,1,0,0
51530,36387,9614,1,0,0
51454,36367,9668,1,0,0
51373,36348,9713,1,0,0
51273,36328,9749,1,0,0
51154,36303,9777,1,0,0
51050,36273,9798,1,0,0
50983,36240,9811,1,0,0
50936,36215,9823,1,0,0
50907,36202,9837,1,0,0
50930,36201,9850,1,0,0
51010,36208,9861,1,0,0
51114,36224,9869,1,0,0
51228,36245,9871,1,0,0
51361,36271,9859,1,0,0
51491,36301,9828,1,0,0
51570,36329,9783,1,0,0
51596,36348,9730,1,0,0
51591,36351,9671,1,0,0
51542,36341,9606,1,0,0
51419,36323,9535,1,0,0
51241,36297,9463,1,0,0
51058,36265,9401,1,0,0
50883,36232,9351,1,0,0
50711,36202,9309,1,0,0
50569,36178,9275,1,0,0
50489,36161,9249,1,0,0
50464,36152,9229,1,0,0
50469,36149,9211,1,0,0
50502,36140,9199,1,0,0
50569,36120,9192,1,0,0
50643,36088,9185,1,0,0
50692,36045,9173,1,0,0
50718,35992,9156,1,0,0
50734,35931,9134,1,0,0
50723,35863,9108,1,0,0
50673,35790,9079,1,0,0
50596,35716,9051,1,0,0
50506,35648,9024,1,0,0
50394,35591,8994,1,0,0
50254,35547,8966,1,0,0
50106,35515,8942,1,0,0
49969,35496,8919,1,0,0
49838,35488,8893,1,0,0
49709,35486,8864,1,0,0
49602,35485,8837,1,0,0
49522,35486,8810,1,0,0
49462,35486,8780,1,0,0
49430,35475,8748,1,0,0
49448,35453,8711,1,0,0
49517,35427,8663,1,0,0
49620,35400,8603,1,0,0
49752,35369,8535,1,0,0
49931,35331,8457,1,0,0
50148,35286,8370,1,0,0
50361,35239,8278,1,0,0
50548,35194,8193,1,0,0
50717,35156,8115,1,0,0
50862,35130,8041,1,0,0
50955,35111,7974,1,0,0
50995,35093,7917,1,0,0
51014,35075,7864,1,0,0
51019,35060,7814,1,0,0
50996,35047,7768,1,0,0
50961,35033,7723,1,0,0
50952,35016,7673,1,0,0
50972,34997,7614,1,0,0
50998,34977,7548,1,0,0
51044,34958,7478,1,0,0
51134,34944,7402,1,0,0
51245,34940,7322,1,0,0
51342,34942,7244,1,0,0
51436,34949,7170,1,0,0
51536,34959,7097,1,0,0
51611,34973,7029,1,0,0
51632,34991,6971,1,0,0
51615,35013,6921,1,0,0
51584,35034,6875,1,0,0
51518,35053,6832,1,0,0
51413,35075,6789,1,0,0
51310,35100,6749,1,0,0
51241,35132,6712,1,0,0
51197,35177,6676,1,0,0
51177,35235,6641,1,0,0
51211,35308,6608,1,0,0
51315,35394,6574,1,0,0
51461,35493,6537,1,0,0
51632,35598,6501,1,0,0
51841,35702,6471,1,0,0
52075,35800,6450,1,0,0
52287,35893,6429,1,0,0
52456,35983,6411,1,0,0
52582,36067,6402,1,0,0
52656,36140,6399,1,0,0
52659,36196,6391,1,0,0
52599,36232,6372,1,0,0
52507,36254,6346,1,0,0
52394,36271,6310,1,0,0
52257,36283,6260,1,0,0
52111,36294,6198,1,0,0
51986,36302,6134,1,0,0
51888,36304,6074,1,0,0
51803,36309,6020,1,0,0
51737,36318,5976,1,0,0
51711,36333,5950,1,0,0
51726,36348,5946,1,0,0
51760,36362,5968,1,0,0
51812,36375,6021,1,0,0
51894,36390,6100,1,0,0
51994,36410,6205,1,0,0
52091,36429,6331,1,0,0
52186,36446,6474,1,0,0
52288,36461,6627,1,0,0
52383,36477,6785,1,0,0
52457,36495,6953,1,0,0
52523,36515,7128,1,0,0
52591,36531,7301,1,0,0
52640,36545,7468,1,0,0
52651,36552,7625,1,0,0
52643,36549,7774,1,0,0
52631,36539,7913,1,0,0
52593,36526,8039,1,0,0
52522,36509,8151,1,0,0
52453,36488,8254,1,0,0
52401,36462,8348,1,0,0
52340,36429,8429,1,0,0
52265,36390,8501,1,0,0
52205,36344,8568,1,0,0
52168,36293,8627,1,0,0
52126,36242,8672,1,0,0
52077,36193,8700,1,0,0
52049,36148,8721,1,0,0
52036,36109,8741,1,0,0
52004,36075,8758,1,0,0
51954,36040,8774,1,0,0
51916,36000,8792,1,0,0
51885,35956,8813,1,0,0
51825,35915,8836,1,0,0
51733,35878,8858,1,0,0
51631,35844,8880,1,0,0
51508,35817,8899,1,0,0
51349,35797,8912,1,0,0
51174,35776,8921,1,0,0
51016,35756,8930,1,0,0
50884,35743,8941,1,0,0
50775,35742,8950,1,0,0
50712,35751,8954,1,0,0
50718,35766,8958,1,0,0
50784,35780,8960,1,0,0
50885,35784,8961,1,0,0
51015,35775,8962,1,0,0
51173,35756,8958,1,0,0
51335,35730,8942,1,0,0
51474,35696,8919,1,0,0
51588,35653,8894,1,0,0
51677,35603,8861,1,0,0
51715,35550,8815,1,0,0
51691,35498,8758,1,0,0
51622,35447,8693,1,0,0
51518,35399,8616,1,0,0
51367,35354,8533,1,0,0
51165,35309,8450,1,0,0
50945,35266,8365,1,0,0
50728,35225,8277,1,0,0
50505,35187,8195,1,0,0
50291,35156,8129,1,0,0
50133,35130,8080,1,0,0
50055,35107,8045,1,0,0
50037,35087,8027,1,0,0
50072,35069,8030,1,0,0
50174,35052,8049,1,0,0
50320,35035,8070,1,0,0
50456,35011,8090,1,0,0
50563,34981,8114,1,0,0
50653,34951,8136,1,0,0
50705,34920,8150,1,0,0
50687,34893,8155,1,0,0
50610,34870,8154,1,0,0
50503,34846,8146,1,0,0
50366,34820,8127,1,0,0
50193,34798,8103,1,0,0
50021,34782,8073,1,0,0
49900,34774,8038,1,0,0
49844,34774,7999,1,0,0
49846,34777,7964,1,0,0
49917,34782,7934,1,0,0
50065,34788,7902,1,0,0
50272,34796,7866,1,0,0
50499,34811,7834,1,0,0
50726,34833,7806,1,0,0
50942,34856,7769,1,0,0
51116,34875,7720,1,0,0
51230,34891,7666,1,0,0
51303,34901,7612,1,0,0
51351,34905,7551,1,0,0
51365,34906,7487,1,0,0
51350,34905,7427,1,0,0
51349,34898,7369,1,0,0
51397,34885,7311,1,0,0
51483,34866,7253,1,0,0
51594,34845,7196,1,0,0
51751,34822,7137,1,0,0
51949,34793,7072,1,0,0
52142,34758,7010,1,0,0
52303,34720,6959,1,0,0
52437,34681,6918,1,0,0
52539,34646,6877,1,0,0
52589,34621,6838,1,0,0
52594,34606,6805,1,0,0
52589,34604,6773,1,0,0
52597,34618,6733,1,0,0
52620,34644,6687,1,0,0
52677,34677,6642,1,0,0
52796,34713,6598,1,0,0
52969,34757,6552,1,0,0
53159,34812,6511,1,0,0
53351,34873,6477,1,0,0
53557,34933,6445,1,0,0
53755,34996,6414,1,0,0
53900,35065,6387,1,0,0
53991,35139,6362,1,0,0
54057,35223,6328,1,0,0
54088,35320,6283,1,0,0
54066,35428,6234,1,0,0
54023,35539,6186,1,0,0
54004,35647,6137,1,0,0
54017,35751,6086,1,0,0
54060,35859,6037,1,0,0
54154,35967,5996,1,0,0
54301,36065,5960,1,0,0
54464,36148,5926,1,0,0
54612,36218,5900,1,0,0
54760,36274,5877,1,0,0
54904,36322,5850,1,0,0
54996,36366,5826,1,0,0
55003,36406,5808,1,0,0
54937,36441,5791,1,0,0
54810,36474,5770,1,0,0
54616,36509,5755,1,0,0
54363,36548,5759,1,0,0
54080,36586,5779,1,0,0
53800,36620,5811,1,0,0
53541,36648,5864,1,0,0
53331,36666,5943,1,0,0
53210,36673,6045,1,0,0
53185,36668,6166,1,0,0
53225,36657,6306,1,0,0
53312,36643,6467,1,0,0
53452,36631,6640,1,0,0
53618,36627,6811,1,0,0
53757,36632,6974,1,0,0
53858,36649,7130,1,0,0
53949,36676,7277,1,0,0
54020,36712,7412,1,0,0
54046,36755,7532,1,0,0
54052,36796,7637,1,0,0
54082,36828,7731,1,0,0
54126,36845,7812,1,0,0
54159,36847,7883,1,0,0
54199,36829,7948,1,0,0
54268,36790,8010,1,0,0
54348,36735,8069,1,0,0
54413,36663,8126,1,0,0
54469,36582,8180,1,0,0
54534,36501,8230,1,0,0
54593,36424,8280,1,0,0
54627,36357,8328,1,0,0
54641,36303,8373,1,0,0
54638,36263,8415,1,0,0
54593,36239,8451,1,0,0
54495,36232,8484,1,0,0
54375,36234,8520,1,0,0
54263,36237,8556,1,0,0
54151,36239,8586,1,0,0
54039,36232,8610,1,0,0
53963,36216,8632,1,0,0
53945,36190,8650,1,0,0
53951,36156,8659,1,0,0
53956,36114,8661,1,0,0
53982,36068,8662,1,0,0
54028,36020,8659,1,0,0
54050,35970,8645,1,0,0
54022,35922,8622,1,0,0
53967,35879,8597,1,0,0
53888,35846,8563,1,0,0
53770,35822,8524,1,0,0
53627,35805,8483,1,0,0
53499,35795,8444,1,0,0
53399,35787,8405,1,0,0
53312,35776,8364,1,0,0
53245,35760,8324,1,0,0
53229,35740,8279,1,0,0
53260,35712,8226,1,0,0
53303,35674,8170,1,0,0
53358,35633,8117,1,0,0
53438,35586,8067,1,0,0
53511,35534,8017,1,0,0
53532,35484,7972,1,0,0
53515,35439,7937,1,0,0
53486,35401,7912,1,0,0
53427,35373,7892,1,0,0
53311,35356,7879,1,0,0
53154,35344,7875,1,0,0
52988,35341,7876,1,0,0
52815,35351,7879,1,0,0
52631,35371,7884,1,0,0
52458,35393,7890,1,0,0
52318,35412,7887,1,0,0
52208,35427,7872,1,0,0
52121,35438,7849,1,0,0
52074,35443,7819,1,0,0
52072,35438,7776,1,0,0
52091,35421,7722,1,0,0
52120,35396,7667,1,0,0
52169,35363,7609,1,0,0
52230,35322,7546,1,0,0
52266,35276,7480,1,0,0
52256,35225,7416,1,0,0
52215,35171,7355,1,0,0
52143,35122,7295,1,0,0
52015,35086,7237,1,0,0
51841,35067,7189,1,0,0
51671,35062,7144,1,0,0
51517,35069,7097,1,0,0
51350,35082,7051,1,0,0
51175,35097,7007,1,0,0
51027,35108,6962,1,0,0
50914,35117,6912,1,0,0
50816,35128,6859,1,0,0
50745,35134,6807,1,0,0
50734,35133,6763,1,0,0
50778,35124,6726,1,0,0
50852,35109,6694,1,0,0
50958,35089,6668,1,0,0
51110,35061,6649,1,0,0
51290,35024,6633,1,0,0
51465,34985,6616,1,0,0
51625,34944,6596,1,0,0
51782,34902,6573,1,0,0
51919,34859,6545,1,0,0
52015,34816,6509,1,0,0
52081,34770,6469,1,0,0
52138,34725,6424,1,0,0
52181,34690,6373,1,0,0
52204,34666,6315,1,0,0
52239,34650,6256,1,0,0
52308,34638,6196,1,0,0
52385,34632,6132,1,0,0
52457,34637,6072,1,0,0
52554,34655,6016,1,0,0
52688,34683,5960,1,0,0
52829,34719,5903,1,0,0
52960,34766,5851,1,0,0
53096,34827,5803,1,0,0
53232,34905,5752,1,0,0
53332,34999,5699,1,0,0
53379,35108,5648,1,0,0
53386,35228,5596,1,0,0
53351,35353,5541,1,0,0
53264,35477,5490,1,0,0
53139,35601,5450,1,0,0
53006,35719,5415,1,0,0
52881,35829,5377,1,0,0
52762,35926,5343,1,0,0
52663,36011,5317,1,0,0
52615,36085,5293,1,0,0
52619,36151,5265,1,0,0
52646,36211,5233,1,0,0
52702,36266,5204,1,0,0
52806,36315,5187,1,0,0
52937,36359,5184,1,0,0
53058,36399,5201,1,0,0
53173,36434,5246,1,0,0
53300,36465,5315,1,0,0
53413,36492,5409,1,0,0
53480,36513,5525,1,0,0
53510,36527,5660,1,0,0
53526,36536,5807,1,0,0
53516,36541,5957,1,0,0
53470,36542,6102,1,0,0
53414,36533,6242,1,0,0
53375,36516,6373,1,0,0
53346,36497,6489,1,0,0
53315,36487,6587,1,0,0
53298,36489,6671,1,0,0
53309,36504,6741,1,0,0
53338,36528,6795,1,0,0
53368,36556,6839,1,0,0
53406,36588,6883,1,0,0
53459,36627,6925,1,0,0
53514,36673,6963,1,0,0
53555,36720,7002,1,0,0
53592,36759,7044,1,0,0
53627,36783,7089,1,0,0
53627,36791,7136,1,0,0
53583,36788,7183,1,0,0
53515,36770,7223,1,0,0
53433,36735,7251,1,0,0
53328,36687,7268,1,0,0
53216,36629,7280,1,0,0
53145,36564,7285,1,0,0
53118,36497,7279,1,0,0
53102,36436,7269,1,0,0
53096,36381,7263,1,0,0
53132,36328,7265,1,0,0
53198,36280,7275,1,0,0
53249,36244,7298,1,0,0
53278,36218,7335,1,0,0
53303,36196,7376,1,0,0
53303,36176,7413,1,0,0
53247,36155,7450,1,0,0
53157,36130,7486,1,0,0
53068,36102,7509,1,0,0
52977,36076,7512,1,0,0
52871,36055,7499,1,0,0
52775,36041,7474,1,0,0
52720,36034,7437,1,0,0
52700,36032,7391,1,0,0
52695,36035,7342,1,0,0
52704,36039,7289,1,0,0
52731,36042,7234,1,0,0
52760,36045,7179,1,0,0
52778,36047,7125,1,0,0
52800,36044,7073,1,0,0
52837,36037,7026,1,0,0
52875,36026,6982,1,0,0
52906,36014,6939,1,0,0
52945,35998,6900,1,0,0
52996,35973,6861,1,0,0
53029,35939,6814,1,0,0
53026,35899,6764,1,0,0
53012,35852,6717,1,0,0
52994,35804,6674,1,0,0
52939,35763,6631,1,0,0
52841,35731,6590,1,0,0
52737,35703,6560,1,0,0
52642,35678,6541,1,0,0
52542,35657,6529,1,0,0
52451,35639,6521,1,0,0
52415,35621,6520,1,0,0
52448,35598,6523,1,0,0
52522,35569,6524,1,0,0
52636,35537,6519,1,0,0
52817,35499,6511,1,0,0
53034,35456,6494,1,0,0
53223,35409,6467,1,0,0
53368,35357,6434,1,0,0
53483,35304,6396,1,0,0
53543,35258,6351,1,0,0
53509,35222,6301,1,0,0
53387,35201,6252,1,0,0
53214,35194,6206,1,0,0
53004,35190,6164,1,0,0
52761,35190,6124,1,0,0
52517,35192,6088,1,0,0
52312,35195,6059,1,0,0
52160,35200,6036,1,0,0
52057,35203,6013,1,0,0
52015,35201,5992,1,0,0
52038,35191,5971,1,0,0
52096,35176,5942,1,0,0
52158,35159,5902,1,0,0
52212,35139,5860,1,0,0
52246,35117,5816,1,0,0
52225,35093,5771,1,0,0
52130,35074,5730,1,0,0
51975,35062,5704,1,0,0
51776,35059,5693,1,0,0
51532,35062,5696,1,0,0
51264,35072,5712,1,0,0
51021,35086,5747,1,0,0
50830,35100,5797,1,0,0
50682,35108,5848,1,0,0
50586,35107,5894,1,0,0
50577,35099,5935,1,0,0
50648,35088,5968,1,0,0
50759,35076,5985,1,0,0
50899,35066,5985,1,0,0
51085,35058,5969,1,0,0
51299,35052,5938,1,0,0
51503,35042,5892,1,0,0
51688,35031,5836,1,0,0
51864,35017,5778,1,0,0
52013,35002,5723,1,0,0
52108,34987,5673,1,0,0
52155,34970,5628,1,0,0
52180,34948,5592,1,0,0
52188,34931,5562,1,0,0
52172,34922,5536,1,0,0
52148,34917,5514,1,0,0
52138,34917,5495,1,0,0
52147,34922,5477,1,0,0
52162,34938,5459,1,0,0
52187,34968,5442,1,0,0
52233,35009,5425,1,0,0
52292,35059,5406,1,0,0
52351,35125,5382,1,0,0
52417,35206,5355,1,0,0
52497,35295,5328,1,0,0
52576,35391,5300,1,0,0
52639,35490,5273,1,0,0
52695,35590,5253,1,0,0
52745,35693,5248,1,0,0
52759,35798,5258,1,0,0
52726,35902,5286,1,0,0
52673,36003,5335,1,0,0
52623,36099,5404,1,0,0
52569,36186,5489,1,0,0
52519,36264,5591,1,0,0
52513,36330,5714,1,0,0
52565,36382,5852,1,0,0
52648,36418,5997,1,0,0
52757,36439,6146,1,0,0
52912,36443,6304,1,0,0
53094,36435,6463,1,0,0
53247,36419,6616,1,0,0
53357,36399,6760,1,0,0
53439,36378,6897,1,0,0
53477,36357,7023,1,0,0
53437,36340,7136,1,0,0
53325,36335,7233,1,0,0
53175,36337,7316,1,0,0
52999,36344,7387,1,0,0
52802,36356,7449,1,0,0
52604,36370,7500,1,0,0
52436,36382,7543,1,0,0
52307,36398,7580,1,0,0
52211,36423,7613,1,0,0
52158,36453,7641,1,0,0
52168,36483,7663,1,0,0
52224,36510,7680,1,0,0
52297,36534,7694,1,0,0
52384,36553,7713,1,0,0
52490,36562,7733,1,0,0
52583,36560,7750,1,0,0
52637,36548,7764,1,0,0
52670,36528,7781,1,0,0
52698,36506,7800,1,0,0
52700,36483,7814,1,0,0
52665,36457,7824,1,0,0
52625,36429,7833,1,0,0
52607,36397,7836,1,0,0
52597,36360,7833,1,0,0
52590,36322,7827,1,0,0
52604,36283,7823,1,0,0
52645,36238,7818,1,0,0
52680,36190,7804,1,0,0
52692,36139,7783,1,0,0
52697,36085,7758,1,0,0
52697,36031,7727,1,0,0
52671,35979,7682,1,0,0
52614,35930,7621,1,0,0
52549,35885,7544,1,0,0
52489,35846,7457,1,0,0
52424,35814,7370,1,0,0
52355,35791,7291,1,0,0
52309,35779,7222,1,0,0
52293,35773,7160,1,0,0
52282,35768,7105,1,0,0
52268,35760,7057,1,0,0
52264,35750,7009,1,0,0
52261,35744,6958,1,0,0
52223,35744,6907,1,0,0
52150,35745,6860,1,0,0
52073,35740,6816,1,0,0
51997,35726,6772,1,0,0
51913,35704,6733,1,0,0
51836,35676,6700,1,0,0
51799,35646,6671,1,0,0
51797,35620,6644,1,0,0
51811,35604,6623,1,0,0
51855,35596,6609,1,0,0
51938,35597,6598,1,0,0
52018,35607,6588,1,0,0
52059,35623,6580,1,0,0
52078,35637,6577,1,0,0
52094,35648,6569,1,0,0
52071,35655,6554,1,0,0
51989,35653,6537,1,0,0
51879,35638,6524,1,0,0
51763,35609,6509,1,0,0
51632,35564,6491,1,0,0
51492,35510,6475,1,0,0
51383,35458,6463,1,0,0
51333,35408,6451,1,0,0
51328,35364,6442,1,0,0
51358,35323,6441,1,0,0
51428,35285,6441,1,0,0
51521,35253,6436,1,0,0
51592,35229,6431,1,0,0
51621,35212,6431,1,0,0
51618,35196,6430,1,0,0
51575,35175,6424,1,0,0
51458,35150,6417,1,0,0
51274,35124,6415,1,0,0
51069,35092,6413,1,0,0
50865,35056,6408,1,0,0
50657,35024,6403,1,0,0
50479,34999,6400,1,0,0
50373,34984,6395,1,0,0
50329,34978,6382,1,0,0
50312,34980,6362,1,0,0
50329,34990,6336,1,0,0
50396,35004,6304,1,0,0
50475,35017,6266,1,0,0
50525,35028,6227,1,0,0
50561,35038,6189,1,0,0
50606,35048,6150,1,0,0
50637,35057,6117,1,0,0
50637,35065,6090,1,0,0
50631,35066,6068,1,0,0
50650,35054,6050,1,0,0
50684,35032,6039,1,0,0
50722,35000,6038,1,0,0
50797,34965,6041,1,0,0
50932,34930,6045,1,0,0
51098,34899,6047,1,0,0
51273,34872,6047,1,0,0
51472,34848,6042,1,0,0
51698,34833,6025,1,0,0
51916,34831,5994,1,0,0
52106,34840,5951,1,0,0
52281,34853,5898,1,0,0
52451,34860,5836,1,0,0
52599,34856,5764,1,0,0
52714,34841,5688,1,0,0
52814,34818,5616,1,0,0
52906,34786,5550,1,0,0
52972,34746,5488,1,0,0
53007,34695,5433,1,0,0
53031,34631,5388,1,0,0
53041,34559,5353,1,0,0
53015,34491,5319,1,0,0
52968,34439,5284,1,0,0
52936,34408,5254,1,0,0
52930,34401,5230,1,0,0
52935,34422,5209,1,0,0
52967,34471,5195,1,0,0
53062,34542,5194,1,0,0
53219,34627,5210,1,0,0
53402,34720,5245,1,0,0
53614,34815,5303,1,0,0
53867,34912,5385,1,0,0
54115,35006,5488,1,0,0
54300,35096,5609,1,0,0
54422,35187,5744,1,0,0
54495,35281,5890,1,0,0
54494,35372,6041,1,0,0
54401,35459,6191,1,0,0
54255,35543,6341,1,0,0
54102,35626,6488,1,0,0
53940,35707,6625,1,0,0
53774,35784,6750,1,0,0
53653,35855,6863,1,0,0
53613,35923,6964,1,0,0
53625,35983,7048,1,0,0
53660,36033,7118,1,0,0
53732,36073,7179,1,0,0
53840,36100,7231,1,0,0
53936,36114,7275,1,0,0
53986,36117,7314,1,0,0
53997,36112,7353,1,0,0
53973,36104,7390,1,0,0
53894,36103,7424,1,0,0
53762,36110,7462,1,0,0
53611,36122,7507,1,0,0
53465,36134,7559,1,0,0
53317,36148,7619,1,0,0
53181,36169,7685,1,0,0
53091,36195,7748,1,0,0
53054,36223,7802,1,0,0
53051,36250,7848,1,0,0
53083,36278,7885,1,0,0
53168,36301,7911,1,0,0
53291,36318,7926,1,0,0
53408,36329,7936,1,0,0
53507,36332,7946,1,0,0
53602,36325,7955,1,0,0
53672,36312,7967,1,0,0
53676,36295,7989,1,0,0
53618,36278,8022,1,0,0
53528,36257,8062,1,0,0
53400,36227,8104,1,0,0
53219,36188,8147,1,0,0
53023,36144,8189,1,0,0
52858,36102,8221,1,0,0
52715,36063,8235,1,0,0
52581,36033,8232,1,0,0
52492,36006,8214,1,0,0
52466,35980,8180,1,0,0
52463,35954,8129,1,0,0
52450,35932,8068,1,0,0
52442,35913,8000,1,0,0
52450,35893,7927,1,0,0
52436,35873,7857,1,0,0
52375,35847,7800,1,0,0
52294,35810,7755,1,0,0
52217,35770,7720,1,0,0
52123,35731,7698,1,0,0
52004,35699,7693,1,0,0
51886,35674,7697,1,0,0
51778,35654,7699,1,0,0
51660,35637,7704,1,0,0
51520,35627,7712,1,0,0
51384,35623,7713,1,0,0
51260,35625,7701,1,0,0
51128,35633,7682,1,0,0
50991,35641,7660,1,0,0
50879,35641,7628,1,0,0
50794,35628,7583,1,0,0
50709,35607,7538,1,0,0
50633,35581,7498,1,0,0
50598,35551,7461,1,0,0
50602,35514,7425,1,0,0
50616,35471,7395,1,0,0
50655,35425,7372,1,0,0
50742,35380,7353,1,0,0
50851,35342,7333,1,0,0
50941,35313,7316,1,0,0
51006,35291,7305,1,0,0
51051,35278,7293,1,0,0
51061,35272,7280,1,0,0
51019,35275,7272,1,0,0
50937,35285,7265,1,0,0
50848,35295,7250,1,0,0
50758,35300,7221,1,0,0
50666,35302,7182,1,0,0
50603,35302,7137,1,0,0
50590,35297,7085,1,0,0
50616,35290,7024,1,0,0
50674,35281,6959,1,0,0
50797,35273,6896,1,0,0
50994,35268,6835,1,0,0
51222,35268,6777,1,0,0
51444,35275,6732,1,0,0
51672,35290,6709,1,0,0
51892,35310,6703,1,0,0
52050,35337,6705,1,0,0
52119,35369,6713,1,0,0
52126,35399,6727,1,0,0
52087,35427,6742,1,0,0
51985,35451,6752,1,0,0
51842,35469,6755,1,0,0
51716,35480,6752,1,0,0
51626,35479,6743,1,0,0
51551,35472,6722,1,0,0
51512,35460,6688,1,0,0
51552,35447,6650,1,0,0
51662,35438,6611,1,0,0
51799,35436,6569,1,0,0
51964,35440,6527,1,0,0
52177,35444,6493,1,0,0
52416,35442,6468,1,0,0
52641,35431,6449,1,0,0
52844,35416,6437,1,0,0
53044,35392,6440,1,0,0
53234,35357,6453,1,0,0
53384,35312,6470,1,0,0
53495,35253,6489,1,0,0
53590,35182,6505,1,0,0
53672,35106,6512,1,0,0
53735,35029,6505,1,0,0
53803,34961,6481,1,0,0
53904,34903,6442,1,0,0
54026,34852,6386,1,0,0
54155,34809,6316,1,0,0
54315,34777,6243,1,0,0
54514,34753,6178,1,0,0
54701,34732,6120,1,0,0
54832,34719,6073,1,0,0
54922,34711,6049,1,0,0
54977,34704,6050,1,0,0
54967,34692,6064,1,0,0
54883,34677,6089,1,0,0
54771,34658,6131,1,0,0
54666,34630,6188,1,0,0
54558,34593,6253,1,0,0
54456,34557,6323,1,0,0
54410,34530,6403,1,0,0
54438,34515,6490,1,0,0
54504,34516,6576,1,0,0
54590,34538,6661,1,0,0
54715,34584,6746,1,0,0
54857,34659,6828,1,0,0
54962,34758,6906,1,0,0
55004,34878,6977,1,0,0
54996,35007,7045,1,0,0
54930,35133,7106,1,0,0
54787,35249,7160,1,0,0
54585,35355,7213,1,0,0
54373,35450,7274,1,0,0
54179,35534,7343,1,0,0
54003,35612,7424,1,0,0
53869,35684,7519,1,0,0
53811,35754,7627,1,0,0
53814,35828,7746,1,0,0
53834,35904,7870,1,0,0
53864,35980,7996,1,0,0
53907,36054,8117,1,0,0
53909,36122,8224,1,0,0
53828,36184,8312,1,0,0
53681,36242,8382,1,0,0
53493,36292,8432,1,0,0
53261,36337,8460,1,0,0
52992,36378,8468,1,0,0
52721,36414,8463,1,0,0
52484,36441,8450,1,0,0
52293,36461,8437,1,0,0
52149,36476,8429,1,0,0
52070,36494,8431,1,0,0
52063,36513,8446,1,0,0
52096,36532,8471,1,0,0
52143,36557,8508,1,0,0
52216,36590,8558,1,0,0
52306,36631,8615,1,0,0
52365,36679,8664,1,0,0
52370,36730,8702,1,0,0
52350,36782,8730,1,0,0
52325,36836,8748,1,0,0
52267,36888,8749,1,0,0
52177,36942,8729,1,0,0
52095,36998,8689,1,0,0
52037,37053,8631,1,0,0
51992,37107,8560,1,0,0
51965,37156,8485,1,0,0
51978,37197,8412,1,0,0
52017,37228,8341,1,0,0
52044,37251,8274,1,0,0
52044,37269,8212,1,0,0
52026,37280,8157,1,0,0
51975,37283,8112,1,0,0
51862,37279,8078,1,0,0
51699,37268,8052,1,0,0
51530,37250,8029,1,0,0
51359,37232,8003,1,0,0
51181,37217,7975,1,0,0
51041,37207,7948,1,0,0
50978,37202,7919,1,0,0
50975,37208,7883,1,0,0
51002,37225,7845,1,0,0
51065,37253,7808,1,0,0
51169,37285,7769,1,0,0
51282,37316,7730,1,0,0
51363,37343,7699,1,0,0
51404,37359,7676,1,0,0
51416,37365,7657,1,0,0
51391,37366,7645,1,0,0
51322,37367,7646,1,0,0
51235,37365,7658,1,0,0
51157,37362,7673,1,0,0
51083,37362,7695,1,0,0
51013,37369,7728,1,0,0
50980,37379,7764,1,0,0
50996,37387,7790,1,0,0
51029,37390,7804,1,0,0
51076,37390,7806,1,0,0
51175,37385,7793,1,0,0
51331,37376,7762,1,0,0
51500,37366,7718,1,0,0
51670,37353,7666,1,0,0
51866,37337,7609,1,0,0
52071,37313,7547,1,0,0
52227,37283,7486,1,0,0
52313,37248,7428,1,0,0
52346,37210,7371,1,0,0
52318,37172,7319,1,0,0
52202,37137,7280,1,0,0
52015,37102,7252,1,0,0
51808,37067,7233,1,0,0
51600,37036,7223,1,0,0
51389,37011,7222,1,0,0
51207,36993,7226,1,0,0
51105,36982,7226,1,0,0
51074,36974,7219,1,0,0
51079,36964,7210,1,0,0
51131,36947,7200,1,0,0
51241,36927,7183,1,0,0
51360,36907,7153,1,0,0
51433,36892,7120,1,0,0
51465,36879,7087,1,0,0
51476,36866,7054,1,0,0
51456,36850,7025,1,0,0
51395,36837,7008,1,0,0
51324,36827,6999,1,0,0
51282,36821,6989,1,0,0
51265,36815,6987,1,0,0
51279,36809,6996,1,0,0
51365,36798,7011,1,0,0
51546,36780,7022,1,0,0
51779,36755,7032,1,0,0
52029,36728,7043,1,0,0
52308,36698,7047,1,0,0
52605,36661,7038,1,0,0
52864,36622,7021,1,0,0
53054,36587,7002,1,0,0
53184,36558,6977,1,0,0
53258,36531,6944,1,0,0
53271,36510,6911,1,0,0
53249,36495,6884,1,0,0
53244,36487,6857,1,0,0
53275,36484,6824,1,0,0
53321,36482,6792,1,0,0
53394,36476,6763,1,0,0
53522,36464,6735,1,0,0
53688,36443,6706,1,0,0
53844,36414,6683,1,0,0
53987,36381,6670,1,0,0
54140,36343,6666,1,0,0
54294,36301,6671,1,0,0
54425,36259,6685,1,0,0
54544,36216,6701,1,0,0
54685,36173,6713,1,0,0
54846,36130,6718,1,0,0
55000,36088,6720,1,0,0
55154,36051,6724,1,0,0
55328,36016,6730,1,0,0
55494,35982,6748,1,0,0
55610,35952,6788,1,0,0
55685,35932,6853,1,0,0
55733,35925,6942,1,0,0
55721,35935,7059,1,0,0
55626,35965,7207,1,0,0
55490,36009,7381,1,0,0
55346,36066,7573,1,0,0
55179,36136,7778,1,0,0
54992,36220,7992,1,0,0
54829,36313,8207,1,0,0
54725,36409,8409,1,0,0
54673,36503,8590,1,0,0
54672,36592,8750,1,0,0
54746,36674,8882,1,0,0
54892,36752,8985,1,0,0
55064,36826,9069,1,0,0
55225,36895,9140,1,0,0
55360,36959,9197,1,0,0
55439,37020,9237,1,0,0
55412,37077,9265,1,0,0
55275,37128,9288,1,0,0
55068,37174,9307,1,0,0
54812,37212,9323,1,0,0
54504,37241,9337,1,0,0
54189,37265,9352,1,0,0
53932,37287,9372,1,0,0
53741,37307,9396,1,0,0
53595,37331,9427,1,0,0
53508,37356,9470,1,0,0
53500,37373,9519,1,0,0
53543,37381,9564,1,0,0
53597,37384,9603,1,0,0
53648,37389,9634,1,0,0
53700,37403,9653,1,0,0
53735,37426,9658,1,0,0
53718,37458,9650,1,0,0
53657,37495,9636,1,0,0
53583,37533,9614,1,0,0
53497,37573,9585,1,0,0
53391,37618,9552,1,0,0
53303,37659,9516,1,0,0
53264,37692,9477,1,0,0
53250,37716,9437,1,0,0
53240,37734,9399,1,0,0
53259,37746,9362,1,0,0
53321,37750,9322,1,0,0
53391,37740,9283,1,0,0
53440,37723,9245,1,0,0
53479,37706,9201,1,0,0
53513,37695,9142,1,0,0
53512,37688,9069,1,0,0
53460,37687,8987,1,0,0
53381,37690,8898,1,0,0
53292,37694,8803,1,0,0
53188,37695,8708,1,0,0
53083,37689,8621,1,0,0
53018,37675,8546,1,0,0
53004,37650,8487,1,0,0
53010,37612,8452,1,0,0
53035,37564,8441,1,0,0
53108,37510,8447,1,0,0
53208,37451,8463,1,0,0
53274,37395,8484,1,0,0
53299,37346,8504,1,0,0
53307,37305,8516,1,0,0
53278,37278,8513,1,0,0
53186,37268,8491,1,0,0
53049,37277,8452,1,0,0
52917,37294,8398,1,0,0
52807,37308,8333,1,0,0
52711,37313,8266,1,0,0
52649,37311,8207,1,0,0
52656,37301,8157,1,0,0
52717,37279,8117,1,0,0
52786,37246,8097,1,0,0
52865,37207,8091,1,0,0
52961,37164,8086,1,0,0
53031,37118,8074,1,0,0
53033,37078,8060,1,0,0
52989,37047,8048,1,0,0
52928,37021,8035,1,0,0
52834,36996,8012,1,0,0
52698,36972,7975,1,0,0
52547,36952,7932,1,0,0
52412,36927,7883,1,0,0
52287,36891,7826,1,0,0
52165,36850,7769,1,0,0
52067,36805,7720,1,0,0
52004,36756,7679,1,0,0
51953,36702,7642,1,0,0
51896,36647,7609,1,0,0
51846,36591,7588,1,0,0
51803,36536,7583,1,0,0
51744,36485,7587,1,0,0
51673,36443,7594,1,0,0
51619,36416,7602,1,0,0
51580,36401,7610,1,0,0
51526,36392,7606,1,0,0
51463,36389,7588,1,0,0
51429,36391,7560,1,0,0
51417,36394,7528,1,0,0
51389,36388,7487,1,0,0
51355,36367,7438,1,0,0
51349,36332,7387,1,0,0
51366,36285,7334,1,0,0
51380,36231,7281,1,0,0
51404,36178,7229,1,0,0
51459,36128,7178,1,0,0
51545,36084,7125,1,0,0
51646,36050,7071,1,0,0
51764,36028,7019,1,0,0
51924,36016,6965,1,0,0
52120,36013,6902,1,0,0
52320,36021,6833,1,0,0
52531,36035,6763,1,0,0
52770,36046,6692,1,0,0
52999,36050,6621,1,0,0
53181,36046,6557,1,0,0
53327,36038,6502,1,0,0
53445,36024,6451,1,0,0
53507,36003,6405,1,0,0
53493,35976,6370,1,0,0
53427,35950,6341,1,0,0
53337,35931,6309,1,0,0
53225,35918,6276,1,0,0
53100,35913,6246,1,0,0
52999,35910,6224,1,0,0
52953,35905,6207,1,0,0
52955,35899,6201,1,0,0
53008,35894,6214,1,0,0
53136,35886,6246,1,0,0
53335,35871,6294,1,0,0
53568,35841,6361,1,0,0
53814,35806,6448,1,0,0
54084,35776,6555,1,0,0
54357,35749,6679,1,0,0
54577,35725,6818,1,0,0
54728,35704,6975,1,0,0
54836,35686,7149,1,0,0
54901,35678,7330,1,0,0
54895,35684,7514,1,0,0
54819,35703,7699,1,0,0
54705,35732,7880,1,0,0
54567,35767,8048,1,0,0
54409,35809,8204,1,0,0
54261,35856,8351,1,0,0
54169,35907,8484,1,0,0
54137,35962,8599,1,0,0
54133,36028,8701,1,0,0
54158,36104,8794,1,0,0
54228,36185,8876,1,0,0
54307,36274,8948,1,0,0
54348,36372,9016,1,0,0
54363,36481,9078,1,0,0
54372,36600,9132,1,0,0
54346,36723,9181,1,0,0
54260,36844,9233,1,0,0
54132,36958,9279,1,0,0
53981,37055,9312,1,0,0
53805,37134,9333,1,0,0
53601,37194,9346,1,0,0
53392,37235,9353,1,0,0
53195,37257,9349,1,0,0
53002,37260,9339,1,0,0
52815,37249,9336,1,0,0
52671,37231,9348,1,0,0
52588,37213,9372,1,0,0
52536,37200,9412,1,0,0
52503,37194,9474,1,0,0
52520,37193,9554,1,0,0
52591,37198,9639,1,0,0
52673,37209,9727,1,0,0
52748,37224,9815,1,0,0
52840,37244,9897,1,0,0
52945,37266,9963,1,0,0
53036,37287,10009,1,0,0
53108,37304,10031,1,0,0
53178,37312,10030,1,0,0
53246,37313,10009,1,0,0
53287,37311,9975,1,0,0
53295,37310,9937,1,0,0
53289,37309,9902,1,0,0
53261,37309,9870,1,0,0
53182,37315,9844,1,0,0
53064,37328,9831,1,0,0
52945,37348,9829,1,0,0
52821,37367,9834,1,0,0
52668,37381,9840,1,0,0
52517,37389,9844,1,0,0
52404,37390,9848,1,0,0
52315,37384,9846,1,0,0
52223,37373,9832,1,0,0
52154,37352,9807,1,0,0
52133,37321,9777,1,0,0
52133,37280,9747,1,0,0
52124,37233,9723,1,0,0
52117,37184,9712,1,0,0
52123,37135,9711,1,0,0
52115,37085,9713,1,0,0
52068,37039,9714,1,0,0
51987,37000,9720,1,0,0
51881,36972,9728,1,0,0
51742,36954,9722,1,0,0
51569,36948,9693,1,0,0
51392,36951,9651,1,0,0
51237,36958,9600,1,0,0
51102,36963,9538,1,0,0
50996,36966,9469,1,0,0
50948,36970,9405,1,0,0
50954,36974,9352,1,0,0
50983,36975,9306,1,0,0
51025,36971,9269,1,0,0
51099,36961,9251,1,0,0
51185,36947,9252,1,0,0
51240,36933,9257,1,0,0
51260,36917,9263,1,0,0
51281,36898,9272,1,0,0
51295,36877,9277,1,0,0
51272,36852,9262,1,0,0
51222,36825,9228,1,0,0
51183,36797,9185,1,0,0
51153,36766,9131,1,0,0
51118,36730,9059,1,0,0
51095,36688,8976,1,0,0
51118,36640,8889,1,0,0
51184,36590,8798,1,0,0
51263,36542,8701,1,0,0
51366,36495,8611,1,0,0
51524,36447,8536,1,0,0
51718,36400,8469,1,0,0
51915,36352,8409,1,0,0
52136,36308,8367,1,0,0
52404,36272,8345,1,0,0
52681,36242,8332,1,0,0
52930,36214,8322,1,0,0
53170,36188,8326,1,0,0
53419,36162,8339,1,0,0
53650,36134,8340,1,0,0
53846,36107,8316,1,0,0
54032,36081,8274,1,0,0
54236,36055,8219,1,0,0
54452,36027,8147,1,0,0
54683,36001,8064,1,0,0
54967,35980,7976,1,0,0
55310,35966,7889,1,0,0
55662,35958,7812,1,0,0
55994,35954,7757,1,0,0
56318,35946,7729,1,0,0
56601,35930,7723,1,0,0
56764,35910,7734,1,0,0
56791,35890,7764,1,0,0
56744,35870,7804,1,0,0
56645,35846,7844,1,0,0
56475,35816,7874,1,0,0
56272,35785,7890,1,0,0
56108,35757,7884,1,0,0
55997,35730,7848,1,0,0
55909,35707,7789,1,0,0
55858,35694,7723,1,0,0
55875,35691,7662,1,0,0
55928,35693,7614,1,0,0
55958,35701,7593,1,0,0
55955,35712,7608,1,0,0
55943,35720,7659,1,0,0
55904,35723,7741,1,0,0
55801,35719,7847,1,0,0
55651,35705,7979,1,0,0
55490,35681,8133,1,0,0
55307,35643,8301,1,0,0
55088,35593,8477,1,0,0
54869,35536,8660,1,0,0
54687,35478,8845,1,0,0
54528,35424,9030,1,0,0
54371,35381,9218,1,0,0
54239,35345,9412,1,0,0
54148,35315,9608,1,0,0
54071,35290,9796,1,0,0
53983,35268,9980,1,0,0
53891,35252,10167,1,0,0
53798,35237,10358,1,0,0
53678,35217,10546,1,0,0
53519,35190,10728,1,0,0
53341,35156,10905,1,0,0
53161,35117,11068,1,0,0
52968,35079,11203,1,0,0
52763,35050,11308,1,0,0
52569,35033,11387,1,0,0
52394,35030,11444,1,0,0
52220,35047,11475,1,0,0
52049,35087,11486,1,0,0
51905,35150,11493,1,0,0
51783,35234,11502,1,0,0
51653,35332,11511,1,0,0
51519,35442,11529,1,0,0
51409,35564,11562,1,0,0
51320,35689,11610,1,0,0
51235,35815,11671,1,0,0
51165,35942,11745,1,0,0
51134,36064,11827,1,0,0
51131,36174,11910,1,0,0
51131,36274,11989,1,0,0
51129,36367,12064,1,0,0
51132,36455,12127,1,0,0
51126,36534,12171,1,0,0
51086,36603,12191,1,0,0
51014,36666,12189,1,0,0
50936,36721,12165,1,0,0
50852,36765,12122,1,0,0
50756,36799,12064,1,0,0
50674,36823,11995,1,0,0
50630,36833,11916,1,0,0
50604,36833,11823,1,0,0
50582,36831,11724,1,0,0
50591,36829,11631,1,0,0
50644,36826,11550,1,0,0
50711,36823,11474,1,0,0
50764,36825,11398,1,0,0
50812,36838,11328,1,0,0
50853,36861,11266,1,0,0
50858,36893,11205,1,0,0
50807,36931,11140,1,0,0
50715,36973,11083,1,0,0
50596,37018,11034,1,0,0
50450,37063,10986,1,0,0
50289,37104,10942,1,0,0
50139,37136,10911,1,0,0
50009,37159,10892,1,0,0
49891,37178,10872,1,0,0
49794,37193,10847,1,0,0
49733,37210,10819,1,0,0
49701,37227,10785,1,0,0
49665,37245,10738,1,0,0
49622,37262,10686,1,0,0
49595,37282,10640,1,0,0
49572,37297,10598,1,0,0
49524,37302,10553,1,0,0
49458,37294,10510,1,0,0
49390,37270,10482,1,0,0
49310,37225,10469,1,0,0
49203,37163,10468,1,0,0
49079,37091,10485,1,0,0
48956,37007,10523,1,0,0
48834,36914,10571,1,0,0
48701,36820,10620,1,0,0
48564,36727,10672,1,0,0
48443,36644,10733,1,0,0
48343,36571,10788,1,0,0
48254,36508,10824,1,0,0
48178,36461,10844,1,0,0
48120,36430,10850,1,0,0
48061,36409,10831,1,0,0
47989,36398,10788,1,0,0
47927,36397,10734,1,0,0
47893,36403,10677,1,0,0
47870,36417,10611,1,0,0
47844,36436,10539,1,0,0
47837,36454,10478,1,0,0
47862,36468,10433,1,0,0
47901,36478,10392,1,0,0
47950,36487,10360,1,0,0
48029,36496,10343,1,0,0
48144,36505,10335,1,0,0
48276,36515,10327,1,0,0
48413,36528,10323,1,0,0
48558,36548,10325,1,0,0
48709,36570,10324,1,0,0
48851,36590,10308,1,0,0
48977,36607,10280,1,0,0
49094,36616,10251,1,0,0
49202,36613,10213,1,0,0
49282,36599,10156,1,0,0
49342,36576,10084,1,0,0
49417,36542,10012,1,0,0
49509,36498,9944,1,0,0
49594,36450,9877,1,0,0
49675,36409,9814,1,0,0
49773,36381,9765,1,0,0
49871,36369,9726,1,0,0
49941,36368,9698,1,0,0
49991,36372,9685,1,0,0
50040,36379,9690,1,0,0
50074,36388,9707,1,0,0
50077,36397,9731,1,0,0
50067,36403,9763,1,0,0
50070,36402,9798,1,0,0
50085,36394,9814,1,0,0
50102,36383,9803,1,0,0
50129,36365,9771,1,0,0
50179,36336,9716,1,0,0
50239,36299,9629,1,0,0
50299,36259,9514,1,0,0
50370,36218,9384,1,0,0
50457,36176,9251,1,0,0
50543,36129,9118,1,0,0
50609,36083,8999,1,0,0
50667,36047,8906,1,0,0
50711,36022,8846,1,0,0
50708,36004,8819,1,0,0
50646,35994,8828,1,0,0
50554,35987,8876,1,0,0
50446,35978,8958,1,0,0
50307,35970,9066,1,0,0
50153,35965,9199,1,0,0
50024,35960,9346,1,0,0
49940,35953,9502,1,0,0
49890,35940,9664,1,0,0
49873,35921,9833,1,0,0
49897,35901,10005,1,0,0
49957,35883,10176,1,0,0
50030,35867,10345,1,0,0
50110,35852,10516,1,0,0
50204,35838,10687,1,0,0
50300,35821,10856,1,0,0
50364,35805,11026,1,0,0
50394,35789,11196,1,0,0
50411,35772,11363,1,0,0
50396,35751,11518,1,0,0
50323,35725,11661,1,0,0
50206,35696,11793,1,0,0
50075,35663,11912,1,0,0
49927,35626,12018,1,0,0
49756,35588,12117,1,0,0
49584,35552,12213,1,0,0
49441,35522,12305,1,0,0
49330,35500,12394,1,0,0
49236,35489,12483,1,0,0
49166,35483,12569,1,0,0
49130,35477,12646,1,0,0
49111,35465,12717,1,0,0
49090,35447,12792,1,0,0
49084,35421,12870,1,0,0
49109,35392,12942,1,0,0
49144,35362,13009,1,0,0
49173,35336,13080,1,0,0
49221,35325,13159,1,0,0
49296,35334,13244,1,0,0
49370,35367,13332,1,0,0
49430,35425,13428,1,0,0
49494,35503,13532,1,0,0
49567,35597,13639,1,0,0
49627,35706,13744,1,0,0
49669,35826,13845,1,0,0
49706,35953,13937,1,0,0
49739,36077,14010,1,0,0
49758,36197,14053,1,0,0
49771,36314,14062,1,0,0
49805,36429,14038,1,0,0
49861,36540,13980,1,0,0
49922,36638,13891,1,0,0
50000,36722,13785,1,0,0
50127,36796,13677,1,0,0
50290,36862,13574,1,0,0
50441,36921,13477,1,0,0
50580,36974,13392,1,0,0
50728,37020,13323,1,0,0
50847,37059,13268,1,0,0
50888,37096,13226,1,0,0
50869,37137,13210,1,0,0
50835,37180,13224,1,0,0
50777,37222,13253,1,0,0
50683,37265,13287,1,0,0
50589,37314,13331,1,0,0
50530,37369,13378,1,0,0
50490,37424,13405,1,0,0
50443,37482,13402,1,0,0
50402,37539,13379,1,0,0
50384,37591,13342,1,0,0
50368,37639,13283,1,0,0
50339,37682,13207,1,0,0
50321,37720,13132,1,0,0
50333,37752,13069,1,0,0
50347,37778,13011,1,0,0
50346,37797,12962,1,0,0
50355,37814,12941,1,0,0
50377,37836,12950,1,0,0
50369,37862,12974,1,0,0
50314,37894,13010,1,0,0
50240,37927,13060,1,0,0
50157,37955,13121,1,0,0
50040,37978,13180,1,0,0
49900,37997,13237,1,0,0
49791,38007,13290,1,0,0
49734,38005,13325,1,0,0
49706,37986,13329,1,0,0
49713,37950,13301,1,0,0
49799,37902,13247,1,0,0
49960,37845,13168,1,0,0
50149,37783,13064,1,0,0
50354,37721,12947,1,0,0
50588,37662,12830,1,0,0
50827,37609,12715,1,0,0
51025,37566,12607,1,0,0
51175,37535,12518,1,0,0
51297,37515,12452,1,0,0
51388,37504,12409,1,0,0
51432,37498,12391,1,0,0
51441,37498,12400,1,0,0
51446,37502,12430,1,0,0
51440,37506,12464,1,0,0
51414,37506,12492,1,0,0
51398,37503,12511,1,0,0
51426,37492,12514,1,0,0
51477,37473,12490,1,0,0
51527,37452,12435,1,0,0
51602,37438,12352,1,0,0
51723,37427,12250,1,0,0
51861,37418,12138,1,0,0
51992,37410,12027,1,0,0
52126,37404,11934,1,0,0
52269,37401,11863,1,0,0
52393,37394,11810,1,0,0
52473,37378,11773,1,0,0
52520,37354,11748,1,0,0
52543,37321,11728,1,0,0
52523,37281,11705,1,0,0
52446,37237,11675,1,0,0
52343,37192,11637,1,0,0
52228,37142,11585,1,0,0
52089,37089,11521,1,0,0
51940,37039,11453,1,0,0
51828,36994,11383,1,0,0
51765,36955,11314,1,0,0
51720,36921,11244,1,0,0
51690,36886,11179,1,0,0
51712,36850,11120,1,0,0
51780,36812,11065,1,0,0
51846,36773,11014,1,0,0
51898,36732,10969,1,0,0
51956,36691,10926,1,0,0
52010,36655,10881,1,0,0
52034,36624,10834,1,0,0
52034,36597,10789,1,0,0
52031,36579,10741,1,0,0
52013,36566,10693,1,0,0
51949,36551,10646,1,0,0
51848,36531,10603,1,0,0
51737,36504,10566,1,0,0
51620,36472,10544,1,0,0
51485,36437,10547,1,0,0
51346,36401,10579,1,0,0
51230,36365,10639,1,0,0
51140,36330,10723,1,0,0
51065,36297,10832,1,0,0
51019,36271,10964,1,0,0
51015,36253,11113,1,0,0
51038,36242,11269,1,0,0
51075,36242,11427,1,0,0
51136,36248,11587,1,0,0
51225,36249,11745,1,0,0
51308,36244,11894,1,0,0
51367,36232,12035,1,0,0
51421,36211,12174,1,0,0
51470,36179,12310,1,0,0
51474,36140,12445,1,0,0
51423,36098,12582,1,0,0
51345,36063,12722,1,0,0
51240,36036,12864,1,0,0
51086,36018,13002,1,0,0
50892,36006,13137,1,0,0
50697,35998,13271,1,0,0
50518,35987,13397,1,0,0
50347,35971,13511,1,0,0
50197,35951,13611,1,0,0
50093,35926,13697,1,0,0
50032,35896,13768,1,0,0
49990,35858,13828,1,0,0
49970,35815,13880,1,0,0
49986,35769,13925,1,0,0
50022,35720,13966,1,0,0
50037,35670,14002,1,0,0
50029,35626,14035,1,0,0
50021,35588,14065,1,0,0
50003,35556,14090,1,0,0
49948,35534,14110,1,0,0
49878,35527,14125,1,0,0
49831,35538,14134,1,0,0
49796,35566,14140,1,0,0
49755,35607,14147,1,0,0
49733,35663,14156,1,0,0
49746,35733,14164,1,0,0
49766,35819,14176,1,0,0
49769,35921,14198,1,0,0
49774,36033,14232,1,0,0
49790,36148,14270,1,0,0
49786,36262,14307,1,0,0
49739,36374,14336,1,0,0
49662,36485,14353,1,0,0
49567,36592,14352,1,0,0
49440,36686,14335,1,0,0
49267,36770,14303,1,0,0
49066,36847,14256,1,0,0
48859,36911,14191,1,0,0
48642,36964,14112,1,0,0
48418,37012,14024,1,0,0
48224,37059,13934,1,0,0
48075,37100,13849,1,0,0
47949,37133,13776,1,0,0
47848,37159,13725,1,0,0
47796,37181,13694,1,0,0
47785,37197,13677,1,0,0
47778,37207,13675,1,0,0
47773,37215,13689,1,0,0
47794,37219,13710,1,0,0
47834,37213,13729,1,0,0
47865,37198,13745,1,0,0
47899,37175,13758,1,0,0
47965,37153,13766,1,0,0
48053,37134,13770,1,0,0
48141,37121,13777,1,0,0
48236,37117,13789,1,0,0
48356,37123,13808,1,0,0
48488,37140,13840,1,0,0
48613,37170,13890,1,0,0
48747,37211,13953,1,0,0
48911,37255,14021,1,0,0
49088,37295,14089,1,0,0
49246,37326,14152,1,0,0
49379,37348,14210,1,0,0
49498,37358,14256,1,0,0
49594,37349,14273,1,0,0
49660,37324,14261,1,0,0
49713,37288,14229,1,0,0
49777,37245,14181,1,0,0
49847,37200,14114,1,0,0
49918,37160,14034,1,0,0
50004,37128,13950,1,0,0
50102,37104,13867,1,0,0
50189,37082,13781,1,0,0
50247,37060,13691,1,0,0
50286,37038,13604,1,0,0
50309,37017,13521,1,0,0
50298,37000,13431,1,0,0
50254,36988,13337,1,0,0
50214,36978,13241,1,0,0
50200,36964,13134,1,0,0
50205,36943,13005,1,0,0
50240,36911,12861,1,0,0
50336,36873,12713,1,0,0
50485,36834,12563,1,0,0
50649,36795,12412,1,0,0
50817,36762,12272,1,0,0
51002,36735,12157,1,0,0
51184,36716,12064,1,0,0
51320,36704,11986,1,0,0
51415,36701,11927,1,0,0
51496,36705,11892,1,0,0
51550,36710,11867,1,0,0
51548,36710,11841,1,0,0
51498,36701,11817,1,0,0
51429,36686,11789,1,0,0
51343,36661,11741,1,0,0
51228,36625,11671,1,0,0
51102,36580,11597,1,0,0
50997,36526,11523,1,0,0
50918,36467,11445,1,0,0
50851,36408,11370,1,0,0
50802,36356,11315,1,0,0
50777,36311,11287,1,0,0
50751,36275,11275,1,0,0
50703,36248,11275,1,0,0
50656,36228,11287,1,0,0
50634,36209,11303,1,0,0
50614,36193,11315,1,0,0
50577,36182,11315,1,0,0
50547,36170,11298,1,0,0
50533,36151,11255,1,0,0
50494,36124,11182,1,0,0
50406,36092,11086,1,0,0
50290,36064,10973,1,0,0
50147,36044,10847,1,0,0
49948,36029,10714,1,0,0
49697,36018,10587,1,0,0
49443,36017,10476,1,0,0
49215,36025,10387,1,0,0
49012,36040,10323,1,0,0
48850,36059,10288,1,0,0
48758,36078,10282,1,0,0
48728,36094,10302,1,0,0
48726,36098,10347,1,0,0
48733,36093,10411,1,0,0
48750,36085,10486,1,0,0
48757,36076,10570,1,0,0
48725,36067,10663,1,0,0
48652,36058,10765,1,0,0
48567,36052,10876,1,0,0
48482,36048,10997,1,0,0
48385,36047,11129,1,0,0
48289,36047,11273,1,0,0
48222,36050,11430,1,0,0
48174,36053,11602,1,0,0
48116,36051,11790,1,0,0
48062,36039,11991,1,0,0
48030,36021,12198,1,0,0
47996,35992,12401,1,0,0
47932,35953,12597,1,0,0
47856,35908,12780,1,0,0
47795,35859,12941,1,0,0
47739,35806,13071,1,0,0
47682,35754,13169,1,0,0
47641,35710,13242,1,0,0
47631,35678,13294,1,0,0
47642,35654,13330,1,0,0
47657,35639,13358,1,0,0
47677,35629,13389,1,0,0
47698,35617,13424,1,0,0
47697,35603,13462,1,0,0
47659,35587,13506,1,0,0
47594,35570,13558,1,0,0
47507,35552,13612,1,0,0
47398,35533,13658,1,0,0
47280,35514,13700,1,0,0
47181,35503,13743,1,0,0
47113,35505,13783,1,0,0
47060,35524,13814,1,0,0
47030,35562,13840,1,0,0
47052,35619,13870,1,0,0
47123,35690,13903,1,0,0
47209,35774,13936,1,0,0
47304,35871,13975,1,0,0
47423,35977,14023,1,0,0
47557,36088,14069,1,0,0
47679,36196,14100,1,0,0
47779,36296,14116,1,0,0
47870,36386,14113,1,0,0
47941,36465,14077,1,0,0
47963,36538,14002,1,0,0
47941,36614,13897,1,0,0
47907,36693,13771,1,0,0
47854,36772,13623,1,0,0
47761,36849,13464,1,0,0
47651,36926,13303,1,0,0
47564,37002,13143,1,0,0
47494,37073,12979,1,0,0
47429,37138,12814,1,0,0
47387,37195,12668,1,0,0
47397,37239,12553,1,0,0
47462,37265,12462,1,0,0
47577,37275,12396,1,0,0
47749,37275,12354,1,0,0
47976,37270,12329,1,0,0
48228,37259,12311,1,0,0
48484,37245,12295,1,0,0
48747,37238,12271,1,0,0
49007,37238,12235,1,0,0
49222,37247,12187,1,0,0
49375,37263,12132,1,0,0
49485,37289,12066,1,0,0
49566,37325,11989,1,0,0
49599,37366,11906,1,0,0
49586,37409,11824,1,0,0
49570,37459,11749,1,0,0
49572,37512,11685,1,0,0
49584,37563,11639,1,0,0
49610,37610,11617,1,0,0
49670,37651,11626,1,0,0
49763,37676,11660,1,0,0
49861,37685,11714,1,0,0
49954,37688,11788,1,0,0
50060,37684,11883,1,0,0
50173,37671,11980,1,0,0
50264,37648,12070,1,0,0
50325,37617,12157,1,0,0
50372,37583,12239,1,0,0
50404,37547,12301,1,0,0
50398,37512,12341,1,0,0
50362,37482,12373,1,0,0
50330,37452,12404,1,0,0
50300,37420,12425,1,0,0
50260,37383,12440,1,0,0
50244,37346,12461,1,0,0
50294,37314,12489,1,0,0
50398,37288,12521,1,0,0
50530,37266,12561,1,0,0
50709,37251,12611,1,0,0
50948,37244,12660,1,0,0
51205,37240,12698,1,0,0
51434,37243,12724,1,0,0
51630,37256,12739,1,0,0
51788,37274,12737,1,0,0
51878,37291,12718,1,0,0
51880,37300,12690,1,0,0
51815,37303,12657,1,0,0
51708,37301,12616,1,0,0
51571,37296,12565,1,0,0
51420,37286,12511,1,0,0
51292,37271,12466,1,0,0
51202,37247,12430,1,0,0
51138,37214,12405,1,0,0
51094,37177,12393,1,0,0
51077,37134,12400,1,0,0
51073,37085,12423,1,0,0
51046,37031,12456,1,0,0
50994,36976,12499,1,0,0
50950,36927,12546,1,0,0
50913,36884,12576,1,0,0
50849,36850,12574,1,0,0
50768,36827,12542,1,0,0
50708,36813,12487,1,0,0
50666,36803,12398,1,0,0
50617,36798,12268,1,0,0
50573,36797,12105,1,0,0
50559,36800,11922,1,0,0
50570,36803,11723,1,0,0
50586,36798,11517,1,0,0
50612,36778,11325,1,0,0
50669,36745,11161,1,0,0
50753,36703,11025,1,0,0
50831,36655,10928,1,0,0
50897,36608,10889,1,0,0
50959,36561,10913,1,0,0
50994,36515,10989,1,0,0
50975,36479,11107,1,0,0
50915,36460,11268,1,0,0
50837,36455,11463,1,0,0
50726,36460,11673,1,0,0
50573,36468,11889,1,0,0
50426,36477,12108,1,0,0
50321,36483,12323,1,0,0
50244,36482,12525,1,0,0
50184,36470,12714,1,0,0
50162,36448,12900,1,0,0
50187,36414,13084,1,0,0
50230,36371,13265,1,0,0
50273,36324,13453,1,0,0
50330,36279,13656,1,0,0
50404,36236,13868,1,0,0
50473,36198,14079,1,0,0
50534,36164,14286,1,0,0
50604,36138,14485,1,0,0
50685,36119,14660,1,0,0
50759,36102,14802,1,0,0
50828,36083,14908,1,0,0
50911,36063,14973,1,0,0
51000,36041,14994,1,0,0
51054,36018,14978,1,0,0
51072,35996,14938,1,0,0
51080,35974,14885,1,0,0
51064,35950,14827,1,0,0
50986,35925,14783,1,0,0
50856,35903,14764,1,0,0
50712,35888,14772,1,0,0
50548,35876,14807,1,0,0
50348,35864,14868,1,0,0
50136,35849,14948,1,0,0
49951,35834,15037,1,0,0
49798,35819,15126,1,0,0
49664,35806,15210,1,0,0
49556,35798,15282,1,0,0
49491,35791,15329,1,0,0
49451,35784,15349,1,0,0
49408,35776,15350,1,0,0
49368,35771,15335,1,0,0
49347,35774,15299,1,0,0
49315,35787,15246,1,0,0
49248,35810,15189,1,0,0
49175,35848,15137,1,0,0
49124,35900,15087,1,0,0
49079,35963,15033,1,0,0
49036,36038,14974,1,0,0
49032,36129,14917,1,0,0
49087,36235,14865,1,0,0
49178,36350,14811,1,0,0
49286,36468,14758,1,0,0
49417,36590,14717,1,0,0
49565,36717,14684,1,0,0
49698,36843,14642,1,0,0
49800,36960,14589,1,0,0
49885,37064,14534,1,0,0
49950,37154,14477,1,0,0
49973,37231,14409,1,0,0
49965,37303,14338,1,0,0
49978,37367,14268,1,0,0
50025,37421,14192,1,0,0
50094,37469,14110,1,0,0
50201,37515,14032,1,0,0
50381,37556,13963,1,0,0
50630,37593,13898,1,0,0
50911,37620,13835,1,0,0
51207,37634,13772,1,0,0
51514,37637,13708,1,0,0
51802,37635,13641,1,0,0
52022,37634,13575,1,0,0
52167,37641,13510,1,0,0
52257,37656,13443,1,0,0
52277,37677,13379,1,0,0
52204,37705,13324,1,0,0
52069,37740,13275,1,0,0
51920,37781,13220,1,0,0
51764,37823,13155,1,0,0
51602,37857,13079,1,0,0
51471,37883,12993,1,0,0
51398,37905,12892,1,0,0
51372,37920,12774,1,0,0
51377,37930,12648,1,0,0
51414,37936,12529,1,0,0
51482,37938,12422,1,0,0
51552,37934,12322,1,0,0
51597,37926,12231,1,0,0
51619,37921,12156,1,0,0
51611,37919,12093,1,0,0
51545,37916,12031,1,0,0
51419,37907,11968,1,0,0
51271,37895,11909,1,0,0
51133,37882,11856,1,0,0
51000,37861,11809,1,0,0
50878,37829,11770,1,0,0
50808,37790,11733,1,0,0
50801,37741,11690,1,0,0
50834,37682,11641,1,0,0
50892,37618,11588,1,0,0
50979,37552,11534,1,0,0
51075,37486,11484,1,0,0
51142,37423,11447,1,0,0
51164,37369,11418,1,0,0
51152,37326,11397,1,0,0
51105,37296,11382,1,0,0
51003,37273,11374,1,0,0
50864,37259,11364,1,0,0
50729,37257,11348,1,0,0
50596,37263,11323,1,0,0
50444,37271,11295,1,0,0
50296,37281,11269,1,0,0
50184,37292,11242,1,0,0
50097,37301,11213,1,0,0
50012,37312,11188,1,0,0
49935,37331,11175,1,0,0
49877,37361,11168,1,0,0
49822,37395,11157,1,0,0
49752,37421,11138,1,0,0
49674,37434,11115,1,0,0
49605,37441,11088,1,0,0
49543,37445,11045,1,0,0
49476,37446,10985,1,0,0
49422,37446,10916,1,0,0
49394,37439,10837,1,0,0
49378,37421,10743,1,0,0
49365,37396,10641,1,0,0
49370,37371,10537,1,0,0
49395,37349,10430,1,0,0
49412,37327,10320,1,0,0
49406,37302,10216,1,0,0
49405,37274,10129,1,0,0
49421,37240,10061,1,0,0
49429,37204,10018,1,0,0
49421,37174,10010,1,0,0
49420,37146,10042,1,0,0
49438,37117,10115,1,0,0
49466,37084,10230,1,0,0
49504,37044,10384,1,0,0
49572,36998,10564,1,0,0
49664,36947,10759,1,0,0
49751,36892,10969,1,0,0
49817,36841,11189,1,0,0
49872,36796,11407,1,0,0
49913,36755,11614,1,0,0
49913,36721,11811,1,0,0
49881,36696,12001,1,0,0
49850,36681,12178,1,0,0
49822,36672,12337,1,0,0
49780,36662,12477,1,0,0
49749,36647,12597,1,0,0
49761,36627,12688,1,0,0
49799,36600,12754,1,0,0
49843,36565,12802,1,0,0
49901,36525,12837,1,0,0
49989,36484,12855,1,0,0
50097,36444,12859,1,0,0
50200,36399,12859,1,0,0
50293,36348,12861,1,0,0
50372,36300,12866,1,0,0
50421,36262,12871,1,0,0
50425,36232,12882,1,0,0
50395,36206,12902,1,0,0
50344,36181,12927,1,0,0
50266,36154,12945,1,0,0
50162,36123,12955,1,0,0
50055,36092,12960,1,0,0
49960,36056,12956,1,0,0
49861,36011,12934,1,0,0
49748,35960,12899,1,0,0
49641,35910,12862,1,0,0
49557,35864,12822,1,0,0
49488,35823,12780,1,0,0
49436,35788,12750,1,0,0
49422,35760,12734,1,0,0
49442,35738,12733,1,0,0
49464,35716,12743,1,0,0
49479,35694,12760,1,0,0
49505,35673,12773,1,0,0
49526,35655,12780,1,0,0
49503,35639,12778,1,0,0
49435,35623,12760,1,0,0
49352,35607,12718,1,0,0
49253,35591,12651,1,0,0
49127,35575,12561,1,0,0
49004,35560,12452,1,0,0
48927,35549,12325,1,0,0
48894,35541,12185,1,0,0
48888,35538,12043,1,0,0
48921,35543,11906,1,0,0
49017,35562,11776,1,0,0
49164,35598,11650,1,0,0
49339,35651,11533,1,0,0
49547,35723,11435,1,0,0
49798,35810,11353,1,0,0
50069,35910,11281,1,0,0
50335,36022,11222,1,0,0
50590,36140,11179,1,0,0
50832,36264,11149,1,0,0
51042,36391,11122,1,0,0
51200,36515,11097,1,0,0
51315,36633,11084,1,0,0
51396,36743,11080,1,0,0
51441,36839,11074,1,0,0
51452,36922,11063,1,0,0
51464,36996,11045,1,0,0
51506,37065,11012,1,0,0
51566,37127,10957,1,0,0
51646,37182,10885,1,0,0
51774,37227,10802,1,0,0
51957,37265,10717,1,0,0
52161,37295,10633,1,0,0
52381,37315,10553,1,0,0
52643,37327,10478,1,0,0
52926,37331,10412,1,0,0
53162,37326,10361,1,0,0
53332,37317,10324,1,0,0
53469,37308,10296,1,0,0
53569,37302,10271,1,0,0
53603,37304,10247,1,0,0
53593,37312,10224,1,0,0
53587,37327,10202,1,0,0
53581,37349,10172,1,0,0
53551,37371,10133,1,0,0
53512,37392,10090,1,0,0
53491,37414,10040,1,0,0
53470,37437,9980,1,0,0
53423,37456,9916,1,0,0
53361,37474,9852,1,0,0
53312,37487,9788,1,0,0
53271,37498,9729,1,0,0
53218,37505,9684,1,0,0
53160,37511,9647,1,0,0
53119,37518,9610,1,0,0
53079,37525,9578,1,0,0
53008,37527,9556,1,0,0
52907,37522,9538,1,0,0
52780,37507,9519,1,0,0
52619,37482,9496,1,0,0
52424,37452,9471,1,0,0
52231,37421,9444,1,0,0
52065,37384,9411,1,0,0
51916,37335,9362,1,0,0
51784,37280,9300,1,0,0
51705,37225,9231,1,0,0
51692,37174,9158,1,0,0
51712,37127,9085,1,0,0
51750,37083,9013,1,0,0
51829,37048,8938,1,0,0
51946,37023,8859,1,0,0
52059,37007,8784,1,0,0
52148,36998,8719,1,0,0
52227,36993,8660,1,0,0
52283,36990,8608,1,0,0
52273,36989,8567,1,0,0
52177,36993,8539,1,0,0
52016,37002,8517,1,0,0
51802,37020,8503,1,0,0
51529,37043,8499,1,0,0
51223,37067,8497,1,0,0
50930,37091,8491,1,0,0
50673,37111,8477,1,0,0
50450,37124,8463,1,0,0
50271,37133,8447,1,0,0
50147,37135,8426,1,0,0
50072,37126,8407,1,0,0
50018,37109,8401,1,0,0
49975,37091,8418,1,0,0
49954,37074,8462,1,0,0
49936,37059,8533,1,0,0
49896,37038,8634,1,0,0
49845,37017,8767,1,0,0
49808,37003,8922,1,0,0
49766,36995,9088,1,0,0
49699,36989,9260,1,0,0
49622,36987,9437,1,0,0
49555,36984,9612,1,0,0
49481,36976,9777,1,0,0
49388,36958,9931,1,0,0
49296,36933,10080,1,0,0
49225,36901,10216,1,0,0
49170,36862,10329,1,0,0
49124,36818,10418,1,0,0
49111,36772,10490,1,0,0
49153,36732,10550,1,0,0
49232,36699,10598,1,0,0
49339,36674,10643,1,0,0
49497,36655,10692,1,0,0
49710,36644,10742,1,0,0
49937,36637,10790,1,0,0
50155,36633,10840,1,0,0
50383,36632,10887,1,0,0
50618,36635,10928,1,0,0
50820,36637,10965,1,0,0
50976,36636,11002,1,0,0
51101,36632,11040,1,0,0
51177,36625,11080,1,0,0
51168,36612,11122,1,0,0
51077,36593,11165,1,0,0
50938,36568,11202,1,0,0
50763,36534,11237,1,0,0
50546,36495,11275,1,0,0
50324,36454,11315,1,0,0
50151,36416,11350,1,0,0
50034,36381,11384,1,0,0
49960,36349,11419,1,0,0
49952,36324,11454,1,0,0
50035,36311,11481,1,0,0
50176,36310,11500,1,0,0
50325,36318,11512,1,0,0
50460,36330,11517,1,0,0
50577,36340,11511,1,0,0
50646,36346,11488,1,0,0
50633,36355,11445,1,0,0
50549,36369,11389,1,0,0
50426,36381,11321,1,0,0
50257,36391,11240,1,0,0
50049,36395,11153,1,0,0
49861,36396,11068,1,0,0
49742,36394,10984,1,0,0
49698,36392,10897,1,0,0
49736,36390,10813,1,0,0
49881,36391,10740,1,0,0
50141,36396,10679,1,0,0
50477,36403,10632,1,0,0
50855,36405,10607,1,0,0
51266,36396,10604,1,0,0
51683,36380,10617,1,0,0
52045,36356,10640,1,0,0
52312,36327,10670,1,0,0
52491,36296,10695,1,0,0
52577,36262,10704,1,0,0
52545,36223,10697,1,0,0
52412,36181,10669,1,0,0
52235,36138,10615,1,0,0
52045,36095,10543,1,0,0
51846,36055,10467,1,0,0
51670,36020,10395,1,0,0
51566,35991,10328,1,0,0
51546,35973,10274,1,0,0
51594,35965,10242,1,0,0
51709,35972,10231,1,0,0
51902,35997,10234,1,0,0
52150,36044,10246,1,0,0
52402,36111,10264,1,0,0
52659,36196,10283,1,0,0
52938,36300,10294,1,0,0
53202,36422,10297,1,0,0
53405,36555,10292,1,0,0
53548,36694,10275,1,0,0
53644,36839,10237,1,0,0
53678,36983,10176,1,0,0
53643,37123,10100,1,0,0
53566,37258,10017,1,0,0
53479,37385,9933,1,0,0
53383,37498,9851,1,0,0
53276,37596,9777,1,0,0
53186,37677,9716,1,0,0
53123,37745,9666,1,0,0
53058,37800,9625,1,0,0
52974,37843,9597,1,0,0
52894,37878,9585,1,0,0
52828,37909,9586,1,0,0
52757,37936,9598,1,0,0
52674,37963,9621,1,0,0
52605,37989,9650,1,0,0
52554,38012,9677,1,0,0
52498,38030,9697,1,0,0
52425,38046,9714,1,0,0
52335,38061,9721,1,0,0
52222,38077,9711,1,0,0
52064,38095,9688,1,0,0
51869,38110,9655,1,0,0
51668,38120,9608,1,0,0
51471,38123,9545,1,0,0
51268,38117,9472,1,0,0
51073,38104,9390,1,0,0
50921,38091,9301,1,0,0
50807,38082,9215,1,0,0
50707,38080,9145,1,0,0
50636,38084,9088,1,0,0
50611,38093,9039,1,0,0
50606,38107,9001,1,0,0
50583,38126,8978,1,0,0
50540,38144,8965,1,0,0
50483,38158,8955,1,0,0
50399,38162,8949,1,0,0
50264,38155,8946,1,0,0
50089,38138,8937,1,0,0
49898,38109,8911,1,0,0
49700,38070,8870,1,0,0
49491,38021,8818,1,0,0
49295,37965,8755,1,0,0
49136,37908,8682,1,0,0
49011,37853,8602,1,0,0
48913,37799,8525,1,0,0
48852,37751,8461,1,0,0
48831,37708,8409,1,0,0
48816,37667,8370,1,0,0
48786,37625,8350,1,0,0
48752,37587,8353,1,0,0
48713,37555,8373,1,0,0
48635,37529,8411,1,0,0
48507,37507,8474,1,0,0
48354,37491,8563,1,0,0
48187,37484,8670,1,0,0
47989,37490,8793,1,0,0
47766,37505,8932,1,0,0
47553,37532,9079,1,0,0
47366,37572,9228,1,0,0
47195,37622,9380,1,0,0
47045,37675,9533,1,0,0
46934,37730,9683,1,0,0
46862,37781,9830,1,0,0
46808,37830,9981,1,0,0
46764,37877,10132,1,0,0
46736,37922,10277,1,0,0
46721,37962,10421,1,0,0
46695,37995,10571,1,0,0
46652,38016,10725,1,0,0
46611,38024,10876,1,0,0
46577,38016,11017,1,0,0
46539,37990,11151,1,0,0
46494,37952,11280,1,0,0
46451,37905,11401,1,0,0
46403,37851,11502,1,0,0
46332,37793,11586,1,0,0
46249,37737,11660,1,0,0
46171,37687,11726,1,0,0
46087,37645,11778,1,0,0
45989,37609,11819,1,0,0
45897,37578,11858,1,0,0
45829,37561,11895,1,0,0
45768,37555,11925,1,0,0
45701,37552,11951,1,0,0
45655,37550,11980,1,0,0
45644,37544,12008,1,0,0
45645,37527,12039,1,0,0
45641,37498,12079,1,0,0
45642,37457,12127,1,0,0
45647,37409,12183,1,0,0
45641,37358,12246,1,0,0
45620,37306,12315,1,0,0
45609,37256,12385,1,0,0
45622,37214,12455,1,0,0
45651,37183,12530,1,0,0
45691,37167,12606,1,0,0
45760,37170,12677,1,0,0
45858,37181,12734,1,0,0
45972,37195,12771,1,0,0
46101,37210,12792,1,0,0
46261,37226,12797,1,0,0
46447,37237,12776,1,0,0
46638,37241,12733,1,0,0
46837,37233,12679,1,0,0
47066,37212,12625,1,0,0
47310,37181,12568,1,0,0
47528,37145,12510,1,0,0
47720,37107,12458,1,0,0
47900,37073,12416,1,0,0
48042,37040,12376,1,0,0
48119,37009,12341,1,0,0
48145,36980,12315,1,0,0
48151,36951,12298,1,0,0
48137,36923,12289,1,0,0
48098,36891,12288,1,0,0
48054,36854,12295,1,0,0
48029,36815,12307,1,0,0
48023,36772,12324,1,0,0
48027,36721,12344,1,0,0
48049,36657,12359,1,0,0
48100,36581,12363,1,0,0
48167,36494,12358,1,0,0
48238,36402,12347,1,0,0
48322,36308,12325,1,0,0
48424,36212,12292,1,0,0
48523,36114,12249,1,0,0
48607,36017,12205,1,0,0
48700,35925,12165,1,0,0
48809,35845,12126,1,0,0
48906,35778,12088,1,0,0
48980,35719,12056,1,0,0
49054,35662,12035,1,0,0
49135,35604,12018,1,0,0
49203,35549,11997,1,0,0
49256,35497,11982,1,0,0
49315,35448,11972,1,0,0
49390,35401,11952,1,0,0
49457,35353,11915,1,0,0
49505,35302,11865,1,0,0
49542,35252,11807,1,0,0
49562,35213,11729,1,0,0
49542,35193,11628,1,0,0
49477,35197,11520,1,0,0
49378,35230,11410,1,0,0
49252,35295,11297,1,0,0
49095,35388,11190,1,0,0
48917,35506,11098,1,0,0
48741,35644,11027,1,0,0
48577,35800,10981,1,0,0
48412,35964,10966,1,0,0
48251,36130,10977,1,0,0
48106,36291,11007,1,0,0
47975,36443,11049,1,0,0
47845,36578,11095,1,0,0
47724,36695,11135,1,0,0
47625,36797,11162,1,0,0
47535,36884,11169,1,0,0
47439,36961,11152,1,0,0
47349,37033,11110,1,0,0
47277,37104,11042,1,0,0
47206,37175,10955,1,0,0
47121,37247,10855,1,0,0
47046,37319,10742,1,0,0
46996,37394,10618,1,0,0
46953,37468,10493,1,0,0
46905,37535,10377,1,0,0
46861,37590,10272,1,0,0
46819,37629,10177,1,0,0
46757,37650,10091,1,0,0
46667,37655,10012,1,0,0
46567,37652,9942,1,0,0
46465,37646,9876,1,0,0
46351,37641,9815,1,0,0
46228,37637,9754,1,0,0
46120,37641,9691,1,0,0
46034,37656,9621,1,0,0
45951,37680,9550,1,0,0
45871,37712,9490,1,0,0
45804,37750,9446,1,0,0
45745,37790,9410,1,0,0
45685,37828,9380,1,0,0
45623,37857,9357,1,0,0
45575,37879,9338,1,0,0
45540,37896,9314,1,0,0
45501,37903,9280,1,0,0
45456,37897,9239,1,0,0
45417,37880,9187,1,0,0
45382,37857,9119,1,0,0
45334,37833,9041,1,0,0
45284,37810,8961,1,0,0
45250,37788,8888,1,0,0
45215,37766,8839,1,0,0
45158,37746,8821,1,0,0
45102,37724,8831,1,0,0
45068,37702,8869,1,0,0
45034,37679,8937,1,0,0
44974,37653,9031,1,0,0
44902,37625,9142,1,0,0
44832,37599,9262,1,0,0
44746,37573,9389,1,0,0
44629,37546,9519,1,0,0
44502,37521,9646,1,0,0
44387,37494,9774,1,0,0
44269,37459,9909,1,0,0
44142,37421,10055,1,0,0
44024,37384,10212,1,0,0
43929,37352,10382,1,0,0
43854,37323,10561,1,0,0
43795,37293,10747,1,0,0
43764,37259,10941,1,0,0
43768,37228,11137,1,0,0
43792,37205,11331,1,0,0
43822,37192,11528,1,0,0
43865,37188,11730,1,0,0
43914,37192,11921,1,0,0
43939,37198,12098,1,0,0
43928,37205,12273,1,0,0
43898,37212,12454,1,0,0
43844,37213,12626,1,0,0
43744,37204,12778,1,0,0
43606,37182,12915,1,0,0
43469,37148,13034,1,0,0
43339,37106,13123,1,0,0
43204,37056,13180,1,0,0
43089,37001,13223,1,0,0
43033,36952,13259,1,0,0
43037,36908,13284,1,0,0
43082,36870,13308,1,0,0
43174,36840,13345,1,0,0
43324,36821,13400,1,0,0
43503,36810,13466,1,0,0
43672,36801,13538,1,0,0
43831,36793,13624,1,0,0
43983,36785,13720,1,0,0
44101,36775,13814,1,0,0
44164,36757,13901,1,0,0
44186,36728,13987,1,0,0
44182,36694,14058,1,0,0
44148,36655,14101,1,0,0
44087,36607,14115,1,0,0
44034,36556,14110,1,0,0
44015,36507,14079,1,0,0
44027,36462,14019,1,0,0
44062,36423,13950,1,0,0
44133,36395,13884,1,0,0
44243,36374,13818,1,0,0
44367,36355,13753,1,0,0
44492,36334,13700,1,0,0
44623,36307,13656,1,0,0
44759,36273,13611,1,0,0
44885,36235,13568,1,0,0
44996,36194,13528,1,0,0
45108,36153,13489,1,0,0
45226,36116,13444,1,0,0
45336,36086,13396,1,0,0
45438,36067,13355,1,0,0
45551,36057,13321,1,0,0
45675,36051,13291,1,0,0
45781,36043,13270,1,0,0
45865,36032,13257,1,0,0
45946,36016,13248,1,0,0
46018,35995,13241,1,0,0
46061,35966,13233,1,0,0
46089,35927,13220,1,0,0
46130,35884,13194,1,0,0
46173,35850,13154,1,0,0
46200,35830,13111,1,0,0
46226,35825,13069,1,0,0
46272,35836,13027,1,0,0
46320,35859,12981,1,0,0
46349,35889,12939,1,0,0
46368,35924,12902,1,0,0
46393,35962,12869,1,0,0
46421,35994,12838,1,0,0
46443,36011,12811,1,0,0
46472,36012,12787,1,0,0
46524,36000,12762,1,0,0
46597,35978,12732,1,0,0
46679,35945,12697,1,0,0
46776,35906,12653,1,0,0
46895,35867,12593,1,0,0
47020,35829,12523,1,0,0
47139,35798,12450,1,0,0
47253,35773,12375,1,0,0
47361,35753,12297,1,0,0
47445,35739,12223,1,0,0
47498,35731,12159,1,0,0
47535,35732,12105,1,0,0
47566,35747,12063,1,0,0
47588,35772,12033,1,0,0
47606,35808,12009,1,0,0
47650,35863,11987,1,0,0
47729,35933,11962,1,0,0
47827,36020,11937,1,0,0
47944,36123,11911,1,0,0
48099,36240,11879,1,0,0
48282,36369,11841,1,0,0
48459,36504,11801,1,0,0
48625,36635,11760,1,0,0
48800,36755,11718,1,0,0
48965,36864,11678,1,0,0
49079,36959,11644,1,0,0
49153,37038,11617,1,0,0
49224,37100,11594,1,0,0
49286,37146,11573,1,0,0
49315,37179,11552,1,0,0
49333,37205,11537,1,0,0
49376,37232,11528,1,0,0
49428,37261,11522,1,0,0
49468,37286,11521,1,0,0
49513,37309,11529,1,0,0
49577,37334,11544,1,0,0
49631,37359,11560,1,0,0
49647,37379,11575,1,0,0
49635,37400,11586,1,0,0
49607,37420,11589,1,0,0
49543,37437,11581,1,0,0
49435,37449,11559,1,0,0
49314,37461,11523,1,0,0
49203,37481,11467,1,0,0
49090,37510,11392,1,0,0
48978,37546,11302,1,0,0
48902,37588,11204,1,0,0
48875,37638,11100,1,0,0
48865,37691,10996,1,0,0
48859,37742,10899,1,0,0
48884,37791,10813,1,0,0
48934,37832,10737,1,0,0
48950,37859,10669,1,0,0
48914,37875,10610,1,0,0
48863,37880,10558,1,0,0
48804,37870,10511,1,0,0
48712,37845,10475,1,0,0
48605,37810,10453,1,0,0
48532,37772,10443,1,0,0
48499,37741,10448,1,0,0
48481,37721,10473,1,0,0
48495,37711,10519,1,0,0
48577,37710,10584,1,0,0
48703,37716,10669,1,0,0
48829,37723,10775,1,0,0
48961,37727,10900,1,0,0
49115,37724,11034,1,0,0
49254,37711,11178,1,0,0
49328,37683,11337,1,0,0
49336,37644,11509,1,0,0
49299,37596,11690,1,0,0
49197,37542,11879,1,0,0
49011,37483,12079,1,0,0
48764,37426,12289,1,0,0
48492,37383,12501,1,0,0
48207,37361,12704,1,0,0
47917,37364,12898,1,0,0
47655,37385,13083,1,0,0
47448,37419,13255,1,0,0
47293,37455,13408,1,0,0
47182,37486,13541,1,0,0
47126,37508,13651,1,0,0
47136,37517,13733,1,0,0
47189,37508,13783,1,0,0
47261,37482,13807,1,0,0
47365,37443,13816,1,0,0
47503,37395,13811,1,0,0
47648,37342,13793,1,0,0
47784,37287,13774,1,0,0
47925,37234,13764,1,0,0
48066,37190,13752,1,0,0
48184,37156,13735,1,0,0
48278,37131,13727,1,0,0
48383,37117,13732,1,0,0
48505,37106,13741,1,0,0
48619,37089,13752,1,0,0
48735,37063,13775,1,0,0
48885,37027,13809,1,0,0
49066,36979,13839,1,0,0
49244,36921,13857,1,0,0
49417,36851,13869,1,0,0
49607,36777,13871,1,0,0
49802,36708,13849,1,0,0
49969,36650,13806,1,0,0
50116,36602,13751,1,0,0
50268,36566,13685,1,0,0
50409,36541,13606,1,0,0
50507,36521,13523,1,0,0
50563,36507,13446,1,0,0
50594,36499,13379,1,0,0
50592,36489,13318,1,0,0
50537,36470,13264,1,0,0
50431,36439,13225,1,0,0
50301,36398,13202,1,0,0
50163,36354,13186,1,0,0
50025,36313,13175,1,0,0
49919,36276,13166,1,0,0
49875,36246,13150,1,0,0
49885,36228,13119,1,0,0
49940,36224,13077,1,0,0
50060,36231,13024,1,0,0
50241,36246,12956,1,0,0
50431,36263,12880,1,0,0
50602,36278,12805,1,0,0
50768,36288,12736,1,0,0
50915,36291,12672,1,0,0
50998,36287,12615,1,0,0
50997,36272,12572,1,0,0
50935,36250,12546,1,0,0
50822,36225,12530,1,0,0
50646,36199,12521,1,0,0
50419,36175,12525,1,0,0
50175,36159,12536,1,0,0
49933,36151,12547,1,0,0
49704,36149,12554,1,0,0
49513,36154,12556,1,0,0
49393,36167,12546,1,0,0
49346,36185,12522,1,0,0
49352,36199,12489,1,0,0
49412,36199,12452,1,0,0
49543,36186,12409,1,0,0
49711,36164,12359,1,0,0
49862,36140,12307,1,0,0
49997,36110,12255,1,0,0
50125,36078,12199,1,0,0
50216,36047,12137,1,0,0
50234,36018,12071,1,0,0
50185,35990,12003,1,0,0
50091,35964,11925,1,0,0
49952,35940,11837,1,0,0
49761,35921,11747,1,0,0
49540,35912,11660,1,0,0
49323,35912,11576,1,0,0
49125,35917,11501,1,0,0
48957,35927,11439,1,0,0
48852,35948,11385,1,0,0
48832,35988,11335,1,0,0
48868,36051,11292,1,0,0
48931,36136,11252,1,0,0
49025,36242,11208,1,0,0
49153,36367,11150,1,0,0
49284,36507,11077,1,0,0
49398,36655,10990,1,0,0
49500,36803,10887,1,0,0
49589,36954,10770,1,0,0
49633,37103,10647,1,0,0
49617,37242,10523,1,0,0
49560,37369,10401,1,0,0
49468,37480,10288,1,0,0
49323,37570,10192,1,0,0
49126,37637,10114,1,0,0
48911,37687,10053,1,0,0
48700,37721,10012,1,0,0
48484,37739,9991,1,0,0
48280,37747,9981,1,0,0
48136,37748,9973,1,0,0
48062,37747,9962,1,0,0
48037,37746,9950,1,0,0
48059,37744,9927,1,0,0
48137,37747,9889,1,0,0
48255,37754,9843,1,0,0
48367,37763,9794,1,0,0
48443,37773,9739,1,0,0
48485,37788,9680,1,0,0
48471,37810,9622,1,0,0
48371,37832,9574,1,0,0
48187,37853,9534,1,0,0
47957,37875,9499,1,0,0
47702,37902,9477,1,0,0
47439,37930,9473,1,0,0
47218,37954,9481,1,0,0
47084,37977,9505,1,0,0
47043,38000,9543,1,0,0
47089,38023,9591,1,0,0
47233,38044,9641,1,0,0
47473,38061,9698,1,0,0
47763,38071,9768,1,0,0
48051,38068,9851,1,0,0
48318,38053,9950,1,0,0
48548,38032,10070,1,0,0
48704,38007,10221,1,0,0
48756,37979,10406,1,0,0
48726,37955,10624,1,0,0
48635,37934,10869,1,0,0
48478,37912,11138,1,0,0
48280,37889,11432,1,0,0
48101,37868,11744,1,0,0
47977,37845,12054,1,0,0
47890,37818,12350,1,0,0
47840,37783,12631,1,0,0
47865,37744,12885,1,0,0
47964,37706,13089,1,0,0
48091,37673,13233,1,0,0
48227,37647,13331,1,0,0
48390,37627,13387,1,0,0
48562,37611,13408,1,0,0
48703,37601,13407,1,0,0
48815,37599,13399,1,0,0
48925,37603,13391,1,0,0
49026,37607,13389,1,0,0
49092,37607,13398,1,0,0
49127,37600,13421,1,0,0
49151,37585,13455,1,0,0
49164,37559,13502,1,0,0
49148,37527,13568,1,0,0
49118,37496,13646,1,0,0
49101,37470,13724,1,0,0
49088,37450,13806,1,0,0
49069,37432,13896,1,0,0
49073,37415,13988,1,0,0
49128,37402,14073,1,0,0
49210,37392,14146,1,0,0
49295,37385,14212,1,0,0
49400,37376,14276,1,0,0
49535,37365,14330,1,0,0
49669,37347,14367,1,0,0
49770,37323,14389,1,0,0
49842,37296,14400,1,0,0
49882,37266,14393,1,0,0
49868,37233,14366,1,0,0
49795,37195,14332,1,0,0
49690,37153,14295,1,0,0
49583,37114,14246,1,0,0
49471,37080,14188,1,0,0
49356,37052,14137,1,0,0
49271,37032,14094,1,0,0
49229,37015,14047,1,0,0
49207,36997,13998,1,0,0
49198,36973,13955,1,0,0
49235,36941,13916,1,0,0
49324,36905,13875,1,0,0
49432,36867,13827,1,0,0
49545,36824,13766,1,0,0
49678,36780,13686,1,0,0
49822,36739,13587,1,0,0
49940,36703,13474,1,0,0
50022,36669,13352,1,0,0
50076,36640,13226,1,0,0
50091,36619,13099,1,0,0
50039,36604,12982,1,0,0
49923,36593,12878,1,0,0
49774,36585,12783,1,0,0
49606,36576,12697,1,0,0
49419,36561,12634,1,0,0
49239,36541,12596,1,0,0
49099,36518,12572,1,0,0
48988,36496,12553,1,0,0
48887,36474,12543,1,0,0
48813,36454,12545,1,0,0
48782,36437,12549,1,0,0
48774,36429,12543,1,0,0
48767,36430,12521,1,0,0
48760,36442,12482,1,0,0
48755,36461,12412,1,0,0
48744,36480,12307,1,0,0
48712,36488,12182,1,0,0
48669,36487,12050,1,0,0
48636,36477,11902,1,0,0
48606,36460,11738,1,0,0
48581,36435,11578,1,0,0
48599,36406,11435,1,0,0
48677,36379,11310,1,0,0
48792,36358,11204,1,0,0
48935,36340,11120,1,0,0
49132,36327,11057,1,0,0
49373,36320,11011,1,0,0
49601,36315,10979,1,0,0
49782,36307,10953,1,0,0
49923,36294,10923,1,0,0
50017,36276,10882,1,0,0
50034,36252,10834,1,0,0
49974,36215,10776,1,0,0
49858,36166,10705,1,0,0
49702,36112,10625,1,0,0
49507,36060,10541,1,0,0
49294,36013,10457,1,0,0
49105,35977,10375,1,0,0
48956,35956,10297,1,0,0
48836,35955,10226,1,0,0
48750,35977,10167,1,0,0
48715,36028,10121,1,0,0
48714,36110,10086,1,0,0
48720,36217,10068,1,0,0
48734,36344,10067,1,0,0
48777,36491,10073,1,0,0
48832,36652,10078,1,0,0
48877,36816,10078,1,0,0
48930,36977,10076,1,0,0
49013,37131,10063,1,0,0
49104,37275,10029,1,0,0
49175,37402,9971,1,0,0
49247,37516,9895,1,0,0
49334,37624,9800,1,0,0
49405,37725,9694,1,0,0
49423,37811,9593,1,0,0
49392,37882,9504,1,0,0
49326,37939,9424,1,0,0
49215,37983,9359,1,0,0
49054,38011,9316,1,0,0
48877,38025,9294,1,0,0
48721,38033,9290,1,0,0
48584,38036,9301,1,0,0
48474,38032,9317,1,0,0
48428,38023,9325,1,0,0
48457,38016,9325,1,0,0
48513,38014,9321,1,0,0
48574,38013,9306,1,0,0
48661,38012,9275,1,0,0
48755,38010,9236,1,0,0
48790,38005,9203,1,0,0
48747,37998,9176,1,0,0
48656,37992,9154,1,0,0
48525,37980,9147,1,0,0
48349,37962,9166,1,0,0
48151,37940,9220,1,0,0
47980,37924,9308,1,0,0
47855,37922,9430,1,0,0
47759,37935,9584,1,0,0
47696,37959,9762,1,0,0
47682,37987,9953,1,0,0
47696,38020,10147,1,0,0
47692,38054,10349,1,0,0
47670,38090,10558,1,0,0
47645,38127,10764,1,0,0
47595,38157,10957,1,0,0
47498,38174,11132,1,0,0
47380,38177,11284,1,0,0
47272,38172,11408,1,0,0
47175,38161,11507,1,0,0
47085,38140,11587,1,0,0
47017,38110,11647,1,0,0
46989,38079,11689,1,0,0
46981,38050,11719,1,0,0
46979,38026,11743,1,0,0
47002,38008,11761,1,0,0
47059,37999,11782,1,0,0
47113,37991,11812,1,0,0
47139,37980,11851,1,0,0
47160,37965,11889,1,0,0
47185,37950,11920,1,0,0
47200,37934,11946,1,0,0
47203,37912,11972,1,0,0
47221,37888,11998,1,0,0
47278,37865,12014,1,0,0
47376,37847,12019,1,0,0
47526,37835,12022,1,0,0
47749,37829,12020,1,0,0
48034,37829,12007,1,0,0
48345,37837,11985,1,0,0
48659,37850,11968,1,0,0
48977,37863,11958,1,0,0
49273,37872,11950,1,0,0
49495,37876,11946,1,0,0
49637,37876,11950,1,0,0
49723,37873,11960,1,0,0
49742,37865,11968,1,0,0
49674,37850,11976,1,0,0
49546,37831,11984,1,0,0
49405,37810,11985,1,0,0
49273,37788,11975,1,0,0
49161,37763,11948,1,0,0
49094,37731,11897,1,0,0
49094,37694,11821,1,0,0
49153,37658,11725,1,0,0
49235,37623,11615,1,0,0
49319,37591,11502,1,0,0
49396,37563,11387,1,0,0
49440,37542,11273,1,0,0
49425,37528,11171,1,0,0
49363,37523,11093,1,0,0
49273,37525,11032,1,0,0
49150,37527,10983,1,0,0
48995,37520,10952,1,0,0
48853,37506,10940,1,0,0
48752,37487,10935,1,0,0
48671,37462,10931,1,0,0
48595,37432,10928,1,0,0
48550,37397,10917,1,0,0
48538,37360,10888,1,0,0
48529,37325,10841,1,0,0
48495,37287,10781,1,0,0
48446,37244,10708,1,0,0
48384,37198,10630,1,0,0
48293,37152,10554,1,0,0
48176,37110,10484,1,0,0
48061,37078,10417,1,0,0
47966,37055,10358,1,0,0
47884,37037,10311,1,0,0
47817,37027,10277,1,0,0
47780,37029,10255,1,0,0
47768,37041,10247,1,0,0
47747,37054,10254,1,0,0
47709,37060,10268,1,0,0
47668,37061,10280,1,0,0
47611,37061,10282,1,0,0
47508,37057,10275,1,0,0
47374,37040,10260,1,0,0
47235,37009,10235,1,0,0
47079,36967,10196,1,0,0
46892,36920,10151,1,0,0
46693,36873,10112,1,0,0
46509,36831,10078,1,0,0
46342,36795,10047,1,0,0
46187,36761,10023,1,0,0
46055,36730,10003,1,0,0
45961,36706,9981,1,0,0
45901,36690,9957,1,0,0
45862,36675,9925,1,0,0
45843,36655,9875,1,0,0
45845,36628,9809,1,0,0
45845,36599,9733,1,0,0
45820,36571,9648,1,0,0
45787,36538,9554,1,0,0
45755,36501,9459,1,0,0
45700,36460,9373,1,0,0
45601,36418,9304,1,0,0
45487,36381,9252,1,0,0
45368,36355,9208,1,0,0
45222,36336,9170,1,0,0
45042,36326,9144,1,0,0
44856,36330,9127,1,0,0
44680,36349,9111,1,0,0
44506,36380,9096,1,0,0
44342,36421,9081,1,0,0
44213,36473,9060,1,0,0
44130,36536,9031,1,0,0
44089,36612,8997,1,0,0
44090,36696,8956,1,0,0
44145,36793,8906,1,0,0
44248,36910,8852,1,0,0
44360,37046,8796,1,0,0
44464,37196,8735,1,0,0
44564,37355,8661,1,0,0
44636,37519,8578,1,0,0
44641,37681,8492,1,0,0
44574,37834,8403,1,0,0
44452,37981,8303,1,0,0
44277,38115,8190,1,0,0
44049,38231,8066,1,0,0
43791,38324,7939,1,0,0
43543,38401,7808,1,0,0
43327,38468,7680,1,0,0
43151,38524,7566,1,0,0
43032,38564,7469,1,0,0
42987,38591,7392,1,0,0
42999,38611,7339,1,0,0
43037,38628,7316,1,0,0
43099,38642,7318,1,0,0
43187,38657,7345,1,0,0
43262,38671,7398,1,0,0
43291,38681,7472,1,0,0
43284,38691,7559,1,0,0
43260,38705,7657,1,0,0
43211,38719,7771,1,0,0
43141,38729,7897,1,0,0
43079,38735,8031,1,0,0
43050,38746,8169,1,0,0
43054,38765,8312,1,0,0
43089,38791,8463,1,0,0
43166,38823,8620,1,0,0
43285,38860,8777,1,0,0
43427,38899,8933,1,0,0
43582,38934,9093,1,0,0
43754,38967,9259,1,0,0
43931,38998,9429,1,0,0
44080,39024,9603,1,0,0
44190,39041,9776,1,0,0
44274,39045,9942,1,0,0
44330,39034,10093,1,0,0
44335,39014,10222,1,0,0
44308,38983,10321,1,0,0
44289,38942,10381,1,0,0
44280,38893,10409,1,0,0
44274,38835,10414,1,0,0
44286,38773,10398,1,0,0
44339,38709,10367,1,0,0
44429,38645,10335,1,0,0
44537,38582,10314,1,0,0
44656,38520,10312,1,0,0
44787,38461,10333,1,0,0
44925,38414,10376,1,0,0
45048,38378,10442,1,0,0
45152,38347,10530,1,0,0
45244,38319,10627,1,0,0
45309,38299,10722,1,0,0
45334,38285,10817,1,0,0
45340,38277,10908,1,0,0
45347,38279,10982,1,0,0
45339,38287,11032,1,0,0
45311,38291,11070,1,0,0
45300,38293,11100,1,0,0
45327,38293,11111,1,0,0
45389,38292,11104,1,0,0
45479,38289,11090,1,0,0
45598,38283,11074,1,0,0
45740,38276,11061,1,0,0
45880,38266,11054,1,0,0
45997,38252,11051,1,0,0
46090,38231,11041,1,0,0
46156,38208,11025,1,0,0
46179,38182,11007,1,0,0
46159,38153,10980,1,0,0
46111,38123,10937,1,0,0
46041,38091,10873,1,0,0
45940,38056,10792,1,0,0
45814,38015,10699,1,0,0
45686,37971,10599,1,0,0
45556,37925,10498,1,0,0
45401,37881,10412,1,0,0
45223,37835,10349,1,0,0
45048,37789,10306,1,0,0
44879,37745,10281,1,0,0
44704,37703,10280,1,0,0
44538,37660,10301,1,0,0
44406,37622,10333,1,0,0
44310,37592,10367,1,0,0
44241,37569,10398,1,0,0
44207,37547,10425,1,0,0
44221,37527,10438,1,0,0
44276,37506,10430,1,0,0
44349,37481,10409,1,0,0
44430,37450,10379,1,0,0
44521,37417,10333,1,0,0
44606,37383,10274,1,0,0
44661,37345,10218,1,0,0
44683,37305,10170,1,0,0
44685,37263,10121,1,0,0
44650,37222,10069,1,0,0
44571,37183,10027,1,0,0
44478,37150,10001,1,0,0
44400,37126,9988,1,0,0
44326,37106,9985,1,0,0
44258,37089,9991,1,0,0
44227,37077,10001,1,0,0
44242,37068,10008,1,0,0
44279,37064,10006,1,0,0
44328,37062,9991,1,0,0
44399,37057,9961,1,0,0
44485,37051,9918,1,0,0
44553,37045,9867,1,0,0
44582,37035,9807,1,0,0
44582,37020,9740,1,0,0
44550,37008,9673,1,0,0
44470,36999,9609,1,0,0
44348,36993,9544,1,0,0
44213,36992,9478,1,0,0
44080,36994,9415,1,0,0
43954,36999,9357,1,0,0
43848,37002,9302,1,0,0
43790,37001,9247,1,0,0
43789,36998,9197,1,0,0
43825,36993,9153,1,0,0
43896,36982,9111,1,0,0
44012,36960,9064,1,0,0
44165,36925,9017,1,0,0
44325,36876,8983,1,0,0
44488,36819,8962,1,0,0
44661,36758,8949,1,0,0
44817,36699,8942,1,0,0
44926,36637,8936,1,0,0
44999,36574,8925,1,0,0
45052,36514,8905,1,0,0
45071,36467,8876,1,0,0
45049,36433,8835,1,0,0
45019,36407,8778,1,0,0
45006,36386,8711,1,0,0
44992,36372,8649,1,0,0
44960,36367,8598,1,0,0
44928,36372,8556,1,0,0
44913,36385,8526,1,0,0
44897,36404,8507,1,0,0
44864,36430,8495,1,0,0
44819,36461,8487,1,0,0
44767,36501,8484,1,0,0
44690,36558,8489,1,0,0
44576,36636,8493,1,0,0
44441,36734,8489,1,0,0
44304,36853,8476,1,0,0
44165,36990,8462,1,0,0
44034,37139,8445,1,0,0
43927,37300,8426,1,0,0
43854,37469,8407,1,0,0
43814,37637,8395,1,0,0
43804,37792,8397,1,0,0
43824,37929,8410,1,0,0
43862,38042,8434,1,0,0
43900,38133,8470,1,0,0
43935,38198,8517,1,0,0
43978,38239,8573,1,0,0
44025,38263,8637,1,0,0
44059,38277,8710,1,0,0
44081,38289,8789,1,0,0
44110,38306,8873,1,0,0
44143,38328,8964,1,0,0
44166,38355,9066,1,0,0
44186,38387,9183,1,0,0
44220,38423,9316,1,0,0
44253,38461,9460,1,0,0
44265,38496,9611,1,0,0
44272,38525,9766,1,0,0
44295,38546,9916,1,0,0
44323,38565,10051,1,0,0
44345,38582,10169,1,0,0
44388,38596,10271,1,0,0
44481,38610,10354,1,0,0
44615,38623,10416,1,0,0
44781,38636,10463,1,0,0
44993,38651,10494,1,0,0
45253,38665,10510,1,0,0
45535,38681,10520,1,0,0
45809,38697,10529,1,0,0
46073,38712,10539,1,0,0
46323,38723,10548,1,0,0
46541,38728,10561,1,0,0
46720,38718,10584,1,0,0
46875,38696,10617,1,0,0
47018,38666,10652,1,0,0
47141,38626,10689,1,0,0
47242,38573,10727,1,0,0
47339,38517,10756,1,0,0
47436,38464,10765,1,0,0
47515,38420,10757,1,0,0
47571,38384,10737,1,0,0
47623,38356,10705,1,0,0
47669,38338,10663,1,0,0
47695,38328,10619,1,0,0
47699,38325,10581,1,0,0
47699,38330,10553,1,0,0
47695,38338,10533,1,0,0
47668,38344,10528,1,0,0
47617,38344,10540,1,0,0
47559,38338,10566,1,0,0
47494,38329,10595,1,0,0
47408,38319,10626,1,0,0
47318,38307,10657,1,0,0
47248,38294,10680,1,0,0
47194,38280,10684,1,0,0
47147,38265,10672,1,0,0
47130,38252,10639,1,0,0
47169,38246,10578,1,0,0
47250,38248,10486,1,0,0
47351,38258,10372,1,0,0
47485,38272,10244,1,0,0
47659,38286,10098,1,0,0
47841,38301,9942,1,0,0
47998,38316,9797,1,0,0
48134,38329,9671,1,0,0
48252,38341,9561,1,0,0
48321,38345,9468,1,0,0
48319,38337,9399,1,0,0
48264,38313,9361,1,0,0
48178,38275,9346,1,0,0
48065,38226,9352,1,0,0
47941,38172,9381,1,0,0
47839,38120,9424,1,0,0
47782,38076,9468,1,0,0
47760,38044,9512,1,0,0
47766,38020,9562,1,0,0
47804,37999,9613,1,0,0
47860,37985,9659,1,0,0
47901,37975,9698,1,0,0
47913,37967,9735,1,0,0
47904,37964,9765,1,0,0
47869,37965,9781,1,0,0
47793,37961,9779,1,0,0
47686,37944,9762,1,0,0
47573,37916,9722,1,0,0
47448,37882,9654,1,0,0
47283,37847,9565,1,0,0
47081,37811,9467,1,0,0
46876,37771,9364,1,0,0
46672,37731,9256,1,0,0
46464,37695,9149,1,0,0
46280,37662,9052,1,0,0
46154,37637,8962,1,0,0
46074,37615,8881,1,0,0
46009,37594,8815,1,0,0
45965,37576,8764,1,0,0
45953,37562,8721,1,0,0
45938,37549,8683,1,0,0
45889,37534,8650,1,0,0
45817,37511,8619,1,0,0
45739,37478,8579,1,0,0
45641,37438,8527,1,0,0
45518,37390,8462,1,0,0
45391,37330,8384,1,0,0
45284,37260,8299,1,0,0
45186,37182,8214,1,0,0
45085,37099,8133,1,0,0
44998,37017,8059,1,0,0
44936,36942,7998,1,0,0
44885,36875,7953,1,0,0
44829,36815,7923,1,0,0
44778,36766,7907,1,0,0
44731,36730,7904,1,0,0
44667,36705,7909,1,0,0
44570,36686,7914,1,0,0
44455,36673,7914,1,0,0
44336,36666,7911,1,0,0
44203,36659,7903,1,0,0
44058,36645,7888,1,0,0
43925,36626,7863,1,0,0
43811,36605,7831,1,0,0
43700,36587,7796,1,0,0
43593,36576,7758,1,0,0
43509,36573,7717,1,0,0
43434,36582,7680,1,0,0
43335,36605,7653,1,0,0
43211,36645,7636,1,0,0
43086,36705,7630,1,0,0
42951,36780,7637,1,0,0
42790,36863,7653,1,0,0
42622,36947,7676,1,0,0
42479,37034,7699,1,0,0
42358,37126,7718,1,0,0
42242,37222,7732,1,0,0
42146,37323,7742,1,0,0
42087,37429,7744,1,0,0
42057,37548,7736,1,0,0
42044,37679,7721,1,0,0
42054,37820,7695,1,0,0
42093,37969,7656,1,0,0
42154,38119,7609,1,0,0
42221,38260,7565,1,0,0
42297,38389,7528,1,0,0
42383,38506,7495,1,0,0
42467,38605,7474,1,0,0
42537,38681,7481,1,0,0
42607,38729,7518,1,0,0
42684,38754,7577,1,0,0
42757,38762,7660,1,0,0
42823,38758,7779,1,0,0
42897,38746,7929,1,0,0
42983,38731,8096,1,0,0
43068,38717,8274,1,0,0
43151,38706,8461,1,0,0
43249,38699,8644,1,0,0
43362,38699,8812,1,0,0
43466,38700,8961,1,0,0
43565,38696,9091,1,0,0
43679,38681,9197,1,0,0
43807,38660,9284,1,0,0
43920,38635,9359,1,0,0
44013,38604,9422,1,0,0
44102,38569,9475,1,0,0
44177,38538,9526,1,0,0
44213,38512,9582,1,0,0
44217,38494,9641,1,0,0
44218,38490,9704,1,0,0
44209,38498,9776,1,0,0
44172,38510,9858,1,0,0
44126,38521,9950,1,0,0
44099,38528,10047,1,0,0
44082,38531,10149,1,0,0
44055,38522,10251,1,0,0
44030,38496,10347,1,0,0
44025,38456,10435,1,0,0
44027,38408,10517,1,0,0
44023,38353,10587,1,0,0
44021,38295,10638,1,0,0
44034,38243,10666,1,0,0
44057,38201,10677,1,0,0
44078,38169,10674,1,0,0
44101,38145,10660,1,0,0
44129,38123,10646,1,0,0
44147,38107,10643,1,0,0
44137,38096,10660,1,0,0
44103,38087,10697,1,0,0
44052,38084,10755,1,0,0
43979,38086,10833,1,0,0
43887,38090,10924,1,0,0
43796,38097,11019,1,0,0
43721,38110,11110,1,0,0
43657,38131,11192,1,0,0
43606,38154,11260,1,0,0
43583,38174,11310,1,0,0
43586,38194,11343,1,0,0
43595,38213,11362,1,0,0
43601,38227,11366,1,0,0
43617,38232,11347,1,0,0
43635,38228,11310,1,0,0
43628,38212,11264,1,0,0
43594,38185,11213,1,0,0
43556,38152,11158,1,0,0
43508,38119,11107,1,0,0
43429,38085,11064,1,0,0
43332,38053,11029,1,0,0
43243,38026,10999,1,0,0
43158,38008,10972,1,0,0
43069,37995,10945,1,0,0
42996,37986,10920,1,0,0
42969,37980,10900,1,0,0
42981,37978,10885,1,0,0
43018,37974,10877,1,0,0
43089,37965,10872,1,0,0
43202,37951,10860,1,0,0
43329,37928,10834,1,0,0
43438,37896,10798,1,0,0
43522,37852,10751,1,0,0
43585,37796,10684,1,0,0
43603,37737,10598,1,0,0
43556,37683,10507,1,0,0
43451,37633,10417,1,0,0
43302,37590,10328,1,0,0
43110,37556,10245,1,0,0
42881,37527,10181,1,0,0
42650,37502,10140,1,0,0
42449,37482,10112,1,0,0
42284,37469,10094,1,0,0
42158,37461,10087,1,0,0
42092,37456,10083,1,0,0
42093,37452,10067,1,0,0
42137,37448,10032,1,0,0
42203,37442,9981,1,0,0
42297,37436,9913,1,0,0
42415,37429,9827,1,0,0
42525,37414,9719,1,0,0
42613,37396,9593,1,0,0
42695,37380,9458,1,0,0
42767,37366,9321,1,0,0
42794,37357,9186,1,0,0
42778,37351,9057,1,0,0
42741,37351,8936,1,0,0
42678,37357,8828,1,0,0
42571,37373,8741,1,0,0
42434,37397,8680,1,0,0
42300,37429,8644,1,0,0
42168,37467,8628,1,0,0
42029,37507,8628,1,0,0
41897,37543,8636,1,0,0
41793,37573,8646,1,0,0
41712,37598,8657,1,0,0
41638,37610,8666,1,0,0
41573,37606,8668,1,0,0
41532,37587,8652,1,0,0
41519,37560,8626,1,0,0
41521,37528,8603,1,0,0
41538,37491,8586,1,0,0
41577,37452,8575,1,0,0
41624,37416,8572,1,0,0
41663,37383,8585,1,0,0
41705,37361,8609,1,0,0
41753,37354,8630,1,0,0
41781,37364,8639,1,0,0
41774,37385,8643,1,0,0
41753,37420,8637,1,0,0
41736,37465,8608,1,0,0
41708,37519,8558,1,0,0
41665,37584,8499,1,0,0
41635,37657,8437,1,0,0
41628,37742,8373,1,0,0
41628,37838,8313,1,0,0
41635,37943,8263,1,0,0
41669,38056,8222,1,0,0
41737,38178,8182,1,0,0
41816,38303,8146,1,0,0
41906,38423,8122,1,0,0
42021,38535,8098,1,0,0
42155,38640,8066,1,0,0
42296,38738,8030,1,0,0
42447,38829,7994,1,0,0
42627,38913,7952,1,0,0
42830,38992,7900,1,0,0
43036,39065,7843,1,0,0
43235,39129,7787,1,0,0
43429,39186,7726,1,0,0
43603,39239,7665,1,0,0
43731,39291,7612,1,0,0
43807,39338,7573,1,0,0
43841,39374,7548,1,0,0
43831,39400,7543,1,0,0
43772,39418,7567,1,0,0
43694,39431,7619,1,0,0
43637,39440,7690,1,0,0
43606,39445,7776,1,0,0
43598,39442,7876,1,0,0
43632,39436,7986,1,0,0
43725,39432,8100,1,0,0
43848,39426,8213,1,0,0
43970,39419,8315,1,0,0
44091,39411,8400,1,0,0
44218,39405,8468,1,0,0
44326,39410,8524,1,0,0
44388,39426,8562,1,0,0
44417,39447,8577,1,0,0
44428,39471,8581,1,0,0
44420,39496,8578,1,0,0
44394,39520,8568,1,0,0
44369,39542,8555,1,0,0
44363,39562,8549,1,0,0
44367,39579,8550,1,0,0
44376,39590,8557,1,0,0
44401,39589,8564,1,0,0
44441,39577,8574,1,0,0
44473,39555,8587,1,0,0
44484,39525,8594,1,0,0
44480,39485,8588,1,0,0
44464,39434,8574,1,0,0
44427,39380,8557,1,0,0
44377,39330,8536,1,0,0
44339,39290,8514,1,0,0
44321,39258,8502,1,0,0
44303,39232,8500,1,0,0
44286,39212,8504,1,0,0
44292,39201,8520,1,0,0
44316,39197,8553,1,0,0
44333,39196,8587,1,0,0
44347,39194,8606,1,0,0
44380,39187,8608,1,0,0
44415,39176,8591,1,0,0
44428,39166,8547,1,0,0
44435,39159,8471,1,0,0
44461,39154,8366,1,0,0
44493,39154,8237,1,0,0
44505,39159,8090,1,0,0
44500,39167,7935,1,0,0
44491,39180,7786,1,0,0
44464,39200,7654,1,0,0
44405,39223,7539,1,0,0
44330,39245,7434,1,0,0
44261,39268,7342,1,0,0
44193,39293,7268,1,0,0
44120,39317,7214,1,0,0
44060,39337,7170,1,0,0
44024,39348,7131,1,0,0
43996,39353,7093,1,0,0
43961,39350,7058,1,0,0
43930,39335,7027,1,0,0
43908,39306,6998,1,0,0
43875,39265,6979,1,0,0
43817,39213,6976,1,0,0
43752,39160,6987,1,0,0
43694,39113,7009,1,0,0
43633,39070,7045,1,0,0
43568,39027,7095,1,0,0
43518,38989,7148,1,0,0
43477,38961,7198,1,0,0
43413,38941,7239,1,0,0
43321,38921,7270,1,0,0
43225,38901,7285,1,0,0
43125,38883,7283,1,0,0
43003,38866,7276,1,0,0
42868,38850,7268,1,0,0
42752,38838,7256,1,0,0
42650,38829,7249,1,0,0
42545,38816,7254,1,0,0
42450,38800,7264,1,0,0
42387,38783,7264,1,0,0
42345,38766,7253,1,0,0
42310,38743,7236,1,0,0
42292,38710,7212,1,0,0
42307,38666,7176,1,0,0
42345,38617,7130,1,0,0
42381,38569,7075,1,0,0
42407,38521,7013,1,0,0
42423,38476,6947,1,0,0
42411,38440,6880,1,0,0
42356,38411,6810,1,0,0
42261,38389,6733,1,0,0
42140,38376,6649,1,0,0
41999,38369,6567,1,0,0
41850,38365,6490,1,0,0
41721,38359,6420,1,0,0
41630,38353,6360,1,0,0
41568,38351,6317,1,0,0
41531,38351,6292,1,0,0
41532,38346,6278,1,0,0
41572,38333,6269,1,0,0
41625,38314,6268,1,0,0
41675,38288,6273,1,0,0
41741,38257,6281,1,0,0
41821,38226,6289,1,0,0
41887,38195,6295,1,0,0
41930,38164,6291,1,0,0
41968,38136,6266,1,0,0
42001,38113,6218,1,0,0
42006,38097,6148,1,0,0
41992,38084,6053,1,0,0
41991,38071,5931,1,0,0
42016,38058,5794,1,0,0
42059,38047,5656,1,0,0
42132,38036,5521,1,0,0
42255,38022,5396,1,0,0
42426,38006,5294,1,0,0
42619,37989,5221,1,0,0
42821,37975,5172,1,0,0
43029,37972,5139,1,0,0
43225,37989,5114,1,0,0
43383,38028,5091,1,0,0
43503,38090,5064,1,0,0
43601,38169,5022,1,0,0
43682,38263,4960,1,0,0
43740,38375,4882,1,0,0
43784,38498,4788,1,0,0
43829,38627,4682,1,0,0
43874,38761,4575,1,0,0
43913,38896,4478,1,0,0
43956,39027,4396,1,0,0
44011,39154,4331,1,0,0
44067,39269,4291,1,0,0
44113,39372,4285,1,0,0
44163,39461,4308,1,0,0
44224,39537,4353,1,0,0
44283,39601,4421,1,0,0
44328,39653,4515,1,0,0
44369,39692,4624,1,0,0
44412,39723,4736,1,0,0
44442,39754,4849,1,0,0
44457,39786,4970,1,0,0
44479,39817,5098,1,0,0
44510,39851,5225,1,0,0
44529,39887,5351,1,0,0
44533,39920,5478,1,0,0
44544,39953,5596,1,0,0
44557,39988,5699,1,0,0
44548,40021,5787,1,0,0
44522,40048,5856,1,0,0
44504,40074,5896,1,0,0
44495,40100,5905,1,0,0
44478,40127,5894,1,0,0
44462,40154,5871,1,0,0
44481,40181,5835,1,0,0
44531,40207,5788,1,0,0
44583,40235,5746,1,0,0
44639,40261,5715,1,0,0
44718,40288,5699,1,0,0
44800,40317,5706,1,0,0
44849,40345,5746,1,0,0
44864,40371,5813,1,0,0
44859,40393,5891,1,0,0
44813,40410,5973,1,0,0
44700,40420,6059,1,0,0
44541,40422,6144,1,0,0
44364,40411,6217,1,0,0
44167,40392,6279,1,0,0
43946,40369,6335,1,0,0
43741,40338,6385,1,0,0
43586,40297,6427,1,0,0
43474,40251,6464,1,0,0
43397,40203,6504,1,0,0
43367,40154,6547,1,0,0
43395,40109,6587,1,0,0
43459,40071,6631,1,0,0
43537,40035,6687,1,0,0
43628,40008,6740,1,0,0
43725,39993,6779,1,0,0
43804,39989,6809,1,0,0
43852,39991,6833,1,0,0
43887,39997,6844,1,0,0
43915,40007,6839,1,0,0
43920,40022,6827,1,0,0
43901,40037,6810,1,0,0
43879,40044,6787,1,0,0
43857,40042,6759,1,0,0
43829,40032,6740,1,0,0
43794,40011,6729,1,0,0
43770,39981,6716,1,0,0
43763,39944,6702,1,0,0
43765,39897,6698,1,0,0
43773,39846,6707,1,0,0
43799,39800,6726,1,0,0
43840,39767,6752,1,0,0
43872,39747,6787,1,0,0
43886,39738,6824,1,0,0
43896,39734,6858,1,0,0
43895,39732,6889,1,0,0
43866,39735,6904,1,0,0
43819,39737,6896,1,0,0
43778,39732,6869,1,0,0
43744,39719,6831,1,0,0
43702,39693,6783,1,0,0
43656,39656,6725,1,0,0
43618,39610,6663,1,0,0
43587,39558,6605,1,0,0
43551,39501,6557,1,0,0
43519,39444,6524,1,0,0
43504,39392,6511,1,0,0
43492,39350,6523,1,0,0
43468,39321,6551,1,0,0
43452,39298,6585,1,0,0
43452,39277,6620,1,0,0
43443,39262,6651,1,0,0
43399,39250,6669,1,0,0
43338,39235,6664,1,0,0
43275,39213,6637,1,0,0
43192,39180,6592,1,0,0
43086,39138,6530,1,0,0
42984,39091,6454,1,0,0
42899,39044,6372,1,0,0
42824,39002,6288,1,0,0
42761,38965,6212,1,0,0
42731,38933,6148,1,0,0
42734,38907,6101,1,0,0
42744,38893,6076,1,0,0
42756,38889,6072,1,0,0
42787,38892,6083,1,0,0
42837,38897,6103,1,0,0
42879,38901,6124,1,0,0
42907,38901,6142,1,0,0
42940,38893,6147,1,0,0
42967,38877,6136,1,0,0
42962,38856,6108,1,0,0
42934,38827,6058,1,0,0
42908,38794,5985,1,0,0
42874,38762,5900,1,0,0
42813,38735,5813,1,0,0
42744,38710,5728,1,0,0
42698,38687,5653,1,0,0
42674,38670,5594,1,0,0
42660,38660,5558,1,0,0
42675,38656,5546,1,0,0
42733,38654,5547,1,0,0
42815,38654,5558,1,0,0
42896,38648,5579,1,0,0
42983,38635,5603,1,0,0
43087,38621,5618,1,0,0
43191,38607,5622,1,0,0
43284,38593,5622,1,0,0
43380,38578,5614,1,0,0
43490,38560,5593,1,0,0
43602,38539,5560,1,0,0
43710,38514,5525,1,0,0
43835,38481,5492,1,0,0
43984,38440,5459,1,0,0
44130,38395,5429,1,0,0
44251,38349,5404,1,0,0
44364,38306,5379,1,0,0
44471,38274,5354,1,0,0
44552,38256,5332,1,0,0
44605,38254,5309,1,0,0
44656,38273,5275,1,0,0
44711,38321,5232,1,0,0
44749,38397,5196,1,0,0
44774,38494,5174,1,0,0
44816,38604,5160,1,0,0
44870,38723,5156,1,0,0
44903,38850,5177,1,0,0
44915,38980,5228,1,0,0
44928,39105,5304,1,0,0
44936,39222,5402,1,0,0
44920,39329,5516,1,0,0
44894,39424,5639,1,0,0
44884,39508,5761,1,0,0
44884,39584,5881,1,0,0
44877,39658,5993,1,0,0
44879,39730,6095,1,0,0
44908,39796,6189,1,0,0
44951,39864,6280,1,0,0
44988,39936,6371,1,0,0
45026,40008,6462,1,0,0
45073,40076,6562,1,0,0
45116,40139,6676,1,0,0
45136,40189,6805,1,0,0
45142,40225,6945,1,0,0
45146,40251,7095,1,0,0
45137,40269,7253,1,0,0
45106,40281,7412,1,0,0
45068,40284,7558,1,0,0
45038,40282,7686,1,0,0
45010,40282,7795,1,0,0
44979,40290,7879,1,0,0
44957,40307,7936,1,0,0
44953,40333,7965,1,0,0
44955,40369,7969,1,0,0
44957,40410,7945,1,0,0
44970,40455,7898,1,0,0
44994,40502,7844,1,0,0
45012,40551,7794,1,0,0
45021,40596,7745,1,0,0
45034,40633,7705,1,0,0
45048,40660,7686,1,0,0
45042,40680,7689,1,0,0
45008,40691,7712,1,0,0
44968,40688,7753,1,0,0
44928,40671,7819,1,0,0
44874,40647,7903,1,0,0
44814,40617,7995,1,0,0
44773,40583,8090,1,0,0
44754,40551,8190,1,0,0
44734,40520,8285,1,0,0
44714,40491,8364,1,0,0
44712,40462,8424,1,0,0
44711,40437,8471,1,0,0
44682,40418,8508,1,0,0
44633,40402,8528,1,0,0
44589,40386,8536,1,0,0
44538,40365,8540,1,0,0
44462,40336,8541,1,0,0
44380,40303,8534,1,0,0
44311,40272,8522,1,0,0
44239,40240,8514,1,0,0
44154,40203,8507,1,0,0
44065,40162,8497,1,0,0
43979,40119,8478,1,0,0
43886,40080,8451,1,0,0
43775,40048,8422,1,0,0
43654,40023,8385,1,0,0
43537,40009,8331,1,0,0
43424,40006,8270,1,0,0
43316,40013,8213,1,0,0
43228,40027,8155,1,0,0
43166,40043,8091,1,0,0
43122,40054,8029,1,0,0
43095,40055,7971,1,0,0
43097,40041,7914,1,0,0
43127,40011,7863,1,0,0
43157,39970,7824,1,0,0
43176,39922,7793,1,0,0
43198,39867,7760,1,0,0
43219,39810,7724,1,0,0
43210,39753,7695,1,0,0
43167,39701,7667,1,0,0
43111,39660,7630,1,0,0
43046,39632,7582,1,0,0
42958,39613,7529,1,0,0
42850,39594,7467,1,0,0
42745,39572,7404,1,0,0
42652,39545,7346,1,0,0
42563,39516,7290,1,0,0
42474,39486,7235,1,0,0
42401,39454,7186,1,0,0
42343,39424,7154,1,0,0
42279,39402,7137,1,0,0
42212,39383,7128,1,0,0
42158,39361,7123,1,0,0
42105,39337,7118,1,0,0
42038,39311,7106,1,0,0
41969,39284,7074,1,0,0
41921,39259,7019,1,0,0
41882,39238,6941,1,0,0
41839,39225,6839,1,0,0
41814,39216,6712,1,0,0
41824,39205,6565,1,0,0
41842,39195,6415,1,0,0
41844,39192,6273,1,0,0
41845,39190,6145,1,0,0
41858,39184,6038,1,0,0
41868,39176,5957,1,0,0
41860,39166,5903,1,0,0
41850,39156,5870,1,0,0
41844,39149,5853,1,0,0
41824,39143,5844,1,0,0
41783,39135,5835,1,0,0
41738,39124,5818,1,0,0
41699,39116,5787,1,0,0
41652,39117,5740,1,0,0
41595,39122,5679,1,0,0
41542,39127,5603,1,0,0
41503,39134,5517,1,0,0
41477,39144,5429,1,0,0
41476,39157,5348,1,0,0
41524,39170,5276,1,0,0
41626,39181,5217,1,0,0
41757,39183,5175,1,0,0
41899,39174,5152,1,0,0
42054,39150,5149,1,0,0
42207,39114,5162,1,0,0
42323,39077,5189,1,0,0
42395,39044,5221,1,0,0
42435,39019,5246,1,0,0
42440,39003,5260,1,0,0
42394,38996,5268,1,0,0
42323,38994,5267,1,0,0
42265,38993,5250,1,0,0
42222,38990,5216,1,0,0
42181,38982,5173,1,0,0
42167,38969,5119,1,0,0
42198,38949,5056,1,0,0
42257,38925,4990,1,0,0
42320,38898,4929,1,0,0
42401,38866,4872,1,0,0
42510,38832,4816,1,0,0
42625,38796,4767,1,0,0
42726,38757,4734,1,0,0
42829,38720,4716,1,0,0
42944,38691,4711,1,0,0
43052,38674,4724,1,0,0
43135,38672,4759,1,0,0
43203,38684,4813,1,0,0
43263,38709,4879,1,0,0
43303,38751,4954,1,0,0
43317,38809,5035,1,0,0
43320,38875,5112,1,0,0
43326,38947,5180,1,0,0
43334,39024,5249,1,0,0
43351,39103,5325,1,0,0
43392,39186,5411,1,0,0
43455,39277,5513,1,0,0
43528,39372,5640,1,0,0
43605,39468,5789,1,0,0
43694,39564,5949,1,0,0
43788,39659,6115,1,0,0
43862,39759,6287,1,0,0
43905,39862,6454,1,0,0
43930,39963,6608,1,0,0
43934,40062,6748,1,0,0
43900,40157,6873,1,0,0
43840,40245,6979,1,0,0
43780,40324,7068,1,0,0
43718,40395,7148,1,0,0
43643,40454,7225,1,0,0
43571,40500,7307,1,0,0
43528,40531,7400,1,0,0
43504,40549,7511,1,0,0
43480,40557,7637,1,0,0
43464,40558,7772,1,0,0
43464,40551,7907,1,0,0
43467,40541,8041,1,0,0
43462,40534,8173,1,0,0
43450,40531,8296,1,0,0
43433,40540,8404,1,0,0
43397,40558,8496,1,0,0
43337,40584,8575,1,0,0
43267,40618,8645,1,0,0
43203,40659,8707,1,0,0
43140,40706,8763,1,0,0
43073,40759,8816,1,0,0
43024,40811,8866,1,0,0
43009,40858,8913,1,0,0
43005,40899,8958,1,0,0
42993,40933,9008,1,0,0
42986,40953,9063,1,0,0
42984,40956,9115,1,0,0
42957,40945,9158,1,0,0
42895,40921,9189,1,0,0
42830,40891,9205,1,0,0
42771,40860,9205,1,0,0
42695,40831,9185,1,0,0
42597,40803,9146,1,0,0
42494,40779,9091,1,0,0
42391,40762,9030,1,0,0
42277,40754,8969,1,0,0
42160,40753,8913,1,0,0
42065,40753,8867,1,0,0
42002,40750,8835,1,0,0
41959,40746,8813,1,0,0
41934,40738,8792,1,0,0
41941,40723,8770,1,0,0
41971,40700,8746,1,0,0
41996,40665,8720,1,0,0
42014,40618,8692,1,0,0
42034,40567,8661,1,0,0
42036,40522,8632,1,0,0
41991,40488,8612,1,0,0
41915,40464,8601,1,0,0
41838,40452,8601,1,0,0
41752,40454,8619,1,0,0
41647,40468,8654,1,0,0
41544,40490,8698,1,0,0
41462,40511,8750,1,0,0
41393,40525,8809,1,0,0
41324,40531,8861,1,0,0
41260,40527,8894,1,0,0
41210,40513,8903,1,0,0
41167,40490,8894,1,0,0
41125,40458,8878,1,0,0
41096,40420,8857,1,0,0
41084,40384,8836,1,0,0
41069,40357,8819,1,0,0
41044,40340,8809,1,0,0
41025,40327,8802,1,0,0
41021,40319,8802,1,0,0
41013,40319,8811,1,0,0
40992,40327,8825,1,0,0
40979,40340,8833,1,0,0
40986,40355,8830,1,0,0
40992,40368,8815,1,0,0
40992,40378,8783,1,0,0
41002,40381,8723,1,0,0
41023,40378,8636,1,0,0
41038,40365,8532,1,0,0
41044,40340,8420,1,0,0
41053,40303,8298,1,0,0
41063,40257,8178,1,0,0
41056,40212,8078,1,0,0
41031,40171,8006,1,0,0
41007,40131,7956,1,0,0
40990,40094,7929,1,0,0
40969,40061,7932,1,0,0
40947,40034,7954,1,0,0
40941,40012,7976,1,0,0
40958,39995,7994,1,0,0
40985,39982,8010,1,0,0
41028,39971,8007,1,0,0
41103,39965,7971,1,0,0
41198,39962,7907,1,0,0
41295,39962,7824,1,0,0
41400,39959,7722,1,0,0
41526,39950,7601,1,0,0
41656,39936,7473,1,0,0
41768,39920,7355,1,0,0
41881,39905,7248,1,0,0
42012,39893,7156,1,0,0
42140,39883,7094,1,0,0
42249,39876,7065,1,0,0
42358,39870,7056,1,0,0
42485,39865,7059,1,0,0
42619,39864,7078,1,0,0
42748,39866,7103,1,0,0
42877,39867,7114,1,0,0
43008,39866,7103,1,0,0
43121,39865,7079,1,0,0
43205,39864,7042,1,0,0
43269,39861,6985,1,0,0
43312,39858,6914,1,0,0
43322,39855,6847,1,0,0
43304,39848,6792,1,0,0
43274,39835,6750,1,0,0
43238,39819,6723,1,0,0
43192,39794,6720,1,0,0
43147,39758,6740,1,0,0
43124,39714,6773,1,0,0
43127,39669,6811,1,0,0
43138,39626,6858,1,0,0
43154,39585,6905,1,0,0
43187,39542,6936,1,0,0
43241,39497,6951,1,0,0
43297,39452,6963,1,0,0
43352,39414,6975,1,0,0
43417,39382,6980,1,0,0
43487,39358,6982,1,0,0
43545,39338,6992,1,0,0
43585,39316,7010,1,0,0
43614,39297,7039,1,0,0
43627,39284,7094,1,0,0
43612,39274,7192,1,0,0
43580,39262,7331,1,0,0
43543,39250,7509,1,0,0
43497,39241,7729,1,0,0
43437,39237,7982,1,0,0
43385,39232,8247,1,0,0
43359,39223,8504,1,0,0
43342,39216,8743,1,0,0
43324,39217,8945,1,0,0
43317,39227,9088,1,0,0
43324,39252,9162,1,0,0
43317,39296,9179,1,0,0
43280,39356,9147,1,0,0
43232,39432,9075,1,0,0
43183,39525,8983,1,0,0
43115,39634,8907,1,0,0
43026,39758,8864,1,0,0
42945,39891,8854,1,0,0
42882,40029,8885,1,0,0
42819,40167,8966,1,0,0
42756,40297,9089,1,0,0
42726,40410,9234,1,0,0
42741,40505,9386,1,0,0
42785,40585,9540,1,0,0
42850,40650,9679,1,0,0
42946,40705,9788,1,0,0
43061,40759,9863,1,0,0
43165,40810,9907,1,0,0
43249,40853,9919,1,0,0
43317,40891,9896,1,0,0
43358,40930,9853,1,0,0
43355,40968,9808,1,0,0
43314,41005,9763,1,0,0
43262,41036,9713,1,0,0
43214,41060,9666,1,0,0
43168,41078,9639,1,0,0
43129,41090,9626,1,0,0
43113,41093,9612,1,0,0
43117,41088,9605,1,0,0
43126,41078,9616,1,0,0
43144,41069,9640,1,0,0
43176,41065,9663,1,0,0
43206,41068,9683,1,0,0
43211,41078,9699,1,0,0
43199,41098,9694,1,0,0
43183,41124,9651,1,0,0
43149,41156,9569,1,0,0
43083,41190,9450,1,0,0
43002,41220,9287,1,0,0
42919,41244,9084,1,0,0
42815,41263,8875,1,0,0
42683,41275,8683,1,0,0
42545,41273,8512,1,0,0
42417,41258,8371,1,0,0
42285,41234,8292,1,0,0
42150,41199,8288,1,0,0
42036,41160,8342,1,0,0
41957,41125,8437,1,0,0
41901,41095,8573,1,0,0
41867,41070,8739,1,0,0
41875,41046,8904,1,0,0
41929,41023,9040,1,0,0
42003,41005,9144,1,0,0
42086,40990,9203,1,0,0
42181,40973,9199,1,0,0
42268,40954,9134,1,0,0
42321,40935,9034,1,0,0
42338,40909,8914,1,0,0
42333,40875,8779,1,0,0
42308,40840,8647,1,0,0
42259,40806,8544,1,0,0
42202,40772,8471,1,0,0
42171,40735,8418,1,0,0
42174,40697,8393,1,0,0
42197,40666,8404,1,0,0
42237,40642,8436,1,0,0
42296,40625,8475,1,0,0
42357,40612,8518,1,0,0
42396,40603,8558,1,0,0
42410,40599,8575,1,0,0
42405,40601,8551,1,0,0
42370,40604,8487,1,0,0
42293,40601,8388,1,0,0
42193,40590,8256,1,0,0
42096,40572,8099,1,0,0
41994,40555,7936,1,0,0
41879,40539,7789,1,0,0
41780,40522,7670,1,0,0
41718,40499,7589,1,0,0
41673,40471,7549,1,0,0
41636,40439,7549,1,0,0
41635,40405,7580,1,0,0
41678,40367,7632,1,0,0
41741,40328,7700,1,0,0
41813,40288,7763,1,0,0
41913,40249,7797,1,0,0
42041,40214,7794,1,0,0
42170,40182,7759,1,0,0
42300,40150,7688,1,0,0
42453,40117,7583,1,0,0
42622,40086,7459,1,0,0
42777,40059,7344,1,0,0
42910,40035,7251,1,0,0
43035,40006,7178,1,0,0
43155,39970,7135,1,0,0
43263,39930,7136,1,0,0
43369,39889,7179,1,0,0
43493,39848,7245,1,0,0
43635,39802,7324,1,0,0
43782,39748,7415,1,0,0
43939,39686,7503,1,0,0
44123,39617,7565,1,0,0
44322,39548,7589,1,0,0
44509,39485,7577,1,0,0
44682,39436,7521,1,0,0
44850,39400,7416,1,0,0
45001,39379,7279,1,0,0
45115,39374,7130,1,0,0
45195,39384,6975,1,0,0
45256,39402,6820,1,0,0
45287,39423,6686,1,0,0
45276,39441,6586,1,0,0
45251,39450,6520,1,0,0
45247,39453,6484,1,0,0
45251,39452,6491,1,0,0
45246,39442,6543,1,0,0
45256,39422,6625,1,0,0
45299,39398,6724,1,0,0
45352,39370,6849,1,0,0
45405,39343,6999,1,0,0
45480,39317,7161,1,0,0
45580,39298,7329,1,0,0
45669,39284,7511,1,0,0
45729,39276,7712,1,0,0
45778,39271,7923,1,0,0
45816,39269,8137,1,0,0
45819,39268,8359,1,0,0
45775,39265,8585,1,0,0
45702,39255,8804,1,0,0
45609,39239,9013,1,0,0
45487,39216,9212,1,0,0
45343,39184,9392,1,0,0
45209,39143,9545,1,0,0
45098,39101,9673,1,0,0
45003,39068,9784,1,0,0
44939,39044,9875,1,0,0
44930,39023,9947,1,0,0
44969,39008,10010,1,0,0
45023,38999,10083,1,0,0
45087,38992,10164,1,0,0
45176,38981,10244,1,0,0
45262,38969,10324,1,0,0
45308,38956,10408,1,0,0
45319,38939,10494,1,0,0
45316,38920,10575,1,0,0
45286,38901,10650,1,0,0
45213,38883,10715,1,0,0
45130,38871,10762,1,0,0
45071,38872,10789,1,0,0
45031,38889,10803,1,0,0
44999,38930,10812,1,0,0
44995,38998,10816,1,0,0
45038,39090,10824,1,0,0
45102,39206,10841,1,0,0
45155,39339,10862,1,0,0
45204,39482,10884,1,0,0
45252,39627,10909,1,0,0
45274,39777,10928,1,0,0
45254,39926,10923,1,0,0
45214,40068,10888,1,0,0
45163,40198,10828,1,0,0
45077,40313,10743,1,0,0
44950,40408,10635,1,0,0
44812,40486,10514,1,0,0
44682,40547,10395,1,0,0
44544,40600,10283,1,0,0
44400,40648,10176,1,0,0
44279,40695,10075,1,0,0
44192,40740,9990,1,0,0
44115,40781,9920,1,0,0
44052,40814,9864,1,0,0
44024,40841,9818,1,0,0
44024,40864,9776,1,0,0
44020,40881,9721,1,0,0
44010,40890,9639,1,0,0
44011,40893,9527,1,0,0
44008,40892,9392,1,0,0
43972,40894,9245,1,0,0
43907,40906,9098,1,0,0
43840,40924,8967,1,0,0
43768,40946,8863,1,0,0
43677,40971,8794,1,0,0
43579,40998,8763,1,0,0
43494,41024,8775,1,0,0
43424,41050,8823,1,0,0
43352,41073,8891,1,0,0
43282,41090,8963,1,0,0
43223,41099,9026,1,0,0
43166,41104,9070,1,0,0
43095,41102,9085,1,0,0
43023,41091,9072,1,0,0
42961,41070,9036,1,0,0
42901,41042,8978,1,0,0
42830,41009,8897,1,0,0
42769,40977,8799,1,0,0
42733,40943,8694,1,0,0
42708,40911,8589,1,0,0
42682,40883,8486,1,0,0
42671,40859,8396,1,0,0
42683,40836,8328,1,0,0
42691,40815,8280,1,0,0
42680,40795,8246,1,0,0
42663,40773,8231,1,0,0
42637,40746,8238,1,0,0
42572,40714,8258,1,0,0
42456,40679,8273,1,0,0
42317,40640,8273,1,0,0
42168,40597,8255,1,0,0
41994,40558,8217,1,0,0
41801,40527,8156,1,0,0
41625,40506,8080,1,0,0
41475,40495,8003,1,0,0
41338,40493,7929,1,0,0
41218,40497,7860,1,0,0
41136,40508,7808,1,0,0
41087,40528,7782,1,0,0
41052,40550,7772,1,0,0
41034,40563,7768,1,0,0
41045,40563,7765,1,0,0
41071,40547,7761,1,0,0
41089,40520,7746,1,0,0
41105,40484,7714,1,0,0
41135,40442,7665,1,0,0
41166,40399,7601,1,0,0
41188,40359,7526,1,0,0
41220,40323,7449,1,0,0
41285,40291,7380,1,0,0
41375,40266,7328,1,0,0
41474,40244,7306,1,0,0
41589,40222,7308,1,0,0
41727,40195,7325,1,0,0
41870,40163,7359,1,0,0
41997,40124,7402,1,0,0
42112,40078,7433,1,0,0
42220,40020,7442,1,0,0
42312,39957,7434,1,0,0
42380,39894,7408,1,0,0
42436,39835,7359,1,0,0
42491,39784,7290,1,0,0
42535,39743,7217,1,0,0
42560,39711,7144,1,0,0
42580,39688,7064,1,0,0
42602,39674,6980,1,0,0
42615,39665,6910,1,0,0
42620,39659,6859,1,0,0
42640,39649,6824,1,0,0
42678,39632,6809,1,0,0
42712,39608,6819,1,0,0
42747,39577,6853,1,0,0
42799,39536,6901,1,0,0
42864,39492,6963,1,0,0
42911,39448,7043,1,0,0
42940,39402,7130,1,0,0
42973,39361,7215,1,0,0
43007,39333,7303,1,0,0
43027,39319,7403,1,0,0
43048,39313,7510,1,0,0
43095,39310,7612,1,0,0
43162,39311,7707,1,0,0
43234,39318,7805,1,0,0
43328,39327,7902,1,0,0
43467,39335,7994,1,0,0
43635,39341,8085,1,0,0
43807,39344,8183,1,0,0
43987,39342,8280,1,0,0
44180,39337,8375,1,0,0
44363,39332,8477,1,0,0
44505,39325,8589,1,0,0
44595,39315,8708,1,0,0
44635,39303,8833,1,0,0
44614,39291,8967,1,0,0
44525,39284,9106,1,0,0
44390,39277,9240,1,0,0
44235,39267,9366,1,0,0
44073,39255,9477,1,0,0
43915,39244,9562,1,0,0
43789,39234,9619,1,0,0
43719,39228,9656,1,0,0
43694,39222,9673,1,0,0
43703,39213,9669,1,0,0
43758,39197,9656,1,0,0
43858,39179,9647,1,0,0
43969,39162,9648,1,0,0
44070,39141,9657,1,0,0
44173,39114,9680,1,0,0
44274,39082,9722,1,0,0
44336,39051,9780,1,0,0
44353,39021,9846,1,0,0
44351,38993,9908,1,0,0
44337,38968,9963,1,0,0
44292,38947,10011,1,0,0
44219,38934,10043,1,0,0
44142,38930,10053,1,0,0
44072,38937,10043,1,0,0
44000,38953,10026,1,0,0
43939,38973,10003,1,0,0
43909,38997,9970,1,0,0
43909,39028,9938,1,0,0
43920,39067,9917,1,0,0
