green_channel,red_channel,ir_channel,Anomaly_ch0,Anomaly_ch1,Anomaly_ch2
46283,18625,5353,0,0,0
46550,18866,6200,0,0,0
46778,19068,6961,0,0,0
46969,19234,7618,0,0,0
47127,19371,8161,0,0,0
47252,19478,8593,0,0,0
47348,19558,8920,0,0,0
47418,19615,9156,0,0,0
47463,19656,9315,0,0,0
47490,19682,9410,0,0,0
47502,19694,9454,0,0,0
47498,19692,9458,0,0,0
47480,19675,9427,0,0,0
47448,19646,9369,0,0,0
47407,19610,9295,0,0,0
47361,19568,9211,0,0,0
47313,19521,9117,0,0,0
47263,19468,9018,0,0,0
47213,19416,8920,0,0,0
47162,19366,8826,0,0,0
47110,19315,8733,0,0,0
47053,19262,8646,0,0,0
46996,19208,8564,0,0,0
46943,19153,8486,0,0,0
46890,19098,8408,0,0,0
46833,19041,8330,0,0,0
46770,18984,8249,0,0,0
46702,18927,8160,0,0,0
46626,18867,8062,0,0,0
46544,18800,7958,0,0,0
46464,18731,7848,0,0,0
46387,18661,7730,0,0,0
46306,18588,7607,0,0,0
46223,18515,7483,0,0,0
46146,18446,7365,0,0,0
46074,18384,7251,0,0,0
46002,18324,7144,0,0,0
45936,18265,7048,0,0,0
45881,18213,6967,0,0,0
45838,18171,6901,0,0,0
45809,18142,6852,0,0,0
45794,18125,6821,0,0,0
45792,18122,6806,0,0,0
45799,18129,6799,0,0,0
45813,18143,6804,0,0,0
45838,18164,6828,0,0,0
45873,18193,6867,0,0,0
45913,18228,6913,0,0,0
45952,18263,6962,0,0,0
45988,18302,7016,0,0,0
46024,18342,7070,0,0,0
46061,18377,7115,0,0,0
46092,18406,7150,0,0,0
46119,18431,7184,0,0,0
46144,18455,7215,0,0,0
46167,18475,7237,0,0,0
46182,18485,7246,0,0,0
46188,18489,7245,0,0,0
46187,18487,7234,0,0,0
46175,18476,7209,0,0,0
46150,18455,7174,0,0,0
46112,18422,7129,0,0,0
46066,18382,7071,0,0,0
46013,18339,7002,0,0,0
45951,18288,6922,0,0,0
45881,18225,6828,0,0,0
45808,18155,6723,0,0,0
45732,18082,6611,0,0,0
45653,18007,6499,0,0,0
45570,17930,6387,0,0,0
45490,17853,6271,0,0,0
45410,17777,6149,0,0,0
45326,17698,6021,0,0,0
45239,17614,5889,0,0,0
45148,17529,5754,0,0,0
45054,17443,5619,0,0,0
44959,17358,5486,0,0,0
44865,17271,5354,0,0,0
44774,17186,5218,0,0,0
44686,17103,5081,0,0,0
44596,17020,4949,0,0,0
44511,16940,4825,0,0,0
44429,16865,4702,0,0,0
44347,16794,4577,0,0,0
44265,16724,4458,0,0,0
44185,16656,4343,0,0,0
44110,16589,4229,0,0,0
44037,16520,4118,0,0,0
43962,16449,4011,0,0,0
43886,16379,3904,0,0,0
43816,16316,3800,0,0,0
43751,16256,3697,0,0,0
43689,16197,3598,0,0,0
43631,16140,3505,0,0,0
43572,16084,3414,0,0,0
43517,16032,3326,0,0,0
43470,15985,3249,0,0,0
43428,15940,3179,0,0,0
43384,15898,3110,0,0,0
43339,15862,3039,0,0,0
43295,15833,2972,0,0,0
43255,15806,2910,0,0,0
43217,15779,2849,0,0,0
43179,15753,2788,0,0,0
43145,15727,2733,0,0,0
43118,15704,2682,0,0,0
43093,15680,2629,0,0,0
43066,15652,2577,0,0,0
43036,15624,2529,0,0,0
43006,15598,2482,0,0,0
42975,15569,2432,0,0,0
42942,15538,2380,0,0,0
42910,15507,2327,0,0,0
42876,15474,2272,0,0,0
42834,15436,2212,0,0,0
42790,15395,2151,0,0,0
42751,15358,2094,0,0,0
42715,15324,2041,0,0,0
42678,15292,1989,0,0,0
42638,15260,1937,0,0,0
42600,15227,1885,0,0,0
42566,15194,1826,0,0,0
42532,15155,1762,0,0,0
42495,15115,1699,0,0,0
42458,15080,1639,0,0,0
42424,15049,1579,0,0,0
42392,15017,1522,0,0,0
42355,14985,1471,0,0,0
42318,14956,1423,0,0,0
42280,14925,1367,0,0,0
42240,14893,1301,0,0,0
42200,14858,1231,0,0,0
42157,14822,1158,0,0,0
42110,14783,1079,0,0,0
42058,14739,993,0,0,0
42000,14690,906,0,0,0
41942,14637,818,0,0,0
41881,14577,727,0,0,0
41815,14515,634,0,0,0
41748,14453,543,0,0,0
41681,14389,453,0,0,0
41615,14324,1679,0,0,0
41554,14261,4967,0,0,0
41506,14213,8007,0,0,0
41479,14190,9345,0,0,0
41486,14201,9505,0,0,0
41538,14255,8930,0,0,0
41645,14359,7969,0,0,0
41812,14514,6881,0,0,0
42038,14722,5852,0,0,0
42322,14982,5002,0,0,0
42656,15291,4387,0,0,0
43039,15644,4027,0,0,0
43458,16035,3914,0,0,0
43899,16445,4020,0,0,0
44353,16865,4308,0,0,0
44814,17291,4740,0,0,0
45271,17712,5269,0,0,0
45709,18115,5852,0,0,0
46123,18494,6456,0,0,0
46506,18844,7052,0,0,0
46851,19160,7615,0,0,0
47154,19433,8129,0,0,0
47420,19666,8588,0,0,0
47652,19865,8991,0,0,0
47847,20033,9336,0,0,0
48007,20173,9629,0,0,0
48139,20290,9879,0,0,0
48246,20384,10083,0,0,0
48321,20453,10238,0,0,0
48367,20498,10348,0,0,0
48393,20524,10424,0,0,0
48403,20536,10471,0,0,0
48400,20534,10487,0,0,0
48388,20519,10474,0,0,0
48370,20495,10439,0,0,0
48345,20463,10389,0,0,0
48311,20423,10330,0,0,0
48273,20380,10263,0,0,0
48236,20337,10192,0,0,0
48199,20295,10122,0,0,0
48162,20252,10052,0,0,0
48124,20209,9984,0,0,0
48085,20169,9920,0,0,0
48043,20133,9860,0,0,0
47996,20097,9806,0,0,0
47948,20059,9755,0,0,0
47901,20022,9701,0,0,0
47851,19980,9637,0,0,0
47794,19930,9563,0,0,0
47729,19873,9480,0,0,0
47655,19807,9382,0,0,0
47572,19733,9270,0,0,0
47483,19654,9146,0,0,0
47392,19574,9018,0,0,0
47302,19494,8888,0,0,0
47214,19417,8759,0,0,0
47133,19344,8639,0,0,0
47060,19274,8526,0,0,0
46992,19206,8417,0,0,0
46930,19141,8317,0,0,0
46876,19085,8231,0,0,0
46833,19043,8163,0,0,0
46797,19008,8108,0,0,0
46770,18980,8068,0,0,0
46754,18965,8047,0,0,0
46752,18967,8042,0,0,0
46758,18981,8050,0,0,0
46772,19004,8069,0,0,0
46793,19028,8100,0,0,0
46821,19053,8141,0,0,0
46854,19084,8185,0,0,0
46887,19117,8231,0,0,0
46917,19147,8278,0,0,0
46947,19173,8320,0,0,0
46978,19198,8354,0,0,0
47005,19219,8380,0,0,0
47022,19232,8396,0,0,0
47030,19238,8400,0,0,0
47028,19237,8391,0,0,0
47018,19227,8368,0,0,0
46997,19207,8333,0,0,0
46967,19179,8286,0,0,0
46931,19145,8229,0,0,0
46886,19105,8165,0,0,0
46835,19061,8095,0,0,0
46781,19011,8016,0,0,0
46721,18952,7924,0,0,0
46649,18879,7819,0,0,0
46571,18800,7702,0,0,0
46495,18723,7580,0,0,0
46423,18645,7460,0,0,0
46348,18562,7339,0,0,0
46268,18477,7218,0,0,0
46186,18392,7096,0,0,0
46104,18310,6974,0,0,0
46023,18229,6854,0,0,0
45942,18149,6739,0,0,0
45860,18071,6622,0,0,0
45777,17997,6504,0,0,0
45694,17923,6388,0,0,0
45612,17848,6273,0,0,0
45530,17772,6155,0,0,0
45446,17696,6035,0,0,0
45363,17623,5919,0,0,0
45280,17555,5805,0,0,0
45200,17487,5689,0,0,0
45121,17416,5571,0,0,0
45044,17346,5454,0,0,0
44971,17279,5337,0,0,0
44900,17211,5219,0,0,0
44830,17141,5101,0,0,0
44762,17073,4991,0,0,0
44693,17007,4887,0,0,0
44622,16943,4786,0,0,0
44552,16880,4690,0,0,0
44489,16817,4599,0,0,0
44431,16754,4511,0,0,0
44376,16696,4424,0,0,0
44323,16641,4338,0,0,0
44276,16590,4259,0,0,0
44237,16546,4189,0,0,0
44197,16509,4122,0,0,0
44154,16475,4055,0,0,0
44107,16444,3990,0,0,0
44061,16415,3929,0,0,0
44017,16385,3867,0,0,0
43972,16352,3801,0,0,0
43927,16319,3735,0,0,0
43883,16284,3671,0,0,0
43841,16248,3608,0,0,0
43797,16207,3545,0,0,0
43751,16163,3486,0,0,0
43707,16121,3429,0,0,0
43669,16083,3370,0,0,0
43634,16047,3311,0,0,0
43597,16009,3250,0,0,0
43562,15971,3184,0,0,0
43524,15931,3116,0,0,0
43480,15885,3050,0,0,0
43432,15839,2989,0,0,0
43387,15795,2927,0,0,0
43345,15751,2862,0,0,0
43307,15707,2799,0,0,0
43271,15669,2738,0,0,0
43232,15632,2672,0,0,0
43190,15596,2605,0,0,0
43146,15561,2542,0,0,0
43101,15526,2482,0,0,0
43056,15491,2420,0,0,0
43009,15455,2355,0,0,0
42961,15417,2290,0,0,0
42911,15377,2219,0,0,0
42860,15333,2138,0,0,0
42807,15282,2051,0,0,0
42753,15230,1964,0,0,0
42695,15174,1877,0,0,0
42634,15115,1789,0,0,0
42570,15053,1701,0,0,0
42504,14989,1612,0,0,0
42435,14927,1524,0,0,0
42367,14867,1431,0,0,0
42297,14808,1335,0,0,0
42230,14752,1239,0,0,0
42165,14697,1144,0,0,0
42097,14639,1045,0,0,0
42025,14577,943,0,0,0
41950,14514,844,0,0,0
41876,14452,748,0,0,0
41804,14387,651,0,0,0
41732,14317,549,0,0,0
41664,14245,447,0,0,0
41603,14179,351,0,0,0
41546,14122,265,0,0,0
41498,14075,201,0,0,0
41471,14052,171,0,0,0
41478,14063,187,0,0,0
41528,14113,261,0,0,0
41627,14209,408,0,0,0
41785,14358,639,0,0,0
42005,14564,952,0,0,0
42285,14821,1344,0,0,0
42625,15124,1814,0,0,0
43019,15473,2356,0,0,0
43454,15863,2956,0,0,0
43919,16285,3603,0,0,0
44402,16728,4287,0,0,0
44891,17181,4988,0,0,0
45375,17630,5682,0,0,0
45839,18061,6353,0,0,0
46278,18463,6994,0,0,0
46688,18838,7597,0,0,0
47060,19177,8149,0,0,0
47389,19476,8644,0,0,0
47679,19741,9085,0,0,0
47932,19976,9475,0,0,0
48149,20177,9813,0,0,0
48332,20346,10104,0,0,0
48483,20484,10351,0,0,0
48605,20593,10558,0,0,0
48698,20674,10720,0,0,0
48763,20727,10837,0,0,0
48804,20760,10918,0,0,0
48826,20778,10968,0,0,0
48830,20782,10991,0,0,0
48819,20777,10992,0,0,0
48800,20763,10975,0,0,0
48773,20738,10943,0,0,0
48740,20702,10897,0,0,0
48699,20657,10838,0,0,0
48653,20607,10771,0,0,0
48605,20556,10703,0,0,0
48560,20507,10635,0,0,0
48519,20460,10568,0,0,0
48482,20418,10501,0,0,0
48449,20381,10442,0,0,0
48420,20353,10390,0,0,0
48389,20325,10337,0,0,0
48349,20292,10281,0,0,0
48302,20252,10218,0,0,0
48249,20208,10149,0,0,0
48187,20159,10070,0,0,0
48117,20103,9981,0,0,0
48043,20040,9884,0,0,0
47962,19966,9778,0,0,0
47871,19883,9666,0,0,0
47779,19797,9552,0,0,0
47693,19715,9433,0,0,0
47613,19636,9310,0,0,0
47539,19565,9195,0,0,0
47474,19503,9095,0,0,0
47417,19453,9006,0,0,0
47365,19411,8928,0,0,0
47320,19378,8863,0,0,0
47285,19352,8811,0,0,0
47258,19334,8767,0,0,0
47237,19324,8736,0,0,0
47225,19326,8724,0,0,0
47227,19336,8728,0,0,0
47243,19354,8743,0,0,0
47268,19376,8768,0,0,0
47295,19393,8801,0,0,0
47321,19408,8835,0,0,0
47347,19424,8866,0,0,0
47373,19440,8892,0,0,0
47394,19455,8916,0,0,0
47412,19469,8936,0,0,0
47426,19481,8950,0,0,0
47432,19491,8959,0,0,0
47431,19498,8965,0,0,0
47424,19501,8963,0,0,0
47412,19497,8949,0,0,0
47390,19483,8925,0,0,0
47358,19457,8889,0,0,0
47322,19421,8840,0,0,0
47285,19377,8778,0,0,0
47240,19324,8705,0,0,0
47181,19259,8620,0,0,0
47110,19187,8524,0,0,0
47031,19111,8416,0,0,0
46943,19031,8301,0,0,0
46848,18948,8180,0,0,0
46749,18862,8051,0,0,0
46651,18774,7913,0,0,0
46554,18685,7771,0,0,0
46457,18594,7626,0,0,0
46359,18496,7476,0,0,0
46259,18392,7323,0,0,0
46160,18290,7174,0,0,0
46060,18196,7030,0,0,0
45960,18105,6885,0,0,0
45856,18015,6740,0,0,0
45752,17926,6597,0,0,0
45647,17837,6453,0,0,0
45540,17746,6305,0,0,0
45427,17649,6151,0,0,0
45310,17548,5996,0,0,0
45195,17449,5844,0,0,0
45084,17351,5693,0,0,0
44979,17256,5543,0,0,0
44883,17163,5404,0,0,0
44797,17078,5280,0,0,1
44716,16999,5162,0,0,1
44635,16923,5049,0,0,1
44554,16851,4940,0,0,1
44478,16782,4829,0,0,1
44405,16716,4715,0,0,1
44334,16653,4605,0,0,1
44267,16590,4504,0,0,1
44208,16532,4412,0,0,1
44153,16477,4319,0,0,1
44096,16419,4224,0,0,1
44038,16358,4133,0,0,1
43977,16299,4047,0,0,1
43915,16243,3961,0,0,1
43855,16192,3879,0,0,1
43800,16147,3801,0,0,1
43744,16102,3723,0,0,1
43688,16053,3643,0,0,1
43635,16005,3565,0,0,1
43589,15963,3493,0,0,1
43547,15922,3423,0,0,1
43500,15879,3350,0,0,1
43450,15834,3275,0,0,1
43398,15786,3201,0,0,1
43347,15740,3128,0,0,1
43297,15695,3059,0,0,1
43249,15648,2993,0,0,1
43201,15600,2931,0,0,1
43156,15555,2867,0,0,1
43112,15512,2798,0,0,1
43064,15469,2729,0,0,1
43014,15425,2660,0,0,1
42962,15381,2585,0,0,1
42909,15336,2505,0,0,1
42853,15286,2423,0,0,1
42799,15236,2341,0,0,1
42745,15186,2258,0,0,1
42687,15132,2174,0,0,1
42626,15072,2088,0,0,1
42564,15009,1998,0,0,1
42503,14947,1907,0,0,1
42442,14888,1819,0,0,1
42382,14833,1738,0,0,1
42323,14783,1658,0,0,1
42264,14736,1578,0,0,1
42204,14686,1497,0,0,1
42145,14635,1418,0,0,1
42088,14589,1336,0,0,1
42033,14544,1251,0,0,1
41975,14495,1168,0,0,1
41910,14440,1089,0,0,1
41840,14382,1007,0,0,1
41770,14324,920,0,0,1
41703,14264,829,0,0,1
41639,14200,738,0,0,1
41574,14136,645,0,0,1
41507,14071,545,0,0,1
41437,13997,1754,0,0,1
41363,13916,6329,0,0,1
41283,13834,13999,0,0,1
41199,13753,23031,0,0,1
41114,13674,32205,0,0,1
41030,13598,40725,0,0,1
40946,13524,48134,0,0,1
40865,13455,54225,0,0,1
40787,13390,58975,0,0,1
40717,13333,62484,0,0,1
40659,13287,64915,0,0,1
40619,13254,932,0,0,1
40606,13242,1811,0,0,1
40627,13260,896,0,0,1
40697,13321,61841,0,0,1
40822,13435,53982,0,0,1
41003,13603,44705,0,0,1
41243,13826,35316,0,0,1
41545,14104,26666,0,0,1
41903,14431,19242,0,0,1
42305,14798,13254,0,0,1
42744,15200,8725,0,0,1
43214,15628,5549,0,0,1
43695,16066,3551,0,0,1
44178,16505,2522,0,0,1
44655,16941,2240,0,0,1
45116,17363,2494,0,0,1
45550,17756,3104,0,0,1
45947,18112,3924,0,0,1
46303,18429,4834,0,0,1
46621,18713,5751,0,0,1
46900,18964,6618,0,0,1
47136,19178,7399,0,0,1
47332,19359,8074,0,0,1
47492,19510,8634,0,0,1
47620,19632,9082,0,0,1
47721,19727,9430,0,0,1
47796,19798,9688,0,0,1
47843,19845,9861,0,0,1
47858,19861,9958,0,0,1
47844,19853,9997,0,0,1
47815,19829,9994,0,0,1
47777,19794,9957,0,0,1
47730,19750,9894,0,0,1
47678,19703,9817,0,0,1
47624,19654,9731,0,0,1
47568,19601,9638,0,0,1
47511,19547,9542,0,0,1
47456,19496,9447,0,0,1
47405,19447,9354,0,0,1
47356,19398,9264,0,0,1
47310,19351,9181,0,0,1
47267,19307,9102,0,0,1
47225,19263,9024,0,0,1
47183,19217,8949,0,0,1
47138,19169,8878,0,0,1
47090,19116,8806,0,0,1
47040,19061,8725,0,0,1
46984,19003,8633,0,0,1
46921,18940,8534,0,0,1
46851,18875,8431,0,0,1
46780,18809,8326,0,0,1
46706,18739,8217,0,0,1
46630,18668,8105,0,0,1
46557,18599,7994,0,0,1
46490,18537,7891,0,0,1
46431,18482,7800,0,0,1
46380,18432,7723,0,0,1
46339,18391,7659,0,0,1
46309,18361,7606,0,0,1
46288,18342,7564,0,0,1
46277,18330,7538,0,0,1
46278,18329,7531,0,0,1
46289,18341,7539,0,0,1
46309,18364,7564,0,0,1
46340,18396,7607,0,0,1
46382,18436,7664,0,0,1
46430,18482,7726,0,0,1
46477,18527,7786,0,0,1
46523,18569,7844,0,0,1
46565,18613,7901,0,0,1
46607,18658,7952,0,0,1
46645,18696,7993,0,0,1
46670,18723,8024,0,0,1
46683,18741,8046,0,0,1
46691,18752,8062,0,0,1
46693,18756,8067,0,0,1
46688,18754,8061,0,0,1
46677,18749,8049,0,0,1
46661,18737,8031,0,0,1
46636,18716,8004,0,0,1
46603,18688,7967,0,0,1
46567,18653,7912,0,0,1
46525,18610,7844,0,0,1
46475,18560,7770,0,0,1
46415,18505,7690,0,0,1
46348,18446,7599,0,0,1
46276,18380,7492,0,0,1
46202,18307,7373,0,0,1
46125,18229,7248,0,0,1
46044,18148,7119,0,0,1
45960,18066,6989,0,0,1
45873,17983,6862,0,0,1
45784,17900,6739,0,0,1
45697,17818,6613,0,0,1
45612,17736,6486,0,0,1
45523,17652,6359,0,0,1
45431,17566,6231,0,0,1
45340,17482,6104,0,0,1
45251,17399,5976,0,0,1
45161,17314,5847,0,0,1
45069,17232,5719,0,0,1
44981,17153,5591,0,0,1
44899,17079,5465,0,0,1
44821,17009,5344,0,0,1
44741,16939,5229,0,0,1
44662,16869,5117,0,0,1
44583,16801,5004,0,0,1
44504,16732,4893,0,0,1
44429,16664,4787,0,0,1
44358,16598,4686,0,0,1
44290,16533,4588,0,0,1
44228,16473,4494,0,0,1
44175,16419,4404,0,0,1
44127,16370,4316,0,0,1
44078,16322,4233,0,0,1
44028,16276,4155,0,0,1
43981,16232,4084,0,0,1
43935,16188,4013,0,0,1
43890,16144,3944,0,0,1
43849,16102,3877,0,0,1
43809,16062,3809,0,0,1
43767,16028,3742,0,0,1
43724,15995,3683,0,0,1
43687,15965,3630,0,0,1
43655,15939,3580,0,0,1
43624,15913,3529,0,0,1
43592,15882,3477,0,0,1
43560,15845,3423,0,0,1
43527,15807,3367,0,0,1
43493,15773,3311,0,0,1
43460,15746,3261,0,0,0
43427,15724,3217,0,0,0
43397,15703,3175,0,0,0
43366,15680,3129,0,0,0
43334,15653,3078,0,0,0
43302,15626,3029,0,0,0
43272,15598,2979,0,0,0
43243,15568,2923,0,0,0
43212,15534,2864,0,0,0
43177,15499,2806,0,0,0
43142,15465,2745,0,0,0
43106,15431,2688,0,0,0
43069,15398,2640,0,0,0
43036,15367,2598,0,0,0
43005,15338,2552,0,0,0
42970,15307,2504,0,0,0
42933,15275,2458,0,0,0
42898,15244,2408,0,0,0
42863,15208,2345,0,0,0
42819,15167,2274,0,0,0
42769,15123,2204,0,0,0
42717,15080,2134,0,0,0
42663,15034,2056,0,0,0
42603,14985,1972,0,0,0
42539,14931,1881,0,0,0
42475,14876,1788,0,0,0
42413,14821,1692,0,0,0
42348,14763,1591,0,0,0
42277,14701,1491,0,0,0
42205,14638,1395,0,0,0
42134,14577,1301,0,0,0
42066,14518,1209,0,0,0
42002,14460,1128,0,0,0
41949,14411,1062,0,0,0
41914,14377,1014,0,0,0
41900,14362,993,0,0,0
41918,14377,1014,0,0,0
41977,14428,1090,0,0,0
42083,14521,1229,0,0,0
42241,14658,1441,0,0,0
42454,14843,1727,0,0,0
42720,15079,2087,0,0,0
43037,15365,2517,0,0,0
43399,15693,3014,0,0,0
43797,16053,3569,0,0,0
44218,16442,4166,0,0,0
44652,16850,4790,0,0,0
45090,17262,5427,0,0,0
45522,17666,6064,0,0,0
45943,18055,6681,0,0,0
46342,18420,7267,0,0,0
46707,18754,7816,0,0,0
47036,19055,8322,0,0,0
47327,19319,8776,0,0,0
47581,19548,9175,0,0,0
47798,19745,9522,0,0,0
47983,19913,9818,0,0,0
48135,20052,10063,0,0,0
48252,20163,10261,0,0,0
48337,20244,10414,0,0,0
48394,20301,10526,0,0,0
48430,20337,10599,0,0,0
48448,20353,10634,0,0,0
48450,20354,10641,0,0,0
48436,20341,10625,0,0,0
48408,20313,10589,0,0,0
48367,20272,10533,0,0,0
48316,20225,10460,0,0,0
48260,20174,10373,0,0,0
48202,20118,10277,0,0,0
48139,20055,10174,0,0,0
48075,19993,10072,0,0,0
48009,19934,9976,0,0,0
47939,19875,9881,0,0,0
47873,19813,9789,0,0,0
47813,19754,9705,0,0,0
47757,19700,9620,0,0,0
47697,19645,9526,0,0,0
47630,19583,9426,0,0,0
47560,19517,9323,0,0,0
47484,19451,9215,0,0,0
47402,19381,9103,0,0,0
47314,19306,8986,0,0,0
47221,19228,8866,0,0,0
47129,19147,8742,0,0,0
47043,19069,8620,0,0,0
46964,18995,8508,0,0,0
46896,18931,8408,0,0,0
46838,18877,8316,0,0,0
46784,18831,8230,0,0,0
46737,18792,8153,0,0,0
46704,18760,8092,0,0,0
46683,18737,8049,0,0,0
46671,18724,8024,0,0,0
46668,18720,8017,0,0,0
46679,18728,8028,0,0,0
46702,18748,8054,0,0,0
46733,18775,8090,0,0,0
46767,18808,8131,0,0,0
46805,18846,8178,0,0,0
46848,18887,8231,0,0,0
46893,18930,8287,0,0,0
46935,18968,8348,0,0,0
46969,19004,8409,0,0,0
46997,19039,8468,0,0,0
47021,19072,8522,0,0,0
47042,19099,8570,0,0,0
47063,19117,8608,0,0,0
47082,19129,8634,0,0,0
47095,19137,8650,0,0,0
47099,19138,8653,0,0,0
47090,19129,8641,0,0,0
47067,19108,8611,0,0,0
47029,19076,8559,0,0,0
46980,19034,8492,0,0,0
46923,18984,8412,0,0,0
46861,18925,8318,0,0,0
46790,18856,8209,0,0,0
46715,18782,8091,0,0,0
46640,18710,7968,0,0,0
46565,18637,7841,0,0,0
46484,18559,7712,0,0,0
46403,18479,7582,0,0,0
46322,18399,7452,0,0,0
46241,18321,7323,0,0,0
46157,18245,7198,0,0,0
46072,18171,7078,0,0,0
45987,18100,6958,0,0,0
45900,18029,6835,0,0,0
45811,17956,6709,0,0,0
45722,17881,6585,0,0,0
45636,17807,6462,0,0,0
45552,17731,6343,0,0,0
45470,17654,6225,0,0,0
45390,17577,6108,0,0,0
45313,17499,5988,0,0,0
45235,17417,5866,0,0,0
45153,17336,5748,0,0,0
45072,17259,5638,0,0,0
44992,17188,5530,0,0,0
44911,17118,5419,0,0,0
44828,17046,5311,0,0,0
44746,16976,5209,0,0,0
44671,16910,5110,0,0,0
44602,16849,5014,0,0,0
44537,16790,4922,0,0,0
44477,16732,4833,0,0,0
44421,16678,4746,0,0,0
44369,16627,4661,0,0,0
44320,16580,4582,0,0,0
44275,16538,4508,0,0,0
44230,16500,4437,0,0,0
44186,16461,4367,0,0,0
44146,16425,4303,0,0,0
44107,16392,4244,0,0,0
44070,16364,4186,0,0,0
44035,16335,4127,0,0,0
43999,16304,4067,0,0,0
43962,16273,4006,0,0,0
43926,16243,3949,0,0,0
43889,16213,3895,0,0,0
43852,16182,3847,0,0,0
43816,16155,3797,0,0,0
43778,16125,3740,0,0,0
43737,16089,3678,0,0,0
43696,16051,3615,0,0,0
43657,16013,3552,0,0,0
43619,15977,3491,0,0,0
43580,15943,3436,0,0,0
43540,15913,3386,0,0,0
43501,15887,3337,0,0,0
43459,15860,3283,0,0,0
43414,15826,3225,0,0,0
43367,15785,3166,0,0,0
43322,15744,3104,0,0,0
43276,15700,3037,0,0,0
43225,15651,2965,0,0,0
43170,15601,2889,0,0,0
43110,15550,2809,0,0,0
43046,15496,2728,0,0,0
42980,15442,2650,0,0,0
42915,15388,2573,0,0,0
42850,15334,2490,0,0,0
42784,15280,2404,0,0,0
42726,15229,2320,0,0,0
42682,15184,2246,0,0,0
42652,15150,2185,0,0,0
42638,15135,2151,0,0,0
42657,15153,2168,0,0,0
42719,15211,2248,0,0,0
42829,15315,2396,0,0,0
42991,15464,2614,0,0,0
43208,15659,2910,0,0,0
43478,15904,3282,0,0,0
43795,16195,3720,0,0,0
44151,16528,4219,0,0,0
44543,16892,4769,0,0,0
44961,17274,5358,0,0,0
45388,17665,5969,0,0,0
45813,18054,6589,0,0,0
46229,18436,7203,0,0,0
46630,18807,7800,0,0,0
47009,19163,8373,0,0,0
47355,19490,8908,0,0,0
47667,19781,9397,0,0,0
47946,20041,9838,0,0,0
48191,20269,10229,0,0,0
48399,20463,10570,0,0,0
48573,20624,10859,0,0,0
48717,20754,11093,0,0,0
48830,20853,11274,0,0,0
48914,20922,11407,0,0,0
48972,20967,11497,0,0,0
49010,20997,11554,0,0,0
49024,21010,11581,0,0,0
49013,21001,11581,0,0,0
48985,20978,11559,0,0,0
48946,20946,11516,0,0,0
48898,20904,11452,0,0,0
48844,20856,11375,0,0,0
48789,20806,11295,0,0,0
48729,20754,11215,0,0,0
48665,20702,11135,0,0,0
48604,20654,11054,0,0,0
48548,20612,10976,0,0,0
48498,20570,10902,0,0,0
48451,20524,10829,0,0,0
48403,20474,10755,0,0,0
48355,20423,10682,0,0,0
48303,20372,10604,0,0,0
48242,20317,10515,0,0,0
48169,20253,10416,0,0,0
48091,20181,10308,0,0,0
48008,20100,10192,0,0,0
47921,20016,10067,0,0,0
47829,19929,9934,0,0,0
47736,19842,9796,0,0,0
47647,19758,9662,0,0,0
47563,19680,9534,0,0,0
47484,19611,9419,0,0,0
47413,19551,9313,0,0,0
47352,19499,9217,0,0,0
47302,19457,9136,0,0,0
47263,19426,9072,0,0,0
47237,19406,9021,0,0,0
47220,19396,8981,0,0,0
47211,19392,8956,0,0,0
47213,19396,8949,0,0,0
47225,19409,8958,0,0,0
47248,19434,8983,0,0,0
47282,19472,9025,0,0,0
47325,19519,9083,0,0,0
47374,19569,9148,0,0,0
47421,19619,9211,0,0,0
47466,19667,9273,0,0,0
47507,19713,9337,0,0,0
47545,19754,9399,0,0,0
47578,19789,9454,0,0,0
47606,19819,9502,0,0,0
47627,19841,9537,0,0,0
47637,19854,9553,0,0,0
47635,19856,9548,0,0,0
47626,19848,9531,0,0,0
47612,19835,9504,0,0,0
47588,19813,9461,0,0,0
47551,19780,9400,0,0,0
47507,19738,9330,0,0,0
47458,19688,9256,0,0,0
47404,19632,9172,0,0,0
47343,19568,9076,0,0,0
47276,19497,8973,0,0,0
47203,19421,8862,0,0,0
47122,19342,8743,0,0,0
47030,19260,8614,0,0,0
46931,19174,8478,0,0,0
46833,19085,8342,0,0,0
46741,18998,8205,0,0,0
46656,18914,8072,0,0,0
46574,18836,7947,0,0,0
46494,18762,7825,0,0,0
46413,18689,7700,0,0,0
46330,18616,7574,0,0,0
46247,18546,7449,0,0,0
46164,18477,7321,0,0,0
46078,18407,7187,0,0,0
45990,18332,7051,0,0,0
45898,18252,6918,0,0,0
45807,18171,6789,0,0,0
45716,18092,6658,0,0,0
45627,18010,6529,0,0,0
45542,17929,6406,0,0,0
45464,17854,6289,0,0,0
45390,17778,6175,0,0,0
45314,17699,6062,0,0,0
45242,17625,5953,0,0,0
45177,17561,5851,0,0,0
45117,17505,5756,0,0,0
45061,17452,5668,0,0,0
45005,17398,5581,0,0,0
44950,17347,5493,0,0,0
44894,17298,5408,0,0,0
44840,17253,5328,0,0,0
44788,17213,5257,0,0,0
44736,17175,5189,0,0,0
44681,17135,5117,0,0,0
44626,17092,5045,0,0,0
44579,17054,4980,0,0,0
44543,17021,4922,0,0,0
44513,16992,4868,0,0,0
44485,16963,4817,0,0,0
44459,16936,4770,0,0,0
44434,16911,4723,0,0,0
44408,16886,4674,0,0,0
44383,16858,4624,0,0,0
44355,16829,4573,0,0,0
44321,16798,4516,0,0,0
44285,16764,4455,0,0,0
44251,16727,4392,0,0,0
44218,16689,4328,0,0,0
44186,16652,4265,0,0,0
44153,16617,4205,0,0,0
44124,16584,4151,0,0,0
44098,16554,4103,0,0,0
44072,16525,4054,0,0,0
44043,16495,4004,0,0,0
44011,16459,3955,0,0,0
43977,16423,3904,0,0,0
43944,16390,3849,0,0,0
43908,16357,3791,0,0,0
43866,16319,3733,0,0,0
43826,16283,3675,0,0,0
43790,16247,3612,0,0,0
43751,16209,3544,0,0,0
43707,16168,3472,0,0,0
43661,16129,3399,0,0,0
43616,16093,3326,0,0,0
43569,16058,3254,0,0,0
43520,16021,3179,0,0,0
43472,15982,3099,0,0,0
43421,15941,3016,0,0,0
43367,15896,2933,0,0,0
43312,15848,2852,0,0,0
43258,15802,2773,0,0,0
43210,15760,2702,0,0,0
43178,15731,2656,0,0,0
43173,15726,2650,0,0,0
43205,15755,2690,0,0,0
43280,15822,2786,0,0,0
43402,15933,2952,0,0,0
43583,16096,3199,0,0,0
43827,16315,3533,0,0,0
44128,16589,3953,0,0,0
44480,16911,4456,0,0,0
44873,17276,5027,0,0,0
45300,17673,5649,0,0,0
45751,18089,6305,0,0,0
46220,18519,6988,0,0,0
46699,18956,7684,0,0,0
47173,19386,8371,0,0,0
47628,19797,9032,0,0,0
48055,20183,9663,0,0,0
48454,20545,10254,0,0,0
48821,20881,10798,0,0,0
49149,21183,11291,0,0,0
49437,21450,11730,0,0,0
49685,21683,12118,0,0,0
49897,21882,12456,0,0,0
50076,22050,12743,0,0,0
50226,22190,12984,0,0,0
50346,22301,13180,0,0,0
50432,22381,13332,0,0,0
50491,22436,13441,0,0,0
50526,22468,13512,0,0,0
50545,22484,13554,0,0,0
50553,22490,13574,0,0,0
50552,22489,13575,0,0,0
50541,22479,13562,0,0,0
50518,22460,13538,0,0,0
50485,22431,13505,0,0,0
50446,22395,13462,0,0,0
50411,22358,13414,0,0,0
50381,22323,13369,0,0,0
50351,22290,13325,0,0,0
50317,22257,13278,0,0,0
50279,22223,13228,0,0,0
50239,22190,13178,0,0,0
50200,22158,13129,0,0,0
50164,22124,13078,0,0,0
50125,22085,13021,0,0,0
50082,22043,12956,0,0,0
50035,21997,12881,0,0,0
49982,21944,12794,0,0,0
49921,21884,12694,0,0,0
49854,21818,12585,0,0,0
49778,21747,12467,0,0,0
49692,21670,12340,0,0,0
49601,21591,12210,0,0,0
49508,21510,12081,0,0,0
49416,21430,11954,0,0,0
49325,21350,11830,0,0,0
49241,21276,11713,0,0,0
49169,21212,11610,0,0,0
49111,21156,11523,0,0,0
49062,21109,11453,0,0,0
49023,21072,11398,0,0,0
48995,21045,11356,0,0,0
48977,21027,11325,0,0,0
48967,21018,11308,0,0,0
48970,21018,11308,0,0,0
48984,21028,11323,0,0,0
49000,21043,11344,0,0,0
49016,21058,11366,0,0,0
49031,21074,11387,0,0,0
49047,21089,11410,0,0,0
49062,21100,11433,0,0,0
49074,21105,11452,0,0,0
49084,21106,11469,0,0,0
49094,21107,11479,0,0,0
49100,21107,11479,0,0,0
49100,21103,11470,0,0,0
49093,21098,11454,0,0,0
49077,21090,11425,0,0,0
49053,21077,11384,0,0,0
49021,21056,11333,0,0,0
48979,21022,11269,0,0,0
48922,20972,11191,0,0,0
48848,20905,11096,0,0,0
48763,20830,10990,0,0,0
48671,20748,10874,0,0,0
48572,20657,10749,0,0,0
48473,20562,10615,0,0,0
48379,20467,10477,0,0,0
48285,20374,10336,0,0,0
48186,20278,10192,0,0,0
48085,20182,10050,0,0,0
47983,20089,9911,0,0,0
47885,19999,9779,0,0,0
47793,19913,9653,0,0,0
47707,19830,9532,0,0,0
47624,19748,9409,0,0,0
47542,19669,9281,0,0,0
47459,19593,9150,0,0,0
47375,19519,9021,0,0,0
47289,19445,8892,0,0,0
47200,19370,8761,0,0,0
47107,19288,8628,0,0,0
47012,19204,8494,0,0,0
46919,19120,8358,0,0,0
46826,19039,8219,0,0,0
46735,18959,8082,0,0,0
46644,18884,7956,0,0,0
46558,18815,7837,0,0,0
46477,18747,7717,0,0,0
46402,18677,7599,0,0,0
46338,18613,7493,0,0,0
46283,18553,7397,0,0,0
46227,18492,7302,0,0,0
46167,18434,7210,0,0,0
46105,18381,7126,0,0,0
46044,18331,7042,0,0,0
45982,18278,6952,0,0,0
45917,18217,6861,0,0,0
45851,18152,6772,0,0,0
45786,18091,6683,0,0,0
45725,18036,6597,0,0,0
45668,17985,6517,0,0,0
45617,17940,6442,0,0,0
45572,17901,6367,0,0,0
45531,17860,6290,0,0,0
45489,17816,6213,0,0,0
45444,17771,6138,0,0,0
45398,17727,6067,0,0,0
45350,17685,5997,0,0,0
45303,17643,5929,0,0,0
45256,17602,5862,0,0,0
45207,17562,5792,0,0,0
45155,17520,5718,0,0,0
45105,17481,5648,0,0,0
45057,17446,5584,0,0,0
45011,17410,5518,0,0,0
44964,17370,5447,0,0,0
44919,17326,5375,0,0,0
44874,17281,5306,0,0,0
44825,17231,5235,0,0,0
44771,17177,5159,0,0,0
44716,17123,5084,0,0,0
44663,17072,5011,0,0,0
44612,17027,4938,0,0,0
44561,16984,4864,0,0,0
44513,16944,4796,0,0,0
44471,16904,4732,0,0,0
44431,16864,4664,0,0,0
44387,16821,4593,0,0,0
44335,16774,4520,0,0,0
44276,16721,4439,0,0,0
44215,16668,4349,0,0,0
44154,16615,4259,0,0,0
44094,16562,4170,0,0,0
44036,16509,4080,0,0,0
43976,16455,3986,0,0,0
43916,16399,3892,0,0,0
43850,16340,3800,0,0,0
43779,16280,3705,0,0,0
43706,16218,3604,0,0,0
43632,16150,3500,0,0,0
43559,16076,3395,0,0,0
43485,16004,3290,0,0,0
43408,15936,3186,0,0,0
43329,15869,3088,0,0,0
43251,15802,2992,0,0,0
43177,15737,2894,0,0,0
43107,15671,2792,0,0,0
43041,15602,2690,0,0,0
42984,15538,2594,0,0,0
42936,15487,2510,0,0,0
42904,15453,2448,0,0,0
42896,15442,2421,0,0,0
42926,15465,2446,0,0,0
43002,15534,2537,0,0,0
43130,15653,2702,0,0,0
43316,15825,2952,0,0,0
43564,16056,3293,0,0,0
43872,16346,3724,0,0,0
44236,16689,4233,0,0,0
44648,17071,4814,0,0,0
45097,17484,5452,0,0,0
45574,17921,6131,0,0,0
46068,18371,6834,0,0,0
46564,18828,7551,0,0,0
47057,19285,8269,0,0,0
47535,19729,8971,0,0,0
47984,20148,9642,0,0,0
48398,20533,10273,0,0,0
48775,20886,10856,0,0,0
49114,21205,11388,0,0,0
49417,21487,11866,0,0,0
49684,21733,12287,0,0,0
49914,21941,12650,0,0,0
50104,22114,12953,0,0,0
50257,22252,13200,0,0,0
50377,22358,13393,0,0,0
50467,22433,13537,0,0,0
50527,22481,13636,0,0,0
50557,22503,13697,0,0,0
50561,22503,13725,0,0,0
50554,22495,13734,0,0,0
50541,22483,13729,0,0,0
50520,22463,13705,0,0,0
50492,22436,13665,0,0,0
50460,22407,13618,0,0,0
50426,22378,13569,0,0,0
50387,22348,13516,0,0,0
50346,22315,13459,0,0,0
50308,22283,13405,0,0,0
50271,22252,13357,0,0,0
50238,22225,13315,0,0,0
50208,22200,13273,0,0,0
50181,22177,13231,0,0,0
50151,22151,13186,0,0,0
50114,22116,13135,0,0,0
50070,22074,13073,0,0,0
50019,22026,12996,0,0,0
49962,21972,12906,0,0,0
49901,21911,12804,0,0,0
49835,21844,12694,0,0,0
49764,21773,12578,0,0,0
49687,21695,12457,0,0,0
49603,21613,12334,0,0,0
49515,21530,12212,0,0,0
49427,21449,12091,0,0,0
49341,21369,11972,0,0,0
49258,21293,11860,0,0,0
49184,21227,11760,0,0,0
49118,21169,11671,0,0,0
49063,21119,11592,0,0,0
49022,21078,11525,0,0,0
48993,21048,11475,0,0,0
48975,21032,11445,0,0,0
48971,21027,11430,0,0,0
48978,21032,11429,0,0,0
48996,21047,11442,0,0,0
49022,21071,11465,0,0,0
49052,21100,11495,0,0,0
49083,21133,11531,0,0,0
49110,21165,11568,0,0,0
49130,21191,11603,0,0,0
49149,21213,11637,0,0,0
49168,21237,11667,0,0,0
49188,21260,11689,0,0,0
49202,21277,11702,0,0,0
49209,21286,11707,0,0,0
49207,21285,11704,0,0,0
49195,21271,11690,0,0,0
49174,21243,11663,0,0,0
49150,21208,11623,0,0,0
49120,21169,11571,0,0,0
49082,21125,11508,0,0,0
49031,21073,11430,0,0,0
48969,21014,11339,0,0,0
48895,20950,11235,0,0,0
48811,20878,11120,0,0,0
48717,20795,10996,0,0,0
48617,20706,10862,0,0,0
48519,20618,10719,0,0,0
48421,20526,10571,0,0,0
48320,20427,10419,0,0,0
48217,20329,10266,0,0,0
48119,20235,10116,0,0,0
48022,20143,9970,0,0,0
47921,20050,9827,0,0,0
47823,19959,9690,0,0,0
47730,19872,9557,0,0,0
47640,19787,9425,0,0,0
47550,19705,9294,0,0,0
47460,19622,9167,0,0,0
47367,19541,9039,0,0,0
47273,19457,8907,0,0,0
47180,19370,8775,0,0,0
47090,19284,8647,0,0,0
47005,19199,8517,0,0,0
46921,19116,8385,0,0,0
46838,19035,8253,0,0,0
46753,18955,8125,0,0,0
46670,18877,8005,0,0,0
46588,18801,7890,0,0,0
46508,18727,7780,0,0,0
46432,18658,7677,0,0,0
46358,18591,7574,0,0,0
46282,18525,7466,0,0,0
46208,18462,7359,0,0,0
46138,18402,7259,0,0,0
46072,18344,7163,0,0,0
46009,18285,7068,0,0,0
45947,18229,6977,0,0,0
45888,18179,6891,0,0,0
45833,18131,6807,0,0,0
45780,18087,6726,0,0,0
45728,18044,6649,0,0,0
45677,18000,6576,0,0,0
45629,17956,6502,0,0,0
45583,17908,6428,0,0,0
45536,17860,6354,0,0,0
45488,17816,6281,0,0,0
45436,17775,6207,0,0,0
45381,17731,6133,0,0,0
45325,17682,6059,0,0,0
45271,17634,5982,0,0,0
45219,17586,5901,0,0,0
45165,17535,5818,0,0,0
45113,17485,5738,0,0,0
45066,17442,5663,0,0,0
45021,17402,5588,0,0,0
44977,17360,5511,0,0,0
44932,17317,5440,0,0,0
44885,17277,5377,0,0,0
44838,17239,5311,0,0,0
44786,17194,5235,0,0,0
44731,17141,5157,0,0,0
44672,17086,5080,0,0,0
44613,17033,5000,0,0,0
44554,16979,4919,0,0,0
44492,16922,4837,0,0,0
44428,16863,4749,0,0,0
44360,16800,4655,0,0,0
44289,16736,4557,0,0,0
44216,16672,4457,0,0,0
44144,16611,4356,0,0,0
44072,16551,4253,0,0,0
44000,16487,4148,0,0,0
43927,16422,4046,0,0,0
43852,16358,3944,0,0,0
43774,16296,3841,0,0,0
43697,16230,3736,0,0,0
43622,16162,3631,0,0,0
43546,16095,3526,0,0,0
43473,16027,3417,0,0,0
43404,15958,3308,0,0,0
43337,15890,3202,0,0,0
43268,15822,3097,0,0,0
43198,15754,2992,0,0,0
43128,15688,2893,0,0,0
43060,15627,2804,0,0,0
42994,15567,2718,0,0,0
42930,15508,2632,0,0,0
42864,15449,2546,0,0,0
42800,15389,2463,0,0,0
42739,15333,2382,0,0,0
42681,15277,2296,0,0,0
42620,15219,2205,0,0,0
42556,15157,2109,0,0,0
42484,15092,2005,0,0,0
42408,15025,1895,0,0,0
42332,14959,1786,0,0,0
42258,14894,1682,0,0,0
42183,14826,1580,0,0,0
42110,14759,1479,0,0,0
42044,14697,1384,0,0,0
41988,14645,1304,0,0,0
41949,14611,1245,0,0,0
41939,14603,1220,0,0,0
41969,14631,1247,0,0,0
42044,14705,1340,0,0,0
42169,14828,1508,0,0,0
42350,14996,1758,0,0,0
42594,15218,2097,0,0,0
42904,15497,2523,0,0,0
43273,15826,3026,0,0,0
43692,16199,3601,0,0,0
44153,16614,4244,0,0,0
44644,17061,4937,0,0,0
45149,17523,5652,0,0,0
45653,17987,6373,0,0,0
46150,18444,7091,0,0,0
46630,18890,7794,0,0,0
47085,19310,8464,0,0,0
47506,19697,9091,0,0,0
47887,20049,9672,0,0,0
48226,20363,10200,0,0,0
48520,20635,10668,0,0,0
48771,20864,11071,0,0,0
48986,21057,11412,0,0,0
49167,21217,11698,0,0,0
49310,21341,11933,0,0,0
49417,21433,12120,0,0,0
49494,21497,12261,0,0,0
49544,21541,12364,0,0,0
49571,21569,12430,0,0,0
49577,21580,12460,0,0,0
49564,21574,12460,0,0,0
49538,21558,12437,0,0,0
49504,21530,12398,0,0,0
49464,21490,12344,0,0,0
49419,21443,12278,0,0,0
49370,21394,12206,0,0,0
49320,21347,12132,0,0,0
49270,21302,12055,0,0,0
49222,21258,11983,0,0,0
49177,21215,11919,0,0,0
49136,21175,11858,0,0,0
49099,21136,11797,0,0,0
49065,21096,11735,0,0,0
49029,21055,11669,0,0,0
48989,21011,11599,0,0,0
48946,20966,11530,0,0,0
48897,20918,11462,0,0,0
48841,20863,11388,0,0,0
48776,20801,11304,0,0,0
48705,20731,11209,0,0,0
48627,20655,11104,0,0,0
48547,20577,10990,0,0,0
48466,20496,10869,0,0,0
48384,20415,10748,0,0,0
48303,20337,10632,0,0,0
48223,20265,10524,0,0,0
48145,20196,10423,0,0,0
48075,20136,10330,0,0,0
48017,20088,10248,0,0,0
47967,20048,10176,0,0,0
47924,20017,10114,0,0,0
47898,20000,10071,0,0,0
47888,19999,10047,0,0,0
47888,20004,10038,0,0,0
47890,20011,10039,0,0,0
47898,20022,10052,0,0,0
47914,20039,10074,0,0,0
47938,20063,10104,0,0,0
47962,20089,10139,0,0,0
47987,20116,10173,0,0,0
48016,20144,10206,0,0,0
48046,20170,10236,0,0,0
48075,20191,10260,0,0,0
48100,20207,10275,0,0,0
48116,20213,10280,0,0,0
48117,20207,10275,0,0,0
48102,20191,10260,0,0,0
48073,20167,10235,0,0,0
48036,20136,10202,0,0,0
47995,20097,10159,0,0,0
47950,20053,10105,0,0,0
47902,20008,10041,0,0,0
47850,19958,9970,0,0,0
47787,19898,9890,0,0,0
47714,19829,9801,0,0,0
47638,19755,9699,0,0,0
47563,19681,9585,0,0,0
47486,19606,9466,0,0,0
47404,19528,9343,0,0,0
47315,19446,9215,0,0,0
47221,19363,9081,0,0,0
47124,19281,8945,0,0,0
47028,19199,8813,0,0,0
46933,19117,8681,0,0,0
46841,19036,8543,0,0,0
46750,18954,8403,0,0,0
46660,18870,8265,0,0,0
46571,18784,8128,0,0,0
46477,18692,7988,0,0,0
46379,18594,7848,0,0,0
46279,18497,7710,0,0,0
46182,18408,7575,0,0,0
46090,18327,7441,0,0,0
46000,18246,7305,0,0,0
45913,18162,7169,0,0,0
45830,18080,7037,0,0,0
45749,18001,6910,0,0,0
45668,17926,6787,0,0,0
45588,17855,6668,0,0,0
45512,17789,6553,0,0,0
45436,17724,6439,0,0,0
45358,17656,6330,0,0,0
45282,17586,6228,0,0,0
45212,17519,6129,0,0,0
45144,17454,6032,0,0,0
45080,17392,5938,0,0,0
45022,17335,5850,0,0,0
44969,17285,5766,0,0,0
44915,17238,5683,0,0,0
44856,17187,5602,0,0,0
44798,17132,5524,0,0,0
44743,17081,5451,0,0,0
44692,17035,5383,0,0,0
44641,16988,5319,0,0,0
44590,16943,5255,0,0,0
44543,16901,5185,0,0,0
44502,16863,5113,0,0,0
44464,16827,5042,0,0,0
44428,16790,4973,0,0,0
44390,16754,4904,0,0,0
44347,16718,4833,0,0,0
44303,16678,4765,0,0,0
44257,16637,4701,0,0,0
44207,16598,4643,0,0,0
44157,16560,4588,0,0,0
44112,16523,4539,0,0,0
44074,16487,4489,0,0,0
44040,16452,4429,0,0,0
44003,16413,4356,0,0,0
43961,16369,4278,0,0,0
43916,16323,4202,0,0,0
43868,16273,4127,0,0,0
43816,16218,4051,0,0,0
43760,16161,3971,0,0,0
43700,16105,3887,0,0,0
43638,16049,3800,0,0,0
43577,15996,3715,0,0,0
43519,15946,3634,0,0,0
43466,15899,3555,0,0,0
43415,15853,3475,0,0,0
43364,15807,3396,0,0,0
43313,15762,3319,0,0,0
43265,15719,3239,0,0,0
43215,15673,3154,0,0,0
43163,15625,3069,0,0,0
43108,15576,2987,0,0,0
43048,15526,2901,0,0,0
42981,15472,2809,0,0,0
42914,15416,2720,0,0,0
42850,15358,2633,0,0,0
42790,15300,2545,0,0,0
42729,15243,2455,0,0,0
42667,15183,2364,0,0,0
42602,15122,2273,0,0,0
42535,15062,2180,0,0,0
42469,15002,2086,0,0,0
42404,14942,1996,0,0,0
42343,14885,1910,0,0,0
42283,14832,1822,0,0,0
42219,14778,1731,0,0,0
42153,14718,1640,0,0,0
42086,14652,1549,0,0,0
42018,14583,1457,0,0,0
41951,14513,1362,0,0,0
41882,14446,1265,0,0,0
41812,14380,1171,0,0,0
41743,14315,1076,0,0,0
41673,14249,980,0,0,0
41604,14185,891,0,0,0
41544,14129,811,0,0,0
41498,14088,746,0,0,0
41476,14067,708,0,0,0
41484,14073,715,0,0,0
41532,14116,774,0,0,0
41630,14207,895,0,0,0
41781,14346,1092,0,0,0
41989,14538,1377,0,0,0
42259,14786,1745,0,0,0
42587,15090,2190,0,0,0
42966,15442,2707,0,0,0
43388,15833,3293,0,0,0
43845,16253,3936,0,0,0
44325,16693,4614,0,0,0
44812,17139,5310,0,0,0
45299,17578,6009,0,0,0
45773,18006,6692,0,0,0
46222,18412,7342,0,0,0
46632,18787,7950,0,0,0
47004,19131,8513,0,0,0
47339,19442,9023,0,0,0
47629,19714,9471,0,0,0
47876,19946,9859,0,0,0
48085,20140,10192,0,0,0
48258,20298,10474,0,0,0
48395,20421,10705,0,0,0
48499,20506,10882,0,0,0
48569,20561,11007,0,0,0
48611,20594,11089,0,0,0
48628,20605,11134,0,0,0
48621,20593,11142,0,0,0
48593,20565,11121,0,0,0
48552,20529,11079,0,0,0
48497,20482,11020,0,0,0
48433,20425,10947,0,0,0
48367,20364,10867,0,0,0
48301,20301,10784,0,0,0
48235,20239,10697,0,0,0
48169,20175,10607,0,0,0
48105,20116,10518,0,0,0
48048,20067,10433,0,0,0
47996,20025,10353,0,0,0
47944,19984,10278,0,0,0
47893,19947,10208,0,0,0
47842,19909,10140,0,0,0
47788,19864,10069,0,0,0
47730,19813,9989,0,0,0
47670,19758,9898,0,0,0
47606,19696,9793,0,0,0
47535,19627,9680,0,0,0
47459,19553,9561,0,0,0
47379,19476,9436,0,0,0
47297,19393,9307,0,0,0
47213,19306,9176,0,0,0
47129,19219,9049,0,0,0
47047,19137,8926,0,0,0
46971,19065,8810,0,0,0
46905,19004,8708,0,0,0
46855,18956,8626,0,0,0
46819,18921,8563,0,0,0
46794,18896,8518,0,0,0
46781,18882,8495,0,0,0
46780,18880,8497,0,0,0
46790,18889,8514,0,0,0
46809,18906,8542,0,0,0
46836,18930,8583,0,0,0
46869,18959,8633,0,0,0
46907,18993,8686,0,0,0
46950,19033,8739,0,0,0
46994,19074,8791,0,0,0
47033,19114,8844,0,0,0
47068,19150,8893,0,0,0
47098,19182,8938,0,0,0
47125,19209,8981,0,0,0
47149,19234,9022,0,0,0
47168,19255,9053,0,0,0
47176,19267,9071,0,0,0
47171,19267,9074,0,0,0
47158,19255,9062,0,0,0
47141,19238,9034,0,0,0
47115,19215,8993,0,0,0
47079,19186,8943,0,0,0
47035,19150,8880,0,0,0
46982,19105,8804,0,0,0
46925,19053,8724,0,0,0
46864,18999,8642,0,0,0
46798,18939,8552,0,0,0
46726,18873,8447,0,0,0
46646,18801,8329,0,0,0
46558,18724,8203,0,0,0
46469,18643,8077,0,0,0
46381,18564,7948,0,0,0
46294,18486,7818,0,0,0
46205,18406,7686,0,0,0
46113,18324,7550,0,0,0
46020,18240,7412,0,0,0
45926,18156,7274,0,0,0
45830,18071,7134,0,0,0
45735,17989,6992,0,0,0
45645,17911,6852,0,0,0
45559,17834,6720,0,0,0
45475,17755,6596,0,0,0
45395,17677,6477,0,0,0
45317,17599,6357,0,0,0
45239,17523,6239,0,0,0
45164,17450,6126,0,0,0
45090,17379,6012,0,0,0
45015,17307,5898,0,0,0
44942,17239,5791,0,0,0
44872,17181,5692,0,0,0
44809,17131,5594,0,0,0
44750,17081,5498,0,0,0
44690,17031,5410,0,0,0
44630,16985,5330,0,0,0
44570,16940,5247,0,0,0
44512,16893,5161,0,0,0
44458,16845,5078,0,0,0
44408,16798,5001,0,0,0
44361,16752,4927,0,0,0
44313,16707,4855,0,0,0
44263,16665,4789,0,0,0
44212,16622,4723,0,0,0
44161,16576,4652,0,0,0
44110,16527,4579,0,0,0
44062,16478,4509,0,0,0
44017,16434,4437,0,0,0
43975,16396,4365,0,0,0
43937,16360,4295,0,0,0
43904,16324,4231,0,0,0
43874,16291,4173,0,0,0
43845,16259,4119,0,0,0
43815,16227,4070,0,0,0
43784,16198,4029,0,0,0
43750,16172,3989,0,0,0
43712,16146,3940,0,0,0
43671,16117,3884,0,0,0
43631,16088,3825,0,0,0
43594,16060,3768,0,0,0
43560,16030,3709,0,0,0
43527,15994,3645,0,0,0
43490,15956,3579,0,0,0
43451,15917,3514,0,0,0
43410,15880,3453,0,0,0
43366,15842,3394,0,0,0
43319,15802,3334,0,0,0
43272,15762,3271,0,0,0
43221,15718,3204,0,0,0
43164,15669,3132,0,0,0
43108,15618,3063,0,0,0
43052,15569,2991,0,0,0
42992,15518,2911,0,0,0
42929,15463,2827,0,0,0
42862,15402,2740,0,0,0
42790,15341,2649,0,0,0
42719,15284,2554,0,0,0
42647,15226,2457,0,0,0
42568,15160,2353,0,0,0
42487,15091,2241,0,0,0
42405,15021,2127,0,0,0
42322,14946,2014,0,0,0
42239,14868,1901,0,0,0
42159,14793,1791,0,0,0
42087,14722,1687,0,0,0
42026,14657,1596,0,0,0
41983,14606,1522,0,0,0
41968,14579,1479,0,0,0
41988,14587,1485,0,0,0
42050,14637,1554,0,0,0
42159,14735,1695,0,0,0
42319,14885,1912,0,0,0
42535,15087,2211,0,0,0
42805,15339,2591,0,0,0
43127,15637,3046,0,0,0
43493,15976,3562,0,0,0
43897,16348,4133,0,0,0
44330,16743,4745,0,0,0
44778,17151,5384,0,0,0
45228,17566,6034,0,0,0
45672,17977,6684,0,0,0
46101,18373,7320,0,0,0
46502,18747,7925,0,0,0
46868,19092,8487,0,0,0
47196,19399,8997,0,0,0
47487,19663,9453,0,0,0
47743,19891,9857,0,0,0
47966,20091,10210,0,0,0
48153,20258,10509,0,0,0
48304,20390,10752,0,0,0
48421,20494,10943,0,0,0
48509,20572,11086,0,0,0
48566,20622,11185,0,0,0
48595,20648,11247,0,0,0
48604,20652,11273,0,0,0
48595,20636,11263,0,0,0
48570,20605,11228,0,0,0
48532,20567,11176,0,0,0
48489,20527,11116,0,0,0
48443,20487,11052,0,0,0
48391,20444,10982,0,0,0
48339,20401,10909,0,0,0
48291,20362,10836,0,0,0
48243,20325,10762,0,0,0
48193,20286,10685,0,0,0
48142,20247,10610,0,0,0
48092,20208,10540,0,0,0
48045,20167,10470,0,0,0
47996,20122,10397,0,0,0
47940,20073,10318,0,0,0
47875,20018,10233,0,0,0
47805,19956,10138,0,0,0
47730,19887,10032,0,0,0
47653,19815,9919,0,0,0
47573,19740,9802,0,0,0
47488,19661,9681,0,0,0
47403,19580,9564,0,0,0
47323,19504,9448,0,0,0
47246,19434,9329,0,0,0
47171,19367,9211,0,0,0
47105,19306,9103,0,0,0
47049,19251,9003,0,0,0
46997,19199,8909,0,0,0
46948,19145,8824,0,0,0
46908,19099,8758,0,0,0
46880,19071,8712,0,0,0
46862,19059,8684,0,0,0
46849,19058,8674,0,0,0
46844,19065,8677,0,0,0
46848,19081,8691,0,0,0
46860,19102,8711,0,0,0
46877,19122,8739,0,0,0
46897,19142,8776,0,0,0
46922,19165,8816,0,0,0
46954,19191,8860,0,0,0
46989,19219,8907,0,0,0
47022,19246,8952,0,0,0
47049,19272,8988,0,0,0
47070,19297,9015,0,0,0
47082,19313,9034,0,0,0
47080,19317,9042,0,0,0
47068,19313,9037,0,0,0
47049,19302,9018,0,0,0
47022,19282,8986,0,0,0
46987,19252,8939,0,0,0
46944,19214,8879,0,0,0
46895,19169,8804,0,0,0
46835,19114,8715,0,0,0
46767,19054,8620,0,0,0
46695,18988,8516,0,0,0
46619,18915,8405,0,0,0
46537,18834,8285,0,0,0
46447,18744,8154,0,0,0
46351,18648,8011,0,0,0
46252,18547,7863,0,0,0
46151,18448,7714,0,0,0
46050,18351,7563,0,0,0
45949,18256,7413,0,0,0
45846,18159,7262,0,0,0
45746,18062,7114,0,0,0
45651,17968,6972,0,0,0
45556,17877,6831,0,0,0
45460,17787,6690,0,0,0
45364,17700,6552,0,0,0
45269,17617,6417,0,0,0
45178,17542,6286,0,0,0
45094,17471,6163,0,0,0
45012,17400,6047,0,0,0
44931,17329,5929,0,0,0
44851,17259,5807,0,0,0
44772,17190,5687,0,0,0
44694,17122,5573,0,0,0
44619,17059,5463,0,0,0
44548,17000,5354,0,0,0
44478,16941,5248,0,0,0
44410,16882,5147,0,0,0
44350,16829,5048,0,0,0
44294,16777,4949,0,0,0
44241,16723,4857,0,0,0
44191,16669,4774,0,0,0
44138,16615,4693,0,0,0
44079,16559,4611,0,0,0
44018,16505,4533,0,0,0
43963,16460,4465,0,0,0
43914,16421,4401,0,0,0
43867,16383,4334,0,0,0
43821,16344,4270,0,0,0
43779,16308,4207,0,0,0
43738,16272,4138,0,0,0
43695,16234,4065,0,0,0
43653,16197,3995,0,0,0
43614,16166,3932,0,0,0
43580,16139,3872,0,0,0
43550,16112,3813,0,0,0
43522,16084,3756,0,0,0
43499,16056,3700,0,0,0
43479,16033,3643,0,0,0
43460,16010,3589,0,0,0
43437,15984,3539,0,0,0
43406,15955,3491,0,0,0
43369,15925,3446,0,0,0
43329,15895,3404,0,0,0
43288,15864,3363,0,0,0
43249,15835,3320,0,0,0
43212,15807,3274,0,0,0
43171,15776,3223,0,0,0
43128,15741,3168,0,0,0
43084,15707,3111,0,0,0
43041,15673,3047,0,0,0
43000,15636,2978,0,0,0
42958,15597,2909,0,0,0
42915,15556,2841,0,0,0
42872,15516,2770,0,0,0
42825,15473,2697,0,0,0
42771,15426,2623,0,0,0
42710,15377,2544,0,0,0
42647,15325,2454,0,0,0
42581,15269,2356,0,0,0
42514,15207,2255,0,0,0
42449,15144,2152,0,0,0
42383,15079,2048,0,0,0
42315,15010,1947,0,0,0
42247,14940,1849,0,0,0
42182,14875,1753,0,0,0
42118,14815,1654,0,0,0
42059,14763,1564,0,0,0
42012,14726,1491,0,0,0
41983,14706,1443,0,0,0
41980,14707,1429,0,0,0
42015,14742,1470,0,0,0
42098,14821,1580,0,0,0
42234,14952,1768,0,0,0
42429,15136,2038,0,0,0
42681,15369,2393,0,0,0
42988,15649,2829,0,0,0
43342,15975,3336,0,0,0
43740,16343,3904,0,0,0
44176,16746,4524,0,0,0
44643,17178,5185,0,0,0
45126,17623,5873,0,0,0
45611,18065,6569,0,0,0
46085,18498,7257,0,0,0
46542,18914,7921,0,0,0
46969,19301,8545,0,0,0
47355,19649,9117,0,0,0
47697,19960,9637,0,0,0
48001,20234,10104,0,0,0
48267,20472,10513,0,0,0
48496,20675,10865,0,0,0
48690,20842,11163,0,0,0
48850,20979,11412,0,0,0
48976,21088,11616,0,0,0
49070,21171,11777,0,0,0
49137,21229,11900,0,0,0
49180,21268,11986,0,0,0
49199,21290,12037,0,0,0
49198,21297,12057,0,0,0
49186,21292,12051,0,0,0
49166,21277,12027,0,0,0
49136,21253,11991,0,0,0
49099,21224,11946,0,0,0
49056,21191,11896,0,0,0
49015,21152,11843,0,0,0
48981,21108,11789,0,0,0
48948,21062,11732,0,0,0
48915,21020,11673,0,0,0
48880,20985,11616,0,0,0
48844,20954,11559,0,0,0
48808,20924,11503,0,0,0
48773,20892,11451,0,0,0
48734,20863,11399,0,0,0
48685,20833,11343,0,0,0
48631,20799,11276,0,0,0
48576,20758,11194,0,0,0
48520,20709,11100,0,0,0
48461,20649,10998,0,0,0
48394,20578,10891,0,0,0
48322,20501,10782,0,0,0
48247,20423,10669,0,0,0
48171,20345,10552,0,0,0
48098,20266,10428,0,0,0
48030,20191,10306,0,0,0
47969,20128,10194,0,0,0
47912,20074,10094,0,0,0
47859,20027,10005,0,0,0
47812,19989,9928,0,0,0
47771,19961,9869,0,0,0
47742,19945,9832,0,0,0
47728,19943,9817,0,0,0
47725,19953,9820,0,0,0
47733,19966,9832,0,0,0
47748,19983,9852,0,0,0
47770,20005,9883,0,0,0
47800,20032,9921,0,0,0
47833,20058,9957,0,0,0
47867,20082,9994,0,0,0
47903,20108,10033,0,0,0
47939,20137,10072,0,0,0
47974,20163,10107,0,0,0
48005,20183,10136,0,0,0
48032,20198,10161,0,0,0
48054,20209,10180,0,0,0
48068,20214,10192,0,0,0
48076,20212,10196,0,0,0
48079,20207,10190,0,0,0
48076,20198,10173,0,0,0
48063,20186,10147,0,0,0
48043,20167,10111,0,0,0
48019,20143,10064,0,0,0
47989,20114,10008,0,0,0
47949,20076,9940,0,0,0
47897,20030,9859,0,0,0
47837,19977,9771,0,0,0
47772,19919,9674,0,0,0
47703,19856,9572,0,0,0
47629,19788,9470,0,0,0
47550,19715,9365,0,0,0
47473,19643,9249,0,0,0
47396,19570,9125,0,0,0
47318,19493,9001,0,0,0
47241,19412,8878,0,0,0
47164,19333,8753,0,0,0
47086,19252,8624,0,0,0
47006,19168,8491,0,0,0
46920,19081,8356,0,0,0
46826,18995,8220,0,0,0
46729,18910,8087,0,0,0
46638,18829,7962,0,0,0
46553,18752,7844,0,0,0
46469,18680,7726,0,0,0
46386,18611,7607,0,0,0
46309,18542,7489,0,0,0
46233,18472,7371,0,0,0
46155,18400,7250,0,0,0
46076,18329,7133,0,0,0
45996,18258,7023,0,0,0
45917,18188,6915,0,0,0
45838,18120,6808,0,0,0
45763,18056,6703,0,0,0
45697,17998,6607,0,0,0
45638,17947,6523,0,0,0
45583,17898,6442,0,0,0
45528,17849,6361,0,0,0
45476,17796,6280,0,0,0
45426,17742,6195,0,0,0
45374,17689,6105,0,0,0
45318,17638,6013,0,0,0
45258,17589,5921,0,0,0
45201,17538,5832,0,0,0
45146,17486,5745,0,0,0
45090,17432,5665,0,0,0
45036,17379,5593,0,0,0
44986,17330,5525,0,0,0
44942,17283,5461,0,0,0
44902,17238,5400,0,0,0
44859,17194,5340,0,0,0
44812,17154,5275,0,0,0
44763,17118,5205,0,0,0
44714,17083,5136,0,0,0
44666,17046,5070,0,0,0
44622,17008,5006,0,0,0
44577,16969,4941,0,0,0
44527,16924,4875,0,0,0
44474,16875,4806,0,0,0
44423,16828,4735,0,0,0
44372,16778,4659,0,0,0
44317,16721,4575,0,0,0
44262,16665,4491,0,0,0
44211,16615,4409,0,0,0
44165,16569,4330,0,0,0
44115,16524,4254,0,0,0
44063,16477,4177,0,0,0
44009,16428,4096,0,0,0
43951,16374,4012,0,0,0
43888,16315,3928,0,0,0
43829,16259,3847,0,0,0
43777,16208,3768,0,0,0
43727,16160,3687,0,0,0
43670,16112,3604,0,0,0
43612,16063,3519,0,0,0
43556,16014,3434,0,0,0
43499,15960,3350,0,0,0
43437,15902,3262,0,0,0
43375,15846,3171,0,0,0
43315,15794,3074,0,0,0
43255,15739,2978,0,0,0
43193,15682,2883,0,0,0
43128,15623,2790,0,0,0
43061,15562,2695,0,0,0
42993,15499,2598,0,0,0
42923,15434,2503,0,0,0
42854,15370,2405,0,0,0
42783,15301,2298,0,0,0
42709,15230,2187,0,0,0
42635,15162,2080,0,0,0
42562,15096,1979,0,0,0
42495,15036,1885,0,0,0
42440,14988,1810,0,0,0
42407,14963,1768,0,0,0
42407,14970,1768,0,0,0
42446,15016,1824,0,0,0
42537,15104,1953,0,0,0
42691,15243,2163,0,0,0
42910,15440,2457,0,0,0
43189,15693,2837,0,0,0
43525,16002,3305,0,0,0
43916,16361,3852,0,0,0
44352,16763,4464,0,0,0
44826,17199,5133,0,0,0
45325,17657,5847,0,0,0
45837,18129,6585,0,0,0
46348,18600,7325,0,0,0
46843,19057,8050,0,0,0
47316,19489,8747,0,0,0
47758,19892,9405,0,0,0
48165,20262,10015,0,0,0
48532,20595,10571,0,0,0
48863,20893,11074,0,0,0
49163,21160,11526,0,0,0
49426,21394,11924,0,0,0
49648,21592,12266,0,0,0
49831,21759,12553,0,0,0
49979,21897,12787,0,0,0
50092,22003,12972,0,0,0
50175,22080,13114,0,0,0
50230,22132,13220,0,0,0
50263,22167,13294,0,0,0
50282,22185,13339,0,0,0
50287,22184,13357,0,0,0
50278,22171,13353,0,0,0
50262,22152,13338,0,0,0
50239,22128,13312,0,0,0
50212,22097,13271,0,0,0
50184,22063,13222,0,0,0
50156,22032,13171,0,0,0
50124,22004,13118,0,0,0
50089,21975,13064,0,0,0
50055,21943,13008,0,0,0
50019,21913,12953,0,0,0
49979,21883,12899,0,0,0
49937,21852,12847,0,0,0
49894,21817,12793,0,0,0
49846,21779,12737,0,0,0
49796,21739,12676,0,0,0
49745,21692,12606,0,0,0
49692,21635,12526,0,0,0
49635,21566,12437,0,0,0
49569,21490,12338,0,0,0
49490,21406,12223,0,0,0
49407,21320,12101,0,0,0
49323,21237,11982,0,0,0
49240,21161,11863,0,0,0
49160,21088,11744,0,0,0
49081,21015,11624,0,0,0
49006,20944,11507,0,0,0
48938,20878,11395,0,0,0
48877,20821,11293,0,0,0
48823,20772,11206,0,0,0
48775,20731,11137,0,0,0
48735,20702,11085,0,0,0
48708,20685,11051,0,0,0
48696,20681,11034,0,0,0
48699,20689,11033,0,0,0
48718,20706,11045,0,0,0
48750,20730,11070,0,0,0
48786,20759,11106,0,0,0
48817,20788,11146,0,0,0
48844,20817,11186,0,0,0
48870,20843,11226,0,0,0
48896,20869,11264,0,0,0
48918,20892,11293,0,0,0
48934,20911,11314,0,0,0
48948,20927,11328,0,0,0
48958,20937,11334,0,0,0
48960,20939,11329,0,0,0
48955,20929,11311,0,0,0
48943,20910,11285,0,0,0
48918,20881,11249,0,0,0
48880,20841,11201,0,0,0
48831,20795,11140,0,0,0
48774,20743,11067,0,0,0
48706,20681,10978,0,0,0
48627,20606,10871,0,0,0
48540,20523,10752,0,0,0
48450,20438,10626,0,0,0
48360,20351,10497,0,0,0
48269,20262,10364,0,0,0
48175,20173,10229,0,0,0
48077,20084,10091,0,0,0
47979,19996,9950,0,0,0
47880,19905,9804,0,0,0
47778,19809,9652,0,0,0
47673,19712,9495,0,0,0
47570,19615,9339,0,0,0
47467,19519,9186,0,0,0
47364,19424,9041,0,0,0
47264,19331,8899,0,0,0
47165,19240,8754,0,0,0
47066,19150,8609,0,0,0
46966,19063,8471,0,0,0
46868,18978,8338,0,0,0
46774,18895,8204,0,0,0
46683,18814,8068,0,0,0
46597,18737,7936,0,0,0
46513,18661,7807,0,0,0
46428,18580,7675,0,0,0
46339,18496,7545,0,0,0
46252,18412,7421,0,0,0
46170,18332,7303,0,0,0
46091,18253,7183,0,0,0
46011,18172,7063,0,0,0
45932,18096,6947,0,0,0
45853,18024,6835,0,0,0
45778,17955,6729,0,0,0
45704,17887,6624,0,0,0
45627,17818,6519,0,0,0
45550,17749,6414,0,0,0
45476,17682,6309,0,0,0
45403,17617,6208,0,0,0
45335,17555,6113,0,0,0
45274,17495,6020,0,0,0
45216,17438,5930,0,0,0
45160,17386,5844,0,0,0
45106,17336,5761,0,0,0
45053,17290,5676,0,0,0
45002,17248,5593,0,0,0
44955,17208,5518,0,0,0
44915,17170,5449,0,0,0
44875,17132,5379,0,0,0
44830,17085,5302,0,0,0
44779,17029,5223,0,0,0
44724,16970,5144,0,0,0
44666,16911,5065,0,0,0
44605,16856,4987,0,0,0
44539,16800,4907,0,0,0
44473,16746,4826,0,0,0
44411,16698,4743,0,0,0
44349,16649,4660,0,0,0
44284,16597,4579,0,0,0
44222,16543,4499,0,0,0
44163,16487,4415,0,0,0
44103,16428,4324,0,0,0
44042,16369,4234,0,0,0
43979,16312,4148,0,0,0
43916,16255,4058,0,0,0
43848,16193,3960,0,0,0
43775,16125,3859,0,0,0
43704,16056,3759,0,0,0
43639,15989,3656,0,0,0
43575,15924,3550,0,0,0
43509,15860,3441,0,0,0
43441,15799,3331,0,0,0
43372,15743,3223,0,0,0
43305,15691,3124,0,0,0
43242,15638,3036,0,0,0
43179,15581,2947,0,0,0
43115,15522,2854,0,0,0
43048,15459,2760,0,0,0
42979,15392,2664,0,0,0
42915,15322,2564,0,0,0
42852,15251,2461,0,0,0
42785,15177,2357,0,0,0
42713,15103,2256,0,0,0
42643,15034,2157,0,0,0
42574,14970,2059,0,0,0
42503,14907,1962,0,0,0
42432,14846,1865,0,0,0
42364,14789,1768,0,0,0
42295,14731,1667,0,0,0
42224,14669,1569,0,0,0
42151,14605,1475,0,0,0
42079,14541,1379,0,0,0
42006,14479,1281,0,0,0
41933,14414,1182,0,0,0
41858,14345,1080,0,0,0
41785,14278,973,0,0,0
41715,14214,867,0,0,0
41647,14150,766,0,0,0
41586,14091,671,0,0,0
41535,14041,590,0,0,0
41494,14000,530,0,0,0
41471,13978,507,0,0,0
41482,13987,532,0,0,0
41539,14037,612,0,0,0
41646,14136,761,0,0,0
41810,14290,994,0,0,0
42037,14504,1314,0,0,0
42331,14777,1717,0,0,0
42688,15098,2199,0,0,0
43096,15462,2755,0,0,0
43551,15870,3377,0,0,0
44043,16314,4051,0,0,0
44554,16776,4761,0,0,0
45073,17245,5495,0,0,0
45590,17714,6234,0,0,0
46096,18172,6959,0,0,0
46576,18606,7657,0,0,0
47021,19010,8314,0,0,0
47424,19380,8915,0,0,0
47781,19709,9453,0,0,0
48091,19995,9931,0,0,0
48356,20242,10352,0,0,0
48579,20453,10715,0,0,0
48765,20631,11019,0,0,0
48917,20775,11268,0,0,0
49039,20889,11469,0,0,0
49132,20974,11627,0,0,0
49190,21031,11744,0,0,0
49219,21062,11824,0,0,0
49229,21075,11871,0,0,0
49223,21073,11888,0,0,0
49201,21054,11877,0,0,0
49164,21019,11842,0,0,0
49123,20974,11793,0,0,0
49081,20925,11735,0,0,0
49037,20877,11672,0,0,0
48993,20831,11609,0,0,0
48949,20788,11547,0,0,0
48908,20751,11487,0,0,0
48871,20718,11425,0,0,0
48838,20689,11366,0,0,0
48813,20663,11312,0,0,0
48792,20638,11260,0,0,0
48771,20614,11209,0,0,0
48747,20586,11158,0,0,0
48725,20560,11106,0,0,0
48705,20531,11053,0,0,0
48675,20495,10996,0,0,0
48634,20453,10930,0,0,0
48584,20407,10857,0,0,0
48526,20355,10773,0,0,0
48461,20295,10678,0,0,0
48391,20230,10573,0,0,0
48320,20164,10462,0,0,0
48246,20096,10349,0,0,0
48173,20031,10241,0,0,0
48102,19969,10141,0,0,0
48037,19908,10051,0,0,0
47985,19852,9970,0,0,0
47941,19803,9898,0,0,0
47904,19768,9838,0,0,0
47878,19749,9794,0,0,0
47861,19740,9765,0,0,0
47854,19736,9755,0,0,0
47864,19741,9769,0,0,0
47892,19757,9805,0,0,0
47929,19780,9852,0,0,0
47967,19805,9902,0,0,0
48008,19833,9955,0,0,0
48051,19867,10010,0,0,0
48089,19900,10062,0,0,0
48113,19923,10103,0,0,0
48127,19939,10130,0,0,0
48141,19952,10150,0,0,0
48155,19963,10168,0,0,0
48164,19971,10178,0,0,0
48165,19975,10176,0,0,0
48159,19972,10165,0,0,0
48145,19964,10144,0,0,0
48126,19951,10113,0,0,0
48100,19931,10074,0,0,0
48065,19904,10024,0,0,0
48023,19867,9962,0,0,0
47974,19818,9888,0,0,0
47919,19761,9804,0,0,0
47856,19701,9712,0,0,0
47788,19638,9612,0,0,0
47714,19571,9507,0,0,0
47636,19496,9395,0,0,0
47554,19417,9277,0,0,0
47474,19337,9155,0,0,0
47394,19257,9028,0,0,0
47310,19175,8895,0,0,0
47220,19090,8757,0,0,0
47130,19003,8620,0,0,0
47042,18915,8485,0,0,0
46955,18831,8351,0,0,0
46867,18750,8217,0,0,0
46780,18669,8085,0,0,0
46694,18589,7954,0,0,0
46608,18510,7826,0,0,0
46524,18433,7698,0,0,0
46441,18357,7571,0,0,0
46361,18286,7446,0,0,0
46282,18216,7319,0,0,0
46199,18141,7185,0,0,0
46110,18061,7047,0,0,0
46021,17978,6912,0,0,0
45935,17898,6784,0,0,0
45851,17821,6663,0,0,0
45770,17745,6546,0,0,0
45691,17671,6434,0,0,0
45617,17599,6325,0,0,0
45544,17529,6214,0,0,0
45469,17459,6108,0,0,0
45396,17394,6009,0,0,0
45328,17336,5915,0,0,0
45264,17279,5823,0,0,0
45202,17220,5735,0,0,0
45142,17161,5649,0,0,0
45084,17103,5563,0,0,0
45031,17048,5480,0,0,0
44979,16994,5404,0,0,0
44927,16940,5330,0,0,0
44877,16889,5252,0,0,0
44825,16838,5173,0,0,0
44773,16787,5101,0,0,0
44722,16740,5037,0,0,0
44674,16700,4972,0,0,0
44630,16662,4907,0,0,0
44586,16621,4843,0,0,0
44541,16577,4777,0,0,0
44493,16534,4707,0,0,0
44445,16492,4636,0,0,0
44401,16454,4568,0,0,0
44363,16419,4502,0,0,0
44325,16381,4431,0,0,0
44284,16340,4358,0,0,0
44242,16300,4290,0,0,0
44201,16261,4227,0,0,0
44157,16222,4165,0,0,0
44111,16183,4103,0,0,0
44066,16143,4040,0,0,0
44021,16106,3975,0,0,0
43976,16073,3908,0,0,0
43930,16041,3842,0,0,0
43889,16008,3776,0,0,0
43849,15973,3708,0,0,0
43805,15934,3635,0,0,0
43756,15893,3560,0,0,0
43704,15852,3487,0,0,0
43652,15809,3415,0,0,0
43601,15764,3338,0,0,0
43549,15716,3256,0,0,0
43495,15664,3174,0,0,0
43440,15611,3091,0,0,0
43383,15554,3005,0,0,0
43324,15491,2915,0,0,0
43261,15427,2822,0,0,0
43196,15364,2726,0,0,0
43129,15303,2630,0,0,0
43064,15243,2537,0,0,0
43002,15184,2446,0,0,0
42940,15123,2352,0,0,0
42877,15060,2254,0,0,0
42809,14993,2150,0,0,0
42736,14923,2045,0,0,0
42663,14857,1944,0,0,0
42592,14799,1847,0,0,0
42521,14744,1751,0,0,0
42455,14693,1660,0,0,0
42407,14652,1583,0,0,0
42376,14626,1530,0,0,0
42369,14620,1515,0,0,0
42398,14645,1550,0,0,0
42472,14712,1646,0,0,0
42596,14825,1813,0,0,0
42771,14987,2058,0,0,0
43001,15200,2381,0,0,0
43293,15468,2785,0,0,0
43639,15787,3266,0,0,0
44031,16148,3820,0,0,0
44464,16544,4431,0,0,0
44920,16964,5081,0,0,0
45388,17394,5753,0,0,0
45855,17825,6433,0,0,0
46313,18248,7101,0,0,0
46749,18652,7746,0,0,0
47158,19028,8359,0,0,0
47535,19373,8933,0,0,0
47874,19684,9457,0,0,0
48172,19955,9915,0,0,0
48430,20186,10310,0,0,0
48650,20381,10651,0,0,0
48835,20545,10940,0,0,0
48986,20675,11175,0,0,0
49102,20773,11357,0,0,0
49183,20842,11490,0,0,0
49232,20883,11578,0,0,0
49252,20902,11625,0,0,0
49248,20903,11637,0,0,0
49224,20889,11627,0,0,0
49186,20860,11600,0,0,0
49140,20819,11556,0,0,0
49088,20770,11498,0,0,0
49036,20721,11431,0,0,0
48987,20675,11358,0,0,0
48935,20630,11277,0,0,0
48878,20583,11189,0,0,0
48823,20536,11102,0,0,0
48772,20487,11016,0,0,0
48723,20436,10931,0,0,0
48675,20382,10848,0,0,0
48629,20332,10770,0,0,0
48583,20286,10695,0,0,0
48531,20239,10619,0,0,0
48476,20192,10541,0,0,0
48418,20143,10457,0,0,0
48358,20093,10366,0,0,0
48296,20036,10270,0,0,0
48229,19971,10169,0,0,0
48154,19901,10059,0,0,0
48070,19827,9940,0,0,0
47981,19750,9815,0,0,0
47893,19672,9693,0,0,0
47810,19596,9576,0,0,0
47732,19521,9463,0,0,0
47661,19453,9360,0,0,0
47602,19395,9273,0,0,0
47556,19349,9201,0,0,0
47520,19316,9140,0,0,0
47489,19293,9093,0,0,0
47470,19280,9062,0,0,0
47466,19280,9048,0,0,0
47473,19291,9050,0,0,0
47488,19309,9065,0,0,0
47512,19335,9091,0,0,0
47544,19368,9128,0,0,0
47582,19402,9172,0,0,0
47623,19436,9219,0,0,0
47668,19471,9271,0,0,0
47713,19508,9324,0,0,0
47750,19544,9374,0,0,0
47778,19574,9421,0,0,0
47800,19601,9465,0,0,0
47814,19622,9500,0,0,0
47824,19637,9524,0,0,0
47827,19644,9536,0,0,0
47822,19641,9535,0,0,0
47810,19631,9517,0,0,0
47791,19612,9485,0,0,0
47766,19587,9442,0,0,0
47736,19555,9387,0,0,0
47693,19515,9316,0,0,0
47630,19463,9227,0,0,0
47552,19399,9126,0,0,0
47471,19329,9020,0,0,0
47389,19253,8905,0,0,0
47305,19172,8782,0,0,0
47220,19091,8656,0,0,0
47133,19011,8529,0,0,0
47043,18931,8396,0,0,0
46951,18852,8261,0,0,0
46864,18776,8128,0,0,0
46781,18700,7995,0,0,0
46695,18624,7857,0,0,0
46606,18545,7717,0,0,0
46518,18463,7580,0,0,0
46434,18380,7449,0,0,0
46349,18293,7321,0,0,0
46261,18204,7195,0,0,0
46176,18118,7075,0,0,0
46098,18037,6954,0,0,0
46023,17956,6827,0,0,0
45946,17875,6696,0,0,0
45870,17797,6567,0,0,0
45795,17723,6443,0,0,0
45719,17652,6319,0,0,0
45641,17582,6196,0,0,0
45565,17512,6075,0,0,0
45487,17441,5957,0,0,0
45408,17369,5837,0,0,0
45327,17297,5722,0,0,0
45252,17231,5620,0,0,0
45183,17170,5523,0,0,0
45117,17113,5424,0,0,0
45053,17058,5334,0,0,0
44994,17009,5255,0,0,0
44942,16964,5181,0,0,0
44894,16921,5105,0,0,0
44846,16878,5027,0,0,0
44797,16832,4945,0,0,0
44749,16785,4860,0,0,0
44705,16740,4778,0,0,0
44661,16699,4702,0,0,0
44613,16661,4633,0,0,0
44562,16625,4567,0,0,0
44507,16587,4500,0,0,0
44450,16544,4435,0,0,0
44393,16500,4373,0,0,0
44344,16460,4311,0,0,0
44303,16425,4251,0,0,0
44269,16397,4197,0,0,0
44243,16377,4150,0,0,0
44221,16360,4102,0,0,0
44196,16338,4053,0,0,0
44168,16310,4006,0,0,0
44138,16280,3960,0,0,0
44106,16250,3910,0,0,0
44070,16217,3856,0,0,0
44033,16182,3803,0,0,0
43994,16145,3748,0,0,0
43952,16106,3682,0,0,0
43904,16063,3606,0,0,0
43849,16015,3525,0,0,0
43791,15962,3442,0,0,0
43732,15906,3359,0,0,0
43674,15847,3278,0,0,0
43615,15783,3197,0,0,0
43553,15718,3111,0,0,0
43491,15653,3019,0,0,0
43428,15591,2924,0,0,0
43361,15530,2824,0,0,0
43293,15470,2719,0,0,0
43225,15412,2614,0,0,0
43154,15354,2511,0,0,0
43081,15295,2411,0,0,0
43011,15238,2315,0,0,0
42945,15183,2226,0,0,0
42885,15129,2146,0,0,0
42835,15083,2078,0,0,0
42802,15052,2025,0,0,0
42791,15045,2001,0,0,0
42813,15071,2023,0,0,0
42876,15136,2103,0,0,0
42985,15243,2244,0,0,0
43142,15393,2453,0,0,0
43348,15586,2739,0,0,0
43605,15823,3102,0,0,0
43910,16103,3536,0,0,0
44261,16422,4037,0,0,0
44648,16773,4595,0,0,0
45063,17148,5196,0,0,0
45497,17542,5825,0,0,0
45940,17941,6467,0,0,0
46373,18333,7103,0,0,0
46790,18714,7718,0,0,0
47186,19081,8304,0,0,0
47551,19422,8853,0,0,0
47879,19728,9352,0,0,0
48167,19994,9795,0,0,0
48416,20225,10184,0,0,0
48626,20419,10521,0,0,0
48796,20578,10803,0,0,0
48929,20704,11034,0,0,0
49031,20800,11218,0,0,0
49102,20867,11353,0,0,0
49144,20908,11447,0,0,0
49166,20930,11508,0,0,0
49171,20939,11541,0,0,0
49162,20935,11547,0,0,0
49141,20918,11530,0,0,0
49115,20895,11500,0,0,0
49087,20870,11462,0,0,0
49054,20838,11416,0,0,0
49017,20803,11365,0,0,0
48982,20771,11312,0,0,0
48945,20743,11257,0,0,0
48905,20711,11196,0,0,0
48860,20673,11133,0,0,0
48815,20633,11073,0,0,0
48773,20594,11016,0,0,0
48733,20553,10957,0,0,0
48688,20508,10891,0,0,0
48640,20464,10819,0,0,0
48591,20419,10741,0,0,0
48540,20368,10656,0,0,0
48486,20314,10569,0,0,0
48432,20262,10480,0,0,0
48373,20207,10382,0,0,0
48304,20142,10268,0,0,0
48227,20069,10147,0,0,0
48148,19992,10026,0,0,0
48069,19917,9909,0,0,0
47994,19843,9799,0,0,0
47924,19774,9694,0,0,0
47860,19716,9597,0,0,0
47803,19668,9511,0,0,0
47755,19630,9438,0,0,0
47714,19602,9377,0,0,0
47685,19584,9327,0,0,0
47665,19571,9289,0,0,0
47650,19567,9267,0,0,0
47648,19577,9266,0,0,0
47659,19597,9279,0,0,0
47677,19618,9301,0,0,0
47699,19640,9328,0,0,0
47725,19665,9356,0,0,0
47754,19694,9387,0,0,0
47788,19724,9425,0,0,0
47826,19753,9470,0,0,0
47867,19782,9515,0,0,0
47904,19810,9555,0,0,0
47929,19830,9587,0,0,0
47946,19843,9611,0,0,0
47958,19854,9634,0,0,0
47965,19861,9647,0,0,0
47961,19860,9647,0,0,0
47948,19848,9633,0,0,0
47931,19832,9608,0,0,0
47910,19810,9575,0,0,0
47881,19781,9532,0,0,0
47844,19744,9475,0,0,0
47801,19704,9404,0,0,0
47752,19661,9329,0,0,0
47694,19610,9248,0,0,0
47629,19551,9157,0,0,0
47559,19489,9055,0,0,0
47483,19424,8941,0,0,0
47403,19354,8819,0,0,0
47320,19281,8694,0,0,0
47238,19205,8567,0,0,0
47156,19127,8438,0,0,0
47073,19046,8309,0,0,0
46993,18967,8182,0,0,0
46913,18888,8053,0,0,0
46829,18808,7919,0,0,0
46743,18728,7786,0,0,0
46661,18652,7657,0,0,0
46584,18580,7534,0,0,0
46507,18508,7414,0,0,0
46428,18433,7295,0,0,0
46349,18359,7175,0,0,0
46271,18288,7054,0,0,0
46188,18214,6931,0,0,0
46099,18138,6805,0,0,0
46008,18061,6681,0,0,0
45917,17984,6558,0,0,0
45831,17908,6437,0,0,0
45752,17838,6325,0,0,0
45679,17774,6218,0,0,0
45611,17712,6111,0,0,0
45547,17651,6008,0,0,0
45490,17589,5911,0,0,0
45435,17527,5819,0,0,0
45382,17471,5730,0,0,0
45327,17420,5645,0,0,0
45275,17374,5566,0,0,0
45226,17332,5489,0,0,0
45179,17290,5413,0,0,0
45133,17249,5343,0,0,0
45084,17207,5277,0,0,0
45033,17165,5209,0,0,0
44982,17119,5138,0,0,0
44936,17071,5068,0,0,0
44895,17024,5002,0,0,0
44858,16978,4934,0,0,0
44819,16931,4863,0,0,0
44780,16887,4791,0,0,0
44744,16848,4723,0,0,0
44706,16812,4658,0,0,0
44663,16777,4595,0,0,0
44618,16744,4536,0,0,0
44576,16718,4483,0,0,0
44539,16696,4430,0,0,0
44505,16671,4374,0,0,0
44471,16642,4316,0,0,0
44439,16613,4261,0,0,0
44409,16584,4205,0,0,0
44375,16551,4146,0,0,0
44333,16513,4083,0,0,0
44290,16474,4017,0,0,0
44246,16431,3949,0,0,0
44198,16383,3879,0,0,0
44147,16334,3810,0,0,0
44098,16285,3738,0,0,0
44048,16233,3661,0,0,0
43996,16177,3581,0,0,0
43943,16122,3502,0,0,0
43894,16070,3422,0,0,0
43849,16023,3341,0,0,0
43808,15977,3262,0,0,0
43769,15932,3190,0,0,0
43732,15892,3123,0,0,0
43693,15851,3055,0,0,0
43651,15811,2988,0,0,0
43607,15773,2922,0,0,0
43567,15739,2855,0,0,0
43526,15705,2785,0,0,0
43475,15663,2706,0,0,0
43414,15610,2620,0,0,0
43346,15554,2528,0,0,0
43275,15495,2428,0,0,0
43202,15432,2325,0,0,0
43129,15367,2227,0,0,0
43061,15307,2135,0,0,0
42999,15250,2047,0,0,0
42940,15197,1968,0,0,0
42895,15158,1912,0,0,0
42874,15139,1884,0,0,0
42883,15146,1890,0,0,0
42930,15188,1944,0,0,0
43021,15271,2057,0,0,0
43158,15396,2237,0,0,0
43345,15569,2499,0,0,0
43589,15797,2855,0,0,0
43893,16079,3302,0,0,0
44250,16413,3828,0,0,0
44653,16790,4420,0,0,0
45092,17199,5066,0,0,0
45557,17630,5752,0,0,0
46031,18069,6453,0,0,0
46499,18501,7144,0,0,0
46950,18913,7813,0,0,0
47382,19301,8454,0,0,0
47791,19665,9064,0,0,0
48169,20003,9635,0,0,0
48511,20310,10161,0,0,0
48816,20587,10638,0,0,0
49084,20834,11061,0,0,0
49318,21051,11432,0,0,0
49520,21236,11752,0,0,0
49690,21389,12024,0,0,0
49827,21513,12249,0,0,0
49928,21606,12428,0,0,0
49997,21674,12563,0,0,0
50041,21722,12659,0,0,0
50060,21751,12717,0,0,0
50060,21761,12745,0,0,0
50050,21759,12751,0,0,0
50031,21749,12742,0,0,0
50005,21730,12718,0,0,0
49975,21703,12682,0,0,0
49941,21669,12635,0,0,0
49906,21631,12581,0,0,0
49872,21598,12527,0,0,0
49841,21567,12476,0,0,0
49812,21534,12427,0,0,0
49788,21502,12378,0,0,0
49767,21471,12330,0,0,0
49744,21439,12281,0,0,0
49717,21406,12232,0,0,0
49684,21372,12181,0,0,0
49645,21333,12125,0,0,0
49603,21292,12064,0,0,0
49557,21248,11998,0,0,0
49503,21200,11923,0,0,0
49443,21146,11837,0,0,0
49376,21085,11739,0,0,0
49297,21015,11632,0,0,0
49208,20938,11518,0,0,0
49115,20856,11396,0,0,0
49022,20773,11266,0,0,0
48932,20689,11131,0,0,0
48846,20609,11001,0,0,0
48763,20532,10877,0,0,0
48690,20464,10762,0,0,0
48629,20410,10663,0,0,0
48581,20367,10579,0,0,0
48545,20335,10514,0,0,0
48521,20313,10471,0,0,0
48509,20302,10449,0,0,0
48512,20306,10452,0,0,0
48526,20323,10470,0,0,0
48548,20345,10495,0,0,0
48578,20370,10531,0,0,0
48614,20398,10575,0,0,0
48651,20428,10622,0,0,0
48687,20459,10670,0,0,0
48719,20490,10713,0,0,0
48745,20515,10747,0,0,0
48763,20533,10775,0,0,0
48777,20546,10796,0,0,0
48787,20553,10809,0,0,0
48792,20559,10814,0,0,0
48790,20560,10809,0,0,0
48781,20547,10789,0,0,0
48764,20526,10754,0,0,0
48738,20501,10711,0,0,0
48703,20472,10659,0,0,0
48663,20437,10598,0,0,0
48618,20398,10528,0,0,0
48562,20354,10446,0,0,0
48493,20303,10352,0,0,0
48419,20243,10249,0,0,0
48345,20178,10141,0,0,0
48266,20106,10026,0,0,0
48182,20027,9904,0,0,0
48096,19944,9778,0,0,0
48009,19860,9651,0,0,0
47920,19781,9525,0,0,0
47833,19704,9400,0,0,0
47744,19626,9273,0,0,0
47655,19547,9143,0,0,0
47566,19468,9010,0,0,0
47475,19383,8875,0,0,0
47384,19294,8735,0,0,0
47295,19208,8596,0,0,0
47206,19124,8459,0,0,0
47115,19037,8322,0,0,0
47023,18945,8184,0,0,0
46929,18851,8046,0,0,0
46833,18757,7908,0,0,0
46738,18665,7774,0,0,0
46651,18577,7645,0,0,0
46571,18490,7516,0,0,0
46489,18406,7388,0,0,0
46405,18326,7263,0,0,0
46322,18253,7145,0,0,0
46243,18188,7033,0,0,0
46162,18126,6923,0,0,0
46079,18060,6813,0,0,0
46003,17996,6703,0,0,0
45935,17934,6594,0,0,0
45871,17871,6490,0,0,0
45812,17810,6395,0,0,0
45755,17752,6302,0,0,0
45700,17700,6211,0,0,0
45644,17648,6124,0,0,0
45587,17597,6039,0,0,0
45532,17549,5958,0,0,0
45475,17502,5879,0,0,0
45417,17453,5802,0,0,0
45358,17406,5732,0,0,0
45304,17366,5667,0,0,0
45253,17330,5601,0,0,0
45198,17288,5530,0,0,0
45142,17238,5451,0,0,0
45083,17190,5372,0,0,0
45027,17145,5298,0,0,0
44978,17102,5231,0,0,0
44937,17062,5170,0,0,0
44904,17025,5111,0,0,0
44870,16990,5050,0,0,0
44832,16957,4988,0,0,0
44794,16924,4923,0,0,0
44755,16888,4850,0,0,0
44711,16845,4768,0,0,0
44662,16798,4686,0,0,0
44610,16753,4611,0,0,0
44559,16710,4539,0,0,0
44511,16667,4466,0,0,0
44465,16623,4392,0,0,0
44419,16581,4323,0,0,0
44372,16539,4258,0,0,0
44323,16497,4195,0,0,0
44268,16451,4130,0,0,0
44211,16402,4058,0,0,0
44149,16350,3976,0,0,0
44084,16292,3886,0,0,0
44021,16232,3792,0,0,0
43963,16173,3698,0,0,0
43904,16115,3602,0,0,0
43844,16056,3504,0,0,0
43785,15995,3409,0,0,0
43728,15935,3315,0,0,0
43669,15877,3221,0,0,0
43610,15819,3126,0,0,0
43551,15761,3033,0,0,0
43492,15704,2940,0,0,0
43428,15645,2842,0,0,0
43358,15584,2744,0,0,0
43287,15525,2651,0,0,0
43218,15471,2559,0,0,0
43150,15415,2465,0,0,0
43080,15354,2369,0,0,0
43008,15289,2270,0,0,0
42934,15222,2164,0,0,0
42857,15151,2052,0,0,0
42777,15078,1942,0,0,0
42700,15007,1841,0,0,0
42633,14941,1747,0,0,0
42572,14881,1657,0,0,0
42522,14831,1583,0,0,0
42491,14803,1538,0,0,0
42485,14802,1528,0,0,0
42511,14834,1562,0,0,0
42582,14906,1658,0,0,0
42709,15026,1830,0,0,0
42893,15199,2081,0,0,0
43132,15424,2412,0,0,0
43427,15700,2827,0,0,0
43779,16026,3324,0,0,0
44183,16395,3893,0,0,0
44625,16796,4523,0,0,0
45088,17218,5200,0,0,0
45563,17652,5905,0,0,0
46045,18088,6615,0,0,0
46518,18516,7310,0,0,0
46976,18930,7982,0,0,0
47410,19325,8624,0,0,0
47815,19698,9227,0,0,0
48187,20039,9788,0,0,0
48522,20343,10299,0,0,0
48819,20613,10757,0,0,0
49079,20851,11159,0,0,0
49302,21059,11508,0,0,0
49492,21239,11809,0,0,0
49651,21388,12064,0,0,0
49774,21503,12272,0,0,0
49861,21587,12430,0,0,0
49917,21644,12545,0,0,0
49946,21674,12620,0,0,0
49951,21681,12656,0,0,0
49937,21670,12661,0,0,0
49912,21651,12643,0,0,0
49881,21626,12611,0,0,0
49847,21599,12567,0,0,0
49808,21567,12514,0,0,0
49766,21532,12456,0,0,0
49723,21496,12399,0,0,0
49682,21459,12345,0,0,0
49644,21421,12294,0,0,0
49609,21382,12243,0,0,0
49575,21345,12190,0,0,0
49540,21307,12134,0,0,0
49501,21267,12072,0,0,0
49459,21225,12008,0,0,0
49415,21181,11941,0,0,0
49368,21135,11870,0,0,0
49318,21087,11793,0,0,0
49263,21034,11710,0,0,0
49204,20976,11617,0,0,0
49136,20912,11515,0,0,0
49060,20844,11406,0,0,0
48980,20775,11295,0,0,0
48896,20702,11181,0,0,0
48808,20622,11061,0,0,0
48723,20540,10937,0,0,0
48648,20465,10818,0,0,0
48584,20401,10707,0,0,0
48523,20344,10605,0,0,0
48465,20295,10512,0,0,0
48412,20255,10435,0,0,0
48365,20222,10371,0,0,0
48326,20195,10322,0,0,0
48300,20178,10290,0,0,0
48289,20174,10279,0,0,0
48292,20182,10285,0,0,0
48302,20197,10297,0,0,0
48318,20217,10315,0,0,0
48343,20244,10342,0,0,0
48375,20276,10376,0,0,0
48409,20307,10412,0,0,0
48446,20335,10448,0,0,0
48482,20361,10483,0,0,0
48512,20379,10512,0,0,0
48532,20387,10531,0,0,0
48541,20388,10541,0,0,0
48541,20385,10546,0,0,0
48532,20378,10543,0,0,0
48515,20364,10527,0,0,0
48489,20342,10500,0,0,0
48455,20317,10460,0,0,0
48413,20285,10403,0,0,0
48362,20241,10326,0,0,0
48304,20185,10236,0,0,0
48244,20122,10140,0,0,0
48177,20054,10038,0,0,0
48104,19983,9929,0,0,0
48024,19912,9815,0,0,0
47939,19842,9695,0,0,0
47846,19769,9571,0,0,0
47748,19690,9446,0,0,0
47647,19607,9321,0,0,0
47544,19519,9191,0,0,0
47441,19426,9053,0,0,0
47339,19329,8911,0,0,0
47241,19232,8766,0,0,0
47147,19138,8619,0,0,0
47056,19042,8470,0,0,0
46966,18944,8320,0,0,0
46873,18849,8176,0,0,0
46777,18757,8037,0,0,0
46680,18669,7901,0,0,0
46585,18581,7769,0,0,0
46489,18493,7635,0,0,0
46397,18411,7500,0,0,0
46306,18334,7363,0,0,0
46216,18257,7231,0,0,0
46131,18183,7106,0,0,0
46052,18115,6984,0,0,0
45976,18050,6867,0,0,0
45903,17989,6756,0,0,0
45836,17933,6651,0,0,0
45774,17882,6550,0,0,0
45713,17826,6452,0,0,0
45654,17765,6355,0,0,0
45596,17703,6261,0,0,0
45536,17640,6166,0,0,0
45475,17577,6070,0,0,0
45418,17519,5982,0,0,0
45367,17466,5901,0,0,0
45317,17421,5821,0,0,0
45264,17379,5740,0,0,0
45208,17335,5660,0,0,0
45148,17287,5578,0,0,0
45087,17235,5495,0,0,0
45027,17181,5412,0,0,0
44968,17128,5329,0,0,0
44911,17075,5247,0,0,0
44855,17022,5164,0,0,0
44797,16967,5081,0,0,0
44739,16914,5002,0,0,0
44683,16865,4923,0,0,0
44625,16819,4841,0,0,0
44567,16771,4760,0,0,0
44512,16722,4684,0,0,0
44459,16675,4606,0,0,0
44408,16629,4524,0,0,0
44360,16582,4443,0,0,0
44314,16530,4368,0,0,0
44266,16478,4294,0,0,0
44214,16424,4218,0,0,0
44160,16369,4139,0,0,0
44105,16314,4059,0,0,0
44050,16260,3976,0,0,0
43994,16205,3895,0,0,0
43934,16149,3817,0,0,0
43871,16094,3739,0,0,0
43808,16042,3658,0,0,0
43741,15987,3570,0,0,0
43668,15922,3473,0,0,0
43596,15855,3370,0,0,0
43524,15787,3265,0,0,0
43451,15719,3160,0,0,0
43378,15652,3058,0,0,0
43308,15588,2955,0,0,0
43240,15526,2850,0,0,0
43170,15463,2746,0,0,0
43095,15399,2642,0,0,1
43020,15337,2538,0,0,1
42946,15275,2434,0,0,1
42874,15213,2331,0,0,1
42803,15149,2232,0,0,1
42734,15086,2134,0,0,1
42666,15023,2034,0,0,1
42595,14958,1933,0,0,1
42521,14892,1833,0,0,1
42450,14826,1730,0,0,1
42380,14757,1622,0,0,1
42309,14688,1516,0,0,1
42239,14623,1414,0,0,1
42174,14564,1314,0,0,1
42112,14506,1218,0,0,1
42051,14444,1125,0,0,1
41991,14382,1035,0,0,1
41932,14323,946,0,0,1
41868,14264,859,0,0,1
41796,14205,771,0,0,1
41718,14144,677,0,0,1
41637,14085,576,0,0,1
41556,14025,1784,0,0,1
41474,13957,6357,0,0,1
41396,13883,14029,0,0,1
41327,13812,23069,0,0,1
41266,13746,32258,0,0,1
41217,13692,40802,0,0,1
41187,13656,46943,0,0,1
41184,13648,48441,0,0,1
41223,13680,45554,0,0,1
41314,13761,40123,0,0,1
41466,13897,33542,0,0,1
41681,14090,26803,0,0,1
41957,14339,20557,0,0,1
42289,14640,15188,0,0,1
42673,14991,10876,0,0,1
43097,15379,7651,0,0,1
43548,15795,5440,0,0,1
44023,16233,4117,0,0,1
44510,16683,3520,0,0,1
44993,17132,3477,0,0,1
45463,17566,3834,0,0,1
45914,17977,4458,0,0,1
46335,18359,5232,0,0,1
46717,18704,6066,0,0,1
47055,19011,6899,0,0,1
47353,19283,7687,0,0,1
47611,19519,8395,0,0,1
47829,19719,9005,0,0,1
48009,19882,9517,0,0,1
48157,20013,9936,0,0,1
48276,20117,10265,0,0,1
48366,20191,10506,0,0,1
48426,20238,10667,0,0,1
48461,20263,10764,0,0,1
48475,20275,10814,0,0,1
48469,20271,10823,0,0,1
48444,20249,10798,0,0,1
48407,20217,10747,0,0,1
48361,20179,10677,0,0,1
48305,20135,10593,0,0,1
48240,20081,10495,0,0,1
48173,20022,10392,0,0,1
48108,19962,10293,0,0,1
48047,19901,10199,0,0,1
47986,19839,10102,0,0,1
47927,19781,10008,0,0,1
47874,19731,9920,0,0,1
47825,19684,9837,0,0,1
47777,19636,9761,0,0,1
47728,19587,9687,0,0,1
47674,19537,9613,0,0,1
47614,19483,9533,0,0,1
47549,19425,9443,0,0,1
47479,19363,9343,0,0,1
47406,19296,9234,0,0,1
47326,19224,9118,0,0,1
47239,19148,9001,0,0,1
47147,19069,8880,0,0,1
47054,18992,8755,0,0,1
46964,18914,8630,0,0,1
46881,18838,8512,0,0,1
46807,18766,8403,0,0,1
46742,18703,8300,0,0,1
46682,18645,8204,0,0,1
46626,18590,8120,0,0,1
46577,18542,8051,0,0,1
46540,18506,8000,0,0,1
46516,18483,7971,0,0,1
46503,18472,7958,0,0,1
46502,18472,7960,0,0,1
46516,18483,7977,0,0,1
46538,18500,8008,0,0,1
46562,18523,8050,0,0,1
46587,18549,8091,0,0,1
46611,18577,8130,0,0,1
46637,18604,8168,0,0,1
46665,18634,8207,0,0,1
46696,18664,8243,0,0,1
46724,18690,8268,0,0,1
46747,18706,8285,0,0,1
46767,18716,8296,0,0,1
46780,18720,8299,0,0,1
46784,18719,8293,0,0,1
46777,18711,8277,0,0,1
46758,18696,8252,0,0,1
46724,18670,8210,0,0,1
46676,18630,8145,0,0,1
46621,18583,8068,0,0,1
46562,18529,7984,0,0,1
46500,18470,7892,0,0,1
46435,18404,7794,0,0,1
46363,18333,7695,0,0,1
46286,18262,7592,0,0,1
46209,18193,7481,0,0,1
46128,18122,7363,0,0,1
46043,18043,7240,0,0,1
45957,17957,7111,0,0,1
45867,17866,6976,0,0,1
45773,17772,6836,0,0,1
45677,17676,6696,0,0,1
45579,17581,6553,0,0,1
45479,17488,6409,0,0,1
45377,17396,6267,0,0,1
45277,17306,6131,0,0,1
45176,17215,5994,0,0,1
45075,17123,5853,0,0,1
44977,17034,5715,0,0,1
44882,16948,5581,0,0,1
44791,16867,5448,0,0,1
44703,16788,5317,0,0,1
44616,16708,5189,0,0,1
44530,16627,5060,0,0,1
44447,16546,4929,0,0,1
44370,16471,4803,0,0,1
44300,16401,4687,0,0,1
44233,16334,4579,0,0,1
44169,16270,4474,0,0,1
44106,16209,4371,0,0,1
44043,16149,4271,0,0,1
43974,16088,4173,0,0,1
43901,16028,4074,0,0,1
43828,15968,3977,0,0,1
43759,15907,3886,0,0,1
43696,15850,3798,0,0,1
43637,15799,3712,0,0,1
43582,15749,3627,0,0,1
43530,15701,3545,0,0,1
43480,15656,3467,0,0,1
43428,15610,3390,0,0,1
43377,15563,3318,0,0,1
43327,15514,3250,0,0,1
43279,15468,3182,0,0,1
43232,15426,3110,0,0,1
43189,15389,3040,0,0,1
43150,15355,2976,0,0,1
43113,15322,2917,0,0,1
43077,15291,2857,0,0,1
43039,15260,2795,0,0,1
42999,15230,2735,0,0,1
42958,15200,2675,0,0,1
42918,15168,2613,0,0,1
42881,15135,2550,0,0,1
42843,15102,2491,0,0,1
42802,15067,2432,0,0,1
42759,15029,2369,0,0,1
42712,14987,2305,0,0,1
42663,14944,2240,0,0,1
42613,14898,2171,0,0,1
42566,14850,2099,0,0,1
42520,14803,2026,0,0,1
42475,14755,1955,0,0,1
42431,14710,1882,0,0,1
42386,14663,1803,0,0,1
42335,14613,1718,0,0,1
42281,14564,1632,0,0,1
42229,14521,1547,0,0,1
42176,14481,1462,0,0,1
42121,14437,1378,0,0,1
42066,14393,1300,0,0,1
42015,14350,1224,0,0,1
41965,14304,1143,0,0,1
41914,14257,1066,0,0,1
41861,14212,995,0,0,1
41806,14165,923,0,0,1
41745,14110,841,0,0,1
41679,14049,753,0,0,1
41608,13982,656,0,0,1
41535,13909,1865,0,0,1
41459,13833,5124,0,0,1
41382,13755,9433,0,0,1
41308,13680,15378,0,0,1
41239,13610,23201,0,0,1
41170,13543,31593,0,0,1
41104,13479,39669,0,0,1
41040,13416,46884,0,0,1
40975,13353,52959,0,0,1
40907,13289,57808,0,0,1
40840,13227,61480,0,0,1
40780,13178,64103,0,0,1
40736,13145,310,0,0,1
40713,13133,1361,0,0,1
40719,13152,593,0,0,1
40765,13209,61649,0,0,1
40859,13304,53861,0,0,1
41007,13439,44621,0,0,1
41214,13622,35241,0,0,1
41477,13858,26576,0,0,1
41792,14140,19119,0,0,1
42150,14461,13090,0,0,1
42547,14818,8516,0,0,1
42978,15209,5299,0,0,1
43432,15623,3261,0,0,1
43894,16043,2194,0,0,1
44354,16462,1883,0,0,1
44802,16875,2121,0,0,1
45228,17268,2721,0,0,1
45621,17629,3533,0,0,1
45974,17955,4443,0,0,1
46287,18247,5362,0,0,1
46559,18502,6227,0,0,1
46791,18720,7007,0,0,1
46987,18904,7686,0,0,1
47153,19058,8249,0,0,1
47285,19177,8693,0,0,1
47382,19263,9028,0,0,1
47449,19321,9270,0,0,1
47494,19356,9432,0,0,1
47517,19366,9524,0,0,1
47518,19354,9555,0,0,1
47501,19331,9540,0,0,1
47473,19299,9492,0,0,1
47433,19256,9417,0,0,1
47375,19200,9324,0,0,1
47308,19137,9218,0,0,1
47238,19072,9104,0,0,1
47163,19004,8983,0,0,1
47085,18931,8862,0,0,1
47010,18857,8743,0,0,1
46939,18788,8626,0,0,1
46867,18721,8513,0,0,1
46796,18658,8406,0,0,1
46727,18599,8304,0,0,1
46661,18541,8199,0,0,1
46593,18482,8087,0,0,1
46519,18419,7974,0,0,1
46440,18353,7863,0,0,1
46358,18282,7748,0,0,1
46274,18205,7630,0,0,1
46189,18120,7508,0,0,1
46101,18029,7383,0,0,1
46012,17939,7254,0,0,1
45925,17855,7124,0,0,1
45845,17779,7004,0,0,1
45773,17714,6895,0,0,1
45709,17659,6794,0,0,1
45656,17611,6705,0,0,1
45619,17573,6633,0,0,1
45598,17549,6578,0,0,1
45588,17534,6532,0,0,1
45582,17528,6503,0,0,1
45585,17536,6500,0,0,1
45593,17555,6514,0,0,1
45604,17577,6537,0,0,1
45623,17600,6570,0,0,1
45651,17629,6615,0,0,1
45687,17668,6669,0,0,1
45725,17712,6731,0,0,1
45767,17759,6802,0,0,1
45811,17810,6877,0,0,1
45856,17860,6942,0,0,1
45896,17901,6997,0,0,1
45930,17933,7050,0,0,1
45961,17959,7099,0,0,1
45984,17978,7134,0,0,1
46000,17990,7154,0,0,1
46011,17997,7164,0,0,1
46017,17996,7167,0,0,1
46015,17988,7155,0,0,1
46000,17970,7123,0,0,1
45975,17941,7075,0,0,1
45944,17901,7015,0,0,1
45907,17856,6947,0,0,1
45862,17805,6870,0,0,1
45806,17747,6783,0,0,1
45745,17685,6688,0,0,1
45679,17621,6583,0,0,1
45606,17551,6467,0,0,1
45527,17478,6344,0,0,1
45442,17403,6222,0,0,1
45353,17325,6096,0,0,1
45258,17240,5967,0,0,1
45156,17150,5837,0,0,1
45056,17058,5705,0,0,1
44958,16967,5570,0,0,1
44859,16874,5433,0,0,1
44757,16782,5292,0,0,1
44655,16691,5149,0,0,1
44556,16601,5004,0,0,1
44462,16519,4863,0,0,1
44373,16443,4729,0,0,1
44290,16372,4600,0,0,1
44210,16302,4474,0,0,1
44133,16233,4354,0,0,1
44055,16165,4237,0,0,1
43976,16097,4119,0,0,1
43894,16027,3996,0,0,1
43810,15955,3872,0,0,1
43726,15883,3751,0,0,1
43647,15816,3636,0,0,1
43571,15749,3525,0,0,1
43498,15682,3421,0,0,1
43432,15619,3321,0,0,1
43371,15561,3224,0,0,1
43316,15506,3127,0,0,0
43266,15453,3036,0,0,0
43219,15401,2951,0,0,0
43169,15349,2869,0,0,0
43115,15296,2790,0,0,0
43060,15246,2718,0,0,0
43013,15206,2656,0,0,0
42972,15171,2596,0,0,0
42927,15132,2532,0,0,0
42881,15090,2467,0,0,0
42839,15052,2409,0,0,0
42804,15020,2355,0,0,0
42775,14993,2304,0,0,0
42750,14970,2262,0,0,0
42729,14953,2229,0,0,0
42711,14937,2196,0,0,0
42693,14922,2159,0,0,0
42674,14907,2122,0,0,0
42648,14891,2080,0,0,0
42612,14869,2030,0,0,0
42575,14842,1980,0,0,0
42545,14814,1937,0,0,0
42519,14789,1897,0,0,0
42488,14763,1850,0,0,0
42452,14732,1795,0,0,0
42417,14700,1741,0,0,0
42382,14670,1682,0,0,0
42342,14639,1616,0,0,0
42296,14604,1549,0,0,0
42249,14565,1481,0,0,0
42203,14525,1412,0,0,0
42159,14485,1343,0,0,0
42111,14443,1271,0,0,0
42063,14398,1195,0,0,0
42018,14350,1120,0,0,0
41975,14302,1045,0,0,0
41927,14251,969,0,0,0
41877,14198,890,0,0,0
41823,14144,808,0,0,0
41765,14087,726,0,0,0
41702,14027,645,0,0,0
41639,13971,568,0,0,0
41586,13927,501,0,0,0
41546,13897,453,0,0,0
41525,13881,430,0,0,0
41532,13890,445,0,0,0
41574,13935,507,0,0,0
41658,14019,630,0,0,0
41788,14146,824,0,0,0
41970,14319,1091,0,0,0
42206,14541,1429,0,0,0
42495,14811,1838,0,0,0
42832,15124,2314,0,0,0
43212,15475,2851,0,0,0
43624,15856,3431,0,0,0
44059,16252,4037,0,0,0
44503,16655,4660,0,0,0
44948,17063,5290,0,0,0
45383,17465,5910,0,0,0
45797,17848,6505,0,0,0
46179,18202,7068,0,0,0
46529,18525,7587,0,0,0
46844,18815,8055,0,0,0
47123,19069,8474,0,0,0
47367,19288,8847,0,0,0
47571,19475,9169,0,0,0
47737,19629,9439,0,0,0
47870,19751,9662,0,0,0
47976,19849,9844,0,0,0
48053,19921,9984,0,0,0
48104,19964,10078,0,0,0
48131,19981,10133,0,0,0
48139,19979,10157,0,0,0
48132,19967,10159,0,0,0
48112,19946,10140,0,0,0
48080,19917,10099,0,0,0
48041,19881,10041,0,0,0
47992,19836,9972,0,0,0
47930,19782,9890,0,0,0
47859,19719,9801,0,0,0
47786,19656,9705,0,0,0
47714,19595,9608,0,0,0
47646,19535,9512,0,0,0
47579,19472,9421,0,0,0
47512,19408,9331,0,0,0
47444,19348,9239,0,0,0
47377,19289,9145,0,0,0
47311,19225,9046,0,0,0
47240,19155,8936,0,0,0
47163,19081,8815,0,0,0
47082,19005,8687,0,0,0
47000,18926,8560,0,0,0
46919,18847,8436,0,0,0
46837,18772,8309,0,0,0
46753,18696,8184,0,0,0
46668,18616,8063,0,0,0
46582,18534,7942,0,0,0
46499,18453,7819,0,0,0
46423,18377,7703,0,0,0
46357,18312,7603,0,0,0
46301,18256,7519,0,0,0
46255,18211,7447,0,0,0
46219,18179,7390,0,0,0
46196,18161,7352,0,0,0
46185,18155,7331,0,0,0
46185,18161,7324,0,0,0
46196,18178,7330,0,0,0
46218,18200,7350,0,0,0
46246,18228,7381,0,0,0
46278,18261,7420,0,0,0
46312,18299,7464,0,0,0
46349,18338,7507,0,0,0
46386,18374,7548,0,0,0
46423,18410,7592,0,0,0
46459,18444,7639,0,0,0
46490,18474,7686,0,0,0
46515,18497,7725,0,0,0
46532,18512,7751,0,0,0
46541,18517,7763,0,0,0
46542,18513,7764,0,0,0
46538,18507,7751,0,0,0
46531,18498,7727,0,0,0
46511,18482,7692,0,0,0
46477,18454,7646,0,0,0
46433,18416,7587,0,0,0
46385,18372,7518,0,0,0
46332,18321,7442,0,0,0
46274,18266,7362,0,0,0
46210,18208,7274,0,0,0
46139,18145,7178,0,0,0
46062,18078,7077,0,0,0
45980,18008,6971,0,0,0
45894,17933,6855,0,0,0
45804,17851,6725,0,0,0
45712,17765,6587,0,0,0
45622,17681,6448,0,0,0
45536,17600,6310,0,0,0
45451,17520,6170,0,0,0
45366,17441,6033,0,0,0
45280,17362,5903,0,0,0
45195,17284,5771,0,0,0
45109,17206,5636,0,0,0
45023,17129,5506,0,0,0
44944,17050,5384,0,0,0
44869,16972,5263,0,0,0
44796,16895,5144,0,0,0
44720,16822,5028,0,0,0
44645,16753,4915,0,0,0
44573,16685,4799,0,0,0
44501,16616,4685,0,0,0
44426,16548,4578,0,0,0
44350,16482,4477,0,0,0
44273,16415,4376,0,0,0
44196,16350,4275,0,0,0
44123,16287,4179,0,0,0
44056,16227,4087,0,0,0
43993,16173,3998,0,0,0
43933,16122,3909,0,0,0
43873,16071,3817,0,0,0
43819,16022,3725,0,0,0
43768,15976,3635,0,0,0
43719,15931,3549,0,0,0
43672,15888,3467,0,0,0
43627,15847,3388,0,0,0
43583,15805,3313,0,0,0
43538,15761,3243,0,0,0
43493,15720,3179,0,0,0
43452,15684,3117,0,0,0
43412,15648,3055,0,0,0
43371,15613,2997,0,0,0
43331,15580,2945,0,0,0
43295,15551,2893,0,0,0
43260,15521,2840,0,0,0
43228,15491,2787,0,0,0
43200,15461,2738,0,0,0
43175,15430,2688,0,0,0
43152,15402,2641,0,0,0
43136,15381,2597,0,0,0
43123,15366,2552,0,0,0
43109,15351,2501,0,0,0
43084,15330,2446,0,0,0
43049,15303,2387,0,0,0
43010,15273,2327,0,0,0
42968,15238,2266,0,0,0
42924,15198,2203,0,0,0
42875,15156,2142,0,0,0
42824,15116,2082,0,0,0
42769,15073,2013,0,0,0
42714,15027,1939,0,0,0
42664,14983,1867,0,0,0
42619,14938,1797,0,0,0
42571,14890,1720,0,0,0
42513,14833,1637,0,0,0
42448,14774,1551,0,0,0
42382,14717,1463,0,0,0
42315,14660,1372,0,0,0
42246,14602,1281,0,0,0
42185,14554,1203,0,0,0
42142,14522,1145,0,0,0
42122,14507,1111,0,0,0
42129,14512,1111,0,0,0
42171,14550,1159,0,0,0
42257,14629,1266,0,0,0
42394,14754,1443,0,0,0
42586,14928,1704,0,0,0
42834,15157,2053,0,0,0
43136,15438,2478,0,0,0
43486,15762,2966,0,0,0
43876,16124,3515,0,0,0
44299,16516,4121,0,0,0
44749,16930,4763,0,0,0
45215,17356,5426,0,0,0
45686,17783,6098,0,0,0
46151,18201,6770,0,0,0
46601,18606,7424,0,0,0
47028,18990,8043,0,0,0
47423,19345,8619,0,0,0
47779,19665,9152,0,0,0
48098,19951,9636,0,0,0
48379,20201,10071,0,0,0
48618,20419,10459,0,0,0
48818,20611,10799,0,0,0
48989,20778,11091,0,0,0
49133,20919,11333,0,0,0
49252,21032,11530,0,0,0
49345,21119,11687,0,0,0
49414,21180,11805,0,0,0
49459,21215,11884,0,0,0
49482,21230,11928,0,0,0
49487,21230,11945,0,0,0
49479,21217,11940,0,0,0
49461,21197,11920,0,0,0
49434,21172,11887,0,0,0
49403,21142,11842,0,0,0
49370,21108,11789,0,0,0
49334,21071,11730,0,0,0
49300,21031,11669,0,0,0
49269,20993,11607,0,0,0
49236,20957,11546,0,0,0
49201,20923,11489,0,0,0
49164,20892,11437,0,0,0
49127,20863,11386,0,0,0
49090,20833,11330,0,0,0
49050,20795,11264,0,0,0
49007,20750,11187,0,0,0
48959,20699,11102,0,0,0
48909,20644,11014,0,0,0
48856,20586,10922,0,0,0
48801,20521,10828,0,0,0
48742,20453,10729,0,0,0
48683,20384,10626,0,0,0
48624,20317,10521,0,0,0
48563,20253,10416,0,0,0
48504,20193,10315,0,0,0
48450,20138,10218,0,0,0
48402,20092,10130,0,0,0
48357,20056,10051,0,0,0
48313,20024,9982,0,0,0
48271,19991,9920,0,0,0
48238,19960,9868,0,0,0
48214,19934,9832,0,0,0
48198,19918,9810,0,0,0
48192,19910,9804,0,0,0
48200,19912,9815,0,0,0
48221,19922,9837,0,0,0
48245,19939,9862,0,0,0
48267,19960,9892,0,0,0
48295,19986,9935,0,0,0
48334,20019,9989,0,0,0
48376,20057,10046,0,0,0
48417,20097,10100,0,0,0
48454,20133,10146,0,0,0
48487,20166,10184,0,0,0
48513,20196,10212,0,0,0
48533,20220,10230,0,0,0
48547,20236,10236,0,0,0
48553,20247,10235,0,0,0
48551,20252,10225,0,0,0
48540,20248,10206,0,0,0
48524,20235,10178,0,0,0
48502,20213,10136,0,0,0
48467,20181,10079,0,0,0
48418,20138,10009,0,0,0
48364,20087,9934,0,0,0
48304,20029,9853,0,0,0
48235,19963,9762,0,0,0
48157,19888,9660,0,0,0
48073,19807,9550,0,0,0
47988,19725,9436,0,0,0
47904,19645,9318,0,0,0
47820,19565,9197,0,0,0
47736,19483,9073,0,0,0
47651,19402,8940,0,0,0
47561,19318,8799,0,0,0
47469,19232,8655,0,0,0
47375,19142,8512,0,0,0
47279,19051,8365,0,0,0
47181,18961,8214,0,0,0
47083,18874,8064,0,0,0
46988,18791,7920,0,0,0
46892,18706,7779,0,0,0
46793,18618,7640,0,0,0
46692,18525,7504,0,0,0
46591,18428,7368,0,0,0
46495,18331,7229,0,0,0
46399,18237,7086,0,0,0
46304,18144,6945,0,0,0
46213,18055,6808,0,0,0
46128,17973,6676,0,0,0
46047,17895,6547,0,0,0
45967,17818,6419,0,0,0
45890,17745,6297,0,0,0
45816,17679,6186,0,0,0
45746,17620,6086,0,0,0
45678,17566,5997,0,0,0
45614,17515,5917,0,0,0
45554,17467,5841,0,0,0
45498,17423,5769,0,0,0
45447,17378,5700,0,0,0
45397,17334,5634,0,0,0
45348,17293,5571,0,0,0
45300,17252,5508,0,0,0
45251,17208,5444,0,0,0
45203,17164,5379,0,0,0
45157,17117,5314,0,0,0
45106,17066,5246,0,0,0
45052,17014,5172,0,0,0
44996,16962,5091,0,0,0
44942,16909,5008,0,0,0
44895,16857,4926,0,0,0
44854,16810,4849,0,0,0
44818,16770,4777,0,0,0
44782,16732,4707,0,0,0
44740,16691,4631,0,0,0
44691,16647,4555,0,0,0
44644,16605,4484,0,0,0
44598,16566,4415,0,0,0
44550,16524,4345,0,0,0
44500,16481,4272,0,0,0
44454,16440,4195,0,0,0
44409,16401,4118,0,0,0
44364,16362,4047,0,0,0
44323,16323,3979,0,0,0
44283,16282,3910,0,0,0
44238,16234,3837,0,0,0
44184,16180,3758,0,0,0
44126,16128,3677,0,0,0
44067,16078,3597,0,0,0
44004,16025,3516,0,0,0
43932,15967,3431,0,0,0
43857,15909,3342,0,0,0
43782,15851,3250,0,0,0
43706,15789,3156,0,0,0
43628,15723,3061,0,0,0
43552,15658,2959,0,0,0
43476,15594,2847,0,0,0
43398,15528,2728,0,0,0
43322,15462,2612,0,0,0
43251,15399,2500,0,0,0
43178,15335,2389,0,0,0
43101,15265,2280,0,0,0
43027,15196,2178,0,0,0
42965,15137,2091,0,0,0
42922,15100,2029,0,0,0
42908,15092,2009,0,0,0
42935,15120,2050,0,0,0
43015,15195,2163,0,0,0
43149,15317,2352,0,0,0
43341,15489,2624,0,0,0
43596,15721,2987,0,0,0
43913,16011,3436,0,0,0
44283,16350,3961,0,0,0
44698,16728,4552,0,0,0
45146,17138,5196,0,0,0
45619,17571,5875,0,0,0
46103,18016,6572,0,0,0
46584,18461,7270,0,0,0
47055,18897,7957,0,0,0
47511,19317,8622,0,0,0
47941,19713,9253,0,0,0
48340,20081,9845,0,0,0
48705,20417,10394,0,0,0
49034,20719,10899,0,0,0
49326,20987,11355,0,0,0
49582,21219,11757,0,0,0
49796,21415,12105,0,0,0
49968,21577,12398,0,0,0
50103,21707,12641,0,0,0
50208,21804,12830,0,0,0
50283,21872,12966,0,0,0
50331,21917,13055,0,0,0
50355,21942,13105,0,0,0
50359,21942,13126,0,0,0
50346,21926,13126,0,0,0
50321,21900,13109,0,0,0
50283,21866,13071,0,0,0
50234,21823,13013,0,0,0
50180,21775,12946,0,0,0
50127,21722,12875,0,0,0
50072,21665,12797,0,0,0
50013,21607,12713,0,0,0
49955,21554,12629,0,0,0
49901,21507,12548,0,0,0
49847,21463,12467,0,0,0
49790,21416,12387,0,0,0
49730,21366,12306,0,0,0
49669,21314,12224,0,0,0
49608,21259,12142,0,0,0
49544,21201,12058,0,0,0
49477,21137,11966,0,0,0
49405,21066,11859,0,0,0
49327,20988,11736,0,0,0
49242,20903,11604,0,0,0
49151,20814,11467,0,0,0
49046,20717,11323,0,0,0
48930,20616,11173,0,0,0
48818,20520,11025,0,0,0
48716,20432,10881,0,0,0
48623,20349,10739,0,0,0
48538,20270,10605,0,0,0
48461,20198,10485,0,0,0
48397,20132,10380,0,0,0
48345,20076,10291,0,0,0
48305,20036,10221,0,0,0
48276,20014,10173,0,0,0
48257,20005,10145,0,0,0
48248,20003,10131,0,0,0
48243,20002,10125,0,0,0
48242,20001,10126,0,0,0
48248,20006,10135,0,0,0
48262,20020,10152,0,0,0
48282,20040,10173,0,0,0
48301,20057,10194,0,0,0
48315,20069,10215,0,0,0
48324,20078,10233,0,0,0
48328,20083,10249,0,0,0
48327,20083,10263,0,0,0
48324,20083,10272,0,0,0
48317,20081,10273,0,0,0
48299,20068,10259,0,0,0
48273,20047,10231,0,0,0
48238,20018,10190,0,0,0
48190,19975,10131,0,0,0
48132,19917,10057,0,0,0
48068,19853,9972,0,0,0
48001,19789,9876,0,0,0
47930,19723,9772,0,0,0
47853,19652,9666,0,0,0
47773,19577,9554,0,0,0
47688,19500,9430,0,0,0
47598,19417,9296,0,0,0
47508,19325,9156,0,0,0
47416,19233,9014,0,0,0
47320,19141,8869,0,0,0
47221,19046,8724,0,0,0
47121,18951,8584,0,0,0
47024,18857,8444,0,0,0
46926,18759,8300,0,0,0
46822,18655,8152,0,0,0
46714,18552,8000,0,0,0
46607,18451,7847,0,0,0
46500,18350,7695,0,0,0
46393,18249,7546,0,0,0
46285,18149,7399,0,0,0
46178,18054,7250,0,0,0
46071,17964,7101,0,0,0
45963,17873,6955,0,0,0
45855,17779,6812,0,0,0
45750,17686,6671,0,0,0
45653,17597,6534,0,0,0
45560,17509,6400,0,0,0
45467,17419,6272,0,0,0
45379,17335,6148,0,0,0
45299,17261,6031,0,0,0
45223,17194,5920,0,0,0
45147,17129,5810,0,0,0
45072,17065,5696,0,0,0
44998,17003,5581,0,0,0
44926,16946,5473,0,0,0
44857,16889,5371,0,0,0
44792,16831,5269,0,0,0
44730,16771,5167,0,0,0
44670,16711,5067,0,0,0
44610,16653,4972,0,0,0
44552,16597,4879,0,0,0
44496,16542,4786,0,0,0
44441,16486,4697,0,0,0
44385,16432,4611,0,0,0
44328,16378,4523,0,0,0
44272,16324,4434,0,0,0
44218,16269,4347,0,0,0
44163,16215,4262,0,0,0
44106,16160,4178,0,0,0
44049,16104,4096,0,0,0
43993,16052,4017,0,0,0
43940,16006,3943,0,0,0
43886,15965,3870,0,0,0
43830,15921,3794,0,0,0
43773,15873,3717,0,0,0
43721,15822,3638,0,0,0
43672,15770,3556,0,0,0
43625,15717,3474,0,0,0
43578,15663,3397,0,0,0
43533,15611,3324,0,0,0
43489,15561,3251,0,0,0
43444,15517,3180,0,0,0
43400,15480,3113,0,0,0
43354,15444,3044,0,0,0
43306,15405,2973,0,0,0
43256,15364,2905,0,0,0
43202,15318,2836,0,0,0
43144,15271,2761,0,0,0
43086,15225,2682,0,0,0
43027,15179,2605,0,0,0
42971,15134,2529,0,0,0
42913,15084,2445,0,0,0
42850,15024,2354,0,0,0
42783,14960,2264,0,0,0
42714,14893,2175,0,0,0
42642,14822,2081,0,0,0
42570,14752,1981,0,0,0
42503,14686,1879,0,0,0
42436,14623,1778,0,0,0
42368,14560,1677,0,0,0
42301,14496,1580,0,0,0
42233,14427,1483,0,0,0
42165,14356,1380,0,0,0
42096,14286,1270,0,0,0
42025,14217,1152,0,0,0
41949,14149,1038,0,0,0
41873,14082,932,0,0,0
41799,14015,831,0,0,0
41726,13946,732,0,0,0
41653,13877,635,0,0,0
41584,13815,543,0,0,0
41527,13767,465,0,0,0
41495,13743,418,0,0,0
41499,13751,417,0,0,0
41551,13802,480,0,0,0
41657,13900,621,0,0,0
41824,14051,848,0,0,0
42059,14263,1170,0,0,0
42361,14538,1581,0,0,0
42723,14872,2077,0,0,0
43134,15253,2651,0,0,0
43587,15673,3288,0,0,0
44072,16125,3971,0,0,0
44571,16593,4680,0,0,0
45067,17057,5401,0,0,0
45552,17510,6123,0,0,0
46022,17950,6830,0,0,0
46473,18365,7506,0,0,0
46894,18747,8139,0,0,0
47278,19091,8719,0,0,0
47625,19401,9243,0,0,0
47933,19676,9714,0,0,0
48201,19911,10133,0,0,0
48427,20103,10496,0,0,0
48613,20258,10802,0,0,0
48760,20381,11050,0,0,0
48870,20474,11247,0,0,0
48948,20544,11399,0,0,0
49002,20597,11511,0,0,0
49034,20632,11584,0,0,0
49046,20646,11618,0,0,0
49041,20641,11619,0,0,0
49021,20619,11593,0,0,0
48984,20581,11543,0,0,0
48929,20528,11470,0,0,0
48864,20467,11382,0,0,0
48799,20404,11287,0,0,0
48732,20340,11187,0,0,0
48660,20272,11080,0,0,0
48588,20202,10972,0,0,0
48520,20135,10869,0,0,0
48452,20072,10770,0,0,0
48386,20008,10675,0,0,0
48320,19945,10585,0,0,0
48254,19883,10497,0,0,0
48187,19822,10408,0,0,0
48119,19762,10314,0,0,0
48048,19703,10215,0,0,0
47978,19643,10112,0,0,0
47904,19576,9999,0,0,0
47823,19499,9878,0,0,0
47736,19418,9751,0,0,0
47646,19337,9626,0,0,0
47557,19257,9502,0,0,0
47470,19178,9382,0,0,0
47390,19106,9267,0,0,0
47320,19041,9160,0,0,0
47256,18984,9065,0,0,0
47203,18936,8984,0,0,0
47164,18898,8916,0,0,0
47137,18871,8860,0,0,0
47120,18852,8822,0,0,0
47112,18845,8798,0,0,0
47111,18849,8787,0,0,0
47118,18862,8791,0,0,0
47133,18881,8810,0,0,0
47155,18903,8843,0,0,0
47181,18927,8879,0,0,0
47211,18955,8920,0,0,0
47247,18987,8970,0,0,0
47286,19020,9028,0,0,0
47323,19053,9083,0,0,0
47356,19085,9134,0,0,0
47386,19113,9178,0,0,0
47414,19135,9215,0,0,0
47438,19153,9244,0,0,0
47452,19168,9266,0,0,0
47457,19176,9278,0,0,0
47455,19176,9274,0,0,0
47443,19166,9252,0,0,0
47420,19142,9213,0,0,0
47386,19104,9163,0,0,0
47345,19058,9105,0,0,0
47301,19014,9038,0,0,0
47251,18968,8961,0,0,0
47194,18915,8876,0,0,0
47136,18857,8783,0,0,0
47075,18799,8682,0,0,0
47007,18737,8575,0,0,0
46930,18667,8465,0,0,0
46843,18590,8350,0,0,0
46752,18506,8223,0,0,0
46655,18414,8084,0,0,0
46549,18316,7938,0,0,0
46442,18218,7787,0,0,0
46336,18121,7632,0,0,0
46231,18023,7474,0,0,0
46131,17925,7320,0,0,0
46033,17829,7171,0,0,0
45935,17735,7027,0,0,0
45839,17646,6889,0,0,0
45748,17563,6757,0,0,0
45662,17483,6628,0,0,0
45577,17402,6499,0,0,0
45490,17319,6373,0,0,0
45404,17237,6253,0,0,0
45325,17162,6137,0,0,0
45251,17093,6024,0,0,0
45179,17028,5915,0,0,0
45108,16967,5811,0,0,0
45040,16910,5710,0,0,0
44975,16853,5608,0,0,0
44909,16793,5508,0,0,0
44843,16735,5414,0,0,0
44779,16681,5321,0,0,0
44714,16628,5229,0,0,0
44656,16578,5142,0,0,0
44607,16534,5064,0,0,0
44563,16494,4988,0,0,0
44517,16454,4910,0,0,0
44469,16412,4837,0,0,0
44424,16373,4771,0,0,0
44384,16338,4710,0,0,0
44346,16304,4652,0,0,0
44315,16272,4598,0,0,0
44289,16244,4545,0,0,0
44265,16217,4489,0,0,0
44238,16193,4433,0,0,0
44210,16167,4380,0,0,0
44183,16141,4332,0,0,0
44155,16114,4283,0,0,0
44123,16084,4229,0,0,0
44089,16054,4174,0,0,0
44057,16030,4121,0,0,0
44024,16009,4069,0,0,0
43990,15988,4018,0,0,0
43955,15966,3967,0,0,0
43923,15944,3917,0,0,0
43890,15918,3864,0,0,0
43851,15885,3807,0,0,0
43809,15850,3747,0,0,0
43768,15814,3684,0,0,0
43727,15777,3619,0,0,0
43683,15736,3554,0,0,0
43638,15693,3486,0,0,0
43593,15647,3417,0,0,0
43547,15600,3347,0,0,0
43497,15552,3279,0,0,0
43447,15505,3213,0,0,0
43394,15458,3144,0,0,0
43336,15407,3066,0,0,0
43273,15352,2983,0,0,0
43210,15294,2897,0,0,0
43146,15233,2806,0,0,0
43077,15166,2705,0,0,0
43004,15093,2601,0,0,0
42931,15021,2496,0,0,0
42858,14952,2392,0,0,0
42783,14886,2287,0,0,0
42712,14827,2184,0,0,0
42651,14776,2090,0,0,0
42598,14733,2008,0,0,0
42553,14695,1940,0,0,0
42520,14665,1892,0,0,0
42507,14650,1870,0,0,0
42523,14664,1883,0,0,0
42574,14714,1949,0,0,0
42666,14803,2081,0,0,0
42810,14939,2284,0,0,0
43015,15128,2561,0,0,0
43282,15369,2918,0,0,0
43608,15659,3360,0,0,0
43987,15994,3877,0,0,0
44407,16368,4456,0,0,0
44854,16771,5085,0,0,0
45315,17193,5749,0,0,0
45779,17623,6430,0,0,0
46240,18053,7113,0,0,0
46688,18471,7780,0,0,0
47114,18870,8423,0,0,0
47516,19247,9031,0,0,0
47886,19594,9596,0,0,0
48220,19906,10114,0,0,0
48515,20183,10577,0,0,0
48767,20424,10983,0,0,0
48978,20624,11326,0,0,0
49148,20781,11603,0,0,0
49279,20898,11817,0,0,0
49377,20982,11977,0,0,0
49440,21035,12084,0,0,0
49471,21061,12144,0,0,0
49479,21065,12169,0,0,0
49468,21051,12169,0,0,0
49439,21022,12142,0,0,0
49396,20979,12093,0,0,0
49347,20928,12028,0,0,0
49293,20876,11955,0,0,0
49234,20824,11873,0,0,0
49172,20769,11784,0,0,0
49110,20712,11692,0,0,0
49052,20658,11600,0,0,0
48994,20605,11508,0,0,0
48936,20553,11417,0,0,0
48881,20506,11331,0,0,0
48825,20462,11251,0,0,0
48763,20413,11169,0,0,0
48697,20358,11079,0,0,0
48629,20300,10985,0,0,0
48561,20241,10889,0,0,0
48492,20180,10787,0,0,0
48419,20113,10675,0,0,0
48341,20042,10554,0,0,0
48259,19964,10424,0,0,0
48173,19877,10284,0,0,0
48083,19786,10140,0,0,0
47997,19698,10002,0,0,0
47913,19615,9869,0,0,0
47833,19539,9748,0,0,0
47762,19477,9645,0,0,0
47700,19427,9561,0,0,0
47646,19386,9491,0,0,0
47607,19354,9438,0,0,0
47585,19336,9404,0,0,0
47580,19334,9389,0,0,0
47590,19346,9393,0,0,0
47609,19367,9413,0,0,0
47636,19393,9443,0,0,0
47671,19427,9481,0,0,0
47715,19467,9529,0,0,0
47762,19512,9584,0,0,0
47813,19563,9647,0,0,0
47864,19616,9710,0,0,0
47908,19662,9767,0,0,0
47941,19698,9816,0,0,0
47963,19724,9857,0,0,0
47978,19746,9887,0,0,0
47987,19762,9906,0,0,0
47990,19770,9914,0,0,0
47990,19767,9914,0,0,0
47987,19756,9904,0,0,0
47973,19734,9883,0,0,0
47947,19700,9850,0,0,0
47912,19659,9806,0,0,0
47872,19615,9749,0,0,0
47821,19564,9679,0,0,0
47757,19504,9600,0,0,0
47688,19440,9516,0,0,0
47619,19377,9424,0,0,0
47548,19311,9323,0,0,0
47472,19243,9212,0,0,0
47394,19173,9092,0,0,0
47312,19100,8963,0,0,0
47223,19021,8827,0,0,0
47126,18935,8687,0,0,0
47022,18846,8539,0,0,0
46913,18754,8385,0,0,0
46802,18657,8231,0,0,0
46694,18557,8080,0,0,0
46592,18458,7931,0,0,0
46495,18361,7781,0,0,0
46398,18267,7630,0,0,0
46302,18178,7478,0,0,0
46206,18092,7326,0,0,0
46109,18004,7176,0,0,0
46011,17913,7029,0,0,0
45917,17826,6889,0,0,0
45826,17743,6756,0,0,0
45736,17657,6621,0,0,0
45649,17570,6488,0,0,0
45566,17487,6366,0,0,0
45484,17410,6249,0,0,0
45401,17335,6133,0,0,0
45320,17264,6021,0,0,0
45244,17198,5917,0,0,0
45179,17139,5819,0,0,0
45121,17084,5725,0,0,0
45061,17027,5634,0,0,0
45002,16972,5546,0,0,0
44948,16920,5458,0,0,0
44894,16870,5370,0,0,0
44841,16823,5287,0,0,0
44790,16782,5210,0,0,0
44741,16741,5137,0,0,0
44690,16698,5064,0,0,0
44639,16652,4994,0,0,0
44591,16610,4926,0,0,0
44548,16570,4860,0,0,0
44507,16531,4794,0,0,0
44467,16491,4725,0,0,0
44430,16457,4654,0,0,0
44396,16429,4585,0,0,0
44361,16401,4520,0,0,0
44323,16371,4459,0,0,0
44287,16341,4405,0,0,0
44251,16315,4356,0,0,0
44212,16290,4309,0,0,0
44176,16268,4268,0,0,0
44145,16246,4229,0,0,0
44116,16219,4185,0,0,0
44080,16187,4134,0,0,0
44037,16152,4078,0,0,0
43991,16111,4017,0,0,0
43941,16063,3950,0,0,0
43887,16009,3882,0,0,0
43834,15956,3814,0,0,0
43782,15905,3743,0,0,0
43728,15856,3665,0,0,0
43670,15804,3581,0,0,0
43606,15750,3494,0,0,0
43538,15698,3405,0,0,0
43473,15648,3315,0,0,0
43411,15599,3226,0,0,0
43351,15548,3141,0,0,0
43293,15497,3055,0,0,0
43236,15448,2965,0,0,0
43177,15395,2873,0,0,0
43117,15338,2780,0,0,0
43058,15280,2690,0,0,0
43000,15223,2604,0,0,0
42946,15171,2529,0,0,0
42905,15129,2473,0,0,0
42884,15109,2439,0,0,0
42891,15117,2440,0,0,0
42936,15162,2498,0,0,0
43031,15250,2629,0,0,0
43178,15385,2834,0,0,0
43383,15571,3116,0,0,0
43648,15806,3478,0,0,0
43970,16090,3918,0,0,0
44344,16425,4429,0,0,0
44758,16802,4999,0,0,0
45198,17204,5616,0,0,0
45656,17625,6269,0,0,0
46121,18058,6944,0,0,0
46583,18492,7624,0,0,0
47037,18916,8301,0,0,0
47474,19323,8960,0,0,0
47884,19704,9582,0,0,0
48261,20054,10160,0,0,0
48606,20375,10694,0,0,0
48917,20665,11181,0,0,0
49186,20917,11612,0,0,0
49414,21130,11982,0,0,0
49606,21308,12290,0,0,0
49762,21453,12542,0,0,0
49882,21565,12740,0,0,0
49966,21641,12887,0,0,0
50016,21685,12987,0,0,0
50041,21705,13047,0,0,0
50045,21705,13070,0,0,0
50032,21690,13063,0,0,0
50004,21665,13034,0,0,0
49962,21631,12984,0,0,0
49911,21589,12918,0,0,0
49854,21538,12840,0,0,0
49799,21484,12758,0,0,0
49748,21433,12676,0,0,0
49698,21384,12591,0,0,0
49646,21333,12500,0,0,0
49593,21283,12410,0,0,0
49544,21237,12330,0,0,0
49495,21190,12257,0,0,0
49444,21142,12187,0,0,0
49390,21092,12118,0,0,0
49330,21041,12044,0,0,0
49261,20984,11960,0,0,0
49190,20923,11864,0,0,0
49118,20857,11761,0,0,0
49042,20784,11649,0,0,0
48957,20703,11523,0,0,0
48864,20617,11387,0,0,0
48767,20528,11244,0,0,0
48667,20436,11096,0,0,0
48564,20342,10945,0,0,0
48465,20250,10800,0,0,0
48377,20163,10667,0,0,0
48298,20082,10547,0,0,0
48230,20011,10442,0,0,0
48178,19956,10356,0,0,0
48143,19921,10295,0,0,0
48123,19903,10254,0,0,0
48113,19894,10227,0,0,0
48111,19892,10211,0,0,0
48116,19902,10210,0,0,0
48130,19923,10226,0,0,0
48153,19950,10257,0,0,0
48182,19980,10294,0,0,0
48215,20012,10335,0,0,0
48249,20045,10378,0,0,0
48280,20074,10422,0,0,0
48307,20099,10457,0,0,0
48329,20119,10484,0,0,0
48347,20134,10503,0,0,0
48359,20144,10515,0,0,0
48368,20149,10525,0,0,0
48373,20152,10527,0,0,0
48370,20151,10518,0,0,0
48359,20145,10499,0,0,0
48341,20131,10473,0,0,0
48314,20113,10442,0,0,0
48280,20089,10401,0,0,0
48236,20053,10344,0,0,0
48186,20006,10271,0,0,0
48131,19955,10190,0,0,0
48070,19898,10102,0,0,0
48000,19835,10003,0,0,0
47925,19767,9895,0,0,0
47844,19695,9780,0,0,0
47757,19619,9658,0,0,0
47666,19539,9535,0,0,0
47576,19457,9411,0,0,0
47485,19372,9282,0,0,0
47385,19282,9145,0,0,0
47277,19186,9004,0,0,0
47169,19089,8862,0,0,0
47066,18992,8721,0,0,0
46964,18895,8576,0,0,0
46860,18796,8428,0,0,0
46758,18699,8280,0,0,0
46663,18609,8134,0,0,0
46572,18524,7989,0,0,0
46483,18440,7844,0,0,0
46396,18358,7703,0,0,0
46311,18280,7569,0,0,0
46226,18204,7440,0,0,0
46143,18129,7318,0,0,0
46067,18061,7204,0,0,0
45995,17995,7096,0,0,0
45925,17929,6991,0,0,0
45856,17862,6894,0,0,0
45788,17799,6799,0,0,0
45720,17736,6701,0,0,0
45650,17673,6599,0,0,0
45580,17610,6497,0,0,0
45510,17550,6396,0,0,0
45443,17490,6297,0,0,0
45378,17430,6200,0,0,0
45313,17370,6103,0,0,0
45250,17313,6004,0,0,0
45190,17260,5907,0,0,0
45133,17210,5816,0,0,0
45081,17164,5734,0,0,0
45037,17123,5660,0,0,0
44995,17082,5586,0,0,0
44950,17041,5510,0,0,0
44902,17000,5437,0,0,0
44851,16960,5365,0,0,0
44799,16917,5293,0,0,0
44748,16871,5222,0,0,0
44699,16823,5152,0,0,0
44651,16776,5082,0,0,0
44605,16734,5013,0,0,0
44562,16699,4951,0,0,0
44521,16669,4894,0,0,0
44480,16637,4828,0,0,0
44438,16599,4755,0,0,0
44395,16557,4681,0,0,0
44352,16511,4610,0,0,0
44308,16462,4537,0,0,0
44263,16412,4462,0,0,0
44219,16366,4392,0,0,0
44177,16329,4328,0,0,0
44139,16302,4266,0,0,0
44102,16274,4204,0,0,0
44059,16240,4142,0,0,0
44013,16203,4079,0,0,0
43967,16166,4013,0,0,0
43919,16124,3942,0,0,0
43867,16077,3866,0,0,0
43811,16030,3787,0,0,0
43752,15983,3706,0,0,0
43691,15934,3627,0,0,0
43635,15886,3554,0,0,0
43586,15840,3483,0,0,0
43538,15796,3408,0,0,0
43488,15747,3330,0,0,0
43434,15693,3252,0,0,0
43377,15636,3171,0,0,0
43315,15577,3083,0,0,0
43249,15513,2990,0,0,0
43181,15451,2899,0,0,0
43114,15393,2810,0,0,0
43047,15337,2718,0,0,0
42985,15284,2630,0,0,0
42940,15245,2564,0,0,0
42924,15233,2537,0,0,0
42948,15258,2565,0,0,0
43018,15324,2661,0,0,0
43143,15442,2836,0,0,0
43333,15620,3096,0,0,0
43584,15853,3441,0,0,0
43893,16140,3872,0,0,0
44260,16482,4388,0,0,0
44678,16873,4977,0,0,0
45138,17302,5625,0,0,0
45628,17754,6319,0,0,0
46135,18216,7042,0,0,0
46642,18675,7775,0,0,0
47137,19126,8501,0,0,0
47615,19563,9211,0,0,0
48066,19979,9892,0,0,0
48485,20365,10532,0,0,0
48868,20720,11123,0,0,0
49216,21041,11662,0,0,0
49529,21330,12146,0,0,0
49803,21583,12574,0,0,0
50039,21799,12944,0,0,0
50240,21982,13262,0,0,0
50410,22134,13529,0,0,0
50544,22254,13744,0,0,0
50644,22344,13910,0,0,0
50714,22406,14031,0,0,0
50753,22445,14113,0,0,0
50766,22464,14159,0,0,0
50760,22464,14172,0,0,0
50740,22452,14159,0,0,0
50711,22429,14130,0,0,0
50674,22397,14088,0,0,0
50633,22359,14036,0,0,0
50594,22320,13982,0,0,0
50556,22283,13928,0,0,0
50519,22246,13871,0,0,0
50481,22211,13812,0,0,0
50443,22176,13752,0,0,0
50407,22144,13693,0,0,0
50370,22110,13636,0,0,0
50329,22072,13574,0,0,0
50285,22027,13506,0,0,0
50239,21977,13433,0,0,0
50188,21921,13355,0,0,0
50129,21856,13264,0,0,0
50062,21784,13160,0,0,0
49988,21705,13049,0,0,0
49905,21621,12933,0,0,0
49818,21535,12811,0,0,0
49732,21452,12682,0,0,0
49647,21373,12550,0,0,0
49561,21295,12415,0,0,0
49473,21217,12280,0,0,0
49391,21140,12148,0,0,0
49316,21068,12024,0,0,0
49248,21003,11909,0,0,0
49187,20947,11804,0,0,0
49137,20902,11717,0,0,0
49098,20869,11649,0,0,0
49071,20845,11601,0,0,0
49054,20833,11572,0,0,0
49049,20835,11559,0,0,0
49055,20850,11561,0,0,0
49069,20872,11576,0,0,0
49090,20895,11603,0,0,0
49117,20922,11640,0,0,0
49148,20951,11682,0,0,0
49182,20983,11728,0,0,0
49217,21016,11775,0,0,0
49251,21050,11821,0,0,0
49282,21083,11862,0,0,0
49306,21113,11893,0,0,0
49322,21136,11913,0,0,0
49328,21150,11923,0,0,0
49326,21153,11923,0,0,0
49313,21145,11910,0,0,0
49293,21127,11885,0,0,0
49269,21105,11850,0,0,0
49241,21074,11804,0,0,0
49210,21034,11747,0,0,0
49175,20989,11680,0,0,0
49135,20941,11600,0,0,0
49087,20885,11505,0,0,0
49027,20814,11397,0,0,0
48956,20732,11278,0,0,0
48877,20647,11155,0,0,0
48792,20561,11030,0,0,0
48708,20476,10905,0,0,0
48628,20394,10779,0,0,0
48549,20315,10655,0,0,0
48465,20236,10529,0,0,0
48378,20155,10401,0,0,0
48290,20073,10271,0,0,0
48199,19992,10139,0,0,0
48106,19910,10006,0,0,0
48011,19825,9867,0,0,0
47915,19737,9723,0,0,0
47818,19649,9577,0,0,0
47725,19565,9434,0,0,0
47635,19482,9299,0,0,0
47548,19400,9175,0,0,0
47465,19322,9055,0,0,0
47386,19247,8938,0,0,0
47310,19173,8820,0,0,0
47234,19100,8701,0,0,0
47158,19031,8582,0,0,0
47082,18964,8465,0,0,0
47005,18894,8356,0,0,0
46929,18827,8255,0,0,0
46857,18764,8156,0,0,0
46789,18702,8056,0,0,0
46725,18640,7960,0,0,0
46663,18581,7866,0,0,0
46602,18528,7773,0,0,0
46542,18478,7683,0,0,0
46486,18427,7596,0,0,0
46436,18379,7512,0,0,0
46393,18335,7430,0,0,0
46351,18290,7349,0,0,0
46310,18245,7274,0,0,0
46270,18207,7206,0,0,0
46235,18172,7138,0,0,0
46198,18136,7066,0,0,0
46160,18100,6992,0,0,0
46121,18062,6916,0,0,0
46081,18023,6838,0,0,0
46041,17981,6764,0,0,0
46000,17943,6697,0,0,0
45962,17913,6636,0,0,0
45926,17885,6578,0,0,0
45888,17855,6524,0,0,0
45849,17822,6474,0,0,0
45813,17791,6425,0,0,0
45775,17757,6371,0,0,0
45729,17718,6313,0,0,0
45681,17676,6253,0,0,0
45626,17630,6184,0,0,0
45566,17575,6105,0,0,0
45507,17517,6022,0,0,0
45448,17461,5940,0,0,0
45389,17407,5855,0,0,0
45332,17355,5772,0,0,0
45276,17303,5693,0,0,0
45219,17253,5613,0,0,0
45160,17204,5529,0,0,0
45104,17158,5447,0,0,0
45054,17116,5369,0,0,0
45007,17074,5291,0,0,0
44962,17028,5211,0,0,0
44913,16972,5127,0,0,0
44859,16913,5042,0,0,0
44801,16855,4954,0,0,0
44741,16799,4866,0,0,0
44680,16745,4779,0,0,0
44619,16690,4693,0,0,0
44558,16635,4604,0,0,0
44498,16579,4512,0,0,0
44435,16519,4414,0,0,0
44371,16458,4314,0,0,0
44312,16401,4214,0,0,0
44252,16345,4112,0,0,0
44187,16283,4006,0,0,0
44116,16216,3901,0,0,0
44042,16148,3799,0,0,0
43966,16077,3697,0,0,0
43887,16000,3593,0,0,0
43806,15920,3487,0,0,0
43730,15845,3381,0,0,0
43659,15778,3278,0,0,0
43595,15718,3183,0,0,0
43543,15669,3106,0,0,0
43510,15637,3054,0,0,0
43507,15631,3036,0,0,0
43537,15658,3067,0,0,0
43608,15730,3161,0,0,0
43731,15854,3329,0,0,0
43918,16033,3582,0,0,0
44172,16265,3926,0,0,0
44488,16551,4359,0,0,0
44859,16892,4877,0,0,0
45278,17281,5473,0,0,0
45737,17707,6137,0,0,0
46226,18158,6849,0,0,0
46733,18624,7587,0,0,0
47245,19092,8333,0,0,0
47750,19551,9073,0,0,0
48241,19996,9798,0,0,0
48708,20423,10497,0,0,0
49140,20824,11156,0,0,0
49532,21191,11769,0,0,0
49889,21525,12334,0,0,0
50212,21828,12849,0,0,0
50495,22095,13310,0,0,0
50738,22323,13709,0,0,0
50942,22510,14047,0,0,0
51110,22659,14323,0,0,0
51238,22771,14540,0,0,0
51331,22848,14702,0,0,0
51396,22898,14817,0,0,0
51436,22926,14891,0,0,0
51453,22932,14927,0,0,0
51450,22921,14932,0,0,0
51430,22900,14915,0,0,0
51397,22872,14879,0,0,0
51351,22839,14827,0,0,0
51297,22803,14765,0,0,0
51240,22764,14698,0,0,0
51184,22720,14627,0,0,0
51127,22669,14548,0,0,0
51067,22610,14462,0,0,0
51002,22545,14372,0,0,0
50935,22476,14279,0,0,0
50867,22408,14183,0,0,0
50806,22348,14093,0,0,0
50752,22294,14011,0,0,0
50696,22242,13929,0,0,0
50633,22182,13840,0,0,0
50563,22112,13743,0,0,0
50489,22041,13640,0,0,0
50409,21969,13530,0,0,0
50323,21893,13408,0,0,0
50231,21812,13275,0,0,0
50137,21726,13133,0,0,0
50037,21637,12984,0,0,0
49933,21543,12829,0,0,0
49826,21449,12674,0,0,0
49724,21360,12529,0,0,0
49631,21276,12397,0,0,0
49546,21199,12275,0,0,0
49468,21130,12163,0,0,0
49396,21072,12064,0,0,0
49335,21024,11978,0,0,0
49289,20985,11911,0,0,0
49260,20956,11864,0,0,0
49243,20937,11835,0,0,0
49235,20928,11814,0,0,0
49236,20930,11802,0,0,0
49247,20939,11803,0,0,0
49261,20950,11816,0,0,0
49274,20961,11836,0,0,0
49291,20974,11863,0,0,0
49315,20989,11892,0,0,0
49337,21000,11915,0,0,0
49355,21006,11933,0,0,0
49370,21010,11946,0,0,0
49381,21011,11949,0,0,0
49381,21007,11940,0,0,0
49373,20998,11924,0,0,0
49359,20984,11904,0,0,0
49339,20965,11878,0,0,0
49309,20938,11840,0,0,0
49267,20901,11788,0,0,0
49218,20858,11724,0,0,0
49168,20814,11652,0,0,0
49112,20765,11569,0,0,0
49049,20706,11475,0,0,0
48978,20640,11370,0,0,0
48897,20564,11254,0,0,0
48804,20480,11126,0,0,0
48702,20390,10989,0,0,0
48595,20299,10848,0,0,0
48489,20206,10706,0,0,0
48381,20103,10558,0,0,0
48271,19994,10403,0,0,0
48159,19885,10243,0,0,0
48045,19776,10082,0,0,0
47933,19668,9920,0,0,0
47824,19562,9761,0,0,0
47719,19458,9604,0,0,0
47614,19358,9449,0,0,0
47504,19259,9295,0,0,0
47391,19159,9141,0,0,0
47277,19054,8988,0,0,0
47167,18951,8834,0,0,0
47063,18854,8684,0,0,0
46964,18762,8539,0,0,0
46870,18675,8401,0,0,0
46777,18590,8268,0,0,0
46683,18507,8139,0,0,0
46590,18429,8012,0,0,0
46501,18354,7885,0,0,0
46419,18283,7759,0,0,0
46343,18213,7637,0,0,0
46269,18146,7525,0,0,0
46201,18081,7419,0,0,0
46135,18018,7312,0,0,0
46067,17957,7205,0,0,0
46002,17896,7106,0,0,0
45944,17838,7011,0,0,0
45886,17781,6913,0,0,0
45828,17721,6812,0,0,0
45770,17662,6713,0,0,0
45715,17606,6619,0,0,0
45660,17549,6526,0,0,0
45603,17492,6435,0,0,0
45547,17437,6346,0,0,0
45494,17386,6261,0,0,0
45442,17338,6182,0,0,0
45390,17288,6105,0,0,0
45340,17237,6033,0,0,0
45290,17186,5964,0,0,0
45240,17137,5895,0,0,0
45191,17090,5829,0,0,0
45148,17050,5768,0,0,0
45107,17016,5706,0,0,0
45064,16983,5637,0,0,0
45018,16949,5567,0,0,0
44976,16917,5501,0,0,0
44938,16885,5434,0,0,0
44897,16849,5363,0,0,0
44853,16809,5290,0,0,0
44807,16768,5215,0,0,0
44759,16724,5133,0,0,0
44707,16673,5048,0,0,0
44653,16617,4961,0,0,0
44596,16556,4874,0,0,0
44534,16489,4784,0,0,0
44467,16419,4692,0,0,0
44399,16351,4599,0,0,0
44329,16288,4505,0,0,0
44261,16229,4410,0,0,0
44194,16172,4317,0,0,0
44127,16120,4229,0,0,0
44066,16071,4143,0,0,0
44008,16016,4053,0,0,0
43948,15956,3959,0,0,0
43888,15894,3865,0,0,0
43828,15832,3772,0,0,0
43766,15772,3681,0,0,0
43700,15714,3591,0,0,0
43630,15655,3505,0,0,0
43561,15594,3421,0,0,0
43491,15528,3330,0,0,0
43418,15461,3232,0,0,0
43346,15395,3127,0,0,0
43275,15331,3018,0,0,0
43203,15265,2906,0,0,0
43126,15195,2795,0,0,0
43044,15122,2683,0,0,0
42962,15047,2565,0,0,0
42880,14971,2441,0,0,0
42797,14891,2319,0,0,0
42712,14812,2201,0,0,0
42629,14734,2083,0,0,0
42551,14658,1967,0,0,0
42477,14589,1858,0,0,0
42410,14530,1766,0,0,0
42357,14486,1696,0,0,0
42327,14463,1655,0,0,0
42330,14467,1660,0,0,0
42376,14513,1729,0,0,0
42477,14608,1870,0,0,0
42640,14757,2089,0,0,0
42867,14962,2397,0,0,0
43159,15227,2793,0,0,0
43512,15549,3272,0,0,0
43918,15915,3824,0,0,0
44364,16316,4440,0,0,0
44841,16746,5110,0,0,0
45340,17199,5817,0,0,0
45847,17661,6541,0,0,0
46345,18118,7267,0,0,0
46825,18560,7982,0,0,0
47282,18983,8672,0,0,0
47710,19383,9327,0,0,0
48106,19750,9943,0,0,0
48467,20083,10511,0,0,0
48793,20383,11026,0,0,0
49081,20646,11482,0,0,0
49328,20871,11879,0,0,0
49536,21058,12215,0,0,0
49709,21209,12488,0,0,0
49845,21327,12698,0,0,0
49940,21411,12846,0,0,0
49998,21466,12944,0,0,0
50026,21494,13002,0,0,0
50026,21496,13025,0,0,0
50000,21476,13018,0,0,0
49959,21443,12988,0,0,0
49909,21399,12935,0,0,0
49852,21345,12862,0,0,0
49792,21285,12774,0,0,0
49729,21222,12678,0,0,0
49661,21156,12577,0,0,0
49587,21087,12472,0,0,0
49511,21019,12367,0,0,0
49438,20958,12269,0,0,0
49375,20907,12182,0,0,0
49322,20861,12101,0,0,0
49275,20817,12024,0,0,0
49233,20775,11950,0,0,0
49191,20732,11874,0,0,0
49143,20683,11789,0,0,0
49089,20628,11696,0,0,0
49030,20568,11595,0,0,0
48959,20498,11481,0,0,0
48874,20415,11354,0,0,0
48779,20321,11217,0,0,0
48677,20225,11077,0,0,0
48573,20131,10935,0,0,0
48468,20036,10792,0,0,0
48369,19947,10656,0,0,0
48280,19869,10532,0,0,0
48203,19801,10422,0,0,0
48136,19737,10323,0,0,0
48080,19682,10236,0,0,0
48037,19642,10164,0,0,0
48006,19616,10110,0,0,0
47989,19602,10074,0,0,0
47985,19602,10054,0,0,0
47995,19615,10054,0,0,0
48019,19642,10074,0,0,0
48052,19678,10115,0,0,0
48093,19719,10170,0,0,0
48139,19764,10232,0,0,0
48184,19807,10294,0,0,0
48227,19845,10353,0,0,0
48268,19878,10412,0,0,0
48304,19907,10469,0,0,0
48333,19934,10519,0,0,0
48355,19955,10558,0,0,0
48372,19971,10586,0,0,0
48382,19982,10604,0,0,0
48380,19983,10606,0,0,0
48368,19974,10593,0,0,0
48349,19958,10570,0,0,0
48325,19936,10537,0,0,0
48295,19906,10490,0,0,0
48252,19868,10429,0,0,0
48200,19824,10356,0,0,0
48145,19777,10275,0,0,0
48089,19724,10184,0,0,0
48026,19664,10085,0,0,0
47957,19600,9981,0,0,0
47882,19530,9877,0,0,0
47801,19453,9766,0,0,0
47718,19370,9647,0,0,0
47633,19285,9521,0,0,0
47545,19197,9386,0,0,0
47451,19106,9246,0,0,0
47353,19014,9105,0,0,0
47251,18923,8962,0,0,0
47148,18831,8817,0,0,0
47048,18740,8674,0,0,0
46958,18654,8532,0,0,0
46875,18572,8390,0,0,0
46794,18489,8248,0,0,0
46710,18403,8106,0,0,0
46623,18316,7966,0,0,0
46535,18232,7831,0,0,0
46445,18145,7695,0,0,0
46354,18058,7558,0,0,0
46266,17977,7424,0,0,0
46178,17901,7298,0,0,0
46090,17824,7178,0,0,0
46001,17747,7063,0,0,0
45917,17674,6952,0,0,0
45837,17606,6845,0,0,0
45765,17545,6743,0,0,0
45701,17488,6647,0,0,0
45641,17434,6555,0,0,0
45581,17382,6463,0,0,0
45521,17329,6367,0,0,0
45462,17272,6274,0,0,0
45408,17219,6188,0,0,0
45360,17174,6109,0,0,0
45316,17135,6034,0,0,0
45273,17100,5963,0,0,0
45228,17066,5897,0,0,0
45184,17034,5831,0,0,0
45145,17000,5768,0,0,0
45112,16967,5707,0,0,0
45080,16933,5643,0,0,0
45049,16898,5576,0,0,0
45018,16864,5513,0,0,0
44989,16834,5458,0,0,0
44961,16807,5403,0,0,0
44930,16780,5345,0,0,0
44896,16746,5290,0,0,0
44857,16709,5237,0,0,0
44817,16670,5181,0,0,0
44774,16628,5120,0,0,0
44728,16581,5059,0,0,0
44682,16536,5000,0,0,0
44640,16497,4939,0,0,0
44598,16462,4875,0,0,0
44557,16428,4814,0,0,0
44517,16393,4753,0,0,0
44475,16359,4685,0,0,0
44433,16326,4616,0,0,0
44388,16291,4551,0,0,0
44343,16255,4487,0,0,0
44298,16215,4418,0,0,0
44250,16167,4343,0,0,0
44199,16116,4264,0,0,0
44150,16067,4187,0,0,0
44104,16023,4111,0,0,0
44058,15979,4032,0,0,0
44006,15930,3953,0,0,0
43943,15873,3869,0,0,0
43872,15809,3776,0,0,0
43799,15740,3678,0,0,0
43724,15667,3578,0,0,0
43651,15594,3479,0,0,0
43580,15524,3379,0,0,0
43508,15455,3279,0,0,0
43436,15387,3179,0,0,0
43365,15322,3077,0,0,0
43294,15259,2971,0,0,0
43224,15195,2866,0,0,0
43157,15135,2768,0,0,0
43102,15092,2691,0,0,0
43070,15078,2650,0,0,0
43076,15101,2661,0,0,0
43135,15166,2738,0,0,0
43255,15282,2891,0,0,0
43441,15452,3128,0,0,0
43689,15677,3451,0,0,0
43996,15953,3859,0,0,0
44357,16276,4343,0,0,0
44759,16634,4889,0,0,0
45191,17018,5483,0,0,0
45641,17425,6118,0,0,0
46103,17851,6786,0,0,0
46568,18284,7467,0,0,0
47027,18710,8147,0,0,0
47473,19121,8815,0,0,0
47903,19511,9461,0,0,0
48308,19873,10071,0,0,0
48678,20203,10636,0,0,0
49010,20499,11148,0,0,0
49305,20760,11606,0,0,0
49561,20991,12009,0,0,0
49780,21191,12352,0,0,0
49958,21358,12636,0,0,0
50096,21490,12864,0,0,0
50193,21585,13038,0,0,0
50254,21650,13161,0,0,0
50283,21687,13235,0,0,0
50290,21700,13266,0,0,0
50277,21692,13263,0,0,0
50245,21665,13234,0,0,0
50199,21625,13182,0,0,0
50145,21573,13110,0,0,0
50083,21513,13023,0,0,0
50015,21450,12929,0,0,0
49943,21386,12831,0,0,0
49867,21319,12727,0,0,0
49787,21248,12618,0,0,0
49706,21176,12509,0,0,0
49630,21109,12408,0,0,0
49560,21046,12310,0,0,0
49493,20986,12211,0,0,0
49427,20926,12113,0,0,0
49363,20868,12016,0,0,0
49299,20811,11918,0,0,0
49232,20755,11816,0,0,0
49165,20697,11708,0,0,0
49093,20633,11593,0,0,0
49013,20559,11468,0,0,0
48924,20477,11336,0,0,0
48831,20389,11201,0,0,0
48735,20300,11063,0,0,0
48642,20211,10926,0,0,0
48552,20125,10792,0,0,0
48468,20044,10664,0,0,0
48394,19972,10542,0,0,0
48330,19912,10432,0,0,0
48274,19862,10336,0,0,0
48230,19822,10258,0,0,0
48202,19791,10198,0,0,0
48189,19773,10157,0,0,0
48188,19769,10136,0,0,0
48198,19777,10133,0,0,0
48220,19800,10148,0,0,0
48246,19832,10177,0,0,0
48276,19869,10218,0,0,0
48309,19906,10268,0,0,0
48342,19939,10318,0,0,0
48373,19969,10365,0,0,0
48404,19993,10411,0,0,0
48434,20016,10456,0,0,0
48458,20039,10500,0,0,0
48477,20055,10533,0,0,0
48496,20064,10557,0,0,0
48513,20070,10577,0,0,0
48524,20072,10588,0,0,0
48527,20070,10588,0,0,0
48522,20065,10579,0,0,0
48509,20054,10558,0,0,0
48486,20032,10522,0,0,0
48450,19996,10468,0,0,0
48404,19950,10396,0,0,0
48350,19897,10311,0,0,0
48285,19838,10216,0,0,0
48209,19774,10111,0,0,0
48127,19705,9997,0,0,0
48043,19635,9876,0,0,0
47955,19563,9748,0,0,0
47862,19484,9615,0,0,0
47764,19396,9476,0,0,0
47667,19305,9335,0,0,0
47572,19215,9196,0,0,0
47478,19124,9058,0,0,0
47382,19030,8918,0,0,0
47286,18934,8777,0,0,0
47189,18841,8633,0,0,0
47089,18747,8486,0,0,0
46987,18653,8336,0,0,0
46884,18556,8182,0,0,0
46781,18460,8029,0,0,0
46682,18369,7882,0,0,0
46592,18287,7744,0,0,0
46508,18209,7610,0,0,0
46425,18132,7478,0,0,0
46344,18056,7350,0,0,0
46265,17980,7226,0,0,0
46187,17908,7108,0,0,0
46111,17843,6999,0,0,0
46040,17782,6899,0,0,0
45974,17725,6805,0,0,0
45911,17669,6711,0,0,0
45847,17613,6613,0,0,0
45786,17561,6518,0,0,0
45726,17510,6428,0,0,0
45665,17457,6339,0,0,0
45603,17401,6250,0,0,0
45540,17342,6163,0,0,0
45477,17281,6075,0,0,0
45417,17223,5983,0,0,0
45359,17168,5889,0,0,0
45303,17114,5797,0,0,0
45253,17060,5713,0,0,0
45209,17011,5634,0,0,0
45164,16962,5554,0,0,0
45115,16912,5475,0,0,0
45066,16866,5400,0,0,0
45018,16821,5329,0,0,0
44968,16776,5260,0,0,0
44919,16733,5192,0,0,0
44873,16696,5122,0,0,0
44830,16665,5051,0,0,0
44789,16634,4983,0,0,0
44750,16604,4921,0,0,0
44712,16576,4865,0,0,0
44671,16548,4807,0,0,0
44625,16517,4749,0,0,0
44580,16481,4692,0,0,0
44536,16443,4633,0,0,0
44494,16403,4570,0,0,0
44449,16361,4510,0,0,0
44403,16321,4450,0,0,0
44355,16283,4386,0,0,0
44307,16245,4318,0,0,0
44261,16204,4253,0,0,0
44217,16165,4190,0,0,0
44171,16125,4124,0,0,0
44123,16085,4054,0,0,0
44072,16045,3984,0,0,0
44016,16000,3912,0,0,0
43958,15949,3834,0,0,0
43899,15893,3749,0,0,0
43837,15835,3660,0,0,0
43773,15776,3567,0,0,0
43708,15716,3470,0,0,0
43642,15654,3370,0,0,0
43575,15590,3270,0,0,0
43503,15523,3167,0,0,0
43425,15454,3056,0,0,0
43347,15384,2943,0,0,0
43276,15316,2834,0,0,0
43210,15253,2738,0,0,0
43153,15201,2656,0,0,0
43114,15166,2600,0,0,0
43100,15157,2580,0,0,0
43128,15185,2613,0,0,0
43203,15255,2711,0,0,0
43330,15374,2887,0,0,0
43516,15547,3146,0,0,0
43761,15775,3489,0,0,0
44060,16056,3912,0,0,0
44411,16388,4415,0,0,0
44807,16762,4987,0,0,0
45238,17167,5607,0,0,0
45694,17592,6259,0,0,0
46160,18023,6933,0,0,0
46626,18451,7618,0,0,0
47085,18872,8300,0,0,0
47532,19282,8962,0,0,0
47953,19670,9591,0,0,0
48339,20028,10176,0,0,0
48691,20354,10709,0,0,0
49013,20648,11192,0,0,0
49301,20911,11627,0,0,0
49550,21140,12009,0,0,0
49760,21336,12334,0,0,0
49932,21496,12607,0,0,0
50071,21625,12833,0,0,0
50181,21728,13017,0,0,0
50262,21806,13159,0,0,0
50313,21862,13258,0,0,0
50338,21898,13314,0,0,0
50346,21913,13337,0,0,0
50340,21905,13332,0,0,0
50319,21877,13301,0,0,0
50288,21834,13249,0,0,0
50249,21785,13187,0,0,0
50205,21732,13120,0,0,0
50156,21679,13046,0,0,0
50107,21631,12974,0,0,0
50069,21593,12908,0,0,0
50044,21562,12848,0,0,0
50025,21536,12792,0,0,0
50004,21509,12737,0,0,0
49980,21481,12683,0,0,0
49953,21455,12634,0,0,0
49923,21428,12586,0,0,0
49889,21402,12535,0,0,0
49853,21378,12477,0,0,0
49813,21348,12411,0,0,0
49765,21309,12335,0,0,0
49708,21258,12249,0,0,0
49642,21199,12151,0,0,0
49569,21134,12041,0,0,0
49495,21063,11921,0,0,0
49423,20991,11796,0,0,0
49357,20922,11676,0,0,0
49298,20860,11564,0,0,0
49239,20803,11459,0,0,0
49183,20747,11362,0,0,0
49132,20694,11277,0,0,0
49085,20646,11202,0,0,0
49045,20607,11138,0,0,0
49017,20579,11091,0,0,0
49000,20564,11061,0,0,0
48994,20561,11044,0,0,0
48998,20570,11045,0,0,0
49015,20591,11064,0,0,0
49047,20622,11099,0,0,0
49089,20658,11143,0,0,0
49136,20696,11195,0,0,0
49186,20737,11252,0,0,0
49233,20776,11310,0,0,0
49279,20812,11363,0,0,0
49322,20845,11412,0,0,0
49362,20876,11455,0,0,0
49394,20903,11493,0,0,0
49418,20921,11520,0,0,0
49436,20931,11535,0,0,0
49453,20939,11544,0,0,0
49465,20941,11545,0,0,0
49466,20934,11535,0,0,0
49457,20920,11515,0,0,0
49439,20899,11484,0,0,0
49411,20871,11443,0,0,0
49376,20838,11392,0,0,0
49334,20794,11329,0,0,0
49287,20744,11257,0,0,0
49239,20692,11178,0,0,0
49186,20639,11088,0,0,0
49126,20581,10988,0,0,0
49059,20519,10883,0,0,0
48988,20455,10775,0,0,0
48914,20388,10663,0,0,0
48845,20320,10551,0,0,0
48779,20252,10437,0,0,0
48710,20183,10317,0,0,0
48637,20111,10194,0,0,0
48561,20037,10068,0,0,0
48484,19964,9942,0,0,0
48407,19892,9813,0,0,0
48328,19817,9684,0,0,0
48250,19743,9561,0,0,0
48173,19669,9444,0,0,0
48095,19590,9325,0,0,0
48017,19510,9208,0,0,0
47939,19434,9094,0,0,0
47863,19362,8982,0,0,0
47791,19294,8873,0,0,0
47721,19228,8770,0,0,0
47653,19167,8674,0,0,0
47587,19112,8583,0,0,0
47521,19057,8493,0,0,0
47456,19002,8399,0,0,0
47394,18946,8301,0,0,0
47334,18886,8199,0,0,0
47272,18825,8097,0,0,0
47209,18764,8001,0,0,0
47148,18705,7911,0,0,0
47090,18649,7822,0,0,0
47036,18597,7732,0,0,0
46985,18549,7644,0,0,0
46936,18504,7564,0,0,0
46886,18464,7490,0,0,0
46840,18426,7423,0,0,0
46805,18391,7364,0,0,0
46776,18361,7309,0,0,0
46747,18333,7252,0,0,0
46713,18306,7189,0,0,0
46677,18275,7124,0,0,0
46642,18242,7059,0,0,0
46606,18205,6994,0,0,0
46567,18163,6929,0,0,0
46527,18119,6866,0,0,0
46490,18081,6807,0,0,0
46455,18047,6749,0,0,0
46417,18013,6691,0,0,0
46378,17980,6635,0,0,0
46342,17947,6580,0,0,0
46306,17913,6522,0,0,0
46268,17875,6459,0,0,0
46227,17836,6394,0,0,0
46183,17796,6327,0,0,0
46141,17755,6261,0,0,0
46101,17714,6197,0,0,0
46060,17672,6132,0,0,0
46020,17631,6065,0,0,0
