green_channel,red_channel,ir_channel,Anomaly_ch0,Anomaly_ch1,Anomaly_ch2
50221,46340,49902,0,0,0
50073,46241,49752,0,0,0
49969,46170,49594,0,0,0
49865,46094,49436,0,0,0
49724,45992,49278,0,0,0
49582,45886,49108,0,0,0
49468,45790,48930,0,0,0
49342,45690,48755,0,0,0
49179,45576,48582,0,0,0
49030,45475,48411,0,0,0
48923,45396,48250,0,0,0
48811,45309,48107,0,0,0
48678,45213,47977,0,0,0
48574,45139,47848,0,0,0
48510,45084,47719,0,0,0
48432,45022,47597,0,0,0
48328,44951,47476,0,0,0
48248,44893,47344,0,0,0
48193,44843,47210,0,0,0
48102,44765,47077,0,0,0
47972,44666,46944,0,0,0
47861,44578,46808,0,0,0
47766,44496,46671,0,0,0
47640,44398,46544,0,0,0
47498,44299,46425,0,0,0
47400,44225,46303,0,0,0
47331,44163,46183,0,0,0
47232,44082,46066,0,0,0
47110,43991,45937,0,0,0
47017,43918,45789,0,0,0
46940,43846,45640,0,0,0
46825,43748,45495,0,0,0
46699,43651,45356,0,0,0
46621,43587,45237,0,0,0
46569,43534,45150,0,0,0
46488,43469,45087,0,0,0
46408,43414,45028,0,0,0
46374,43394,44971,0,0,0
46347,43378,44920,0,0,0
46287,43346,44869,0,0,0
46229,43317,44800,0,0,0
46208,43301,44712,0,0,0
46178,43268,44621,0,0,0
46101,43197,44524,0,0,0
46006,43119,44407,0,0,0
45921,43049,44272,0,0,0
45813,42966,44137,0,0,0
45664,42866,43999,0,0,0
45527,42782,43858,0,0,0
45436,42729,43738,0,0,0
45363,42683,43657,0,0,0
45303,42649,43622,0,0,0
45310,42663,43631,0,0,0
45408,42733,43704,0,0,0
45554,42840,43865,0,0,0
45740,42987,44116,0,0,0
46015,43204,44447,0,0,0
46383,43492,44875,0,0,0
46786,43816,45404,0,0,0
47217,44171,46010,0,0,0
47731,44583,46674,0,0,0
48311,45031,47393,0,0,0
48885,45479,48158,0,0,0
49448,45930,48942,0,0,0
50050,46409,49724,0,0,0
50677,46898,50494,0,0,0
51256,47350,51239,0,0,0
51784,47766,51939,0,0,0
52309,48170,52588,0,0,0
52814,48550,53198,0,0,0
53241,48879,53772,0,0,0
53613,49178,54305,0,0,0
53990,49476,54796,0,0,0
54349,49750,55249,0,0,0
54637,49974,55659,0,0,0
54883,50166,56005,0,0,0
55130,50344,56285,0,0,0
55343,50486,56518,0,0,0
55479,50572,56700,0,0,0
55567,50630,56823,0,0,0
55647,50675,56893,0,0,0
55692,50688,56936,0,0,0
55675,50666,56962,0,0,0
55644,50645,56965,0,0,0
55638,50642,56955,0,0,0
55624,50631,56947,0,0,0
55580,50602,56936,0,0,0
55539,50577,56905,0,0,0
55521,50562,56859,0,0,0
55479,50535,56806,0,0,0
55396,50483,56741,0,0,0
55321,50437,56659,0,0,0
55271,50402,56574,0,0,0
55199,50353,56504,0,0,0
55102,50290,56439,0,0,0
55031,50242,56363,0,0,0
54990,50204,56279,0,0,0
54919,50143,56187,0,0,0
54802,50055,56079,0,0,0
54692,49966,55946,0,0,0
54600,49885,55808,0,0,0
54480,49793,55683,0,0,0
54341,49706,55555,0,0,0
54235,49650,55413,0,0,0
54158,49607,55286,0,0,0
54067,49552,55187,0,0,0
53972,49496,55101,0,0,0
53927,49469,55020,0,0,0
53910,49453,54948,0,0,0
53864,49412,54879,0,0,0
53799,49355,54799,0,0,0
53761,49304,54710,0,0,0
53724,49249,54623,0,0,0
53638,49167,54540,0,0,0
53539,49085,54457,0,0,0
53485,49031,54382,0,0,0
53451,48990,54329,0,0,0
53395,48939,54293,0,0,0
53348,48899,54257,0,0,0
53345,48891,54221,0,0,0
53344,48886,54195,0,0,0
53307,48864,54170,0,0,0
53271,48846,54130,0,0,0
53264,48844,54081,0,0,0
53252,48832,54044,0,0,0
53207,48797,54011,0,0,0
53167,48770,53973,0,0,0
53153,48762,53941,0,0,0
53124,48754,53931,0,0,0
53068,48734,53931,0,0,0
53034,48725,53920,0,0,0
53034,48733,53897,0,0,0
53012,48723,53868,0,0,0
52948,48684,53818,0,0,0
52885,48638,53726,0,0,0
52824,48583,53601,0,0,0
52712,48489,53461,0,0,0
52554,48364,53305,0,0,0
52419,48253,53137,0,0,0
52317,48159,52974,0,0,0
52192,48055,52830,0,0,0
52053,47955,52703,0,0,0
51961,47895,52586,0,0,0
51908,47857,52490,0,0,0
51834,47804,52411,0,0,0
51743,47736,52323,0,0,0
51683,47677,52211,0,0,0
51630,47612,52084,0,0,0
51515,47512,51942,0,0,0
51359,47394,51780,0,0,0
51221,47288,51598,0,0,0
51088,47183,51416,0,0,0
50917,47059,51246,0,0,0
50741,46939,51080,0,0,0
50613,46851,50914,0,0,0
50507,46770,50757,0,0,0
50376,46676,50604,0,0,0
50242,46582,50441,0,0,0
50144,46501,50265,0,0,0
50048,46410,50096,0,0,0
49917,46292,49936,0,0,0
49781,46176,49775,0,0,0
49671,46078,49614,0,0,0
49560,45985,49467,0,0,0
49427,45889,49336,0,0,0
49310,45810,49208,0,0,0
49231,45752,49086,0,0,0
49149,45690,48982,0,0,0
49041,45617,48887,0,0,0
48953,45566,48790,0,0,0
48905,45540,48694,0,0,0
48838,45495,48594,0,0,0
48734,45419,48481,0,0,0
48637,45340,48348,0,0,0
48556,45267,48207,0,0,0
48445,45181,48077,0,0,0
48300,45086,47948,0,0,0
48188,45012,47816,0,0,0
48114,44959,47695,0,0,0
48014,44889,47584,0,0,0
47883,44804,47465,0,0,0
47774,44733,47331,0,0,0
47683,44663,47192,0,0,0
47552,44563,47056,0,0,0
47399,44453,46914,0,0,0
47289,44367,46767,0,0,0
47207,44295,46633,0,0,0
47096,44211,46515,0,0,0
46975,44130,46402,0,0,0
46899,44078,46291,0,0,0
46844,44033,46188,0,0,0
46760,43972,46093,0,0,0
46671,43910,45987,0,0,0
46621,43861,45858,0,0,0
46576,43808,45725,0,0,0
46487,43727,45595,0,0,0
46383,43641,45464,0,0,0
46316,43575,45341,0,0,0
46264,43518,45245,0,0,0
46194,43460,45174,0,0,0
46133,43423,45111,0,0,0
46114,43416,45054,0,0,0
46097,43406,45007,0,0,0
46052,43372,44952,0,0,0
46000,43328,44866,0,0,0
45956,43284,44751,0,0,0
45873,43216,44623,0,0,0
45734,43118,44488,0,0,0
45599,43023,44344,0,0,0
45494,42942,44201,0,0,0
45379,42855,44080,0,0,0
45260,42773,43992,0,0,0
45205,42735,43943,0,0,0
45227,42752,43953,0,0,0
45282,42800,44040,0,0,0
45378,42887,44205,0,0,0
45573,43040,44439,0,0,0
45868,43255,44748,0,0,0
46195,43499,45139,0,0,0
46541,43777,45601,0,0,0
46959,44116,46128,0,0,0
47445,44500,46725,0,0,0
47940,44892,47388,0,0,0
48448,45298,48090,0,0,0
49013,45739,48811,0,0,0
49608,46196,49543,0,0,0
50168,46632,50272,0,0,0
50695,47045,50973,0,0,0
51235,47453,51636,0,0,0
51767,47845,52270,0,0,0
52232,48191,52874,0,0,0
52649,48503,53430,0,0,0
53063,48807,53941,0,0,0
53452,49095,54428,0,0,0
53769,49342,54887,0,0,0
54051,49567,55301,0,0,0
54349,49795,55673,0,0,0
54629,50002,56010,0,0,0
54845,50168,56302,0,0,0
55026,50310,56530,0,0,0
55205,50440,56697,0,0,0
55338,50532,56822,0,0,0
55392,50568,56902,0,0,0
55410,50573,56930,0,0,0
55424,50564,56918,0,0,0
55399,50532,56887,0,0,0
55325,50478,56847,0,0,0
55257,50437,56800,0,0,0
55220,50415,56755,0,0,0
55168,50383,56718,0,0,0
55091,50343,56683,0,0,0
55044,50323,56640,0,0,0
55035,50318,56593,0,0,0
55003,50294,56539,0,0,0
54934,50248,56471,0,0,0
54870,50200,56381,0,0,0
54811,50144,56273,0,0,0
54702,50054,56160,0,0,0
54552,49943,56034,0,0,0
54424,49848,55892,0,0,0
54319,49767,55749,0,0,0
54190,49676,55621,0,0,0
54050,49589,55506,0,0,0
53954,49533,55397,0,0,0
53893,49494,55293,0,0,0
53809,49442,55191,0,0,0
53712,49384,55087,0,0,0
53662,49349,54984,0,0,0
53645,49331,54905,0,0,0
53612,49306,54858,0,0,0
53582,49288,54830,0,0,0
53602,49296,54814,0,0,0
53636,49309,54813,0,0,0
53632,49305,54817,0,0,0
53618,49296,54803,0,0,0
53636,49296,54768,0,0,0
53651,49285,54727,0,0,0
53618,49248,54680,0,0,0
53572,49212,54626,0,0,0
53557,49192,54577,0,0,0
53540,49172,54549,0,0,0
53497,49146,54542,0,0,0
53478,49147,54548,0,0,0
53515,49187,54573,0,0,0
53550,49226,54618,0,0,0
53553,49248,54661,0,0,0
53569,49275,54684,0,0,0
53616,49304,54686,0,0,0
53636,49298,54674,0,0,0
53598,49249,54639,0,0,0
53552,49194,54579,0,0,0
53515,49145,54503,0,0,0
53445,49082,54426,0,0,0
53339,49010,54343,0,0,0
53254,48960,54247,0,0,0
53191,48927,54156,0,0,0
53088,48877,54080,0,0,0
52953,48808,53995,0,0,0
52842,48738,53880,0,0,0
52748,48663,53741,0,0,0
52608,48548,53586,0,0,0
52430,48403,53405,0,0,0
52274,48264,53195,0,0,0
52130,48126,52977,0,0,0
51949,47971,52770,0,0,0
51748,47810,52557,0,0,0
51579,47667,52329,0,0,0
51421,47526,52096,0,0,0
51219,47359,51860,0,0,0
50995,47188,51617,0,0,0
50801,47039,51368,0,0,0
50621,46900,51125,0,0,0
50412,46751,50893,0,0,0
50200,46606,50666,0,0,0
50028,46484,50443,0,0,0
49864,46361,50223,0,0,0
49665,46214,50000,0,0,0
49459,46062,49760,0,0,0
49286,45919,49508,0,0,0
49118,45776,49274,0,0,0
48926,45629,49067,0,0,0
48752,45501,48875,0,0,0
48632,45405,48704,0,0,0
48530,45326,48569,0,0,0
48422,45258,48463,0,0,0
48352,45215,48364,0,0,0
48334,45194,48269,0,0,0
48307,45161,48182,0,0,0
48240,45105,48096,0,0,0
48186,45058,48006,0,0,0
48162,45026,47921,0,0,0
48116,44986,47860,0,0,0
48047,44944,47815,0,0,0
48010,44929,47775,0,0,0
48011,44941,47745,0,0,0
47990,44941,47729,0,0,0
47943,44926,47707,0,0,0
47923,44922,47665,0,0,0
47924,44918,47605,0,0,0
47885,44880,47537,0,0,0
47809,44822,47459,0,0,0
47755,44777,47371,0,0,0
47724,44738,47286,0,0,0
47661,44683,47215,0,0,0
47588,44628,47150,0,0,0
47563,44604,47092,0,0,0
47561,44595,47043,0,0,0
47522,44569,46998,0,0,0
47457,44533,46939,0,0,0
47414,44506,46861,0,0,0
47368,44468,46768,0,0,0
47265,44390,46652,0,0,0
47127,44288,46502,0,0,0
47001,44187,46330,0,0,0
46868,44076,46161,0,0,0
46699,43945,46001,0,0,0
46532,43818,45836,0,0,0
46407,43717,45665,0,0,0
46288,43619,45500,0,0,0
46136,43512,45338,0,0,0
45988,43414,45158,0,0,0
45878,43328,44962,0,0,0
45753,43224,44766,0,0,0
45576,43090,44572,0,0,0
45397,42956,44367,0,0,0
45245,42831,44155,0,0,0
45070,42687,43949,0,0,0
44856,42525,43745,0,0,0
44658,42380,43533,0,0,0
44496,42256,43324,0,0,0
44332,42136,43133,0,0,0
44164,42025,42963,0,0,0
44053,41953,42819,0,0,0
44018,41928,42732,0,0,0
44016,41928,42726,0,0,0
44048,41959,42795,0,0,0
44176,42050,42937,0,0,0
44399,42202,43170,0,0,0
44659,42396,43511,0,0,0
44958,42636,43939,0,0,0
45347,42946,44432,0,0,0
45804,43306,44989,0,0,0
46258,43677,45597,0,0,0
46710,44054,46227,0,0,0
47213,44455,46863,0,0,0
47744,44864,47508,0,0,0
48241,45246,48155,0,0,0
48713,45613,48790,0,0,0
49209,45989,49408,0,0,0
49706,46363,50018,0,0,0
50151,46709,50618,0,0,0
50559,47040,51186,0,0,0
50972,47375,51714,0,0,0
51362,47683,52204,0,0,0
51687,47941,52649,0,0,0
51976,48172,53037,0,0,0
52267,48393,53369,0,0,0
52526,48579,53657,0,0,0
52716,48713,53902,0,0,0
52869,48823,54096,0,0,0
53021,48922,54244,0,0,0
53135,48992,54365,0,0,0
53183,49022,54454,0,0,0
53209,49042,54505,0,0,0
53246,49063,54527,0,0,0
53248,49058,54529,0,0,0
53196,49030,54512,0,0,0
53143,49007,54473,0,0,0
53114,48994,54418,0,0,0
53065,48961,54354,0,0,0
52981,48908,54279,0,0,0
52909,48861,54183,0,0,0
52859,48820,54073,0,0,0
52776,48754,53964,0,0,0
52657,48663,53850,0,0,0
52560,48584,53732,0,0,0
52482,48516,53621,0,0,0
52375,48436,53531,0,0,0
52256,48357,53449,0,0,0
52183,48307,53358,0,0,0
52143,48269,53266,0,0,0
52071,48211,53173,0,0,0
51969,48140,53064,0,0,0
51892,48084,52935,0,0,0
51821,48026,52799,0,0,0
51700,47929,52658,0,0,0
51550,47816,52506,0,0,0
51433,47722,52349,0,0,0
51338,47639,52204,0,0,0
51214,47546,52080,0,0,0
51094,47464,51966,0,0,0
51032,47422,51864,0,0,0
50996,47395,51784,0,0,0
50938,47361,51725,0,0,0
50889,47333,51670,0,0,0
50889,47325,51619,0,0,0
50900,47317,51587,0,0,0
50880,47294,51572,0,0,0
50866,47283,51566,0,0,0
50896,47299,51576,0,0,0
50938,47324,51614,0,0,0
50969,47347,51677,0,0,0
51022,47396,51746,0,0,0
51114,47477,51823,0,0,0
51189,47546,51900,0,0,0
51221,47582,51959,0,0,0
51256,47610,51995,0,0,0
51306,47634,52017,0,0,0
51314,47625,52033,0,0,0
51268,47588,52032,0,0,0
51223,47556,52007,0,0,0
51195,47533,51969,0,0,0
51133,47487,51927,0,0,0
51029,47418,51866,0,0,0
50941,47359,51773,0,0,0
50872,47308,51658,0,0,0
50763,47233,51529,0,0,0
50618,47134,51379,0,0,0
50491,47036,51201,0,0,0
50370,46924,51008,0,0,0
50198,46770,50812,0,0,0
49990,46601,50608,0,0,0
49817,46459,50401,0,0,0
49672,46333,50207,0,0,0
49505,46198,50038,0,0,0
49340,46077,49883,0,0,0
49238,45997,49732,0,0,0
49168,45934,49589,0,0,0
49069,45861,49456,0,0,0
48960,45790,49321,0,0,0
48888,45736,49184,0,0,0
48827,45685,49057,0,0,0
48728,45621,48939,0,0,0
48628,45566,48826,0,0,0
48572,45535,48727,0,0,0
48526,45506,48651,0,0,0
48451,45465,48594,0,0,0
48389,45436,48538,0,0,0
48374,45429,48480,0,0,0
48354,45410,48419,0,0,0
48292,45359,48346,0,0,0
48224,45298,48249,0,0,0
48169,45237,48131,0,0,0
48091,45151,48005,0,0,0
47967,45040,47871,0,0,0
47842,44936,47724,0,0,0
47744,44853,47576,0,0,0
47632,44764,47439,0,0,0
47494,44665,47306,0,0,0
47381,44582,47161,0,0,0
47303,44518,47015,0,0,0
47204,44443,46882,0,0,0
47081,44348,46752,0,0,0
46988,44258,46614,0,0,0
46922,44174,46486,0,0,0
46822,44074,46380,0,0,0
46691,43977,46278,0,0,0
46590,43914,46168,0,0,0
46520,43872,46058,0,0,0
46426,43822,45956,0,0,0
46326,43773,45860,0,0,0
46282,43753,45771,0,0,0
46275,43749,45699,0,0,0
46235,43721,45641,0,0,0
46176,43677,45574,0,0,0
46152,43644,45494,0,0,0
46137,43612,45418,0,0,0
46072,43559,45348,0,0,0
45990,43507,45278,0,0,0
45945,43477,45208,0,0,0
45911,43449,45142,0,0,0
45839,43399,45080,0,0,0
45758,43349,45007,0,0,0
45706,43319,44919,0,0,0
45647,43277,44816,0,0,0
45544,43200,44692,0,0,0
45428,43108,44542,0,0,0
45331,43018,44380,0,0,0
45225,42921,44232,0,0,0
45088,42815,44101,0,0,0
44976,42739,43994,0,0,0
44934,42713,43930,0,0,0
44928,42718,43927,0,0,0
44941,42747,43992,0,0,0
45027,42831,44115,0,0,0
45215,42980,44305,0,0,0
45454,43165,44573,0,0,0
45717,43373,44913,0,0,0
46042,43626,45304,0,0,0
46433,43920,45755,0,0,0
46840,44230,46273,0,0,0
47256,44555,46847,0,0,0
47735,44926,47460,0,0,0
48269,45334,48108,0,0,0
48787,45740,48788,0,0,0
49284,46140,49473,0,0,0
49814,46557,50140,0,0,0
50363,46976,50793,0,0,0
50862,47355,51431,0,0,0
51313,47698,52033,0,0,0
51771,48033,52583,0,0,0
52221,48354,53096,0,0,0
52596,48633,53577,0,0,0
52909,48879,54020,0,0,0
53222,49119,54423,0,0,0
53522,49340,54786,0,0,0
53756,49522,55114,0,0,0
53947,49683,55398,0,0,0
54148,49845,55634,0,0,0
54336,49980,55834,0,0,0
54462,50065,56005,0,0,0
54554,50126,56135,0,0,0
54658,50192,56228,0,0,0
54751,50244,56300,0,0,0
54796,50264,56356,0,0,0
54824,50277,56392,0,0,0
54867,50295,56412,0,0,0
54896,50303,56435,0,0,0
54881,50289,56455,0,0,0
54853,50272,56451,0,0,0
54841,50265,56426,0,0,0
54809,50243,56395,0,0,0
54739,50195,56356,0,0,0
54677,50155,56298,0,0,0
54645,50131,56227,0,0,0
54593,50091,56152,0,0,0
54503,50024,56069,0,0,0
54420,49955,55967,0,0,0
54358,49890,55856,0,0,0
54271,49810,55754,0,0,0
54155,49724,55659,0,0,0
54072,49669,55567,0,0,0
54034,49642,55485,0,0,0
53982,49601,55412,0,0,0
53900,49548,55330,0,0,0
53840,49515,55232,0,0,0
53795,49488,55124,0,0,0
53707,49423,55008,0,0,0
53581,49330,54879,0,0,0
53473,49243,54736,0,0,0
53384,49159,54593,0,0,0
53266,49057,54464,0,0,0
53141,48957,54347,0,0,0
53067,48894,54247,0,0,0
53031,48853,54175,0,0,0
52981,48813,54136,0,0,0
52934,48789,54114,0,0,0
52938,48799,54097,0,0,0
52968,48815,54086,0,0,0
52963,48806,54069,0,0,0
52932,48781,54029,0,0,0
52910,48751,53965,0,0,0
52881,48708,53895,0,0,0
52810,48645,53825,0,0,0
52731,48585,53749,0,0,0
52684,48542,53674,0,0,0
52648,48496,53610,0,0,0
52591,48440,53559,0,0,0
52548,48400,53511,0,0,0
52541,48388,53467,0,0,0
52526,48371,53428,0,0,0
52474,48331,53382,0,0,0
52427,48291,53317,0,0,0
52404,48258,53238,0,0,0
52350,48205,53154,0,0,0
52244,48128,53062,0,0,0
52141,48058,52958,0,0,0
52054,48001,52851,0,0,0
51933,47930,52750,0,0,0
51774,47840,52644,0,0,0
51641,47759,52518,0,0,0
51539,47688,52384,0,0,0
51414,47602,52249,0,0,0
51266,47504,52101,0,0,0
51144,47416,51930,0,0,0
51034,47322,51748,0,0,0
50875,47194,51564,0,0,0
50677,47042,51374,0,0,0
50500,46900,51179,0,0,0
50344,46771,50992,0,0,0
50159,46631,50813,0,0,0
49962,46487,50626,0,0,0
49809,46366,50431,0,0,0
49681,46256,50244,0,0,0
49522,46130,50065,0,0,0
49351,45997,49874,0,0,0
49223,45879,49664,0,0,0
49112,45763,49458,0,0,0
48961,45630,49260,0,0,0
48792,45498,49060,0,0,0
48654,45394,48858,0,0,0
48528,45299,48674,0,0,0
48373,45194,48514,0,0,0
48218,45100,48361,0,0,0
48108,45033,48216,0,0,0
48010,44965,48087,0,0,0
47893,44882,47965,0,0,0
47785,44807,47832,0,0,0
47712,44753,47695,0,0,0
47630,44688,47567,0,0,0
47511,44601,47438,0,0,0
47401,44520,47303,0,0,0
47322,44453,47172,0,0,0
47227,44376,47056,0,0,0
47099,44286,46945,0,0,0
46992,44213,46830,0,0,0
46924,44159,46718,0,0,0
46851,44097,46619,0,0,0
46759,44026,46524,0,0,0
46690,43969,46413,0,0,0
46643,43914,46292,0,0,0
46557,43830,46169,0,0,0
46434,43729,46038,0,0,0
46335,43644,45897,0,0,0
46257,43570,45761,0,0,0
46148,43489,45644,0,0,0
46020,43416,45537,0,0,0
45934,43374,45433,0,0,0
45888,43344,45344,0,0,0
45821,43291,45268,0,0,0
45728,43222,45187,0,0,0
45657,43172,45092,0,0,0
45596,43131,44996,0,0,0
45492,43069,44906,0,0,0
45370,43002,44813,0,0,0
45292,42958,44716,0,0,0
45244,42928,44634,0,0,0
45183,42895,44583,0,0,0
45141,42879,44563,0,0,0
45179,42912,44584,0,0,0
45276,42982,44667,0,0,0
45395,43074,44822,0,0,0
45572,43212,45043,0,0,0
45843,43412,45336,0,0,0
46173,43657,45717,0,0,0
46523,43929,46179,0,0,0
46929,44251,46708,0,0,0
47422,44633,47304,0,0,0
47950,45041,47962,0,0,0
48476,45460,48666,0,0,0
49033,45907,49393,0,0,0
49641,46379,50135,0,0,0
50240,46837,50889,0,0,0
50795,47271,51634,0,0,0
51343,47704,52353,0,0,0
51898,48132,53048,0,0,0
52412,48525,53725,0,0,0
52872,48884,54368,0,0,0
53329,49236,54959,0,0,0
53781,49576,55490,0,0,0
54170,49875,55967,0,0,0
54488,50122,56385,0,0,0
54794,50337,56740,0,0,0
55087,50527,57049,0,0,0
55307,50671,57330,0,0,0
55468,50783,57578,0,0,0
55629,50897,57786,0,0,0
55786,51007,57966,0,0,0
55894,51093,58138,0,0,0
55971,51165,58297,0,0,0
56071,51248,58432,0,0,0
56174,51324,58544,0,0,0
56217,51367,58631,0,0,0
56215,51389,58676,0,0,0
56228,51410,58676,0,0,0
56241,51419,58656,0,0,0
56203,51396,58627,0,0,0
56146,51368,58595,0,0,0
56125,51363,58565,0,0,0
56115,51356,58548,0,0,0
56075,51332,58542,0,0,0
56034,51309,58523,0,0,0
56029,51305,58486,0,0,0
56018,51288,58442,0,0,0
55960,51236,58386,0,0,0
55890,51170,58305,0,0,0
55836,51105,58204,0,0,0
55760,51031,58105,0,0,0
55636,50941,58010,0,0,0
55515,50865,57915,0,0,0
55431,50814,57825,0,0,0
55344,50752,57740,0,0,0
55235,50670,57650,0,0,0
55148,50600,57542,0,0,0
55098,50552,57425,0,0,0
55025,50489,57305,0,0,0
54911,50403,57170,0,0,0
54809,50326,57023,0,0,0
54730,50264,56884,0,0,0
54629,50190,56769,0,0,0
54512,50112,56669,0,0,0
54443,50066,56579,0,0,0
54422,50046,56513,0,0,0
54385,50014,56469,0,0,0
54324,49972,56429,0,0,0
54298,49950,56381,0,0,0
54302,49947,56339,0,0,0
54274,49928,56310,0,0,0
54222,49897,56277,0,0,0
54200,49875,56232,0,0,0
54196,49858,56194,0,0,0
54155,49830,56176,0,0,0
54108,49801,56158,0,0,0
54117,49792,56127,0,0,0
54143,49789,56090,0,0,0
54120,49767,56051,0,0,0
54072,49734,55997,0,0,0
54045,49707,55924,0,0,0
54014,49665,55857,0,0,0
53936,49587,55807,0,0,0
53845,49514,55761,0,0,0
53790,49472,55718,0,0,0
53742,49436,55686,0,0,0
53661,49389,55655,0,0,0
53575,49344,55598,0,0,0
53512,49309,55509,0,0,0
53431,49255,55394,0,0,0
53296,49166,55248,0,0,0
53151,49072,55071,0,0,0
53023,48984,54881,0,0,0
52872,48872,54694,0,0,0
52676,48734,54510,0,0,0
52493,48610,54326,0,0,0
52350,48510,54147,0,0,0
52202,48404,53977,0,0,0
52032,48285,53807,0,0,0
51889,48180,53631,0,0,0
51784,48097,53458,0,0,0
51656,47999,53284,0,0,0
51488,47870,53091,0,0,0
51329,47737,52869,0,0,0
51179,47599,52642,0,0,0
50990,47432,52429,0,0,0
50769,47251,52225,0,0,0
50581,47101,52020,0,0,0
50427,46983,51823,0,0,0
50251,46867,51644,0,0,0
50063,46753,51478,0,0,0
49927,46667,51325,0,0,0
49838,46603,51193,0,0,0
49733,46533,51078,0,0,0
49621,46464,50959,0,0,0
49554,46415,50831,0,0,0
49510,46372,50710,0,0,0
49428,46303,50595,0,0,0
49317,46214,50465,0,0,0
49225,46129,50313,0,0,0
49124,46038,50157,0,0,0
48966,45926,50005,0,0,0
48792,45813,49850,0,0,0
48659,45728,49703,0,0,0
48545,45653,49578,0,0,0
48411,45568,49469,0,0,0
48291,45494,49355,0,0,0
48220,45452,49239,0,0,0
48157,45412,49131,0,0,0
48062,45349,49020,0,0,0
47968,45282,48889,0,0,0
47903,45221,48746,0,0,0
47816,45143,48602,0,0,0
47682,45036,48453,0,0,0
47546,44930,48287,0,0,0
47432,44831,48115,0,0,0
47292,44715,47951,0,0,0
47112,44579,47791,0,0,0
46954,44464,47634,0,0,0
46844,44381,47486,0,0,0
46738,44305,47363,0,0,0
46630,44236,47263,0,0,0
46565,44192,47170,0,0,0
46537,44164,47082,0,0,0
46479,44112,46998,0,0,0
46387,44037,46909,0,0,0
46318,43975,46812,0,0,0
46269,43924,46720,0,0,0
46187,43856,46636,0,0,0
46080,43784,46549,0,0,0
46005,43737,46451,0,0,0
45946,43696,46348,0,0,0
45847,43633,46247,0,0,0
45735,43565,46149,0,0,0
45685,43533,46066,0,0,0
45692,43536,46027,0,0,0
45712,43556,46051,0,0,0
45775,43615,46138,0,0,0
45933,43741,46295,0,0,0
46161,43919,46545,0,0,0
46407,44120,46886,0,0,0
46700,44368,47306,0,0,0
47086,44686,47803,0,0,0
47534,45051,48384,0,0,0
47996,45435,49042,0,0,0
48500,45851,49745,0,0,0
49075,46308,50478,0,0,0
49672,46772,51228,0,0,0
50244,47216,51984,0,0,0
50819,47649,52730,0,0,0
51418,48082,53453,0,0,0
51987,48496,54152,0,0,0
52488,48882,54831,0,0,0
52967,49265,55470,0,0,0
53451,49644,56067,0,0,0
53897,49986,56632,0,0,0
54286,50285,57154,0,0,0
54659,50572,57622,0,0,0
55025,50845,58040,0,0,0
55331,51075,58415,0,0,0
55568,51258,58736,0,0,0
55785,51416,58988,0,0,0
55981,51549,59182,0,0,0
56098,51628,59333,0,0,0
56142,51659,59442,0,0,0
56180,51685,59516,0,0,0
56220,51707,59571,0,0,0
56221,51709,59626,0,0,0
56198,51708,59680,0,0,0
56215,51732,59731,0,0,0
56261,51768,59777,0,0,0
56272,51776,59808,0,0,0
56259,51766,59813,0,0,0
56279,51771,59798,0,0,0
56313,51775,59776,0,0,0
56296,51748,59750,0,0,0
56252,51708,59712,0,0,0
56237,51687,59663,0,0,0
56235,51676,59626,0,0,0
56199,51650,59610,0,0,0
56156,51630,59599,0,0,0
56153,51643,59594,0,0,0
56164,51663,59607,0,0,0
56144,51664,59625,0,0,0
56122,51664,59627,0,0,0
56132,51679,59611,0,0,0
56130,51672,59575,0,0,0
56077,51623,59509,0,0,0
56005,51557,59407,0,0,0
55943,51491,59276,0,0,0
55854,51407,59137,0,0,0
55719,51300,58995,0,0,0
55596,51209,58855,0,0,0
55514,51146,58736,0,0,0
55431,51083,58647,0,0,0
55327,51011,58577,0,0,0
55252,50964,58511,0,0,0
55225,50946,58451,0,0,0
55200,50926,58402,0,0,0
55158,50901,58357,0,0,0
55143,50895,58299,0,0,0
55157,50898,58236,0,0,0
55138,50872,58177,0,0,0
55081,50819,58115,0,0,0
55039,50775,58047,0,0,0
55011,50741,57986,0,0,0
54950,50694,57946,0,0,0
54866,50646,57919,0,0,0
54825,50625,57898,0,0,0
54818,50618,57882,0,0,0
54778,50589,57871,0,0,0
54711,50551,57851,0,0,0
54677,50532,57807,0,0,0
54656,50514,57745,0,0,0
54584,50462,57668,0,0,0
54474,50386,57561,0,0,0
54378,50313,57428,0,0,0
54283,50229,57289,0,0,0
54137,50110,57142,0,0,0
53970,49983,56979,0,0,0
53833,49876,56808,0,0,0
53695,49772,56644,0,0,0
53516,49649,56486,0,0,0
53337,49532,56322,0,0,0
53208,49441,56154,0,0,0
53088,49349,55989,0,0,0
52932,49234,55820,0,0,0
52767,49115,55627,0,0,0
52624,48996,55406,0,0,0
52463,48856,55173,0,0,0
52254,48683,54929,0,0,0
52038,48510,54671,0,0,0
51840,48348,54414,0,0,0
51623,48177,54175,0,0,0
51379,47999,53953,0,0,0
51165,47848,53739,0,0,0
51000,47728,53540,0,0,0
50830,47608,53362,0,0,0
50642,47486,53194,0,0,0
50492,47387,53025,0,0,0
50382,47302,52858,0,0,0
50247,47194,52693,0,0,0
50078,47066,52518,0,0,0
49927,46950,52326,0,0,0
49795,46846,52129,0,0,0
49633,46726,51945,0,0,0
49450,46600,51771,0,0,0
49313,46506,51607,0,0,0
49218,46437,51466,0,0,0
49104,46360,51352,0,0,0
48987,46290,51249,0,0,0
48924,46260,51142,0,0,0
48894,46243,51040,0,0,0
48830,46197,50945,0,0,0
48740,46132,50846,0,0,0
48678,46077,50740,0,0,0
48627,46022,50639,0,0,0
48538,45945,50543,0,0,0
48434,45870,50446,0,0,0
48368,45822,50353,0,0,0
48317,45784,50276,0,0,0
48239,45733,50210,0,0,0
48168,45692,50143,0,0,0
48148,45683,50079,0,0,0
48142,45680,50032,0,0,0
48108,45668,50000,0,0,0
48081,45662,49964,0,0,0
48090,45671,49924,0,0,0
48090,45666,49883,0,0,0
48044,45628,49830,0,0,0
47990,45587,49756,0,0,0
47954,45556,49666,0,0,0
47897,45512,49581,0,0,0
47803,45452,49498,0,0,0
47722,45406,49408,0,0,0
47679,45383,49320,0,0,0
47628,45355,49246,0,0,0
47556,45313,49177,0,0,0
47506,45279,49096,0,0,0
47481,45245,49010,0,0,0
47427,45184,48930,0,0,0
47351,45113,48854,0,0,0
47304,45065,48769,0,0,0
47276,45029,48682,0,0,0
47213,44978,48604,0,0,0
47122,44923,48527,0,0,0
47068,44893,48445,0,0,0
47044,44875,48370,0,0,0
46996,44839,48309,0,0,0
46943,44803,48259,0,0,0
46951,44805,48229,0,0,0
47013,44838,48238,0,0,0
47078,44879,48302,0,0,0
47162,44948,48425,0,0,0
47325,45082,48619,0,0,0
47570,45276,48905,0,0,0
47853,45508,49291,0,0,0
48199,45791,49764,0,0,0
48658,46149,50318,0,0,0
49189,46554,50951,0,0,0
49734,46976,51647,0,0,0
50300,47420,52374,0,0,0
50917,47892,53114,0,0,0
51545,48367,53873,0,0,0
52136,48823,54644,0,0,0
52715,49282,55407,0,0,0
53311,49755,56157,0,0,0
53895,50214,56898,0,0,0
54437,50644,57618,0,0,0
54973,51071,58306,0,0,0
55529,51507,58961,0,0,0
56049,51916,59584,0,0,0
56505,52276,60159,0,0,0
56934,52604,60673,0,0,0
57343,52909,61134,0,0,0
57685,53166,61554,0,0,0
57952,53371,61929,0,0,0
58208,53566,62258,0,0,0
58469,53764,62564,0,0,0
58686,53934,62852,0,0,0
58849,54068,63102,0,0,0
59006,54188,63293,0,0,0
59152,54286,63425,0,0,0
59227,54329,63510,0,0,0
59234,54330,63549,0,0,0
59232,54323,63540,0,0,0
59224,54307,63501,0,0,0
59168,54257,63454,0,0,0
59081,54190,63400,0,0,0
59027,54150,63349,0,0,0
59005,54132,63316,0,0,0
58973,54115,63313,0,0,0
58953,54113,63332,0,0,0
58992,54147,63364,0,0,0
59064,54199,63405,0,0,0
59103,54236,63445,0,0,0
59115,54257,63460,0,0,0
59145,54276,63445,0,0,0
59164,54279,63419,0,0,0
59121,54244,63383,0,0,0
59052,54198,63327,0,0,0
59008,54168,63258,0,0,0
58962,54133,63191,0,0,0
58874,54079,63124,0,0,0
58781,54026,63037,0,0,0
58724,53987,62934,0,0,0
58658,53930,62825,0,0,0
58540,53836,62695,0,0,0
58410,53732,62534,0,0,0
58292,53626,62349,0,0,0
58135,53489,62158,0,0,0
57921,53325,61963,0,0,0
57719,53177,61763,0,0,0
57562,53060,61570,0,0,0
57408,52944,61404,0,0,0
57248,52829,61262,0,0,0
57124,52739,61130,0,0,0
57046,52673,61007,0,0,0
56955,52594,60894,0,0,0
56830,52498,60774,0,0,0
56725,52416,60648,0,0,0
56649,52350,60533,0,0,0
56545,52271,60438,0,0,0
56412,52181,60347,0,0,0
56311,52112,60255,0,0,0
56241,52060,60164,0,0,0
56146,51987,60076,0,0,0
56031,51900,59980,0,0,0
55951,51832,59871,0,0,0
55893,51773,59766,0,0,0
55797,51697,59670,0,0,0
55680,51623,59574,0,0,0
55598,51576,59474,0,0,0
55535,51532,59381,0,0,0
55444,51470,59302,0,0,0
55346,51412,59226,0,0,0
55289,51379,59146,0,0,0
55241,51340,59059,0,0,0
55149,51263,58953,0,0,0
55031,51167,58817,0,0,0
54927,51075,58659,0,0,0
54818,50979,58504,0,0,0
54671,50865,58360,0,0,0
54527,50764,58220,0,0,0
54427,50692,58083,0,0,0
54336,50616,57951,0,0,0
54215,50520,57817,0,0,0
54089,50424,57666,0,0,0
53983,50337,57493,0,0,0
53856,50229,57311,0,0,0
53683,50092,57124,0,0,0
53507,49955,56927,0,0,0
53352,49828,56726,0,0,0
53177,49694,56536,0,0,0
52969,49554,56353,0,0,0
52783,49437,56162,0,0,0
52631,49338,55965,0,0,0
52462,49223,55765,0,0,0
52268,49092,55558,0,0,0
52097,48969,55339,0,0,0
51956,48852,55116,0,0,0
51783,48711,54894,0,0,0
51573,48548,54671,0,0,0
51392,48398,54453,0,0,0
51245,48269,54256,0,0,0
51078,48135,54082,0,0,0
50892,48005,53914,0,0,0
50742,47905,53738,0,0,0
50617,47815,53560,0,0,0
50451,47696,53375,0,0,0
50246,47554,53169,0,0,0
50054,47418,52941,0,0,0
49876,47278,52705,0,0,0
49665,47112,52468,0,0,0
49441,46944,52232,0,0,0
49256,46809,52007,0,0,0
49098,46696,51808,0,0,0
48923,46582,51633,0,0,0
48760,46482,51470,0,0,0
48654,46411,51318,0,0,0
48565,46340,51176,0,0,0
48447,46247,51040,0,0,0
48324,46152,50890,0,0,0
48228,46071,50721,0,0,0
48118,45973,50548,0,0,0
47956,45833,50366,0,0,0
47784,45690,50174,0,0,0
47649,45576,49989,0,0,0
47528,45479,49831,0,0,0
47408,45393,49703,0,0,0
47332,45343,49596,0,0,0
47314,45335,49513,0,0,0
47296,45328,49451,0,0,0
47243,45298,49387,0,0,0
47188,45261,49301,0,0,0
47143,45215,49193,0,0,0
47052,45131,49072,0,0,0
46908,45021,48938,0,0,0
46776,44928,48801,0,0,0
46667,44851,48674,0,0,0
46535,44766,48562,0,0,0
46388,44680,48454,0,0,0
46289,44622,48342,0,0,0
46237,44585,48236,0,0,0
46168,44534,48141,0,0,0
46080,44473,48052,0,0,0
46030,44433,47961,0,0,0
46014,44407,47880,0,0,0
45983,44367,47826,0,0,0
45956,44344,47806,0,0,0
46001,44383,47834,0,0,0
46116,44480,47943,0,0,0
46258,44611,48152,0,0,0
46456,44793,48461,0,0,0
46769,45054,48865,0,0,0
47169,45375,49363,0,0,0
47603,45726,49943,0,0,0
48079,46113,50571,0,0,0
48632,46547,51231,0,0,0
49217,46997,51931,0,0,0
49775,47430,52654,0,0,0
50330,47863,53377,0,0,0
50918,48307,54092,0,0,0
51493,48736,54804,0,0,0
52010,49128,55499,0,0,0
52512,49510,56161,0,0,0
53035,49897,56794,0,0,0
53532,50264,57399,0,0,0
53972,50597,57963,0,0,0
54390,50916,58471,0,0,0
54804,51224,58927,0,0,0
55157,51485,59334,0,0,0
55421,51685,59682,0,0,0
55649,51853,59960,0,0,0
55863,52001,60186,0,0,0
56018,52107,60380,0,0,0
56109,52176,60541,0,0,0
56188,52238,60665,0,0,0
56268,52294,60763,0,0,0
56301,52323,60847,0,0,0
56286,52327,60896,0,0,0
56283,52330,60895,0,0,0
56293,52328,60861,0,0,0
56252,52288,60805,0,0,0
56163,52216,60723,0,0,0
56080,52143,60610,0,0,0
55995,52060,60484,0,0,0
55862,51949,60364,0,0,0
55713,51835,60247,0,0,0
55615,51755,60133,0,0,0
55549,51698,60035,0,0,0
55456,51629,59951,0,0,0
55348,51556,59859,0,0,0
55278,51497,59750,0,0,0
55222,51435,59629,0,0,0
55126,51344,59497,0,0,0
55010,51245,59350,0,0,0
54918,51164,59194,0,0,0
54819,51082,59047,0,0,0
54667,50975,58906,0,0,0
54507,50868,58762,0,0,0
54386,50782,58624,0,0,0
54275,50698,58499,0,0,0
54140,50603,58380,0,0,0
54019,50525,58257,0,0,0
53943,50477,58134,0,0,0
53867,50425,58020,0,0,0
53762,50356,57906,0,0,0
53669,50295,57783,0,0,0
53614,50251,57662,0,0,0
53554,50198,57560,0,0,0
53468,50124,57470,0,0,0
53404,50067,57385,0,0,0
53380,50037,57321,0,0,0
53350,50007,57290,0,0,0
53299,49974,57284,0,0,0
53279,49964,57283,0,0,0
53291,49975,57290,0,0,0
53277,49976,57309,0,0,0
53239,49968,57323,0,0,0
53241,49980,57320,0,0,0
53277,50002,57308,0,0,0
53280,49999,57291,0,0,0
53249,49976,57261,0,0,0
53239,49963,57212,0,0,0
53244,49948,57154,0,0,0
53197,49895,57091,0,0,0
53107,49815,57007,0,0,0
53029,49743,56897,0,0,0
52951,49666,56774,0,0,0
52823,49562,56646,0,0,0
52666,49452,56507,0,0,0
52536,49362,56360,0,0,0
52413,49273,56213,0,0,0
52253,49163,56065,0,0,0
52079,49047,55901,0,0,0
51944,48948,55722,0,0,0
51813,48845,55536,0,0,0
51632,48714,55340,0,0,0
51426,48573,55117,0,0,0
51237,48434,54866,0,0,0
51034,48280,54610,0,0,0
50778,48092,54351,0,0,0
50507,47899,54073,0,0,0
50261,47720,53782,0,0,0
50010,47534,53497,0,0,0
49727,47329,53213,0,0,0
49459,47133,52917,0,0,0
49230,46949,52608,0,0,0
48982,46744,52283,0,0,0
48694,46512,51942,0,0,0
48412,46284,51588,0,0,0
48156,46066,51233,0,0,0
47880,45838,50895,0,0,0
47568,45603,50567,0,0,0
47277,45390,50240,0,0,0
47026,45201,49925,0,0,0
46764,45007,49638,0,0,0
46486,44813,49364,0,0,0
46253,44651,49098,0,0,0
46070,44520,48853,0,0,0
45880,44391,48640,0,0,0
45685,44266,48446,0,0,0
45546,44174,48261,0,0,0
45457,44105,48092,0,0,0
45354,44026,47943,0,0,0
45245,43945,47806,0,0,0
45179,43889,47675,0,0,0
45132,43836,47556,0,0,0
45044,43758,47454,0,0,0
44938,43678,47357,0,0,0
44874,43632,47264,0,0,0
44835,43606,47187,0,0,0
44770,43568,47127,0,0,0
44701,43531,47065,0,0,0
44672,43515,46989,0,0,0
44643,43486,46902,0,0,0
44555,43422,46801,0,0,0
44439,43344,46674,0,0,0
44345,43270,46522,0,0,0
44240,43179,46361,0,0,0
44084,43058,46194,0,0,0
43916,42935,46013,0,0,0
43775,42828,45826,0,0,0
43632,42718,45655,0,0,0
43462,42597,45501,0,0,0
43309,42491,45343,0,0,0
43204,42410,45179,0,0,0
43103,42330,45023,0,0,0
42976,42234,44872,0,0,0
42853,42137,44702,0,0,0
42741,42044,44516,0,0,0
42597,41926,44329,0,0,0
42410,41781,44133,0,0,0
42226,41640,43914,0,0,0
42057,41509,43681,0,0,0
41860,41364,43462,0,0,0
41640,41213,43260,0,0,0
41470,41097,43077,0,0,0
41371,41026,42940,0,0,0
41293,40978,42870,0,0,0
41249,40968,42871,0,0,0
41311,41036,42947,0,0,0
41481,41176,43117,0,0,0
41705,41359,43391,0,0,0
41987,41591,43756,0,0,0
42380,41899,44202,0,0,0
42859,42259,44728,0,0,0
43348,42627,45321,0,0,0
43852,43009,45958,0,0,0
44419,43433,46628,0,0,0
45020,43880,47336,0,0,0
45594,44323,48083,0,0,0
46164,44774,48849,0,0,0
46772,45253,49618,0,0,0
47382,45731,50384,0,0,0
47940,46173,51134,0,0,0
48467,46585,51840,0,0,0
49004,46985,52489,0,0,0
49516,47353,53091,0,0,0
49957,47670,53642,0,0,0
50353,47955,54128,0,0,0
50738,48225,54556,0,0,0
51079,48468,54953,0,0,0
51351,48676,55324,0,0,0
51598,48874,55650,0,0,0
51852,49070,55936,0,0,0
52071,49235,56191,0,0,0
52227,49362,56410,0,0,0
52360,49479,56582,0,0,0
52489,49588,56711,0,0,0
52567,49652,56805,0,0,0
52581,49666,56857,0,0,0
52585,49661,56858,0,0,0
52599,49649,56828,0,0,0
52574,49604,56787,0,0,0
52501,49534,56740,0,0,0
52445,49483,56684,0,0,0
52424,49452,56633,0,0,0
52386,49414,56603,0,0,0
52335,49382,56585,0,0,0
52328,49391,56573,0,0,0
52366,49430,56578,0,0,0
52388,49456,56599,0,0,0
52395,49472,56618,0,0,0
52441,49503,56628,0,0,0
52510,49542,56638,0,0,0
52535,49563,56652,0,0,0
52539,49576,56654,0,0,0
52589,49606,56642,0,0,0
52657,49636,56632,0,0,0
52672,49630,56621,0,0,0
52646,49600,56592,0,0,0
52638,49576,56546,0,0,0
52625,49552,56501,0,0,0
52565,49511,56458,0,0,0
52498,49471,56414,0,0,0
52481,49457,56379,0,0,0
52482,49450,56362,0,0,0
52459,49427,56355,0,0,0
52447,49419,56349,0,0,0
52488,49449,56353,0,0,0
52542,49488,56379,0,0,0
52568,49515,56420,0,0,0
52604,49548,56456,0,0,0
52684,49602,56491,0,0,0
52765,49653,56538,0,0,0
52819,49692,56586,0,0,0
52886,49735,56625,0,0,0
52987,49788,56668,0,0,0
53063,49824,56725,0,0,0
53087,49836,56787,0,0,0
53115,49851,56841,0,0,0
53165,49881,56896,0,0,0
53190,49905,56964,0,0,0
53191,49918,57033,0,0,0
53220,49944,57089,0,0,0
53283,49985,57137,0,0,0
53323,50013,57178,0,0,0
53326,50023,57200,0,0,0
53348,50041,57199,0,0,0
53383,50062,57190,0,0,0
53372,50055,57172,0,0,0
53318,50022,57130,0,0,0
53279,49993,57061,0,0,0
53248,49956,56977,0,0,0
53171,49879,56881,0,0,0
53059,49784,56768,0,0,0
52962,49702,56640,0,0,0
52870,49624,56507,0,0,0
52731,49526,56373,0,0,0
52563,49424,56229,0,0,0
52422,49340,56071,0,0,0
52294,49255,55910,0,0,0
52134,49145,55747,0,0,0
51955,49018,55559,0,0,0
51794,48887,55339,0,0,0
51624,48736,55102,0,0,0
51405,48552,54849,0,0,0
51175,48363,54584,0,0,0
50979,48192,54324,0,0,0
50791,48030,54089,0,0,0
50575,47865,53869,0,0,0
50372,47717,53652,0,0,0
50215,47597,53444,0,0,0
50063,47478,53249,0,0,0
49882,47348,53054,0,0,0
49706,47227,52845,0,0,0
49554,47118,52622,0,0,0
49385,46990,52399,0,0,0
49178,46832,52173,0,0,0
48973,46673,51928,0,0,0
48788,46520,51671,0,0,0
48578,46349,51422,0,0,0
48340,46162,51181,0,0,0
48139,45999,50948,0,0,0
47984,45867,50733,0,0,0
47816,45737,50539,0,0,0
47630,45607,50356,0,0,0
47473,45500,50164,0,0,0
47328,45396,49954,0,0,0
47129,45253,49723,0,0,0
46879,45075,49461,0,0,0
46636,44893,49163,0,0,0
46397,44709,48849,0,0,0
46111,44504,48534,0,0,0
45808,44299,48231,0,0,0
45566,44133,47949,0,0,0
45369,43992,47696,0,0,0
45161,43843,47471,0,0,0
44957,43698,47260,0,0,0
44816,43583,47061,0,0,0
44712,43486,46889,0,0,0
44580,43374,46742,0,0,0
44442,43264,46597,0,0,0
44350,43182,46453,0,0,0
44276,43113,46335,0,0,0
44177,43041,46249,0,0,0
44094,42990,46180,0,0,0
44076,42983,46132,0,0,0
44087,42998,46118,0,0,0
44091,43021,46137,0,0,0
44129,43072,46176,0,0,0
44240,43163,46244,0,0,0
44382,43268,46361,0,0,0
44524,43375,46532,0,0,0
44712,43516,46758,0,0,0
44973,43708,47050,0,0,0
45270,43931,47416,0,0,0
45583,44179,47845,0,0,0
45957,44478,48328,0,0,0
46412,44832,48873,0,0,0
46903,45216,49486,0,0,0
47415,45623,50152,0,0,0
47991,46075,50851,0,0,0
48630,46564,51583,0,0,0
49259,47050,52351,0,0,0
49865,47524,53130,0,0,0
50495,48006,53897,0,0,0
51141,48486,54650,0,0,0
51743,48936,55395,0,0,0
52306,49367,56118,0,0,0
52889,49808,56806,0,0,0
53474,50245,57461,0,0,0
53992,50641,58075,0,0,0
54447,50992,58631,0,0,0
54892,51322,59126,0,0,0
55306,51624,59575,0,0,0
55631,51875,59987,0,0,0
55896,52087,60351,0,0,0
56163,52287,60667,0,0,0
56416,52469,60954,0,0,0
56605,52615,61217,0,0,0
56758,52743,61438,0,0,0
56928,52877,61619,0,0,0
57088,52991,61772,0,0,0
57192,53061,61893,0,0,0
57266,53106,61971,0,0,0
57345,53148,62012,0,0,0
57397,53166,62033,0,0,0
57385,53145,62040,0,0,0
57355,53119,62029,0,0,0
57347,53112,62004,0,0,0
57327,53095,61976,0,0,0
57272,53057,61945,0,0,0
57228,53020,61900,0,0,0
57221,52994,61844,0,0,0
57195,52949,61784,0,0,0
57126,52878,61713,0,0,0
57061,52813,61624,0,0,0
57022,52766,61535,0,0,0
56964,52713,61461,0,0,0
56878,52649,61391,0,0,0
56815,52608,61315,0,0,0
56786,52588,61242,0,0,0
56737,52555,61177,0,0,0
56661,52504,61106,0,0,0
56608,52466,61025,0,0,0
56573,52440,60941,0,0,0
56504,52393,60854,0,0,0
56404,52329,60757,0,0,0
56328,52273,60642,0,0,0
56267,52215,60520,0,0,0
56164,52130,60403,0,0,0
56037,52031,60285,0,0,0
55946,51950,60159,0,0,0
55878,51878,60045,0,0,0
55783,51796,59953,0,0,0
55684,51724,59877,0,0,0
55642,51689,59815,0,0,0
55635,51669,59773,0,0,0
55602,51635,59747,0,0,0
55560,51601,59723,0,0,0
55556,51590,59694,0,0,0
55560,51577,59666,0,0,0
55522,51541,59637,0,0,0
55464,51501,59591,0,0,0
55422,51475,59529,0,0,0
55367,51434,59462,0,0,0
55271,51360,59384,0,0,0
55165,51277,59287,0,0,0
55081,51206,59176,0,0,0
54991,51129,59073,0,0,0
54871,51040,58980,0,0,0
54768,50968,58883,0,0,0
54713,50927,58789,0,0,0
54656,50883,58703,0,0,0
54567,50821,58613,0,0,0
54479,50762,58501,0,0,0
54408,50704,58373,0,0,0
54304,50617,58244,0,0,0
54152,50501,58108,0,0,0
54007,50391,57952,0,0,0
53885,50292,57790,0,0,0
53736,50178,57633,0,0,0
53561,50052,57474,0,0,0
53419,49949,57311,0,0,0
53310,49864,57149,0,0,0
53178,49764,56991,0,0,0
53026,49653,56827,0,0,0
52906,49561,56650,0,0,0
52812,49476,56478,0,0,0
52676,49367,56319,0,0,0
52507,49240,56158,0,0,0
52368,49131,55990,0,0,0
52252,49036,55826,0,0,0
52102,48927,55667,0,0,0
51934,48817,55507,0,0,0
51807,48736,55345,0,0,0
51698,48661,55184,0,0,0
51545,48558,55014,0,0,0
51364,48433,54821,0,0,0
51207,48312,54608,0,0,0
51055,48183,54397,0,0,0
50856,48025,54188,0,0,0
50642,47865,53970,0,0,0
50464,47730,53752,0,0,0
50306,47610,53553,0,0,0
50127,47485,53375,0,0,0
49954,47366,53198,0,0,0
49826,47264,53019,0,0,0
49701,47156,52844,0,0,0
49544,47031,52670,0,0,0
49387,46913,52482,0,0,0
49256,46810,52283,0,0,0
49106,46691,52085,0,0,0
48916,46547,51886,0,0,0
48738,46418,51687,0,0,0
48599,46311,51500,0,0,0
48453,46198,51332,0,0,0
48287,46081,51177,0,0,0
48153,45992,51031,0,0,0
48065,45939,50906,0,0,0
47976,45888,50807,0,0,0
47878,45833,50721,0,0,0
47824,45800,50636,0,0,0
47807,45777,50548,0,0,0
47757,45727,50459,0,0,0
47672,45658,50363,0,0,0
47603,45597,50254,0,0,0
47547,45539,50136,0,0,0
47451,45459,50020,0,0,0
47324,45363,49900,0,0,0
47223,45281,49776,0,0,0
47135,45207,49657,0,0,0
47010,45117,49548,0,0,0
46867,45021,49434,0,0,0
46762,44949,49308,0,0,0
46677,44885,49178,0,0,0
46561,44800,49044,0,0,0
46430,44702,48899,0,0,0
46341,44621,48755,0,0,0
46284,44560,48646,0,0,0
46228,44510,48592,0,0,0
46221,44506,48608,0,0,0
46318,44584,48709,0,0,0
46492,44725,48905,0,0,0
46700,44910,49198,0,0,0
46976,45157,49573,0,0,0
47356,45477,50027,0,0,0
47792,45829,50558,0,0,0
48243,46190,51147,0,0,0
48736,46578,51769,0,0,0
49288,46994,52419,0,0,0
49845,47407,53097,0,0,0
50365,47807,53786,0,0,0
50892,48219,54465,0,0,0
51446,48636,55127,0,0,0
51974,49025,55775,0,0,0
52449,49376,56406,0,0,0
52917,49726,57008,0,0,0
53392,50079,57575,0,0,0
53822,50400,58110,0,0,0
54198,50689,58606,0,0,0
54564,50974,59050,0,0,0
54914,51239,59445,0,0,0
55193,51446,59788,0,0,0
55399,51599,60066,0,0,0
55580,51729,60272,0,0,0
55734,51832,60419,0,0,0
55805,51874,60525,0,0,0
55813,51873,60590,0,0,0
55821,51872,60611,0,0,0
55824,51862,60608,0,0,0
55771,51815,60593,0,0,0
55676,51753,60557,0,0,0
55604,51712,60504,0,0,0
55552,51681,60448,0,0,0
55474,51630,60392,0,0,0
55384,51577,60329,0,0,0
55331,51549,60256,0,0,0
55295,51526,60183,0,0,0
55227,51482,60111,0,0,0
55148,51430,60027,0,0,0
55105,51388,59931,0,0,0
55068,51340,59840,0,0,0
54991,51268,59749,0,0,0
54902,51196,59648,0,0,0
54836,51140,59544,0,0,0
54762,51076,59453,0,0,0
54648,50995,59369,0,0,0
54532,50920,59270,0,0,0
54442,50860,59153,0,0,0
54342,50787,59033,0,0,0
54208,50691,58910,0,0,0
54087,50606,58779,0,0,0
54003,50541,58643,0,0,0
53907,50463,58506,0,0,0
53777,50367,58355,0,0,0
53652,50284,58183,0,0,0
53547,50208,58008,0,0,0
53414,50096,57841,0,0,0
53234,49956,57667,0,0,0
53068,49837,57483,0,0,0
52940,49741,57318,0,0,0
52807,49633,57190,0,0,0
52673,49531,57093,0,0,0
52598,49476,57017,0,0,0
52582,49463,56976,0,0,0
52566,49454,56973,0,0,0
52544,49448,56980,0,0,0
52572,49471,56984,0,0,0
52640,49513,56999,0,0,0
52680,49538,57031,0,0,0
52691,49552,57054,0,0,0
52727,49583,57054,0,0,0
52771,49607,57041,0,0,0
52762,49587,57014,0,0,0
52713,49539,56971,0,0,0
52680,49496,56919,0,0,0
52652,49451,56875,0,0,0
52585,49387,56841,0,0,0
52510,49331,56809,0,0,0
52482,49310,56780,0,0,0
52464,49296,56756,0,0,0
52405,49262,56730,0,0,0
52332,49228,56678,0,0,0
52288,49212,56605,0,0,0
52235,49184,56520,0,0,0
52138,49122,56414,0,0,0
52027,49044,56275,0,0,0
51933,48968,56115,0,0,0
51815,48870,55950,0,0,0
51647,48738,55775,0,0,0
51477,48605,55580,0,0,0
51329,48483,55379,0,0,0
51168,48352,55187,0,0,0
50981,48207,55002,0,0,0
50820,48082,54824,0,0,0
50701,47987,54660,0,0,0
50576,47892,54516,0,0,0
50433,47794,54381,0,0,0
50323,47720,54242,0,0,0
50258,47662,54107,0,0,0
50172,47580,53979,0,0,0
50042,47476,53837,0,0,0
49916,47376,53666,0,0,0
49800,47274,53475,0,0,0
49643,47143,53283,0,0,0
49454,47005,53092,0,0,0
49293,46894,52898,0,0,0
49154,46796,52707,0,0,0
48987,46680,52529,0,0,0
48802,46558,52358,0,0,0
48661,46464,52186,0,0,0
48546,46385,52016,0,0,0
48397,46279,51844,0,0,0
48225,46156,51655,0,0,0
48077,46037,51444,0,0,0
47925,45908,51226,0,0,0
47717,45743,50998,0,0,0
47484,45568,50760,0,0,0
47281,45412,50519,0,0,0
47088,45259,50278,0,0,0
46869,45085,50037,0,0,0
46642,44915,49779,0,0,0
46439,44764,49507,0,0,0
46230,44608,49243,0,0,0
45990,44435,48993,0,0,0
45759,44272,48751,0,0,0
45571,44134,48516,0,0,0
45407,44012,48308,0,0,0
45241,43900,48136,0,0,0
45107,43818,47988,0,0,0
45032,43775,47868,0,0,0
44969,43740,47778,0,0,0
44892,43695,47700,0,0,0
44845,43662,47616,0,0,0
44839,43641,47529,0,0,0
44805,43595,47446,0,0,0
44725,43521,47361,0,0,0
44649,43456,47267,0,0,0
44588,43401,47167,0,0,0
44498,43331,47065,0,0,0
44375,43251,46961,0,0,0
44275,43190,46849,0,0,0
44198,43140,46734,0,0,0
44083,43065,46614,0,0,0
43929,42961,46473,0,0,0
43795,42861,46302,0,0,0
43678,42758,46118,0,0,0
43523,42629,45933,0,0,0
43345,42486,45744,0,0,0
43212,42366,45560,0,0,0
43120,42269,45407,0,0,0
43022,42185,45308,0,0,0
42960,42148,45279,0,0,0
43010,42199,45341,0,0,0
43158,42326,45513,0,0,0
43355,42504,45799,0,0,0
43623,42745,46177,0,0,0
44000,43061,46632,0,0,0
44451,43419,47167,0,0,0
44924,43791,47776,0,0,0
45445,44193,48430,0,0,0
46040,44636,49113,0,0,0
46655,45089,49827,0,0,0
47238,45531,50562,0,0,0
47818,45980,51305,0,0,0
48423,46442,52044,0,0,0
49011,46889,52778,0,0,0
49551,47308,53498,0,0,0
50087,47728,54194,0,0,0
50642,48158,54862,0,0,0
51166,48557,55500,0,0,0
51633,48906,56087,0,0,0
52079,49229,56606,0,0,0
52505,49532,57059,0,0,0
52859,49783,57460,0,0,0
53129,49982,57806,0,0,0
53365,50155,58086,0,0,0
53583,50301,58317,0,0,0
53741,50399,58514,0,0,0
53832,50462,58677,0,0,0
53919,50532,58810,0,0,0
54014,50612,58928,0,0,0
54071,50671,59043,0,0,0
54097,50713,59141,0,0,0
54147,50762,59210,0,0,0
54204,50807,59252,0,0,0
54205,50813,59267,0,0,0
54158,50786,59245,0,0,0
54120,50756,59189,0,0,0
54093,50722,59122,0,0,0
54029,50662,59065,0,0,0
53944,50592,59007,0,0,0
53901,50546,58946,0,0,0
53882,50518,58892,0,0,0
53831,50480,58848,0,0,0
53761,50435,58792,0,0,0
53726,50407,58716,0,0,0
53696,50372,58627,0,0,0
53612,50298,58520,0,0,0
53493,50204,58391,0,0,0
53389,50118,58251,0,0,0
53285,50035,58121,0,0,0
53145,49943,58005,0,0,0
53013,49862,57882,0,0,0
52936,49811,57757,0,0,0
52870,49759,57643,0,0,0
52774,49688,57537,0,0,0
52686,49622,57417,0,0,0
52630,49568,57283,0,0,0
52561,49499,57149,0,0,0
52450,49409,57018,0,0,0
52351,49331,56895,0,0,0
52288,49276,56796,0,0,0
52215,49219,56725,0,0,0
52119,49158,56668,0,0,0
52056,49120,56612,0,0,0
52039,49105,56559,0,0,0
52011,49081,56511,0,0,0
51955,49043,56467,0,0,0
51918,49017,56418,0,0,0
51903,48999,56366,0,0,0
51850,48961,56319,0,0,0
51761,48906,56275,0,0,0
51702,48867,56231,0,0,0
51676,48844,56193,0,0,0
51629,48807,56168,0,0,0
51575,48768,56143,0,0,0
51569,48758,56108,0,0,0
51592,48766,56075,0,0,0
51577,48756,56044,0,0,0
51523,48730,56000,0,0,0
51483,48710,55936,0,0,0
51448,48683,55869,0,0,0
51369,48627,55800,0,0,0
51268,48557,55718,0,0,0
51199,48500,55620,0,0,0
51138,48441,55515,0,0,0
51033,48360,55406,0,0,0
50908,48263,55272,0,0,0
50808,48169,55112,0,0,0
50701,48065,54949,0,0,0
50539,47937,54780,0,0,0
50364,47810,54599,0,0,0
50223,47705,54416,0,0,0
50086,47605,54247,0,0,0
49921,47493,54092,0,0,0
49774,47400,53943,0,0,0
49678,47341,53802,0,0,0
49582,47277,53675,0,0,0
49456,47186,53546,0,0,0
49340,47090,53395,0,0,0
49251,47002,53228,0,0,0
49133,46897,53056,0,0,0
48965,46765,52869,0,0,0
48803,46636,52665,0,0,0
48666,46519,52467,0,0,0
48505,46393,52287,0,0,0
48315,46262,52113,0,0,0
48155,46155,51938,0,0,0
48029,46063,51764,0,0,0
47882,45952,51590,0,0,0
47705,45825,51404,0,0,0
47549,45712,51198,0,0,0
47411,45604,50986,0,0,0
47234,45471,50782,0,0,0
47034,45328,50576,0,0,0
46871,45207,50365,0,0,0
46737,45093,50167,0,0,0
46574,44966,49993,0,0,0
46406,44852,49839,0,0,0
46300,44782,49702,0,0,0
46236,44737,49589,0,0,0
46156,44687,49497,0,0,0
46074,44637,49411,0,0,0
46033,44609,49320,0,0,0
46002,44579,49227,0,0,0
45927,44516,49128,0,0,0
45827,44440,49017,0,0,0
45751,44375,48897,0,0,0
45681,44308,48786,0,0,0
45572,44222,48685,0,0,0
45462,44142,48588,0,0,0
45399,44091,48499,0,0,0
45345,44044,48421,0,0,0
45260,43984,48347,0,0,0
45186,43937,48264,0,0,0
45156,43912,48177,0,0,0
45120,43873,48096,0,0,0
45048,43809,48016,0,0,0
44980,43751,47922,0,0,0
44940,43707,47819,0,0,0
44881,43656,47722,0,0,0
44785,43596,47632,0,0,0
44706,43556,47540,0,0,0
44665,43536,47457,0,0,0
44610,43507,47397,0,0,0
44525,43464,47341,0,0,0
44456,43424,47263,0,0,0
44405,43382,47160,0,0,0
44320,43310,47037,0,0,0
44201,43216,46900,0,0,0
44101,43129,46755,0,0,0
44023,43056,46617,0,0,0
43920,42979,46503,0,0,0
43806,42907,46410,0,0,0
43748,42872,46343,0,0,0
43745,42874,46327,0,0,0
43752,42894,46379,0,0,0
43793,42950,46491,0,0,0
43940,43073,46665,0,0,0
44183,43253,46914,0,0,0
44450,43456,47233,0,0,0
44740,43683,47601,0,0,0
45105,43954,48015,0,0,0
45529,44260,48494,0,0,0
45954,44580,49042,0,0,0
46399,44929,49643,0,0,0
46911,45328,50293,0,0,0
47459,45747,50981,0,0,0
47994,46159,51689,0,0,0
48537,46573,52390,0,0,0
49115,46997,53072,0,0,0
49674,47401,53740,0,0,0
50160,47760,54375,0,0,0
50609,48098,54955,0,0,0
51054,48428,55481,0,0,0
51457,48722,55968,0,0,0
51789,48969,56418,0,0,0
52097,49202,56826,0,0,0
52409,49434,57196,0,0,0
52685,49644,57541,0,0,0
52904,49820,57852,0,0,0
53110,49985,58114,0,0,0
53320,50141,58327,0,0,0
53483,50261,58496,0,0,0
53578,50332,58617,0,0,0
53649,50372,58682,0,0,0
53702,50385,58700,0,0,0
53688,50350,58688,0,0,0
53613,50279,58645,0,0,0
53543,50216,58573,0,0,0
53488,50167,58497,0,0,0
53396,50109,58433,0,0,0
53279,50046,58369,0,0,0
53200,50006,58295,0,0,0
53149,49980,58219,0,0,0
53064,49931,58147,0,0,0
52963,49869,58068,0,0,0
52903,49829,57973,0,0,0
52863,49799,57877,0,0,0
52780,49743,57787,0,0,0
52676,49671,57696,0,0,0
52605,49608,57597,0,0,0
52545,49545,57496,0,0,0
52449,49465,57399,0,0,0
52341,49387,57295,0,0,0
52267,49330,57181,0,0,0
52188,49265,57059,0,0,0
52058,49162,56920,0,0,0
51902,49042,56756,0,0,0
51765,48927,56579,0,0,0
51634,48813,56413,0,0,0
51480,48692,56262,0,0,0
51343,48593,56116,0,0,0
51260,48531,55981,0,0,0
51192,48474,55866,0,0,0
51109,48407,55763,0,0,0
51043,48354,55652,0,0,0
51012,48323,55542,0,0,0
50964,48278,55450,0,0,0
50872,48209,55370,0,0,0
50784,48147,55291,0,0,0
50718,48102,55213,0,0,0
50635,48052,55151,0,0,0
50531,47992,55101,0,0,0
50463,47951,55058,0,0,0
50445,47936,55027,0,0,0
50424,47923,55014,0,0,0
50385,47906,55004,0,0,0
50366,47898,54973,0,0,0
50361,47884,54926,0,0,0
50311,47833,54872,0,0,0
50220,47758,54802,0,0,0
50154,47700,54710,0,0,0
50108,47653,54611,0,0,0
50026,47589,54520,0,0,0
49924,47520,54432,0,0,0
49868,47476,54342,0,0,0
49835,47440,54245,0,0,0
49756,47379,54139,0,0,0
49643,47298,54019,0,0,0
49553,47223,53883,0,0,0
49469,47140,53741,0,0,0
49332,47023,53596,0,0,0
49161,46895,53438,0,0,0
49010,46785,53265,0,0,0
48857,46677,53087,0,0,0
48669,46550,52912,0,0,0
48481,46426,52733,0,0,0
48340,46328,52558,0,0,0
48216,46236,52389,0,0,0
48069,46132,52224,0,0,0
47921,46032,52048,0,0,0
47798,45942,51856,0,0,0
47665,45835,51658,0,0,0
47491,45700,51452,0,0,0
47312,45565,51230,0,0,0
47151,45440,51000,0,0,0
46973,45302,50781,0,0,0
46771,45149,50575,0,0,0
46591,45012,50371,0,0,0
46448,44901,50179,0,0,0
46287,44783,50005,0,0,0
46095,44652,49833,0,0,0
45931,44540,49657,0,0,0
45807,44446,49487,0,0,0
45667,44341,49331,0,0,0
45507,44233,49176,0,0,0
45390,44153,49018,0,0,0
45322,44094,48874,0,0,0
45236,44024,48743,0,0,0
45126,43943,48614,0,0,0
45041,43874,48477,0,0,0
44970,43807,48332,0,0,0
44860,43717,48189,0,0,0
44727,43620,48043,0,0,0
44628,43540,47891,0,0,0
44542,43465,47745,0,0,0
44411,43365,47610,0,0,0
44248,43253,47472,0,0,0
44113,43157,47323,0,0,0
43995,43071,47175,0,0,0
43843,42973,47031,0,0,0
43682,42878,46887,0,0,0
43574,42808,46746,0,0,0
43490,42746,46615,0,0,0
43381,42668,46495,0,0,0
43275,42593,46371,0,0,0
43212,42539,46240,0,0,0
43150,42481,46111,0,0,0
43043,42397,45976,0,0,0
42915,42300,45815,0,0,0
42792,42199,45627,0,0,0
42644,42075,45431,0,0,0
42450,41924,45228,0,0,0
42255,41777,45003,0,0,0
42080,41639,44764,0,0,0
41889,41489,44527,0,0,0
41664,41323,44297,0,0,0
41460,41164,44068,0,0,0
41300,41028,43852,0,0,0
41140,40903,43672,0,0,0
40979,40793,43532,0,0,0
40888,40737,43438,0,0,0
40885,40738,43405,0,0,0
40925,40771,43449,0,0,0
41000,40837,43572,0,0,0
41170,40967,43769,0,0,0
41439,41162,44046,0,0,0
41741,41391,44404,0,0,0
42068,41646,44829,0,0,0
42469,41947,45304,0,0,0
42925,42283,45824,0,0,0
43366,42617,46384,0,0,0
43791,42951,46967,0,0,0
44251,43307,47562,0,0,0
44730,43669,48170,0,0,0
45171,44008,48785,0,0,0
45581,44326,49372,0,0,0
46003,44643,49916,0,0,0
46412,44941,50427,0,0,0
46756,45200,50909,0,0,0
47062,45439,51349,0,0,0
47383,45686,51743,0,0,0
47694,45917,52100,0,0,0
47942,46102,52415,0,0,0
48142,46248,52671,0,0,0
48331,46374,52865,0,0,0
48476,46460,53010,0,0,0
48534,46489,53104,0,0,0
48549,46490,53142,0,0,0
48566,46485,53141,0,0,0
48562,46458,53127,0,0,0
48513,46406,53105,0,0,0
48462,46362,53071,0,0,0
48446,46346,53038,0,0,0
48424,46328,53009,0,0,0
48365,46295,52967,0,0,0
48316,46272,52903,0,0,0
48292,46261,52822,0,0,0
48242,46231,52738,0,0,0
48147,46175,52650,0,0,0
48062,46115,52550,0,0,0
48004,46059,52441,0,0,0
47920,45984,52326,0,0,0
47789,45893,52203,0,0,0
47666,45817,52077,0,0,0
47567,45752,51947,0,0,0
47449,45664,51814,0,0,0
47313,45564,51679,0,0,0
47227,45495,51548,0,0,0
47187,45453,51429,0,0,0
47122,45398,51321,0,0,0
47039,45325,51227,0,0,0
46994,45255,51145,0,0,0
46971,45197,51070,0,0,0
46907,45135,50997,0,0,0
46820,45079,50921,0,0,0
46771,45052,50846,0,0,0
46741,45039,50781,0,0,0
46676,45014,50731,0,0,0
46603,44989,50688,0,0,0
46576,44989,50649,0,0,0
46572,44995,50623,0,0,0
46546,44989,50613,0,0,0
46528,44989,50609,0,0,0
46565,45014,50612,0,0,0
46618,45041,50628,0,0,0
46639,45051,50655,0,0,0
46656,45063,50676,0,0,0
46703,45086,50683,0,0,0
46749,45104,50693,0,0,0
46755,45115,50713,0,0,0
46760,45146,50733,0,0,0
46803,45187,50761,0,0,0
46847,45210,50814,0,0,0
46866,45217,50877,0,0,0
46896,45236,50928,0,0,0
46956,45275,50977,0,0,0
46996,45308,51030,0,0,0
46994,45320,51067,0,0,0
46993,45329,51070,0,0,0
47006,45337,51043,0,0,0
46978,45315,51000,0,0,0
46896,45266,50941,0,0,0
46816,45218,50861,0,0,0
46749,45169,50771,0,0,0
46654,45101,50686,0,0,0
46538,45026,50605,0,0,0
46461,44978,50519,0,0,0
46421,44949,50434,0,0,0
46357,44906,50352,0,0,0
46271,44848,50255,0,0,0
46209,44794,50128,0,0,0
46156,44731,49989,0,0,0
46047,44631,49843,0,0,0
45897,44510,49681,0,0,0
45773,44403,49506,0,0,0
45666,44303,49337,0,0,0
45523,44187,49186,0,0,0
45369,44073,49040,0,0,0
45266,43990,48898,0,0,0
45189,43926,48768,0,0,0
45087,43858,48653,0,0,0
44987,43797,48540,0,0,0
44939,43762,48424,0,0,0
44903,43728,48319,0,0,0
44825,43671,48221,0,0,0
44735,43603,48111,0,0,0
44670,43539,47988,0,0,0
44597,43470,47871,0,0,0
44475,43381,47764,0,0,0
44341,43297,47657,0,0,0
44241,43238,47550,0,0,0
44151,43180,47451,0,0,0
44047,43107,47360,0,0,0
43973,43049,47274,0,0,0
43950,43020,47200,0,0,0
43927,42994,47147,0,0,0
43882,42961,47099,0,0,0
43857,42945,47042,0,0,0
43861,42946,46975,0,0,0
43841,42930,46904,0,0,0
43779,42889,46822,0,0,0
43719,42844,46719,0,0,0
43663,42795,46599,0,0,0
43560,42716,46473,0,0,0
43415,42610,46338,0,0,0
43287,42511,46193,0,0,0
43178,42421,46047,0,0,0
43038,42315,45915,0,0,0
42878,42205,45789,0,0,0
42764,42126,45663,0,0,0
42696,42079,45546,0,0,0
42613,42026,45444,0,0,0
42526,41970,45351,0,0,0
42497,41945,45275,0,0,0
42517,41947,45238,0,0,0
42531,41956,45256,0,0,0
42572,41997,45339,0,0,0
42710,42106,45495,0,0,0
42932,42269,45741,0,0,0
43184,42460,46081,0,0,0
43485,42699,46500,0,0,0
43883,43005,46983,0,0,0
44336,43347,47526,0,0,0
44786,43701,48119,0,0,0
45257,44073,48738,0,0,0
45782,44470,49368,0,0,0
46315,44868,50020,0,0,0
46809,45245,50680,0,0,0
47294,45615,51323,0,0,0
47796,45987,51944,0,0,0
48280,46339,52552,0,0,0
48718,46657,53145,0,0,0
49149,46968,53706,0,0,0
49594,47286,54231,0,0,0
50002,47581,54727,0,0,0
50349,47843,55184,0,0,0
50674,48091,55577,0,0,0
50995,48328,55909,0,0,0
51263,48524,56200,0,0,0
51460,48673,56451,0,0,0
51638,48804,56657,0,0,0
51809,48921,56828,0,0,0
51922,48999,56976,0,0,0
51981,49049,57094,0,0,0
52043,49103,57176,0,0,0
52107,49153,57236,0,0,0
52121,49172,57282,0,0,0
52094,49165,57300,0,0,0
52087,49164,57283,0,0,0
52096,49167,57249,0,0,0
52060,49143,57208,0,0,0
51989,49102,57147,0,0,0
51939,49071,57062,0,0,0
51900,49034,56963,0,0,0
51815,48964,56854,0,0,0
51700,48881,56732,0,0,0
51616,48812,56602,0,0,0
51551,48751,56485,0,0,0
51452,48673,56381,0,0,0
51345,48597,56282,0,0,0
51277,48548,56187,0,0,0
51218,48502,56100,0,0,0
51124,48437,56014,0,0,0
51025,48366,55907,0,0,0
50959,48305,55779,0,0,0
50887,48230,55646,0,0,0
50771,48128,55508,0,0,0
50646,48030,55353,0,0,0
50553,47952,55188,0,0,0
50461,47870,55035,0,0,0
50337,47773,54897,0,0,0
50226,47689,54767,0,0,0
50151,47628,54648,0,0,0
50075,47565,54555,0,0,0
49985,47500,54486,0,0,0
49923,47461,54432,0,0,0
49910,47456,54393,0,0,0
49892,47452,54371,0,0,0
49852,47432,54355,0,0,0
49837,47421,54333,0,0,0
49848,47421,54310,0,0,0
49837,47408,54299,0,0,0
49807,47386,54293,0,0,0
49810,47388,54282,0,0,0
49846,47413,54280,0,0,0
49852,47428,54294,0,0,0
49828,47434,54308,0,0,0
49838,47466,54314,0,0,0
49871,47507,54322,0,0,0
49862,47519,54335,0,0,0
49829,47507,54335,0,0,0
49832,47503,54320,0,0,0
49859,47500,54302,0,0,0
49845,47468,54278,0,0,0
49803,47416,54229,0,0,0
49786,47370,54154,0,0,0
49773,47324,54072,0,0,0
49711,47252,53986,0,0,0
49622,47170,53889,0,0,0
49553,47105,53786,0,0,0
49489,47047,53692,0,0,0
49389,46978,53606,0,0,0
49279,46913,53511,0,0,0
49202,46868,53402,0,0,0
49122,46816,53287,0,0,0
49000,46734,53162,0,0,0
48865,46643,53017,0,0,0
48755,46560,52854,0,0,0
48637,46465,52683,0,0,0
48482,46342,52500,0,0,0
48325,46216,52296,0,0,0
48191,46102,52082,0,0,0
48038,45975,51871,0,0,0
47842,45822,51662,0,0,0
47657,45679,51453,0,0,0
47513,45561,51264,0,0,0
47367,45447,51109,0,0,0
47209,45336,50974,0,0,0
47094,45260,50847,0,0,0
47033,45221,50740,0,0,0
46968,45183,50659,0,0,0
46894,45135,50593,0,0,0
46866,45101,50527,0,0,0
46867,45082,50459,0,0,0
46830,45056,50394,0,0,0
46760,45023,50327,0,0,0
46714,45004,50245,0,0,0
46681,44986,50155,0,0,0
46603,44943,50068,0,0,0
46498,44883,49976,0,0,0
46432,44841,49877,0,0,0
46387,44806,49777,0,0,0
46307,44749,49677,0,0,0
46203,44678,49560,0,0,0
46126,44615,49420,0,0,0
46051,44539,49271,0,0,0
45921,44427,49114,0,0,0
45762,44302,48949,0,0,0
45632,44198,48783,0,0,0
45511,44100,48629,0,0,0
45356,43990,48490,0,0,0
45199,43884,48346,0,0,0
45082,43801,48194,0,0,0
44971,43718,48043,0,0,0
44827,43618,47892,0,0,0
44682,43520,47727,0,0,0
44580,43439,47559,0,0,0
44488,43359,47412,0,0,0
44383,43279,47298,0,0,0
44322,43236,47227,0,0,0
44344,43253,47223,0,0,0
44418,43310,47306,0,0,0
44529,43406,47474,0,0,0
44726,43572,47718,0,0,0
45019,43806,48042,0,0,0
45344,44066,48441,0,0,0
45678,44337,48897,0,0,0
46068,44645,49395,0,0,0
46519,44990,49941,0,0,0
46971,45340,50543,0,0,0
47418,45690,51185,0,0,0
47926,46081,51856,0,0,0
48497,46519,52570,0,0,0
49067,46961,53322,0,0,0
49625,47403,54086,0,0,0
50222,47868,54838,0,0,0
50839,48341,55572,0,0,0
51403,48778,56275,0,0,0
51919,49179,56925,0,0,0
52444,49572,57521,0,0,0
52962,49942,58076,0,0,0
53404,50255,58589,0,0,0
53775,50522,59037,0,0,0
54132,50771,59418,0,0,0
54459,50993,59757,0,0,0
54706,51171,60070,0,0,0
54906,51330,60350,0,0,0
55122,51503,60601,0,0,0
55333,51674,60833,0,0,0
55492,51812,61042,0,0,0
55624,51930,61215,0,0,0
55768,52047,61353,0,0,0
55887,52133,61459,0,0,0
55941,52168,61531,0,0,0
55971,52180,61562,0,0,0
56014,52196,61564,0,0,0
56042,52199,61564,0,0,0
56024,52179,61569,0,0,0
56012,52171,61579,0,0,0
56040,52191,61602,0,0,0
56069,52210,61639,0,0,0
56075,52215,61676,0,0,0
56106,52236,61702,0,0,0
56172,52281,61724,0,0,0
56224,52318,61744,0,0,0
56241,52335,61750,0,0,0
56258,52346,61723,0,0,0
56277,52346,61673,0,0,0
56247,52306,61608,0,0,0
56163,52232,61523,0,0,0
56082,52162,61411,0,0,0
56012,52098,61284,0,0,0
55908,52014,61170,0,0,0
55783,51923,61065,0,0,0
55698,51859,60951,0,0,0
55645,51810,60835,0,0,0
55562,51743,60725,0,0,0
55449,51664,60605,0,0,0
55360,51600,60469,0,0,0
55291,51544,60338,0,0,0
55183,51467,60219,0,0,0
55049,51379,60101,0,0,0
54948,51311,59981,0,0,0
54871,51248,59871,0,0,0
54764,51163,59771,0,0,0
54644,51075,59668,0,0,0
54551,51004,59551,0,0,0
54441,50913,59408,0,0,0
54249,50764,59223,0,0,0
53991,50567,58972,0,0,0
53718,50346,58656,0,0,0
53406,50090,58303,0,0,0
53029,49792,57928,0,0,0
52643,49496,57543,0,0,0
52314,49240,57181,0,0,0
52032,49020,56879,0,0,0
51777,48836,56644,0,0,0
51590,48713,56461,0,0,0
51493,48651,56324,0,0,0
51428,48606,56229,0,0,0
51350,48554,56157,0,0,0
51293,48514,56085,0,0,0
51265,48486,56008,0,0,0
51209,48441,55930,0,0,0
51101,48373,55843,0,0,0
50991,48310,55736,0,0,0
50902,48262,55626,0,0,0
50799,48206,55530,0,0,0
50676,48141,55435,0,0,0
50588,48093,55327,0,0,0
50539,48057,55209,0,0,0
50458,47990,55075,0,0,0
50326,47885,54911,0,0,0
50192,47773,54713,0,0,0
50061,47651,54496,0,0,0
49889,47501,54289,0,0,0
49695,47348,54100,0,0,0
49547,47231,53928,0,0,0
49438,47144,53778,0,0,0
49313,47054,53655,0,0,0
49180,46968,53541,0,0,0
49094,46908,53428,0,0,0
49033,46855,53316,0,0,0
48932,46778,53199,0,0,0
48803,46687,53064,0,0,0
48704,46609,52910,0,0,0
48611,46533,52758,0,0,0
48471,46432,52614,0,0,0
48314,46331,52460,0,0,0
48187,46249,52291,0,0,0
48057,46156,52110,0,0,0
47884,46031,51917,0,0,0
47701,45903,51709,0,0,0
47555,45800,51504,0,0,0
47415,45701,51319,0,0,0
47253,45589,51145,0,0,0
47100,45480,50960,0,0,0
46987,45390,50771,0,0,0
46873,45296,50597,0,0,0
46724,45179,50427,0,0,0
46584,45066,50252,0,0,0
46474,44970,50078,0,0,0
46348,44867,49914,0,0,0
46186,44747,49749,0,0,0
46036,44632,49571,0,0,0
45906,44524,49385,0,0,0
45743,44390,49197,0,0,0
45541,44231,48998,0,0,0
45361,44090,48787,0,0,0
45221,43981,48585,0,0,0
45070,43879,48414,0,0,0
44905,43780,48263,0,0,0
44787,43708,48119,0,0,0
44716,43656,47986,0,0,0
44620,43576,47856,0,0,0
44490,43468,47708,0,0,0
44367,43359,47525,0,0,0
44225,43233,47308,0,0,0
44005,43059,47063,0,0,0
43735,42858,46794,0,0,0
43501,42680,46526,0,0,0
43317,42538,46294,0,0,0
43146,42423,46123,0,0,0
43019,42353,46015,0,0,0
43001,42356,45981,0,0,0
43071,42422,46043,0,0,0
43173,42519,46201,0,0,0
43330,42659,46439,0,0,0
43583,42865,46746,0,0,0
43896,43112,47131,0,0,0
44215,43368,47580,0,0,0
44560,43645,48072,0,0,0
44963,43961,48595,0,0,0
45385,44289,49148,0,0,0
45778,44606,49717,0,0,0
46177,44930,50280,0,0,0
46615,45272,50838,0,0,0
47038,45591,51393,0,0,0
47409,45868,51928,0,0,0
47766,46128,52419,0,0,0
48127,46381,52866,0,0,0
48450,46603,53284,0,0,0
48715,46796,53669,0,0,0
48967,46992,54011,0,0,0
49224,47191,54314,0,0,0
49434,47356,54588,0,0,0
49581,47485,54821,0,0,0
49720,47613,55010,0,0,0
49880,47748,55180,0,0,0
50018,47856,55344,0,0,0
50129,47940,55493,0,0,0
50262,48035,55630,0,0,0
50413,48140,55765,0,0,0
50520,48218,55899,0,0,0
50581,48268,56011,0,0,0
50649,48318,56088,0,0,0
50721,48357,56139,0,0,0
50737,48359,56170,0,0,0
50715,48343,56181,0,0,0
50725,48345,56177,0,0,0
50764,48355,56179,0,0,0
50773,48345,56193,0,0,0
50767,48336,56210,0,0,0
50804,48363,56228,0,0,0
50861,48401,56251,0,0,0
50864,48407,56271,0,0,0
50830,48391,56268,0,0,0
50806,48376,56232,0,0,0
50752,48328,56153,0,0,0
50617,48217,56025,0,0,0
50439,48067,55839,0,0,0
50271,47910,55607,0,0,0
50090,47738,55353,0,0,0
49862,47545,55089,0,0,0
49630,47361,54826,0,0,0
49439,47206,54577,0,0,0
49260,47057,54356,0,0,0
49059,46902,54154,0,0,0
48872,46765,53953,0,0,0
48718,46651,53749,0,0,0
48549,46530,53547,0,0,0
48336,46384,53327,0,0,0
48115,46228,53066,0,0,0
47902,46065,52769,0,0,0
47646,45862,52451,0,0,0
47334,45622,52115,0,0,0
47024,45382,51767,0,0,0
46737,45152,51421,0,0,0
46434,44917,51093,0,0,0
46122,44689,50783,0,0,0
45859,44499,50487,0,0,0
45646,44341,50214,0,0,0
45424,44175,49965,0,0,0
45187,43999,49722,0,0,0
44982,43838,49467,0,0,0
44803,43686,49215,0,0,0
44595,43515,48984,0,0,0
44367,43341,48767,0,0,0
44177,43199,48557,0,0,0
44013,43075,48355,0,0,0
43824,42940,48164,0,0,0
43622,42805,47974,0,0,0
43465,42697,47783,0,0,0
43337,42599,47600,0,0,0
43177,42477,47421,0,0,0
42995,42343,47229,0,0,0
42838,42221,47025,0,0,0
42686,42105,46834,0,0,0
42498,41976,46661,0,0,0
42311,41859,46494,0,0,0
42175,41777,46337,0,0,0
42058,41703,46195,0,0,0
41917,41612,46060,0,0,0
41785,41526,45917,0,0,0
41700,41460,45762,0,0,0
41609,41383,45602,0,0,0
41472,41277,45428,0,0,0
41332,41172,45239,0,0,0
41227,41083,45053,0,0,0
41119,40988,44889,0,0,0
40984,40883,44746,0,0,0
40868,40800,44624,0,0,0
40804,40750,44526,0,0,0
40754,40710,44456,0,0,0
40693,40670,44401,0,0,0
40658,40653,44348,0,0,0
40663,40659,44298,0,0,0
40656,40655,44258,0,0,0
40625,40632,44221,0,0,0
40622,40616,44182,0,0,0
40646,40606,44144,0,0,0
40642,40580,44126,0,0,0
40610,40552,44122,0,0,0
40606,40549,44116,0,0,0
40632,40568,44111,0,0,0
40625,40572,44107,0,0,0
40583,40554,44078,0,0,0
40553,40539,44011,0,0,0
40525,40516,43924,0,0,0
40438,40451,43818,0,0,0
40309,40360,43688,0,0,0
40194,40274,43533,0,0,0
40080,40182,43364,0,0,0
39913,40058,43182,0,0,0
39716,39918,42978,0,0,0
39540,39793,42754,0,0,0
39363,39667,42518,0,0,0
39137,39512,42270,0,0,0
38895,39339,42001,0,0,0
38682,39171,41705,0,0,0
38455,38987,41391,0,0,0
38166,38764,41059,0,0,0
37849,38531,40702,0,0,0
37557,38313,40331,0,0,0
37270,38103,39978,0,0,0
36965,37893,39653,0,0,0
36688,37711,39351,0,0,0
36475,37572,39076,0,0,0
36287,37447,38833,0,0,0
36101,37325,38620,0,0,0
35959,37230,38427,0,0,0
35875,37168,38263,0,0,0
35802,37111,38142,0,0,0
35721,37053,38058,0,0,0
35676,37029,37997,0,0,0
35689,37047,37969,0,0,0
35714,37080,37990,0,0,0
35738,37124,38050,0,0,0
35814,37204,38130,0,0,0
35952,37321,38238,0,0,0
36098,37442,38386,0,0,0
36254,37566,38562,0,0,0
36469,37721,38755,0,0,0
36738,37907,38984,0,0,0
37012,38103,39279,0,0,0
37302,38322,39646,0,0,0
37668,38591,40080,0,0,0
38100,38907,40589,0,0,0
38546,39250,41172,0,0,0
39024,39625,41813,0,0,0
39587,40054,42499,0,0,0
40204,40515,43232,0,0,0
40809,40976,44003,0,0,0
41410,41437,44786,0,0,0
42054,41917,45566,0,0,0
42712,42397,46351,0,0,0
43324,42848,47136,0,0,0
43913,43296,47915,0,0,0
44521,43767,48685,0,0,0
45125,44236,49443,0,0,0
45680,44671,50173,0,0,0
46208,45087,50854,0,0,0
46745,45504,51492,0,0,0
47256,45895,52095,0,0,0
47702,46235,52653,0,0,0
48109,46538,53145,0,0,0
48499,46813,53568,0,0,0
48837,47048,53953,0,0,0
49096,47237,54307,0,0,0
49326,47407,54618,0,0,0
49563,47571,54893,0,0,0
49761,47703,55135,0,0,0
49901,47799,55339,0,0,0
50031,47890,55497,0,0,0
50172,47978,55617,0,0,0
50275,48038,55710,0,0,0
50333,48079,55790,0,0,0
50404,48129,55857,0,0,0
50505,48194,55926,0,0,0
50581,48249,56011,0,0,0
50631,48295,56107,0,0,0
50716,48363,56204,0,0,0
50839,48448,56313,0,0,0
50943,48517,56438,0,0,0
51031,48578,56561,0,0,0
51155,48661,56665,0,0,0
51296,48745,56748,0,0,0
51377,48784,56805,0,0,0
51400,48783,56830,0,0,0
51418,48777,56820,0,0,0
51417,48755,56784,0,0,0
51348,48693,56730,0,0,0
51242,48615,56652,0,0,0
51164,48550,56548,0,0,0
51093,48479,56431,0,0,0
50974,48378,56305,0,0,0
50830,48264,56155,0,0,0
50708,48159,55983,0,0,0
50576,48044,55801,0,0,0
50392,47903,55611,0,0,0
50203,47765,55421,0,0,0
50058,47654,55242,0,0,0
49933,47556,55093,0,0,0
49800,47461,54964,0,0,0
49690,47385,54838,0,0,0
49629,47335,54716,0,0,0
49569,47271,54595,0,0,0
49471,47176,54466,0,0,0
49362,47069,54315,0,0,0
49260,46957,54146,0,0,0
49129,46829,53979,0,0,0
48957,46686,53817,0,0,0
48800,46561,53654,0,0,0
48684,46464,53499,0,0,0
48560,46364,53354,0,0,0
48412,46257,53213,0,0,0
48284,46168,53067,0,0,0
48188,46093,52921,0,0,0
48064,45993,52777,0,0,0
47904,45870,52625,0,0,0
47764,45764,52468,0,0,0
47645,45674,52323,0,0,0
47496,45572,52197,0,0,0
47326,45460,52066,0,0,0
47196,45367,51923,0,0,0
47099,45288,51774,0,0,0
46969,45188,51618,0,0,0
46816,45077,51454,0,0,0
46697,44977,51284,0,0,0
46596,44877,51122,0,0,0
46459,44758,50976,0,0,0
46308,44642,50837,0,0,0
46202,44559,50702,0,0,0
46121,44495,50578,0,0,0
46009,44424,50466,0,0,0
45883,44351,50352,0,0,0
45788,44294,50227,0,0,0
45697,44232,50088,0,0,0
45563,44141,49928,0,0,0
45408,44031,49735,0,0,0
45272,43916,49515,0,0,0
45128,43787,49286,0,0,0
44935,43634,49051,0,0,0
44737,43485,48806,0,0,0
44569,43355,48563,0,0,0
44393,43216,48330,0,0,0
44183,43057,48103,0,0,0
43983,42909,47877,0,0,0
43825,42785,47655,0,0,0
43663,42657,47446,0,0,0
43472,42515,47243,0,0,0
43296,42385,47031,0,0,0
43148,42271,46810,0,0,0
42981,42143,46589,0,0,0
42775,41993,46370,0,0,0
42582,41853,46149,0,0,0
42412,41726,45930,0,0,0
42220,41588,45724,0,0,0
42007,41448,45529,0,0,0
41827,41332,45330,0,0,0
41686,41237,45135,0,0,0
41529,41130,44950,0,0,0
41356,41010,44762,0,0,0
41216,40899,44565,0,0,0
41093,40790,44369,0,0,0
40930,40664,44185,0,0,0
40748,40539,44009,0,0,0
40616,40451,43845,0,0,0
40525,40392,43710,0,0,0
40424,40337,43608,0,0,0
40330,40296,43520,0,0,0
40305,40291,43445,0,0,0
40319,40298,43387,0,0,0
40301,40282,43338,0,0,0
40267,40260,43286,0,0,0
40268,40262,43237,0,0,0
40289,40279,43215,0,0,0
40289,40296,43228,0,0,0
40302,40328,43258,0,0,0
40370,40391,43304,0,0,0
40448,40451,43361,0,0,0
40489,40483,43414,0,0,0
40521,40507,43444,0,0,0
40574,40535,43449,0,0,0
40614,40551,43451,0,0,0
40607,40542,43450,0,0,0
40602,40536,43436,0,0,0
40631,40551,43414,0,0,0
40642,40554,43391,0,0,0
40609,40533,43354,0,0,0
40581,40515,43295,0,0,0
40581,40508,43233,0,0,0
40565,40491,43197,0,0,0
40534,40479,43205,0,0,0
40567,40524,43266,0,0,0
40690,40631,43397,0,0,0
40856,40773,43609,0,0,0
41061,40950,43894,0,0,0
41346,41175,44231,0,0,0
41702,41436,44620,0,0,0
42060,41694,45065,0,0,0
42410,41949,45554,0,0,0
42815,42244,46080,0,0,0
43279,42581,46654,0,0,0
43744,42928,47272,0,0,0
44203,43281,47905,0,0,0
44699,43664,48531,0,0,0
45214,44056,49151,0,0,0
45678,44412,49756,0,0,0
46100,44742,50337,0,0,0
46532,45077,50888,0,0,0
46954,45395,51411,0,0,0
47308,45663,51900,0,0,0
47611,45897,52338,0,0,0
47912,46122,52721,0,0,0
48179,46315,53057,0,0,0
48365,46454,53344,0,0,0
48500,46558,53563,0,0,0
48634,46647,53713,0,0,0
48734,46695,53801,0,0,0
48756,46687,53836,0,0,0
48726,46646,53811,0,0,0
48684,46587,53734,0,0,0
48605,46501,53630,0,0,0
48463,46383,53505,0,0,0
48310,46270,53357,0,0,0
48183,46176,53200,0,0,0
48049,46082,53054,0,0,0
47889,45979,52913,0,0,0
47746,45885,52762,0,0,0
47642,45801,52608,0,0,0
47523,45692,52459,0,0,0
47366,45555,52304,0,0,0
47224,45427,52145,0,0,0
47105,45325,51982,0,0,0
46950,45222,51813,0,0,0
46757,45109,51641,0,0,0
46590,45013,51469,0,0,0
46452,44928,51297,0,0,0
46284,44816,51122,0,0,0
46083,44682,50932,0,0,0
45907,44560,50718,0,0,0
45764,44448,50494,0,0,0
45593,44311,50271,0,0,0
45392,44155,50036,0,0,0
45213,44012,49784,0,0,0
45047,43874,49533,0,0,0
44847,43717,49299,0,0,0
44641,43567,49087,0,0,0
44497,43462,48900,0,0,0
44396,43381,48740,0,0,0
44273,43288,48609,0,0,0
44143,43202,48490,0,0,0
44063,43149,48373,0,0,0
44011,43112,48264,0,0,0
43935,43062,48165,0,0,0
43854,43013,48073,0,0,0
43814,42987,47994,0,0,0
43797,42968,47945,0,0,0
43758,42937,47920,0,0,0
43721,42916,47901,0,0,0
43723,42925,47891,0,0,0
43733,42944,47903,0,0,0
43720,42950,47922,0,0,0
43717,42959,47931,0,0,0
43750,42984,47942,0,0,0
43770,42992,47956,0,0,0
43744,42976,47951,0,0,0
43718,42963,47914,0,0,0
43709,42956,47857,0,0,0
43672,42923,47792,0,0,0
43600,42866,47724,0,0,0
43544,42819,47659,0,0,0
43518,42791,47607,0,0,0
43474,42752,47569,0,0,0
43408,42707,47530,0,0,0
43376,42689,47486,0,0,0
43381,42695,47445,0,0,0
43372,42687,47418,0,0,0
43341,42665,47392,0,0,0
43337,42658,47347,0,0,0
43356,42663,47292,0,0,0
43334,42642,47236,0,0,0
43277,42605,47177,0,0,0
43247,42585,47116,0,0,0
43232,42571,47061,0,0,0
43182,42533,47018,0,0,0
43116,42490,46981,0,0,0
43094,42476,46945,0,0,0
43102,42478,46911,0,0,0
43082,42465,46874,0,0,0
43038,42435,46816,0,0,0
43010,42405,46730,0,0,0
42978,42367,46630,0,0,0
42893,42303,46523,0,0,0
42786,42232,46407,0,0,0
42713,42184,46293,0,0,0
42644,42139,46194,0,0,0
42534,42075,46106,0,0,0
42428,42017,46020,0,0,0
42377,41988,45934,0,0,0
42339,41960,45849,0,0,0
42267,41909,45760,0,0,0
42192,41856,45655,0,0,0
42143,41810,45530,0,0,0
42075,41746,45400,0,0,0
41960,41657,45268,0,0,0
41840,41565,45114,0,0,0
41742,41474,44943,0,0,0
41621,41359,44772,0,0,0
41453,41218,44593,0,0,0
41294,41089,44400,0,0,0
41167,40984,44216,0,0,0
41029,40877,44059,0,0,0
40869,40770,43916,0,0,0
40728,40693,43761,0,0,0
40613,40636,43605,0,0,0
40479,40559,43461,0,0,0
40320,40454,43311,0,0,0
40185,40350,43141,0,0,0
40063,40245,42960,0,0,0
39896,40112,42774,0,0,0
39694,39963,42575,0,0,0
39525,39830,42358,0,0,0
39383,39705,42132,0,0,0
39207,39556,41903,0,0,0
39014,39404,41671,0,0,0
38866,39282,41440,0,0,0
38736,39180,41232,0,0,0
38567,39074,41066,0,0,0
38402,38986,40941,0,0,0
38320,38952,40859,0,0,0
38316,38962,40843,0,0,0
38346,38996,40904,0,0,0
38431,39072,41030,0,0,0
38616,39211,41217,0,0,0
38867,39387,41477,0,0,0
39131,39576,41802,0,0,0
39424,39794,42176,0,0,0
39781,40054,42591,0,0,0
40178,40339,43063,0,0,0
40573,40630,43588,0,0,0
40984,40942,44140,0,0,0
41436,41284,44710,0,0,0
41886,41629,45300,0,0,0
42301,41957,45904,0,0,0
42718,42284,46497,0,0,0
43157,42618,47067,0,0,0
43558,42928,47603,0,0,0
43882,43192,48085,0,0,0
44173,43422,48493,0,0,0
44454,43625,48832,0,0,0
44676,43779,49118,0,0,0
44820,43884,49354,0,0,0
44945,43973,49539,0,0,0
45069,44054,49689,0,0,0
45144,44101,49814,0,0,0
45169,44120,49907,0,0,0
45200,44147,49963,0,0,0
45244,44182,49996,0,0,0
45246,44192,50016,0,0,0
45206,44180,50008,0,0,0
45183,44174,49966,0,0,0
45173,44173,49907,0,0,0
45120,44147,49845,0,0,0
45036,44099,49773,0,0,0
44986,44064,49692,0,0,0
44962,44032,49616,0,0,0
44901,43970,49537,0,0,0
44800,43883,49438,0,0,0
44709,43802,49316,0,0,0
44622,43721,49185,0,0,0
44493,43614,49051,0,0,0
44350,43506,48911,0,0,0
44246,43428,48771,0,0,0
44149,43359,48637,0,0,0
44008,43267,48500,0,0,0
43856,43166,48338,0,0,0
43734,43073,48152,0,0,0
43606,42964,47955,0,0,0
43428,42821,47745,0,0,0
43234,42669,47509,0,0,0
43066,42528,47259,0,0,0
42899,42386,47025,0,0,0
42703,42235,46816,0,0,0
42529,42109,46629,0,0,0
42409,42024,46467,0,0,0
42304,41955,46344,0,0,0
42195,41891,46252,0,0,0
42120,41851,46168,0,0,0
42094,41834,46090,0,0,0
42065,41807,46029,0,0,0
42012,41766,45970,0,0,0
41970,41731,45890,0,0,0
41943,41701,45797,0,0,0
41884,41653,45711,0,0,0
41790,41592,45633,0,0,0
41722,41552,45557,0,0,0
41687,41532,45495,0,0,0
41631,41502,45459,0,0,0
41553,41469,45435,0,0,0
41518,41462,45406,0,0,0
41517,41465,45375,0,0,0
41485,41445,45342,0,0,0
41426,41408,45296,0,0,0
41394,41380,45232,0,0,0
41383,41347,45163,0,0,0
41330,41279,45093,0,0,0
41242,41196,45013,0,0,0
41180,41133,44923,0,0,0
41134,41079,44832,0,0,0
41053,41009,44741,0,0,0
40956,40944,44645,0,0,0
40898,40909,44548,0,0,0
40850,40880,44454,0,0,0
40757,40822,44354,0,0,0
40641,40745,44223,0,0,0
40548,40671,44062,0,0,0
40448,40585,43898,0,0,0
40298,40470,43732,0,0,0
40134,40353,43551,0,0,0
39999,40255,43359,0,0,0
39868,40163,43174,0,0,0
39703,40058,42995,0,0,0
39538,39954,42808,0,0,0
39407,39863,42617,0,0,0
39272,39763,42433,0,0,0
39104,39648,42248,0,0,0
38944,39540,42046,0,0,0
38813,39438,41830,0,0,0
38653,39307,41610,0,0,0
38442,39142,41384,0,0,0
38233,38982,41147,0,0,0
38053,38838,40907,0,0,0
37859,38687,40682,0,0,0
37645,38530,40469,0,0,0
37469,38398,40261,0,0,0
37337,38291,40069,0,0,0
37188,38182,39899,0,0,0
37019,38072,39738,0,0,0
36885,37985,39571,0,0,0
36786,37914,39398,0,0,0
36663,37822,39221,0,0,0
36511,37710,39031,0,0,0
36380,37603,38820,0,0,0
36261,37490,38603,0,0,0
36095,37346,38392,0,0,0
35899,37198,38188,0,0,0
35740,37085,37994,0,0,0
35608,36994,37818,0,0,0
35458,36899,37663,0,0,0
35310,36809,37511,0,0,0
35211,36745,37354,0,0,0
35131,36683,37204,0,0,0
35014,36595,37065,0,0,0
34886,36500,36924,0,0,0
34793,36422,36783,0,0,0
34712,36355,36662,0,0,0
34599,36279,36558,0,0,0
34488,36211,36449,0,0,0
34418,36162,36339,0,0,0
34345,36106,36233,0,0,0
34231,36024,36120,0,0,0
34116,35938,35981,0,0,0
34031,35860,35820,0,0,0
33933,35766,35657,0,0,0
33795,35649,35503,0,0,0
33676,35552,35366,0,0,0
33619,35500,35278,0,0,0
33599,35480,35265,0,0,0
33616,35501,35336,0,0,0
33726,35598,35501,0,0,0
33947,35773,35769,0,0,0
34233,36002,36143,0,0,0
34570,36278,36606,0,0,0
34997,36619,37135,0,0,0
35504,37005,37723,0,0,0
36013,37390,38358,0,0,0
36502,37761,39016,0,0,0
37020,38142,39673,0,0,0
37565,38525,40325,0,0,0
38070,38878,40976,0,0,0
38524,39209,41620,0,0,0
38985,39550,42240,0,0,0
39446,39892,42836,0,0,0
39852,40200,43406,0,0,0
40209,40480,43932,0,0,0
40571,40758,44404,0,0,0
40918,41015,44823,0,0,0
41185,41216,45187,0,0,0
41379,41371,45480,0,0,0
41555,41503,45696,0,0,0
41696,41602,45854,0,0,0
41750,41643,45961,0,0,0
41745,41651,46020,0,0,0
41741,41659,46041,0,0,0
41724,41651,46039,0,0,0
41651,41605,46014,0,0,0
41554,41547,45958,0,0,0
41485,41506,45877,0,0,0
41410,41456,45783,0,0,0
41292,41380,45679,0,0,0
41171,41302,45557,0,0,0
41088,41240,45423,0,0,0
40998,41165,45295,0,0,0
40874,41068,45171,0,0,0
40766,40983,45047,0,0,0
40701,40923,44929,0,0,0
40636,40863,44830,0,0,0
40555,40798,44752,0,0,0
40503,40763,44694,0,0,0
40489,40760,44659,0,0,0
40459,40755,44644,0,0,0
40397,40740,44620,0,0,0
40353,40725,44562,0,0,0
40339,40703,44489,0,0,0
40304,40656,44418,0,0,0
40231,40594,44339,0,0,0
40176,40555,44246,0,0,0
40145,40537,44159,0,0,0
40092,40510,44095,0,0,0
40021,40480,44045,0,0,0
39993,40473,43994,0,0,0
40004,40478,43944,0,0,0
39988,40461,43897,0,0,0
39947,40426,43841,0,0,0
39936,40401,43766,0,0,0
39939,40381,43690,0,0,0
39895,40340,43625,0,0,0
39832,40298,43570,0,0,0
39819,40283,43529,0,0,0
39833,40276,43506,0,0,0
39821,40255,43501,0,0,0
39801,40237,43501,0,0,0
39823,40246,43505,0,0,0
39859,40262,43514,0,0,0
39855,40259,43522,0,0,0
39836,40251,43510,0,0,0
39845,40255,43478,0,0,0
39856,40256,43450,0,0,0
39825,40243,43434,0,0,0
39797,40240,43427,0,0,0
39818,40267,43434,0,0,0
39853,40296,43455,0,0,0
39865,40309,43479,0,0,0
39887,40327,43496,0,0,0
39945,40361,43507,0,0,0
39983,40377,43515,0,0,0
39975,40365,43510,0,0,0
39963,40355,43485,0,0,0
39966,40357,43452,0,0,0
39950,40347,43429,0,0,0
39908,40321,43411,0,0,0
39890,40307,43383,0,0,0
39901,40305,43343,0,0,0
39884,40286,43298,0,0,0
39828,40242,43237,0,0,0
39783,40196,43142,0,0,0
39745,40146,43018,0,0,0
39648,40061,42877,0,0,0
39494,39947,42714,0,0,0
39352,39842,42528,0,0,0
39224,39741,42334,0,0,0
39062,39623,42155,0,0,0
38892,39507,41996,0,0,0
38780,39426,41855,0,0,0
38707,39371,41737,0,0,0
38613,39309,41643,0,0,0
38513,39245,41553,0,0,0
38465,39210,41460,0,0,0
38447,39184,41373,0,0,0
38395,39133,41294,0,0,0
38330,39081,41214,0,0,0
38307,39059,41133,0,0,0
38299,39050,41071,0,0,0
38257,39030,41030,0,0,0
38217,39020,41000,0,0,0
38227,39040,40981,0,0,0
38251,39061,40976,0,0,0
38247,39063,40980,0,0,0
38249,39066,40977,0,0,0
38292,39088,40968,0,0,0
38334,39106,40959,0,0,0
38337,39103,40941,0,0,0
38336,39096,40906,0,0,0
38353,39092,40863,0,0,0
38354,39073,40827,0,0,0
38324,39041,40796,0,0,0
38306,39022,40760,0,0,0
38312,39018,40723,0,0,0
38300,39005,40701,0,0,0
38261,38987,40689,0,0,0
38248,38990,40672,0,0,0
38271,39007,40648,0,0,0
38275,39001,40621,0,0,0
38238,38970,40584,0,0,0
38213,38947,40528,0,0,0
38210,38934,40472,0,0,0
38177,38910,40436,0,0,0
38112,38872,40403,0,0,0
38076,38850,40361,0,0,0
38066,38835,40309,0,0,0
38023,38796,40249,0,0,0
37949,38737,40166,0,0,0
37896,38686,40051,0,0,0
37851,38635,39919,0,0,0
37751,38552,39778,0,0,0
37618,38447,39631,0,0,0
37526,38360,39491,0,0,0
37468,38296,39386,0,0,0
37402,38245,39342,0,0,0
37374,38236,39362,0,0,0
37449,38305,39458,0,0,0
37612,38439,39644,0,0,0
37814,38612,39922,0,0,0
38073,38832,40275,0,0,0
38432,39109,40698,0,0,0
38852,39426,41206,0,0,0
39284,39765,41793,0,0,0
39767,40146,42446,0,0,0
40338,40583,43156,0,0,0
40949,41042,43914,0,0,0
41547,41495,44700,0,0,0
42154,41962,45483,0,0,0
42791,42450,46254,0,0,0
43403,42917,47009,0,0,0
43948,43339,47725,0,0,0
44454,43728,48374,0,0,0
44931,44086,48955,0,0,0
45326,44383,49472,0,0,0
45621,44610,49915,0,0,0
45873,44801,50279,0,0,0
46106,44966,50578,0,0,0
46278,45082,50830,0,0,0
46394,45162,51040,0,0,0
46513,45243,51208,0,0,0
46643,45325,51341,0,0,0
46728,45380,51446,0,0,0
46760,45406,51517,0,0,0
46797,45431,51545,0,0,0
46838,45451,51550,0,0,0
46824,45435,51550,0,0,0
46764,45395,51539,0,0,0
46724,45368,51513,0,0,0
46702,45350,51484,0,0,0
46648,45316,51457,0,0,0
46577,45277,51421,0,0,0
46549,45266,51371,0,0,0
46547,45256,51315,0,0,0
46505,45210,51250,0,0,0
46433,45143,51166,0,0,0
46385,45086,51066,0,0,0
46341,45030,50974,0,0,0
46252,44956,50890,0,0,0
46151,44885,50804,0,0,0
46088,44844,50719,0,0,0
46032,44808,50644,0,0,0
45942,44753,50572,0,0,0
45851,44699,50486,0,0,0
45800,44665,50385,0,0,0
45745,44622,50281,0,0,0
45650,44555,50168,0,0,0
45552,44484,50037,0,0,0
45482,44417,49892,0,0,0
45400,44333,49752,0,0,0
45277,44226,49619,0,0,0
45156,44127,49486,0,0,0
45069,44052,49359,0,0,0
44982,43980,49252,0,0,0
44873,43905,49157,0,0,0
44783,43845,49059,0,0,0
44726,43799,48957,0,0,0
44652,43737,48858,0,0,0
44548,43662,48756,0,0,0
44463,43599,48647,0,0,0
44408,43544,48538,0,0,0
44337,43475,48444,0,0,0
44253,43409,48369,0,0,0
44214,43378,48309,0,0,0
44222,43375,48269,0,0,0
44213,43367,48250,0,0,0
44181,43355,48230,0,0,0
44180,43360,48199,0,0,0
44204,43367,48171,0,0,0
44192,43344,48150,0,0,0
44146,43308,48119,0,0,0
44118,43290,48069,0,0,0
44091,43273,48011,0,0,0
44007,43217,47945,0,0,0
43888,43137,47858,0,0,0
43793,43063,47748,0,0,0
43702,42986,47627,0,0,0
43573,42889,47506,0,0,0
43440,42794,47384,0,0,0
43353,42731,47261,0,0,0
43279,42672,47135,0,0,0
43166,42583,46996,0,0,0
43038,42480,46833,0,0,0
42935,42389,46645,0,0,0
42823,42288,46448,0,0,0
42661,42162,46248,0,0,0
42487,42039,46040,0,0,0
42344,41932,45833,0,0,0
42206,41821,45651,0,0,0
42048,41702,45497,0,0,0
41910,41602,45351,0,0,0
41813,41529,45211,0,0,0
41710,41453,45081,0,0,0
41580,41361,44947,0,0,0
41462,41271,44794,0,0,0
41372,41182,44620,0,0,0
41258,41065,44438,0,0,0
41095,40923,44245,0,0,0
40926,40791,44033,0,0,0
40769,40671,43813,0,0,0
40580,40538,43598,0,0,0
40360,40396,43386,0,0,0
40173,40282,43181,0,0,0
40034,40196,42993,0,0,0
39884,40109,42829,0,0,0
39725,40019,42681,0,0,0
39614,39951,42540,0,0,0
39544,39893,42409,0,0,0
39454,39814,42283,0,0,0
39347,39725,42151,0,0,0
39277,39658,42012,0,0,0
39231,39601,41885,0,0,0
39143,39522,41775,0,0,0
39026,39431,41662,0,0,0
38932,39353,41531,0,0,0
38845,39277,41390,0,0,0
38720,39184,41252,0,0,0
38581,39094,41117,0,0,0
38487,39032,40984,0,0,0
38416,38983,40865,0,0,0
38323,38926,40761,0,0,0
38230,38874,40651,0,0,0
38171,38835,40531,0,0,0
38109,38786,40411,0,0,0
38009,38711,40297,0,0,0
37911,38639,40187,0,0,0
37856,38593,40086,0,0,0
37814,38553,40010,0,0,0
37757,38509,39955,0,0,0
37720,38487,39900,0,0,0
37727,38493,39851,0,0,0
37728,38488,39813,0,0,0
37692,38458,39772,0,0,0
37653,38428,39705,0,0,0
37625,38397,39614,0,0,0
37554,38334,39509,0,0,0
37432,38243,39394,0,0,0
37321,38163,39267,0,0,0
37243,38101,39149,0,0,0
37166,38049,39073,0,0,0
37102,38021,39050,0,0,0
37126,38055,39085,0,0,0
37256,38153,39201,0,0,0
37431,38281,39406,0,0,0
37643,38445,39685,0,0,0
37940,38667,40024,0,0,0
38315,38935,40437,0,0,0
38704,39217,40934,0,0,0
39109,39527,41498,0,0,0
39587,39897,42107,0,0,0
40123,40310,42769,0,0,0
40656,40728,43487,0,0,0
41180,41149,44233,0,0,0
41741,41593,44984,0,0,0
42321,42041,45729,0,0,0
42856,42463,46452,0,0,0
43345,42857,47123,0,0,0
43830,43232,47726,0,0,0
44281,43572,48280,0,0,0
44642,43849,48789,0,0,0
44937,44079,49230,0,0,0
45214,44290,49604,0,0,0
45456,44474,49931,0,0,0
45628,44612,50211,0,0,0
45767,44727,50437,0,0,0
45915,44842,50617,0,0,0
46038,44934,50757,0,0,0
46101,44979,50855,0,0,0
46134,44999,50900,0,0,0
46170,45016,50899,0,0,0
46172,45008,50874,0,0,0
46116,44965,50827,0,0,0
46047,44911,50751,0,0,0
45989,44853,50662,0,0,0
45902,44772,50576,0,0,0
45774,44671,50488,0,0,0
45659,44587,50395,0,0,0
45587,44528,50309,0,0,0
45516,44464,50234,0,0,0
45422,44388,50152,0,0,0
45346,44325,50049,0,0,0
45297,44274,49934,0,0,0
45218,44200,49814,0,0,0
45104,44110,49683,0,0,0
45003,44029,49534,0,0,0
44913,43949,49374,0,0,0
44785,43851,49222,0,0,0
44633,43753,49085,0,0,0
44523,43694,48956,0,0,0
44459,43663,48831,0,0,0
44386,43622,48707,0,0,0
44298,43566,48578,0,0,0
44241,43516,48440,0,0,0
44187,43473,48302,0,0,0
44070,43416,48169,0,0,0
43932,43350,48042,0,0,0
43840,43294,47928,0,0,0
43776,43244,47837,0,0,0
43688,43180,47770,0,0,0
43599,43113,47705,0,0,0
43558,43069,47636,0,0,0
43533,43026,47569,0,0,0
43472,42960,47500,0,0,0
43400,42890,47418,0,0,0
43356,42837,47328,0,0,0
43310,42784,47254,0,0,0
43228,42717,47200,0,0,0
43156,42669,47156,0,0,0
43133,42660,47122,0,0,0
43120,42655,47099,0,0,0
43083,42637,47079,0,0,0
43061,42631,47048,0,0,0
43071,42637,47009,0,0,0
43053,42613,46960,0,0,0
42979,42545,46886,0,0,0
42900,42466,46780,0,0,0
42832,42395,46654,0,0,0
42736,42309,46532,0,0,0
42610,42216,46421,0,0,0
42508,42150,46316,0,0,0
42439,42104,46218,0,0,0
42349,42046,46130,0,0,0
42228,41973,46029,0,0,0
42123,41906,45899,0,0,0
42034,41837,45749,0,0,0
41900,41735,45589,0,0,0
41725,41609,45414,0,0,0
41568,41495,45221,0,0,0
41424,41386,45021,0,0,0
41248,41259,44830,0,0,0
41062,41128,44648,0,0,0
40924,41026,44467,0,0,0
40816,40935,44293,0,0,0
40678,40825,44127,0,0,0
40524,40707,43954,0,0,0
40409,40607,43769,0,0,0
40312,40515,43593,0,0,0
40181,40409,43437,0,0,0
40045,40310,43293,0,0,0
39954,40245,43162,0,0,0
39880,40193,43044,0,0,0
39781,40126,42930,0,0,0
39676,40049,42800,0,0,0
39604,39979,42648,0,0,0
39529,39901,42493,0,0,0
39407,39801,42341,0,0,0
39276,39703,42185,0,0,0
39178,39626,42031,0,0,0
39086,39553,41895,0,0,0
38973,39477,41780,0,0,0
38885,39427,41684,0,0,0
38846,39409,41615,0,0,0
38813,39390,41570,0,0,0
38760,39357,41532,0,0,0
38727,39333,41475,0,0,0
38728,39323,41400,0,0,0
38708,39295,41321,0,0,0
38641,39242,41235,0,0,0
38581,39201,41145,0,0,0
38549,39179,41070,0,0,0
38498,39147,41013,0,0,0
38425,39103,40958,0,0,0
38379,39068,40888,0,0,0
38353,39037,40805,0,0,0
38281,38979,40712,0,0,0
38169,38903,40605,0,0,0
38075,38839,40478,0,0,0
38002,38780,40348,0,0,0
37900,38705,40232,0,0,0
37783,38627,40125,0,0,0
37715,38578,40026,0,0,0
37678,38548,39938,0,0,0
37614,38507,39860,0,0,0
37528,38452,39772,0,0,0
37468,38404,39663,0,0,0
37418,38358,39553,0,0,0
37326,38292,39446,0,0,0
37220,38223,39338,0,0,0
37157,38178,39238,0,0,0
37111,38146,39153,0,0,0
37033,38099,39077,0,0,0
36946,38046,38990,0,0,0
36892,38000,38890,0,0,0
36832,37939,38790,0,0,0
36724,37852,38684,0,0,0
36605,37759,38552,0,0,0
36514,37672,38391,0,0,0
36416,37580,38232,0,0,0
36285,37478,38100,0,0,0
36189,37408,38005,0,0,0
36181,37407,37976,0,0,0
36234,37458,38042,0,0,0
36334,37554,38215,0,0,0
36537,37717,38488,0,0,0
36863,37948,38863,0,0,0
37252,38216,39335,0,0,0
37664,38512,39876,0,0,0
38134,38863,40465,0,0,0
38665,39257,41103,0,0,0
39202,39657,41787,0,0,0
39726,40063,42504,0,0,0
40280,40498,43231,0,0,0
40862,40948,43958,0,0,0
41402,41371,44673,0,0,0
41890,41757,45346,0,0,0
42370,42124,45958,0,0,0
42828,42464,46515,0,0,0
43201,42749,47029,0,0,0
43508,42994,47495,0,0,0
43814,43230,47908,0,0,0
44109,43447,48276,0,0,0
44340,43622,48608,0,0,0
44521,43771,48895,0,0,0
44712,43918,49135,0,0,0
44892,44044,49330,0,0,0
45003,44121,49480,0,0,0
45063,44168,49576,0,0,0
45128,44212,49619,0,0,0
45174,44237,49628,0,0,0
45148,44220,49612,0,0,0
45079,44181,49564,0,0,0
45017,44145,49488,0,0,0
44951,44103,49411,0,0,0
44849,44041,49337,0,0,0
44744,43983,49255,0,0,0
44686,43949,49167,0,0,0
44639,43914,49080,0,0,0
44558,43865,48996,0,0,0
44478,43818,48905,0,0,0
44434,43781,48805,0,0,0
44375,43731,48700,0,0,0
44263,43653,48585,0,0,0
44147,43568,48452,0,0,0
44057,43487,48312,0,0,0
43947,43387,48179,0,0,0
43803,43269,48054,0,0,0
43678,43173,47931,0,0,0
43594,43103,47814,0,0,0
43501,43030,47710,0,0,0
43388,42950,47607,0,0,0
43304,42889,47487,0,0,0
43254,42844,47358,0,0,0
43176,42777,47223,0,0,0
43057,42681,47071,0,0,0
42952,42586,46900,0,0,0
42866,42494,46730,0,0,0
42741,42384,46575,0,0,0
42589,42268,46433,0,0,0
42476,42180,46304,0,0,0
42397,42122,46202,0,0,0
42302,42065,46122,0,0,0
42209,42014,46046,0,0,0
42178,41992,45969,0,0,0
42183,41983,45905,0,0,0
42154,41954,45854,0,0,0
42105,41914,45803,0,0,0
42087,41890,45749,0,0,0
42085,41872,45713,0,0,0
42049,41840,45697,0,0,0
42007,41815,45687,0,0,0
42010,41825,45687,0,0,0
42033,41850,45710,0,0,0
42030,41866,45753,0,0,0
42031,41889,45795,0,0,0
42079,41934,45826,0,0,0
42135,41973,45847,0,0,0
42150,41981,45855,0,0,0
42144,41973,45835,0,0,0
42146,41958,45783,0,0,0
42119,41907,45705,0,0,0
42030,41814,45598,0,0,0
41925,41717,45463,0,0,0
41833,41632,45315,0,0,0
41713,41534,45170,0,0,0
41554,41422,45025,0,0,0
41408,41328,44868,0,0,0
41295,41257,44708,0,0,0
41171,41179,44554,0,0,0
41022,41085,44397,0,0,0
40891,40994,44219,0,0,0
40786,40902,44032,0,0,0
40643,40781,43845,0,0,0
40456,40635,43649,0,0,0
40282,40496,43441,0,0,0
40122,40367,43231,0,0,0
39934,40231,43035,0,0,0
39735,40103,42856,0,0,0
39581,40003,42682,0,0,0
39466,39920,42508,0,0,0
39333,39821,42333,0,0,0
39185,39712,42145,0,0,0
39070,39614,41943,0,0,0
38970,39522,41751,0,0,0
38826,39414,41578,0,0,0
38661,39302,41412,0,0,0
38530,39214,41254,0,0,0
38413,39134,41105,0,0,0
38263,39033,40962,0,0,0
38108,38927,40810,0,0,0
37998,38841,40648,0,0,0
37901,38755,40489,0,0,0
37767,38648,40330,0,0,0
37623,38532,40151,0,0,0
37503,38423,39947,0,0,0
37367,38302,39737,0,0,0
37179,38153,39527,0,0,0
36987,38006,39313,0,0,0
36834,37883,39102,0,0,0
36685,37768,38907,0,0,0
36512,37655,38734,0,0,0
36362,37565,38573,0,0,0
36269,37501,38428,0,0,0
36182,37429,38296,0,0,0
36067,37335,38160,0,0,0
35958,37244,38003,0,0,0
35867,37162,37831,0,0,0
35746,37063,37658,0,0,0
35584,36943,37486,0,0,0
35437,36832,37309,0,0,0
35325,36742,37138,0,0,0
35202,36650,36989,0,0,0
35055,36551,36850,0,0,0
34943,36478,36713,0,0,0
34875,36434,36586,0,0,0
34798,36387,36475,0,0,0
34711,36338,36369,0,0,0
34666,36308,36259,0,0,0
34644,36283,36158,0,0,0
34576,36228,36070,0,0,0
34469,36151,35983,0,0,0
34385,36085,35889,0,0,0
34313,36024,35790,0,0,0
34198,35943,35687,0,0,0
34061,35855,35572,0,0,0
33961,35786,35444,0,0,0
33878,35722,35311,0,0,0
33762,35638,35175,0,0,0
33633,35549,35028,0,0,0
33549,35481,34879,0,0,0
33496,35431,34759,0,0,0
33435,35389,34686,0,0,0
33414,35389,34679,0,0,0
33495,35465,34763,0,0,0
33667,35601,34965,0,0,0
33899,35786,35292,0,0,0
34226,36038,35725,0,0,0
34680,36369,36254,0,0,0
35200,36743,36869,0,0,0
35725,37132,37542,0,0,0
36274,37546,38237,0,0,0
36859,37977,38936,0,0,0
37425,38394,39642,0,0,0
37937,38781,40341,0,0,0
38435,39159,41014,0,0,0
38940,39539,41665,0,0,0
39416,39894,42299,0,0,0
39850,40221,42911,0,0,0
40275,40542,43481,0,0,0
40697,40862,44010,0,0,0
41063,41146,44497,0,0,0
41355,41377,44932,0,0,0
41625,41579,45304,0,0,0
41889,41762,45623,0,0,0
42098,41908,45908,0,0,0
42247,42021,46155,0,0,0
42393,42131,46357,0,0,0
42535,42236,46529,0,0,0
42622,42311,46680,0,0,0
42667,42363,46798,0,0,0
42735,42420,46875,0,0,0
42815,42469,46917,0,0,0
42831,42476,46918,0,0,0
42789,42444,46874,0,0,0
42754,42409,46791,0,0,0
42719,42368,46691,0,0,0
42636,42298,46593,0,0,0
42530,42224,46496,0,0,0
42460,42175,46404,0,0,0
42403,42131,46319,0,0,0
42310,42072,46233,0,0,0
42203,42006,46126,0,0,0
42129,41949,46000,0,0,0
42053,41883,45865,0,0,0
41931,41788,45723,0,0,0
41796,41685,45565,0,0,0
41687,41592,45398,0,0,0
41574,41497,45239,0,0,0
41421,41388,45091,0,0,0
41276,41294,44948,0,0,0
41176,41231,44819,0,0,0
41086,41171,44714,0,0,0
40979,41100,44621,0,0,0
40891,41032,44515,0,0,0
40838,40976,44400,0,0,0
40769,40911,44281,0,0,0
40659,40826,44149,0,0,0
40551,40749,43998,0,0,0
40463,40681,43841,0,0,0
40355,40599,43699,0,0,0
40227,40509,43571,0,0,0
40133,40444,43456,0,0,0
40084,40409,43368,0,0,0
40038,40380,43322,0,0,0
39995,40357,43304,0,0,0
40011,40371,43299,0,0,0
40076,40414,43314,0,0,0
40130,40449,43355,0,0,0
40173,40481,43408,0,0,0
40246,40538,43461,0,0,0
40336,40602,43519,0,0,0
40387,40641,43586,0,0,0
40411,40664,43648,0,0,0
40464,40702,43708,0,0,0
40528,40743,43771,0,0,0
40546,40759,43827,0,0,0
40536,40757,43853,0,0,0
40552,40760,43845,0,0,0
40570,40754,43816,0,0,0
40534,40720,43769,0,0,0
40474,40681,43712,0,0,0
40444,40662,43656,0,0,0
40423,40646,43614,0,0,0
40372,40615,43581,0,0,0
40322,40587,43538,0,0,0
40306,40575,43488,0,0,0
40284,40552,43427,0,0,0
40221,40500,43349,0,0,0
40148,40437,43250,0,0,0
40090,40376,43134,0,0,0
40018,40304,43019,0,0,0
39907,40221,42908,0,0,0
39804,40156,42791,0,0,0
39741,40112,42675,0,0,0
39673,40062,42568,0,0,0
39566,39993,42458,0,0,0
39457,39919,42316,0,0,0
39360,39842,42148,0,0,0
39227,39739,41976,0,0,0
39045,39610,41799,0,0,0
38873,39487,41610,0,0,0
38728,39377,41418,0,0,0
38570,39262,41236,0,0,0
38401,39142,41058,0,0,0
38265,39036,40870,0,0,0
38155,38935,40674,0,0,0
38009,38810,40476,0,0,0
37828,38669,40271,0,0,0
37669,38539,40057,0,0,0
37540,38422,39852,0,0,0
37394,38303,39674,0,0,0
37236,38197,39526,0,0,0
37127,38131,39400,0,0,0
37056,38084,39297,0,0,0
36965,38024,39210,0,0,0
36868,37963,39119,0,0,0
36818,37925,39018,0,0,0
36787,37892,38914,0,0,0
36712,37830,38800,0,0,0
36607,37752,38663,0,0,0
36521,37678,38507,0,0,0
36439,37602,38358,0,0,0
36315,37508,38223,0,0,0
36182,37419,38093,0,0,0
36093,37362,37974,0,0,0
36012,37309,37865,0,0,0
35901,37242,37757,0,0,0
35786,37172,37629,0,0,0
35700,37108,37482,0,0,0
35606,37028,37342,0,0,0
35474,36926,37212,0,0,0
35355,36835,37079,0,0,0
35278,36768,36952,0,0,0
35196,36700,36839,0,0,0
35078,36617,36727,0,0,0
34973,36541,36602,0,0,0
34905,36480,36470,0,0,0
34818,36405,36339,0,0,0
34689,36311,36204,0,0,0
34572,36225,36063,0,0,0
34486,36154,35922,0,0,0
34382,36073,35795,0,0,0
34248,35982,35673,0,0,0
34146,35910,35550,0,0,0
34091,35866,35440,0,0,0
34032,35826,35357,0,0,0
33975,35792,35304,0,0,0
33986,35802,35296,0,0,0
34077,35863,35369,0,0,0
34210,35967,35553,0,0,0
34414,36131,35851,0,0,0
34746,36383,36256,0,0,0
35182,36704,36761,0,0,0
35647,37056,37348,0,0,0
36135,37431,37980,0,0,0
36689,37843,38641,0,0,0
37282,38273,39335,0,0,0
37844,38687,40049,0,0,0
38380,39099,40764,0,0,0
38934,39524,41472,0,0,0
39483,39940,42169,0,0,0
39974,40324,42846,0,0,0
40427,40681,43477,0,0,0
40887,41026,44050,0,0,0
41313,41328,44568,0,0,0
41650,41563,45025,0,0,0
41926,41757,45415,0,0,0
42178,41930,45740,0,0,0
42384,42073,46018,0,0,0
42519,42179,46252,0,0,0
42629,42277,46435,0,0,0
42751,42383,46582,0,0,0
42852,42470,46710,0,0,0
42905,42524,46810,0,0,0
42946,42562,46863,0,0,0
42995,42588,46874,0,0,0
42998,42578,46852,0,0,0
42935,42530,46792,0,0,0
42860,42473,46698,0,0,0
42794,42413,46590,0,0,0
42697,42333,46488,0,0,0
42565,42246,46387,0,0,0
42462,42183,46282,0,0,0
42398,42138,46181,0,0,0
42325,42085,46095,0,0,0
42246,42033,46013,0,0,0
42206,42001,45925,0,0,0
42201,41979,45840,0,0,0
42165,41935,45762,0,0,0
42095,41876,45673,0,0,0
42052,41838,45568,0,0,0
42019,41811,45467,0,0,0
41937,41761,45375,0,0,0
41822,41691,45277,0,0,0
41735,41630,45162,0,0,0
41664,41570,45035,0,0,0
41549,41479,44895,0,0,0
41409,41373,44740,0,0,0
41303,41286,44583,0,0,0
41217,41209,44445,0,0,0
41107,41123,44329,0,0,0
41003,41053,44229,0,0,0
40958,41025,44151,0,0,0
40944,41014,44101,0,0,0
40916,40994,44071,0,0,0
40891,40974,44033,0,0,0
40903,40965,43978,0,0,0
40912,40949,43923,0,0,0
40878,40908,43872,0,0,0
40837,40868,43817,0,0,0
40823,40849,43769,0,0,0
40809,40837,43747,0,0,0
40770,40824,43748,0,0,0
40749,40827,43750,0,0,0
40772,40850,43748,0,0,0
40786,40860,43747,0,0,0
40759,40840,43733,0,0,0
40726,40809,43689,0,0,0
40701,40771,43627,0,0,0
40645,40712,43571,0,0,0
40557,40643,43520,0,0,0
40499,40602,43465,0,0,0
40484,40588,43418,0,0,0
40454,40569,43389,0,0,0
40399,40535,43359,0,0,0
40369,40512,43313,0,0,0
40361,40495,43257,0,0,0
40313,40454,43206,0,0,0
40232,40397,43149,0,0,0
40174,40354,43080,0,0,0
40133,40317,43008,0,0,0
40061,40268,42942,0,0,0
39974,40215,42872,0,0,0
39936,40184,42794,0,0,0
39924,40164,42715,0,0,0
39868,40120,42628,0,0,0
39775,40054,42523,0,0,0
39697,39991,42395,0,0,0
39621,39926,42261,0,0,0
39495,39840,42129,0,0,0
39354,39749,41988,0,0,0
39253,39674,41833,0,0,0
39154,39588,41663,0,0,0
39005,39470,41477,0,0,0
38836,39340,41264,0,0,0
38690,39222,41031,0,0,0
38543,39107,40808,0,0,0
38359,38986,40593,0,0,0
38184,38878,40380,0,0,0
38054,38791,40192,0,0,0
37934,38706,40039,0,0,0
37804,38618,39904,0,0,0
37699,38541,39771,0,0,0
37636,38481,39641,0,0,0
37557,38409,39514,0,0,0
37430,38317,39385,0,0,0
37308,38232,39248,0,0,0
37216,38163,39109,0,0,0
37110,38086,38980,0,0,0
36979,37998,38852,0,0,0
36873,37924,38716,0,0,0
36802,37868,38582,0,0,0
36706,37796,38458,0,0,0
36575,37703,38329,0,0,0
36468,37615,38182,0,0,0
36391,37529,38029,0,0,0
36290,37433,37894,0,0,0
36171,37342,37781,0,0,0
36091,37283,37678,0,0,0
36047,37245,37586,0,0,0
35979,37199,37506,0,0,0
35890,37144,37423,0,0,0
35833,37103,37331,0,0,0
35799,37064,37238,0,0,0
35729,36997,37144,0,0,0
35635,36915,37037,0,0,0
35567,36846,36914,0,0,0
35508,36783,36798,0,0,0
35410,36711,36704,0,0,0
35313,36653,36626,0,0,0
35284,36640,36577,0,0,0
35310,36660,36581,0,0,0
35361,36705,36657,0,0,0
35478,36803,36806,0,0,0
35708,36974,37042,0,0,0
36016,37196,37377,0,0,0
36360,37454,37808,0,0,0
36761,37761,38313,0,0,0
37243,38120,38885,0,0,0
37761,38508,39524,0,0,0
38277,38912,40216,0,0,0
38826,39355,40942,0,0,0
39429,39833,41697,0,0,0
40028,40303,42478,0,0,0
40589,40750,43263,0,0,0
41155,41192,44023,0,0,0
41742,41629,44743,0,0,0
42290,42028,45421,0,0,0
42765,42382,46048,0,0,0
43206,42708,46602,0,0,0
43619,42998,47084,0,0,0
43947,43225,47507,0,0,0
44182,43398,47868,0,0,0
44386,43556,48165,0,0,0
44571,43697,48409,0,0,0
44692,43796,48617,0,0,0
44760,43862,48779,0,0,0
44830,43920,48880,0,0,0
44895,43961,48931,0,0,0
44894,43953,48939,0,0,0
44831,43906,48900,0,0,0
44764,43845,48815,0,0,0
44694,43773,48708,0,0,0
44566,43676,48592,0,0,0
44396,43565,48454,0,0,0
44253,43470,48297,0,0,0
44133,43384,48133,0,0,0
43988,43281,47967,0,0,0
43832,43174,47789,0,0,0
43722,43087,47602,0,0,0
43629,43005,47419,0,0,0
43496,42899,47237,0,0,0
43344,42782,47045,0,0,0
43219,42670,46846,0,0,0
43095,42551,46656,0,0,0
42927,42408,46475,0,0,0
42756,42273,46301,0,0,0
42633,42175,46140,0,0,0
42528,42093,45997,0,0,0
42401,42007,45863,0,0,0
42287,41929,45722,0,0,0
42215,41862,45583,0,0,0
42135,41782,45455,0,0,0
42012,41681,45329,0,0,0
41894,41592,45199,0,0,0
41814,41528,45080,0,0,0
41737,41466,44985,0,0,0
41648,41402,44911,0,0,0
41595,41363,44846,0,0,0
41588,41352,44789,0,0,0
41576,41339,44744,0,0,0
41547,41319,44704,0,0,0
41539,41309,44660,0,0,0
41553,41304,44622,0,0,0
41540,41281,44605,0,0,0
41504,41253,44602,0,0,0
41514,41258,44607,0,0,0
41571,41292,44633,0,0,0
41613,41324,44686,0,0,0
41646,41362,44746,0,0,0
41719,41423,44797,0,0,0
41809,41483,44837,0,0,0
41849,41503,44869,0,0,0
41853,41497,44883,0,0,0
41873,41499,44877,0,0,0
41893,41504,44869,0,0,0
41862,41487,44863,0,0,0
41803,41462,44849,0,0,0
41773,41458,44821,0,0,0
41753,41452,44785,0,0,0
41694,41416,44735,0,0,0
41611,41361,44655,0,0,0
41549,41305,44544,0,0,0
41483,41240,44429,0,0,0
41366,41147,44314,0,0,0
41234,41050,44190,0,0,0
41140,40970,44061,0,0,0
41052,40895,43934,0,0,0
40933,40812,43810,0,0,0
40817,40740,43678,0,0,0
40740,40684,43537,0,0,0
40650,40611,43387,0,0,0
40508,40505,43219,0,0,0
40350,40389,43022,0,0,0
40202,40269,42800,0,0,0
40025,40120,42572,0,0,0
39803,39948,42340,0,0,0
39597,39795,42105,0,0,0
39438,39673,41884,0,0,0
39274,39550,41686,0,0,0
39088,39421,41495,0,0,0
38931,39309,41297,0,0,0
38810,39212,41095,0,0,0
38667,39100,40901,0,0,0
38502,38978,40714,0,0,0
38361,38869,40521,0,0,0
38244,38768,40324,0,0,0
38099,38652,40140,0,0,0
37930,38529,39968,0,0,0
37799,38428,39797,0,0,0
37701,38344,39631,0,0,0
37577,38246,39472,0,0,0
37435,38141,39311,0,0,0
37326,38052,39138,0,0,0
37223,37960,38957,0,0,0
37062,37834,38772,0,0,0
36865,37696,38583,0,0,0
36700,37579,38394,0,0,0
36555,37472,38218,0,0,0
36381,37353,38058,0,0,0
36204,37238,37894,0,0,0
36077,37151,37724,0,0,0
35977,37072,37564,0,0,0
35860,36975,37415,0,0,0
35745,36878,37259,0,0,0
35667,36798,37094,0,0,0
35586,36721,36938,0,0,0
35458,36632,36789,0,0,0
35324,36549,36637,0,0,0
35222,36483,36485,0,0,0
35125,36416,36358,0,0,0
35009,36346,36261,0,0,0
34912,36292,36167,0,0,0
34855,36256,36067,0,0,0
34790,36210,35964,0,0,0
34686,36138,35844,0,0,0
34583,36062,35700,0,0,0
34495,35987,35549,0,0,0
34385,35902,35418,0,0,0
34256,35818,35312,0,0,0
34176,35771,35230,0,0,0
34175,35772,35189,0,0,0
34206,35802,35214,0,0,0
34266,35862,35315,0,0,0
34423,35985,35496,0,0,0
34694,36177,35776,0,0,0
35025,36415,36176,0,0,0
35419,36709,36698,0,0,0
35924,37084,37325,0,0,0
36516,37519,38035,0,0,0
37128,37974,38809,0,0,0
37746,38440,39618,0,0,0
38409,38930,40436,0,0,0
39090,39428,41257,0,0,0
39720,39896,42066,0,0,0
40302,40336,42842,0,0,0
40882,40771,43572,0,0,0
41435,41182,44266,0,0,0
41905,41544,44927,0,0,0
42316,41874,45534,0,0,0
42724,42203,46078,0,0,0
43104,42503,46571,0,0,0
43405,42743,47015,0,0,0
43650,42942,47399,0,0,0
43886,43129,47721,0,0,0
44083,43281,47978,0,0,0
44200,43372,48163,0,0,0
44265,43418,48274,0,0,0
44314,43437,48323,0,0,0
44324,43423,48340,0,0,0
44268,43380,48333,0,0,0
44196,43336,48300,0,0,0
44148,43306,48249,0,0,0
44090,43269,48191,0,0,0
44000,43217,48120,0,0,0
43924,43172,48028,0,0,0
43886,43141,47924,0,0,0
43834,43091,47816,0,0,0
43740,43015,47705,0,0,0
43645,42937,47586,0,0,0
43567,42867,47470,0,0,0
43469,42785,47373,0,0,0
43348,42698,47286,0,0,0
43264,42634,47196,0,0,0
43228,42597,47108,0,0,0
43177,42551,47031,0,0,0
43102,42489,46952,0,0,0
43051,42438,46855,0,0,0
43018,42396,46754,0,0,0
42945,42336,46665,0,0,0
42848,42269,46583,0,0,0
42789,42229,46504,0,0,0
42753,42209,46427,0,0,0
42683,42179,46359,0,0,0
42600,42143,46289,0,0,0
42564,42125,46211,0,0,0
42549,42108,46128,0,0,0
42491,42057,46037,0,0,0
42409,41987,45938,0,0,0
42348,41928,45831,0,0,0
42300,41871,45732,0,0,0
42221,41800,45648,0,0,0
42135,41735,45571,0,0,0
42090,41703,45505,0,0,0
42058,41678,45458,0,0,0
41997,41638,45420,0,0,0
41930,41592,45369,0,0,0
41893,41555,45297,0,0,0
41856,41508,45222,0,0,0
41786,41439,45149,0,0,0
41720,41379,45073,0,0,0
41687,41345,45004,0,0,0
41652,41316,44954,0,0,0
41590,41285,44913,0,0,0
41545,41271,44863,0,0,0
41539,41279,44808,0,0,0
41523,41278,44760,0,0,0
41472,41256,44715,0,0,0
41422,41230,44661,0,0,0
41388,41202,44598,0,0,0
41332,41155,44542,0,0,0
41244,41087,44489,0,0,0
41177,41026,44422,0,0,0
41129,40974,44345,0,0,0
41040,40909,44261,0,0,0
40909,40825,44155,0,0,0
40793,40740,44008,0,0,0
40690,40647,43831,0,0,0
40538,40519,43635,0,0,0
40340,40361,43422,0,0,0
40162,40208,43198,0,0,0
39998,40063,42976,0,0,0
39798,39910,42759,0,0,0
39581,39761,42538,0,0,0
39412,39643,42311,0,0,0
39278,39537,42089,0,0,0
39123,39414,41882,0,0,0
38956,39288,41678,0,0,0
38826,39182,41467,0,0,0
38714,39083,41263,0,0,0
38561,38962,41072,0,0,0
38391,38836,40886,0,0,0
38255,38731,40706,0,0,0
38134,38638,40546,0,0,0
37985,38534,40406,0,0,0
37836,38439,40266,0,0,0
37734,38378,40120,0,0,0
37643,38324,39974,0,0,0
37524,38252,39822,0,0,0
37401,38174,39652,0,0,0
37301,38099,39468,0,0,0
37191,38012,39291,0,0,0
37040,37906,39127,0,0,0
36894,37809,38967,0,0,0
36784,37729,38814,0,0,0
36675,37650,38682,0,0,0
36550,37571,38572,0,0,0
36457,37512,38466,0,0,0
36408,37469,38363,0,0,0
36345,37415,38265,0,0,0
36244,37344,38162,0,0,0
36153,37279,38046,0,0,0
36089,37223,37925,0,0,0
36001,37146,37806,0,0,0
35881,37055,37682,0,0,0
35788,36984,37555,0,0,0
35726,36932,37439,0,0,0
35640,36866,37340,0,0,0
35538,36793,37242,0,0,0
35469,36740,37131,0,0,0
35420,36692,37014,0,0,0
35328,36614,36897,0,0,0
35205,36520,36771,0,0,0
35114,36446,36636,0,0,0
35044,36384,36511,0,0,0
34943,36306,36408,0,0,0
34831,36225,36309,0,0,0
34765,36168,36201,0,0,0
34719,36117,36086,0,0,0
34638,36049,35962,0,0,0
34539,35976,35830,0,0,0
34473,35923,35700,0,0,0
34428,35883,35600,0,0,0
34371,35847,35550,0,0,0
34353,35854,35565,0,0,0
34442,35941,35670,0,0,0
34621,36091,35889,0,0,0
34859,36288,36230,0,0,0
35190,36549,36675,0,0,0
35646,36890,37216,0,0,0
36173,37278,37842,0,0,0
36718,37683,38527,0,0,0
37294,38112,39245,0,0,0
37908,38563,39980,0,0,0
38507,39007,40736,0,0,0
39057,39427,41506,0,0,0
39611,39849,42271,0,0,0
40195,40288,43024,0,0,0
40747,40706,43756,0,0,0
41233,41081,44441,0,0,0
41693,41434,45061,0,0,0
42135,41765,45621,0,0,0
42509,42046,46131,0,0,0
42813,42279,46587,0,0,0
43109,42500,46986,0,0,0
43400,42709,47335,0,0,0
43627,42875,47642,0,0,0
43785,42998,47898,0,0,0
43931,43110,48098,0,0,0
44063,43204,48249,0,0,0
44123,43251,48356,0,0,0
44126,43267,48415,0,0,0
44134,43289,48426,0,0,0
44138,43303,48403,0,0,0
44085,43277,48361,0,0,0
43996,43227,48301,0,0,0
43932,43190,48229,0,0,0
43880,43157,48150,0,0,0
43788,43099,48069,0,0,0
43680,43031,47975,0,0,0
43610,42978,47861,0,0,0
43551,42920,47740,0,0,0
43452,42834,47615,0,0,0
43341,42744,47487,0,0,0
43265,42680,47364,0,0,0
43206,42628,47266,0,0,0
43117,42561,47193,0,0,0
43026,42500,47124,0,0,0
42977,42467,47052,0,0,0
42932,42430,46979,0,0,0
42844,42363,46894,0,0,0
42747,42288,46783,0,0,0
42673,42218,46648,0,0,0
42579,42127,46501,0,0,0
42434,42000,46333,0,0,0
42282,41866,46139,0,0,0
42152,41744,45931,0,0,0
42004,41616,45732,0,0,0
41822,41484,45551,0,0,0
41662,41381,45383,0,0,0
41545,41313,45232,0,0,0
41426,41240,45098,0,0,0
41292,41150,44963,0,0,0
41181,41069,44814,0,0,0
41093,40994,44661,0,0,0
40985,40905,44525,0,0,0
40865,40818,44407,0,0,0
40792,40763,44302,0,0,0
40765,40736,44222,0,0,0
40724,40711,44174,0,0,0
40667,40690,44140,0,0,0
40652,40694,44113,0,0,0
40676,40710,44097,0,0,0
40677,40704,44089,0,0,0
40655,40684,44076,0,0,0
40660,40676,44052,0,0,0
40671,40666,44029,0,0,0
40627,40626,44008,0,0,0
40551,40574,43975,0,0,0
40502,40541,43929,0,0,0
40467,40509,43872,0,0,0
40396,40453,43804,0,0,0
40310,40389,43720,0,0,0
40259,40342,43624,0,0,0
40215,40288,43519,0,0,0
40125,40206,43400,0,0,0
40012,40115,43256,0,0,0
39922,40035,43099,0,0,0
39833,39956,42957,0,0,0
39707,39869,42834,0,0,0
39586,39798,42714,0,0,0
39508,39757,42597,0,0,0
39424,39710,42487,0,0,0
39302,39638,42373,0,0,0
39182,39563,42232,0,0,0
39085,39492,42061,0,0,0
38963,39394,41873,0,0,0
38794,39262,41672,0,0,0
38626,39132,41457,0,0,0
38480,39010,41236,0,0,0
38312,38875,41025,0,0,0
38112,38727,40824,0,0,0
37936,38600,40627,0,0,0
37801,38496,40439,0,0,0
37649,38383,40263,0,0,0
37473,38261,40085,0,0,0
37329,38158,39890,0,0,0
37215,38064,39691,0,0,0
37077,37954,39508,0,0,0
36919,37842,39341,0,0,0
36801,37764,39185,0,0,0
36723,37709,39051,0,0,0
36626,37642,38937,0,0,0
36510,37567,38823,0,0,0
36430,37511,38699,0,0,0
36374,37460,38575,0,0,0
36281,37385,38454,0,0,0
36165,37297,38329,0,0,0
36083,37224,38197,0,0,0
36012,37162,38071,0,0,0
35896,37083,37950,0,0,0
35762,37001,37820,0,0,0
35671,36943,37686,0,0,0
35600,36892,37565,0,0,0
35499,36827,37460,0,0,0
35388,36755,37345,0,0,0
35304,36688,37212,0,0,0
35214,36613,37079,0,0,0
35075,36516,36950,0,0,0
34932,36426,36816,0,0,0
34834,36361,36683,0,0,0
34751,36299,36560,0,0,0
34648,36226,36445,0,0,0
34561,36160,36326,0,0,0
34513,36106,36197,0,0,0
34449,36030,36059,0,0,0
34332,35922,35903,0,0,0
34204,35814,35727,0,0,0
34091,35716,35542,0,0,0
33956,35607,35361,0,0,0
33789,35485,35187,0,0,0
33648,35388,35018,0,0,0
33552,35323,34867,0,0,0
33458,35262,34753,0,0,0
33370,35211,34682,0,0,0
33352,35203,34654,0,0,0
33418,35248,34696,0,0,0
33517,35326,34832,0,0,0
33663,35450,35068,0,0,0
33940,35666,35418,0,0,0
34347,35970,35896,0,0,0
34809,36318,36486,0,0,0
35304,36703,37146,0,0,0
35871,37135,37846,0,0,0
36480,37587,38579,0,0,0
37052,38015,39328,0,0,0
37589,38424,40070,0,0,0
38142,38842,40791,0,0,0
38696,39255,41497,0,0,0
39189,39634,42188,0,0,0
39638,39991,42846,0,0,0
40095,40349,43464,0,0,0
40532,40684,44039,0,0,0
40900,40972,44564,0,0,0
41219,41217,45016,0,0,0
41530,41436,45389,0,0,0
41803,41618,45705,0,0,0
41992,41747,45972,0,0,0
42127,41845,46183,0,0,0
42252,41936,46348,0,0,0
42353,42015,46493,0,0,0
42405,42073,46621,0,0,0
42447,42129,46716,0,0,0
42512,42193,46786,0,0,0
42554,42238,46839,0,0,0
42542,42243,46864,0,0,0
42515,42228,46847,0,0,0
42498,42204,46790,0,0,0
42453,42158,46714,0,0,0
42364,42088,46626,0,0,0
42289,42030,46533,0,0,0
42252,41996,46447,0,0,0
42206,41959,46376,0,0,0
42142,41914,46312,0,0,0
42111,41890,46247,0,0,0
42114,41885,46183,0,0,0
42088,41857,46122,0,0,0
42025,41804,46053,0,0,0
41974,41757,45963,0,0,0
41936,41713,45862,0,0,0
41852,41643,45768,0,0,0
41725,41553,45675,0,0,0
41623,41481,45575,0,0,0
41549,41428,45474,0,0,0
41449,41360,45371,0,0,0
41332,41279,45257,0,0,0
41252,41211,45132,0,0,0
41186,41147,45002,0,0,0
41072,41053,44866,0,0,0
40932,40954,44722,0,0,0
40828,40884,44575,0,0,0
40749,40825,44438,0,0,0
40644,40752,44320,0,0,0
40536,40685,44212,0,0,0
40476,40645,44110,0,0,0
40431,40609,44019,0,0,0
40356,40554,43932,0,0,0
40274,40496,43837,0,0,0
40226,40453,43735,0,0,0
40187,40411,43650,0,0,0
40122,40358,43589,0,0,0
40076,40324,43548,0,0,0
40089,40327,43534,0,0,0
40117,40345,43552,0,0,0
40118,40358,43588,0,0,0
40124,40383,43619,0,0,0
40161,40425,43643,0,0,0
40184,40446,43661,0,0,0
40165,40433,43663,0,0,0
40148,40415,43640,0,0,0
40145,40399,43601,0,0,0
40112,40359,43559,0,0,0
40035,40303,43510,0,0,0
39972,40259,43437,0,0,0
39942,40229,43353,0,0,0
39890,40183,43272,0,0,0
39801,40117,43178,0,0,0
39722,40057,43052,0,0,0
39655,39996,42910,0,0,0
39542,39900,42768,0,0,0
39389,39780,42615,0,0,0
39254,39672,42442,0,0,0
39128,39571,42258,0,0,0
38967,39453,42083,0,0,0
38793,39335,41912,0,0,0
38673,39248,41742,0,0,0
38593,39178,41577,0,0,0
38477,39084,41417,0,0,0
38327,38972,41242,0,0,0
38201,38874,41053,0,0,0
38089,38775,40867,0,0,0
37937,38650,40690,0,0,0
37767,38523,40511,0,0,0
37632,38422,40334,0,0,0
37506,38326,40164,0,0,0
37346,38209,39993,0,0,0
37180,38086,39808,0,0,0
37047,37976,39608,0,0,0
36906,37856,39398,0,0,0
36716,37712,39173,0,0,0
36517,37571,38936,0,0,0
36350,37451,38699,0,0,0
36190,37334,38483,0,0,0
36009,37216,38291,0,0,0
35851,37116,38112,0,0,0
35746,37042,37945,0,0,0
35644,36967,37798,0,0,0
35513,36876,37656,0,0,0
35384,36784,37497,0,0,0
35270,36691,37323,0,0,0
35125,36574,37144,0,0,0
34935,36434,36961,0,0,0
34760,36307,36774,0,0,0
34624,36200,36596,0,0,0
34488,36098,36441,0,0,0
34341,36001,36299,0,0,0
34224,35922,36152,0,0,0
34137,35853,36000,0,0,0
34019,35767,35848,0,0,0
33863,35661,35679,0,0,0
33729,35559,35486,0,0,0
33623,35470,35294,0,0,0
33490,35374,35129,0,0,0
33334,35271,34977,0,0,0
33217,35188,34825,0,0,0
33129,35118,34682,0,0,0
33014,35036,34552,0,0,0
32884,34953,34417,0,0,0
32796,34890,34265,0,0,0
32726,34825,34109,0,0,0
32607,34724,33946,0,0,0
32450,34603,33766,0,0,0
32311,34490,33571,0,0,0
32180,34380,33387,0,0,0
32020,34264,33228,0,0,0
31870,34170,33095,0,0,0
31795,34126,32999,0,0,0
31776,34119,32961,0,0,0
31780,34138,32999,0,0,0
31856,34211,33116,0,0,0
32056,34361,33323,0,0,0
32342,34564,33641,0,0,0
32673,34801,34071,0,0,0
33077,35100,34602,0,0,0
33574,35468,35219,0,0,0
34113,35870,35914,0,0,0
34648,36281,36663,0,0,0
35211,36712,37429,0,0,0
35816,37166,38194,0,0,0
36411,37612,38955,0,0,0
36963,38034,39697,0,0,0
37501,38444,40391,0,0,0
38032,38835,41035,0,0,0
38504,39178,41640,0,0,0
38899,39476,42197,0,0,0
39268,39756,42701,0,0,0
39628,40024,43165,0,0,0
39938,40259,43601,0,0,0
40193,40466,44001,0,0,0
40446,40668,44352,0,0,0
40698,40859,44657,0,0,0
40890,41009,44919,0,0,0
41020,41115,45120,0,0,0
41143,41203,45251,0,0,0
41247,41267,45333,0,0,0
41279,41284,45385,0,0,0
41258,41271,45404,0,0,0
41251,41262,45392,0,0,0
41254,41254,45365,0,0,0
41215,41228,45333,0,0,0
41150,41191,45283,0,0,0
41120,41170,45215,0,0,0
41099,41147,45135,0,0,0
41029,41094,45042,0,0,0
40926,41019,44922,0,0,0
40836,40948,44774,0,0,0
40740,40872,44626,0,0,0
40603,40771,44485,0,0,0
40468,40672,44347,0,0,0
40385,40605,44221,0,0,0
40314,40547,44110,0,0,0
40212,40478,44003,0,0,0
40108,40408,43872,0,0,0
40033,40343,43714,0,0,0
39942,40258,43549,0,0,0
39796,40139,43378,0,0,0
39646,40023,43201,0,0,0
39530,39931,43031,0,0,0
39410,39845,42886,0,0,0
39269,39754,42758,0,0,0
39157,39680,42632,0,0,0
39092,39631,42513,0,0,0
39021,39576,42406,0,0,0
38922,39507,42303,0,0,0
38841,39448,42195,0,0,0
38793,39404,42097,0,0,0
38736,39353,42030,0,0,0
38662,39297,41985,0,0,0
38626,39269,41947,0,0,0
38635,39270,41921,0,0,0
38630,39268,41910,0,0,0
38607,39267,41906,0,0,0
38622,39294,41901,0,0,0
38658,39328,41897,0,0,0
38655,39331,41900,0,0,0
38620,39312,41901,0,0,0
38611,39302,41896,0,0,0
38629,39299,41900,0,0,0
38623,39285,41916,0,0,0
38601,39265,41923,0,0,0
38613,39262,41910,0,0,0
38640,39261,41893,0,0,0
38617,39237,41875,0,0,0
38563,39199,41838,0,0,0
38530,39164,41772,0,0,0
38496,39120,41696,0,0,0
38409,39050,41618,0,0,0
38302,38977,41525,0,0,0
38228,38923,41422,0,0,0
38161,38870,41321,0,0,0
38065,38799,41218,0,0,0
37971,38729,41098,0,0,0
37913,38676,40967,0,0,0
37843,38608,40834,0,0,0
37726,38512,40693,0,0,0
37598,38410,40535,0,0,0
37484,38313,40363,0,0,0
37350,38201,40190,0,0,0
37176,38068,40016,0,0,0
37011,37948,39835,0,0,0
36881,37854,39652,0,0,0
36736,37754,39469,0,0,0
36553,37637,39277,0,0,0
36378,37523,39063,0,0,0
36225,37412,38825,0,0,0
36045,37279,38580,0,0,0
35830,37124,38337,0,0,0
35628,36971,38085,0,0,0
35452,36827,37828,0,0,0
35243,36669,37580,0,0,0
35000,36499,37333,0,0,0
34789,36347,37083,0,0,0
34616,36211,36841,0,0,0
34426,36066,36618,0,0,0
34229,35924,36400,0,0,0
34076,35805,36174,0,0,0
33943,35693,35952,0,0,0
33763,35556,35736,0,0,0
33547,35403,35505,0,0,0
33354,35261,35253,0,0,0
33174,35128,35002,0,0,0
32956,34982,34763,0,0,0
32731,34841,34534,0,0,0
32560,34728,34318,0,0,0
32427,34632,34133,0,0,0
32283,34532,33981,0,0,0
32153,34446,33847,0,0,0
32087,34395,33732,0,0,0
32055,34363,33646,0,0,0
32007,34328,33587,0,0,0
31970,34303,33537,0,0,0
31975,34301,33488,0,0,0
31977,34295,33443,0,0,0
31934,34264,33395,0,0,0
31881,34235,33332,0,0,0
31851,34224,33261,0,0,0
31811,34206,33197,0,0,0
31739,34164,33143,0,0,0
31680,34129,33088,0,0,0
31661,34112,33032,0,0,0
31631,34079,32972,0,0,0
31562,34017,32898,0,0,0
31506,33961,32804,0,0,0
31483,33921,32711,0,0,0
31440,33872,32638,0,0,0
31373,33825,32588,0,0,0
31355,33824,32577,0,0,0
31425,33885,32645,0,0,0
31554,33993,32823,0,0,0
31743,34152,33107,0,0,0
32051,34397,33490,0,0,0
32477,34726,33989,0,0,0
32957,35101,34601,0,0,0
33481,35509,35293,0,0,0
34086,35962,36028,0,0,0
34734,36432,36790,0,0,0
35346,36882,37572,0,0,0
35927,37317,38359,0,0,0
36533,37760,39135,0,0,0
37146,38197,39899,0,0,0
37703,38604,40647,0,0,0
38218,38986,41350,0,0,0
38737,39360,41989,0,0,0
39223,39703,42569,0,0,0
39617,39991,43086,0,0,0
39947,40243,43537,0,0,0
40267,40486,43930,0,0,0
40560,40704,44287,0,0,0
40780,40878,44605,0,0,0
40956,41028,44874,0,0,0
41140,41179,45101,0,0,0
41302,41307,45296,0,0,0
41400,41392,45456,0,0,0
41467,41451,45564,0,0,0
41538,41497,45615,0,0,0
41574,41510,45623,0,0,0
41542,41478,45598,0,0,0
41489,41435,45541,0,0,0
41448,41398,45465,0,0,0
41384,41344,45391,0,0,0
41282,41276,45323,0,0,0
41202,41221,45250,0,0,0
41169,41183,45170,0,0,0
41128,41133,45088,0,0,0
41057,41066,44993,0,0,0
41000,41008,44881,0,0,0
40966,40963,44768,0,0,0
40906,40906,44667,0,0,0
40814,40834,44569,0,0,0
40743,40772,44462,0,0,0
40688,40720,44354,0,0,0
40591,40656,44248,0,0,0
40458,40580,44128,0,0,0
40349,40515,43983,0,0,0
40257,40451,43831,0,0,0
40127,40357,43682,0,0,0
39978,40251,43526,0,0,0
39869,40165,43368,0,0,0
39784,40097,43229,0,0,0
39678,40028,43127,0,0,0
39582,39972,43044,0,0,0
39547,39947,42964,0,0,0
39543,39934,42895,0,0,0
39509,39902,42836,0,0,0
39462,39862,42777,0,0,0
39451,39843,42717,0,0,0
39461,39835,42677,0,0,0
39450,39820,42666,0,0,0
39445,39819,42673,0,0,0
39490,39852,42698,0,0,0
39551,39893,42744,0,0,0
39587,39919,42795,0,0,0
39620,39940,42834,0,0,0
39677,39968,42868,0,0,0
39728,39993,42919,0,0,0
39741,40008,42980,0,0,0
39761,40038,43038,0,0,0
39819,40092,43096,0,0,0
39875,40146,43161,0,0,0
39903,40188,43220,0,0,0
39944,40231,43254,0,0,0
40011,40272,43270,0,0,0
40049,40282,43279,0,0,0
40035,40263,43271,0,0,0
40019,40241,43240,0,0,0
40015,40218,43196,0,0,0
39980,40178,43158,0,0,0
39910,40129,43117,0,0,0
39862,40098,43058,0,0,0
39838,40077,42985,0,0,0
39775,40029,42898,0,0,0
39669,39949,42785,0,0,0
39576,39868,42641,0,0,0
39489,39785,42479,0,0,0
39354,39674,42314,0,0,0
39195,39556,42152,0,0,0
39076,39469,41994,0,0,0
38983,39400,41848,0,0,0
38863,39321,41715,0,0,0
38732,39242,41583,0,0,0
38647,39179,41443,0,0,0
38585,39115,41297,0,0,0
38477,39018,41146,0,0,0
38339,38909,40988,0,0,0
38226,38818,40829,0,0,0
38123,38731,40675,0,0,0
37989,38625,40530,0,0,0
37848,38514,40375,0,0,0
37742,38421,40205,0,0,0
37635,38324,40031,0,0,0
37476,38198,39854,0,0,0
37303,38072,39670,0,0,0
37171,37972,39488,0,0,0
37053,37882,39326,0,0,0
36910,37782,39180,0,0,0
36778,37695,39036,0,0,0
36694,37637,38895,0,0,0
36608,37575,38758,0,0,0
36485,37486,38613,0,0,0
36364,37397,38456,0,0,0
36271,37322,38306,0,0,0
36171,37239,38181,0,0,0
36048,37148,38071,0,0,0
35953,37081,37963,0,0,0
35910,37046,37867,0,0,0
35871,37018,37797,0,0,0
35816,36986,37739,0,0,0
35781,36964,37669,0,0,0
35765,36944,37587,0,0,0
35710,36894,37499,0,0,0
35608,36819,37399,0,0,0
35517,36749,37282,0,0,0
35443,36685,37157,0,0,0
35337,36609,37043,0,0,0
35210,36530,36937,0,0,0
35118,36470,36824,0,0,0
35055,36420,36708,0,0,0
34966,36358,36603,0,0,0
34867,36298,36513,0,0,0
34829,36275,36448,0,0,0
34860,36292,36440,0,0,0
34920,36335,36516,0,0,0
35036,36429,36690,0,0,0
35270,36606,36972,0,0,0
35606,36853,37373,0,0,0
35979,37139,37879,0,0,0
36408,37475,38469,0,0,0
36936,37883,39127,0,0,0
37519,38328,39837,0,0,0
38097,38772,40583,0,0,0
38688,39227,41342,0,0,0
39321,39701,42099,0,0,0
39936,40151,42846,0,0,0
40476,40551,43570,0,0,0
40977,40927,44251,0,0,0
41475,41290,44883,0,0,0
41934,41625,45478,0,0,0
42318,41920,46026,0,0,0
42675,42197,46516,0,0,0
43042,42468,46961,0,0,0
43367,42701,47369,0,0,0
43621,42888,47729,0,0,0
43849,43058,48028,0,0,0
44071,43218,48270,0,0,0
44242,43344,48471,0,0,0
44345,43427,48631,0,0,0
44429,43493,48744,0,0,0
44511,43547,48826,0,0,0
44542,43562,48890,0,0,0
44520,43543,48924,0,0,0
44504,43525,48919,0,0,0
44500,43512,48889,0,0,0
44452,43476,48845,0,0,0
44369,43426,48783,0,0,0
44318,43398,48705,0,0,0
44301,43383,48625,0,0,0
44256,43344,48549,0,0,0
44184,43290,48460,0,0,0
44141,43255,48354,0,0,0
44112,43228,48248,0,0,0
44041,43180,48154,0,0,0
43952,43123,48063,0,0,0
43907,43079,47970,0,0,0
43880,43037,47882,0,0,0
43806,42967,47800,0,0,0
43707,42888,47715,0,0,0
43639,42827,47626,0,0,0
43583,42771,47544,0,0,0
43492,42699,47465,0,0,0
43392,42629,47373,0,0,0
43327,42580,47271,0,0,0
43266,42531,47172,0,0,0
43174,42465,47078,0,0,0
43087,42398,46968,0,0,0
43041,42348,46845,0,0,0
42998,42294,46728,0,0,0
42921,42220,46618,0,0,0
42847,42144,46506,0,0,0
42808,42082,46397,0,0,0
42768,42017,46309,0,0,0
42699,41944,46242,0,0,0
42648,41900,46187,0,0,0
42644,41893,46151,0,0,0
42643,41894,46143,0,0,0
42619,41893,46157,0,0,0
42620,41912,46175,0,0,0
42667,41957,46195,0,0,0
42707,42000,46233,0,0,0
42721,42030,46280,0,0,0
42754,42069,46314,0,0,0
42818,42112,46340,0,0,0
42855,42129,46368,0,0,0
42858,42126,46389,0,0,0
42874,42131,46385,0,0,0
42899,42138,46359,0,0,0
42875,42116,46322,0,0,0
42806,42068,46273,0,0,0
42757,42025,46209,0,0,0
42722,41984,46140,0,0,0
42647,41925,46072,0,0,0
42550,41857,45999,0,0,0
42491,41807,45916,0,0,0
42450,41769,45836,0,0,0
42366,41718,45762,0,0,0
42266,41663,45676,0,0,0
42209,41626,45574,0,0,0
42162,41583,45466,0,0,0
42067,41508,45347,0,0,0
41946,41419,45199,0,0,0
41846,41337,45020,0,0,0
41733,41239,44826,0,0,0
41563,41102,44614,0,0,0
41369,40947,44377,0,0,0
41194,40796,44125,0,0,0
41014,40638,43880,0,0,0
40802,40465,43649,0,0,0
40604,40308,43429,0,0,0
40461,40189,43225,0,0,0
40340,40089,43059,0,0,0
40215,39996,42928,0,0,0
40112,39924,42812,0,0,0
40040,39875,42715,0,0,0
39955,39821,42647,0,0,0
39845,39754,42582,0,0,0
39745,39700,42482,0,0,0
39667,39663,42358,0,0,0
39567,39615,42234,0,0,0
39436,39543,42099,0,0,0
39323,39466,41938,0,0,0
39232,39388,41759,0,0,0
39105,39286,41580,0,0,0
38939,39165,41393,0,0,0
38790,39049,41185,0,0,0
38664,38937,40966,0,0,0
38513,38809,40759,0,0,0
38344,38676,40569,0,0,0
38219,38572,40397,0,0,0
38136,38496,40254,0,0,0
38041,38420,40143,0,0,0
37937,38348,40046,0,0,0
37879,38304,39953,0,0,0
37842,38265,39864,0,0,0
37761,38203,39775,0,0,0
37654,38131,39667,0,0,0
37585,38076,39541,0,0,0
37534,38022,39417,0,0,0
37452,37944,39301,0,0,0
37357,37862,39185,0,0,0
37289,37802,39068,0,0,0
37226,37747,38964,0,0,0
37124,37680,38878,0,0,0
37015,37621,38794,0,0,0
36950,37590,38704,0,0,0
36897,37566,38608,0,0,0
36814,37531,38506,0,0,0
36727,37486,38396,0,0,0
36675,37440,38282,0,0,0
36634,37382,38189,0,0,0
36585,37310,38128,0,0,0
36577,37269,38107,0,0,0
36658,37301,38152,0,0,0
36812,37407,38301,0,0,0
37024,37585,38573,0,0,0
37341,37853,38971,0,0,0
37788,38210,39503,0,0,0
38302,38614,40159,0,0,0
38837,39043,40898,0,0,0
39422,39507,41674,0,0,0
40056,39992,42465,0,0,0
40674,40458,43260,0,0,0
41253,40898,44044,0,0,0
41831,41336,44798,0,0,0
42405,41765,45523,0,0,0
42923,42155,46227,0,0,0
43380,42510,46894,0,0,0
43837,42865,47525,0,0,0
44306,43222,48130,0,0,0
44729,43547,48706,0,0,0
45100,43841,49229,0,0,0
45471,44125,49687,0,0,0
45830,44381,50085,0,0,0
46112,44577,50429,0,0,0
46319,44726,50708,0,0,0
46503,44858,50917,0,0,0
46659,44956,51082,0,0,0
46745,44994,51218,0,0,0
46778,45001,51304,0,0,0
46810,45013,51341,0,0,0
46827,45018,51354,0,0,0
46786,44997,51353,0,0,0
46716,44970,51327,0,0,0
46669,44958,51281,0,0,0
46624,44940,51228,0,0,0
46544,44896,51166,0,0,0
46459,44845,51085,0,0,0
46404,44800,50988,0,0,0
46348,44750,50895,0,0,0
46265,44690,50813,0,0,0
46199,44650,50739,0,0,0
46182,44641,50684,0,0,0
46172,44633,50648,0,0,0
46136,44611,50616,0,0,0
46103,44591,50561,0,0,0
46092,44576,50487,0,0,0
46057,44535,50403,0,0,0
45976,44460,50300,0,0,0
45892,44381,50176,0,0,0
45821,44304,50044,0,0,0
45714,44204,49913,0,0,0
45567,44082,49777,0,0,0
45439,43978,49633,0,0,0
45333,43895,49490,0,0,0
45204,43808,49358,0,0,0
45056,43718,49228,0,0,0
44947,43644,49078,0,0,0
44873,43584,48919,0,0,0
44768,43502,48767,0,0,0
44633,43400,48619,0,0,0
44528,43310,48472,0,0,0
44454,43239,48343,0,0,0
44363,43163,48245,0,0,0
44269,43093,48172,0,0,0
44230,43061,48116,0,0,0
44231,43060,48081,0,0,0
44213,43055,48066,0,0,0
44187,43047,48052,0,0,0
44205,43056,48032,0,0,0
44242,43068,48016,0,0,0
44241,43055,47998,0,0,0
44210,43031,47968,0,0,0
44194,43020,47931,0,0,0
44179,43010,47904,0,0,0
44122,42977,47882,0,0,0
44054,42941,47849,0,0,0
44026,42928,47809,0,0,0
44008,42917,47776,0,0,0
43959,42888,47749,0,0,0
43912,42861,47707,0,0,0
43900,42848,47653,0,0,0
43880,42818,47593,0,0,0
43810,42760,47521,0,0,0
43728,42701,47427,0,0,0
43663,42646,47317,0,0,0
43580,42571,47206,0,0,0
43453,42475,47092,0,0,0
43332,42390,46959,0,0,0
43241,42320,46810,0,0,0
43128,42232,46653,0,0,0
42977,42115,46481,0,0,0
42838,42002,46286,0,0,0
42720,41899,46079,0,0,0
42567,41778,45872,0,0,0
42383,41646,45669,0,0,0
42225,41537,45471,0,0,0
42093,41441,45278,0,0,0
41935,41329,45096,0,0,0
41751,41203,44916,0,0,0
41600,41097,44734,0,0,0
41484,41001,44558,0,0,0
41337,40880,44380,0,0,0
41159,40746,44188,0,0,0
41006,40625,43971,0,0,0
40863,40506,43744,0,0,0
40671,40362,43522,0,0,0
40457,40209,43302,0,0,0
40282,40081,43086,0,0,0
40133,39969,42884,0,0,0
39963,39850,42700,0,0,0
39790,39732,42518,0,0,0
39664,39630,42333,0,0,0
39553,39530,42156,0,0,0
39405,39414,41980,0,0,0
39243,39295,41793,0,0,0
39109,39187,41599,0,0,0
38983,39080,41417,0,0,0
38820,38960,41242,0,0,0
38652,38850,41061,0,0,0
38521,38765,40880,0,0,0
38403,38686,40715,0,0,0
38269,38595,40570,0,0,0
38154,38515,40437,0,0,0
38094,38458,40318,0,0,0
38041,38396,40210,0,0,0
37953,38316,40093,0,0,0
37866,38237,39960,0,0,0
37800,38166,39820,0,0,0
37709,38082,39691,0,0,0
37574,37986,39568,0,0,0
