green_channel,red_channel,ir_channel,Anomaly_ch0,Anomaly_ch1,Anomaly_ch2
22310,9718,43957,0,0,0
22266,9675,43873,0,0,0
22220,9628,43788,0,0,0
22175,9583,43707,0,0,0
22135,9548,43634,0,0,0
22092,9516,43561,0,0,0
22043,9477,43482,0,0,0
21995,9441,43408,0,0,0
21954,9411,43345,0,0,0
21915,9383,43281,0,0,0
21874,9348,43209,0,0,0
21839,9313,43139,0,0,0
21813,9285,43078,0,0,0
21786,9256,43020,0,0,0
21753,9221,42962,0,0,0
21719,9189,42908,0,0,0
21691,9165,42862,0,0,0
21663,9143,42819,0,0,0
21637,9118,42782,0,0,0
21618,9097,42756,0,0,0
21605,9086,42740,0,0,0
21592,9078,42727,0,0,0
21580,9072,42718,0,0,0
21574,9072,42719,0,0,0
21574,9078,42728,0,0,0
21576,9080,42740,0,0,0
21579,9078,42756,0,0,0
21590,9084,42784,0,0,0
21604,9098,42818,0,0,0
21613,9108,42847,0,0,0
21620,9117,42872,0,0,0
21636,9137,42904,0,0,0
21658,9164,42940,0,0,0
21678,9184,42970,0,0,0
21695,9195,42998,0,0,0
21718,9212,43034,0,0,0
21746,9232,43071,0,0,0
21764,9243,43094,0,0,0
21772,9247,43107,0,0,0
21777,9252,43120,0,0,0
21775,9251,43125,0,0,0
21763,9235,43112,0,0,0
21747,9210,43089,0,0,0
21734,9186,43065,0,0,0
21719,9162,43036,0,0,0
21695,9131,42992,0,0,0
21663,9096,42941,0,0,0
21630,9069,42895,0,0,0
21595,9044,42845,0,0,0
21557,9016,42785,0,0,0
21519,8992,42724,0,0,0
21488,8975,42667,0,0,0
21457,8956,42608,0,0,0
21423,8926,42544,0,0,0
21392,8897,42486,0,0,0
21370,8878,42437,0,0,0
21344,8857,42387,0,0,0
21311,8828,42330,0,0,0
21278,8799,42276,0,0,0
21249,8774,42225,0,0,0
21216,8742,42169,0,0,0
21178,8705,42111,0,0,0
21142,8674,42056,0,0,0
21111,8649,42003,0,0,0
21076,8621,41945,0,0,0
21038,8588,41884,0,0,0
21005,8558,41830,0,0,0
20981,8533,41784,0,0,0
20959,8508,41739,0,0,0
20938,8482,41694,0,0,0
20920,8459,41655,0,0,0
20900,8436,41617,0,0,0
20872,8409,41572,0,0,0
20843,8383,41530,0,0,0
20824,8368,41500,0,0,0
20810,8359,41475,0,0,0
20789,8343,41444,0,0,0
20767,8323,41410,0,0,0
20754,8314,41387,0,0,0
20747,8313,41370,0,0,0
20739,8309,41351,0,0,0
20731,8302,41331,0,0,0
20730,8297,41315,0,0,0
20729,8291,41300,0,0,0
20719,8278,41279,0,0,0
20703,8262,41257,0,0,0
20688,8252,41238,0,0,0
20669,8243,41218,0,0,0
20639,8227,41192,0,0,0
20608,8210,41164,0,0,0
20585,8201,41139,0,0,0
20566,8193,41116,0,0,0
20544,8176,41091,0,0,0
20528,8162,41073,0,0,0
20523,8158,41066,0,0,0
20521,8153,41061,0,0,0
20515,8141,41051,0,0,0
20513,8136,41042,0,0,0
20520,8140,41038,0,0,0
20525,8141,41029,0,0,0
20523,8134,41019,0,0,0
20523,8130,41021,0,0,0
20535,8141,41040,0,0,0
20554,8159,41069,0,0,0
20580,8187,41112,0,0,0
20624,8238,41184,0,0,0
20690,8316,41294,0,0,0
20776,8409,41439,0,0,0
20886,8520,41628,0,0,0
21027,8657,41875,0,0,0
21200,8820,42177,0,0,0
21397,9000,42523,0,0,0
21615,9195,42907,0,0,0
21857,9412,43332,0,0,0
22117,9645,43788,0,0,0
22380,9875,44256,0,0,0
22639,10101,44720,0,0,0
22896,10328,45174,0,0,0
23138,10540,45602,0,0,0
23350,10722,45979,0,0,0
23535,10877,46304,0,0,0
23701,11016,46583,0,0,0
23844,11129,46812,0,0,0
23947,11207,46980,0,0,0
24015,11255,47092,0,0,0
24058,11284,47158,0,0,0
24074,11289,47177,0,0,0
24059,11264,47146,0,0,0
24018,11219,47077,0,0,0
23964,11166,46980,0,0,0
23895,11104,46859,0,0,0
23810,11028,46715,0,0,0
23719,10947,46556,0,0,0
23627,10866,46391,0,0,0
23530,10781,46220,0,0,0
23426,10689,46042,0,0,0
23322,10600,45866,0,0,0
23224,10524,45703,0,0,0
23129,10450,45545,0,0,0
23033,10369,45384,0,0,0
22941,10290,45228,0,0,0
22858,10220,45083,0,0,0
22784,10154,44946,0,0,0
22713,10091,44817,0,0,0
22652,10035,44700,0,0,0
22600,9985,44596,0,0,0
22546,9934,44498,0,0,0
22487,9882,44401,0,0,0
22430,9835,44309,0,0,0
22378,9794,44220,0,0,0
22325,9749,44127,0,0,0
22268,9696,44035,0,0,0
22217,9648,43955,0,0,0
22175,9610,43883,0,0,0
22130,9573,43808,0,0,0
22083,9534,43732,0,0,0
22040,9498,43659,0,0,0
21997,9462,43586,0,0,0
21953,9422,43510,0,0,0
21915,9383,43437,0,0,0
21891,9358,43378,0,0,0
21870,9344,43330,0,0,0
21845,9327,43285,0,0,0
21821,9313,43246,0,0,0
21810,9310,43219,0,0,0
21807,9311,43198,0,0,0
21803,9311,43180,0,0,0
21800,9313,43172,0,0,0
21804,9321,43178,0,0,0
21809,9326,43187,0,0,0
21812,9327,43195,0,0,0
21818,9332,43209,0,0,0
21830,9350,43236,0,0,0
21846,9371,43269,0,0,0
21859,9389,43301,0,0,0
21875,9409,43335,0,0,0
21896,9437,43372,0,0,0
21915,9461,43409,0,0,0
21929,9475,43444,0,0,0
21947,9489,43483,0,0,0
21970,9509,43528,0,0,0
21991,9529,43570,0,0,0
22005,9542,43602,0,0,0
22019,9553,43627,0,0,0
22035,9564,43649,0,0,0
22043,9570,43661,0,0,0
22039,9571,43662,0,0,0
22030,9572,43655,0,0,0
22019,9570,43640,0,0,0
21999,9557,43610,0,0,0
21970,9532,43570,0,0,0
21946,9507,43535,0,0,0
21929,9487,43501,0,0,0
21911,9466,43459,0,0,0
21888,9444,43411,0,0,0
21864,9423,43367,0,0,0
21838,9403,43326,0,0,0
21805,9374,43276,0,0,0
21770,9340,43219,0,0,0
21742,9311,43163,0,0,0
21713,9280,43102,0,0,0
21676,9239,43030,0,0,0
21634,9196,42955,0,0,0
21602,9166,42894,0,0,0
21580,9147,42841,0,0,0
21555,9125,42784,0,0,0
21530,9099,42725,0,0,0
21509,9077,42673,0,0,0
21487,9054,42625,0,0,0
21457,9026,42572,0,0,0
21424,8998,42520,0,0,0
21397,8978,42474,0,0,0
21369,8956,42427,0,0,0
21336,8927,42373,0,0,0
21304,8897,42320,0,0,0
21280,8876,42279,0,0,0
21259,8857,42244,0,0,0
21235,8829,42207,0,0,0
21215,8800,42169,0,0,0
21203,8776,42134,0,0,0
21188,8754,42099,0,0,0
21167,8731,42062,0,0,0
21148,8712,42028,0,0,0
21134,8701,42001,0,0,0
21117,8688,41971,0,0,0
21092,8668,41935,0,0,0
21069,8650,41903,0,0,0
21053,8639,41877,0,0,0
21036,8628,41851,0,0,0
21017,8612,41823,0,0,0
21005,8596,41800,0,0,0
21000,8584,41780,0,0,0
20989,8568,41752,0,0,0
20969,8547,41715,0,0,0
20948,8530,41681,0,0,0
20928,8518,41653,0,0,0
20903,8501,41622,0,0,0
20874,8480,41589,0,0,0
20852,8470,41561,0,0,0
20838,8467,41534,0,0,0
20822,8455,41500,0,0,0
20807,8441,41472,0,0,0
20806,8437,41460,0,0,0
20810,8439,41460,0,0,0
20813,8444,41467,0,0,0
20824,8459,41494,0,0,0
20859,8496,41553,0,0,0
20919,8555,41645,0,0,0
20998,8628,41773,0,0,0
21101,8722,41949,0,0,0
21238,8849,42184,0,0,0
21403,9006,42474,0,0,0
21593,9184,42812,0,0,0
21810,9384,43199,0,0,0
22055,9614,43634,0,0,0
22318,9860,44101,0,0,0
22586,10105,44583,0,0,0
22851,10347,45069,0,0,0
23111,10587,45551,0,0,0
23356,10811,46006,0,0,0
23574,11007,46416,0,0,0
23768,11180,46780,0,0,0
23940,11333,47097,0,0,0
24080,11458,47360,0,0,0
24184,11545,47559,0,0,0
24258,11603,47702,0,0,0
24312,11642,47792,0,0,0
24337,11657,47823,0,0,0
24332,11646,47801,0,0,0
24308,11619,47743,0,0,0
24271,11583,47658,0,0,0
24214,11529,47542,0,0,0
24134,11459,47403,0,0,0
24042,11385,47254,0,0,0
23948,11311,47101,0,0,0
23852,11229,46937,0,0,0
23754,11140,46765,0,0,0
23662,11060,46598,0,0,0
23575,10987,46438,0,0,0
23487,10913,46278,0,0,0
23400,10837,46122,0,0,0
23321,10768,45981,0,0,0
23250,10709,45851,0,0,0
23180,10652,45727,0,0,0
23111,10596,45611,0,0,0
23053,10547,45510,0,0,0
23006,10503,45417,0,0,0
22954,10458,45326,0,0,0
22902,10416,45241,0,0,0
22856,10383,45166,0,0,0
22814,10354,45097,0,0,0
22765,10316,45025,0,0,0
22713,10275,44953,0,0,0
22672,10244,44887,0,0,0
22636,10217,44820,0,0,0
22594,10184,44746,0,0,0
22551,10148,44672,0,0,0
22512,10116,44603,0,0,0
22472,10084,44534,0,0,0
22425,10046,44462,0,0,0
22381,10006,44395,0,0,0
22345,9975,44334,0,0,0
22311,9950,44279,0,0,0
22274,9922,44226,0,0,0
22241,9895,44178,0,0,0
22216,9875,44137,0,0,0
22190,9856,44101,0,0,0
22164,9836,44069,0,0,0
22144,9825,44048,0,0,0
22136,9823,44039,0,0,0
22134,9821,44036,0,0,0
22138,9815,44038,0,0,0
22153,9818,44054,0,0,0
22180,9835,44080,0,0,0
22207,9856,44107,0,0,0
22229,9874,44133,0,0,0
22252,9895,44167,0,0,0
22277,9922,44210,0,0,0
22298,9946,44254,0,0,0
22316,9967,44296,0,0,0
22341,9996,44346,0,0,0
22369,10030,44399,0,0,0
22390,10056,44441,0,0,0
22404,10075,44471,0,0,0
22424,10097,44501,0,0,0
22440,10115,44528,0,0,0
22443,10119,44543,0,0,0
22438,10115,44548,0,0,0
22435,10116,44552,0,0,0
22434,10112,44547,0,0,0
22427,10096,44522,0,0,0
22416,10076,44485,0,0,0
22407,10061,44448,0,0,0
22387,10040,44403,0,0,0
22352,10006,44344,0,0,0
22314,9968,44279,0,0,0
22279,9937,44218,0,0,0
22242,9907,44155,0,0,0
22199,9870,44084,0,0,0
22156,9830,44011,0,0,0
22124,9798,43948,0,0,0
22095,9768,43886,0,0,0
22061,9734,43819,0,0,0
22028,9700,43750,0,0,0
21998,9671,43683,0,0,0
21962,9637,43612,0,0,0
21916,9592,43536,0,0,0
21872,9546,43464,0,0,0
21840,9510,43403,0,0,0
21811,9475,43342,0,0,0
21779,9438,43274,0,0,0
21748,9407,43209,0,0,0
21724,9385,43149,0,0,0
21700,9362,43087,0,0,0
21671,9335,43022,0,0,0
21643,9314,42963,0,0,0
21621,9300,42911,0,0,0
21597,9282,42856,0,0,0
21568,9254,42797,0,0,0
21543,9229,42748,0,0,0
21524,9209,42709,0,0,0
21500,9185,42666,0,0,0
21471,9156,42617,0,0,0
21448,9136,42573,0,0,0
21431,9125,42533,0,0,0
21412,9109,42489,0,0,0
21392,9090,42444,0,0,0
21380,9074,42410,0,0,0
21367,9059,42383,0,0,0
21345,9035,42350,0,0,0
21317,9010,42317,0,0,0
21297,8998,42297,0,0,0
21282,8994,42282,0,0,0
21263,8981,42256,0,0,0
21245,8963,42225,0,0,0
21237,8951,42199,0,0,0
21230,8940,42173,0,0,0
21220,8924,42141,0,0,0
21210,8906,42111,0,0,0
21202,8893,42087,0,0,0
21188,8879,42063,0,0,0
21166,8860,42036,0,0,0
21144,8842,42015,0,0,0
21130,8834,42006,0,0,0
21122,8829,41999,0,0,0
21116,8820,41997,0,0,0
21123,8822,42014,0,0,0
21149,8848,42064,0,0,0
21191,8893,42144,0,0,0
21255,8957,42257,0,0,0
21353,9055,42422,0,0,0
21490,9189,42648,0,0,0
21657,9348,42928,0,0,0
21848,9526,43254,0,0,0
22071,9727,43634,0,0,0
22324,9957,44070,0,0,0
22591,10199,44541,0,0,0
22862,10443,45031,0,0,0
23137,10690,45534,0,0,0
23409,10936,46033,0,0,0
23663,11166,46502,0,0,0
23896,11376,46932,0,0,0
24111,11570,47323,0,0,0
24304,11742,47667,0,0,0
24464,11878,47945,0,0,0
24584,11974,48155,0,0,0
24674,12044,48314,0,0,0
24737,12095,48427,0,0,0
24768,12119,48486,0,0,0
24775,12118,48497,0,0,0
24770,12109,48472,0,0,0
24749,12090,48414,0,0,0
24701,12045,48317,0,0,0
24631,11980,48187,0,0,0
24553,11910,48045,0,0,0
24466,11832,47889,0,0,0
24363,11738,47715,0,0,0
24251,11639,47535,0,0,0
24145,11549,47358,0,0,0
24045,11466,47179,0,0,0
23946,11382,46997,0,0,0
23854,11301,46823,0,0,0
23774,11232,46665,0,0,0
23700,11168,46519,0,0,0
23623,11106,46376,0,0,0
23549,11051,46245,0,0,0
23484,11005,46132,0,0,0
23421,10956,46027,0,0,0
23353,10897,45924,0,0,0
23294,10842,45834,0,0,0
23250,10800,45764,0,0,0
23207,10761,45697,0,0,0
23159,10718,45620,0,0,0
23118,10680,45542,0,0,0
23084,10650,45468,0,0,0
23044,10613,45388,0,0,0
22993,10568,45301,0,0,0
22943,10528,45219,0,0,0
22897,10493,45143,0,0,0
22846,10451,45062,0,0,0
22790,10400,44975,0,0,0
22741,10356,44894,0,0,0
22699,10320,44820,0,0,0
22659,10281,44741,0,0,0
22619,10241,44661,0,0,0
22588,10212,44598,0,0,0
22565,10194,44554,0,0,0
22543,10177,44517,0,0,0
22523,10162,44485,0,0,0
22511,10160,44470,0,0,0
22502,10164,44468,0,0,0
22491,10165,44471,0,0,0
22487,10170,44479,0,0,0
22499,10187,44501,0,0,0
22519,10211,44532,0,0,0
22534,10232,44561,0,0,0
22550,10254,44594,0,0,0
22578,10285,44639,0,0,0
22612,10319,44688,0,0,0
22644,10346,44731,0,0,0
22674,10368,44773,0,0,0
22709,10394,44817,0,0,0
22740,10418,44855,0,0,0
22757,10432,44881,0,0,0
22767,10440,44900,0,0,0
22777,10450,44919,0,0,0
22780,10454,44931,0,0,0
22771,10445,44931,0,0,0
22758,10433,44929,0,0,0
22747,10423,44931,0,0,0
22728,10404,44926,0,0,0
22702,10378,44910,0,0,0
22683,10361,44891,0,0,0
22673,10354,44873,0,0,0
22662,10345,44848,0,0,0
22646,10332,44815,0,0,0
22632,10323,44783,0,0,0
22620,10318,44754,0,0,0
22601,10306,44721,0,0,0
22571,10285,44679,0,0,0
22541,10262,44636,0,0,0
22514,10242,44592,0,0,0
22483,10220,44538,0,0,0
22446,10191,44473,0,0,0
22409,10159,44407,0,0,0
22378,10129,44344,0,0,0
22344,10091,44273,0,0,0
22307,10046,44194,0,0,0
22275,10004,44116,0,0,0
22246,9967,44040,0,0,0
22212,9930,43961,0,0,0
22173,9893,43882,0,0,0
22138,9866,43817,0,0,0
22105,9845,43762,0,0,0
22065,9816,43707,0,0,0
22021,9781,43650,0,0,0
21988,9752,43603,0,0,0
21962,9724,43561,0,0,0
21928,9690,43513,0,0,0
21890,9654,43460,0,0,0
21860,9627,43411,0,0,0
21837,9603,43361,0,0,0
21810,9573,43308,0,0,0
21785,9545,43256,0,0,0
21769,9530,43211,0,0,0
21753,9519,43165,0,0,0
21733,9501,43116,0,0,0
21714,9483,43072,0,0,0
21700,9473,43040,0,0,0
21683,9460,43012,0,0,0
21657,9437,42977,0,0,0
21634,9414,42942,0,0,0
21621,9398,42915,0,0,0
21608,9383,42888,0,0,0
21587,9361,42852,0,0,0
21569,9343,42814,0,0,0
21557,9336,42783,0,0,0
21539,9328,42755,0,0,0
21511,9312,42730,0,0,0
21486,9296,42712,0,0,0
21472,9286,42702,0,0,0
21461,9274,42692,0,0,0
21448,9256,42676,0,0,0
21442,9240,42656,0,0,0
21443,9230,42632,0,0,0
21440,9218,42597,0,0,0
21431,9204,42553,0,0,0
21421,9197,42518,0,0,0
21412,9195,42494,0,0,0
21397,9186,42468,0,0,0
21376,9172,42440,0,0,0
21360,9165,42420,0,0,0
21350,9163,42404,0,0,0
21335,9151,42381,0,0,0
21318,9134,42356,0,0,0
21309,9125,42342,0,0,0
21305,9122,42337,0,0,0
21298,9117,42337,0,0,0
21298,9116,42353,0,0,0
21323,9132,42401,0,0,0
21372,9171,42481,0,0,0
21434,9229,42593,0,0,0
21519,9311,42747,0,0,0
21638,9427,42958,0,0,0
21790,9569,43226,0,0,0
21970,9734,43546,0,0,0
22186,9928,43924,0,0,0
22440,10159,44360,0,0,0
22719,10417,44839,0,0,0
23006,10683,45340,0,0,0
23296,10952,45857,0,0,0
23586,11222,46381,0,0,0
23863,11478,46889,0,0,0
24113,11707,47360,0,0,0
24340,11911,47789,0,0,0
24545,12094,48169,0,0,0
24715,12244,48480,0,0,0
24846,12353,48716,0,0,0
24946,12435,48897,0,0,0
25020,12501,49033,0,0,0
25060,12539,49114,0,0,0
25066,12540,49139,0,0,0
25053,12521,49126,0,0,0
25027,12492,49080,0,0,0
24981,12446,48993,0,0,0
24918,12385,48871,0,0,0
24851,12322,48736,0,0,0
24780,12261,48593,0,0,0
24699,12190,48432,0,0,0
24608,12107,48257,0,0,0
24516,12024,48083,0,0,0
24425,11943,47915,0,0,0
24327,11856,47740,0,0,0
24224,11765,47561,0,0,0
24126,11677,47390,0,0,0
24032,11590,47227,0,0,0
23939,11501,47063,0,0,0
23852,11418,46904,0,0,0
23778,11352,46760,0,0,0
23712,11299,46632,0,0,0
23646,11249,46512,0,0,0
23584,11203,46400,0,0,0
23536,11171,46304,0,0,0
23493,11145,46219,0,0,0
23443,11108,46132,0,0,0
23389,11065,46045,0,0,0
23338,11025,45966,0,0,0
23284,10984,45890,0,0,0
23225,10937,45811,0,0,0
23167,10887,45730,0,0,0
23115,10842,45654,0,0,0
23063,10799,45578,0,0,0
23004,10748,45497,0,0,0
22949,10700,45418,0,0,0
22906,10664,45349,0,0,0
22870,10632,45281,0,0,0
22835,10596,45210,0,0,0
22804,10563,45141,0,0,0
22779,10537,45081,0,0,0
22754,10512,45027,0,0,0
22727,10483,44977,0,0,0
22705,10458,44938,0,0,0
22689,10444,44911,0,0,0
22674,10432,44887,0,0,0
22656,10417,44863,0,0,0
22645,10411,44851,0,0,0
22643,10418,44856,0,0,0
22644,10429,44866,0,0,0
22651,10442,44880,0,0,0
22672,10464,44907,0,0,0
22698,10492,44945,0,0,0
22716,10516,44985,0,0,0
22730,10537,45026,0,0,0
22754,10564,45079,0,0,0
22784,10593,45137,0,0,0
22811,10615,45189,0,0,0
22833,10632,45234,0,0,0
22860,10654,45278,0,0,0
22888,10679,45316,0,0,0
22906,10692,45340,0,0,0
22917,10693,45352,0,0,0
22929,10699,45359,0,0,0
22936,10706,45362,0,0,0
22926,10701,45353,0,0,0
22904,10688,45336,0,0,0
22886,10681,45320,0,0,0
22871,10675,45304,0,0,0
22849,10661,45274,0,0,0
22823,10642,45236,0,0,0
22800,10626,45200,0,0,0
22776,10606,45158,0,0,0
22747,10578,45105,0,0,0
22718,10551,45048,0,0,0
22694,10532,44999,0,0,0
22667,10511,44951,0,0,0
22629,10479,44895,0,0,0
22589,10444,44837,0,0,0
22556,10414,44783,0,0,0
22526,10383,44727,0,0,0
22495,10344,44665,0,0,0
22468,10307,44605,0,0,0
22444,10275,44546,0,0,0
22415,10243,44482,0,0,0
22376,10206,44409,0,0,0
22337,10170,44336,0,0,0
22299,10138,44268,0,0,0
22258,10104,44195,0,0,0
22213,10068,44116,0,0,0
22170,10033,44039,0,0,0
22130,10000,43972,0,0,0
22091,9965,43906,0,0,0
22050,9927,43843,0,0,0
22010,9892,43785,0,0,0
21976,9862,43730,0,0,0
21941,9829,43668,0,0,0
21905,9796,43603,0,0,0
21873,9771,43550,0,0,0
21847,9753,43504,0,0,0
21819,9733,43457,0,0,0
21790,9710,43409,0,0,0
21767,9695,43368,0,0,0
21746,9685,43331,0,0,0
21724,9670,43291,0,0,0
21704,9657,43256,0,0,0
21694,9655,43230,0,0,0
21687,9654,43209,0,0,0
21674,9646,43184,0,0,0
21656,9632,43160,0,0,0
21642,9621,43143,0,0,0
21630,9609,43124,0,0,0
21612,9587,43099,0,0,0
21593,9564,43074,0,0,0
21577,9547,43051,0,0,0
21562,9531,43023,0,0,0
21543,9512,42986,0,0,0
21527,9497,42951,0,0,0
21518,9489,42924,0,0,0
21512,9480,42898,0,0,0
21499,9463,42866,0,0,0
21484,9444,42837,0,0,0
21478,9435,42819,0,0,0
21473,9429,42805,0,0,0
21458,9415,42787,0,0,0
21440,9402,42775,0,0,0
21426,9393,42768,0,0,0
21411,9384,42754,0,0,0
21391,9369,42730,0,0,0
21371,9356,42704,0,0,0
21354,9352,42683,0,0,0
21333,9344,42661,0,0,0
21308,9328,42641,0,0,0
21293,9313,42625,0,0,0
21288,9304,42609,0,0,0
21280,9293,42586,0,0,0
21268,9283,42563,0,0,0
21261,9281,42553,0,0,0
21264,9289,42555,0,0,0
21269,9291,42563,0,0,0
21275,9292,42578,0,0,0
21295,9307,42615,0,0,0
21331,9342,42675,0,0,0
21377,9389,42755,0,0,0
21440,9457,42871,0,0,0
21536,9554,43042,0,0,0
21665,9680,43270,0,0,0
21819,9826,43551,0,0,0
22001,9997,43886,0,0,0
22216,10200,44278,0,0,0
22458,10426,44717,0,0,0
22720,10659,45188,0,0,0
22994,10900,45681,0,0,0
23277,11150,46189,0,0,0
23557,11399,46692,0,0,0
23825,11636,47173,0,0,0
24081,11861,47623,0,0,0
24317,12074,48037,0,0,0
24523,12262,48402,0,0,0
24690,12415,48705,0,0,0
24824,12535,48947,0,0,0
24931,12632,49140,0,0,0
25008,12702,49284,0,0,0
25054,12741,49372,0,0,0
25076,12757,49413,0,0,0
25078,12755,49417,0,0,0
25055,12734,49379,0,0,0
25007,12691,49294,0,0,0
24949,12635,49178,0,0,0
24883,12570,49046,0,0,0
24801,12492,48893,0,0,0
24702,12400,48716,0,0,0
24602,12309,48531,0,0,0
24508,12227,48347,0,0,0
24410,12145,48156,0,0,0
24310,12060,47964,0,0,0
24217,11980,47784,0,0,0
24130,11905,47618,0,0,0
24042,11827,47455,0,0,0
23955,11748,47297,0,0,0
23878,11683,47155,0,0,0
23810,11625,47030,0,0,0
23741,11564,46909,0,0,0
23670,11505,46792,0,0,0
23606,11455,46688,0,0,0
23550,11414,46594,0,0,0
23494,11371,46500,0,0,0
23436,11328,46408,0,0,0
23386,11294,46333,0,0,0
23343,11264,46270,0,0,0
23295,11226,46203,0,0,0
23240,11185,46133,0,0,0
23188,11148,46061,0,0,0
23138,11109,45987,0,0,0
23082,11064,45907,0,0,0
23022,11019,45824,0,0,0
22971,10978,45748,0,0,0
22927,10938,45675,0,0,0
22883,10895,45598,0,0,0
22839,10854,45525,0,0,0
22799,10822,45463,0,0,0
22761,10793,45407,0,0,0
22723,10757,45352,0,0,0
22693,10722,45302,0,0,0
22674,10696,45267,0,0,0
22657,10674,45241,0,0,0
22634,10648,45214,0,0,0
22613,10630,45190,0,0,0
22607,10627,45176,0,0,0
22609,10631,45170,0,0,0
22615,10633,45174,0,0,0
22633,10642,45195,0,0,0
22665,10658,45231,0,0,0
22692,10676,45273,0,0,0
22706,10692,45317,0,0,0
22719,10709,45365,0,0,0
22738,10732,45418,0,0,0
22758,10753,45464,0,0,0
22777,10771,45504,0,0,0
22801,10792,45542,0,0,0
22825,10816,45575,0,0,0
22842,10833,45594,0,0,0
22854,10843,45604,0,0,0
22866,10852,45611,0,0,0
22874,10857,45609,0,0,0
22867,10850,45591,0,0,0
22851,10835,45561,0,0,0
22835,10824,45531,0,0,0
22819,10811,45496,0,0,0
22798,10787,45449,0,0,0
22770,10757,45393,0,0,0
22744,10730,45339,0,0,0
22715,10704,45285,0,0,0
22681,10671,45222,0,0,0
22642,10634,45154,0,0,0
22605,10606,45090,0,0,0
22565,10579,45027,0,0,0
22516,10537,44954,0,0,0
22466,10488,44875,0,0,0
22424,10443,44801,0,0,0
22386,10404,44727,0,0,0
22348,10364,44649,0,0,0
22318,10329,44572,0,0,0
22292,10302,44505,0,0,0
22262,10273,44439,0,0,0
22224,10238,44366,0,0,0
22187,10203,44294,0,0,0
22159,10178,44231,0,0,0
22134,10152,44169,0,0,0
22102,10115,44100,0,0,0
22071,10081,44039,0,0,0
22046,10059,43990,0,0,0
22018,10037,43944,0,0,0
21984,10008,43897,0,0,0
21952,9985,43855,0,0,0
21925,9969,43821,0,0,0
21896,9949,43782,0,0,0
21867,9924,43738,0,0,0
21843,9904,43701,0,0,0
21826,9888,43670,0,0,0
21807,9861,43633,0,0,0
21784,9826,43591,0,0,0
21761,9798,43558,0,0,0
21740,9778,43530,0,0,0
21720,9758,43495,0,0,0
21702,9738,43457,0,0,0
21691,9725,43425,0,0,0
21679,9715,43394,0,0,0
21659,9697,43351,0,0,0
21631,9673,43305,0,0,0
21604,9658,43268,0,0,0
21578,9652,43239,0,0,0
21547,9639,43207,0,0,0
21513,9621,43174,0,0,0
21486,9606,43148,0,0,0
21462,9593,43123,0,0,0
21437,9576,43092,0,0,0
21415,9563,43061,0,0,0
21401,9557,43038,0,0,0
21392,9554,43023,0,0,0
21381,9540,43006,0,0,0
21370,9524,42991,0,0,0
21366,9515,42983,0,0,0
21366,9512,42972,0,0,0
21362,9508,42954,0,0,0
21357,9503,42937,0,0,0
21354,9501,42925,0,0,0
21346,9496,42913,0,0,0
21330,9487,42899,0,0,0
21312,9479,42890,0,0,0
21299,9477,42889,0,0,0
21286,9477,42889,0,0,0
21272,9469,42881,0,0,0
21264,9460,42869,0,0,0
21265,9460,42861,0,0,0
21264,9458,42850,0,0,0
21257,9449,42835,0,0,0
21254,9448,42828,0,0,0
21262,9460,42837,0,0,0
21273,9476,42854,0,0,0
21292,9496,42885,0,0,0
21331,9534,42948,0,0,0
21395,9601,43051,0,0,0
21482,9687,43194,0,0,0
21593,9791,43385,0,0,0
21741,9927,43639,0,0,0
21928,10098,43957,0,0,0
22141,10290,44326,0,0,0
22375,10498,44740,0,0,0
22634,10729,45200,0,0,0
22908,10972,45690,0,0,0
23179,11215,46187,0,0,0
23443,11457,46681,0,0,0
23705,11700,47172,0,0,0
23957,11932,47641,0,0,0
24183,12137,48066,0,0,0
24381,12316,48443,0,0,0
24560,12475,48773,0,0,0
24713,12611,49046,0,0,0
24831,12713,49253,0,0,0
24915,12783,49398,0,0,0
24970,12829,49492,0,0,0
24995,12849,49531,0,0,0
24984,12838,49512,0,0,0
24950,12803,49451,0,0,0
24905,12757,49364,0,0,0
24847,12700,49246,0,0,0
24770,12628,49097,0,0,0
24681,12548,48932,0,0,0
24587,12466,48760,0,0,0
24486,12378,48579,0,0,0
24376,12286,48388,0,0,0
24266,12198,48200,0,0,0
24164,12121,48025,0,0,0
24063,12046,47858,0,0,0
23961,11966,47693,0,0,0
23870,11890,47536,0,0,0
23795,11819,47390,0,0,0
23721,11746,47243,0,0,0
23641,11668,47092,0,0,0
23564,11596,46952,0,0,0
23493,11532,46827,0,0,0
23422,11469,46711,0,0,0
23350,11408,46600,0,0,0
23286,11357,46505,0,0,0
23230,11315,46424,0,0,0
23177,11273,46345,0,0,0
23129,11229,46269,0,0,0
23085,11188,46197,0,0,0
23039,11147,46120,0,0,0
22989,11099,46033,0,0,0
22940,11049,45946,0,0,0
22897,11006,45869,0,0,0
22855,10970,45800,0,0,0
22810,10928,45727,0,0,0
22764,10884,45656,0,0,0
22729,10851,45592,0,0,0
22699,10824,45530,0,0,0
22668,10795,45465,0,0,0
22644,10770,45404,0,0,0
22630,10751,45358,0,0,0
22616,10730,45323,0,0,0
22596,10705,45292,0,0,0
22574,10686,45269,0,0,0
22558,10681,45259,0,0,0
22549,10683,45256,0,0,0
22540,10686,45253,0,0,0
22538,10695,45262,0,0,0
22546,10714,45286,0,0,0
22555,10731,45312,0,0,0
22561,10741,45332,0,0,0
22573,10752,45358,0,0,0
22591,10770,45393,0,0,0
22606,10789,45430,0,0,0
22612,10802,45463,0,0,0
22620,10820,45502,0,0,0
22640,10848,45549,0,0,0
22661,10870,45588,0,0,0
22673,10875,45612,0,0,0
22681,10872,45628,0,0,0
22694,10871,45637,0,0,0
22707,10866,45639,0,0,0
22714,10858,45633,0,0,0
22721,10854,45624,0,0,0
22724,10854,45613,0,0,0
22712,10848,45590,0,0,0
22691,10832,45558,0,0,0
22670,10815,45523,0,0,0
22648,10800,45486,0,0,0
22616,10780,45440,0,0,0
22579,10756,45387,0,0,0
22549,10739,45339,0,0,0
22525,10725,45291,0,0,0
22494,10702,45234,0,0,0
22457,10673,45171,0,0,0
22425,10651,45115,0,0,0
22398,10631,45061,0,0,0
22369,10599,44997,0,0,0
22336,10557,44929,0,0,0
22310,10523,44865,0,0,0
22285,10496,44799,0,0,0
22253,10464,44723,0,0,0
22218,10428,44645,0,0,0
22187,10401,44575,0,0,0
22156,10376,44508,0,0,0
22122,10344,44434,0,0,0
22091,10310,44362,0,0,0
22063,10283,44299,0,0,0
22030,10253,44238,0,0,0
21985,10210,44172,0,0,0
21938,10166,44112,0,0,0
21901,10130,44066,0,0,0
21869,10098,44025,0,0,0
21834,10063,43979,0,0,0
21795,10032,43932,0,0,0
21759,10011,43891,0,0,0
21728,9992,43850,0,0,0
21699,9969,43807,0,0,0
21679,9951,43769,0,0,0
21667,9940,43737,0,0,0
21655,9927,43704,0,0,0
21636,9907,43666,0,0,0
21619,9886,43634,0,0,0
21605,9871,43610,0,0,0
21584,9856,43579,0,0,0
21553,9833,43539,0,0,0
21524,9814,43502,0,0,0
21501,9801,43470,0,0,0
21475,9781,43433,0,0,0
21447,9753,43395,0,0,0
21423,9731,43366,0,0,0
21401,9718,43343,0,0,0
21379,9704,43319,0,0,0
21361,9691,43293,0,0,0
21356,9685,43273,0,0,0
21357,9678,43253,0,0,0
21351,9661,43225,0,0,0
21341,9645,43197,0,0,0
21337,9642,43180,0,0,0
21336,9644,43169,0,0,0
21329,9637,43150,0,0,0
21318,9626,43128,0,0,0
21312,9623,43112,0,0,0
21304,9619,43097,0,0,0
21288,9606,43075,0,0,0
21270,9588,43054,0,0,0
21260,9577,43039,0,0,0
21254,9570,43025,0,0,0
21245,9560,43006,0,0,0
21241,9555,42997,0,0,0
21251,9568,43012,0,0,0
21278,9595,43053,0,0,0
21320,9635,43122,0,0,0
21387,9697,43233,0,0,0
21487,9791,43399,0,0,0
21611,9914,43616,0,0,0
21757,10060,43879,0,0,0
21932,10232,44198,0,0,0
22137,10431,44573,0,0,0
22365,10646,44989,0,0,0
22610,10869,45438,0,0,0
22874,11104,45917,0,0,0
23150,11347,46411,0,0,0
23419,11584,46899,0,0,0
23673,11809,47369,0,0,0
23915,12027,47814,0,0,0
24142,12238,48226,0,0,0
24342,12424,48588,0,0,0
24506,12578,48891,0,0,0
24641,12704,49138,0,0,0
24747,12802,49327,0,0,0
24815,12869,49456,0,0,0
24852,12906,49533,0,0,0
24869,12925,49567,0,0,0
24865,12924,49558,0,0,0
24834,12895,49498,0,0,0
24781,12844,49398,0,0,0
24719,12785,49276,0,0,0
24650,12719,49138,0,0,0
24566,12636,48978,0,0,0
24470,12541,48802,0,0,0
24375,12445,48614,0,0,0
24278,12347,48417,0,0,0
24172,12243,48210,0,0,0
24062,12139,48001,0,0,0
23960,12046,47803,0,0,0
23863,11959,47617,0,0,0
23760,11868,47433,0,0,0
23657,11778,47255,0,0,0
23564,11702,47096,0,0,0
23476,11636,46953,0,0,0
23386,11570,46822,0,0,0
23305,11507,46706,0,0,0
23237,11452,46608,0,0,0
23171,11397,46514,0,0,0
23102,11338,46417,0,0,0
23041,11284,46325,0,0,0
22992,11240,46239,0,0,0
22944,11195,46149,0,0,0
22887,11144,46051,0,0,0
22829,11098,45955,0,0,0
22775,11061,45869,0,0,0
22721,11022,45785,0,0,0
22661,10974,45699,0,0,0
22605,10927,45617,0,0,0
22561,10888,45538,0,0,0
22518,10848,45458,0,0,0
22474,10802,45380,0,0,0
22439,10760,45315,0,0,0
22412,10724,45258,0,0,0
22386,10692,45204,0,0,0
22356,10662,45153,0,0,0
22329,10640,45111,0,0,0
22311,10624,45082,0,0,0
22296,10609,45056,0,0,0
22280,10595,45032,0,0,0
22275,10591,45022,0,0,0
22278,10595,45024,0,0,0
22282,10600,45032,0,0,0
22289,10610,45049,0,0,0
22308,10634,45077,0,0,0
22331,10663,45110,0,0,0
22348,10681,45137,0,0,0
22362,10694,45164,0,0,0
22383,10716,45206,0,0,0
22404,10740,45256,0,0,0
22413,10754,45295,0,0,0
22415,10762,45324,0,0,0
22419,10774,45354,0,0,0
22423,10784,45383,0,0,0
22421,10783,45400,0,0,0
22419,10777,45411,0,0,0
22422,10776,45420,0,0,0
22421,10774,45419,0,0,0
22412,10764,45408,0,0,0
22405,10753,45391,0,0,0
22401,10747,45369,0,0,0
22393,10739,45333,0,0,0
22376,10725,45285,0,0,0
22357,10708,45236,0,0,0
22340,10696,45192,0,0,0
22318,10677,45148,0,0,0
22283,10646,45097,0,0,0
22247,10611,45045,0,0,0
22213,10580,44997,0,0,0
22176,10548,44943,0,0,0
22135,10511,44879,0,0,0
22096,10477,44816,0,0,0
22065,10448,44756,0,0,0
22036,10417,44694,0,0,0
22004,10383,44626,0,0,0
21974,10351,44562,0,0,0
21947,10323,44500,0,0,0
21912,10288,44432,0,0,0
21872,10244,44361,0,0,0
21833,10204,44296,0,0,0
21791,10172,44232,0,0,0
21741,10134,44161,0,0,0
21694,10091,44089,0,0,0
21660,10055,44028,0,0,0
21635,10025,43973,0,0,0
21608,9990,43911,0,0,0
21581,9954,43847,0,0,0
21563,9929,43792,0,0,0
21548,9911,43744,0,0,0
21524,9886,43694,0,0,0
21495,9857,43647,0,0,0
21471,9838,43607,0,0,0
21450,9824,43568,0,0,0
21427,9804,43526,0,0,0
21406,9781,43485,0,0,0
21392,9766,43450,0,0,0
21377,9756,43418,0,0,0
21356,9740,43380,0,0,0
21337,9722,43344,0,0,0
21324,9709,43315,0,0,0
21312,9695,43285,0,0,0
21297,9678,43249,0,0,0
21285,9662,43217,0,0,0
21279,9654,43192,0,0,0
21272,9647,43165,0,0,0
21258,9634,43134,0,0,0
21244,9624,43107,0,0,0
21229,9621,43086,0,0,0
21210,9614,43063,0,0,0
21186,9597,43034,0,0,0
21165,9578,43008,0,0,0
21152,9567,42990,0,0,0
21140,9557,42972,0,0,0
21123,9543,42949,0,0,0
21108,9535,42927,0,0,0
21100,9534,42910,0,0,0
21095,9535,42893,0,0,0
21088,9536,42881,0,0,0
21092,9545,42883,0,0,0
21111,9563,42903,0,0,0
21139,9587,42938,0,0,0
21180,9621,42997,0,0,0
21248,9676,43096,0,0,0
21341,9756,43241,0,0,0
21454,9856,43434,0,0,0
21589,9981,43683,0,0,0
21755,10142,43997,0,0,0
21955,10334,44369,0,0,0
22180,10547,44784,0,0,0
22428,10782,45241,0,0,0
22703,11040,45738,0,0,0
22986,11305,46250,0,0,0
23256,11556,46753,0,0,0
23514,11792,47236,0,0,0
23761,12016,47693,0,0,0
23987,12217,48106,0,0,0
24175,12381,48457,0,0,0
24330,12510,48745,0,0,0
24461,12617,48980,0,0,0
24562,12697,49157,0,0,0
24627,12740,49273,0,0,0
24662,12755,49336,0,0,0
24678,12751,49355,0,0,0
24671,12727,49327,0,0,0
24639,12684,49256,0,0,0
24593,12634,49154,0,0,0
24539,12585,49031,0,0,0
24472,12529,48886,0,0,0
24389,12458,48718,0,0,0
24299,12380,48539,0,0,0
24210,12305,48358,0,0,0
24112,12223,48169,0,0,0
24005,12130,47970,0,0,0
23901,12041,47775,0,0,0
23801,11959,47591,0,0,0
23698,11872,47407,0,0,0
23593,11782,47228,0,0,0
23496,11700,47065,0,0,0
23412,11626,46920,0,0,0
23333,11553,46783,0,0,0
23261,11483,46655,0,0,0
23199,11426,46544,0,0,0
23141,11379,46450,0,0,0
23079,11332,46358,0,0,0
23011,11283,46266,0,0,0
22947,11240,46182,0,0,0
22887,11203,46102,0,0,0
22827,11158,46015,0,0,0
22768,11105,45925,0,0,0
22714,11058,45842,0,0,0
22661,11015,45760,0,0,0
22602,10966,45673,0,0,0
22545,10914,45585,0,0,0
22503,10873,45506,0,0,0
22475,10839,45434,0,0,0
22447,10799,45357,0,0,0
22418,10756,45280,0,0,0
22392,10724,45212,0,0,0
22367,10701,45150,0,0,0
22336,10674,45085,0,0,0
22303,10647,45026,0,0,0
22275,10628,44985,0,0,0
22248,10614,44959,0,0,0
22218,10597,44937,0,0,0
22197,10584,44922,0,0,0
22192,10583,44923,0,0,0
22196,10588,44937,0,0,0
22200,10588,44950,0,0,0
22208,10592,44966,0,0,0
22226,10611,44994,0,0,0
22245,10631,45029,0,0,0
22259,10644,45063,0,0,0
22278,10662,45100,0,0,0
22306,10691,45145,0,0,0
22331,10719,45187,0,0,0
22350,10736,45223,0,0,0
22371,10753,45261,0,0,0
22399,10778,45303,0,0,0
22424,10799,45338,0,0,0
22436,10808,45362,0,0,0
22447,10817,45379,0,0,0
22458,10825,45390,0,0,0
22458,10820,45381,0,0,0
22446,10802,45357,0,0,0
22432,10786,45328,0,0,0
22417,10775,45296,0,0,0
22393,10760,45257,0,0,0
22362,10741,45213,0,0,0
22334,10725,45170,0,0,0
22308,10711,45130,0,0,0
22277,10689,45082,0,0,0
22242,10664,45031,0,0,0
22210,10641,44985,0,0,0
22178,10616,44938,0,0,0
22139,10580,44881,0,0,0
22102,10542,44822,0,0,0
22075,10514,44771,0,0,0
22050,10492,44725,0,0,0
22016,10465,44674,0,0,0
21981,10434,44621,0,0,0
21955,10410,44575,0,0,0
21935,10390,44529,0,0,0
21908,10362,44472,0,0,0
21879,10331,44409,0,0,0
21853,10306,44348,0,0,0
21822,10279,44284,0,0,0
21780,10245,44216,0,0,0
21736,10207,44149,0,0,0
21699,10176,44088,0,0,0
21663,10144,44028,0,0,0
21625,10106,43963,0,0,0
21590,10070,43905,0,0,0
21563,10045,43859,0,0,0
21538,10022,43814,0,0,0
21509,9992,43765,0,0,0
21482,9965,43723,0,0,0
21465,9951,43694,0,0,0
21448,9939,43665,0,0,0
21424,9921,43635,0,0,0
21404,9905,43609,0,0,0
21389,9891,43585,0,0,0
21369,9867,43551,0,0,0
21343,9832,43508,0,0,0
21318,9798,43465,0,0,0
21293,9769,43425,0,0,0
21264,9739,43383,0,0,0
21233,9711,43341,0,0,0
21211,9691,43305,0,0,0
21197,9680,43274,0,0,0
21183,9674,43244,0,0,0
21172,9669,43217,0,0,0
21168,9669,43199,0,0,0
21165,9666,43185,0,0,0
21157,9656,43166,0,0,0
21147,9646,43143,0,0,0
21142,9643,43124,0,0,0
21137,9643,43106,0,0,0
21122,9634,43081,0,0,0
21100,9618,43055,0,0,0
21086,9606,43032,0,0,0
21078,9598,43013,0,0,0
21064,9589,42994,0,0,0
21041,9581,42977,0,0,0
21024,9577,42964,0,0,0
21013,9574,42955,0,0,0
21003,9569,42953,0,0,0
21004,9572,42971,0,0,0
21026,9597,43016,0,0,0
21070,9642,43088,0,0,0
21131,9700,43191,0,0,0
21218,9779,43336,0,0,0
21342,9891,43536,0,0,0
21499,10031,43791,0,0,0
21678,10192,44095,0,0,0
21887,10381,44457,0,0,0
22126,10602,44879,0,0,0
22380,10845,45345,0,0,0
22643,11102,45842,0,0,0
22921,11366,46361,0,0,0
23207,11630,46889,0,0,0
23485,11883,47400,0,0,0
23744,12115,47881,0,0,0
23983,12330,48323,0,0,0
24199,12526,48716,0,0,0
24385,12691,49047,0,0,0
24536,12816,49311,0,0,0
24658,12911,49514,0,0,0
24753,12982,49661,0,0,0
24812,13024,49750,0,0,0
24834,13040,49786,0,0,0
24831,13040,49782,0,0,0
24807,13024,49739,0,0,0
24762,12984,49653,0,0,0
24703,12927,49537,0,0,0
24640,12868,49409,0,0,0
24568,12806,49269,0,0,0
24479,12731,49108,0,0,0
24380,12643,48932,0,0,0
24283,12554,48755,0,0,0
24188,12465,48576,0,0,0
24086,12369,48385,0,0,0
23982,12272,48192,0,0,0
23886,12181,48008,0,0,0
23794,12091,47831,0,0,0
23699,12000,47658,0,0,0
23609,11916,47498,0,0,0
23530,11847,47357,0,0,0
23456,11785,47227,0,0,0
23384,11721,47102,0,0,0
23318,11665,46993,0,0,0
23261,11624,46903,0,0,0
23207,11590,46822,0,0,0
23153,11551,46738,0,0,0
23104,11512,46656,0,0,0
23066,11484,46582,0,0,0
23029,11454,46509,0,0,0
22982,11410,46427,0,0,0
22930,11362,46343,0,0,0
22879,11319,46263,0,0,0
22821,11274,46178,0,0,0
22755,11223,46087,0,0,0
22694,11173,45999,0,0,0
22644,11133,45918,0,0,0
22596,11092,45835,0,0,0
22546,11043,45747,0,0,0
22502,10999,45668,0,0,0
22472,10966,45601,0,0,0
22441,10933,45537,0,0,0
22404,10897,45475,0,0,0
22372,10869,45430,0,0,0
22351,10852,45398,0,0,0
22334,10837,45369,0,0,0
22324,10827,45347,0,0,0
22329,10833,45344,0,0,0
22345,10850,45355,0,0,0
22362,10864,45368,0,0,0
22380,10877,45386,0,0,0
22404,10898,45420,0,0,0
22428,10925,45464,0,0,0
22447,10946,45505,0,0,0
22464,10963,45545,0,0,0
22487,10985,45589,0,0,0
22513,11008,45631,0,0,0
22534,11027,45667,0,0,0
22554,11047,45704,0,0,0
22578,11073,45747,0,0,0
22600,11096,45787,0,0,0
22613,11107,45811,0,0,0
22621,11108,45821,0,0,0
22625,11110,45827,0,0,0
22623,11108,45825,0,0,0
22609,11095,45808,0,0,0
22588,11078,45784,0,0,0
22572,11063,45762,0,0,0
22556,11045,45735,0,0,0
22535,11020,45697,0,0,0
22515,10998,45657,0,0,0
22500,10983,45617,0,0,0
22479,10965,45570,0,0,0
22447,10936,45511,0,0,0
22410,10900,45446,0,0,0
22375,10869,45381,0,0,0
22340,10834,45312,0,0,0
22297,10791,45240,0,0,0
22253,10748,45172,0,0,0
22214,10709,45108,0,0,0
22172,10665,45038,0,0,0
22125,10616,44966,0,0,0
22078,10573,44898,0,0,0
22032,10535,44830,0,0,0
21980,10493,44755,0,0,0
21924,10447,44674,0,0,0
21875,10407,44597,0,0,0
21831,10371,44524,0,0,0
21781,10329,44445,0,0,0
21726,10281,44362,0,0,0
21677,10237,44288,0,0,0
21633,10196,44221,0,0,0
21589,10152,44153,0,0,0
21544,10110,44086,0,0,0
21506,10081,44029,0,0,0
21472,10058,43980,0,0,0
21435,10031,43926,0,0,0
21404,10002,43870,0,0,0
21382,9978,43820,0,0,0
21363,9957,43774,0,0,0
21338,9929,43728,0,0,0
21313,9899,43685,0,0,0
21293,9877,43647,0,0,0
21271,9856,43609,0,0,0
21247,9832,43569,0,0,0
21227,9814,43532,0,0,0
21214,9805,43503,0,0,0
21196,9796,43474,0,0,0
21169,9780,43441,0,0,0
21142,9764,43412,0,0,0
21124,9755,43393,0,0,0
21109,9747,43377,0,0,0
21089,9732,43358,0,0,0
21068,9719,43342,0,0,0
21051,9715,43332,0,0,0
21036,9710,43320,0,0,0
21019,9695,43305,0,0,0
21006,9678,43290,0,0,0
21002,9666,43274,0,0,0
21002,9657,43255,0,0,0
20999,9647,43233,0,0,0
20999,9641,43215,0,0,0
21000,9640,43199,0,0,0
20994,9633,43178,0,0,0
20978,9619,43152,0,0,0
20964,9608,43128,0,0,0
20950,9600,43108,0,0,0
20929,9583,43081,0,0,0
20903,9558,43048,0,0,0
20881,9540,43020,0,0,0
20866,9532,42997,0,0,0
20851,9522,42975,0,0,0
20840,9510,42956,0,0,0
20843,9510,42953,0,0,0
20859,9523,42968,0,0,0
20883,9543,42997,0,0,0
20921,9581,43046,0,0,0
20984,9649,43133,0,0,0
21067,9742,43268,0,0,0
21168,9847,43453,0,0,0
21297,9972,43692,0,0,0
21466,10132,43989,0,0,0
21668,10321,44339,0,0,0
21891,10529,44732,0,0,0
22134,10758,45167,0,0,0
22403,11010,45645,0,0,0
22685,11271,46150,0,0,0
22966,11526,46660,0,0,0
23241,11774,47161,0,0,0
23504,12010,47640,0,0,0
23740,12220,48077,0,0,0
23945,12397,48460,0,0,0
24123,12547,48786,0,0,0
24275,12675,49058,0,0,0
24392,12774,49270,0,0,0
24472,12842,49418,0,0,0
24524,12888,49511,0,0,0
24555,12920,49560,0,0,0
24560,12931,49563,0,0,0
24536,12916,49520,0,0,0
24497,12884,49445,0,0,0
24448,12840,49349,0,0,0
24389,12782,49228,0,0,0
24315,12713,49084,0,0,0
24232,12643,48930,0,0,0
24146,12577,48771,0,0,0
24052,12503,48603,0,0,0
23952,12420,48422,0,0,0
23856,12339,48243,0,0,0
23767,12262,48074,0,0,0
23676,12178,47906,0,0,0
23584,12089,47737,0,0,0
23502,12007,47578,0,0,0
23430,11937,47434,0,0,0
23357,11867,47294,0,0,0
23284,11796,47156,0,0,0
23220,11732,47033,0,0,0
23159,11675,46922,0,0,0
23098,11618,46813,0,0,0
23045,11564,46710,0,0,0
23006,11518,46629,0,0,0
22972,11477,46561,0,0,0
22927,11433,46492,0,0,0
22878,11392,46423,0,0,0
22834,11362,46362,0,0,0
22791,11336,46303,0,0,0
22742,11305,46237,0,0,0
22694,11274,46170,0,0,0
22652,11246,46104,0,0,0
22611,11217,46034,0,0,0
22566,11180,45955,0,0,0
22523,11140,45876,0,0,0
22488,11108,45808,0,0,0
22453,11079,45744,0,0,0
22410,11044,45675,0,0,0
22368,11007,45609,0,0,0
22339,10982,45556,0,0,0
22315,10966,45511,0,0,0
22292,10953,45469,0,0,0
22279,10945,45438,0,0,0
22275,10947,45423,0,0,0
22272,10948,45413,0,0,0
22265,10944,45401,0,0,0
22263,10943,45393,0,0,0
22267,10952,45397,0,0,0
22271,10961,45405,0,0,0
22269,10961,45413,0,0,0
22272,10964,45431,0,0,0
22281,10977,45460,0,0,0
22289,10988,45491,0,0,0
22296,10998,45521,0,0,0
22311,11016,45559,0,0,0
22334,11038,45599,0,0,0
22354,11053,45630,0,0,0
22370,11060,45654,0,0,0
22386,11066,45677,0,0,0
22400,11070,45694,0,0,0
22403,11063,45694,0,0,0
22397,11050,45680,0,0,0
22389,11041,45664,0,0,0
22377,11033,45644,0,0,0
22356,11016,45615,0,0,0
22331,10995,45583,0,0,0
22310,10978,45553,0,0,0
22288,10964,45518,0,0,0
22260,10943,45470,0,0,0
22232,10917,45417,0,0,0
22213,10895,45367,0,0,0
22196,10872,45319,0,0,0
22170,10838,45262,0,0,0
22135,10804,45200,0,0,0
22100,10779,45141,0,0,0
22066,10758,45080,0,0,0
22028,10727,45006,0,0,0
21992,10691,44926,0,0,0
21963,10660,44851,0,0,0
21932,10630,44780,0,0,0
21890,10596,44702,0,0,0
21848,10563,44627,0,0,0
21816,10533,44562,0,0,0
21782,10492,44497,0,0,0
21741,10435,44427,0,0,0
21702,10385,44365,0,0,0
21670,10350,44315,0,0,0
21636,10316,44264,0,0,0
21594,10275,44206,0,0,0
21556,10237,44150,0,0,0
21526,10210,44098,0,0,0
21496,10181,44040,0,0,0
21464,10148,43975,0,0,0
21434,10121,43915,0,0,0
21405,10104,43863,0,0,0
21372,10088,43813,0,0,0
21336,10067,43765,0,0,0
21304,10046,43726,0,0,0
21280,10025,43689,0,0,0
21253,9998,43646,0,0,0
21225,9970,43601,0,0,0
21205,9949,43563,0,0,0
21198,9934,43527,0,0,0
21189,9909,43483,0,0,0
21172,9876,43434,0,0,0
21158,9847,43394,0,0,0
21149,9824,43357,0,0,0
21132,9802,43311,0,0,0
21108,9777,43264,0,0,0
21089,9761,43225,0,0,0
21073,9747,43192,0,0,0
21054,9725,43154,0,0,0
21035,9700,43117,0,0,0
21025,9683,43093,0,0,0
21018,9672,43078,0,0,0
21004,9656,43060,0,0,0
20987,9638,43042,0,0,0
20971,9625,43026,0,0,0
20954,9614,43004,0,0,0
20931,9596,42975,0,0,0
20906,9576,42945,0,0,0
20892,9564,42921,0,0,0
20880,9554,42896,0,0,0
20862,9536,42864,0,0,0
20845,9517,42834,0,0,0
20834,9507,42811,0,0,0
20821,9500,42789,0,0,0
20805,9486,42764,0,0,0
20790,9475,42740,0,0,0
20783,9473,42724,0,0,0
20778,9475,42709,0,0,0
20775,9474,42702,0,0,0
20785,9484,42716,0,0,0
20812,9510,42755,0,0,0
20847,9545,42814,0,0,0
20892,9589,42893,0,0,0
20962,9657,43001,0,0,0
21058,9750,43143,0,0,0
21172,9858,43318,0,0,0
21306,9983,43538,0,0,0
21472,10138,43819,0,0,0
21671,10327,44162,0,0,0
21891,10538,44551,0,0,0
22128,10763,44978,0,0,0
22386,11007,45442,0,0,0
22657,11260,45930,0,0,0
22928,11505,46416,0,0,0
23194,11742,46890,0,0,0
23451,11975,47347,0,0,0
23688,12190,47769,0,0,0
23891,12368,48136,0,0,0
24060,12510,48450,0,0,0
24201,12630,48718,0,0,0
24310,12729,48933,0,0,0
24381,12795,49083,0,0,0
24423,12834,49175,0,0,0
24445,12855,49222,0,0,0
24442,12854,49217,0,0,0
24411,12826,49161,0,0,0
24363,12782,49071,0,0,0
24307,12733,48960,0,0,0
24238,12673,48825,0,0,0
24151,12594,48663,0,0,0
24056,12505,48488,0,0,0
23963,12417,48315,0,0,0
23866,12329,48142,0,0,0
23764,12236,47964,0,0,0
23667,12151,47791,0,0,0
23576,12076,47630,0,0,0
23479,12000,47469,0,0,0
23378,11918,47304,0,0,0
23287,11842,47147,0,0,0
23209,11777,47007,0,0,0
23137,11716,46876,0,0,0
23069,11656,46754,0,0,0
23015,11605,46649,0,0,0
22970,11565,46558,0,0,0
22922,11525,46467,0,0,0
22869,11481,46374,0,0,0
22822,11445,46289,0,0,0
22780,11413,46211,0,0,0
22734,11372,46128,0,0,0
22683,11324,46043,0,0,0
22640,11281,45963,0,0,0
22604,11238,45885,0,0,0
22563,11185,45799,0,0,0
22518,11127,45709,0,0,0
22481,11079,45631,0,0,0
22447,11038,45562,0,0,0
22405,10994,45486,0,0,0
22361,10950,45406,0,0,0
22324,10917,45334,0,0,0
22293,10894,45267,0,0,0
22260,10869,45201,0,0,0
22230,10848,45142,0,0,0
22209,10834,45099,0,0,0
22190,10824,45069,0,0,0
22170,10812,45042,0,0,0
22156,10800,45022,0,0,0
22155,10798,45016,0,0,0
22160,10803,45020,0,0,0
22162,10807,45029,0,0,0
22170,10814,45048,0,0,0
22186,10831,45080,0,0,0
22203,10848,45116,0,0,0
22218,10862,45147,0,0,0
22237,10881,45182,0,0,0
22266,10913,45227,0,0,0
22297,10942,45274,0,0,0
22321,10957,45314,0,0,0
22338,10967,45353,0,0,0
22350,10989,45398,0,0,0
22354,11011,45438,0,0,0
22351,11022,45459,0,0,0
22354,11032,45468,0,0,0
22364,11050,45477,0,0,0
22373,11057,45479,0,0,0
22378,11045,45470,0,0,0
22382,11033,45457,0,0,0
22384,11027,45439,0,0,0
22377,11017,45412,0,0,0
22362,10999,45377,0,0,0
22345,10983,45342,0,0,0
22330,10971,45307,0,0,0
22309,10957,45267,0,0,0
22284,10938,45224,0,0,0
22260,10922,45189,0,0,0
22238,10906,45155,0,0,0
22207,10878,45110,0,0,0
22175,10844,45057,0,0,0
22152,10817,45009,0,0,0
22135,10793,44964,0,0,0
22108,10760,44910,0,0,0
22077,10724,44849,0,0,0
22049,10696,44790,0,0,0
22019,10670,44728,0,0,0
21978,10636,44657,0,0,0
21933,10600,44589,0,0,0
21898,10573,44533,0,0,0
21870,10552,44483,0,0,0
21838,10526,44431,0,0,0
21806,10497,44380,0,0,0
21783,10473,44334,0,0,0
21762,10452,44290,0,0,0
21738,10427,44239,0,0,0
21710,10405,44187,0,0,0
21685,10391,44143,0,0,0
21655,10375,44100,0,0,0
21621,10349,44051,0,0,0
21589,10321,44002,0,0,0
21567,10299,43961,0,0,0
21544,10274,43923,0,0,0
21515,10241,43885,0,0,0
21488,10210,43852,0,0,0
21464,10187,43822,0,0,0
21437,10165,43783,0,0,0
21408,10142,43739,0,0,0
21383,10122,43701,0,0,0
21358,10107,43670,0,0,0
21331,10091,43636,0,0,0
21307,10072,43602,0,0,0
21291,10061,43577,0,0,0
21280,10057,43561,0,0,0
21267,10052,43541,0,0,0
21254,10043,43518,0,0,0
21247,10039,43501,0,0,0
21244,10040,43489,0,0,0
21238,10036,43472,0,0,0
21233,10027,43451,0,0,0
21230,10021,43437,0,0,0
21229,10019,43423,0,0,0
21220,10008,43399,0,0,0
21207,9991,43371,0,0,0
21199,9980,43349,0,0,0
21191,9971,43332,0,0,0
21175,9958,43311,0,0,0
21159,9945,43291,0,0,0
21146,9940,43283,0,0,0
21131,9934,43274,0,0,0
21106,9914,43252,0,0,0
21080,9889,43227,0,0,0
21062,9872,43208,0,0,0
21048,9857,43191,0,0,0
21034,9843,43175,0,0,0
21027,9843,43174,0,0,0
21036,9864,43198,0,0,0
21061,9900,43245,0,0,0
21100,9947,43317,0,0,0
21166,10016,43428,0,0,0
21263,10114,43586,0,0,0
21384,10237,43787,0,0,0
21522,10374,44028,0,0,0
21688,10531,44316,0,0,0
21888,10715,44651,0,0,0
22109,10916,45026,0,0,0
22343,11126,45436,0,0,0
22595,11351,45879,0,0,0
22858,11589,46346,0,0,0
23117,11826,46816,0,0,0
23363,12052,47271,0,0,0
23597,12265,47704,0,0,0
23814,12462,48104,0,0,0
23996,12629,48451,0,0,0
24141,12763,48737,0,0,0
24259,12873,48970,0,0,0
24352,12962,49150,0,0,0
24414,13021,49270,0,0,0
24446,13049,49334,0,0,0
24459,13057,49357,0,0,0
24454,13047,49339,0,0,0
24424,13011,49275,0,0,0
24370,12953,49176,0,0,0
24306,12890,49061,0,0,0
24231,12823,48929,0,0,0
24139,12740,48771,0,0,0
24036,12648,48593,0,0,0
23935,12557,48412,0,0,0
23836,12467,48229,0,0,0
23728,12368,48032,0,0,0
23614,12263,47825,0,0,0
23509,12170,47628,0,0,0
23409,12083,47447,0,0,0
23306,11995,47276,0,0,0
23210,11908,47114,0,0,0
23129,11834,46967,0,0,0
23054,11768,46831,0,0,0
22979,11700,46702,0,0,0
22915,11640,46589,0,0,0
22868,11594,46496,0,0,0
22825,11552,46414,0,0,0
22778,11505,46333,0,0,0
22734,11461,46255,0,0,0
22696,11428,46186,0,0,0
22659,11398,46118,0,0,0
22615,11362,46045,0,0,0
22573,11327,45975,0,0,0
22534,11300,45911,0,0,0
22491,11273,45840,0,0,0
22442,11237,45758,0,0,0
22393,11197,45674,0,0,0
22349,11162,45599,0,0,0
22309,11129,45527,0,0,0
22272,11094,45456,0,0,0
22242,11065,45395,0,0,0
22214,11040,45346,0,0,0
22183,11011,45301,0,0,0
22155,10980,45257,0,0,0
22136,10958,45227,0,0,0
22126,10950,45209,0,0,0
22119,10948,45195,0,0,0
22112,10949,45185,0,0,0
22114,10958,45187,0,0,0
22122,10974,45201,0,0,0
22127,10988,45220,0,0,0
22135,11005,45248,0,0,0
22158,11033,45292,0,0,0
22190,11065,45346,0,0,0
22218,11086,45391,0,0,0
22243,11104,45429,0,0,0
22275,11128,45470,0,0,0
22309,11154,45514,0,0,0
22334,11172,45551,0,0,0
22352,11187,45583,0,0,0
22372,11209,45618,0,0,0
22387,11231,45652,0,0,0
22387,11241,45673,0,0,0
22383,11241,45685,0,0,0
22385,11243,45700,0,0,0
22391,11245,45713,0,0,0
22387,11236,45712,0,0,0
22377,11222,45696,0,0,0
22370,11218,45683,0,0,0
22362,11215,45668,0,0,0
22346,11200,45640,0,0,0
22333,11182,45611,0,0,0
22328,11170,45590,0,0,0
22316,11153,45564,0,0,0
22291,11128,45526,0,0,0
22268,11108,45487,0,0,0
22254,11095,45454,0,0,0
22235,11079,45416,0,0,0
22206,11055,45370,0,0,0
22179,11032,45323,0,0,0
22156,11017,45280,0,0,0
22130,10999,45230,0,0,0
22099,10977,45172,0,0,0
22074,10961,45118,0,0,0
22054,10948,45068,0,0,0
22028,10927,45014,0,0,0
21996,10899,44954,0,0,0
21967,10874,44899,0,0,0
21943,10854,44854,0,0,0
21916,10828,44806,0,0,0
21882,10795,44755,0,0,0
21855,10769,44712,0,0,0
21837,10750,44675,0,0,0
21817,10727,44635,0,0,0
21798,10702,44591,0,0,0
21784,10687,44555,0,0,0
21772,10678,44523,0,0,0
21750,10660,44478,0,0,0
21723,10633,44426,0,0,0
21702,10611,44380,0,0,0
21687,10587,44336,0,0,0
21665,10555,44284,0,0,0
21641,10522,44230,0,0,0
21622,10498,44186,0,0,0
21602,10475,44144,0,0,0
21578,10444,44096,0,0,0
21554,10409,44044,0,0,0
21535,10383,43997,0,0,0
21514,10359,43950,0,0,0
21481,10326,43892,0,0,0
21443,10289,43832,0,0,0
21408,10258,43781,0,0,0
21376,10230,43736,0,0,0
21345,10200,43687,0,0,0
21320,10175,43638,0,0,0
21309,10162,43601,0,0,0
21299,10150,43571,0,0,0
21282,10130,43536,0,0,0
21266,10112,43503,0,0,0
21256,10099,43475,0,0,0
21242,10083,43440,0,0,0
21224,10064,43398,0,0,0
21212,10056,43365,0,0,0
21208,10064,43346,0,0,0
21204,10069,43331,0,0,0
21202,10064,43317,0,0,0
21208,10061,43315,0,0,0
21222,10068,43330,0,0,0
21242,10078,43354,0,0,0
21268,10093,43387,0,0,0
21308,10128,43447,0,0,0
21365,10186,43540,0,0,0
21436,10259,43664,0,0,0
21531,10353,43829,0,0,0
21657,10480,44047,0,0,0
21810,10637,44315,0,0,0
21983,10811,44621,0,0,0
22177,11002,44967,0,0,0
22395,11217,45360,0,0,0
22629,11446,45788,0,0,0
22866,11672,46228,0,0,0
23103,11894,46674,0,0,0
23342,12117,47127,0,0,0
23574,12329,47567,0,0,0
23781,12519,47972,0,0,0
23966,12688,48339,0,0,0
24133,12844,48669,0,0,0
24276,12982,48952,0,0,0
24384,13089,49177,0,0,0
24461,13166,49348,0,0,0
24516,13222,49473,0,0,0
24543,13251,49549,0,0,0
24537,13251,49571,0,0,0
24508,13232,49549,0,0,0
24467,13205,49497,0,0,0
24413,13165,49415,0,0,0
24343,13107,49299,0,0,0
24267,13040,49160,0,0,0
24190,12975,49011,0,0,0
24107,12904,48854,0,0,0
24013,12821,48687,0,0,0
23915,12732,48518,0,0,0
23822,12647,48350,0,0,0
23728,12565,48181,0,0,0
23630,12484,48016,0,0,0
23539,12408,47865,0,0,0
23461,12342,47730,0,0,0
23387,12277,47599,0,0,0
23313,12213,47475,0,0,0
23251,12161,47366,0,0,0
23197,12119,47270,0,0,0
23144,12076,47180,0,0,0
23091,12029,47094,0,0,0
23044,11987,47017,0,0,0
22999,11951,46944,0,0,0
22946,11910,46866,0,0,0
22892,11866,46784,0,0,0
22851,11833,46710,0,0,0
22819,11806,46641,0,0,0
22783,11773,46564,0,0,0
22744,11732,46482,0,0,0
22706,11695,46405,0,0,0
22668,11664,46327,0,0,0
22622,11626,46242,0,0,0
22575,11587,46157,0,0,0
22535,11551,46081,0,0,0
22497,11514,46009,0,0,0
22455,11470,45937,0,0,0
22417,11433,45874,0,0,0
22391,11411,45830,0,0,0
22368,11396,45798,0,0,0
22344,11379,45767,0,0,0
22328,11366,45748,0,0,0
22326,11366,45748,0,0,0
22332,11372,45759,0,0,0
22338,11379,45771,0,0,0
22350,11391,45790,0,0,0
22370,11411,45820,0,0,0
22387,11429,45847,0,0,0
22399,11441,45872,0,0,0
22414,11457,45905,0,0,0
22435,11480,45950,0,0,0
22452,11500,45996,0,0,0
22464,11512,46040,0,0,0
22479,11526,46088,0,0,0
22504,11549,46136,0,0,0
22529,11567,46173,0,0,0
22545,11574,46196,0,0,0
22560,11578,46212,0,0,0
22574,11583,46220,0,0,0
22583,11581,46214,0,0,0
22583,11571,46195,0,0,0
22581,11563,46175,0,0,0
22578,11559,46155,0,0,0
22569,11553,46127,0,0,0
22552,11540,46093,0,0,0
22533,11527,46061,0,0,0
22516,11514,46029,0,0,0
22494,11494,45989,0,0,0
22470,11472,45944,0,0,0
22452,11456,45901,0,0,0
22431,11439,45850,0,0,0
22395,11407,45784,0,0,0
22352,11367,45711,0,0,0
22317,11337,45645,0,0,0
22284,11313,45582,0,0,0
22245,11280,45512,0,0,0
22202,11241,45437,0,0,0
22166,11204,45370,0,0,0
22135,11164,45305,0,0,0
22099,11117,45234,0,0,0
22062,11070,45163,0,0,0
22033,11035,45101,0,0,0
22006,11003,45042,0,0,0
21973,10967,44979,0,0,0
21939,10933,44921,0,0,0
21909,10909,44872,0,0,0
21877,10886,44827,0,0,0
21842,10859,44782,0,0,0
21812,10836,44743,0,0,0
21789,10819,44712,0,0,0
21768,10799,44678,0,0,0
21742,10771,44637,0,0,0
21718,10744,44592,0,0,0
21698,10721,44547,0,0,0
21675,10697,44498,0,0,0
21645,10668,44446,0,0,0
21619,10645,44402,0,0,0
21601,10632,44368,0,0,0
21582,10616,44332,0,0,0
21560,10592,44293,0,0,0
21541,10571,44257,0,0,0
21521,10557,44223,0,0,0
21496,10541,44184,0,0,0
21470,10518,44142,0,0,0
21449,10498,44108,0,0,0
21431,10487,44085,0,0,0
21408,10470,44060,0,0,0
21378,10448,44031,0,0,0
21354,10433,44007,0,0,0
21336,10426,43988,0,0,0
21320,10416,43965,0,0,0
21306,10403,43942,0,0,0
21301,10397,43929,0,0,0
21298,10393,43922,0,0,0
21289,10379,43905,0,0,0
21273,10362,43879,0,0,0
21260,10355,43857,0,0,0
21250,10356,43837,0,0,0
21237,10354,43815,0,0,0
21225,10351,43799,0,0,0
21221,10352,43794,0,0,0
21216,10352,43793,0,0,0
21204,10345,43787,0,0,0
21194,10338,43783,0,0,0
21192,10337,43785,0,0,0
21192,10338,43787,0,0,0
21188,10335,43785,0,0,0
21189,10336,43789,0,0,0
21203,10351,43816,0,0,0
21230,10378,43869,0,0,0
21270,10418,43948,0,0,0
21330,10483,44064,0,0,0
21417,10576,44225,0,0,0
21530,10690,44427,0,0,0
21667,10823,44673,0,0,0
21832,10983,44973,0,0,0
22027,11172,45324,0,0,0
22241,11379,45712,0,0,0
22466,11594,46126,0,0,0
22704,11819,46562,0,0,0
22952,12055,47016,0,0,0
23197,12286,47469,0,0,0
23430,12500,47905,0,0,0
23653,12704,48323,0,0,0
23862,12897,48711,0,0,0
24043,13067,49052,0,0,0
24194,13205,49339,0,0,0
24323,13317,49576,0,0,0
24430,13403,49765,0,0,0
24504,13460,49895,0,0,0
24547,13488,49966,0,0,0
24568,13496,49992,0,0,0
24572,13488,49980,0,0,0
24550,13460,49923,0,0,0
24505,13415,49832,0,0,0
24446,13362,49722,0,0,0
24376,13297,49596,0,0,0
24289,13218,49449,0,0,0
24193,13132,49288,0,0,0
24095,13047,49125,0,0,0
23999,12962,48959,0,0,0
23903,12872,48786,0,0,0
23812,12784,48609,0,0,0
23730,12706,48443,0,0,0
23652,12635,48285,0,0,0
23572,12563,48127,0,0,0
23493,12490,47972,0,0,0
23424,12426,47828,0,0,0
23357,12362,47691,0,0,0
23286,12293,47559,0,0,0
23224,12227,47438,0,0,0
23176,12171,47332,0,0,0
23138,12117,47238,0,0,0
23099,12062,47154,0,0,0
23058,12017,47081,0,0,0
23016,11986,47020,0,0,0
22971,11957,46956,0,0,0
22920,11921,46881,0,0,0
22873,11891,46809,0,0,0
22839,11869,46743,0,0,0
22803,11840,46671,0,0,0
22757,11799,46588,0,0,0
22712,11758,46504,0,0,0
22670,11723,46426,0,0,0
22624,11685,46343,0,0,0
22577,11646,46257,0,0,0
22540,11612,46181,0,0,0
22510,11585,46115,0,0,0
22479,11555,46049,0,0,0
22444,11518,45984,0,0,0
22414,11487,45931,0,0,0
22390,11465,45890,0,0,0
22367,11440,45850,0,0,0
22349,11411,45813,0,0,0
22340,11390,45788,0,0,0
22332,11372,45769,0,0,0
22318,11353,45747,0,0,0
22306,11341,45734,0,0,0
22306,11344,45742,0,0,0
22318,11361,45766,0,0,0
22330,11382,45797,0,0,0
22346,11406,45835,0,0,0
22371,11435,45882,0,0,0
22396,11462,45927,0,0,0
22412,11480,45967,0,0,0
22426,11497,46008,0,0,0
22443,11520,46054,0,0,0
22455,11540,46094,0,0,0
22456,11549,46119,0,0,0
22456,11555,46137,0,0,0
22461,11565,46152,0,0,0
22467,11574,46161,0,0,0
22469,11571,46157,0,0,0
22470,11566,46146,0,0,0
22473,11565,46135,0,0,0
22470,11561,46117,0,0,0
22456,11547,46086,0,0,0
22437,11530,46050,0,0,0
22421,11514,46014,0,0,0
22403,11495,45968,0,0,0
22376,11468,45914,0,0,0
22348,11443,45860,0,0,0
22324,11423,45809,0,0,0
22298,11397,45753,0,0,0
22267,11360,45693,0,0,0
22240,11325,45634,0,0,0
22217,11294,45579,0,0,0
22186,11260,45521,0,0,0
22149,11223,45459,0,0,0
22114,11194,45401,0,0,0
22085,11172,45345,0,0,0
22055,11148,45283,0,0,0
22023,11120,45219,0,0,0
21995,11098,45160,0,0,0
21969,11079,45103,0,0,0
21935,11048,45037,0,0,0
21894,11007,44962,0,0,0
21860,10972,44894,0,0,0
21827,10941,44833,0,0,0
21789,10907,44771,0,0,0
21749,10874,44718,0,0,0
21715,10850,44679,0,0,0
21683,10830,44645,0,0,0
21653,10805,44608,0,0,0
21632,10780,44567,0,0,0
21613,10759,44526,0,0,0
21589,10738,44482,0,0,0
21561,10711,44430,0,0,0
21536,10682,44379,0,0,0
21517,10660,44337,0,0,0
21502,10639,44299,0,0,0
21483,10611,44255,0,0,0
21463,10577,44208,0,0,0
21448,10548,44169,0,0,0
21432,10520,44132,0,0,0
21408,10488,44093,0,0,0
21382,10461,44060,0,0,0
21358,10446,44033,0,0,0
21328,10432,44001,0,0,0
21292,10412,43962,0,0,0
21262,10392,43927,0,0,0
21243,10380,43900,0,0,0
21225,10365,43872,0,0,0
21202,10341,43837,0,0,0
21182,10321,43804,0,0,0
21168,10311,43774,0,0,0
21154,10302,43737,0,0,0
21135,10287,43687,0,0,0
21118,10269,43636,0,0,0
21106,10253,43592,0,0,0
21090,10229,43547,0,0,0
21070,10201,43505,0,0,0
21053,10177,43474,0,0,0
21042,10159,43449,0,0,0
21024,10140,43423,0,0,0
21005,10125,43404,0,0,0
20997,10125,43400,0,0,0
21003,10139,43412,0,0,0
21013,10157,43435,0,0,0
21031,10184,43475,0,0,0
21066,10232,43544,0,0,0
21120,10298,43643,0,0,0
21187,10374,43764,0,0,0
21272,10462,43912,0,0,0
21383,10570,44102,0,0,0
21518,10696,44336,0,0,0
21675,10835,44604,0,0,0
21856,10996,44911,0,0,0
22066,11185,45262,0,0,0
22296,11395,45652,0,0,0
22531,11607,46063,0,0,0
22773,11822,46492,0,0,0
23021,12046,46932,0,0,0
23263,12270,47367,0,0,0
23490,12480,47783,0,0,0
23701,12677,48176,0,0,0
23896,12859,48538,0,0,0
24062,13013,48853,0,0,0
24192,13133,49112,0,0,0
24297,13227,49321,0,0,0
24384,13303,49483,0,0,0
24446,13357,49594,0,0,0
24481,13382,49652,0,0,0
24495,13387,49669,0,0,0
24489,13379,49653,0,0,0
24462,13350,49594,0,0,0
24417,13297,49494,0,0,0
24367,13232,49370,0,0,0
24311,13165,49228,0,0,0
24239,13090,49066,0,0,0
24154,13006,48891,0,0,0
24065,12918,48715,0,0,0
23974,12828,48543,0,0,0
23878,12736,48374,0,0,0
23778,12641,48209,0,0,0
23683,12556,48054,0,0,0
23602,12484,47914,0,0,0
23526,12418,47778,0,0,0
23451,12351,47645,0,0,0
23390,12293,47526,0,0,0
23345,12246,47422,0,0,0
23302,12197,47320,0,0,0
23257,12145,47222,0,0,0
23217,12102,47140,0,0,0
23183,12068,47069,0,0,0
23146,12030,46996,0,0,0
23110,11990,46924,0,0,0
23079,11958,46861,0,0,0
23047,11928,46805,0,0,0
23008,11892,46743,0,0,0
22971,11854,46679,0,0,0
22941,11825,46621,0,0,0
22913,11801,46565,0,0,0
22879,11775,46504,0,0,0
22846,11753,46441,0,0,0
22821,11742,46389,0,0,0
22798,11735,46343,0,0,0
22770,11721,46293,0,0,0
22737,11703,46248,0,0,0
22707,11690,46214,0,0,0
22677,11674,46181,0,0,0
22646,11650,46147,0,0,0
22621,11629,46120,0,0,0
22606,11616,46106,0,0,0
22596,11602,46096,0,0,0
22588,11590,46085,0,0,0
22586,11588,46082,0,0,0
22588,11594,46091,0,0,0
22594,11601,46106,0,0,0
22602,11607,46122,0,0,0
22619,11620,46143,0,0,0
22645,11642,46172,0,0,0
22667,11660,46202,0,0,0
22683,11671,46230,0,0,0
22700,11686,46264,0,0,0
22722,11705,46303,0,0,0
22738,11717,46339,0,0,0
22750,11727,46372,0,0,0
22767,11744,46411,0,0,0
22788,11763,46448,0,0,0
22806,11773,46470,0,0,0
22819,11775,46480,0,0,0
22833,11780,46488,0,0,0
22844,11786,46492,0,0,0
22847,11783,46482,0,0,0
22842,11775,46459,0,0,0
22836,11770,46437,0,0,0
22829,11765,46415,0,0,0
22813,11748,46384,0,0,0
22788,11725,46347,0,0,0
22760,11706,46312,0,0,0
22729,11684,46275,0,0,0
22694,11650,46230,0,0,0
22662,11615,46178,0,0,0
22641,11587,46124,0,0,0
22623,11557,46063,0,0,0
22595,11516,45992,0,0,0
22565,11472,45922,0,0,0
22541,11441,45865,0,0,0
22516,11419,45813,0,0,0
22484,11396,45756,0,0,0
22455,11374,45700,0,0,0
22433,11356,45650,0,0,0
22407,11333,45596,0,0,0
22375,11299,45538,0,0,0
22343,11264,45487,0,0,0
22315,11234,45447,0,0,0
22285,11202,45406,0,0,0
22250,11162,45357,0,0,0
22219,11127,45309,0,0,0
22200,11105,45268,0,0,0
22181,11089,45223,0,0,0
22159,11069,45169,0,0,0
22141,11049,45119,0,0,0
22124,11025,45076,0,0,0
22099,10989,45023,0,0,0
22069,10945,44962,0,0,0
22041,10911,44904,0,0,0
22017,10882,44852,0,0,0
21994,10851,44798,0,0,0
21975,10821,44749,0,0,0
21963,10801,44713,0,0,0
21954,10789,44687,0,0,0
21944,10775,44661,0,0,0
21935,10759,44633,0,0,0
21929,10747,44609,0,0,0
21921,10735,44586,0,0,0
21905,10715,44557,0,0,0
21888,10691,44526,0,0,0
21876,10674,44498,0,0,0
21864,10660,44469,0,0,0
21843,10640,44433,0,0,0
21821,10620,44400,0,0,0
21805,10611,44375,0,0,0
21793,10609,44354,0,0,0
21777,10605,44329,0,0,0
21763,10603,44308,0,0,0
21757,10608,44298,0,0,0
21752,10613,44286,0,0,0
21741,10609,44267,0,0,0
21729,10602,44246,0,0,0
21721,10598,44229,0,0,0
21714,10594,44214,0,0,0
21702,10584,44199,0,0,0
21690,10574,44187,0,0,0
21685,10573,44184,0,0,0
21685,10572,44178,0,0,0
21684,10563,44164,0,0,0
21684,10558,44150,0,0,0
21690,10563,44144,0,0,0
21694,10568,44142,0,0,0
21695,10569,44148,0,0,0
21704,10579,44171,0,0,0
21728,10606,44220,0,0,0
21765,10646,44295,0,0,0
21815,10699,44402,0,0,0
21891,10775,44547,0,0,0
22001,10878,44738,0,0,0
22137,11002,44971,0,0,0
22298,11147,45249,0,0,0
22493,11324,45576,0,0,0
22715,11529,45950,0,0,0
22952,11746,46356,0,0,0
23201,11970,46790,0,0,0
23465,12211,47258,0,0,0
23734,12462,47742,0,0,0
23992,12703,48215,0,0,0
24236,12927,48666,0,0,0
24467,13136,49092,0,0,0
24677,13326,49480,0,0,0
24857,13484,49815,0,0,0
25006,13613,50097,0,0,0
25129,13725,50330,0,0,0
25224,13814,50510,0,0,0
25287,13871,50631,0,0,0
25327,13903,50704,0,0,0
25352,13919,50742,0,0,0
25358,13918,50740,0,0,0
25343,13895,50695,0,0,0
25313,13856,50620,0,0,0
25274,13811,50531,0,0,0
25222,13758,50425,0,0,0
25154,13695,50297,0,0,0
25081,13627,50159,0,0,0
25011,13559,50019,0,0,0
24940,13485,49869,0,0,0
24861,13402,49708,0,0,0
24776,13317,49544,0,0,0
24691,13239,49390,0,0,0
24606,13166,49245,0,0,0
24520,13094,49102,0,0,0
24441,13027,48968,0,0,0
24380,12973,48850,0,0,0
24328,12926,48739,0,0,0
24281,12877,48629,0,0,0
24241,12834,48530,0,0,0
24211,12801,48447,0,0,0
24181,12769,48369,0,0,0
24140,12733,48291,0,0,0
24098,12700,48218,0,0,0
24059,12673,48151,0,0,0
24017,12640,48082,0,0,0
23972,12601,48012,0,0,0
23931,12563,47942,0,0,0
23892,12530,47869,0,0,0
23848,12490,47786,0,0,0
23803,12446,47700,0,0,0
23761,12402,47619,0,0,0
23717,12360,47540,0,0,0
23665,12311,47455,0,0,0
23610,12256,47365,0,0,0
23564,12210,47284,0,0,0
23526,12170,47213,0,0,0
23488,12125,47142,0,0,0
23452,12081,47075,0,0,0
23427,12048,47021,0,0,0
23409,12023,46975,0,0,0
23391,11995,46926,0,0,0
23373,11971,46885,0,0,0
23366,11961,46860,0,0,0
23365,11958,46845,0,0,0
23361,11950,46832,0,0,0
23358,11943,46828,0,0,0
23362,11946,46839,0,0,0
23370,11952,46858,0,0,0
23378,11954,46879,0,0,0
23386,11958,46909,0,0,0
23399,11974,46951,0,0,0
23415,11994,46996,0,0,0
23428,12012,47037,0,0,0
23446,12034,47076,0,0,0
23470,12061,47114,0,0,0
23490,12080,47149,0,0,0
23502,12088,47177,0,0,0
23512,12097,47203,0,0,0
23522,12108,47228,0,0,0
23526,12114,47244,0,0,0
23521,12105,47248,0,0,0
23515,12089,47238,0,0,0
23511,12069,47215,0,0,0
23502,12044,47181,0,0,0
23487,12019,47140,0,0,0
23469,12001,47100,0,0,0
23450,11986,47060,0,0,0
23425,11965,47017,0,0,0
23393,11934,46969,0,0,0
23360,11906,46919,0,0,0
23327,11886,46869,0,0,0
23286,11860,46807,0,0,0
23237,11822,46730,0,0,0
23192,11783,46649,0,0,0
23150,11745,46567,0,0,0
23104,11696,46474,0,0,0
23057,11644,46374,0,0,0
23019,11599,46283,0,0,0
22982,11557,46200,0,0,0
22937,11509,46113,0,0,0
22894,11460,46026,0,0,0
22859,11420,45951,0,0,0
22828,11388,45884,0,0,0
22794,11351,45817,0,0,0
22763,11311,45750,0,0,0
22738,11275,45692,0,0,0
22714,11245,45638,0,0,0
22686,11217,45581,0,0,0
22655,11197,45530,0,0,0
22630,11189,45492,0,0,0
22608,11183,45459,0,0,0
22583,11169,45422,0,0,0
22563,11154,45384,0,0,0
22550,11144,45351,0,0,0
22537,11130,45320,0,0,0
22517,11105,45283,0,0,0
22499,11078,45243,0,0,0
22491,11059,45207,0,0,0
22482,11041,45171,0,0,0
22466,11015,45128,0,0,0
22448,10987,45084,0,0,0
22434,10967,45043,0,0,0
22418,10944,44997,0,0,0
22395,10914,44945,0,0,0
22376,10888,44896,0,0,0
22364,10869,44852,0,0,0
22352,10847,44807,0,0,0
22335,10819,44759,0,0,0
22318,10794,44713,0,0,0
22305,10774,44670,0,0,0
22284,10750,44623,0,0,0
22253,10719,44576,0,0,0
22225,10690,44534,0,0,0
22205,10664,44493,0,0,0
22183,10638,44445,0,0,0
22161,10613,44397,0,0,0
22146,10595,44356,0,0,0
22134,10578,44319,0,0,0
22118,10557,44280,0,0,0
22099,10534,44242,0,0,0
22084,10516,44212,0,0,0
22069,10501,44187,0,0,0
22046,10482,44160,0,0,0
22023,10463,44136,0,0,0
22015,10457,44132,0,0,0
22023,10463,44144,0,0,0
22039,10479,44169,0,0,0
22069,10508,44220,0,0,0
22120,10558,44304,0,0,0
22189,10627,44420,0,0,0
22272,10709,44563,0,0,0
22377,10812,44746,0,0,0
22512,10943,44980,0,0,0
22673,11095,45259,0,0,0
22849,11258,45571,0,0,0
23045,11438,45925,0,0,0
23269,11645,46326,0,0,0
23509,11863,46761,0,0,0
23750,12077,47210,0,0,0
23994,12293,47667,0,0,0
24237,12512,48121,0,0,0
24465,12719,48551,0,0,0
24666,12901,48941,0,0,0
24844,13063,49290,0,0,0
25000,13210,49593,0,0,0
25125,13332,49839,0,0,0
25219,13425,50027,0,0,0
25292,13494,50169,0,0,0
25349,13547,50273,0,0,0
25382,13575,50331,0,0,0
25388,13577,50341,0,0,0
25375,13561,50315,0,0,0
25347,13535,50259,0,0,0
25301,13492,50171,0,0,0
25237,13434,50054,0,0,0
25166,13371,49922,0,0,0
25086,13300,49774,0,0,0
24994,13217,49606,0,0,0
24898,13128,49431,0,0,0
24811,13048,49265,0,0,0
24730,12976,49104,0,0,0
24648,12899,48940,0,0,0
24571,12821,48781,0,0,0
24505,12752,48641,0,0,0
24444,12689,48516,0,0,0
24377,12624,48393,0,0,0
24306,12561,48280,0,0,0
24244,12512,48185,0,0,0
24189,12475,48103,0,0,0
24134,12441,48024,0,0,0
24083,12412,47955,0,0,0
24043,12391,47903,0,0,0
24007,12371,47857,0,0,0
23969,12341,47805,0,0,0
23934,12310,47750,0,0,0
23905,12283,47699,0,0,0
23875,12252,47644,0,0,0
23837,12209,47574,0,0,0
23795,12164,47499,0,0,0
23749,12123,47424,0,0,0
23695,12080,47340,0,0,0
23634,12032,47248,0,0,0
23575,11988,47161,0,0,0
23522,11953,47084,0,0,0
23469,11918,47013,0,0,0
23414,11877,46941,0,0,0
23366,11838,46874,0,0,0
23329,11807,46816,0,0,0
23297,11776,46760,0,0,0
23268,11743,46705,0,0,0
23251,11719,46663,0,0,0
23251,11707,46633,0,0,0
23251,11697,46610,0,0,0
23244,11685,46589,0,0,0
23240,11682,46579,0,0,0
23244,11690,46581,0,0,0
23247,11697,46585,0,0,0
23252,11702,46593,0,0,0
23265,11720,46617,0,0,0
23286,11751,46658,0,0,0
23308,11779,46700,0,0,0
23332,11803,46739,0,0,0
23364,11830,46779,0,0,0
23401,11856,46816,0,0,0
23430,11870,46845,0,0,0
23451,11877,46866,0,0,0
23469,11885,46882,0,0,0
23480,11888,46889,0,0,0
23477,11877,46878,0,0,0
23465,11862,46856,0,0,0
23453,11852,46836,0,0,0
23436,11842,46814,0,0,0
23409,11821,46780,0,0,0
23380,11798,46742,0,0,0
23359,11780,46709,0,0,0
23339,11762,46677,0,0,0
23317,11738,46640,0,0,0
23298,11714,46603,0,0,0
23284,11692,46568,0,0,0
23266,11666,46527,0,0,0
23237,11631,46479,0,0,0
23204,11594,46432,0,0,0
23171,11560,46390,0,0,0
23137,11528,46345,0,0,0
23105,11496,46292,0,0,0
23077,11469,46239,0,0,0
23050,11448,46188,0,0,0
23018,11425,46132,0,0,0
22978,11395,46067,0,0,0
22937,11364,45999,0,0,0
22898,11337,45931,0,0,0
22862,11307,45860,0,0,0
22824,11266,45786,0,0,0
22788,11224,45713,0,0,0
22756,11190,45647,0,0,0
22721,11157,45581,0,0,0
22682,11121,45513,0,0,0
22646,11090,45449,0,0,0
22617,11064,45392,0,0,0
22583,11035,45335,0,0,0
22546,11005,45283,0,0,0
22517,10985,45244,0,0,0
22498,10974,45210,0,0,0
22476,10958,45169,0,0,0
22452,10935,45123,0,0,0
22433,10917,45086,0,0,0
22416,10901,45053,0,0,0
22391,10877,45009,0,0,0
22362,10847,44958,0,0,0
22340,10821,44909,0,0,0
22323,10798,44861,0,0,0
22299,10772,44812,0,0,0
22274,10747,44766,0,0,0
22256,10728,44725,0,0,0
22239,10707,44681,0,0,0
22213,10676,44625,0,0,0
22183,10641,44565,0,0,0
22159,10612,44515,0,0,0
22138,10586,44471,0,0,0
22117,10560,44423,0,0,0
22103,10542,44375,0,0,0
22098,10533,44338,0,0,0
22091,10523,44305,0,0,0
22078,10510,44272,0,0,0
22071,10505,44250,0,0,0
22071,10510,44240,0,0,0
22072,10512,44230,0,0,0
22069,10504,44215,0,0,0
22071,10497,44207,0,0,0
22082,10503,44216,0,0,0
22099,10518,44237,0,0,0
22120,10535,44272,0,0,0
22156,10564,44335,0,0,0
22216,10613,44434,0,0,0
22295,10685,44566,0,0,0
22397,10781,44740,0,0,0
22532,10907,44967,0,0,0
22701,11063,45247,0,0,0
22893,11239,45564,0,0,0
23097,11428,45914,0,0,0
23315,11636,46301,0,0,0
23543,11857,46718,0,0,0
23770,12076,47153,0,0,0
23995,12293,47595,0,0,0
24220,12508,48036,0,0,0
24436,12712,48456,0,0,0
24631,12893,48837,0,0,0
24806,13053,49178,0,0,0
24964,13201,49482,0,0,0
25101,13332,49739,0,0,0
25208,13432,49940,0,0,0
25285,13502,50087,0,0,0
25343,13552,50191,0,0,0
25377,13580,50248,0,0,0
25381,13583,50260,0,0,0
25362,13568,50234,0,0,0
25331,13545,50182,0,0,0
25287,13511,50103,0,0,0
25224,13457,49993,0,0,0
25152,13390,49861,0,0,0
25082,13324,49722,0,0,0
25009,13260,49580,0,0,0
24928,13188,49429,0,0,0
24850,13114,49274,0,0,0
24781,13048,49122,0,0,0
24713,12983,48968,0,0,0
24639,12909,48813,0,0,0
24563,12836,48669,0,0,0
24489,12774,48545,0,0,0
24416,12715,48423,0,0,0
24344,12653,48296,0,0,0
24283,12599,48180,0,0,0
24228,12555,48087,0,0,0
24171,12509,48003,0,0,0
24111,12459,47921,0,0,0
24059,12418,47846,0,0,0
24013,12381,47778,0,0,0
23963,12335,47703,0,0,0
23907,12282,47621,0,0,0
23853,12232,47541,0,0,0
23800,12188,47461,0,0,0
23744,12144,47376,0,0,0
23685,12096,47286,0,0,0
23634,12054,47200,0,0,0
23590,12016,47116,0,0,0
23542,11972,47027,0,0,0
23494,11928,46939,0,0,0
23454,11888,46860,0,0,0
23418,11847,46783,0,0,0
23380,11802,46702,0,0,0
23341,11758,46625,0,0,0
23310,11724,46564,0,0,0
23288,11701,46520,0,0,0
23269,11678,46477,0,0,0
23255,11657,46437,0,0,0
23252,11648,46415,0,0,0
23255,11652,46411,0,0,0
23254,11656,46411,0,0,0
23255,11664,46419,0,0,0
23267,11685,46442,0,0,0
23282,11709,46475,0,0,0
23297,11729,46510,0,0,0
23318,11752,46552,0,0,0
23346,11786,46604,0,0,0
23375,11823,46657,0,0,0
23400,11849,46701,0,0,0
23424,11868,46738,0,0,0
23450,11887,46773,0,0,0
23470,11900,46800,0,0,0
23480,11902,46820,0,0,0
23487,11905,46844,0,0,0
23496,11914,46870,0,0,0
23499,11923,46890,0,0,0
23494,11928,46900,0,0,0
23492,11935,46907,0,0,0
23498,11947,46914,0,0,0
23501,11952,46914,0,0,0
23499,11948,46905,0,0,0
23497,11946,46895,0,0,0
23493,11947,46883,0,0,0
23482,11941,46860,0,0,0
23463,11927,46824,0,0,0
23443,11912,46788,0,0,0
23423,11901,46756,0,0,0
23403,11886,46722,0,0,0
23383,11867,46685,0,0,0
23364,11852,46648,0,0,0
23345,11839,46610,0,0,0
23323,11823,46567,0,0,0
23298,11807,46524,0,0,0
23275,11797,46490,0,0,0
23255,11789,46460,0,0,0
23229,11769,46422,0,0,0
23201,11744,46379,0,0,0
23184,11727,46342,0,0,0
23171,11716,46307,0,0,0
23151,11697,46264,0,0,0
23127,11670,46215,0,0,0
23107,11647,46169,0,0,0
23088,11625,46125,0,0,0
23063,11597,46077,0,0,0
23033,11563,46026,0,0,0
23004,11534,45979,0,0,0
22974,11508,45934,0,0,0
22942,11478,45885,0,0,0
22911,11449,45838,0,0,0
22889,11431,45800,0,0,0
22868,11416,45766,0,0,0
22846,11398,45726,0,0,0
22828,11380,45686,0,0,0
22813,11368,45652,0,0,0
22793,11354,45615,0,0,0
22766,11331,45571,0,0,0
22742,11309,45530,0,0,0
22723,11293,45498,0,0,0
22701,11273,45465,0,0,0
22674,11247,45426,0,0,0
22646,11224,45391,0,0,0
22621,11203,45360,0,0,0
22592,11179,45322,0,0,0
22558,11150,45279,0,0,0
22529,11127,45244,0,0,0
22504,11112,45217,0,0,0
22477,11099,45191,0,0,0
22454,11088,45166,0,0,0
22441,11085,45148,0,0,0
22437,11089,45134,0,0,0
22434,11090,45119,0,0,0
22431,11088,45110,0,0,0
22440,11096,45124,0,0,0
22466,11120,45167,0,0,0
22503,11153,45234,0,0,0
22556,11204,45334,0,0,0
22637,11286,45484,0,0,0
22746,11397,45687,0,0,0
22877,11531,45941,0,0,0
23037,11690,46247,0,0,0
23232,11878,46606,0,0,0
23455,12086,47008,0,0,0
23693,12302,47435,0,0,0
23940,12523,47881,0,0,0
24198,12753,48341,0,0,0
24453,12985,48800,0,0,0
24695,13205,49238,0,0,0
24925,13409,49650,0,0,0
25139,13600,50033,0,0,0
25328,13769,50374,0,0,0
25482,13909,50658,0,0,0
25608,14023,50887,0,0,0
25707,14114,51066,0,0,0
25773,14173,51190,0,0,0
25803,14197,51258,0,0,0
25807,14200,51286,0,0,0
25794,14189,51286,0,0,0
25765,14160,51252,0,0,0
25719,14112,51183,0,0,0
25663,14054,51091,0,0,0
25602,13992,50983,0,0,0
25531,13921,50855,0,0,0
25447,13838,50704,0,0,0
25360,13752,50540,0,0,0
25278,13672,50373,0,0,0
25192,13588,50201,0,0,0
25099,13498,50027,0,0,0
25009,13414,49859,0,0,0
24927,13337,49701,0,0,0
24843,13261,49547,0,0,0
24757,13187,49395,0,0,0
24680,13126,49256,0,0,0
24614,13078,49133,0,0,0
24555,13031,49020,0,0,0
24499,12981,48915,0,0,0
24451,12941,48825,0,0,0
24409,12911,48745,0,0,0
24362,12876,48663,0,0,0
24309,12831,48579,0,0,0
24257,12789,48501,0,0,0
24207,12751,48426,0,0,0
24157,12710,48344,0,0,0
24110,12665,48257,0,0,0
24071,12622,48174,0,0,0
24034,12574,48088,0,0,0
23990,12518,47989,0,0,0
23945,12459,47883,0,0,0
23906,12410,47783,0,0,0
23866,12367,47690,0,0,0
23817,12323,47600,0,0,0
23767,12279,47515,0,0,0
23726,12245,47444,0,0,0
23691,12217,47381,0,0,0
23657,12191,47322,0,0,0
23629,12170,47274,0,0,0
23607,12157,47244,0,0,0
23589,12149,47226,0,0,0
23574,12139,47210,0,0,0
23568,12135,47201,0,0,0
23576,12142,47205,0,0,0
23590,12153,47217,0,0,0
23603,12161,47233,0,0,0
23619,12174,47259,0,0,0
23641,12194,47297,0,0,0
23663,12216,47339,0,0,0
23686,12236,47382,0,0,0
23718,12261,47430,0,0,0
23755,12291,47481,0,0,0
23784,12317,47527,0,0,0
23802,12333,47568,0,0,0
23820,12348,47608,0,0,0
23838,12367,47648,0,0,0
23851,12385,47678,0,0,0
23859,12399,47700,0,0,0
23866,12414,47719,0,0,0
23874,12428,47735,0,0,0
23878,12432,47740,0,0,0
23877,12426,47732,0,0,0
23872,12421,47723,0,0,0
23863,12416,47711,0,0,0
23847,12402,47687,0,0,0
23826,12386,47659,0,0,0
23808,12375,47635,0,0,0
23792,12365,47609,0,0,0
23768,12349,47573,0,0,0
23741,12329,47531,0,0,0
23719,12312,47488,0,0,0
23699,12292,47439,0,0,0
23671,12262,47379,0,0,0
23645,12229,47315,0,0,0
23627,12201,47254,0,0,0
23607,12177,47194,0,0,0
23574,12146,47128,0,0,0
23538,12109,47062,0,0,0
23507,12076,47001,0,0,0
23481,12050,46938,0,0,0
23454,12024,46870,0,0,0
23430,11998,46805,0,0,0
23414,11976,46746,0,0,0
23401,11951,46687,0,0,0
23384,11920,46626,0,0,0
23365,11891,46568,0,0,0
23342,11868,46516,0,0,0
23310,11840,46465,0,0,0
23269,11804,46412,0,0,0
23230,11770,46363,0,0,0
23202,11746,46322,0,0,0
23177,11725,46282,0,0,0
23150,11700,46240,0,0,0
23126,11676,46197,0,0,0
23108,11657,46153,0,0,0
23088,11635,46103,0,0,0
23063,11608,46052,0,0,0
23040,11585,46006,0,0,0
23022,11569,45966,0,0,0
23001,11550,45921,0,0,0
22976,11529,45871,0,0,0
22950,11509,45826,0,0,0
22927,11488,45783,0,0,0
22901,11456,45732,0,0,0
22876,11419,45678,0,0,0
22855,11388,45634,0,0,0
22831,11361,45593,0,0,0
22799,11331,45543,0,0,0
22766,11299,45488,0,0,0
22742,11277,45439,0,0,0
22724,11265,45398,0,0,0
22704,11252,45366,0,0,0
22691,11242,45350,0,0,0
22696,11248,45361,0,0,0
22723,11275,45404,0,0,0
22769,11319,45482,0,0,0
22839,11384,45607,0,0,0
22944,11481,45786,0,0,0
23080,11604,46011,0,0,0
23236,11744,46280,0,0,0
23422,11912,46607,0,0,0
23644,12114,46996,0,0,0
23892,12342,47433,0,0,0
24154,12581,47894,0,0,0
24426,12830,48376,0,0,0
24707,13085,48872,0,0,0
24982,13334,49359,0,0,0
25237,13563,49818,0,0,0
25473,13780,50249,0,0,0
25692,13985,50650,0,0,0
25880,14163,51000,0,0,0
26035,14299,51292,0,0,0
26162,14405,51531,0,0,0
26264,14489,51719,0,0,0
26334,14546,51853,0,0,0
26370,14577,51932,0,0,0
26384,14592,51967,0,0,0
26385,14595,51968,0,0,0
26369,14580,51932,0,0,0
26335,14543,51860,0,0,0
26292,14494,51763,0,0,0
26243,14438,51650,0,0,0
26181,14368,51516,0,0,0
26109,14288,51369,0,0,0
26032,14211,51220,0,0,0
25949,14136,51070,0,0,0
25856,14051,50912,0,0,0
25761,13962,50750,0,0,0
25673,13885,50601,0,0,0
25593,13816,50462,0,0,0
25513,13744,50320,0,0,0
25437,13671,50176,0,0,0
25375,13608,50046,0,0,0
25321,13555,49931,0,0,0
25263,13500,49822,0,0,0
25206,13447,49720,0,0,0
25159,13404,49636,0,0,0
25118,13368,49561,0,0,0
25076,13330,49487,0,0,0
25034,13293,49416,0,0,0
24998,13264,49357,0,0,0
24962,13237,49302,0,0,0
24922,13203,49240,0,0,0
24880,13165,49176,0,0,0
24838,13131,49117,0,0,0
24796,13097,49054,0,0,0
24751,13060,48980,0,0,0
24709,13023,48906,0,0,0
24670,12991,48840,0,0,0
24623,12955,48774,0,0,0
24572,12912,48701,0,0,0
24528,12876,48636,0,0,0
24495,12856,48588,0,0,0
24466,12835,48549,0,0,0
24434,12807,48511,0,0,0
24406,12781,48483,0,0,0
24389,12760,48465,0,0,0
24374,12734,48443,0,0,0
24356,12705,48417,0,0,0
24346,12689,48401,0,0,0
24345,12687,48400,0,0,0
24344,12688,48406,0,0,0
24342,12692,48419,0,0,0
24349,12706,48448,0,0,0
24366,12730,48486,0,0,0
24386,12753,48523,0,0,0
24407,12772,48558,0,0,0
24432,12796,48597,0,0,0
24458,12821,48635,0,0,0
24478,12836,48661,0,0,0
24495,12842,48677,0,0,0
24514,12848,48695,0,0,0
24528,12855,48713,0,0,0
24531,12854,48720,0,0,0
24529,12846,48719,0,0,0
24531,12843,48719,0,0,0
24532,12842,48719,0,0,0
24525,12833,48708,0,0,0
24514,12816,48687,0,0,0
24501,12801,48663,0,0,0
24481,12789,48632,0,0,0
24458,12773,48587,0,0,0
24438,12752,48537,0,0,0
24421,12732,48494,0,0,0
24398,12708,48448,0,0,0
24364,12678,48394,0,0,0
24329,12650,48343,0,0,0
24297,12623,48298,0,0,0
24260,12590,48242,0,0,0
24214,12544,48167,0,0,0
24167,12496,48087,0,0,0
24124,12458,48011,0,0,0
24077,12420,47932,0,0,0
24027,12377,47847,0,0,0
23985,12335,47771,0,0,0
23953,12301,47704,0,0,0
23925,12270,47641,0,0,0
23895,12238,47580,0,0,0
23868,12208,47524,0,0,0
23847,12186,47477,0,0,0
23827,12166,47430,0,0,0
23802,12146,47378,0,0,0
23780,12133,47330,0,0,0
23765,12124,47292,0,0,0
23751,12112,47252,0,0,0
23731,12096,47208,0,0,0
23713,12081,47169,0,0,0
23697,12069,47138,0,0,0
23675,12053,47101,0,0,0
23645,12032,47060,0,0,0
23616,12014,47024,0,0,0
23589,11995,46989,0,0,0
23559,11968,46947,0,0,0
23527,11937,46901,0,0,0
23503,11909,46860,0,0,0
23481,11885,46819,0,0,0
23453,11855,46772,0,0,0
23423,11823,46723,0,0,0
23400,11799,46686,0,0,0
23379,11782,46658,0,0,0
23350,11763,46629,0,0,0
23324,11749,46600,0,0,0
23308,11746,46578,0,0,0
23295,11746,46555,0,0,0
23276,11738,46524,0,0,0
23258,11726,46490,0,0,0
23248,11716,46460,0,0,0
23237,11705,46428,0,0,0
23218,11684,46390,0,0,0
23201,11666,46357,0,0,0
23191,11662,46335,0,0,0
23181,11661,46315,0,0,0
23167,11653,46288,0,0,0
23159,11648,46268,0,0,0
23166,11653,46265,0,0,0
23175,11660,46276,0,0,0
23182,11664,46304,0,0,0
23204,11682,46363,0,0,0
23259,11728,46456,0,0,0
23341,11798,46582,0,0,0
23444,11891,46750,0,0,0
23577,12018,46977,0,0,0
23743,12179,47268,0,0,0
23936,12363,47612,0,0,0
24153,12563,48005,0,0,0
24398,12783,48450,0,0,0
24664,13020,48933,0,0,0
24933,13261,49426,0,0,0
25196,13496,49915,0,0,0
25456,13728,50399,0,0,0
25708,13956,50871,0,0,0
25941,14166,51307,0,0,0
26152,14353,51698,0,0,0
26345,14525,52047,0,0,0
26514,14678,52348,0,0,0
26649,14799,52587,0,0,0
26748,14890,52770,0,0,0
26821,14962,52907,0,0,0
26870,15014,52995,0,0,0
26892,15036,53031,0,0,0
26892,15031,53026,0,0,0
26884,15014,52993,0,0,0
26863,14986,52934,0,0,0
26823,14941,52845,0,0,0
26770,14886,52737,0,0,0
26711,14830,52619,0,0,0
26646,14766,52488,0,0,0
26570,14686,52342,0,0,0
26489,14599,52187,0,0,0
26411,14520,52030,0,0,0
26330,14442,51872,0,0,0
26241,14356,51713,0,0,0
26153,14277,51560,0,0,0
26075,14215,51424,0,0,0
26005,14160,51296,0,0,0
25935,14102,51170,0,0,0
25871,14046,51052,0,0,0
25814,14002,50947,0,0,0
25759,13961,50849,0,0,0
25699,13916,50753,0,0,0
25640,13872,50666,0,0,0
25590,13833,50590,0,0,0
25545,13794,50521,0,0,0
25502,13755,50453,0,0,0
25469,13721,50389,0,0,0
25445,13691,50326,0,0,0
25420,13659,50255,0,0,0
25385,13619,50177,0,0,0
25345,13576,50098,0,0,0
25305,13535,50019,0,0,0
25260,13490,49930,0,0,0
25209,13444,49835,0,0,0
25161,13407,49749,0,0,0
25113,13372,49668,0,0,0
25057,13326,49581,0,0,0
25000,13278,49495,0,0,0
24951,13243,49425,0,0,0
24906,13212,49364,0,0,0
24857,13175,49298,0,0,0
24811,13138,49237,0,0,0
24782,13114,49192,0,0,0
24767,13099,49158,0,0,0
24752,13083,49127,0,0,0
24739,13069,49107,0,0,0
24738,13064,49109,0,0,0
24747,13065,49124,0,0,0
24763,13065,49141,0,0,0
24789,13074,49168,0,0,0
24826,13102,49209,0,0,0
24865,13138,49255,0,0,0
24901,13172,49298,0,0,0
24937,13202,49344,0,0,0
24973,13235,49396,0,0,0
25002,13265,49446,0,0,0
25019,13284,49484,0,0,0
25031,13298,49513,0,0,0
25043,13313,49541,0,0,0
25051,13323,49558,0,0,0
25052,13321,49554,0,0,0
25050,13317,49542,0,0,0
25051,13317,49529,0,0,0
25047,13313,49509,0,0,0
25031,13295,49478,0,0,0
25012,13273,49443,0,0,0
24997,13255,49407,0,0,0
24972,13232,49361,0,0,0
24936,13202,49304,0,0,0
24902,13175,49249,0,0,0
24877,13151,49197,0,0,0
24849,13120,49139,0,0,0
24814,13079,49075,0,0,0
24780,13042,49008,0,0,0
24752,13009,48940,0,0,0
24718,12971,48865,0,0,0
24676,12929,48786,0,0,0
24638,12896,48712,0,0,0
24605,12866,48642,0,0,0
24567,12828,48562,0,0,0
24525,12785,48476,0,0,0
24489,12750,48395,0,0,0
24456,12719,48320,0,0,0
24415,12677,48236,0,0,0
24366,12627,48143,0,0,0
24318,12579,48051,0,0,0
24267,12528,47957,0,0,0
24208,12467,47857,0,0,0
24146,12405,47759,0,0,0
24095,12353,47671,0,0,0
24052,12307,47592,0,0,0
24004,12258,47513,0,0,0
23960,12211,47437,0,0,0
23926,12176,47372,0,0,0
23894,12145,47308,0,0,0
23857,12110,47241,0,0,0
23825,12078,47178,0,0,0
23800,12055,47127,0,0,0
23774,12034,47080,0,0,0
23747,12011,47031,0,0,0
23728,11994,46986,0,0,0
23720,11988,46953,0,0,0
23715,11982,46921,0,0,0
23706,11968,46885,0,0,0
23696,11956,46852,0,0,0
23691,11951,46830,0,0,0
23682,11943,46804,0,0,0
23667,11930,46771,0,0,0
23655,11921,46743,0,0,0
23651,11918,46725,0,0,0
23647,11911,46708,0,0,0
23633,11898,46688,0,0,0
23615,11885,46669,0,0,0
23601,11877,46653,0,0,0
23592,11867,46632,0,0,0
23587,11852,46608,0,0,0
23585,11837,46590,0,0,0
23582,11822,46574,0,0,0
23571,11801,46547,0,0,0
23554,11777,46511,0,0,0
23540,11759,46479,0,0,0
23529,11748,46450,0,0,0
23512,11734,46415,0,0,0
23491,11717,46378,0,0,0
23478,11705,46353,0,0,0
23470,11700,46334,0,0,0
23453,11689,46307,0,0,0
23427,11673,46272,0,0,0
23406,11663,46241,0,0,0
23394,11654,46214,0,0,0
23378,11637,46183,0,0,0
23359,11618,46154,0,0,0
23343,11606,46135,0,0,0
23333,11597,46122,0,0,0
23322,11587,46106,0,0,0
23316,11582,46102,0,0,0
23330,11596,46131,0,0,0
23368,11632,46196,0,0,0
23425,11688,46297,0,0,0
23509,11773,46448,0,0,0
23630,11894,46665,0,0,0
23782,12042,46942,0,0,0
23960,12207,47270,0,0,0
24169,12399,47652,0,0,0
24412,12624,48092,0,0,0
24675,12872,48573,0,0,0
24944,13131,49074,0,0,0
25220,13399,49592,0,0,0
25502,13675,50113,0,0,0
25776,13938,50613,0,0,0
26029,14176,51076,0,0,0
26264,14393,51504,0,0,0
26479,14589,51894,0,0,0
26661,14748,52229,0,0,0
26804,14870,52505,0,0,0
26922,14970,52730,0,0,0
27020,15054,52911,0,0,0
27091,15110,53040,0,0,0
27134,15135,53117,0,0,0
27157,15146,53155,0,0,0
27162,15145,53156,0,0,0
27143,15120,53111,0,0,0
27103,15076,53029,0,0,0
27053,15029,52930,0,0,0
26994,14981,52819,0,0,0
26922,14921,52687,0,0,0
26842,14853,52543,0,0,0
26763,14789,52404,0,0,0
26685,14726,52267,0,0,0
26602,14655,52119,0,0,0
26518,14581,51968,0,0,0
26439,14514,51824,0,0,0
26360,14449,51687,0,0,0
26277,14374,51549,0,0,0
26198,14296,51413,0,0,0
26134,14227,51284,0,0,0
26078,14167,51160,0,0,0
26018,14108,51034,0,0,0
25955,14056,50913,0,0,0
25899,14017,50808,0,0,0
25843,13983,50716,0,0,0
25783,13942,50631,0,0,0
25730,13899,50552,0,0,0
25685,13857,50480,0,0,0
25638,13809,50406,0,0,0
25586,13755,50321,0,0,0
25535,13701,50232,0,0,0
25487,13652,50147,0,0,0
25436,13600,50057,0,0,0
25382,13542,49958,0,0,0
25334,13493,49862,0,0,0
25296,13458,49773,0,0,0
25259,13426,49686,0,0,0
25217,13389,49598,0,0,0
25179,13354,49516,0,0,0
25146,13322,49440,0,0,0
25108,13285,49362,0,0,0
25064,13242,49283,0,0,0
25026,13203,49212,0,0,0
24999,13172,49157,0,0,0
24976,13144,49113,0,0,0
24954,13120,49079,0,0,0
24941,13107,49059,0,0,0
24933,13101,49050,0,0,0
24922,13091,49046,0,0,0
24915,13082,49049,0,0,0
24923,13083,49067,0,0,0
24937,13089,49090,0,0,0
24942,13090,49103,0,0,0
24940,13090,49113,0,0,0
24943,13103,49137,0,0,0
24956,13124,49170,0,0,0
24971,13139,49200,0,0,0
24993,13152,49233,0,0,0
25020,13171,49271,0,0,0
25043,13193,49301,0,0,0
25054,13202,49311,0,0,0
25059,13202,49308,0,0,0
25069,13204,49306,0,0,0
25074,13203,49298,0,0,0
25063,13191,49276,0,0,0
25043,13173,49248,0,0,0
25025,13154,49223,0,0,0
25004,13130,49192,0,0,0
24979,13101,49147,0,0,0
24958,13077,49097,0,0,0
24946,13065,49050,0,0,0
24931,13055,48998,0,0,0
24905,13036,48934,0,0,0
24876,13010,48863,0,0,0
24849,12983,48794,0,0,0
24815,12949,48718,0,0,0
24774,12903,48631,0,0,0
24732,12853,48547,0,0,0
24694,12809,48472,0,0,0
24650,12765,48396,0,0,0
24598,12717,48314,0,0,0
24549,12674,48239,0,0,0
24506,12635,48172,0,0,0
24463,12592,48099,0,0,0
24419,12546,48015,0,0,0
24380,12506,47930,0,0,0
24347,12473,47849,0,0,0
24310,12436,47762,0,0,0
24270,12397,47669,0,0,0
24235,12363,47581,0,0,0
24203,12331,47501,0,0,0
24165,12289,47416,0,0,0
24121,12242,47329,0,0,0
24080,12201,47256,0,0,0
24040,12163,47189,0,0,0
23996,12119,47118,0,0,0
23956,12078,47047,0,0,0
23930,12053,46990,0,0,0
23912,12033,46943,0,0,0
23885,12004,46892,0,0,0
23852,11971,46839,0,0,0
23828,11947,46796,0,0,0
23808,11927,46758,0,0,0
23783,11903,46716,0,0,0
23755,11880,46674,0,0,0
23732,11866,46639,0,0,0
23713,11858,46606,0,0,0
23691,11845,46564,0,0,0
23673,11830,46523,0,0,0
23665,11819,46493,0,0,0
23659,11804,46466,0,0,0
23642,11779,46430,0,0,0
23622,11753,46388,0,0,0
23605,11737,46353,0,0,0
23586,11722,46318,0,0,0
23562,11701,46273,0,0,0
23538,11681,46230,0,0,0
23518,11671,46197,0,0,0
23498,11661,46161,0,0,0
23474,11641,46117,0,0,0
23456,11618,46074,0,0,0
23448,11602,46036,0,0,0
23436,11583,45999,0,0,0
23416,11559,45962,0,0,0
23394,11538,45930,0,0,0
23375,11525,45907,0,0,0
23351,11509,45885,0,0,0
23323,11486,45862,0,0,0
23300,11469,45846,0,0,0
23287,11462,45837,0,0,0
23274,11452,45821,0,0,0
23257,11437,45799,0,0,0
23241,11429,45781,0,0,0
23227,11426,45763,0,0,0
23207,11414,45735,0,0,0
23188,11402,45704,0,0,0
23178,11402,45686,0,0,0
23175,11407,45681,0,0,0
23173,11405,45678,0,0,0
23180,11402,45681,0,0,0
23206,11418,45705,0,0,0
23248,11453,45756,0,0,0
23296,11501,45829,0,0,0
23360,11564,45940,0,0,0
23454,11655,46106,0,0,0
23581,11773,46329,0,0,0
23736,11912,46601,0,0,0
23921,12077,46925,0,0,0
24140,12280,47308,0,0,0
24386,12511,47741,0,0,0
24645,12753,48205,0,0,0
24915,13007,48698,0,0,0
25193,13272,49214,0,0,0
25466,13530,49728,0,0,0
25721,13769,50215,0,0,0
25961,13993,50670,0,0,0
26184,14200,51092,0,0,0
26376,14379,51467,0,0,0
26533,14525,51783,0,0,0
26668,14650,52048,0,0,0
26784,14758,52269,0,0,0
26869,14836,52434,0,0,0
26918,14879,52538,0,0,0
26945,14900,52594,0,0,0
26956,14906,52605,0,0,0
26938,14889,52566,0,0,0
26892,14848,52484,0,0,0
26835,14798,52380,0,0,0
26771,14743,52261,0,0,0
26693,14674,52122,0,0,0
26604,14590,51965,0,0,0
26515,14505,51804,0,0,0
26430,14423,51642,0,0,0
26344,14339,51473,0,0,0
26254,14254,51296,0,0,0
26167,14178,51123,0,0,0
26083,14107,50957,0,0,0
25994,14031,50793,0,0,0
25902,13958,50636,0,0,0
25820,13898,50497,0,0,0
25746,13842,50372,0,0,0
25669,13778,50248,0,0,0
25597,13711,50127,0,0,0
25538,13656,50017,0,0,0
25485,13609,49915,0,0,0
25432,13559,49815,0,0,0
25385,13513,49721,0,0,0
25345,13474,49640,0,0,0
25304,13437,49561,0,0,0
25259,13394,49475,0,0,0
25213,13351,49391,0,0,0
25172,13313,49318,0,0,0
25133,13275,49247,0,0,0
25089,13231,49169,0,0,0
25046,13187,49090,0,0,0
25007,13147,49015,0,0,0
24967,13108,48939,0,0,0
24922,13066,48858,0,0,0
24878,13024,48785,0,0,0
24840,12992,48724,0,0,0
24800,12960,48669,0,0,0
24757,12925,48612,0,0,0
24721,12899,48567,0,0,0
24698,12886,48541,0,0,0
24681,12876,48521,0,0,0
24666,12863,48500,0,0,0
24659,12855,48486,0,0,0
24659,12854,48483,0,0,0
24657,12851,48482,0,0,0
24651,12845,48483,0,0,0
24646,12845,48493,0,0,0
24647,12853,48512,0,0,0
24651,12861,48531,0,0,0
24657,12866,48552,0,0,0
24673,12881,48582,0,0,0
24698,12904,48617,0,0,0
24721,12925,48650,0,0,0
24740,12941,48681,0,0,0
24763,12962,48714,0,0,0
24786,12983,48745,0,0,0
24799,12995,48763,0,0,0
24803,12998,48772,0,0,0
24807,13005,48783,0,0,0
24808,13017,48793,0,0,0
24800,13021,48789,0,0,0
24789,13019,48777,0,0,0
24785,13020,48768,0,0,0
24781,13019,48757,0,0,0
24769,13006,48730,0,0,0
24752,12984,48693,0,0,0
24737,12962,48651,0,0,0
24718,12936,48599,0,0,0
24684,12896,48533,0,0,0
24641,12851,48459,0,0,0
24601,12812,48387,0,0,0
24563,12775,48315,0,0,0
24520,12736,48236,0,0,0
24475,12698,48159,0,0,0
24436,12668,48091,0,0,0
24401,12638,48024,0,0,0
24365,12601,47951,0,0,0
24331,12569,47881,0,0,0
24302,12547,47820,0,0,0
24268,12521,47756,0,0,0
24225,12485,47683,0,0,0
24182,12448,47612,0,0,0
24143,12418,47550,0,0,0
24100,12382,47481,0,0,0
24052,12338,47403,0,0,0
24012,12299,47333,0,0,0
23984,12267,47273,0,0,0
23953,12229,47208,0,0,0
23917,12183,47139,0,0,0
23882,12140,47074,0,0,0
23845,12103,47013,0,0,0
23806,12066,46951,0,0,0
23769,12030,46890,0,0,0
23739,12001,46838,0,0,0
23713,11976,46794,0,0,0
23686,11948,46749,0,0,0
23662,11924,46705,0,0,0
23645,11913,46673,0,0,0
23631,11907,46644,0,0,0
23609,11890,46603,0,0,0
23580,11865,46555,0,0,0
23556,11844,46514,0,0,0
23531,11827,46477,0,0,0
23501,11803,46436,0,0,0
23472,11778,46396,0,0,0
23452,11762,46367,0,0,0
23434,11749,46338,0,0,0
23414,11731,46299,0,0,0
23394,11715,46258,0,0,0
23380,11704,46222,0,0,0
23369,11691,46184,0,0,0
23353,11670,46139,0,0,0
23337,11649,46096,0,0,0
23326,11636,46066,0,0,0
23314,11625,46043,0,0,0
23293,11608,46015,0,0,0
23270,11591,45991,0,0,0
23254,11581,45976,0,0,0
23241,11571,45962,0,0,0
23227,11556,45944,0,0,0
23217,11545,45928,0,0,0
23212,11544,45921,0,0,0
23204,11541,45913,0,0,0
23189,11526,45896,0,0,0
23174,11508,45874,0,0,0
23163,11493,45853,0,0,0
23149,11474,45829,0,0,0
23130,11448,45799,0,0,0
23117,11429,45773,0,0,0
23112,11422,45754,0,0,0
23107,11417,45734,0,0,0
23102,11412,45719,0,0,0
23109,11419,45718,0,0,0
23131,11438,45734,0,0,0
23162,11466,45762,0,0,0
23207,11505,45814,0,0,0
23274,11570,45913,0,0,0
23366,11663,46066,0,0,0
23479,11776,46268,0,0,0
23616,11912,46525,0,0,0
23786,12080,46847,0,0,0
23986,12277,47224,0,0,0
24206,12496,47643,0,0,0
24447,12734,48103,0,0,0
24711,12991,48598,0,0,0
24986,13254,49108,0,0,0
25255,13510,49606,0,0,0
25514,13754,50079,0,0,0
25761,13984,50524,0,0,0
25983,14188,50924,0,0,0
26169,14355,51265,0,0,0
26323,14490,51553,0,0,0
26450,14601,51791,0,0,0
26548,14681,51974,0,0,0
26613,14726,52096,0,0,0
26650,14745,52166,0,0,0
26667,14753,52196,0,0,0
26659,14743,52181,0,0,0
26623,14707,52117,0,0,0
26571,14653,52021,0,0,0
26513,14595,51907,0,0,0
26446,14527,51774,0,0,0
26361,14443,51616,0,0,0
26268,14351,51443,0,0,0
26176,14260,51265,0,0,0
26079,14167,51078,0,0,0
25975,14070,50885,0,0,0
25873,13979,50700,0,0,0
25780,13896,50528,0,0,0
25689,13813,50359,0,0,0
25597,13731,50194,0,0,0
25512,13661,50046,0,0,0
25436,13606,49915,0,0,0
25364,13555,49792,0,0,0
25296,13503,49675,0,0,0
25240,13456,49576,0,0,0
25197,13418,49495,0,0,0
25156,13381,49418,0,0,0
25115,13340,49343,0,0,0
25075,13303,49274,0,0,0
25035,13266,49205,0,0,0
24988,13220,49127,0,0,0
24937,13170,49045,0,0,0
24890,13130,48967,0,0,0
24846,13094,48889,0,0,0
24796,13050,48801,0,0,0
24748,13001,48713,0,0,0
24708,12961,48632,0,0,0
24668,12926,48553,0,0,0
24621,12886,48472,0,0,0
24575,12847,48391,0,0,0
24539,12814,48319,0,0,0
24505,12781,48254,0,0,0
24472,12747,48191,0,0,0
24445,12718,48133,0,0,0
24426,12699,48085,0,0,0
24406,12683,48042,0,0,0
24379,12659,47998,0,0,0
24352,12637,47964,0,0,0
24336,12630,47951,0,0,0
24329,12631,47951,0,0,0
24325,12629,47956,0,0,0
24329,12631,47972,0,0,0
24345,12646,48002,0,0,0
24364,12663,48038,0,0,0
24379,12675,48074,0,0,0
24401,12689,48115,0,0,0
24430,12715,48164,0,0,0
24454,12741,48213,0,0,0
24467,12762,48256,0,0,0
24481,12785,48301,0,0,0
24501,12809,48348,0,0,0
24519,12826,48386,0,0,0
24532,12835,48410,0,0,0
24550,12847,48432,0,0,0
24572,12861,48451,0,0,0
24585,12862,48456,0,0,0
24586,12851,48442,0,0,0
24583,12836,48420,0,0,0
24571,12819,48392,0,0,0
24547,12795,48352,0,0,0
24513,12765,48299,0,0,0
24477,12740,48250,0,0,0
24440,12720,48204,0,0,0
24395,12693,48153,0,0,0
24347,12661,48098,0,0,0
24309,12639,48046,0,0,0
24277,12622,47990,0,0,0
24240,12596,47920,0,0,0
24202,12561,47843,0,0,0
24169,12528,47771,0,0,0
24138,12494,47701,0,0,0
24098,12455,47627,0,0,0
24054,12415,47555,0,0,0
24016,12382,47493,0,0,0
23980,12351,47435,0,0,0
23942,12316,47375,0,0,0
23910,12283,47317,0,0,0
23888,12259,47265,0,0,0
23868,12234,47213,0,0,0
23841,12204,47156,0,0,0
23813,12173,47098,0,0,0
23787,12146,47044,0,0,0
23761,12118,46988,0,0,0
23726,12081,46925,0,0,0
23686,12041,46862,0,0,0
23651,12011,46807,0,0,0
23615,11983,46753,0,0,0
23570,11947,46694,0,0,0
23531,11912,46638,0,0,0
23505,11888,46590,0,0,0
23480,11864,46540,0,0,0
23452,11833,46489,0,0,0
23432,11807,46445,0,0,0
23421,11790,46412,0,0,0
23404,11771,46376,0,0,0
23380,11746,46333,0,0,0
23360,11726,46293,0,0,0
23347,11718,46258,0,0,0
23332,11711,46219,0,0,0
23316,11701,46178,0,0,0
23306,11695,46144,0,0,0
23297,11689,46115,0,0,0
23282,11677,46083,0,0,0
23264,11657,46055,0,0,0
23248,11640,46037,0,0,0
23232,11625,46025,0,0,0
23213,11604,46003,0,0,0
23192,11581,45971,0,0,0
23182,11569,45946,0,0,0
23177,11562,45926,0,0,0
23167,11547,45902,0,0,0
23151,11531,45878,0,0,0
23136,11523,45862,0,0,0
23120,11515,45846,0,0,0
23100,11499,45823,0,0,0
23080,11481,45799,0,0,0
23068,11472,45785,0,0,0
23064,11471,45773,0,0,0
23062,11471,45762,0,0,0
23063,11475,45759,0,0,0
23076,11491,45771,0,0,0
23101,11516,45796,0,0,0
23139,11546,45835,0,0,0
23198,11596,45908,0,0,0
23282,11679,46030,0,0,0
23384,11786,46202,0,0,0
23504,11912,46428,0,0,0
23655,12071,46716,0,0,0
23841,12267,47067,0,0,0
24059,12487,47465,0,0,0
24298,12716,47897,0,0,0
24553,12959,48364,0,0,0
24818,13213,48855,0,0,0
25081,13463,49345,0,0,0
25330,13697,49818,0,0,0
25567,13915,50271,0,0,0
25790,14119,50694,0,0,0
25987,14300,51071,0,0,0
26152,14453,51391,0,0,0
26293,14582,51664,0,0,0
26409,14687,51887,0,0,0
26492,14760,52051,0,0,0
26542,14799,52159,0,0,0
26569,14819,52223,0,0,0
26580,14821,52242,0,0,0
26567,14797,52214,0,0,0
26531,14756,52148,0,0,0
26485,14712,52062,0,0,0
26429,14659,51952,0,0,0
26354,14583,51811,0,0,0
26267,14490,51648,0,0,0
26179,14399,51478,0,0,0
26089,14312,51301,0,0,0
25988,14218,51117,0,0,0
25882,14124,50933,0,0,0
25784,14038,50756,0,0,0
25686,13954,50582,0,0,0
25582,13865,50403,0,0,0
25480,13774,50226,0,0,0
25387,13692,50060,0,0,0
25296,13616,49903,0,0,0
25205,13541,49750,0,0,0
25120,13473,49609,0,0,0
25050,13418,49489,0,0,0
24989,13370,49381,0,0,0
24928,13319,49274,0,0,0
24871,13270,49172,0,0,0
24821,13226,49081,0,0,0
24770,13180,48993,0,0,0
24714,13128,48904,0,0,0
24663,13083,48820,0,0,0
24622,13048,48747,0,0,0
24582,13012,48673,0,0,0
24540,12969,48591,0,0,0
24501,12928,48515,0,0,0
24468,12890,48446,0,0,0
24432,12850,48376,0,0,0
24393,12808,48304,0,0,0
24358,12773,48242,0,0,0
24327,12745,48192,0,0,0
24294,12717,48143,0,0,0
24262,12689,48091,0,0,0
24242,12672,48051,0,0,0
24232,12665,48030,0,0,0
24227,12661,48017,0,0,0
24226,12659,48006,0,0,0
24231,12667,48006,0,0,0
24238,12678,48012,0,0,0
24242,12684,48019,0,0,0
24250,12692,48030,0,0,0
24268,12710,48056,0,0,0
24289,12734,48092,0,0,0
24309,12752,48129,0,0,0
24329,12770,48170,0,0,0
24360,12794,48223,0,0,0
24395,12819,48283,0,0,0
24421,12840,48334,0,0,0
24439,12860,48378,0,0,0
24457,12887,48418,0,0,0
24474,12914,48451,0,0,0
24482,12930,48471,0,0,0
24485,12939,48483,0,0,0
24490,12951,48496,0,0,0
24490,12959,48504,0,0,0
24481,12954,48497,0,0,0
24469,12939,48481,0,0,0
24462,12926,48462,0,0,0
24455,12911,48434,0,0,0
24444,12886,48394,0,0,0
24434,12860,48350,0,0,0
24424,12839,48309,0,0,0
24404,12816,48262,0,0,0
24369,12782,48200,0,0,0
24330,12749,48133,0,0,0
24295,12724,48071,0,0,0
24257,12696,48007,0,0,0
24211,12656,47936,0,0,0
24167,12614,47864,0,0,0
24131,12580,47795,0,0,0
24096,12542,47722,0,0,0
24056,12498,47645,0,0,0
24018,12455,47571,0,0,0
23986,12417,47498,0,0,0
23950,12374,47418,0,0,0
23909,12326,47336,0,0,0
23868,12280,47261,0,0,0
23826,12240,47193,0,0,0
23779,12197,47123,0,0,0
23731,12156,47053,0,0,0
23691,12126,46995,0,0,0
23660,12107,46949,0,0,0
23628,12086,46900,0,0,0
23600,12066,46849,0,0,0
23581,12056,46804,0,0,0
23562,12048,46760,0,0,0
23538,12030,46710,0,0,0
23513,12005,46659,0,0,0
23493,11987,46616,0,0,0
23474,11971,46577,0,0,0
23448,11949,46534,0,0,0
23424,11927,46492,0,0,0
23410,11913,46457,0,0,0
23396,11900,46424,0,0,0
23374,11880,46388,0,0,0
23350,11859,46356,0,0,0
23332,11844,46331,0,0,0
23312,11825,46302,0,0,0
23284,11799,46263,0,0,0
23256,11771,46222,0,0,0
23235,11750,46187,0,0,0
23216,11725,46151,0,0,0
23192,11692,46106,0,0,0
23168,11661,46063,0,0,0
23151,11641,46030,0,0,0
23135,11623,45997,0,0,0
23117,11604,45962,0,0,0
23106,11589,45930,0,0,0
23102,11582,45902,0,0,0
23096,11576,45871,0,0,0
23086,11568,45838,0,0,0
23076,11564,45811,0,0,0
23069,11564,45791,0,0,0
23065,11561,45772,0,0,0
23063,11554,45758,0,0,0
23068,11554,45756,0,0,0
23080,11563,45768,0,0,0
23093,11576,45790,0,0,0
23108,11593,45826,0,0,0
23138,11626,45889,0,0,0
23191,11681,45989,0,0,0
23270,11757,46128,0,0,0
23380,11856,46313,0,0,0
23525,11986,46554,0,0,0
23696,12147,46854,0,0,0
23886,12327,47202,0,0,0
24097,12530,47596,0,0,0
24337,12761,48038,0,0,0
24595,13008,48510,0,0,0
24847,13253,48995,0,0,0
25095,13498,49482,0,0,0
25344,13749,49963,0,0,0
25586,13992,50417,0,0,0
25809,14202,50823,0,0,0
26010,14381,51180,0,0,0
26187,14537,51496,0,0,0
26332,14662,51754,0,0,0
26440,14747,51942,0,0,0
26514,14800,52071,0,0,0
26566,14835,52158,0,0,0
26596,14851,52204,0,0,0
26603,14842,52203,0,0,0
26595,14818,52167,0,0,0
26572,14785,52103,0,0,0
26528,14734,52002,0,0,0
26462,14661,51867,0,0,0
26384,14579,51715,0,0,0
26300,14500,51561,0,0,0
26205,14418,51399,0,0,0
26099,14331,51231,0,0,0
25991,14249,51066,0,0,0
25890,14177,50908,0,0,0
25794,14103,50743,0,0,0
25705,14024,50568,0,0,0
25624,13950,50400,0,0,0
25544,13883,50249,0,0,0
25461,13815,50103,0,0,0
25379,13744,49959,0,0,0
25307,13679,49834,0,0,0
25247,13625,49729,0,0,0
25191,13571,49631,0,0,0
25142,13519,49538,0,0,0
25101,13485,49459,0,0,0
25059,13462,49387,0,0,0
25005,13431,49310,0,0,0
24946,13392,49234,0,0,0
24894,13360,49168,0,0,0
24851,13333,49106,0,0,0
24808,13295,49034,0,0,0
24770,13250,48954,0,0,0
24741,13213,48881,0,0,0
24709,13179,48812,0,0,0
24672,13135,48735,0,0,0
24635,13088,48655,0,0,0
24606,13054,48587,0,0,0
24580,13026,48526,0,0,0
24550,12995,48461,0,0,0
24521,12968,48405,0,0,0
24498,12949,48368,0,0,0
24477,12930,48340,0,0,0
24456,12908,48312,0,0,0
24444,12895,48289,0,0,0
24445,12896,48279,0,0,0
24448,12903,48277,0,0,0
24446,12905,48277,0,0,0
24445,12910,48289,0,0,0
24455,12925,48323,0,0,0
24470,12943,48365,0,0,0
24488,12959,48406,0,0,0
24514,12983,48454,0,0,0
24549,13021,48511,0,0,0
24580,13056,48565,0,0,0
24601,13080,48608,0,0,0
24625,13102,48647,0,0,0
24654,13127,48684,0,0,0
24676,13143,48713,0,0,0
24686,13147,48731,0,0,0
24697,13151,48748,0,0,0
24709,13154,48762,0,0,0
24709,13147,48760,0,0,0
24698,13133,48742,0,0,0
24688,13121,48720,0,0,0
24680,13110,48697,0,0,0
24664,13092,48665,0,0,0
24639,13067,48622,0,0,0
24615,13046,48576,0,0,0
24594,13028,48527,0,0,0
24567,13004,48468,0,0,0
24534,12974,48405,0,0,0
24503,12945,48345,0,0,0
24471,12916,48283,0,0,0
24433,12878,48216,0,0,0
24393,12834,48144,0,0,0
24357,12794,48075,0,0,0
24321,12756,48004,0,0,0
24276,12711,47920,0,0,0
24229,12665,47832,0,0,0
24191,12627,47752,0,0,0
24158,12593,47679,0,0,0
24123,12557,47606,0,0,0
24088,12523,47538,0,0,0
24057,12496,47481,0,0,0
24024,12467,47425,0,0,0
23984,12428,47362,0,0,0
23940,12386,47298,0,0,0
23900,12352,47239,0,0,0
23861,12319,47177,0,0,0
23821,12283,47108,0,0,0
23787,12255,47044,0,0,0
23763,12237,46991,0,0,0
23739,12216,46939,0,0,0
23709,12187,46881,0,0,0
23680,12157,46824,0,0,0
23660,12133,46770,0,0,0
23641,12109,46712,0,0,0
23616,12078,46654,0,0,0
23589,12047,46605,0,0,0
23564,12022,46563,0,0,0
23538,11995,46516,0,0,0
23513,11971,46472,0,0,0
23492,11957,46438,0,0,0
23475,11950,46410,0,0,0
23456,11939,46378,0,0,0
23434,11923,46342,0,0,0
23414,11909,46310,0,0,0
23398,11901,46282,0,0,0
23382,11891,46254,0,0,0
23367,11881,46229,0,0,0
23359,11873,46214,0,0,0
23351,11862,46199,0,0,0
23335,11841,46176,0,0,0
23316,11818,46148,0,0,0
23304,11805,46127,0,0,0
23295,11798,46107,0,0,0
23284,11788,46079,0,0,0
23274,11781,46055,0,0,0
23272,11778,46042,0,0,0
23272,11772,46028,0,0,0
23265,11760,46007,0,0,0
23257,11747,45990,0,0,0
23255,11742,45984,0,0,0
23258,11742,45984,0,0,0
23259,11741,45986,0,0,0
23267,11747,46008,0,0,0
23296,11776,46062,0,0,0
23346,11830,46151,0,0,0
23415,11904,46277,0,0,0
23514,12006,46458,0,0,0
23649,12141,46703,0,0,0
23817,12301,47004,0,0,0
24013,12483,47353,0,0,0
24240,12694,47757,0,0,0
24495,12933,48214,0,0,0
24762,13185,48701,0,0,0
25030,13433,49199,0,0,0
25299,13681,49700,0,0,0
25564,13931,50197,0,0,0
25812,14165,50663,0,0,0
26033,14373,51084,0,0,0
26233,14563,51460,0,0,0
26411,14733,51786,0,0,0
26560,14867,52055,0,0,0
26676,14964,52266,0,0,0
26765,15037,52427,0,0,0
26830,15091,52541,0,0,0
26862,15116,52604,0,0,0
26865,15113,52618,0,0,0
26851,15095,52596,0,0,0
26822,15064,52545,0,0,0
26770,15015,52460,0,0,0
26701,14952,52347,0,0,0
26629,14889,52221,0,0,0
26553,14822,52082,0,0,0
26465,14740,51923,0,0,0
26369,14649,51748,0,0,0
26279,14566,51573,0,0,0
26194,14490,51397,0,0,0
26106,14407,51219,0,0,0
26018,14323,51045,0,0,0
25940,14249,50880,0,0,0
25865,14176,50722,0,0,0
25788,14098,50565,0,0,0
25716,14022,50417,0,0,0
25654,13959,50289,0,0,0
25598,13904,50173,0,0,0
25538,13848,50063,0,0,0
25479,13795,49966,0,0,0
25429,13751,49893,0,0,0
25384,13711,49832,0,0,0
25337,13669,49766,0,0,0
25292,13635,49703,0,0,0
25255,13611,49647,0,0,0
25218,13587,49586,0,0,0
25176,13551,49511,0,0,0
25135,13512,49430,0,0,0
25099,13480,49352,0,0,0
25062,13446,49273,0,0,0
25019,13402,49188,0,0,0
24979,13358,49104,0,0,0
24944,13319,49023,0,0,0
24904,13275,48939,0,0,0
24856,13225,48853,0,0,0
24812,13176,48775,0,0,0
24773,13135,48711,0,0,0
24733,13096,48650,0,0,0
24695,13058,48594,0,0,0
24669,13032,48554,0,0,0
24650,13020,48528,0,0,0
24633,13011,48506,0,0,0
24621,13005,48488,0,0,0
24623,13010,48486,0,0,0
24633,13022,48495,0,0,0
24640,13027,48504,0,0,0
24648,13030,48514,0,0,0
24667,13045,48544,0,0,0
24693,13069,48587,0,0,0
24715,13089,48624,0,0,0
24733,13105,48654,0,0,0
24755,13127,48689,0,0,0
24781,13154,48727,0,0,0
24801,13175,48757,0,0,0
24815,13192,48782,0,0,0
24829,13211,48812,0,0,0
24842,13229,48840,0,0,0
24849,13235,48853,0,0,0
24851,13234,48856,0,0,0
24853,13235,48857,0,0,0
24852,13234,48856,0,0,0
24845,13224,48845,0,0,0
24837,13216,48832,0,0,0
24829,13212,48823,0,0,0
24818,13204,48806,0,0,0
24801,13189,48770,0,0,0
24780,13173,48724,0,0,0
24762,13163,48680,0,0,0
24739,13145,48632,0,0,0
24706,13112,48572,0,0,0
24673,13077,48514,0,0,0
24644,13050,48463,0,0,0
24615,13022,48409,0,0,0
24582,12988,48348,0,0,0
24553,12959,48288,0,0,0
24524,12933,48227,0,0,0
24485,12895,48156,0,0,0
24438,12845,48076,0,0,0
24397,12797,48001,0,0,0
24361,12753,47935,0,0,0
24324,12707,47867,0,0,0
24287,12664,47795,0,0,0
24255,12633,47728,0,0,0
24226,12609,47665,0,0,0
24197,12581,47600,0,0,0
24166,12553,47538,0,0,0
24137,12530,47486,0,0,0
24108,12509,47435,0,0,0
24075,12481,47378,0,0,0
24040,12448,47318,0,0,0
24011,12420,47267,0,0,0
23984,12394,47218,0,0,0
23953,12365,47166,0,0,0
23923,12334,47117,0,0,0
23897,12310,47079,0,0,0
23873,12288,47042,0,0,0
23849,12260,46996,0,0,0
23828,12232,46948,0,0,0
23812,12213,46905,0,0,0
23794,12198,46863,0,0,0
23767,12179,46816,0,0,0
23741,12159,46769,0,0,0
23723,12146,46731,0,0,0
23703,12129,46694,0,0,0
23672,12103,46652,0,0,0
23639,12075,46612,0,0,0
23612,12052,46576,0,0,0
23588,12029,46537,0,0,0
23560,12000,46493,0,0,0
23537,11971,46457,0,0,0
23524,11949,46433,0,0,0
23514,11932,46409,0,0,0
23499,11911,46376,0,0,0
23482,11893,46345,0,0,0
23471,11884,46320,0,0,0
23460,11874,46291,0,0,0
23443,11856,46258,0,0,0
23424,11838,46232,0,0,0
23411,11823,46210,0,0,0
23399,11806,46185,0,0,0
23383,11785,46156,0,0,0
23372,11772,46134,0,0,0
23369,11773,46124,0,0,0
23370,11776,46120,0,0,0
23376,11779,46125,0,0,0
23396,11795,46151,0,0,0
23431,11830,46201,0,0,0
23475,11879,46275,0,0,0
23537,11947,46390,0,0,0
23637,12048,46568,0,0,0
23774,12184,46809,0,0,0
23936,12340,47098,0,0,0
24124,12514,47439,0,0,0
24344,12719,47838,0,0,0
24592,12950,48285,0,0,0
24851,13189,48761,0,0,0
25117,13434,49255,0,0,0
25392,13685,49761,0,0,0
25665,13933,50260,0,0,0
25918,14165,50731,0,0,0
26152,14380,51169,0,0,0
26371,14579,51571,0,0,0
26568,14753,51924,0,0,0
26731,14892,52213,0,0,0
26866,15003,52445,0,0,0
26976,15095,52631,0,0,0
27054,15163,52770,0,0,0
27097,15201,52853,0,0,0
27112,15217,52891,0,0,0
27111,15223,52898,0,0,0
27096,15215,52874,0,0,0
27063,15185,52810,0,0,0
27022,15140,52719,0,0,0
26979,15092,52611,0,0,0
26923,15029,52483,0,0,0
26847,14948,52331,0,0,0
26760,14861,52168,0,0,0
26671,14778,52003,0,0,0
26574,14689,51830,0,0,0
26469,14590,51645,0,0,0
26372,14496,51463,0,0,0
26289,14418,51297,0,0,0
26208,14344,51134,0,0,0
26123,14266,50973,0,0,0
26043,14195,50825,0,0,0
25971,14132,50693,0,0,0
25897,14066,50569,0,0,0
25825,14002,50455,0,0,0
25768,13952,50357,0,0,0
25723,13913,50273,0,0,0
25679,13875,50191,0,0,0
25637,13837,50112,0,0,0
25607,13811,50045,0,0,0
25584,13792,49987,0,0,0
25552,13764,49922,0,0,0
25514,13730,49847,0,0,0
25478,13700,49776,0,0,0
25440,13669,49704,0,0,0
25394,13629,49623,0,0,0
25345,13586,49535,0,0,0
25306,13549,49455,0,0,0
25272,13517,49381,0,0,0
25235,13478,49306,0,0,0
25197,13436,49233,0,0,0
25165,13403,49175,0,0,0
25134,13371,49121,0,0,0
25100,13333,49061,0,0,0
25068,13298,49000,0,0,0
25043,13269,48949,0,0,0
25018,13240,48905,0,0,0
24989,13208,48859,0,0,0
24964,13183,48822,0,0,0
24951,13171,48803,0,0,0
24945,13164,48797,0,0,0
24938,13156,48795,0,0,0
24940,13156,48804,0,0,0
24958,13169,48829,0,0,0
24979,13181,48856,0,0,0
24996,13189,48882,0,0,0
25018,13201,48913,0,0,0
25045,13220,48949,0,0,0
25066,13240,48979,0,0,0
25081,13258,49002,0,0,0
25099,13278,49028,0,0,0
25123,13302,49062,0,0,0
25146,13322,49090,0,0,0
25163,13333,49110,0,0,0
25181,13340,49123,0,0,0
25197,13345,49129,0,0,0
25203,13339,49119,0,0,0
25193,13325,49097,0,0,0
25176,13311,49074,0,0,0
25154,13297,49047,0,0,0
25122,13271,49006,0,0,0
25086,13236,48953,0,0,0
25054,13202,48898,0,0,0
25025,13169,48841,0,0,0
24993,13130,48773,0,0,0
24957,13094,48700,0,0,0
24923,13067,48633,0,0,0
24892,13042,48567,0,0,0
24854,13009,48495,0,0,0
24814,12971,48419,0,0,0
24778,12939,48348,0,0,0
24742,12909,48281,0,0,0
24701,12875,48209,0,0,0
24661,12839,48137,0,0,0
24630,12808,48075,0,0,0
24598,12776,48013,0,0,0
24559,12737,47945,0,0,0
24515,12695,47876,0,0,0
24473,12652,47811,0,0,0
24432,12609,47742,0,0,0
24387,12563,47669,0,0,0
24344,12524,47600,0,0,0
24309,12500,47544,0,0,0
24276,12479,47488,0,0,0
24239,12450,47429,0,0,0
24208,12422,47374,0,0,0
24188,12399,47327,0,0,0
24169,12373,47272,0,0,0
24140,12339,47208,0,0,0
24110,12306,47145,0,0,0
24087,12277,47090,0,0,0
24063,12242,47035,0,0,0
24032,12200,46977,0,0,0
24005,12165,46927,0,0,0
23988,12144,46885,0,0,0
23970,12124,46842,0,0,0
23949,12104,46797,0,0,0
23932,12087,46759,0,0,0
23919,12074,46723,0,0,0
23900,12051,46677,0,0,0
23876,12020,46627,0,0,0
23859,11998,46588,0,0,0
23848,11986,46560,0,0,0
23832,11966,46528,0,0,0
23813,11938,46492,0,0,0
23798,11917,46461,0,0,0
23784,11900,46431,0,0,0
23762,11876,46394,0,0,0
23737,11850,46359,0,0,0
23720,11835,46335,0,0,0
23710,11826,46312,0,0,0
23697,11814,46284,0,0,0
23682,11806,46255,0,0,0
23678,11810,46234,0,0,0
23677,11815,46218,0,0,0
23670,11807,46196,0,0,0
23661,11793,46172,0,0,0
23654,11780,46153,0,0,0
23645,11766,46134,0,0,0
23630,11743,46107,0,0,0
23615,11723,46076,0,0,0
23608,11712,46053,0,0,0
23600,11704,46031,0,0,0
23587,11690,46004,0,0,0
23572,11679,45978,0,0,0
23559,11675,45957,0,0,0
23542,11665,45933,0,0,0
23518,11642,45903,0,0,0
23499,11618,45873,0,0,0
23492,11603,45850,0,0,0
23487,11597,45832,0,0,0
23483,11599,45825,0,0,0
23495,11616,45844,0,0,0
23528,11651,45899,0,0,0
23575,11700,45988,0,0,0
23638,11765,46121,0,0,0
23734,11859,46311,0,0,0
23868,11987,46561,0,0,0
24033,12140,46861,0,0,0
24226,12320,47217,0,0,0
24453,12536,47638,0,0,0
24715,12785,48119,0,0,0
24998,13049,48633,0,0,0
25293,13318,49167,0,0,0
25594,13595,49713,0,0,0
25887,13865,50251,0,0,0
26158,14110,50755,0,0,0
26407,14329,51215,0,0,0
26635,14529,51632,0,0,0
26834,14709,51994,0,0,0
26995,14852,52287,0,0,0
27120,14961,52516,0,0,0
27224,15050,52700,0,0,0
27304,15116,52835,0,0,0
27350,15151,52911,0,0,0
27369,15165,52939,0,0,0
27366,15168,52934,0,0,0
27340,15151,52893,0,0,0
27293,15109,52815,0,0,0
27234,15053,52709,0,0,0
27170,14993,52584,0,0,0
27095,14923,52440,0,0,0
27007,14838,52274,0,0,0
26917,14752,52097,0,0,0
26834,14678,51923,0,0,0
26748,14600,51748,0,0,0
26653,14512,51567,0,0,0
26565,14431,51394,0,0,0
26489,14367,51241,0,0,0
26416,14301,51093,0,0,0
26342,14224,50946,0,0,0
26274,14152,50811,0,0,0
26214,14094,50692,0,0,0
26152,14040,50580,0,0,0
26087,13983,50469,0,0,0
26029,13933,50370,0,0,0
25979,13893,50288,0,0,0
25933,13852,50208,0,0,0
25887,13808,50126,0,0,0
25847,13767,50050,0,0,0
25809,13728,49978,0,0,0
25764,13682,49898,0,0,0
25709,13632,49811,0,0,0
25655,13590,49727,0,0,0
25607,13554,49648,0,0,0
25558,13513,49566,0,0,0
25512,13469,49483,0,0,0
25473,13431,49405,0,0,0
25439,13397,49331,0,0,0
25399,13356,49252,0,0,0
25360,13312,49170,0,0,0
25330,13278,49099,0,0,0
25300,13249,49033,0,0,0
25261,13214,48962,0,0,0
25221,13178,48897,0,0,0
25189,13152,48851,0,0,0
25165,13132,48812,0,0,0
25142,13110,48770,0,0,0
25126,13093,48737,0,0,0
25120,13087,48727,0,0,0
25118,13085,48729,0,0,0
25115,13079,48734,0,0,0
25114,13078,48745,0,0,0
25122,13088,48768,0,0,0
25137,13101,48795,0,0,0
25150,13111,48817,0,0,0
25166,13129,48844,0,0,0
25186,13155,48882,0,0,0
25204,13179,48918,0,0,0
25218,13194,48944,0,0,0
25236,13207,48966,0,0,0
25257,13223,48988,0,0,0
25272,13230,49000,0,0,0
25272,13223,48995,0,0,0
25268,13213,48982,0,0,0
25267,13207,48971,0,0,0
25260,13195,48952,0,0,0
25244,13173,48921,0,0,0
25231,13153,48889,0,0,0
25218,13140,48858,0,0,0
25197,13122,48818,0,0,0
25172,13099,48770,0,0,0
25150,13078,48721,0,0,0
25126,13056,48671,0,0,0
25091,13024,48612,0,0,0
25047,12982,48543,0,0,0
25007,12945,48476,0,0,0
24974,12914,48413,0,0,0
24940,12879,48343,0,0,0
24907,12842,48268,0,0,0
24881,12813,48198,0,0,0
24856,12786,48133,0,0,0
24817,12744,48059,0,0,0
24767,12692,47978,0,0,0
24720,12646,47903,0,0,0
24674,12602,47826,0,0,0
24619,12553,47737,0,0,0
24565,12507,47646,0,0,0
24525,12474,47567,0,0,0
24490,12444,47493,0,0,0
24453,12406,47413,0,0,0
24418,12367,47333,0,0,0
24390,12336,47258,0,0,0
24361,12307,47186,0,0,0
24323,12271,47111,0,0,0
24282,12231,47037,0,0,0
24252,12197,46975,0,0,0
24226,12166,46919,0,0,0
24193,12133,46863,0,0,0
24162,12109,46814,0,0,0
24141,12098,46778,0,0,0
24121,12089,46745,0,0,0
24098,12073,46709,0,0,0
24080,12060,46676,0,0,0
24073,12056,46649,0,0,0
24062,12047,46616,0,0,0
24044,12026,46576,0,0,0
24030,12006,46545,0,0,0
24023,11997,46524,0,0,0
24010,11986,46501,0,0,0
23990,11968,46474,0,0,0
23971,11953,46450,0,0,0
23954,11942,46431,0,0,0
23933,11927,46407,0,0,0
23912,11910,46379,0,0,0
23896,11898,46356,0,0,0
23885,11888,46336,0,0,0
23872,11870,46307,0,0,0
23857,11848,46270,0,0,0
23849,11831,46238,0,0,0
23845,11818,46209,0,0,0
23831,11797,46178,0,0,0
23812,11776,46150,0,0,0
23797,11765,46133,0,0,0
23784,11756,46120,0,0,0
23767,11743,46097,0,0,0
23751,11732,46068,0,0,0
23745,11733,46048,0,0,0
23743,11738,46033,0,0,0
23737,11732,46012,0,0,0
23726,11722,45990,0,0,0
23718,11720,45977,0,0,0
23706,11719,45968,0,0,0
23685,11711,45952,0,0,0
23668,11706,45939,0,0,0
23658,11706,45937,0,0,0
23644,11705,45933,0,0,0
23625,11695,45920,0,0,0
23610,11685,45903,0,0,0
23606,11684,45897,0,0,0
23608,11688,45898,0,0,0
23610,11689,45902,0,0,0
23621,11701,45923,0,0,0
23654,11735,45978,0,0,0
23706,11787,46066,0,0,0
23779,11859,46195,0,0,0
23885,11962,46382,0,0,0
24029,12103,46633,0,0,0
24203,12268,46937,0,0,0
24401,12452,47290,0,0,0
24628,12663,47697,0,0,0
24883,12901,48162,0,0,0
25157,13150,48667,0,0,0
25442,13404,49195,0,0,0
25733,13663,49734,0,0,0
26021,13920,50269,0,0,0
26291,14160,50771,0,0,0
26538,14379,51231,0,0,0
26765,14581,51649,0,0,0
26970,14762,52019,0,0,0
27140,14908,52319,0,0,0
27272,15022,52552,0,0,0
27377,15119,52734,0,0,0
27451,15196,52867,0,0,0
27486,15240,52944,0,0,0
27493,15258,52972,0,0,0
27490,15264,52970,0,0,0
27477,15251,52936,0,0,0
27443,15208,52862,0,0,0
27387,15143,52754,0,0,0
27321,15076,52625,0,0,0
27243,15004,52473,0,0,0
27150,14917,52294,0,0,0
27050,14821,52104,0,0,0
26955,14733,51919,0,0,0
26860,14648,51736,0,0,0
26756,14560,51548,0,0,0
26652,14474,51367,0,0,0
26561,14396,51205,0,0,0
26478,14324,51055,0,0,0
26399,14252,50910,0,0,0
26329,14186,50776,0,0,0
26271,14132,50660,0,0,0
26217,14077,50550,0,0,0
26158,14012,50441,0,0,0
26104,13952,50340,0,0,0
26061,13910,50255,0,0,0
26017,13874,50178,0,0,0
25964,13832,50100,0,0,0
25915,13794,50028,0,0,0
25874,13765,49963,0,0,0
25830,13731,49891,0,0,0
25779,13684,49807,0,0,0
25731,13640,49722,0,0,0
25686,13602,49640,0,0,0
25634,13558,49549,0,0,0
25575,13509,49451,0,0,0
25522,13468,49364,0,0,0
25480,13438,49290,0,0,0
25440,13400,49213,0,0,0
25402,13355,49130,0,0,0
25376,13320,49056,0,0,0
25359,13294,48993,0,0,0
25338,13266,48933,0,0,0
25312,13239,48876,0,0,0
25293,13226,48836,0,0,0
25281,13220,48813,0,0,0
25266,13209,48793,0,0,0
25251,13201,48778,0,0,0
25249,13205,48781,0,0,0
25257,13214,48795,0,0,0
25262,13218,48808,0,0,0
25268,13220,48824,0,0,0
25279,13230,48853,0,0,0
25289,13240,48887,0,0,0
25295,13245,48914,0,0,0
25304,13250,48938,0,0,0
25325,13265,48976,0,0,0
25350,13286,49020,0,0,0
25366,13302,49053,0,0,0
25381,13318,49078,0,0,0
25403,13339,49105,0,0,0
25421,13354,49127,0,0,0
25427,13356,49134,0,0,0
25430,13355,49135,0,0,0
25436,13363,49140,0,0,0
25436,13368,49140,0,0,0
25423,13363,49125,0,0,0
25410,13355,49105,0,0,0
25402,13351,49083,0,0,0
25387,13342,49053,0,0,0
25362,13320,49007,0,0,0
25338,13298,48955,0,0,0
25314,13280,48903,0,0,0
25279,13253,48839,0,0,0
25236,13216,48763,0,0,0
25200,13181,48693,0,0,0
25174,13155,48634,0,0,0
25143,13122,48569,0,0,0
25107,13080,48495,0,0,0
25077,13041,48421,0,0,0
25049,13007,48353,0,0,0
25009,12964,48279,0,0,0
24960,12914,48198,0,0,0
24915,12872,48121,0,0,0
24871,12835,48048,0,0,0
24819,12794,47970,0,0,0
24766,12753,47896,0,0,0
24725,12724,47837,0,0,0
24692,12700,47785,0,0,0
24654,12668,47724,0,0,0
24615,12628,47655,0,0,0
24584,12590,47590,0,0,0
24552,12555,47524,0,0,0
24509,12517,47452,0,0,0
24465,12483,47383,0,0,0
24427,12458,47328,0,0,0
24390,12433,47276,0,0,0
24352,12398,47218,0,0,0
24319,12361,47159,0,0,0
24301,12330,47104,0,0,0
24288,12302,47048,0,0,0
24270,12273,46988,0,0,0
24251,12247,46933,0,0,0
24234,12229,46888,0,0,0
24211,12210,46837,0,0,0
24177,12184,46779,0,0,0
24140,12158,46725,0,0,0
24110,12135,46683,0,0,0
24082,12112,46645,0,0,0
24052,12085,46604,0,0,0
24028,12063,46566,0,0,0
24014,12046,46535,0,0,0
23999,12029,46504,0,0,0
23980,12008,46472,0,0,0
23965,11989,46445,0,0,0
23951,11973,46423,0,0,0
23933,11956,46397,0,0,0
23910,11936,46365,0,0,0
23890,11923,46338,0,0,0
23876,11916,46320,0,0,0
23865,11907,46298,0,0,0
23856,11898,46273,0,0,0
23852,11892,46251,0,0,0
23853,11887,46229,0,0,0
23848,11876,46198,0,0,0
23840,11861,46166,0,0,0
23835,11852,46143,0,0,0
23828,11842,46122,0,0,0
23810,11823,46092,0,0,0
23787,11803,46058,0,0,0
23771,11793,46035,0,0,0
23759,11788,46019,0,0,0
23739,11774,45993,0,0,0
23717,11756,45964,0,0,0
23704,11746,45944,0,0,0
23700,11740,45929,0,0,0
23697,11730,45911,0,0,0
23694,11724,45899,0,0,0
23699,11732,45903,0,0,0
23710,11750,45923,0,0,0
23722,11777,45957,0,0,0
23752,11819,46017,0,0,0
23812,11890,46121,0,0,0
23902,11987,46272,0,0,0
24017,12103,46469,0,0,0
24166,12250,46725,0,0,0
24357,12432,47050,0,0,0
24578,12639,47436,0,0,0
24820,12859,47869,0,0,0
25085,13098,48351,0,0,0
25371,13358,48877,0,0,0
25662,13624,49422,0,0,0
25947,13882,49963,0,0,0
26230,14139,50495,0,0,0
26506,14390,51007,0,0,0
26761,14614,51470,0,0,0
26984,14804,51870,0,0,0
27179,14972,52216,0,0,0
27344,15117,52510,0,0,0
27470,15225,52739,0,0,0
27557,15300,52905,0,0,0
27616,15358,53023,0,0,0
27652,15399,53098,0,0,0
27660,15410,53124,0,0,0
27641,15395,53103,0,0,0
27605,15370,53051,0,0,0
27553,15338,52973,0,0,0
27489,15286,52866,0,0,0
27420,15217,52736,0,0,0
27352,15147,52594,0,0,0
27279,15076,52438,0,0,0
27193,14992,52261,0,0,0
27097,14901,52073,0,0,0
26997,14813,51886,0,0,0
26890,14728,51700,0,0,0
26777,14636,51506,0,0,0
26668,14539,51315,0,0,0
26572,14448,51140,0,0,0
26479,14364,50979,0,0,0
26383,14281,50822,0,0,0
26294,14203,50679,0,0,0
26222,14137,50556,0,0,0
26160,14078,50445,0,0,0
26097,14018,50336,0,0,0
26041,13962,50231,0,0,0
25997,13915,50138,0,0,0
25955,13873,50052,0,0,0
25907,13828,49961,0,0,0
25857,13784,49870,0,0,0
25815,13747,49789,0,0,0
25777,13713,49711,0,0,0
25732,13672,49625,0,0,0
25688,13634,49541,0,0,0
25651,13603,49466,0,0,0
25613,13568,49390,0,0,0
25567,13524,49311,0,0,0
25527,13486,49238,0,0,0
25498,13456,49174,0,0,0
25471,13428,49113,0,0,0
25440,13400,49054,0,0,0
25412,13380,49008,0,0,0
25390,13368,48974,0,0,0
25368,13356,48939,0,0,0
25346,13338,48900,0,0,0
25333,13326,48871,0,0,0
25331,13323,48855,0,0,0
25327,13321,48843,0,0,0
25325,13319,48837,0,0,0
25332,13328,48848,0,0,0
25346,13343,48872,0,0,0
25353,13348,48895,0,0,0
25360,13349,48916,0,0,0
25376,13359,48945,0,0,0
25395,13374,48979,0,0,0
25409,13384,49006,0,0,0
25424,13393,49032,0,0,0
25447,13413,49069,0,0,0
25472,13434,49111,0,0,0
25493,13444,49144,0,0,0
25511,13447,49175,0,0,0
25531,13455,49208,0,0,0
25545,13462,49231,0,0,0
25546,13459,49236,0,0,0
25540,13457,49232,0,0,0
25534,13462,49225,0,0,0
25521,13463,49209,0,0,0
25497,13454,49180,0,0,0
25470,13443,49147,0,0,0
25448,13440,49119,0,0,0
25426,13436,49085,0,0,0
25398,13418,49039,0,0,0
25371,13396,48991,0,0,0
25352,13379,48948,0,0,0
25332,13357,48901,0,0,0
25305,13322,48844,0,0,0
25279,13286,48785,0,0,0
25258,13256,48724,0,0,0
25231,13223,48655,0,0,0
25192,13182,48575,0,0,0
25152,13142,48495,0,0,0
25117,13106,48421,0,0,0
25078,13065,48343,0,0,0
25034,13018,48259,0,0,0
24991,12971,48178,0,0,0
24945,12929,48103,0,0,0
24894,12883,48021,0,0,0
24841,12834,47930,0,0,0
24791,12794,47850,0,0,0
24744,12763,47783,0,0,0
24696,12730,47715,0,0,0
24651,12696,47646,0,0,0
24620,12669,47585,0,0,0
24595,12643,47526,0,0,0
24565,12609,47458,0,0,0
24532,12572,47390,0,0,0
24507,12545,47332,0,0,0
24485,12521,47277,0,0,0
24454,12493,47217,0,0,0
24419,12462,47154,0,0,0
24394,12439,47102,0,0,0
24375,12421,47059,0,0,0
24353,12399,47017,0,0,0
24333,12377,46980,0,0,0
24321,12363,46951,0,0,0
24309,12351,46922,0,0,0
24289,12334,46883,0,0,0
24271,12319,46847,0,0,0
24262,12312,46822,0,0,0
24254,12303,46799,0,0,0
24237,12286,46767,0,0,0
24221,12268,46735,0,0,0
24207,12252,46706,0,0,0
24185,12227,46671,0,0,0
24155,12193,46627,0,0,0
24128,12165,46588,0,0,0
24106,12147,46557,0,0,0
24083,12129,46522,0,0,0
24054,12104,46477,0,0,0
24027,12080,46434,0,0,0
24006,12061,46402,0,0,0
23982,12039,46370,0,0,0
23952,12013,46331,0,0,0
23927,11996,46295,0,0,0
23908,11990,46265,0,0,0
23886,11982,46230,0,0,0
23860,11967,46191,0,0,0
23839,11954,46166,0,0,0
23824,11944,46153,0,0,0
23809,11928,46137,0,0,0
23792,11907,46117,0,0,0
23780,11894,46102,0,0,0
23773,11888,46089,0,0,0
23764,11876,46067,0,0,0
23756,11859,46043,0,0,0
23758,11851,46029,0,0,0
23766,11849,46025,0,0,0
23772,11848,46028,0,0,0
23787,11857,46048,0,0,0
23827,11892,46103,0,0,0
23892,11953,46200,0,0,0
23973,12033,46337,0,0,0
24078,12138,46523,0,0,0
24221,12277,46772,0,0,0
24399,12446,47082,0,0,0
24606,12635,47440,0,0,0
24840,12848,47852,0,0,0
25098,13086,48314,0,0,0
25370,13337,48809,0,0,0
25645,13589,49316,0,0,0
25918,13846,49831,0,0,0
26181,14106,50344,0,0,0
26429,14352,50837,0,0,0
26660,14571,51289,0,0,0
26873,14767,51695,0,0,0
27068,14945,52057,0,0,0
27238,15096,52361,0,0,0
27374,15209,52594,0,0,0
27479,15292,52769,0,0,0
27560,15353,52894,0,0,0
27612,15386,52965,0,0,0
27630,15390,52986,0,0,0
27625,15376,52972,0,0,0
27605,15354,52930,0,0,0
27562,15313,52854,0,0,0
27495,15254,52742,0,0,0
27421,15186,52609,0,0,0
27344,15114,52465,0,0,0
27255,15033,52301,0,0,0
27156,14944,52120,0,0,0
27059,14862,51937,0,0,0
26965,14785,51751,0,0,0
26861,14700,51555,0,0,0
26751,14608,51357,0,0,0
26646,14522,51176,0,0,0
26549,14444,51014,0,0,0
26451,14364,50854,0,0,0
26355,14285,50698,0,0,0
26269,14217,50561,0,0,0
26197,14162,50445,0,0,0
26131,14106,50335,0,0,0
26070,14054,50232,0,0,0
26020,14013,50143,0,0,0
25978,13977,50063,0,0,0
25938,13938,49982,0,0,0
25901,13898,49901,0,0,0
25871,13861,49829,0,0,0
25844,13822,49758,0,0,0
25811,13773,49676,0,0,0
25774,13723,49590,0,0,0
25742,13682,49507,0,0,0
25709,13647,49424,0,0,0
25668,13607,49337,0,0,0
25623,13566,49256,0,0,0
25580,13529,49187,0,0,0
25532,13489,49116,0,0,0
25481,13445,49036,0,0,0
25436,13405,48959,0,0,0
25399,13373,48895,0,0,0
25360,13341,48833,0,0,0
25315,13300,48768,0,0,0
25275,13261,48708,0,0,0
25245,13234,48661,0,0,0
25217,13213,48620,0,0,0
25187,13192,48588,0,0,0
25170,13181,48575,0,0,0
25168,13186,48580,0,0,0
25170,13195,48594,0,0,0
25175,13207,48615,0,0,0
25193,13231,48650,0,0,0
25221,13267,48699,0,0,0
25248,13302,48748,0,0,0
25271,13334,48795,0,0,0
25302,13372,48850,0,0,0
25341,13412,48910,0,0,0
25377,13439,48961,0,0,0
25403,13458,49005,0,0,0
25425,13478,49049,0,0,0
25445,13497,49089,0,0,0
25456,13503,49114,0,0,0
25463,13503,49126,0,0,0
25470,13506,49133,0,0,0
25473,13505,49131,0,0,0
25462,13490,49110,0,0,0
25443,13466,49078,0,0,0
25428,13447,49044,0,0,0
25411,13426,49004,0,0,0
25382,13391,48947,0,0,0
25348,13349,48880,0,0,0
25319,13311,48814,0,0,0
25289,13273,48745,0,0,0
25249,13230,48669,0,0,0
25207,13188,48589,0,0,0
25170,13158,48513,0,0,0
25130,13131,48437,0,0,0
25084,13097,48358,0,0,0
25039,13060,48283,0,0,0
25005,13029,48218,0,0,0
24974,12999,48158,0,0,0
24938,12963,48092,0,0,0
24899,12924,48023,0,0,0
24865,12892,47958,0,0,0
24831,12861,47894,0,0,0
24792,12827,47829,0,0,0
24755,12798,47770,0,0,0
24725,12774,47719,0,0,0
24691,12744,47664,0,0,0
24652,12708,47600,0,0,0
24622,12679,47543,0,0,0
24603,12660,47499,0,0,0
24581,12639,47451,0,0,0
24554,12614,47396,0,0,0
24529,12591,47342,0,0,0
24507,12570,47286,0,0,0
24475,12539,47216,0,0,0
24438,12500,47138,0,0,0
24405,12462,47072,0,0,0
24374,12422,47013,0,0,0
24338,12377,46950,0,0,0
24300,12338,46889,0,0,0
24276,12319,46841,0,0,0
24261,12314,46800,0,0,0
24240,12304,46755,0,0,0
24214,12288,46712,0,0,0
24194,12278,46682,0,0,0
24178,12272,46658,0,0,0
24155,12259,46626,0,0,0
24132,12245,46592,0,0,0
24118,12236,46566,0,0,0
24110,12226,46544,0,0,0
24097,12207,46514,0,0,0
24082,12187,46481,0,0,0
24073,12174,46457,0,0,0
24069,12163,46437,0,0,0
24063,12147,46412,0,0,0
24053,12131,46385,0,0,0
24044,12120,46364,0,0,0
24031,12108,46343,0,0,0
24011,12092,46319,0,0,0
23994,12078,46297,0,0,0
23986,12071,46278,0,0,0
23976,12064,46258,0,0,0
23957,12051,46233,0,0,0
23937,12038,46210,0,0,0
23927,12034,46194,0,0,0
23914,12028,46178,0,0,0
23894,12010,46154,0,0,0
23877,11993,46132,0,0,0
23867,11982,46117,0,0,0
23853,11965,46098,0,0,0
23834,11943,46075,0,0,0
23821,11929,46057,0,0,0
23813,11924,46041,0,0,0
23801,11916,46018,0,0,0
23784,11902,45991,0,0,0
23770,11892,45968,0,0,0
23759,11888,45951,0,0,0
23745,11884,45929,0,0,0
23732,11879,45909,0,0,0
23727,11884,45907,0,0,0
23732,11901,45923,0,0,0
23747,11926,45952,0,0,0
23779,11965,46008,0,0,0
23839,12031,46111,0,0,0
23924,12119,46261,0,0,0
24034,12223,46455,0,0,0
24175,12352,46704,0,0,0
24354,12519,47021,0,0,0
24567,12720,47402,0,0,0
24801,12940,47828,0,0,0
25055,13178,48295,0,0,0
25335,13440,48808,0,0,0
25627,13717,49350,0,0,0
25917,13989,49893,0,0,0
26201,14251,50424,0,0,0
26477,14503,50933,0,0,0
26728,14733,51401,0,0,0
26945,14931,51813,0,0,0
27134,15103,52172,0,0,0
27300,15254,52484,0,0,0
27433,15374,52736,0,0,0
27529,15455,52918,0,0,0
27595,15506,53039,0,0,0
27640,15540,53117,0,0,0
27656,15550,53150,0,0,0
27639,15528,53133,0,0,0
27603,15492,53076,0,0,0
27557,15452,52988,0,0,0
27491,15396,52869,0,0,0
27403,15323,52721,0,0,0
27311,15248,52556,0,0,0
27220,15172,52382,0,0,0
27121,15083,52196,0,0,0
27013,14981,51998,0,0,0
26909,14884,51804,0,0,0
26812,14798,51621,0,0,0
26716,14711,51439,0,0,0
26618,14619,51260,0,0,0
26524,14534,51093,0,0,0
26434,14459,50940,0,0,0
26345,14385,50796,0,0,0
26262,14313,50662,0,0,0
26196,14254,50549,0,0,0
26141,14204,50450,0,0,0
26085,14150,50354,0,0,0
26031,14096,50261,0,0,0
25988,14056,50179,0,0,0
25952,14023,50105,0,0,0
25912,13982,50026,0,0,0
25866,13937,49943,0,0,0
25824,13899,49869,0,0,0
25782,13863,49799,0,0,0
25733,13820,49721,0,0,0
25684,13773,49636,0,0,0
25639,13728,49555,0,0,0
25592,13680,49470,0,0,0
25539,13627,49375,0,0,0
25489,13577,49283,0,0,0
25450,13539,49206,0,0,0
25416,13508,49141,0,0,0
25382,13475,49077,0,0,0
25353,13447,49018,0,0,0
25337,13430,48971,0,0,0
25322,13419,48927,0,0,0
25303,13405,48884,0,0,0
25287,13398,48850,0,0,0
25279,13401,48833,0,0,0
25273,13403,48822,0,0,0
25269,13400,48813,0,0,0
25273,13405,48819,0,0,0
25287,13425,48842,0,0,0
25303,13446,48877,0,0,0
25318,13463,48916,0,0,0
25338,13483,48963,0,0,0
25370,13506,49018,0,0,0
25404,13525,49074,0,0,0
25433,13537,49126,0,0,0
25463,13553,49177,0,0,0
25497,13576,49226,0,0,0
25527,13593,49265,0,0,0
25547,13607,49296,0,0,0
25566,13626,49332,0,0,0
25583,13645,49362,0,0,0
25589,13649,49372,0,0,0
25587,13643,49366,0,0,0
25586,13640,49356,0,0,0
