green_channel,red_channel,ir_channel,Anomaly_ch0,Anomaly_ch1,Anomaly_ch2
17921,41854,24262,0,0,0
17943,41872,24294,0,0,0
17958,41884,24314,0,0,0
17968,41890,24324,0,0,0
17973,41890,24328,0,0,0
17970,41888,24325,0,0,0
17960,41879,24315,0,0,0
17941,41863,24294,0,0,0
17915,41840,24264,0,0,0
17883,41812,24226,0,0,0
17847,41781,24181,0,0,0
17808,41746,24132,0,0,0
17764,41704,24075,0,0,0
17716,41659,24010,0,0,0
17667,41612,23938,0,0,0
17616,41563,23859,0,0,0
17562,41511,23776,0,0,0
17505,41456,23692,0,0,0
17445,41397,23604,0,0,0
17384,41337,23513,0,0,0
17322,41274,23422,0,0,0
17259,41211,23337,0,0,0
17198,41150,23256,0,0,0
17138,41090,23175,0,0,0
17079,41030,23092,0,0,0
17022,40971,23009,0,0,0
16966,40915,22926,0,0,0
16909,40865,22844,0,0,0
16852,40820,22766,0,0,0
16798,40779,22690,0,0,0
16746,40737,22617,0,0,0
16695,40692,22545,0,0,0
16644,40648,22472,0,0,0
16594,40605,22400,0,0,0
16543,40560,22327,0,0,0
16489,40511,22253,0,0,0
16435,40460,22178,0,0,0
16386,40416,22107,0,0,0
16339,40377,22040,0,0,0
16293,40340,21977,0,0,0
16247,40303,21917,0,0,0
16204,40269,21862,0,0,0
16165,40235,21811,0,0,0
16132,40202,21765,0,0,0
16103,40169,21722,0,0,0
16077,40138,21679,0,0,0
16052,40110,21635,0,0,0
16027,40084,21591,0,0,0
16004,40060,21546,0,0,0
15979,40037,21500,0,0,0
15953,40015,21454,0,0,0
15927,39993,21410,0,0,0
15899,39971,21370,0,0,0
15870,39947,21331,0,0,0
15841,39922,21291,0,0,0
15810,39898,21250,0,0,0
15777,39874,21209,0,0,0
15745,39849,21169,0,0,0
15714,39822,21127,0,0,0
15685,39792,21084,0,0,0
15656,39760,21041,0,0,0
15624,39726,20996,0,0,0
15590,39692,20951,0,0,0
15556,39656,20907,0,0,0
15521,39621,20862,0,0,0
15487,39587,20815,0,0,0
15453,39557,20769,0,0,0
15422,39530,20724,0,0,0
15394,39506,20683,0,0,0
15365,39483,20643,0,0,0
15333,39458,20603,0,0,0
15299,39430,20564,0,0,0
15267,39402,20529,0,0,0
15235,39375,20496,0,0,0
15205,39353,20463,0,0,0
15178,39335,20431,0,0,0
15154,39317,20398,0,0,0
15132,39298,20365,0,0,0
15109,39281,20332,0,0,0
15085,39264,20298,0,0,0
15059,39246,20263,0,0,0
15033,39224,20228,0,0,0
15006,39201,20192,0,0,0
14982,39179,20157,0,0,0
14961,39159,20123,0,0,0
14941,39141,20085,0,0,0
14919,39122,20043,0,0,0
14894,39099,19997,0,0,0
14869,39072,19949,0,0,0
14841,39041,19900,0,0,0
14811,39006,19851,0,0,0
14779,38973,19806,0,0,0
14747,38941,19763,0,0,0
14719,38913,19720,0,0,0
14694,38887,19678,0,0,0
14670,38861,19639,0,0,0
14647,38835,19601,0,0,0
14621,38811,19562,0,0,0
14593,38789,19523,0,0,0
14562,38767,19484,0,0,0
14531,38747,19447,0,0,0
14501,38725,19410,0,0,0
14472,38701,19372,0,0,0
14441,38675,19331,0,0,0
14405,38647,19287,0,0,0
14367,38615,19239,0,0,0
14328,38582,19188,0,0,0
14292,38547,19134,0,0,0
14257,38509,19080,0,0,0
14220,38469,19024,0,0,0
14182,38428,18966,0,0,0
14143,38389,18907,0,0,0
14102,38349,18850,0,0,0
14061,38307,18794,0,0,0
14021,38266,18736,0,0,0
13982,38228,18678,0,0,0
13944,38189,18620,0,0,0
13907,38151,18565,0,0,0
13872,38115,18514,0,0,0
13840,38084,18466,0,0,0
13810,38058,18421,0,0,0
13781,38034,18383,0,0,0
13755,38012,18348,0,0,0
13729,37989,18312,0,0,0
13702,37965,18275,0,0,0
13676,37936,18234,0,0,0
13648,37905,18192,0,0,0
13618,37875,18152,0,0,0
13585,37847,18114,0,0,0
13549,37819,18074,0,0,0
13509,37786,18031,0,0,0
13464,37751,17983,0,0,0
13415,37713,17928,0,0,0
13364,37671,17866,0,0,0
13312,37625,17802,0,0,0
13260,37575,17738,0,0,0
13208,37522,17672,0,0,0
13156,37470,17607,0,0,0
13106,37421,17545,0,0,0
13058,37371,17484,0,0,0
13011,37322,17421,0,0,0
12966,37276,17360,0,0,0
12923,37235,17302,0,0,0
12883,37198,17248,0,0,0
12845,37167,17197,0,0,0
12813,37140,17151,0,0,0
12787,37119,17109,0,0,0
12770,37105,17078,0,0,0
12766,37107,17067,0,0,0
12780,37127,17086,0,0,0
12817,37169,17144,0,0,0
12883,37237,17245,0,0,0
12982,37336,17394,0,0,0
13116,37470,17595,0,0,0
13289,37641,17847,0,0,0
13497,37844,18151,0,0,0
13737,38076,18503,0,0,0
14007,38333,18898,0,0,0
14298,38614,19332,0,0,0
14604,38913,19798,0,0,0
14923,39224,20284,0,0,0
15248,39541,20778,0,0,0
15572,39854,21270,0,0,0
15888,40159,21756,0,0,0
16194,40453,22228,0,0,0
16486,40730,22678,0,0,0
16756,40985,23099,0,0,0
17000,41214,23484,0,0,0
17218,41415,23829,0,0,0
17409,41591,24134,0,0,0
17573,41744,24401,0,0,0
17713,41873,24632,0,0,0
17828,41980,24825,0,0,0
17919,42064,24979,0,0,0
17983,42122,25096,0,0,0
18025,42154,25179,0,0,0
18046,42166,25231,0,0,0
18051,42165,25256,0,0,0
18042,42153,25258,0,0,0
18019,42131,25238,0,0,0
17988,42101,25202,0,0,0
17953,42070,25157,0,0,0
17918,42037,25104,0,0,0
17881,42004,25044,0,0,0
17843,41971,24980,0,0,0
17806,41937,24916,0,0,0
17770,41900,24852,0,0,0
17736,41863,24787,0,0,0
17703,41829,24723,0,0,0
17672,41800,24663,0,0,0
17642,41775,24611,0,0,0
17614,41752,24564,0,0,0
17585,41731,24519,0,0,0
17559,41714,24478,0,0,0
17538,41703,24440,0,0,0
17519,41695,24407,0,0,0
17503,41688,24376,0,0,0
17486,41676,24345,0,0,0
17467,41660,24310,0,0,0
17442,41637,24269,0,0,0
17412,41606,24220,0,0,0
17375,41567,24163,0,0,0
17334,41520,24098,0,0,0
17288,41467,24026,0,0,0
17239,41411,23948,0,0,0
17188,41352,23866,0,0,0
17131,41290,23779,0,0,0
17069,41227,23688,0,0,0
17008,41167,23596,0,0,0
16951,41111,23506,0,0,0
16898,41058,23419,0,0,0
16849,41009,23336,0,0,0
16802,40964,23259,0,0,0
16759,40925,23187,0,0,0
16723,40890,23122,0,0,0
16695,40862,23066,0,0,0
16674,40841,23023,0,0,0
16660,40828,22993,0,0,0
16652,40822,22975,0,0,0
16651,40822,22969,0,0,0
16658,40827,22976,0,0,0
16672,40835,22992,0,0,0
16690,40848,23016,0,0,0
16710,40867,23045,0,0,0
16734,40891,23078,0,0,0
16759,40916,23113,0,0,0
16785,40941,23149,0,0,0
16809,40962,23187,0,0,0
16831,40979,23225,0,0,0
16851,40994,23259,0,0,0
16870,41008,23289,0,0,0
16886,41020,23314,0,0,0
16898,41029,23335,0,0,0
16903,41032,23346,0,0,0
16903,41028,23347,0,0,0
16897,41022,23341,0,0,0
16884,41014,23331,0,0,0
16864,41002,23314,0,0,0
16837,40981,23286,0,0,0
16804,40954,23250,0,0,0
16766,40924,23205,0,0,0
16721,40891,23151,0,0,0
16673,40853,23089,0,0,0
16624,40812,23022,0,0,0
16574,40769,22952,0,0,0
16523,40723,22879,0,0,0
16471,40678,22803,0,0,0
16419,40632,22728,0,0,0
16368,40584,22653,0,0,0
16318,40537,22580,0,0,0
16270,40489,22506,0,0,0
16223,40443,22433,0,0,0
16177,40397,22362,0,0,0
16130,40352,22291,0,0,0
16082,40307,22221,0,0,0
16035,40263,22152,0,0,0
15989,40219,22083,0,0,0
15941,40173,22007,0,0,0
15891,40126,21924,0,0,0
15844,40079,21837,0,0,0
15800,40031,21751,0,0,0
15758,39983,21669,0,0,0
15716,39938,21593,0,0,0
15674,39893,21520,0,0,0
15629,39843,21447,0,0,0
15576,39791,21372,0,0,0
15519,39739,21296,0,0,0
15461,39688,21222,0,0,0
15406,39640,21150,0,0,0
15352,39595,21078,0,0,0
15299,39553,21005,0,0,0
15247,39511,20936,0,0,0
15198,39469,20870,0,0,0
15149,39426,20806,0,0,0
15103,39385,20746,0,0,0
15064,39349,20693,0,0,0
15033,39319,20644,0,0,0
15007,39295,20598,0,0,0
14984,39275,20555,0,0,0
14965,39259,20516,0,0,0
14950,39245,20480,0,0,0
14934,39229,20446,0,0,0
14916,39211,20414,0,0,0
14895,39191,20382,0,0,0
14874,39169,20347,0,0,0
14854,39147,20313,0,0,0
14836,39126,20282,0,0,0
14818,39106,20254,0,0,0
14800,39088,20227,0,0,0
14783,39070,20196,0,0,0
14766,39051,20163,0,0,0
14747,39032,20130,0,0,0
14725,39013,20098,0,0,0
14703,38997,20069,0,0,0
14682,38984,20042,0,0,0
14661,38969,20012,0,0,0
14637,38953,19981,0,0,0
14612,38936,19952,0,0,0
14588,38920,19924,0,0,0
14567,38905,19895,0,0,0
14548,38891,19865,0,0,0
14529,38875,19834,0,0,0
14513,38858,19807,0,0,0
14500,38843,19781,0,0,0
14486,38829,19752,0,0,0
14473,38813,19721,0,0,0
14458,38795,19689,0,0,0
14439,38776,19656,0,0,0
14415,38753,19624,0,0,0
14387,38728,19592,0,0,0
14358,38702,19559,0,0,0
14331,38675,19526,0,0,0
14307,38648,19493,0,0,0
14283,38626,19461,0,0,0
14261,38608,19426,0,0,0
14240,38590,19388,0,0,0
14217,38569,19345,0,0,0
14191,38545,19298,0,0,0
14161,38516,19247,0,0,0
14127,38482,19194,0,0,0
14090,38445,19137,0,0,0
14054,38409,19081,0,0,0
14019,38373,19026,0,0,0
13986,38339,18974,0,0,0
13949,38307,18923,0,0,0
13910,38277,18871,0,0,0
13869,38245,18818,0,0,0
13830,38210,18762,0,0,0
13791,38176,18707,0,0,0
13754,38142,18651,0,0,0
13715,38108,18595,0,0,0
13677,38073,18541,0,0,0
13638,38036,18490,0,0,0
13597,37997,18440,0,0,0
13560,37960,18391,0,0,0
13527,37926,18343,0,0,0
13493,37895,18292,0,0,0
13458,37867,18240,0,0,0
13423,37840,18188,0,0,0
13389,37813,18139,0,0,0
13357,37786,18089,0,0,0
13326,37758,18038,0,0,0
13293,37731,17988,0,0,0
13261,37703,17940,0,0,0
13230,37674,17894,0,0,0
13202,37645,17852,0,0,0
13176,37616,17811,0,0,0
13151,37586,17771,0,0,0
13127,37555,17730,0,0,0
13104,37525,17691,0,0,0
13079,37495,17651,0,0,0
13050,37466,17607,0,0,0
13022,37438,17561,0,0,0
12993,37411,17517,0,0,0
12965,37383,17475,0,0,0
12937,37353,17430,0,0,0
12909,37323,17379,0,0,0
12878,37294,17325,0,0,0
12844,37264,17268,0,0,0
12808,37229,17212,0,0,0
12770,37192,17155,0,0,0
12731,37152,17098,0,0,0
12691,37114,17040,0,0,0
12651,37076,16984,0,0,0
12611,37039,16931,0,0,0
12571,37003,16877,0,0,0
12530,36968,16823,0,0,0
12489,36934,16772,0,0,0
12448,36904,16724,0,0,0
12409,36875,16676,0,0,0
12371,36847,16629,0,0,0
12338,36817,16581,0,0,0
12308,36791,16536,0,0,0
12285,36770,16498,0,0,0
12272,36758,16471,0,0,0
12273,36759,16465,0,0,0
12292,36777,16490,0,0,0
12335,36819,16552,0,0,0
12409,36888,16656,0,0,0
12517,36989,16810,0,0,0
12661,37127,17020,0,0,0
12839,37304,17286,0,0,0
13048,37512,17602,0,0,0
13284,37744,17964,0,0,0
13544,37998,18364,0,0,0
13826,38270,18794,0,0,0
14118,38553,19241,0,0,0
14414,38840,19700,0,0,0
14713,39128,20165,0,0,0
15011,39415,20629,0,0,0
15303,39695,21086,0,0,0
15584,39963,21527,0,0,0
15851,40214,21944,0,0,0
16098,40445,22332,0,0,0
16322,40649,22686,0,0,0
16520,40827,23004,0,0,0
16693,40980,23287,0,0,0
16840,41110,23532,0,0,0
16961,41216,23741,0,0,0
17057,41302,23915,0,0,0
17131,41370,24053,0,0,0
17184,41422,24156,0,0,0
17219,41456,24226,0,0,0
17238,41474,24267,0,0,0
17242,41481,24283,0,0,0
17231,41477,24275,0,0,0
17206,41459,24245,0,0,0
17171,41430,24197,0,0,0
17129,41395,24137,0,0,0
17081,41354,24068,0,0,0
17030,41308,23992,0,0,0
16980,41262,23911,0,0,0
16930,41216,23828,0,0,0
16878,41169,23744,0,0,0
16826,41120,23658,0,0,0
16776,41068,23572,0,0,0
16727,41017,23489,0,0,0
16680,40968,23409,0,0,0
16638,40922,23337,0,0,0
16597,40878,23272,0,0,0
16558,40839,23214,0,0,0
16520,40803,23159,0,0,0
16484,40770,23107,0,0,0
16451,40736,23056,0,0,0
16419,40703,23003,0,0,0
16385,40670,22948,0,0,0
16350,40634,22890,0,0,0
16312,40596,22825,0,0,0
16270,40555,22752,0,0,0
16222,40506,22668,0,0,0
16167,40452,22575,0,0,0
16107,40392,22474,0,0,0
16041,40330,22369,0,0,0
15970,40266,22261,0,0,0
15895,40198,22153,0,0,0
15822,40130,22048,0,0,0
15752,40065,21950,0,0,0
15688,40005,21857,0,0,0
15632,39955,21774,0,0,0
15586,39915,21702,0,0,0
15551,39885,21642,0,0,0
15528,39862,21592,0,0,0
15514,39845,21556,0,0,0
15508,39834,21535,0,0,0
15509,39831,21529,0,0,0
15519,39837,21534,0,0,0
15538,39849,21550,0,0,0
15559,39867,21575,0,0,0
15583,39887,21605,0,0,0
15608,39908,21640,0,0,0
15634,39928,21679,0,0,0
15659,39948,21720,0,0,0
15684,39967,21760,0,0,0
15709,39986,21801,0,0,0
15732,40007,21843,0,0,0
15754,40030,21885,0,0,0
15773,40052,21924,0,0,0
15787,40073,21956,0,0,0
15796,40090,21982,0,0,0
15798,40101,21999,0,0,0
15796,40104,22008,0,0,0
15789,40100,22005,0,0,0
15775,40091,21995,0,0,0
15755,40077,21978,0,0,0
15731,40060,21956,0,0,0
15704,40040,21928,0,0,0
15674,40018,21890,0,0,0
15641,39992,21842,0,0,0
15605,39959,21789,0,0,0
15568,39919,21729,0,0,0
15527,39876,21663,0,0,0
15482,39830,21590,0,0,0
15433,39779,21513,0,0,0
15382,39726,21433,0,0,0
15329,39675,21349,0,0,0
15275,39624,21265,0,0,0
15219,39572,21179,0,0,0
15161,39520,21092,0,0,0
15102,39470,21008,0,0,0
15045,39422,20927,0,0,0
14990,39377,20850,0,0,0
14936,39332,20779,0,0,0
14883,39289,20711,0,0,0
14831,39244,20640,0,0,0
14782,39196,20564,0,0,0
14737,39147,20486,0,0,0
14692,39100,20410,0,0,0
14643,39056,20333,0,0,0
14591,39010,20252,0,0,0
14539,38965,20171,0,0,0
14489,38921,20090,0,0,0
14440,38876,20011,0,0,0
14395,38830,19936,0,0,0
14350,38782,19867,0,0,0
14304,38732,19800,0,0,0
14258,38681,19733,0,0,0
14211,38632,19664,0,0,0
14166,38587,19591,0,0,0
14122,38544,19521,0,0,0
14079,38505,19454,0,0,0
14038,38470,19389,0,0,0
14001,38439,19329,0,0,0
13967,38413,19272,0,0,0
13936,38388,19220,0,0,0
13908,38365,19172,0,0,0
13882,38342,19128,0,0,0
13857,38320,19090,0,0,0
13833,38299,19054,0,0,0
13812,38283,19021,0,0,0
13794,38270,18990,0,0,0
13778,38256,18961,0,0,0
13761,38238,18934,0,0,0
13743,38217,18908,0,0,0
13724,38194,18881,0,0,0
13705,38170,18853,0,0,0
13687,38148,18824,0,0,0
13670,38127,18794,0,0,0
13654,38106,18762,0,0,0
13638,38087,18728,0,0,0
13619,38065,18691,0,0,0
13597,38041,18655,0,0,0
13577,38016,18623,0,0,0
13556,37993,18592,0,0,0
13531,37970,18559,0,0,0
13506,37948,18529,0,0,0
13484,37930,18500,0,0,0
13462,37911,18473,0,0,0
13442,37895,18446,0,0,0
13423,37881,18418,0,0,0
13406,37869,18394,0,0,0
13388,37857,18370,0,0,0
13369,37847,18347,0,0,0
13351,37835,18325,0,0,0
13332,37819,18301,0,0,0
13311,37799,18272,0,0,0
13287,37777,18238,0,0,0
13262,37756,18203,0,0,0
13236,37734,18167,0,0,0
13211,37710,18130,0,0,0
13188,37686,18092,0,0,0
13165,37664,18055,0,0,0
13142,37644,18019,0,0,0
13120,37625,17985,0,0,0
13098,37604,17950,0,0,0
13076,37579,17913,0,0,0
13053,37553,17872,0,0,0
13029,37524,17828,0,0,0
13003,37491,17784,0,0,0
12977,37461,17741,0,0,0
12952,37434,17700,0,0,0
12928,37407,17657,0,0,0
12902,37377,17610,0,0,0
12872,37346,17560,0,0,0
12838,37313,17506,0,0,0
12799,37274,17448,0,0,0
12755,37231,17385,0,0,0
12708,37186,17322,0,0,0
12659,37144,17261,0,0,0
12611,37105,17204,0,0,0
12564,37069,17153,0,0,0
12521,37037,17104,0,0,0
12480,37007,17056,0,0,0
12443,36980,17010,0,0,0
12413,36958,16968,0,0,0
12389,36938,16929,0,0,0
12369,36921,16892,0,0,0
12352,36910,16859,0,0,0
12338,36904,16828,0,0,0
12325,36898,16796,0,0,0
12312,36886,16764,0,0,0
12299,36871,16732,0,0,0
12286,36852,16700,0,0,0
12271,36829,16668,0,0,0
12252,36803,16631,0,0,0
12232,36775,16591,0,0,0
12212,36747,16551,0,0,0
12189,36720,16513,0,0,0
12166,36694,16476,0,0,0
12143,36671,16443,0,0,0
12124,36653,16417,0,0,0
12117,36645,16405,0,0,0
12123,36652,16415,0,0,0
12148,36675,16453,0,0,0
12198,36718,16527,0,0,0
12273,36788,16642,0,0,0
12377,36888,16802,0,0,0
12512,37020,17007,0,0,0
12677,37182,17257,0,0,0
12869,37369,17550,0,0,0
13082,37577,17879,0,0,0
13313,37804,18238,0,0,0
13561,38045,18619,0,0,0
13821,38296,19018,0,0,0
14087,38552,19427,0,0,0
14354,38809,19838,0,0,0
14615,39060,20244,0,0,0
14867,39298,20639,0,0,0
15104,39519,21016,0,0,0
15325,39721,21368,0,0,0
15526,39903,21689,0,0,0
15705,40064,21976,0,0,0
15860,40206,22228,0,0,0
15992,40327,22446,0,0,0
16104,40427,22632,0,0,0
16194,40507,22782,0,0,0
16261,40567,22897,0,0,0
16309,40608,22977,0,0,0
16339,40634,23028,0,0,0
16351,40646,23053,0,0,0
16350,40642,23056,0,0,0
16335,40623,23037,0,0,0
16310,40593,23000,0,0,0
16275,40554,22948,0,0,0
16234,40509,22888,0,0,0
16188,40460,22820,0,0,0
16139,40410,22744,0,0,0
16091,40362,22663,0,0,0
16044,40316,22582,0,0,0
15997,40270,22500,0,0,0
15950,40223,22415,0,0,0
15903,40177,22332,0,0,0
15857,40131,22252,0,0,0
15813,40087,22174,0,0,0
15770,40049,22099,0,0,0
15728,40011,22025,0,0,0
15687,39972,21952,0,0,0
15648,39932,21880,0,0,0
15608,39890,21807,0,0,0
15565,39846,21730,0,0,0
15516,39797,21649,0,0,0
15464,39744,21562,0,0,0
15410,39689,21471,0,0,0
15353,39628,21375,0,0,0
15294,39564,21275,0,0,0
15234,39496,21172,0,0,0
15171,39426,21065,0,0,0
15104,39354,20956,0,0,0
15035,39286,20850,0,0,0
14969,39224,20750,0,0,0
14910,39168,20657,0,0,0
14860,39118,20574,0,0,0
14817,39075,20506,0,0,0
14782,39040,20452,0,0,0
14755,39013,20409,0,0,0
14736,38996,20376,0,0,0
14724,38990,20355,0,0,0
14718,38993,20344,0,0,0
14718,39003,20343,0,0,0
14722,39018,20351,0,0,0
14734,39038,20371,0,0,0
14758,39062,20408,0,0,0
14790,39093,20457,0,0,0
14827,39130,20510,0,0,0
14870,39169,20568,0,0,0
14917,39210,20629,0,0,0
14965,39253,20692,0,0,0
15012,39297,20757,0,0,0
15057,39343,20821,0,0,0
15101,39388,20882,0,0,0
15143,39429,20936,0,0,0
15176,39462,20982,0,0,0
15200,39487,21018,0,0,0
15218,39504,21046,0,0,0
15229,39513,21065,0,0,0
15232,39511,21074,0,0,0
15226,39501,21068,0,0,0
15208,39485,21048,0,0,0
15181,39459,21016,0,0,0
15148,39424,20972,0,0,0
15112,39387,20921,0,0,0
15075,39350,20869,0,0,0
15039,39312,20814,0,0,0
15001,39270,20754,0,0,0
14957,39226,20689,0,0,0
14911,39181,20620,0,0,0
14865,39137,20546,0,0,0
14817,39093,20468,0,0,0
14770,39047,20388,0,0,0
14723,39001,20310,0,0,0
14677,38956,20235,0,0,0
14630,38911,20163,0,0,0
14583,38865,20091,0,0,0
14535,38818,20019,0,0,0
14486,38773,19949,0,0,0
14437,38731,19882,0,0,0
14392,38690,19816,0,0,0
14352,38652,19751,0,0,0
14316,38614,19686,0,0,0
14281,38575,19621,0,0,0
14245,38536,19554,0,0,0
14209,38495,19486,0,0,0
14170,38451,19416,0,0,0
14125,38405,19346,0,0,0
14080,38356,19274,0,0,0
14036,38304,19199,0,0,0
13990,38252,19120,0,0,0
13942,38203,19040,0,0,0
13892,38156,18964,0,0,0
13841,38110,18891,0,0,0
13789,38066,18818,0,0,0
13739,38026,18749,0,0,0
13692,37987,18682,0,0,0
13646,37949,18617,0,0,0
13601,37912,18552,0,0,0
13559,37877,18491,0,0,0
13518,37842,18435,0,0,0
13478,37806,18380,0,0,0
13440,37772,18326,0,0,0
13405,37740,18274,0,0,0
13371,37708,18223,0,0,0
13338,37676,18173,0,0,0
13306,37645,18124,0,0,0
13276,37618,18078,0,0,0
13250,37595,18038,0,0,0
13231,37577,18005,0,0,0
13218,37562,17978,0,0,0
13210,37548,17957,0,0,0
13203,37535,17936,0,0,0
13195,37522,17914,0,0,0
13184,37509,17893,0,0,0
13172,37495,17871,0,0,0
13158,37479,17847,0,0,0
13141,37464,17823,0,0,0
13123,37449,17798,0,0,0
13103,37433,17772,0,0,0
13082,37416,17743,0,0,0
13061,37398,17711,0,0,0
13041,37380,17677,0,0,0
13019,37359,17640,0,0,0
12996,37338,17602,0,0,0
12975,37317,17564,0,0,0
12955,37295,17529,0,0,0
12937,37273,17496,0,0,0
12918,37253,17464,0,0,0
12899,37232,17430,0,0,0
12880,37213,17395,0,0,0
12860,37196,17360,0,0,0
12837,37179,17326,0,0,0
12812,37163,17293,0,0,0
12785,37145,17260,0,0,0
12761,37125,17225,0,0,0
12740,37101,17189,0,0,0
12720,37075,17152,0,0,0
12700,37049,17116,0,0,0
12679,37026,17080,0,0,0
12657,37004,17044,0,0,0
12633,36982,17009,0,0,0
12608,36957,16973,0,0,0
12578,36933,16937,0,0,0
12547,36909,16900,0,0,0
12515,36881,16863,0,0,0
12483,36852,16822,0,0,0
12453,36824,16778,0,0,0
12425,36798,16732,0,0,0
12396,36771,16685,0,0,0
12367,36743,16636,0,0,0
12339,36712,16587,0,0,0
12310,36680,16536,0,0,0
12275,36649,16484,0,0,0
12236,36619,16432,0,0,0
12194,36587,16380,0,0,0
12154,36550,16328,0,0,0
12116,36510,16276,0,0,0
12081,36469,16225,0,0,0
12050,36431,16176,0,0,0
12018,36393,16126,0,0,0
11984,36359,16073,0,0,0
11950,36329,16017,0,0,0
11917,36302,15962,0,0,0
11885,36278,15910,0,0,0
11854,36254,15862,0,0,0
11827,36231,15820,0,0,0
11805,36212,15785,0,0,0
11791,36200,15762,0,0,0
11787,36200,15756,0,0,0
11799,36215,15775,0,0,0
11832,36245,15822,0,0,0
11888,36295,15904,0,0,0
11968,36368,16027,0,0,0
12077,36468,16198,0,0,0
12215,36599,16413,0,0,0
12380,36760,16670,0,0,0
12570,36947,16966,0,0,0
12783,37157,17294,0,0,0
13016,37385,17649,0,0,0
13263,37625,18024,0,0,0
13516,37871,18413,0,0,0
13769,38118,18808,0,0,0
14020,38361,19202,0,0,0
14266,38598,19590,0,0,0
14509,38827,19971,0,0,0
14746,39048,20340,0,0,0
14970,39257,20689,0,0,0
15177,39447,21014,0,0,0
15365,39618,21309,0,0,0
15532,39770,21575,0,0,0
15678,39905,21809,0,0,0
15804,40021,22008,0,0,0
15911,40116,22172,0,0,0
15999,40192,22304,0,0,0
16066,40251,22402,0,0,0
16116,40293,22472,0,0,0
16149,40317,22515,0,0,0
16166,40324,22533,0,0,0
16167,40319,22530,0,0,0
16153,40302,22508,0,0,0
16128,40274,22470,0,0,0
16095,40236,22419,0,0,0
16059,40192,22358,0,0,0
16021,40146,22293,0,0,0
15981,40102,22226,0,0,0
15941,40061,22158,0,0,0
15899,40023,22088,0,0,0
15857,39983,22018,0,0,0
15818,39943,21952,0,0,0
15784,39904,21891,0,0,0
15753,39869,21834,0,0,0
15727,39839,21781,0,0,0
15704,39810,21732,0,0,0
15681,39783,21691,0,0,0
15658,39759,21657,0,0,0
15638,39741,21628,0,0,0
15622,39729,21601,0,0,0
15606,39716,21572,0,0,0
15586,39699,21539,0,0,0
15561,39678,21498,0,0,0
15533,39654,21449,0,0,0
15500,39628,21392,0,0,0
15464,39597,21331,0,0,0
15424,39562,21264,0,0,0
15382,39523,21193,0,0,0
15338,39482,21117,0,0,0
15294,39441,21040,0,0,0
15248,39399,20960,0,0,0
15201,39355,20881,0,0,0
15156,39311,20804,0,0,0
15114,39270,20730,0,0,0
15075,39234,20666,0,0,0
15045,39203,20610,0,0,0
15021,39177,20564,0,0,0
15002,39154,20528,0,0,0
14988,39138,20503,0,0,0
14980,39128,20491,0,0,0
14979,39126,20491,0,0,0
14986,39131,20503,0,0,0
14996,39142,20521,0,0,0
15009,39157,20543,0,0,0
15025,39173,20569,0,0,0
15045,39190,20600,0,0,0
15071,39209,20633,0,0,0
15097,39229,20665,0,0,0
15123,39248,20702,0,0,0
15150,39271,20742,0,0,0
15178,39298,20780,0,0,0
15204,39325,20814,0,0,0
15228,39349,20846,0,0,0
15249,39370,20872,0,0,0
15263,39387,20894,0,0,0
15271,39400,20909,0,0,0
15273,39407,20917,0,0,0
15269,39410,20919,0,0,0
15261,39411,20912,0,0,0
15251,39408,20896,0,0,0
15237,39397,20873,0,0,0
15215,39380,20845,0,0,0
15188,39356,20810,0,0,0
15156,39325,20770,0,0,0
15123,39290,20725,0,0,0
15089,39251,20673,0,0,0
15053,39210,20616,0,0,0
15014,39164,20554,0,0,0
14971,39118,20489,0,0,0
14927,39072,20421,0,0,0
14882,39028,20352,0,0,0
14833,38983,20281,0,0,0
14779,38937,20206,0,0,0
14724,38889,20129,0,0,0
14671,38840,20052,0,0,0
14618,38792,19975,0,0,0
14566,38745,19899,0,0,0
14517,38700,19826,0,0,0
14470,38654,19754,0,0,0
14424,38607,19680,0,0,0
14377,38558,19603,0,0,0
14331,38509,19527,0,0,0
14288,38462,19456,0,0,0
14246,38417,19388,0,0,0
14204,38374,19320,0,0,0
14161,38332,19252,0,0,0
14114,38290,19183,0,0,0
14068,38248,19116,0,0,0
14023,38208,19052,0,0,0
13980,38172,18993,0,0,0
13938,38138,18938,0,0,0
13899,38105,18884,0,0,0
13861,38075,18830,0,0,0
13827,38046,18779,0,0,0
13795,38018,18730,0,0,0
13763,37992,18684,0,0,0
13735,37969,18641,0,0,0
13710,37951,18600,0,0,0
13688,37937,18560,0,0,0
13667,37921,18519,0,0,0
13646,37901,18478,0,0,0
13625,37880,18440,0,0,0
13604,37858,18404,0,0,0
13585,37838,18371,0,0,0
13567,37817,18339,0,0,0
13549,37794,18307,0,0,0
13530,37770,18274,0,0,0
13510,37744,18240,0,0,0
13489,37717,18203,0,0,0
13468,37691,18167,0,0,0
13446,37668,18131,0,0,0
13426,37650,18096,0,0,0
13405,37638,18064,0,0,0
13382,37625,18035,0,0,0
13359,37610,18005,0,0,0
13338,37594,17974,0,0,0
13317,37574,17944,0,0,0
13296,37552,17912,0,0,0
13274,37530,17876,0,0,0
13253,37509,17839,0,0,0
13232,37489,17804,0,0,0
13211,37470,17771,0,0,0
13188,37449,17738,0,0,0
13163,37426,17705,0,0,0
13137,37399,17670,0,0,0
13110,37371,17635,0,0,0
13085,37345,17602,0,0,0
13066,37323,17572,0,0,0
13052,37305,17544,0,0,0
13042,37291,17519,0,0,0
13028,37277,17493,0,0,0
13011,37262,17465,0,0,0
12990,37248,17433,0,0,0
12968,37234,17400,0,0,0
12946,37219,17368,0,0,0
12926,37202,17335,0,0,0
12905,37185,17301,0,0,0
12884,37165,17265,0,0,0
12860,37143,17226,0,0,0
12835,37119,17186,0,0,0
12806,37094,17146,0,0,0
12773,37066,17108,0,0,0
12739,37036,17068,0,0,0
12706,37007,17024,0,0,0
12675,36980,16979,0,0,0
12646,36953,16934,0,0,0
12618,36926,16891,0,0,0
12590,36896,16847,0,0,0
12563,36866,16804,0,0,0
12535,36835,16759,0,0,0
12503,36803,16711,0,0,0
12466,36768,16662,0,0,0
12427,36733,16610,0,0,0
12386,36695,16557,0,0,0
12345,36656,16504,0,0,0
12305,36616,16451,0,0,0
12269,36577,16398,0,0,0
12235,36539,16343,0,0,0
12201,36505,16289,0,0,0
12167,36476,16236,0,0,0
12134,36450,16186,0,0,0
12103,36425,16138,0,0,0
12076,36401,16095,0,0,0
12052,36380,16055,0,0,0
12026,36358,16015,0,0,0
11998,36333,15975,0,0,0
11968,36305,15932,0,0,0
11938,36273,15886,0,0,0
11907,36240,15837,0,0,0
11874,36207,15788,0,0,0
11840,36175,15738,0,0,0
11807,36145,15688,0,0,0
11774,36117,15641,0,0,0
11741,36089,15594,0,0,0
11708,36060,15546,0,0,0
11675,36033,15499,0,0,0
11643,36005,15454,0,0,0
11612,35976,15409,0,0,0
11579,35946,15366,0,0,0
11547,35917,15322,0,0,0
11514,35887,15277,0,0,0
11483,35858,15232,0,0,0
11455,35828,15187,0,0,0
11427,35799,15144,0,0,0
11399,35772,15105,0,0,0
11370,35745,15067,0,0,0
11345,35720,15028,0,0,0
11321,35697,14991,0,0,0
11296,35676,14954,0,0,0
11273,35653,14917,0,0,0
11252,35631,14879,0,0,0
11232,35608,14840,0,0,0
11210,35585,14805,0,0,0
11185,35561,14772,0,0,0
11159,35536,14737,0,0,0
11132,35509,14703,0,0,0
11104,35484,14670,0,0,0
11076,35462,14633,0,0,0
11053,35443,14594,0,0,0
11030,35424,14554,0,0,0
11001,35402,14512,0,0,0
10969,35377,14470,0,0,0
10936,35351,14426,0,0,0
10904,35327,14381,0,0,0
10874,35304,14337,0,0,0
10847,35281,14295,0,0,0
10823,35257,14253,0,0,0
10800,35231,14214,0,0,0
10777,35204,14179,0,0,0
10755,35180,14149,0,0,0
10734,35161,14123,0,0,0
10719,35150,14109,0,0,0
10718,35153,14116,0,0,0
10736,35176,14154,0,0,0
10778,35223,14228,0,0,0
10849,35299,14347,0,0,0
10954,35408,14515,0,0,0
11094,35548,14734,0,0,0
11269,35716,15000,0,0,0
11472,35911,15308,0,0,0
11699,36128,15650,0,0,0
11947,36363,16019,0,0,0
12209,36612,16411,0,0,0
12478,36866,16817,0,0,0
12749,37123,17226,0,0,0
13019,37377,17633,0,0,0
13283,37624,18031,0,0,0
13538,37862,18418,0,0,0
13781,38086,18790,0,0,0
14012,38297,19147,0,0,0
14230,38498,19485,0,0,0
14434,38684,19799,0,0,0
14622,38853,20087,0,0,0
14789,39003,20346,0,0,0
14932,39135,20573,0,0,0
15052,39247,20764,0,0,0
15151,39341,20922,0,0,0
15230,39417,21049,0,0,0
15290,39475,21144,0,0,0
15331,39509,21210,0,0,0
15356,39526,21251,0,0,0
15370,39531,21267,0,0,0
15373,39525,21261,0,0,0
15361,39507,21236,0,0,0
15337,39481,21195,0,0,0
15303,39452,21141,0,0,0
15261,39417,21078,0,0,0
15212,39375,21007,0,0,0
15159,39327,20929,0,0,0
15104,39273,20848,0,0,0
15051,39217,20767,0,0,0
14999,39162,20686,0,0,0
14952,39107,20604,0,0,0
14910,39058,20527,0,0,0
14872,39017,20457,0,0,0
14840,38982,20393,0,0,0
14814,38952,20337,0,0,0
14794,38928,20288,0,0,0
14780,38907,20247,0,0,0
14770,38890,20212,0,0,0
14760,38876,20181,0,0,0
14748,38862,20153,0,0,0
14732,38847,20128,0,0,0
14713,38830,20098,0,0,0
14688,38810,20059,0,0,0
14656,38787,20010,0,0,0
14619,38758,19954,0,0,0
14578,38723,19891,0,0,0
14535,38684,19823,0,0,0
14492,38643,19752,0,0,0
14448,38602,19678,0,0,0
14403,38559,19606,0,0,0
14360,38515,19538,0,0,0
14324,38470,19475,0,0,0
14292,38428,19417,0,0,0
14263,38391,19366,0,0,0
14240,38363,19324,0,0,0
14223,38346,19293,0,0,0
14212,38339,19271,0,0,0
14210,38341,19261,0,0,0
14214,38351,19261,0,0,0
14225,38367,19269,0,0,0
14239,38386,19286,0,0,0
14257,38406,19309,0,0,0
14277,38428,19338,0,0,0
14301,38453,19372,0,0,0
14327,38481,19411,0,0,0
14356,38509,19453,0,0,0
14386,38537,19495,0,0,0
14414,38561,19533,0,0,0
14441,38581,19567,0,0,0
14465,38596,19597,0,0,0
14486,38607,19626,0,0,0
14502,38615,19651,0,0,0
14513,38621,19672,0,0,0
14519,38627,19687,0,0,0
14522,38631,19695,0,0,0
14519,38630,19693,0,0,0
14509,38623,19682,0,0,0
14493,38610,19665,0,0,0
14474,38594,19645,0,0,0
14450,38575,19623,0,0,0
14424,38553,19597,0,0,0
14395,38527,19565,0,0,0
14364,38498,19525,0,0,0
14329,38464,19478,0,0,0
14288,38425,19426,0,0,0
14242,38385,19371,0,0,0
14194,38345,19313,0,0,0
14143,38305,19249,0,0,0
14092,38262,19180,0,0,0
14041,38215,19108,0,0,0
13992,38166,19032,0,0,0
13943,38115,18954,0,0,0
13893,38064,18876,0,0,0
13843,38014,18800,0,0,0
13795,37964,18726,0,0,0
13748,37914,18653,0,0,0
13697,37867,18580,0,0,0
13644,37823,18510,0,0,0
13592,37781,18441,0,0,0
13542,37739,18369,0,0,0
13493,37694,18295,0,0,0
13445,37648,18221,0,0,0
13399,37603,18150,0,0,0
13352,37558,18078,0,0,0
13304,37514,18007,0,0,0
13256,37471,17937,0,0,0
13207,37427,17866,0,0,0
13155,37382,17796,0,0,0
13104,37337,17725,0,0,0
13058,37293,17658,0,0,0
13017,37253,17598,0,0,0
12978,37216,17545,0,0,0
12943,37183,17498,0,0,0
12913,37155,17457,0,0,0
12886,37131,17417,0,0,0
12860,37108,17375,0,0,0
12834,37083,17331,0,0,0
12810,37057,17290,0,0,0
12787,37033,17253,0,0,0
12766,37009,17219,0,0,0
12746,36987,17186,0,0,0
12727,36967,17153,0,0,0
12709,36950,17119,0,0,0
12689,36934,17084,0,0,0
12670,36921,17048,0,0,0
12650,36907,17011,0,0,0
12629,36892,16975,0,0,0
12609,36877,16942,0,0,0
12590,36865,16912,0,0,0
12571,36854,16883,0,0,0
12553,36841,16855,0,0,0
12535,36827,16829,0,0,0
12519,36815,16806,0,0,0
12506,36804,16785,0,0,0
12497,36793,16765,0,0,0
12489,36781,16743,0,0,0
12478,36769,16722,0,0,0
12465,36754,16703,0,0,0
12452,36737,16684,0,0,0
12441,36723,16664,0,0,0
12431,36710,16642,0,0,0
12421,36698,16618,0,0,0
12408,36684,16590,0,0,0
12392,36668,16560,0,0,0
12374,36651,16529,0,0,0
12356,36633,16499,0,0,0
12336,36613,16467,0,0,0
12315,36591,16433,0,0,0
12293,36568,16398,0,0,0
12272,36545,16365,0,0,0
12254,36523,16331,0,0,0
12234,36501,16298,0,0,0
12214,36478,16266,0,0,0
12192,36455,16232,0,0,0
12166,36429,16197,0,0,0
12140,36405,16161,0,0,0
12115,36385,16124,0,0,0
12093,36366,16084,0,0,0
12074,36348,16048,0,0,0
12055,36331,16016,0,0,0
12032,36313,15985,0,0,0
12006,36293,15951,0,0,0
11977,36270,15914,0,0,0
11946,36243,15875,0,0,0
11913,36216,15833,0,0,0
11878,36189,15788,0,0,0
11838,36159,15741,0,0,0
11799,36127,15693,0,0,0
11760,36094,15644,0,0,0
11722,36061,15594,0,0,0
11684,36027,15543,0,0,0
11645,35994,15491,0,0,0
11608,35963,15439,0,0,0
11573,35931,15387,0,0,0
11538,35899,15335,0,0,0
11506,35868,15285,0,0,0
11474,35841,15241,0,0,0
11446,35819,15201,0,0,0
11419,35798,15164,0,0,0
11392,35777,15129,0,0,0
11365,35756,15094,0,0,0
11339,35735,15058,0,0,0
11313,35713,15020,0,0,0
11288,35691,14982,0,0,0
11263,35667,14945,0,0,0
11236,35641,14907,0,0,0
11209,35611,14867,0,0,0
11180,35579,14825,0,0,0
11152,35543,14782,0,0,0
11123,35508,14737,0,0,0
11091,35474,14688,0,0,0
11056,35440,14634,0,0,0
11022,35403,14577,0,0,0
10988,35367,14518,0,0,0
10955,35331,14458,0,0,0
10920,35295,14400,0,0,0
10882,35259,14345,0,0,0
10842,35225,14291,0,0,0
10804,35193,14240,0,0,0
10771,35165,14192,0,0,0
10745,35143,14149,0,0,0
10722,35122,14109,0,0,0
10703,35100,14072,0,0,0
10685,35078,14039,0,0,0
10668,35059,14007,0,0,0
10649,35042,13975,0,0,0
10627,35025,13941,0,0,0
10603,35005,13904,0,0,0
10578,34982,13868,0,0,0
10552,34957,13833,0,0,0
10527,34929,13801,0,0,0
10503,34900,13772,0,0,0
10483,34874,13744,0,0,0
10467,34851,13721,0,0,0
10461,34838,13705,0,0,0
10469,34845,13707,0,0,0
10495,34875,13737,0,0,0
10544,34927,13800,0,0,0
10616,35003,13903,0,0,0
10714,35103,14047,0,0,0
10836,35228,14232,0,0,0
10982,35375,14456,0,0,0
11149,35545,14716,0,0,0
11334,35731,15006,0,0,0
11533,35925,15315,0,0,0
11742,36129,15639,0,0,0
11962,36344,15975,0,0,0
12187,36562,16316,0,0,0
12412,36775,16656,0,0,0
12631,36977,16989,0,0,0
12840,37167,17309,0,0,0
13040,37345,17613,0,0,0
13229,37512,17898,0,0,0
13401,37665,18162,0,0,0
13556,37805,18400,0,0,0
13697,37932,18612,0,0,0
13819,38045,18797,0,0,0
13922,38139,18957,0,0,0
14004,38216,19089,0,0,0
14068,38275,19192,0,0,0
14116,38316,19268,0,0,0
14148,38341,19320,0,0,0
14166,38353,19351,0,0,0
14173,38355,19362,0,0,0
14173,38346,19353,0,0,0
14164,38329,19330,0,0,0
14146,38306,19292,0,0,0
14119,38276,19241,0,0,0
14084,38239,19180,0,0,0
14043,38195,19107,0,0,0
13995,38145,19024,0,0,0
13942,38091,18937,0,0,0
13885,38034,18849,0,0,0
13826,37977,18762,0,0,0
13767,37920,18676,0,0,0
13710,37865,18593,0,0,0
13659,37814,18514,0,0,0
13613,37768,18441,0,0,0
13573,37723,18372,0,0,0
13536,37680,18305,0,0,0
13498,37640,18238,0,0,0
13459,37603,18169,0,0,0
13417,37563,18099,0,0,0
13372,37521,18030,0,0,0
13323,37478,17961,0,0,0
13273,37437,17890,0,0,0
13224,37395,17817,0,0,0
13175,37350,17743,0,0,0
13128,37304,17666,0,0,0
13082,37257,17586,0,0,0
13038,37208,17502,0,0,0
12994,37157,17417,0,0,0
12951,37107,17337,0,0,0
12910,37062,17264,0,0,0
12872,37023,17198,0,0,0
12839,36992,17143,0,0,0
12810,36968,17100,0,0,0
12788,36951,17070,0,0,0
12771,36941,17049,0,0,0
12759,36937,17035,0,0,0
12753,36936,17026,0,0,0
12752,36936,17028,0,0,0
12755,36937,17039,0,0,0
12761,36942,17057,0,0,0
12772,36953,17081,0,0,0
12787,36971,17113,0,0,0
12807,36992,17150,0,0,0
12832,37017,17192,0,0,0
12865,37048,17238,0,0,0
12901,37082,17289,0,0,0
12937,37117,17341,0,0,0
12970,37150,17391,0,0,0
13002,37181,17437,0,0,0
13032,37209,17480,0,0,0
13059,37237,17521,0,0,0
13081,37263,17557,0,0,0
13099,37286,17585,0,0,0
13111,37302,17604,0,0,0
13115,37307,17609,0,0,0
13110,37303,17602,0,0,0
13099,37291,17584,0,0,0
13080,37272,17559,0,0,0
13053,37245,17529,0,0,0
13022,37216,17492,0,0,0
12987,37187,17452,0,0,0
12951,37158,17410,0,0,0
12918,37127,17367,0,0,0
12885,37093,17320,0,0,0
12849,37056,17269,0,0,0
12809,37017,17214,0,0,0
12767,36976,17157,0,0,0
12723,36933,17097,0,0,0
12674,36890,17032,0,0,0
12622,36847,16962,0,0,0
12570,36805,16887,0,0,0
12519,36764,16810,0,0,0
12470,36723,16736,0,0,0
12421,36679,16665,0,0,0
12371,36632,16594,0,0,0
12319,36584,16523,0,0,0
12272,36540,16451,0,0,0
12230,36501,16381,0,0,0
12189,36461,16313,0,0,0
12145,36418,16246,0,0,0
12100,36376,16183,0,0,0
12056,36336,16123,0,0,0
12012,36295,16064,0,0,0
11970,36256,16005,0,0,0
11929,36219,15945,0,0,0
11892,36186,15887,0,0,0
11857,36156,15835,0,0,0
11825,36128,15785,0,0,0
11794,36102,15737,0,0,0
11765,36076,15688,0,0,0
11734,36046,15636,0,0,0
11698,36015,15581,0,0,0
11662,35980,15525,0,0,0
11629,35944,15470,0,0,0
11597,35908,15416,0,0,0
11568,35871,15366,0,0,0
11542,35837,15324,0,0,0
11517,35808,15286,0,0,0
11494,35784,15251,0,0,0
11474,35763,15218,0,0,0
11455,35746,15186,0,0,0
11436,35732,15155,0,0,0
11417,35719,15125,0,0,0
11397,35704,15094,0,0,0
11379,35686,15064,0,0,0
11363,35668,15035,0,0,0
11348,35650,15008,0,0,0
11332,35634,14980,0,0,0
11315,35621,14952,0,0,0
11299,35608,14923,0,0,0
11281,35593,14893,0,0,0
11261,35576,14862,0,0,0
11239,35560,14829,0,0,0
11219,35544,14796,0,0,0
11199,35526,14763,0,0,0
11178,35506,14730,0,0,0
11154,35486,14701,0,0,0
11130,35470,14672,0,0,0
11107,35456,14645,0,0,0
11085,35441,14617,0,0,0
11066,35424,14590,0,0,0
11048,35405,14564,0,0,0
11033,35388,14540,0,0,0
11023,35375,14517,0,0,0
11017,35369,14495,0,0,0
11011,35366,14470,0,0,0
11006,35364,14446,0,0,0
10999,35362,14425,0,0,0
10990,35358,14407,0,0,0
10981,35351,14386,0,0,0
10972,35343,14363,0,0,0
10963,35333,14339,0,0,0
10950,35320,14315,0,0,0
10931,35302,14290,0,0,0
10908,35283,14265,0,0,0
10885,35264,14240,0,0,0
10863,35241,14211,0,0,0
10841,35217,14179,0,0,0
10818,35193,14144,0,0,0
10794,35171,14110,0,0,0
10768,35150,14075,0,0,0
10741,35130,14040,0,0,0
10716,35109,14005,0,0,0
10692,35085,13969,0,0,0
10668,35060,13935,0,0,0
10643,35035,13901,0,0,0
10617,35010,13866,0,0,0
10591,34982,13829,0,0,0
10564,34952,13785,0,0,0
10534,34920,13735,0,0,0
10502,34884,13683,0,0,0
10468,34844,13628,0,0,0
10431,34801,13569,0,0,0
10392,34759,13510,0,0,0
10352,34719,13453,0,0,0
10315,34681,13398,0,0,0
10277,34645,13345,0,0,0
10242,34609,13292,0,0,0
10211,34575,13244,0,0,0
10183,34543,13200,0,0,0
10155,34514,13158,0,0,0
10127,34486,13118,0,0,0
10097,34460,13078,0,0,0
10066,34436,13035,0,0,0
10034,34415,12993,0,0,0
10000,34398,12954,0,0,0
9969,34383,12918,0,0,0
9944,34368,12889,0,0,0
9928,34354,12868,0,0,0
9922,34348,12859,0,0,0
9931,34355,12870,0,0,0
9961,34384,12910,0,0,0
10014,34437,12982,0,0,0
10092,34513,13092,0,0,0
10195,34612,13241,0,0,0
10320,34735,13429,0,0,0
10469,34880,13657,0,0,0
10640,35043,13918,0,0,0
10829,35225,14209,0,0,0
11037,35422,14524,0,0,0
11256,35628,14856,0,0,0
11481,35840,15199,0,0,0
11707,36054,15546,0,0,0
11934,36265,15893,0,0,0
12159,36467,16233,0,0,0
12379,36661,16559,0,0,0
12590,36847,16872,0,0,0
12790,37025,17166,0,0,0
12970,37191,17441,0,0,0
13131,37344,17693,0,0,0
13274,37479,17919,0,0,0
13398,37595,18113,0,0,0
13503,37688,18275,0,0,0
13589,37761,18406,0,0,0
13656,37815,18507,0,0,0
13702,37849,18581,0,0,0
13729,37866,18628,0,0,0
13738,37865,18652,0,0,0
13733,37851,18652,0,0,0
13715,37828,18632,0,0,0
13687,37798,18597,0,0,0
13652,37764,18554,0,0,0
13612,37728,18504,0,0,0
13569,37688,18451,0,0,0
13524,37649,18394,0,0,0
13477,37611,18335,0,0,0
13432,37574,18274,0,0,0
13390,37536,18213,0,0,0
13353,37502,18155,0,0,0
13319,37475,18101,0,0,0
13288,37449,18049,0,0,0
13260,37424,17997,0,0,0
13237,37401,17946,0,0,0
13216,37379,17899,0,0,0
13197,37359,17855,0,0,0
13181,37342,17815,0,0,0
13164,37326,17778,0,0,0
13145,37311,17743,0,0,0
13122,37295,17705,0,0,0
13093,37275,17660,0,0,0
13059,37249,17607,0,0,0
13019,37215,17549,0,0,0
12972,37173,17486,0,0,0
12917,37123,17414,0,0,0
12858,37067,17335,0,0,0
12798,37008,17252,0,0,0
12739,36948,17167,0,0,0
12681,36888,17081,0,0,0
12623,36828,16997,0,0,0
12567,36772,16919,0,0,0
12514,36720,16846,0,0,0
12465,36672,16777,0,0,0
12420,36628,16711,0,0,0
12380,36589,16653,0,0,0
12344,36556,16606,0,0,0
12315,36531,16569,0,0,0
12293,36514,16542,0,0,0
12277,36505,16522,0,0,0
12265,36502,16509,0,0,0
12261,36501,16504,0,0,0
12264,36508,16507,0,0,0
12273,36522,16521,0,0,0
12288,36541,16545,0,0,0
12309,36564,16577,0,0,0
12332,36590,16615,0,0,0
12356,36615,16655,0,0,0
12381,36639,16694,0,0,0
12404,36661,16730,0,0,0
12426,36680,16761,0,0,0
12446,36699,16790,0,0,0
12464,36716,16815,0,0,0
12479,36729,16837,0,0,0
12490,36739,16857,0,0,0
12496,36746,16871,0,0,0
12496,36751,16880,0,0,0
12491,36750,16881,0,0,0
12482,36743,16873,0,0,0
12465,36728,16856,0,0,0
12444,36708,16828,0,0,0
12418,36684,16789,0,0,0
12386,36654,16738,0,0,0
12348,36619,16679,0,0,0
12305,36578,16616,0,0,0
12257,36535,16554,0,0,0
12208,36493,16492,0,0,0
12161,36453,16431,0,0,0
12115,36414,16372,0,0,0
12071,36377,16313,0,0,0
12027,36340,16253,0,0,0
11983,36300,16191,0,0,0
11939,36257,16126,0,0,0
11898,36214,16058,0,0,0
11857,36172,15989,0,0,0
11816,36133,15923,0,0,0
11775,36096,15859,0,0,0
11735,36060,15796,0,0,0
11696,36026,15734,0,0,0
11657,35993,15672,0,0,0
11617,35959,15609,0,0,0
11573,35924,15549,0,0,0
11528,35887,15491,0,0,0
11482,35850,15432,0,0,0
11439,35814,15376,0,0,0
11400,35781,15322,0,0,0
11362,35748,15268,0,0,0
11326,35713,15211,0,0,0
11290,35676,15150,0,0,0
11252,35639,15090,0,0,0
11215,35600,15030,0,0,0
11177,35561,14972,0,0,0
11141,35524,14917,0,0,0
11107,35491,14864,0,0,0
11076,35462,14816,0,0,0
11047,35435,14772,0,0,0
11020,35412,14732,0,0,0
10997,35395,14693,0,0,0
10976,35383,14654,0,0,0
10957,35370,14615,0,0,0
10940,35353,14576,0,0,0
10923,35334,14540,0,0,0
10902,35312,14505,0,0,0
10880,35288,14471,0,0,0
10858,35264,14437,0,0,0
10836,35242,14401,0,0,0
10815,35221,14367,0,0,0
10796,35200,14337,0,0,0
10777,35179,14310,0,0,0
10756,35157,14285,0,0,0
10735,35136,14256,0,0,0
10714,35114,14225,0,0,0
10694,35094,14194,0,0,0
10677,35077,14169,0,0,0
10663,35063,14148,0,0,0
10651,35052,14126,0,0,0
10638,35043,14103,0,0,0
10624,35038,14080,0,0,0
10611,35030,14055,0,0,0
10600,35017,14028,0,0,0
10590,35000,14001,0,0,0
10576,34982,13974,0,0,0
10559,34966,13945,0,0,0
10542,34950,13916,0,0,0
10528,34935,13885,0,0,0
10514,34921,13856,0,0,0
10498,34908,13828,0,0,0
10478,34895,13800,0,0,0
10457,34881,13773,0,0,0
10435,34866,13744,0,0,0
10414,34849,13712,0,0,0
10392,34829,13679,0,0,0
10368,34809,13645,0,0,0
10342,34789,13612,0,0,0
10317,34770,13578,0,0,0
10293,34751,13545,0,0,0
10271,34730,13511,0,0,0
10250,34706,13475,0,0,0
10228,34679,13436,0,0,0
10203,34652,13398,0,0,0
10178,34630,13362,0,0,0
10152,34610,13327,0,0,0
10125,34592,13290,0,0,0
10098,34575,13254,0,0,0
10074,34557,13220,0,0,0
10051,34536,13189,0,0,0
10027,34515,13159,0,0,0
10002,34493,13128,0,0,0
9978,34470,13094,0,0,0
9955,34445,13059,0,0,0
9932,34422,13021,0,0,0
9913,34402,12983,0,0,0
9895,34382,12946,0,0,0
9874,34359,12907,0,0,0
9850,34332,12868,0,0,0
9823,34304,12831,0,0,0
9795,34278,12793,0,0,0
9768,34256,12753,0,0,0
9742,34236,12713,0,0,0
9715,34213,12674,0,0,0
9687,34185,12632,0,0,0
9657,34154,12587,0,0,0
9628,34122,12540,0,0,0
9599,34091,12494,0,0,0
9565,34060,12449,0,0,0
9529,34028,12402,0,0,0
9492,33998,12354,0,0,0
9456,33967,12306,0,0,0
9423,33939,12259,0,0,0
9392,33916,12214,0,0,0
9364,33898,12174,0,0,0
9336,33881,12138,0,0,0
9310,33864,12105,0,0,0
9285,33848,12074,0,0,0
9261,33832,12044,0,0,0
9238,33816,12014,0,0,0
9218,33800,11985,0,0,0
9205,33785,11958,0,0,0
9197,33772,11936,0,0,0
9193,33765,11921,0,0,0
9198,33764,11916,0,0,0
9216,33774,11929,0,0,0
9252,33799,11965,0,0,0
9307,33845,12032,0,0,0
9383,33915,12135,0,0,0
9484,34010,12278,0,0,0
9610,34130,12462,0,0,0
9760,34274,12687,0,0,0
9935,34441,12950,0,0,0
10132,34628,13249,0,0,0
10347,34831,13579,0,0,0
10576,35048,13933,0,0,0
10815,35273,14300,0,0,0
11057,35500,14672,0,0,0
11299,35725,15043,0,0,0
11538,35947,15409,0,0,0
11773,36164,15767,0,0,0
12002,36375,16114,0,0,0
12220,36577,16447,0,0,0
12426,36765,16760,0,0,0
12613,36935,17050,0,0,0
12780,37088,17312,0,0,0
12926,37219,17543,0,0,0
13049,37329,17740,0,0,0
13151,37416,17901,0,0,0
13231,37480,18029,0,0,0
13291,37525,18128,0,0,0
13333,37555,18197,0,0,0
13359,37572,18239,0,0,0
13371,37579,18258,0,0,0
13369,37574,18254,0,0,0
13354,37561,18231,0,0,0
13330,37540,18197,0,0,0
13302,37512,18153,0,0,0
13271,37481,18104,0,0,0
13238,37447,18048,0,0,0
13201,37410,17987,0,0,0
13163,37373,17925,0,0,0
13124,37336,17865,0,0,0
13085,37301,17807,0,0,0
13047,37269,17750,0,0,0
13013,37240,17693,0,0,0
12982,37213,17639,0,0,0
12955,37189,17586,0,0,0
12930,37168,17536,0,0,0
12908,37148,17491,0,0,0
12885,37128,17452,0,0,0
12861,37108,17417,0,0,0
12838,37085,17383,0,0,0
12813,37058,17346,0,0,0
12783,37029,17305,0,0,0
12750,36997,17257,0,0,0
12714,36964,17203,0,0,0
12675,36929,17145,0,0,0
12636,36893,17086,0,0,0
12595,36856,17022,0,0,0
12552,36818,16951,0,0,0
12508,36780,16877,0,0,0
12462,36740,16805,0,0,0
12418,36701,16735,0,0,0
12376,36665,16669,0,0,0
12338,36630,16608,0,0,0
12307,36598,16552,0,0,0
12281,36569,16503,0,0,0
12261,36545,16463,0,0,0
12248,36528,16434,0,0,0
12243,36518,16413,0,0,0
12241,36514,16402,0,0,0
12244,36517,16398,0,0,0
12251,36521,16399,0,0,0
12262,36526,16405,0,0,0
12276,36531,16415,0,0,0
12292,36536,16428,0,0,0
12309,36542,16445,0,0,0
12324,36552,16467,0,0,0
12337,36568,16490,0,0,0
12350,36590,16515,0,0,0
12366,36614,16541,0,0,0
12383,36637,16567,0,0,0
12397,36657,16593,0,0,0
12409,36672,16621,0,0,0
12418,36684,16648,0,0,0
12426,36696,16671,0,0,0
12432,36707,16687,0,0,0
12435,36716,16698,0,0,0
12434,36721,16704,0,0,0
12430,36721,16704,0,0,0
12421,36714,16695,0,0,0
12410,36700,16678,0,0,0
12398,36682,16658,0,0,0
12382,36661,16635,0,0,0
12363,36639,16605,0,0,0
12342,36618,16571,0,0,0
12320,36595,16535,0,0,0
12295,36569,16496,0,0,0
12266,36541,16454,0,0,0
12233,36509,16409,0,0,0
12199,36475,16360,0,0,0
12163,36441,16307,0,0,0
12124,36406,16253,0,0,0
12085,36370,16197,0,0,0
12046,36333,16140,0,0,0
12008,36296,16080,0,0,0
11967,36258,16019,0,0,0
11925,36220,15956,0,0,0
11881,36181,15891,0,0,0
11833,36139,15820,0,0,0
11785,36097,15745,0,0,0
11737,36056,15670,0,0,0
11691,36015,15600,0,0,0
11647,35976,15535,0,0,0
11606,35939,15473,0,0,0
11565,35904,15411,0,0,0
11523,35868,15348,0,0,0
11481,35829,15285,0,0,0
11440,35790,15225,0,0,0
11402,35753,15166,0,0,0
11367,35718,15109,0,0,0
11335,35686,15057,0,0,0
11304,35657,15009,0,0,0
11275,35628,14963,0,0,0
11245,35598,14917,0,0,0
11213,35569,14869,0,0,0
11182,35541,14824,0,0,0
11151,35515,14780,0,0,0
11121,35488,14736,0,0,0
11090,35462,14690,0,0,0
11062,35434,14644,0,0,0
11035,35405,14600,0,0,0
11006,35376,14558,0,0,0
10975,35346,14516,0,0,0
10941,35316,14475,0,0,0
10906,35288,14434,0,0,0
10876,35264,14392,0,0,0
10852,35242,14353,0,0,0
10833,35225,14316,0,0,0
10817,35213,14281,0,0,0
10802,35204,14249,0,0,0
10788,35196,14220,0,0,0
10773,35188,14197,0,0,0
10758,35176,14177,0,0,0
10740,35160,14155,0,0,0
10722,35143,14131,0,0,0
10706,35124,14108,0,0,0
10694,35105,14084,0,0,0
10682,35088,14062,0,0,0
10671,35074,14042,0,0,0
10662,35063,14023,0,0,0
10653,35051,14004,0,0,0
10640,35038,13983,0,0,0
10624,35029,13962,0,0,0
10610,35021,13941,0,0,0
10597,35013,13916,0,0,0
10584,35001,13889,0,0,0
10572,34987,13860,0,0,0
10561,34973,13831,0,0,0
10551,34960,13805,0,0,0
10539,34946,13779,0,0,0
10520,34930,13752,0,0,0
10497,34913,13721,0,0,0
10472,34894,13688,0,0,0
10447,34870,13655,0,0,0
10422,34845,13621,0,0,0
10397,34821,13587,0,0,0
10372,34797,13553,0,0,0
10347,34774,13518,0,0,0
10323,34754,13483,0,0,0
10299,34734,13447,0,0,0
10275,34713,13408,0,0,0
10249,34689,13369,0,0,0
10222,34664,13333,0,0,0
10196,34641,13298,0,0,0
10171,34618,13264,0,0,0
10147,34594,13228,0,0,0
10120,34571,13191,0,0,0
10093,34549,13152,0,0,0
10068,34528,13115,0,0,0
10044,34505,13078,0,0,0
10022,34481,13038,0,0,0
10000,34456,12995,0,0,0
9977,34432,12952,0,0,0
9953,34410,12910,0,0,0
9930,34390,12872,0,0,0
9907,34373,12837,0,0,0
9885,34357,12805,0,0,0
9863,34340,12772,0,0,0
9843,34323,12741,0,0,0
9826,34306,12710,0,0,0
9809,34288,12679,0,0,0
9792,34269,12645,0,0,0
9774,34249,12608,0,0,0
9755,34228,12570,0,0,0
9731,34202,12533,0,0,0
9705,34173,12498,0,0,0
9677,34142,12465,0,0,0
9650,34113,12430,0,0,0
9623,34087,12393,0,0,0
9596,34061,12353,0,0,0
9566,34035,12312,0,0,0
9534,34008,12270,0,0,0
9500,33979,12228,0,0,0
9464,33946,12182,0,0,0
9428,33911,12133,0,0,0
9393,33877,12083,0,0,0
9361,33848,12037,0,0,0
9331,33822,11997,0,0,0
9298,33799,11958,0,0,0
9267,33776,11919,0,0,0
9239,33752,11880,0,0,0
9212,33728,11841,0,0,0
9186,33706,11804,0,0,0
9162,33686,11766,0,0,0
9138,33664,11729,0,0,0
9116,33643,11694,0,0,0
9094,33623,11662,0,0,0
9071,33602,11630,0,0,0
9048,33581,11598,0,0,0
9029,33564,11569,0,0,0
9018,33556,11552,0,0,0
9018,33559,11554,0,0,0
9034,33575,11578,0,0,0
9071,33609,11627,0,0,0
9132,33668,11708,0,0,0
9220,33753,11827,0,0,0
9333,33865,11988,0,0,0
9474,34003,12193,0,0,0
9642,34165,12437,0,0,0
9832,34347,12715,0,0,0
10040,34543,13023,0,0,0
10265,34754,13355,0,0,0
10502,34977,13707,0,0,0
10748,35207,14074,0,0,0
10998,35440,14448,0,0,0
11246,35670,14826,0,0,0
11488,35895,15200,0,0,0
11721,36110,15565,0,0,0
11942,36313,15915,0,0,0
12150,36504,16246,0,0,0
12347,36684,16554,0,0,0
12528,36851,16839,0,0,0
12691,37000,17098,0,0,0
12833,37129,17325,0,0,0
12954,37240,17518,0,0,0
13054,37332,17681,0,0,0
13135,37405,17813,0,0,0
13199,37457,17916,0,0,0
13244,37491,17987,0,0,0
13269,37510,18030,0,0,0
13279,37516,18048,0,0,0
13281,37513,18048,0,0,0
13276,37501,18035,0,0,0
13262,37481,18007,0,0,0
13238,37456,17967,0,0,0
13210,37427,17919,0,0,0
13179,37395,17865,0,0,0
13144,37362,17805,0,0,0
13103,37326,17742,0,0,0
13057,37289,17678,0,0,0
13010,37252,17614,0,0,0
12965,37215,17551,0,0,0
12926,37180,17490,0,0,0
12894,37149,17435,0,0,0
12864,37123,17386,0,0,0
12838,37101,17342,0,0,0
12819,37079,17302,0,0,0
12805,37058,17267,0,0,0
12793,37036,17235,0,0,0
12779,37015,17203,0,0,0
12764,36993,17171,0,0,0
12746,36971,17137,0,0,0
12724,36947,17100,0,0,0
12697,36921,17059,0,0,0
12668,36894,17011,0,0,0
12637,36865,16957,0,0,0
12602,36833,16898,0,0,0
12565,36797,16835,0,0,0
12528,36762,16772,0,0,0
12490,36726,16707,0,0,0
12449,36687,16641,0,0,0
12408,36646,16577,0,0,0
12370,36606,16517,0,0,0
12335,36571,16459,0,0,0
12303,36540,16406,0,0,0
12276,36515,16362,0,0,0
12255,36496,16328,0,0,0
12238,36481,16303,0,0,0
12227,36470,16287,0,0,0
12223,36465,16278,0,0,0
12224,36465,16278,0,0,0
12232,36469,16288,0,0,0
12244,36476,16302,0,0,0
12257,36487,16323,0,0,0
12275,36502,16350,0,0,0
12296,36519,16382,0,0,0
12319,36538,16417,0,0,0
12343,36558,16454,0,0,0
12365,36579,16490,0,0,0
12387,36600,16525,0,0,0
12408,36620,16559,0,0,0
12425,36639,16591,0,0,0
12440,36657,16621,0,0,0
12452,36672,16647,0,0,0
12460,36684,16669,0,0,0
12465,36693,16686,0,0,0
12467,36699,16695,0,0,0
12466,36702,16696,0,0,0
12462,36703,16693,0,0,0
12454,36702,16687,0,0,0
12446,36699,16678,0,0,0
12438,36691,16665,0,0,0
12429,36679,16645,0,0,0
12414,36666,16618,0,0,0
12394,36650,16584,0,0,0
12368,36630,16546,0,0,0
12337,36603,16504,0,0,0
12301,36568,16457,0,0,0
12261,36528,16404,0,0,0
12216,36485,16343,0,0,0
12168,36443,16278,0,0,0
12120,36400,16212,0,0,0
12072,36356,16147,0,0,0
12024,36311,16082,0,0,0
11978,36267,16019,0,0,0
11932,36226,15956,0,0,0
11890,36188,15891,0,0,0
11851,36151,15826,0,0,0
11810,36116,15763,0,0,0
11769,36083,15706,0,0,0
11730,36053,15653,0,0,0
11694,36023,15601,0,0,0
11662,35994,15549,0,0,0
11631,35964,15495,0,0,0
11600,35933,15441,0,0,0
11566,35901,15387,0,0,0
11530,35866,15331,0,0,0
11496,35829,15275,0,0,0
11463,35791,15219,0,0,0
11429,35754,15162,0,0,0
11392,35717,15106,0,0,0
11355,35679,15051,0,0,0
11320,35642,14997,0,0,0
11285,35606,14945,0,0,0
11252,35576,14896,0,0,0
11219,35549,14853,0,0,0
11187,35523,14814,0,0,0
11156,35498,14777,0,0,0
11128,35473,14740,0,0,0
11103,35452,14704,0,0,0
11078,35433,14667,0,0,0
11052,35416,14627,0,0,0
11027,35398,14585,0,0,0
11002,35377,14546,0,0,0
10979,35356,14515,0,0,0
10959,35337,14490,0,0,0
10943,35319,14467,0,0,0
10932,35302,14442,0,0,0
10924,35285,14416,0,0,0
10916,35272,14394,0,0,0
10910,35261,14376,0,0,0
10903,35252,14361,0,0,0
10895,35241,14346,0,0,0
10886,35229,14328,0,0,0
10876,35218,14308,0,0,0
10863,35206,14287,0,0,0
10849,35192,14266,0,0,0
10830,35175,14245,0,0,0
10808,35160,14221,0,0,0
10782,35143,14194,0,0,0
10754,35126,14165,0,0,0
10728,35110,14135,0,0,0
10705,35094,14104,0,0,0
10682,35077,14071,0,0,0
10658,35058,14037,0,0,0
10633,35038,14001,0,0,0
10608,35018,13968,0,0,0
10585,34997,13935,0,0,0
10563,34975,13904,0,0,0
10544,34955,13877,0,0,0
10530,34940,13852,0,0,0
10517,34928,13827,0,0,0
10504,34920,13802,0,0,0
10492,34913,13777,0,0,0
10481,34906,13753,0,0,0
10466,34897,13727,0,0,0
10449,34883,13698,0,0,0
10431,34867,13668,0,0,0
10414,34850,13638,0,0,0
10399,34832,13612,0,0,0
10385,34814,13589,0,0,0
10370,34796,13566,0,0,0
10351,34777,13542,0,0,0
10330,34758,13515,0,0,0
10304,34738,13485,0,0,0
10275,34715,13453,0,0,0
10245,34691,13418,0,0,0
10218,34669,13381,0,0,0
10193,34648,13342,0,0,0
10171,34626,13303,0,0,0
10152,34602,13265,0,0,0
10133,34579,13226,0,0,0
10110,34552,13185,0,0,0
10082,34522,13142,0,0,0
10054,34494,13100,0,0,0
10026,34469,13059,0,0,0
9997,34447,13020,0,0,0
9968,34424,12983,0,0,0
9939,34399,12945,0,0,0
9910,34373,12907,0,0,0
9882,34351,12871,0,0,0
9857,34333,12839,0,0,0
9834,34313,12808,0,0,0
9811,34292,12775,0,0,0
9788,34272,12740,0,0,0
9765,34251,12705,0,0,0
9741,34228,12672,0,0,0
9719,34204,12640,0,0,0
9701,34181,12608,0,0,0
9685,34157,12575,0,0,0
9669,34134,12543,0,0,0
9652,34112,12510,0,0,0
9635,34091,12478,0,0,0
9618,34070,12449,0,0,0
9604,34053,12428,0,0,0
9595,34044,12418,0,0,0
9594,34048,12419,0,0,0
9606,34067,12437,0,0,0
9635,34104,12480,0,0,0
9686,34162,12557,0,0,0
9763,34241,12670,0,0,0
9869,34342,12821,0,0,0
10000,34466,13008,0,0,0
10155,34612,13230,0,0,0
10330,34778,13484,0,0,0
10527,34961,13768,0,0,0
10742,35159,14077,0,0,0
10971,35368,14405,0,0,0
11209,35586,14748,0,0,0
11447,35808,15100,0,0,0
11680,36028,15457,0,0,0
11909,36240,15812,0,0,0
12131,36444,16159,0,0,0
12345,36639,16492,0,0,0
12547,36821,16805,0,0,0
12734,36991,17094,0,0,0
12903,37145,17353,0,0,0
13054,37277,17582,0,0,0
13184,37386,17778,0,0,0
13288,37475,17941,0,0,0
13368,37547,18073,0,0,0
13428,37603,18178,0,0,0
13470,37642,18256,0,0,0
13498,37665,18306,0,0,0
13514,37674,18330,0,0,0
13519,37671,18332,0,0,0
13513,37657,18316,0,0,0
13498,37637,18285,0,0,0
13476,37609,18240,0,0,0
13446,37574,18184,0,0,0
13406,37531,18119,0,0,0
13360,37484,18044,0,0,0
13311,37437,17962,0,0,0
13261,37389,17879,0,0,0
13209,37343,17797,0,0,0
13157,37300,17722,0,0,0
13109,37260,17655,0,0,0
13064,37223,17591,0,0,0
13024,37191,17528,0,0,0
12990,37164,17470,0,0,0
12963,37139,17416,0,0,0
12940,37115,17366,0,0,0
12917,37091,17320,0,0,0
12894,37067,17277,0,0,0
12869,37043,17232,0,0,0
12841,37016,17183,0,0,0
12806,36983,17130,0,0,0
12767,36945,17072,0,0,0
12723,36902,17006,0,0,0
12675,36853,16933,0,0,0
12624,36801,16854,0,0,0
12572,36747,16770,0,0,0
12518,36692,16684,0,0,0
12459,36638,16598,0,0,0
12400,36584,16516,0,0,0
12346,36534,16443,0,0,0
12300,36493,16381,0,0,0
12265,36462,16330,0,0,0
12238,36441,16290,0,0,0
12222,36428,16263,0,0,0
12216,36424,16249,0,0,0
12218,36431,16249,0,0,0
12228,36447,16262,0,0,0
12245,36469,16288,0,0,0
12271,36495,16324,0,0,0
12303,36525,16367,0,0,0
12337,36557,16414,0,0,0
12373,36591,16463,0,0,0
12409,36623,16514,0,0,0
12446,36655,16567,0,0,0
12483,36687,16619,0,0,0
12519,36719,16671,0,0,0
12554,36749,16721,0,0,0
12584,36775,16766,0,0,0
12612,36799,16810,0,0,0
12636,36820,16852,0,0,0
12656,36838,16887,0,0,0
12670,36852,16912,0,0,0
12677,36861,16925,0,0,0
12678,36864,16928,0,0,0
12671,36859,16919,0,0,0
12657,36846,16904,0,0,0
12635,36828,16882,0,0,0
12607,36805,16851,0,0,0
12572,36775,16810,0,0,0
12533,36740,16763,0,0,0
12491,36703,16713,0,0,0
12451,36665,16664,0,0,0
12412,36627,16615,0,0,0
12374,36587,16566,0,0,0
12338,36548,16516,0,0,0
12301,36511,16463,0,0,0
12264,36475,16406,0,0,0
12228,36437,16345,0,0,0
12190,36397,16280,0,0,0
12151,36356,16215,0,0,0
12111,36314,16149,0,0,0
12069,36274,16083,0,0,0
12027,36238,16015,0,0,0
11985,36202,15950,0,0,0
11941,36166,15887,0,0,0
11898,36130,15826,0,0,0
11859,36096,15765,0,0,0
11821,36064,15705,0,0,0
11783,36034,15647,0,0,0
11744,36005,15592,0,0,0
11708,35979,15539,0,0,0
11674,35955,15487,0,0,0
11641,35931,15437,0,0,0
11607,35905,15384,0,0,0
11571,35874,15327,0,0,0
11533,35839,15269,0,0,0
11496,35800,15211,0,0,0
11458,35763,15156,0,0,0
11421,35725,15099,0,0,0
11384,35686,15042,0,0,0
11348,35645,14985,0,0,0
11312,35604,14931,0,0,0
11278,35567,14882,0,0,0
11247,35535,14837,0,0,0
11220,35508,14796,0,0,0
11196,35486,14759,0,0,0
11175,35465,14723,0,0,0
11156,35442,14688,0,0,0
11140,35419,14653,0,0,0
11125,35398,14620,0,0,0
11110,35381,14588,0,0,0
11094,35368,14556,0,0,0
11076,35355,14526,0,0,0
11057,35340,14498,0,0,0
11038,35324,14471,0,0,0
11019,35306,14445,0,0,0
11001,35292,14420,0,0,0
10985,35282,14400,0,0,0
10971,35273,14382,0,0,0
10960,35265,14364,0,0,0
10949,35258,14345,0,0,0
10940,35253,14326,0,0,0
10934,35248,14307,0,0,0
10926,35242,14288,0,0,0
10914,35234,14269,0,0,0
10901,35222,14247,0,0,0
10887,35206,14223,0,0,0
10872,35188,14196,0,0,0
10857,35172,14172,0,0,0
10844,35158,14155,0,0,0
10833,35145,14143,0,0,0
10824,35134,14132,0,0,0
10814,35123,14119,0,0,0
10805,35113,14105,0,0,0
10795,35104,14088,0,0,0
10784,35095,14068,0,0,0
10773,35087,14045,0,0,0
10761,35076,14018,0,0,0
10749,35062,13988,0,0,0
10737,35044,13956,0,0,0
10723,35023,13926,0,0,0
10708,35001,13895,0,0,0
10690,34977,13862,0,0,0
10669,34953,13828,0,0,0
10649,34932,13794,0,0,0
10629,34913,13764,0,0,0
10607,34894,13735,0,0,0
10583,34871,13705,0,0,0
10557,34850,13673,0,0,0
10532,34829,13640,0,0,0
10507,34807,13609,0,0,0
10481,34781,13578,0,0,0
10454,34754,13544,0,0,0
10427,34727,13503,0,0,0
10398,34698,13456,0,0,0
10365,34665,13404,0,0,0
10328,34629,13349,0,0,0
10291,34593,13293,0,0,0
10257,34558,13239,0,0,0
10225,34525,13188,0,0,0
10194,34495,13140,0,0,0
10165,34471,13097,0,0,0
10138,34452,13056,0,0,0
10113,34436,13020,0,0,0
10092,34420,12991,0,0,0
10079,34409,12971,0,0,0
10076,34407,12967,0,0,0
10087,34416,12981,0,0,0
10117,34441,13022,0,0,0
10170,34489,13096,0,0,0
10245,34561,13208,0,0,0
10345,34659,13358,0,0,0
10469,34784,13548,0,0,0
10616,34931,13774,0,0,0
10783,35098,14032,0,0,0
10968,35282,14322,0,0,0
11171,35479,14637,0,0,0
11389,35688,14971,0,0,0
11617,35906,15317,0,0,0
11849,36128,15672,0,0,0
12083,36350,16031,0,0,0
12313,36568,16387,0,0,0
12537,36778,16734,0,0,0
12753,36980,17068,0,0,0
12958,37171,17386,0,0,0
13146,37348,17680,0,0,0
13316,37505,17949,0,0,0
13465,37642,18188,0,0,0
13593,37758,18393,0,0,0
13700,37855,18563,0,0,0
13785,37934,18703,0,0,0
13852,37996,18819,0,0,0
13905,38042,18910,0,0,0
13943,38073,18974,0,0,0
13966,38091,19012,0,0,0
13977,38095,19027,0,0,0
13977,38088,19022,0,0,0
13966,38070,19001,0,0,0
13945,38044,18966,0,0,0
13914,38014,18921,0,0,0
13875,37979,18867,0,0,0
13831,37941,18806,0,0,0
13787,37901,18743,0,0,0
13742,37861,18679,0,0,0
13698,37817,18616,0,0,0
13657,37772,18553,0,0,0
13619,37728,18489,0,0,0
13583,37686,18427,0,0,0
13548,37649,18370,0,0,0
13514,37618,18318,0,0,0
13485,37592,18273,0,0,0
13460,37569,18234,0,0,0
13437,37547,18196,0,0,0
13416,37527,18158,0,0,0
13396,37505,18116,0,0,0
13372,37481,18069,0,0,0
13344,37453,18017,0,0,0
13310,37421,17960,0,0,0
13271,37384,17900,0,0,0
13229,37343,17834,0,0,0
13183,37298,17762,0,0,0
13133,37252,17684,0,0,0
13079,37204,17602,0,0,0
13025,37150,17518,0,0,0
12971,37095,17432,0,0,0
12918,37040,17347,0,0,0
12866,36989,17267,0,0,0
12820,36943,17196,0,0,0
12779,36905,17133,0,0,0
12744,36874,17080,0,0,0
12716,36854,17037,0,0,0
12694,36840,17004,0,0,0
12678,36830,16980,0,0,0
12669,36828,16967,0,0,0
12672,36834,16969,0,0,0
12685,36849,16984,0,0,0
12708,36871,17008,0,0,0
12737,36897,17038,0,0,0
12765,36925,17071,0,0,0
12791,36951,17107,0,0,0
12815,36977,17147,0,0,0
12841,37005,17189,0,0,0
12868,37035,17232,0,0,0
12897,37065,17274,0,0,0
12926,37093,17312,0,0,0
12952,37117,17349,0,0,0
12975,37136,17381,0,0,0
12994,37150,17407,0,0,0
13010,37160,17425,0,0,0
13020,37165,17433,0,0,0
13020,37162,17432,0,0,0
13011,37153,17422,0,0,0
12993,37139,17403,0,0,0
12970,37121,17379,0,0,0
12946,37101,17352,0,0,0
12920,37079,17323,0,0,0
12889,37057,17290,0,0,0
12854,37031,17255,0,0,0
12819,37001,17217,0,0,0
12784,36970,17175,0,0,0
12748,36937,17127,0,0,0
12713,36905,17075,0,0,0
12677,36878,17020,0,0,0
12637,36849,16963,0,0,0
12594,36814,16901,0,0,0
12548,36773,16835,0,0,0
12503,36729,16767,0,0,0
12461,36687,16696,0,0,0
12419,36647,16627,0,0,0
12375,36608,16558,0,0,0
12330,36569,16490,0,0,0
12285,36527,16420,0,0,0
12239,36479,16351,0,0,0
12192,36431,16285,0,0,0
12146,36386,16222,0,0,0
12103,36346,16161,0,0,0
12062,36307,16098,0,0,0
12023,36270,16036,0,0,0
11988,36236,15976,0,0,0
11951,36206,15916,0,0,0
11915,36178,15859,0,0,0
11881,36148,15806,0,0,0
11847,36116,15754,0,0,0
11813,36081,15703,0,0,0
11779,36045,15652,0,0,0
11747,36011,15602,0,0,0
11716,35982,15555,0,0,0
11684,35957,15510,0,0,0
11654,35932,15466,0,0,0
11625,35906,15420,0,0,0
11598,35880,15375,0,0,0
11573,35855,15331,0,0,0
11552,35834,15289,0,0,0
11533,35816,15249,0,0,0
11516,35799,15212,0,0,0
11498,35783,15180,0,0,0
11480,35766,15149,0,0,0
11464,35751,15121,0,0,0
11451,35737,15096,0,0,0
11439,35721,15073,0,0,0
11426,35705,15049,0,0,0
11412,35689,15024,0,0,0
11396,35674,14998,0,0,0
11379,35659,14971,0,0,0
11361,35643,14944,0,0,0
11343,35628,14919,0,0,0
11324,35612,14894,0,0,0
11305,35597,14869,0,0,0
11288,35582,14844,0,0,0
11272,35570,14820,0,0,0
11260,35560,14794,0,0,0
11249,35551,14767,0,0,0
11240,35541,14744,0,0,0
11230,35534,14722,0,0,0
11222,35529,14699,0,0,0
11214,35524,14677,0,0,0
11204,35519,14658,0,0,0
11192,35514,14638,0,0,0
11181,35510,14617,0,0,0
11170,35503,14597,0,0,0
11159,35492,14580,0,0,0
11146,35479,14564,0,0,0
11131,35466,14547,0,0,0
11114,35453,14528,0,0,0
11096,35437,14507,0,0,0
11078,35419,14483,0,0,0
11059,35397,14452,0,0,0
11037,35376,14418,0,0,0
11012,35357,14382,0,0,0
10989,35339,14345,0,0,0
10967,35320,14308,0,0,0
10947,35301,14273,0,0,0
10931,35280,14240,0,0,0
10916,35260,14209,0,0,0
10901,35243,14180,0,0,0
10886,35228,14151,0,0,0
10869,35217,14122,0,0,0
10850,35207,14092,0,0,0
10831,35195,14058,0,0,0
10811,35179,14023,0,0,0
10789,35160,13988,0,0,0
10766,35140,13953,0,0,0
10741,35118,13919,0,0,0
10713,35095,13883,0,0,0
10684,35072,13844,0,0,0
10656,35048,13805,0,0,0
10626,35022,13765,0,0,0
10597,34995,13722,0,0,0
10571,34969,13676,0,0,0
10549,34943,13631,0,0,0
10525,34919,13588,0,0,0
10499,34895,13548,0,0,0
10470,34869,13511,0,0,0
10442,34842,13477,0,0,0
10414,34818,13445,0,0,0
10388,34799,13416,0,0,0
10365,34784,13386,0,0,0
10346,34766,13355,0,0,0
10327,34744,13323,0,0,0
10309,34721,13291,0,0,0
10291,34698,13260,0,0,0
10271,34676,13229,0,0,0
10250,34654,13196,0,0,0
10227,34631,13161,0,0,0
10201,34605,13124,0,0,0
10174,34580,13084,0,0,0
10145,34553,13043,0,0,0
10117,34523,13001,0,0,0
10088,34494,12959,0,0,0
10060,34466,12918,0,0,0
10034,34440,12879,0,0,0
10011,34416,12841,0,0,0
9989,34393,12801,0,0,0
9969,34373,12761,0,0,0
9949,34354,12724,0,0,0
9931,34337,12692,0,0,0
9915,34321,12664,0,0,0
9902,34307,12642,0,0,0
9890,34298,12625,0,0,0
9883,34297,12615,0,0,0
9883,34308,12616,0,0,0
9896,34330,12637,0,0,0
9927,34367,12688,0,0,0
9980,34424,12773,0,0,0
10060,34503,12892,0,0,0
10168,34606,13050,0,0,0
10305,34733,13247,0,0,0
10472,34889,13486,0,0,0
10666,35070,13764,0,0,0
10880,35273,14078,0,0,0
11113,35492,14420,0,0,0
11357,35722,14785,0,0,0
11610,35960,15166,0,0,0
11869,36203,15555,0,0,0
12127,36447,15944,0,0,0
12383,36685,16328,0,0,0
12632,36916,16704,0,0,0
12868,37134,17066,0,0,0
13090,37333,17408,0,0,0
13296,37515,17728,0,0,0
13483,37681,18024,0,0,0
13652,37830,18292,0,0,0
13802,37962,18530,0,0,0
13935,38077,18736,0,0,0
14048,38175,18911,0,0,0
14140,38255,19053,0,0,0
14213,38317,19162,0,0,0
14266,38360,19245,0,0,0
14301,38388,19301,0,0,0
14318,38402,19333,0,0,0
14318,38402,19342,0,0,0
14305,38390,19332,0,0,0
14282,38371,19306,0,0,0
14251,38346,19267,0,0,0
14212,38317,19216,0,0,0
14171,38285,19157,0,0,0
14131,38250,19095,0,0,0
14091,38211,19030,0,0,0
14054,38172,18964,0,0,0
14017,38132,18898,0,0,0
13979,38092,18833,0,0,0
13942,38055,18772,0,0,0
13909,38024,18718,0,0,0
13881,37997,18670,0,0,0
13855,37971,18626,0,0,0
13832,37945,18585,0,0,0
13813,37923,18550,0,0,0
13797,37906,18522,0,0,0
13783,37892,18500,0,0,0
13768,37878,18480,0,0,0
13753,37863,18457,0,0,0
13735,37845,18424,0,0,0
13712,37823,18378,0,0,0
13684,37797,18325,0,0,0
13653,37766,18270,0,0,0
13616,37729,18208,0,0,0
13575,37686,18138,0,0,0
13531,37638,18063,0,0,0
13483,37588,17986,0,0,0
13432,37539,17910,0,0,0
13379,37490,17838,0,0,0
13326,37443,17771,0,0,0
13273,37399,17705,0,0,0
13225,37361,17642,0,0,0
13185,37330,17585,0,0,0
13151,37306,17539,0,0,0
13125,37288,17503,0,0,0
13107,37274,17474,0,0,0
13095,37262,17452,0,0,0
13089,37253,17435,0,0,0
13088,37247,17423,0,0,0
13089,37243,17415,0,0,0
13092,37242,17415,0,0,0
13098,37245,17423,0,0,0
13104,37249,17435,0,0,0
13112,37255,17450,0,0,0
13122,37265,17471,0,0,0
13138,37282,17500,0,0,0
13156,37302,17533,0,0,0
13175,37322,17565,0,0,0
13191,37336,17591,0,0,0
13204,37344,17615,0,0,0
13214,37349,17637,0,0,0
13222,37350,17654,0,0,0
13226,37348,17665,0,0,0
13226,37344,17670,0,0,0
13219,37339,17668,0,0,0
13208,37331,17659,0,0,0
13194,37322,17644,0,0,0
13177,37310,17622,0,0,0
13158,37293,17593,0,0,0
13132,37271,17557,0,0,0
13101,37244,17513,0,0,0
13064,37214,17465,0,0,0
13026,37180,17413,0,0,0
12986,37143,17357,0,0,0
12942,37103,17293,0,0,0
12895,37061,17225,0,0,0
12845,37016,17157,0,0,0
12795,36970,17089,0,0,0
12748,36926,17024,0,0,0
12704,36883,16962,0,0,0
12662,36841,16902,0,0,0
12620,36800,16841,0,0,0
12578,36759,16781,0,0,0
12537,36723,16723,0,0,0
12500,36691,16668,0,0,0
12464,36660,16614,0,0,0
12431,36631,16559,0,0,0
12401,36603,16500,0,0,0
12374,36575,16440,0,0,0
12348,36549,16382,0,0,0
12321,36523,16329,0,0,0
12290,36494,16278,0,0,0
12254,36463,16229,0,0,0
12215,36433,16178,0,0,0
12177,36404,16125,0,0,0
12142,36375,16070,0,0,0
12105,36343,16011,0,0,0
12066,36308,15950,0,0,0
12023,36273,15887,0,0,0
11980,36238,15824,0,0,0
11938,36203,15765,0,0,0
11901,36170,15714,0,0,0
11869,36139,15669,0,0,0
11842,36112,15629,0,0,0
11819,36085,15592,0,0,0
11798,36062,15556,0,0,0
11780,36043,15523,0,0,0
11765,36029,15491,0,0,0
11749,36014,15459,0,0,0
11732,35998,15425,0,0,0
11714,35983,15391,0,0,0
11697,35970,15360,0,0,0
11680,35957,15329,0,0,0
11663,35944,15298,0,0,0
11647,35934,15269,0,0,0
11631,35924,15242,0,0,0
11618,35912,15218,0,0,0
11605,35900,15195,0,0,0
11593,35888,15173,0,0,0
11584,35878,15150,0,0,0
11576,35868,15125,0,0,0
11567,35858,15102,0,0,0
11555,35846,15078,0,0,0
11540,35829,15052,0,0,0
11521,35808,15024,0,0,0
11497,35784,14993,0,0,0
11472,35762,14962,0,0,0
11445,35742,14931,0,0,0
11417,35721,14901,0,0,0
11389,35700,14870,0,0,0
11362,35677,14840,0,0,0
11336,35655,14811,0,0,0
11309,35635,14781,0,0,0
11284,35615,14752,0,0,0
11262,35597,14722,0,0,0
11245,35579,14692,0,0,0
11235,35563,14661,0,0,0
11229,35551,14630,0,0,0
11224,35541,14598,0,0,0
11215,35531,14567,0,0,0
11201,35521,14539,0,0,0
11185,35512,14513,0,0,0
11167,35500,14485,0,0,0
11148,35485,14456,0,0,0
11132,35467,14427,0,0,0
11115,35449,14400,0,0,0
11097,35429,14372,0,0,0
11074,35406,14342,0,0,0
11048,35378,14306,0,0,0
11020,35348,14266,0,0,0
10992,35319,14223,0,0,0
10962,35289,14177,0,0,0
10929,35257,14129,0,0,0
10893,35226,14082,0,0,0
10858,35197,14037,0,0,0
10827,35172,13994,0,0,0
10800,35149,13955,0,0,0
10775,35128,13918,0,0,0
10751,35108,13886,0,0,0
10727,35087,13855,0,0,0
10704,35065,13824,0,0,0
10679,35042,13788,0,0,0
10652,35017,13749,0,0,0
10622,34989,13707,0,0,0
10589,34962,13665,0,0,0
10556,34937,13622,0,0,0
10525,34911,13578,0,0,0
10493,34883,13533,0,0,0
10461,34856,13489,0,0,0
10432,34832,13448,0,0,0
10407,34811,13412,0,0,0
10385,34791,13379,0,0,0
10366,34770,13347,0,0,0
10347,34748,13313,0,0,0
10325,34724,13275,0,0,0
10299,34697,13234,0,0,0
10273,34669,13194,0,0,0
10248,34643,13153,0,0,0
10222,34616,13110,0,0,0
10191,34585,13063,0,0,0
10155,34550,13014,0,0,0
10117,34511,12965,0,0,0
10078,34472,12916,0,0,0
10043,34438,12870,0,0,0
10013,34409,12828,0,0,0
9985,34383,12791,0,0,0
9958,34360,12756,0,0,0
9934,34337,12723,0,0,0
9910,34315,12690,0,0,0
9887,34294,12657,0,0,0
9867,34274,12621,0,0,0
9850,34257,12585,0,0,0
9833,34244,12551,0,0,0
9817,34234,12515,0,0,0
9803,34224,12478,0,0,0
9787,34210,12446,0,0,0
9768,34192,12416,0,0,0
9745,34173,12383,0,0,0
9719,34150,12349,0,0,0
9691,34125,12313,0,0,0
9664,34099,12276,0,0,0
9636,34071,12240,0,0,0
9608,34041,12202,0,0,0
9580,34012,12167,0,0,0
9555,33988,12137,0,0,0
9534,33973,12115,0,0,0
9522,33968,12108,0,0,0
9524,33975,12121,0,0,0
9547,33998,12160,0,0,0
9596,34042,12232,0,0,0
9672,34111,12346,0,0,0
9779,34214,12504,0,0,0
9916,34350,12706,0,0,0
10081,34515,12952,0,0,0
10270,34702,13235,0,0,0
10479,34909,13552,0,0,0
10705,35130,13897,0,0,0
10945,35360,14263,0,0,0
11194,35596,14641,0,0,0
11447,35834,15025,0,0,0
11703,36071,15406,0,0,0
11955,36301,15777,0,0,0
12195,36519,16132,0,0,0
12420,36726,16466,0,0,0
12627,36920,16778,0,0,0
12814,37099,17065,0,0,0
12981,37257,17323,0,0,0
13124,37392,17550,0,0,0
13245,37503,17745,0,0,0
13343,37591,17905,0,0,0
13420,37658,18031,0,0,0
13474,37707,18126,0,0,0
13511,37738,18197,0,0,0
13536,37754,18244,0,0,0
13551,37758,18266,0,0,0
13552,37753,18268,0,0,0
13538,37739,18253,0,0,0
13515,37718,18228,0,0,0
13487,37690,18194,0,0,0
13454,37657,18151,0,0,0
13418,37621,18098,0,0,0
13379,37581,18038,0,0,0
13337,37539,17973,0,0,0
13292,37499,17907,0,0,0
13249,37463,17839,0,0,0
13210,37428,17774,0,0,0
13174,37393,17711,0,0,0
13140,37357,17651,0,0,0
13106,37322,17590,0,0,0
13072,37288,17531,0,0,0
13039,37255,17476,0,0,0
13008,37222,17425,0,0,0
12981,37189,17378,0,0,0
12958,37157,17335,0,0,0
12934,37126,17291,0,0,0
12909,37096,17247,0,0,0
12884,37066,17202,0,0,0
12858,37039,17158,0,0,0
12830,37014,17111,0,0,0
12797,36989,17062,0,0,0
12760,36960,17012,0,0,0
12724,36929,16958,0,0,0
12690,36897,16902,0,0,0
12653,36862,16844,0,0,0
12614,36824,16783,0,0,0
12576,36786,16721,0,0,0
12539,36748,16659,0,0,0
12499,36709,16596,0,0,0
12459,36669,16532,0,0,0
12421,36631,16471,0,0,0
12387,36596,16415,0,0,0
12359,36564,16366,0,0,0
12332,36534,16326,0,0,0
12307,36512,16294,0,0,0
12286,36498,16271,0,0,0
12270,36491,16255,0,0,0
12262,36489,16244,0,0,0
12263,36491,16242,0,0,0
12273,36497,16252,0,0,0
12286,36509,16275,0,0,0
12302,36525,16305,0,0,0
12321,36547,16336,0,0,0
12343,36573,16367,0,0,0
12365,36601,16398,0,0,0
12388,36629,16430,0,0,0
12411,36654,16460,0,0,0
12432,36677,16488,0,0,0
12452,36701,16516,0,0,0
12471,36722,16541,0,0,0
12489,36740,16561,0,0,0
12500,36751,16574,0,0,0
12503,36757,16579,0,0,0
12499,36756,16575,0,0,0
12488,36748,16564,0,0,0
12471,36731,16545,0,0,0
12447,36708,16518,0,0,0
12419,36681,16483,0,0,0
12387,36650,16442,0,0,0
12352,36617,16396,0,0,0
12313,36580,16345,0,0,0
12270,36538,16292,0,0,0
12227,36494,16237,0,0,0
12185,36453,16180,0,0,0
12144,36413,16120,0,0,0
12100,36373,16058,0,0,0
12055,36333,15995,0,0,0
12008,36292,15930,0,0,0
11963,36250,15865,0,0,0
11921,36207,15800,0,0,0
11881,36168,15739,0,0,0
11844,36135,15681,0,0,0
11807,36104,15626,0,0,0
11768,36074,15570,0,0,0
11730,36044,15513,0,0,0
11697,36015,15457,0,0,0
11664,35987,15401,0,0,0
11631,35959,15344,0,0,0
11595,35932,15288,0,0,0
11554,35901,15232,0,0,0
11509,35863,15173,0,0,0
11460,35819,15109,0,0,0
11410,35774,15041,0,0,0
11361,35728,14973,0,0,0
11313,35682,14906,0,0,0
11269,35636,14844,0,0,0
11227,35595,14786,0,0,0
11185,35557,14730,0,0,0
11146,35518,14675,0,0,0
11110,35482,14623,0,0,0
11076,35449,14573,0,0,0
11043,35419,14528,0,0,0
11013,35390,14486,0,0,0
10985,35364,14447,0,0,0
10961,35343,14412,0,0,0
10943,35327,14379,0,0,0
10927,35316,14348,0,0,0
10912,35307,14319,0,0,0
10895,35298,14290,0,0,0
10878,35285,14258,0,0,0
10861,35268,14223,0,0,0
10842,35250,14185,0,0,0
10823,35230,14147,0,0,0
10804,35208,14111,0,0,0
10786,35183,14080,0,0,0
10768,35158,14050,0,0,0
10749,35134,14022,0,0,0
10728,35112,13994,0,0,0
10708,35092,13968,0,0,0
10689,35076,13944,0,0,0
10670,35058,13917,0,0,0
10650,35039,13887,0,0,0
10629,35020,13855,0,0,0
10610,35003,13825,0,0,0
10591,34987,13795,0,0,0
10573,34973,13765,0,0,0
10558,34962,13738,0,0,0
10546,34952,13713,0,0,0
10534,34941,13690,0,0,0
10523,34925,13666,0,0,0
10510,34906,13642,0,0,0
10497,34888,13621,0,0,0
10484,34872,13602,0,0,0
10471,34859,13582,0,0,0
10459,34846,13560,0,0,0
10448,34831,13535,0,0,0
10432,34815,13506,0,0,0
10410,34799,13474,0,0,0
10384,34780,13433,0,0,0
10356,34757,13387,0,0,0
10326,34732,13342,0,0,0
10292,34706,13300,0,0,0
10257,34679,13261,0,0,0
10222,34650,13223,0,0,0
10191,34620,13185,0,0,0
10161,34590,13147,0,0,0
10132,34563,13111,0,0,0
10104,34540,13079,0,0,0
10080,34520,13051,0,0,0
10062,34505,13025,0,0,0
10049,34493,13000,0,0,0
10038,34483,12976,0,0,0
10026,34470,12951,0,0,0
10014,34458,12926,0,0,0
10004,34447,12900,0,0,0
9993,34437,12872,0,0,0
9978,34425,12842,0,0,0
9960,34409,12810,0,0,0
9944,34392,12778,0,0,0
9927,34375,12748,0,0,0
9909,34356,12719,0,0,0
9888,34335,12691,0,0,0
9866,34312,12661,0,0,0
9840,34288,12628,0,0,0
9812,34260,12591,0,0,0
9783,34229,12550,0,0,0
9753,34198,12505,0,0,0
9723,34169,12458,0,0,0
9693,34141,12409,0,0,0
9664,34112,12359,0,0,0
9634,34085,12309,0,0,0
9604,34061,12262,0,0,0
9573,34037,12216,0,0,0
9544,34011,12173,0,0,0
9517,33989,12135,0,0,0
9490,33971,12103,0,0,0
9465,33953,12074,0,0,0
9443,33936,12044,0,0,0
9424,33920,12014,0,0,0
9408,33904,11987,0,0,0
9395,33889,11962,0,0,0
9384,33878,11938,0,0,0
9376,33872,11918,0,0,0
9367,33867,11899,0,0,0
9356,33858,11876,0,0,0
9342,33847,11851,0,0,0
9326,33833,11824,0,0,0
9306,33816,11797,0,0,0
9282,33797,11766,0,0,0
9256,33774,11730,0,0,0
9230,33750,11693,0,0,0
9208,33728,11657,0,0,0
9190,33709,11625,0,0,0
9176,33694,11600,0,0,0
9172,33688,11585,0,0,0
9177,33692,11585,0,0,0
9193,33710,11603,0,0,0
9227,33746,11649,0,0,0
9284,33806,11728,0,0,0
9367,33892,11845,0,0,0
9477,34002,12001,0,0,0
9612,34135,12199,0,0,0
9771,34289,12435,0,0,0
9949,34465,12705,0,0,0
10144,34655,13004,0,0,0
10355,34854,13329,0,0,0
10576,35058,13671,0,0,0
10804,35266,14021,0,0,0
11034,35477,14373,0,0,0
11262,35685,14719,0,0,0
11482,35886,15054,0,0,0
11690,36078,15370,0,0,0
11882,36255,15663,0,0,0
12056,36416,15931,0,0,0
12211,36561,16174,0,0,0
12345,36689,16389,0,0,0
12458,36797,16576,0,0,0
12552,36889,16732,0,0,0
12630,36962,16858,0,0,0
12692,37020,16956,0,0,0
12737,37063,17029,0,0,0
12769,37093,17079,0,0,0
12787,37105,17108,0,0,0
12793,37102,17117,0,0,0
12785,37087,17108,0,0,0
12767,37062,17083,0,0,0
12740,37029,17044,0,0,0
12705,36992,16992,0,0,0
12664,36951,16932,0,0,0
12618,36904,16865,0,0,0
12571,36855,16794,0,0,0
12525,36806,16719,0,0,0
12477,36756,16641,0,0,0
12427,36705,16559,0,0,0
12376,36654,16476,0,0,0
12329,36605,16395,0,0,0
12286,36561,16320,0,0,0
12247,36520,16252,0,0,0
12209,36481,16190,0,0,0
12172,36444,16132,0,0,0
12136,36410,16077,0,0,0
12100,36376,16022,0,0,0
12063,36343,15970,0,0,0
12027,36312,15919,0,0,0
11992,36282,15868,0,0,0
11958,36252,15813,0,0,0
11924,36219,15753,0,0,0
11888,36181,15685,0,0,0
11850,36140,15612,0,0,0
11810,36097,15536,0,0,0
11765,36053,15458,0,0,0
11717,36012,15380,0,0,0
11667,35972,15305,0,0,0
11620,35931,15234,0,0,0
11577,35893,15165,0,0,0
11538,35858,15102,0,0,0
11503,35828,15046,0,0,0
11473,35801,14999,0,0,0
11450,35776,14964,0,0,0
11435,35758,14943,0,0,0
11429,35747,14935,0,0,0
11431,35743,14941,0,0,0
11441,35749,14960,0,0,0
11457,35764,14988,0,0,0
11480,35787,15024,0,0,0
11507,35817,15065,0,0,0
11537,35851,15111,0,0,0
11569,35887,15159,0,0,0
11603,35924,15207,0,0,0
11640,35961,15255,0,0,0
11679,35994,15301,0,0,0
11716,36024,15347,0,0,0
11749,36051,15390,0,0,0
11779,36076,15431,0,0,0
11804,36099,15466,0,0,0
11824,36118,15495,0,0,0
11840,36134,15519,0,0,0
11850,36145,15539,0,0,0
11853,36146,15552,0,0,0
11851,36137,15553,0,0,0
11843,36122,15543,0,0,0
11830,36105,15527,0,0,0
11810,36083,15503,0,0,0
11784,36060,15473,0,0,0
11755,36036,15438,0,0,0
11722,36007,15399,0,0,0
11685,35972,15356,0,0,0
11645,35935,15310,0,0,0
11605,35897,15262,0,0,0
11567,35862,15210,0,0,0
11530,35831,15154,0,0,0
11493,35802,15098,0,0,0
11456,35775,15042,0,0,0
11421,35752,14988,0,0,0
11389,35730,14934,0,0,0
11356,35705,14880,0,0,0
11324,35676,14825,0,0,0
11293,35645,14768,0,0,0
11262,35613,14708,0,0,0
11227,35579,14646,0,0,0
11187,35541,14583,0,0,0
11140,35501,14519,0,0,0
11090,35459,14453,0,0,0
11039,35417,14387,0,0,0
10988,35375,14321,0,0,0
10938,35333,14254,0,0,0
10894,35294,14190,0,0,0
10857,35259,14128,0,0,0
10823,35227,14069,0,0,0
10788,35193,14012,0,0,0
10754,35160,13955,0,0,0
10721,35125,13899,0,0,0
10688,35090,13845,0,0,0
10655,35058,13794,0,0,0
10624,35032,13746,0,0,0
10593,35007,13697,0,0,0
10562,34982,13647,0,0,0
10533,34956,13600,0,0,0
10508,34932,13557,0,0,0
10487,34910,13520,0,0,0
10466,34890,13486,0,0,0
10446,34869,13455,0,0,0
10425,34850,13427,0,0,0
10405,34834,13402,0,0,0
10387,34818,13380,0,0,0
10371,34802,13359,0,0,0
10357,34787,13336,0,0,0
10344,34773,13312,0,0,0
10327,34758,13286,0,0,0
10308,34740,13258,0,0,0
10286,34720,13230,0,0,0
10262,34699,13202,0,0,0
10238,34679,13174,0,0,0
10215,34659,13144,0,0,0
10194,34641,13116,0,0,0
10175,34624,13089,0,0,0
10158,34606,13061,0,0,0
10142,34588,13032,0,0,0
10128,34571,13005,0,0,0
10114,34557,12982,0,0,0
10100,34546,12960,0,0,0
10089,34536,12939,0,0,0
10083,34532,12922,0,0,0
10078,34530,12908,0,0,0
10072,34527,12894,0,0,0
10066,34522,12880,0,0,0
10060,34518,12866,0,0,0
10056,34515,12854,0,0,0
10050,34511,12842,0,0,0
10043,34506,12829,0,0,0
10037,34497,12813,0,0,0
10027,34483,12797,0,0,0
10014,34466,12778,0,0,0
9998,34447,12757,0,0,0
9980,34425,12733,0,0,0
9960,34402,12706,0,0,0
9939,34378,12673,0,0,0
9920,34353,12639,0,0,0
9902,34329,12606,0,0,0
9882,34305,12573,0,0,0
9862,34282,12540,0,0,0
9841,34260,12505,0,0,0
9820,34238,12467,0,0,0
9796,34219,12430,0,0,0
9771,34200,12393,0,0,0
9748,34183,12358,0,0,0
9726,34166,12323,0,0,0
9705,34150,12288,0,0,0
9682,34131,12251,0,0,0
9656,34109,12214,0,0,0
9630,34085,12178,0,0,0
9605,34060,12141,0,0,0
9583,34037,12106,0,0,0
9560,34016,12072,0,0,0
9537,33994,12035,0,0,0
9514,33968,11994,0,0,0
9490,33943,11951,0,0,0
9464,33919,11910,0,0,0
9439,33897,11870,0,0,0
9414,33877,11833,0,0,0
9389,33859,11799,0,0,0
9368,33844,11773,0,0,0
9353,33835,11758,0,0,0
9351,33837,11759,0,0,0
9368,33855,11782,0,0,0
9405,33892,11834,0,0,0
9465,33950,11921,0,0,0
9551,34032,12046,0,0,0
9662,34140,12209,0,0,0
9799,34274,12408,0,0,0
9958,34431,12640,0,0,0
10134,34602,12901,0,0,0
10327,34783,13188,0,0,0
10530,34970,13491,0,0,0
10738,35162,13800,0,0,0
10947,35355,14111,0,0,0
11154,35546,14421,0,0,0
11357,35733,14728,0,0,0
11555,35914,15027,0,0,0
11743,36083,15314,0,0,0
11917,36239,15583,0,0,0
12073,36381,15835,0,0,0
12211,36510,16064,0,0,0
12331,36623,16268,0,0,0
12434,36719,16443,0,0,0
12519,36797,16590,0,0,0
12587,36862,16710,0,0,0
12640,36913,16805,0,0,0
12681,36950,16876,0,0,0
12710,36974,16926,0,0,0
12729,36988,16958,0,0,0
12738,36992,16973,0,0,0
12738,36987,16973,0,0,0
12728,36974,16960,0,0,0
12713,36953,16933,0,0,0
12692,36926,16893,0,0,0
12665,36897,16843,0,0,0
12633,36865,16788,0,0,0
12597,36830,16728,0,0,0
12556,36792,16666,0,0,0
12513,36749,16602,0,0,0
12470,36700,16535,0,0,0
12428,36651,16466,0,0,0
12388,36604,16397,0,0,0
12349,36563,16329,0,0,0
12309,36526,16263,0,0,0
12269,36489,16199,0,0,0
12227,36452,16137,0,0,0
12186,36416,16078,0,0,0
12146,36379,16022,0,0,0
12108,36346,15969,0,0,0
12071,36314,15916,0,0,0
12035,36281,15861,0,0,0
11998,36243,15805,0,0,0
11961,36203,15743,0,0,0
11924,36165,15677,0,0,0
11886,36129,15607,0,0,0
11846,36093,15535,0,0,0
11805,36057,15461,0,0,0
11763,36020,15387,0,0,0
11720,35980,15312,0,0,0
11679,35938,15237,0,0,0
11639,35895,15166,0,0,0
11601,35855,15102,0,0,0
11565,35822,15048,0,0,0
11532,35796,15003,0,0,0
11504,35773,14964,0,0,0
11481,35754,14934,0,0,0
11465,35743,14916,0,0,0
11457,35742,14909,0,0,0
11454,35749,14911,0,0,0
11457,35760,14920,0,0,0
11467,35774,14937,0,0,0
11483,35792,14962,0,0,0
11507,35816,14995,0,0,0
11537,35847,15035,0,0,0
11569,35880,15081,0,0,0
11602,35911,15130,0,0,0
11636,35940,15180,0,0,0
11670,35970,15230,0,0,0
11701,35999,15277,0,0,0
11727,36024,15318,0,0,0
11748,36046,15355,0,0,0
11765,36062,15384,0,0,0
11775,36070,15402,0,0,0
11779,36072,15412,0,0,0
11781,36073,15415,0,0,0
11777,36070,15411,0,0,0
11767,36061,15401,0,0,0
11751,36045,15381,0,0,0
11729,36025,15353,0,0,0
11703,36003,15321,0,0,0
11674,35978,15285,0,0,0
11640,35948,15246,0,0,0
11603,35916,15202,0,0,0
11567,35886,15155,0,0,0
11534,35857,15105,0,0,0
11502,35829,15055,0,0,0
11469,35800,15007,0,0,0
11432,35768,14959,0,0,0
11393,35732,14908,0,0,0
11356,35695,14855,0,0,0
11322,35659,14801,0,0,0
11290,35625,14747,0,0,0
11256,35590,14693,0,0,0
11221,35556,14641,0,0,0
11187,35525,14593,0,0,0
11156,35497,14543,0,0,0
11124,35468,14489,0,0,0
11089,35436,14431,0,0,0
11053,35402,14370,0,0,0
11017,35367,14309,0,0,0
10980,35331,14247,0,0,0
10940,35294,14186,0,0,0
10895,35257,14126,0,0,0
10848,35219,14068,0,0,0
10801,35181,14010,0,0,0
10754,35145,13952,0,0,0
10712,35110,13891,0,0,0
10675,35073,13831,0,0,0
10640,35036,13773,0,0,0
10607,35001,13721,0,0,0
10580,34971,13675,0,0,0
10555,34945,13631,0,0,0
10533,34923,13591,0,0,0
10514,34905,13555,0,0,0
10494,34889,13523,0,0,0
10472,34877,13493,0,0,0
10451,34866,13463,0,0,0
10430,34853,13433,0,0,0
10409,34837,13401,0,0,0
10386,34816,13365,0,0,0
10364,34791,13327,0,0,0
10343,34767,13288,0,0,0
10320,34746,13252,0,0,0
10297,34724,13218,0,0,0
10277,34703,13186,0,0,0
10259,34682,13157,0,0,0
10240,34659,13128,0,0,0
10221,34636,13100,0,0,0
10202,34614,13073,0,0,0
10184,34597,13044,0,0,0
10171,34583,13016,0,0,0
10160,34570,12989,0,0,0
10148,34557,12966,0,0,0
10134,34547,12943,0,0,0
10121,34538,12921,0,0,0
10111,34529,12898,0,0,0
10103,34520,12875,0,0,0
10096,34512,12854,0,0,0
10089,34505,12834,0,0,0
10079,34498,12815,0,0,0
10066,34491,12793,0,0,0
10051,34482,12769,0,0,0
10037,34470,12745,0,0,0
10022,34453,12719,0,0,0
10008,34436,12690,0,0,0
9995,34419,12661,0,0,0
9979,34404,12633,0,0,0
9962,34388,12605,0,0,0
9942,34371,12577,0,0,0
9923,34354,12551,0,0,0
9901,34339,12527,0,0,0
9878,34324,12503,0,0,0
9855,34309,12477,0,0,0
9834,34291,12449,0,0,0
9814,34272,12419,0,0,0
9793,34252,12387,0,0,0
9769,34231,12351,0,0,0
9743,34208,12313,0,0,0
9718,34182,12276,0,0,0
9696,34156,12240,0,0,0
9675,34129,12209,0,0,0
9654,34102,12179,0,0,0
9634,34079,12151,0,0,0
9614,34060,12125,0,0,0
9597,34043,12100,0,0,0
9580,34028,12077,0,0,0
9565,34013,12054,0,0,0
9549,34001,12028,0,0,0
9532,33992,12002,0,0,0
9513,33984,11978,0,0,0
9493,33975,11952,0,0,0
9473,33962,11921,0,0,0
9454,33946,11887,0,0,0
9433,33925,11850,0,0,0
9409,33898,11809,0,0,0
9382,33870,11766,0,0,0
9353,33843,11722,0,0,0
9324,33816,11677,0,0,0
9293,33786,11629,0,0,0
9261,33756,11580,0,0,0
9231,33729,11534,0,0,0
9202,33705,11492,0,0,0
9171,33679,11452,0,0,0
9141,33653,11410,0,0,0
9114,33628,11369,0,0,0
9089,33607,11330,0,0,0
9066,33590,11295,0,0,0
9050,33576,11267,0,0,0
9043,33567,11247,0,0,0
9044,33564,11238,0,0,0
9056,33570,11250,0,0,0
9085,33592,11291,0,0,0
9135,33638,11369,0,0,0
9209,33710,11489,0,0,0
9311,33809,11652,0,0,0
9442,33933,11858,0,0,0
9600,34083,12104,0,0,0
9784,34257,12385,0,0,0
9991,34453,12694,0,0,0
10215,34666,13027,0,0,0
10455,34891,13380,0,0,0
10704,35123,13749,0,0,0
10955,35356,14126,0,0,0
11202,35586,14504,0,0,0
11442,35812,14877,0,0,0
11675,36031,15238,0,0,0
11897,36240,15585,0,0,0
12105,36438,15914,0,0,0
12296,36621,16218,0,0,0
12469,36786,16495,0,0,0
12623,36931,16746,0,0,0
12758,37054,16969,0,0,0
12872,37157,17162,0,0,0
12965,37240,17324,0,0,0
13041,37308,17457,0,0,0
13103,37361,17563,0,0,0
13151,37400,17643,0,0,0
13185,37423,17697,0,0,0
13203,37431,17726,0,0,0
13209,37429,17732,0,0,0
13202,37418,17721,0,0,0
13185,37397,17695,0,0,0
13158,37367,17657,0,0,0
13125,37331,17609,0,0,0
13085,37292,17554,0,0,0
13038,37248,17493,0,0,0
12991,37204,17426,0,0,0
12946,37166,17361,0,0,0
12907,37135,17303,0,0,0
12874,37112,17253,0,0,0
12846,37096,17211,0,0,0
12826,37086,17173,0,0,0
12811,37075,17136,0,0,0
12798,37063,17099,0,0,0
12784,37047,17065,0,0,0
12770,37029,17033,0,0,0
12755,37009,17003,0,0,0
12736,36987,16970,0,0,0
12716,36964,16935,0,0,0
12693,36938,16894,0,0,0
12666,36911,16846,0,0,0
12634,36881,16791,0,0,0
12595,36846,16728,0,0,0
12550,36807,16661,0,0,0
12498,36762,16587,0,0,0
12443,36713,16507,0,0,0
12388,36663,16426,0,0,0
12333,36610,16345,0,0,0
12279,36558,16266,0,0,0
12225,36506,16186,0,0,0
12172,36457,16109,0,0,0
12122,36412,16035,0,0,0
12081,36371,15968,0,0,0
12047,36336,15911,0,0,0
12018,36308,15867,0,0,0
11994,36290,15834,0,0,0
11978,36281,15810,0,0,0
11972,36280,15795,0,0,0
11974,36285,15790,0,0,0
11986,36298,15798,0,0,0
12006,36318,15818,0,0,0
12029,36340,15847,0,0,0
12050,36362,15881,0,0,0
12069,36385,15919,0,0,0
12091,36409,15961,0,0,0
12115,36436,16004,0,0,0
12142,36464,16045,0,0,0
12167,36491,16084,0,0,0
12190,36514,16120,0,0,0
12210,36530,16149,0,0,0
12225,36540,16170,0,0,0
12234,36545,16183,0,0,0
12237,36545,16191,0,0,0
12236,36541,16196,0,0,0
12232,36535,16195,0,0,0
12225,36527,16187,0,0,0
12217,36517,16173,0,0,0
12205,36504,16154,0,0,0
12188,36489,16130,0,0,0
12164,36471,16101,0,0,0
12135,36449,16066,0,0,0
12103,36422,16027,0,0,0
12071,36393,15989,0,0,0
12040,36365,15951,0,0,0
12008,36338,15910,0,0,0
11973,36311,15864,0,0,0
11936,36283,15814,0,0,0
11898,36253,15761,0,0,0
11858,36223,15705,0,0,0
11818,36190,15645,0,0,0
11779,36152,15581,0,0,0
11741,36109,15514,0,0,0
11699,36059,15445,0,0,0
11652,36006,15375,0,0,0
11603,35955,15307,0,0,0
11555,35912,15241,0,0,0
11508,35870,15174,0,0,0
11462,35827,15109,0,0,0
11414,35782,15044,0,0,0
11369,35740,14977,0,0,0
11327,35700,14912,0,0,0
11289,35663,14849,0,0,0
11251,35630,14788,0,0,0
11210,35594,14728,0,0,0
11169,35557,14666,0,0,0
11126,35517,14600,0,0,0
11082,35478,14533,0,0,0
11038,35439,14466,0,0,0
10995,35401,14398,0,0,0
10955,35365,14332,0,0,0
10914,35330,14271,0,0,0
10874,35298,14212,0,0,0
10835,35265,14152,0,0,0
10797,35232,14096,0,0,0
10762,35201,14044,0,0,0
10729,35171,13992,0,0,0
10696,35140,13941,0,0,0
10666,35111,13894,0,0,0
10638,35084,13852,0,0,0
10613,35059,13812,0,0,0
10590,35035,13771,0,0,0
10567,35011,13735,0,0,0
10544,34990,13703,0,0,0
10522,34970,13673,0,0,0
10502,34953,13645,0,0,0
10483,34938,13616,0,0,0
10464,34926,13586,0,0,0
10445,34915,13555,0,0,0
10429,34904,13524,0,0,0
10415,34892,13494,0,0,0
10399,34875,13462,0,0,0
10383,34856,13432,0,0,0
10369,34836,13403,0,0,0
10353,34817,13374,0,0,0
10333,34798,13339,0,0,0
10309,34776,13302,0,0,0
10283,34751,13263,0,0,0
10259,34725,13225,0,0,0
10234,34698,13189,0,0,0
10210,34674,13157,0,0,0
10187,34652,13128,0,0,0
10164,34630,13098,0,0,0
10143,34608,13067,0,0,0
10122,34587,13032,0,0,0
10104,34566,12998,0,0,0
10087,34547,12968,0,0,0
10070,34531,12940,0,0,0
10054,34518,12912,0,0,0
10039,34504,12884,0,0,0
10022,34489,12853,0,0,0
10002,34473,12818,0,0,0
9979,34456,12782,0,0,0
9958,34440,12747,0,0,0
9937,34422,12711,0,0,0
9916,34402,12671,0,0,0
9892,34383,12633,0,0,0
9868,34364,12598,0,0,0
9842,34344,12567,0,0,0
9814,34321,12533,0,0,0
9784,34296,12494,0,0,0
9755,34270,12455,0,0,0
9726,34244,12420,0,0,0
9696,34221,12387,0,0,0
9667,34201,12353,0,0,0
9641,34184,12322,0,0,0
9617,34165,12292,0,0,0
9595,34143,12262,0,0,0
9573,34119,12230,0,0,0
9552,34095,12196,0,0,0
9532,34073,12159,0,0,0
9512,34050,12119,0,0,0
9491,34027,12079,0,0,0
9468,34007,12039,0,0,0
9444,33989,11999,0,0,0
9419,33969,11961,0,0,0
9393,33948,11924,0,0,0
9369,33927,11890,0,0,0
9348,33907,11855,0,0,0
9326,33885,11817,0,0,0
9303,33862,11776,0,0,0
9276,33837,11731,0,0,0
9248,33811,11687,0,0,0
9219,33783,11644,0,0,0
9190,33752,11599,0,0,0
9159,33720,11552,0,0,0
9128,33685,11503,0,0,0
9095,33650,11454,0,0,0
9061,33617,11405,0,0,0
9026,33584,11356,0,0,0
8989,33550,11307,0,0,0
8951,33518,11260,0,0,0
8914,33490,11212,0,0,0
8881,33463,11166,0,0,0
8852,33435,11121,0,0,0
8828,33407,11079,0,0,0
8808,33383,11039,0,0,0
8789,33362,11002,0,0,0
8772,33343,10967,0,0,0
8756,33324,10935,0,0,0
8739,33304,10908,0,0,0
8720,33285,10883,0,0,0
8701,33266,10857,0,0,0
8682,33248,10829,0,0,0
8665,33234,10801,0,0,0
8645,33222,10772,0,0,0
8623,33206,10741,0,0,0
8599,33188,10708,0,0,0
8574,33171,10672,0,0,0
8550,33154,10636,0,0,0
8529,33136,10599,0,0,0
8508,33115,10559,0,0,0
8484,33093,10518,0,0,0
8457,33069,10478,0,0,0
8429,33040,10437,0,0,0
8404,33010,10398,0,0,0
8382,32983,10364,0,0,0
8361,32958,10335,0,0,0
8343,32937,10311,0,0,0
8335,32925,10299,0,0,0
8341,32926,10306,0,0,0
8366,32946,10338,0,0,0
8413,32992,10405,0,0,0
8487,33068,10518,0,0,0
8595,33178,10680,0,0,0
8737,33319,10890,0,0,0
8912,33488,11145,0,0,0
9115,33685,11443,0,0,0
9342,33905,11780,0,0,0
9588,34143,12147,0,0,0
9847,34393,12538,0,0,0
10115,34649,12949,0,0,0
10388,34906,13373,0,0,0
10663,35160,13800,0,0,0
10934,35410,14223,0,0,0
11198,35654,14638,0,0,0
11452,35885,15037,0,0,0
11691,36104,15415,0,0,0
11910,36306,15768,0,0,0
12105,36490,16093,0,0,0
12279,36654,16386,0,0,0
12434,36797,16645,0,0,0
12569,36922,16872,0,0,0
12684,37029,17068,0,0,0
12781,37117,17232,0,0,0
12857,37186,17363,0,0,0
12913,37236,17461,0,0,0
12949,37268,17528,0,0,0
12968,37284,17569,0,0,0
12970,37285,17585,0,0,0
12958,37273,17579,0,0,0
12936,37254,17553,0,0,0
12908,37229,17511,0,0,0
12873,37196,17458,0,0,0
12831,37157,17395,0,0,0
12787,37114,17325,0,0,0
12741,37069,17251,0,0,0
12695,37022,17177,0,0,0
12651,36975,17104,0,0,0
12608,36928,17031,0,0,0
12565,36884,16959,0,0,0
12521,36840,16888,0,0,0
12477,36797,16822,0,0,0
12437,36758,16760,0,0,0
12404,36726,16703,0,0,0
12375,36698,16650,0,0,0
12348,36672,16599,0,0,0
12325,36648,16552,0,0,0
12299,36625,16509,0,0,0
12269,36599,16464,0,0,0
12236,36569,16415,0,0,0
12202,36538,16361,0,0,0
12166,36507,16302,0,0,0
12126,36473,16239,0,0,0
12082,36436,16173,0,0,0
12035,36397,16107,0,0,0
11985,36359,16041,0,0,0
11934,36320,15970,0,0,0
11882,36277,15892,0,0,0
11828,36230,15809,0,0,0
11773,36181,15725,0,0,0
11719,36134,15643,0,0,0
11670,36090,15569,0,0,0
11630,36050,15505,0,0,0
11597,36016,15451,0,0,0
11571,35990,15405,0,0,0
11550,35971,15371,0,0,0
11538,35961,15348,0,0,0
11534,35960,15337,0,0,0
11538,35963,15336,0,0,0
11549,35969,15343,0,0,0
11564,35978,15358,0,0,0
11582,35991,15381,0,0,0
11602,36010,15408,0,0,0
11624,36032,15440,0,0,0
11648,36055,15475,0,0,0
11673,36081,15515,0,0,0
11700,36109,15557,0,0,0
11727,36138,15599,0,0,0
11753,36164,15639,0,0,0
11777,36187,15677,0,0,0
11798,36207,15710,0,0,0
11815,36223,15738,0,0,0
11827,36233,15757,0,0,0
11831,36236,15768,0,0,0
11831,36233,15771,0,0,0
11827,36226,15768,0,0,0
11819,36213,15758,0,0,0
11804,36196,15743,0,0,0
11781,36175,15722,0,0,0
11757,36149,15697,0,0,0
11732,36119,15665,0,0,0
11701,36087,15629,0,0,0
11666,36054,15588,0,0,0
11631,36019,15541,0,0,0
11596,35985,15487,0,0,0
11558,35953,15428,0,0,0
11517,35922,15365,0,0,0
11471,35889,15300,0,0,0
11421,35850,15232,0,0,0
11369,35806,15162,0,0,0
11319,35763,15092,0,0,0
11271,35721,15022,0,0,0
11223,35680,14950,0,0,0
11175,35639,14876,0,0,0
11127,35597,14802,0,0,0
11080,35555,14732,0,0,0
11032,35512,14663,0,0,0
10984,35469,14597,0,0,0
10935,35427,14533,0,0,0
10888,35387,14469,0,0,0
10842,35346,14405,0,0,0
10797,35306,14339,0,0,0
10753,35266,14272,0,0,0
10706,35224,14204,0,0,0
10657,35180,14134,0,0,0
10608,35133,14062,0,0,0
10561,35087,13990,0,0,0
10517,35044,13919,0,0,0
10472,35002,13849,0,0,0
10426,34962,13779,0,0,0
10376,34921,13708,0,0,0
10326,34875,13635,0,0,0
10277,34828,13564,0,0,0
10230,34781,13497,0,0,0
10187,34737,13435,0,0,0
10148,34696,13378,0,0,0
10112,34660,13325,0,0,0
10078,34627,13276,0,0,0
10045,34598,13229,0,0,0
10012,34572,13183,0,0,0
9981,34548,13135,0,0,0
9953,34527,13091,0,0,0
9929,34508,13054,0,0,0
9907,34492,13021,0,0,0
9886,34476,12992,0,0,0
9867,34457,12964,0,0,0
9849,34438,12935,0,0,0
9834,34422,12905,0,0,0
9818,34407,12876,0,0,0
9801,34391,12845,0,0,0
9782,34374,12814,0,0,0
9760,34357,12779,0,0,0
9735,34338,12743,0,0,0
9709,34317,12706,0,0,0
9686,34298,12669,0,0,0
9669,34282,12634,0,0,0
9654,34269,12602,0,0,0
9639,34252,12574,0,0,0
9623,34231,12546,0,0,0
9604,34207,12518,0,0,0
9583,34184,12490,0,0,0
9561,34164,12461,0,0,0
9538,34145,12430,0,0,0
9514,34127,12398,0,0,0
9489,34108,12368,0,0,0
9465,34086,12337,0,0,0
9441,34062,12305,0,0,0
9418,34037,12271,0,0,0
9394,34013,12240,0,0,0
9372,33993,12210,0,0,0
9353,33976,12181,0,0,0
9336,33963,12156,0,0,0
9323,33950,12131,0,0,0
9311,33938,12107,0,0,0
9300,33927,12083,0,0,0
9291,33920,12058,0,0,0
9282,33914,12030,0,0,0
9270,33906,11998,0,0,0
9255,33896,11962,0,0,0
9238,33886,11925,0,0,0
9220,33872,11889,0,0,0
9200,33855,11854,0,0,0
9178,33834,11820,0,0,0
9154,33809,11783,0,0,0
9128,33782,11744,0,0,0
9099,33752,11705,0,0,0
9069,33721,11668,0,0,0
9038,33688,11628,0,0,0
9005,33654,11587,0,0,0
8973,33619,11544,0,0,0
8940,33585,11499,0,0,0
8907,33553,11455,0,0,0
8874,33522,11413,0,0,0
8843,33493,11371,0,0,0
8812,33464,11328,0,0,0
8781,33437,11283,0,0,0
8749,33416,11237,0,0,0
8716,33395,11187,0,0,0
8682,33373,11138,0,0,0
8650,33350,11091,0,0,0
8619,33323,11048,0,0,0
8592,33297,11007,0,0,0
8570,33273,10966,0,0,0
8552,33251,10927,0,0,0
8535,33230,10891,0,0,0
8518,33211,10857,0,0,0
8500,33195,10826,0,0,0
8480,33183,10794,0,0,0
8459,33168,10762,0,0,0
8434,33150,10728,0,0,0
8405,33132,10691,0,0,0
8373,33114,10652,0,0,0
8339,33093,10613,0,0,0
8304,33068,10573,0,0,0
8268,33035,10528,0,0,0
8231,32997,10478,0,0,0
8194,32957,10427,0,0,0
8158,32917,10376,0,0,0
8124,32878,10329,0,0,0
8093,32845,10287,0,0,0
8063,32816,10245,0,0,0
8035,32792,10205,0,0,0
8007,32773,10166,0,0,0
7981,32753,10130,0,0,0
7956,32732,10095,0,0,0
7933,32711,10061,0,0,0
7910,32693,10025,0,0,0
7886,32674,9988,0,0,0
7864,32654,9954,0,0,0
7844,32636,9921,0,0,0
7829,32621,9893,0,0,0
7820,32611,9870,0,0,0
7817,32606,9856,0,0,0
7821,32609,9856,0,0,0
7835,32623,9877,0,0,0
7869,32655,9929,0,0,0
7929,32709,10017,0,0,0
8015,32785,10145,0,0,0
8127,32887,10316,0,0,0
8267,33018,10534,0,0,0
8439,33180,10797,0,0,0
8638,33365,11099,0,0,0
8857,33570,11433,0,0,0
9092,33793,11795,0,0,0
9341,34030,12180,0,0,0
9602,34277,12583,0,0,0
9869,34528,12997,0,0,0
10136,34778,13415,0,0,0
10400,35027,13830,0,0,0
10656,35270,14237,0,0,0
10900,35504,14628,0,0,0
11130,35727,15001,0,0,0
11345,35933,15348,0,0,0
11539,36118,15664,0,0,0
11709,36280,15946,0,0,0
11854,36417,16190,0,0,0
11977,36531,16395,0,0,0
12079,36623,16561,0,0,0
12160,36693,16690,0,0,0
12220,36740,16787,0,0,0
12260,36770,16856,0,0,0
12281,36785,16899,0,0,0
12285,36790,16917,0,0,0
12277,36782,16912,0,0,0
12259,36763,16889,0,0,0
12231,36737,16851,0,0,0
12195,36704,16798,0,0,0
12152,36663,16735,0,0,0
12105,36617,16664,0,0,0
12056,36570,16588,0,0,0
12007,36524,16509,0,0,0
11957,36477,16428,0,0,0
11907,36433,16349,0,0,0
11858,36391,16272,0,0,0
11811,36350,16197,0,0,0
11766,36311,16124,0,0,0
11724,36274,16052,0,0,0
11683,36235,15982,0,0,0
11643,36194,15914,0,0,0
11599,36150,15846,0,0,0
11553,36105,15777,0,0,0
11505,36061,15707,0,0,0
11456,36015,15636,0,0,0
11406,35966,15562,0,0,0
11356,35915,15482,0,0,0
11306,35865,15397,0,0,0
11255,35815,15315,0,0,0
11204,35766,15235,0,0,0
11155,35715,15155,0,0,0
11108,35667,15074,0,0,0
11063,35620,14991,0,0,0
11017,35574,14909,0,0,0
10971,35529,14831,0,0,0
10927,35488,14756,0,0,0
10886,35453,14687,0,0,0
10849,35425,14628,0,0,0
10819,35402,14581,0,0,0
10797,35385,14544,0,0,0
10780,35374,14517,0,0,0
10770,35370,14502,0,0,0
10769,35371,14497,0,0,0
10776,35376,14501,0,0,0
10793,35386,14514,0,0,0
10815,35402,14535,0,0,0
10841,35417,14562,0,0,0
10868,35433,14596,0,0,0
10896,35453,14636,0,0,0
10924,35477,14682,0,0,0
10953,35503,14732,0,0,0
10981,35531,14784,0,0,0
11007,35557,14837,0,0,0
11030,35581,14888,0,0,0
11052,35605,14935,0,0,0
11069,35629,14978,0,0,0
11082,35654,15018,0,0,0
11095,35677,15051,0,0,0
11108,35695,15078,0,0,0
11122,35711,15102,0,0,0
11134,35724,15121,0,0,0
11142,35733,15133,0,0,0
11145,35736,15139,0,0,0
11143,35734,15136,0,0,0
11135,35726,15126,0,0,0
11122,35713,15108,0,0,0
11101,35697,15085,0,0,0
11074,35676,15057,0,0,0
11043,35651,15023,0,0,0
11011,35624,14981,0,0,0
10977,35595,14934,0,0,0
10942,35562,14882,0,0,0
10906,35528,14826,0,0,0
10870,35493,14770,0,0,0
10833,35456,14712,0,0,0
10795,35418,14652,0,0,0
10757,35379,14589,0,0,0
10715,35339,14524,0,0,0
10671,35297,14458,0,0,0
10625,35257,14388,0,0,0
10579,35216,14316,0,0,0
10534,35175,14242,0,0,0
10490,35134,14167,0,0,0
10446,35091,14091,0,0,0
10399,35047,14013,0,0,0
10351,35002,13935,0,0,0
10300,34954,13856,0,0,0
10249,34902,13777,0,0,0
10196,34852,13699,0,0,0
10142,34801,13624,0,0,0
10089,34751,13553,0,0,0
10039,34701,13483,0,0,0
9991,34653,13417,0,0,0
9946,34606,13351,0,0,0
9908,34562,13287,0,0,0
9874,34523,13226,0,0,0
9846,34492,13169,0,0,0
9820,34468,13117,0,0,0
9796,34448,13068,0,0,0
9771,34430,13021,0,0,0
9744,34411,12977,0,0,0
9716,34392,12936,0,0,0
9691,34375,12897,0,0,0
9667,34358,12858,0,0,0
9643,34340,12821,0,0,0
9619,34321,12784,0,0,0
9596,34300,12748,0,0,0
9574,34279,12712,0,0,0
9551,34260,12676,0,0,0
9529,34243,12641,0,0,0
9507,34227,12608,0,0,0
9490,34211,12576,0,0,0
9475,34197,12548,0,0,0
9461,34183,12522,0,0,0
9450,34171,12499,0,0,0
9440,34161,12477,0,0,0
9431,34154,12459,0,0,0
9422,34147,12443,0,0,0
9413,34142,12429,0,0,0
9405,34141,12415,0,0,0
9401,34141,12402,0,0,0
9397,34139,12390,0,0,0
9392,34133,12378,0,0,0
9386,34122,12365,0,0,0
9380,34110,12352,0,0,0
9374,34099,12340,0,0,0
9368,34088,12329,0,0,0
9361,34077,12314,0,0,0
9354,34064,12297,0,0,0
9344,34052,12278,0,0,0
9332,34043,12258,0,0,0
9320,34034,12237,0,0,0
9307,34023,12213,0,0,0
9291,34010,12187,0,0,0
9274,33997,12160,0,0,0
9257,33982,12132,0,0,0
9240,33965,12104,0,0,0
9223,33948,12076,0,0,0
9205,33930,12049,0,0,0
9188,33910,12019,0,0,0
9172,33890,11988,0,0,0
9157,33871,11958,0,0,0
9142,33851,11930,0,0,0
9124,33830,11901,0,0,0
9100,33808,11868,0,0,0
9072,33786,11836,0,0,0
9046,33765,11806,0,0,0
9021,33746,11778,0,0,0
8996,33731,11749,0,0,0
8973,33716,11715,0,0,0
8951,33698,11680,0,0,0
8930,33677,11645,0,0,0
8905,33655,11608,0,0,0
8880,33634,11572,0,0,0
8858,33616,11536,0,0,0
8838,33600,11502,0,0,0
8819,33582,11469,0,0,0
8800,33562,11436,0,0,0
8779,33538,11398,0,0,0
8754,33513,11355,0,0,0
8727,33486,11311,0,0,0
8699,33459,11266,0,0,0
8668,33430,11221,0,0,0
8636,33400,11178,0,0,0
8609,33374,11145,0,0,0
8593,33359,11128,0,0,0
8592,33358,11133,0,0,0
8610,33376,11160,0,0,0
8650,33416,11218,0,0,0
8714,33480,11311,0,0,0
8805,33567,11443,0,0,0
8921,33678,11617,0,0,0
9060,33814,11830,0,0,0
9223,33972,12082,0,0,0
9406,34150,12371,0,0,0
9606,34348,12687,0,0,0
9820,34561,13024,0,0,0
10044,34779,13376,0,0,0
10275,35001,13739,0,0,0
10513,35224,14105,0,0,0
10749,35446,14470,0,0,0
10981,35661,14829,0,0,0
11203,35866,15176,0,0,0
11412,36057,15504,0,0,0
11602,36231,15807,0,0,0
11770,36387,16080,0,0,0
11918,36521,16321,0,0,0
12045,36636,16529,0,0,0
12150,36731,16704,0,0,0
12232,36804,16846,0,0,0
12293,36855,16955,0,0,0
12335,36889,17030,0,0,0
12359,36905,17074,0,0,0
12367,36907,17092,0,0,0
12361,36896,17089,0,0,0
12342,36874,17067,0,0,0
12313,36844,17029,0,0,0
12274,36808,16978,0,0,0
12228,36768,16918,0,0,0
12178,36722,16848,0,0,0
12124,36670,16771,0,0,0
12067,36614,16689,0,0,0
12006,36557,16601,0,0,0
11942,36502,16510,0,0,0
11881,36449,16420,0,0,0
11824,36396,16333,0,0,0
11768,36342,16245,0,0,0
11711,36286,16155,0,0,0
11654,36231,16062,0,0,0
11600,36176,15968,0,0,0
11545,36119,15874,0,0,0
11489,36063,15780,0,0,0
11433,36006,15687,0,0,0
11376,35948,15595,0,0,0
11318,35891,15502,0,0,0
11256,35835,15404,0,0,0
11189,35777,15297,0,0,0
11119,35717,15183,0,0,0
11047,35652,15065,0,0,0
10976,35585,14944,0,0,0
10905,35518,14825,0,0,0
10834,35452,14709,0,0,0
10768,35390,14601,0,0,0
10708,35334,14500,0,0,0
10657,35284,14408,0,0,0
10613,35241,14328,0,0,0
10575,35203,14261,0,0,0
10547,35173,14206,0,0,0
10528,35153,14163,0,0,0
10514,35139,14130,0,0,0
10506,35134,14112,0,0,0
10503,35136,14108,0,0,0
10507,35145,14119,0,0,0
10520,35161,14142,0,0,0
10542,35184,14177,0,0,0
10570,35212,14221,0,0,0
10602,35244,14270,0,0,0
10637,35279,14326,0,0,0
10676,35316,14388,0,0,0
10715,35354,14456,0,0,0
10753,35389,14526,0,0,0
10787,35420,14593,0,0,0
10819,35446,14654,0,0,0
10850,35470,14706,0,0,0
10876,35491,14750,0,0,0
10895,35507,14785,0,0,0
10905,35518,14811,0,0,0
10910,35525,14829,0,0,0
10910,35528,14840,0,0,0
10904,35528,14844,0,0,0
10894,35522,14840,0,0,0
10878,35510,14828,0,0,0
10858,35491,14812,0,0,0
10836,35469,14789,0,0,0
10811,35444,14759,0,0,0
10782,35418,14722,0,0,0
10747,35390,14679,0,0,0
10708,35359,14631,0,0,0
10668,35326,14579,0,0,0
10628,35292,14525,0,0,0
10593,35256,14468,0,0,0
10560,35220,14408,0,0,0
10525,35182,14346,0,0,0
10488,35143,14282,0,0,0
10451,35104,14217,0,0,0
10414,35065,14152,0,0,0
10375,35024,14085,0,0,0
10329,34981,14016,0,0,0
10276,34936,13941,0,0,0
10220,34889,13863,0,0,0
10167,34844,13788,0,0,0
10119,34799,13714,0,0,0
10074,34753,13639,0,0,0
10029,34709,13565,0,0,0
9985,34670,13491,0,0,0
9943,34635,13419,0,0,0
9900,34603,13353,0,0,0
9856,34572,13293,0,0,0
9814,34539,13237,0,0,0
9775,34507,13185,0,0,0
9737,34477,13133,0,0,0
9702,34447,13078,0,0,0
9670,34418,13023,0,0,0
9640,34390,12969,0,0,0
9611,34364,12916,0,0,0
9582,34337,12863,0,0,0
9554,34311,12810,0,0,0
9526,34287,12759,0,0,0
9496,34259,12707,0,0,0
9464,34226,12654,0,0,0
9434,34192,12604,0,0,0
9405,34162,12557,0,0,0
9377,34133,12510,0,0,0
9350,34106,12462,0,0,0
9324,34081,12416,0,0,0
9299,34061,12375,0,0,0
9276,34043,12339,0,0,0
9255,34025,12306,0,0,0
9236,34009,12272,0,0,0
9219,33995,12239,0,0,0
9203,33982,12208,0,0,0
9190,33972,12182,0,0,0
9179,33964,12161,0,0,0
9170,33956,12142,0,0,0
9161,33949,12123,0,0,0
9154,33945,12104,0,0,0
9149,33941,12085,0,0,0
9143,33933,12066,0,0,0
9134,33921,12045,0,0,0
9124,33906,12025,0,0,0
9115,33892,12007,0,0,0
9104,33877,11988,0,0,0
9094,33862,11968,0,0,0
9085,33848,11948,0,0,0
9074,33831,11930,0,0,0
9061,33811,11913,0,0,0
9048,33793,11894,0,0,0
9039,33779,11873,0,0,0
9031,33766,11853,0,0,0
9022,33752,11829,0,0,0
9012,33738,11804,0,0,0
9002,33727,11781,0,0,0
8990,33717,11761,0,0,0
8979,33709,11742,0,0,0
8969,33703,11724,0,0,0
8961,33699,11707,0,0,0
8953,33693,11690,0,0,0
8945,33684,11674,0,0,0
8940,33677,11661,0,0,0
8940,33676,11653,0,0,0
8951,33685,11659,0,0,0
8975,33709,11685,0,0,0
9015,33749,11738,0,0,0
9074,33807,11823,0,0,0
9153,33884,11939,0,0,0
9255,33983,12089,0,0,0
9383,34105,12278,0,0,0
9532,34251,12505,0,0,0
9699,34415,12767,0,0,0
9882,34595,13062,0,0,0
10079,34785,13382,0,0,0
10288,34984,13722,0,0,0
10508,35190,14076,0,0,0
10732,35399,14438,0,0,0
10956,35606,14800,0,0,0
11176,35810,15157,0,0,0
11390,36007,15505,0,0,0
11592,36195,15839,0,0,0
11781,36372,16156,0,0,0
11957,36536,16450,0,0,0
12119,36689,16717,0,0,0
12262,36826,16953,0,0,0
12385,36944,17154,0,0,0
12487,37042,17322,0,0,0
12566,37119,17455,0,0,0
12622,37175,17559,0,0,0
12660,37213,17635,0,0,0
12682,37235,17683,0,0,0
12690,37245,17708,0,0,0
12686,37242,17713,0,0,0
12670,37226,17699,0,0,0
12647,37202,17667,0,0,0
12619,37171,17621,0,0,0
12587,37136,17564,0,0,0
12551,37098,17499,0,0,0
12509,37057,17429,0,0,0
12459,37012,17350,0,0,0
12404,36958,17264,0,0,0
12347,36900,17174,0,0,0
12288,36842,17083,0,0,0
12228,36788,16991,0,0,0
12171,36738,16900,0,0,0
12119,36692,16813,0,0,0
12072,36647,16733,0,0,0
12029,36605,16661,0,0,0
11989,36563,16593,0,0,0
11947,36515,16522,0,0,0
11900,36461,16446,0,0,0
11846,36403,16364,0,0,0
11788,36343,16274,0,0,0
11728,36283,16179,0,0,0
11667,36223,16080,0,0,0
11604,36162,15976,0,0,0
11537,36102,15870,0,0,0
11467,36041,15762,0,0,0
11398,35978,15653,0,0,0
11331,35913,15545,0,0,0
11264,35849,15437,0,0,0
11199,35791,15334,0,0,0
11139,35741,15240,0,0,0
11087,35696,15157,0,0,0
11043,35657,15085,0,0,0
11006,35621,15024,0,0,0
10976,35589,14970,0,0,0
10950,35566,14926,0,0,0
10930,35550,14892,0,0,0
10916,35538,14865,0,0,0
10908,35531,14846,0,0,0
10905,35529,14838,0,0,0
10909,35533,14843,0,0,0
10923,35543,14858,0,0,0
10942,35557,14880,0,0,0
10964,35573,14907,0,0,0
10988,35592,14938,0,0,0
11011,35615,14973,0,0,0
11032,35638,15012,0,0,0
11054,35660,15055,0,0,0
11079,35681,15100,0,0,0
11105,35703,15144,0,0,0
11132,35728,15186,0,0,0
11155,35752,15226,0,0,0
11175,35771,15262,0,0,0
11192,35786,15290,0,0,0
11205,35798,15308,0,0,0
11213,35807,15318,0,0,0
11216,35809,15322,0,0,0
11211,35804,15318,0,0,0
11200,35793,15303,0,0,0
11182,35777,15280,0,0,0
11159,35758,15249,0,0,0
11129,35733,15211,0,0,0
11095,35702,15164,0,0,0
11059,35668,15112,0,0,0
11023,35633,15057,0,0,0
10985,35601,15003,0,0,0
10945,35569,14948,0,0,0
10904,35536,14894,0,0,0
10864,35503,14839,0,0,0
10826,35469,14781,0,0,0
10787,35434,14721,0,0,0
10747,35397,14659,0,0,0
10705,35360,14594,0,0,0
10662,35321,14528,0,0,0
10620,35282,14461,0,0,0
10578,35244,14395,0,0,0
10538,35205,14328,0,0,0
10495,35163,14258,0,0,0
10449,35119,14183,0,0,0
10402,35076,14107,0,0,0
10354,35032,14031,0,0,0
10305,34986,13955,0,0,0
10252,34940,13879,0,0,0
10198,34894,13804,0,0,0
10147,34851,13732,0,0,0
10099,34810,13663,0,0,0
10054,34772,13597,0,0,0
10011,34734,13535,0,0,0
9971,34698,13478,0,0,0
9936,34665,13425,0,0,0
9906,34633,13374,0,0,0
9876,34602,13323,0,0,0
9846,34571,13274,0,0,0
9816,34543,13224,0,0,0
9785,34515,13176,0,0,0
9757,34488,13129,0,0,0
9732,34460,13082,0,0,0
9710,34436,13035,0,0,0
9688,34418,12989,0,0,0
9666,34401,12947,0,0,0
9647,34385,12907,0,0,0
9633,34368,12869,0,0,0
9620,34352,12833,0,0,0
9605,34336,12798,0,0,0
9587,34317,12761,0,0,0
9569,34297,12724,0,0,0
9554,34277,12688,0,0,0
9538,34254,12654,0,0,0
9520,34229,12622,0,0,0
9500,34204,12589,0,0,0
9475,34178,12556,0,0,0
9448,34154,12522,0,0,0
9422,34131,12488,0,0,0
9401,34111,12455,0,0,0
9383,34095,12425,0,0,0
9370,34083,12400,0,0,0
9361,34073,12379,0,0,0
9354,34067,12360,0,0,0
9349,34064,12341,0,0,0
9344,34060,12324,0,0,0
9338,34057,12309,0,0,0
9330,34054,12296,0,0,0
9324,34052,12285,0,0,0
9318,34049,12272,0,0,0
9311,34044,12258,0,0,0
9302,34037,12243,0,0,0
9294,34027,12230,0,0,0
9282,34017,12217,0,0,0
9269,34008,12200,0,0,0
9253,33998,12178,0,0,0
9238,33985,12153,0,0,0
9221,33971,12125,0,0,0
9203,33954,12093,0,0,0
9184,33934,12060,0,0,0
9167,33914,12027,0,0,0
9149,33893,11996,0,0,0
9128,33871,11966,0,0,0
9110,33849,11939,0,0,0
9092,33827,11913,0,0,0
9072,33805,11886,0,0,0
9051,33782,11857,0,0,0
9031,33760,11829,0,0,0
9013,33741,11801,0,0,0
8996,33723,11770,0,0,0
8978,33705,11736,0,0,0
8955,33685,11699,0,0,0
8930,33663,11660,0,0,0
8903,33642,11620,0,0,0
8875,33621,11577,0,0,0
8848,33598,11531,0,0,0
8821,33572,11484,0,0,0
8794,33546,11438,0,0,0
8770,33523,11398,0,0,0
8748,33506,11365,0,0,0
8730,33493,11341,0,0,0
8719,33486,11330,0,0,0
8721,33490,11338,0,0,0
8742,33509,11373,0,0,0
8786,33544,11435,0,0,0
8852,33602,11531,0,0,0
8944,33686,11669,0,0,0
9065,33800,11854,0,0,0
9217,33946,12086,0,0,0
9394,34120,12361,0,0,0
9598,34319,12674,0,0,0
9826,34539,13022,0,0,0
10074,34774,13401,0,0,0
10336,35021,13804,0,0,0
10606,35275,14224,0,0,0
10877,35530,14649,0,0,0
11143,35781,15071,0,0,0
11401,36023,15487,0,0,0
11644,36252,15891,0,0,0
11872,36467,16273,0,0,0
12080,36664,16625,0,0,0
12266,36844,16947,0,0,0
12434,37007,17238,0,0,0
12585,37151,17496,0,0,0
12716,37274,17720,0,0,0
12826,37376,17909,0,0,0
12915,37460,18063,0,0,0
12985,37528,18183,0,0,0
13040,37581,18273,0,0,0
13083,37616,18337,0,0,0
13112,37637,18378,0,0,0
13128,37649,18398,0,0,0
13132,37652,18399,0,0,0
13123,37646,18381,0,0,0
13104,37632,18346,0,0,0
13075,37609,18300,0,0,0
13039,37578,18244,0,0,0
13000,37540,18181,0,0,0
12960,37497,18115,0,0,0
12921,37455,18049,0,0,0
12882,37415,17986,0,0,0
12842,37375,17926,0,0,0
12805,37334,17868,0,0,0
12771,37294,17813,0,0,0
12737,37256,17760,0,0,0
12704,37222,17707,0,0,0
12676,37194,17660,0,0,0
12656,37171,17619,0,0,0
12642,37152,17584,0,0,0
12632,37138,17554,0,0,0
12622,37132,17527,0,0,0
12611,37126,17497,0,0,0
12597,37115,17462,0,0,0
12578,37100,17423,0,0,0
12556,37083,17377,0,0,0
12529,37061,17326,0,0,0
12498,37032,17265,0,0,0
12462,36998,17195,0,0,0
12421,36958,17118,0,0,0
12376,36913,17037,0,0,0
12327,36868,16953,0,0,0
12276,36823,16869,0,0,0
12228,36780,16789,0,0,0
12181,36741,16714,0,0,0
12140,36705,16644,0,0,0
12104,36667,16580,0,0,0
12072,36630,16520,0,0,0
12044,36598,16467,0,0,0
12019,36571,16422,0,0,0
12000,36546,16386,0,0,0
11984,36523,16359,0,0,0
11973,36504,16340,0,0,0
11970,36494,16331,0,0,0
11974,36494,16333,0,0,0
11984,36506,16344,0,0,0
11998,36527,16360,0,0,0
12015,36552,16378,0,0,0
12034,36580,16400,0,0,0
12054,36606,16427,0,0,0
12073,36629,16457,0,0,0
12093,36649,16489,0,0,0
12116,36669,16522,0,0,0
12141,36687,16553,0,0,0
12162,36702,16581,0,0,0
12178,36714,16604,0,0,0
12187,36720,16623,0,0,0
12190,36721,16636,0,0,0
12188,36720,16641,0,0,0
12180,36716,16637,0,0,0
12167,36709,16625,0,0,0
12148,36698,16610,0,0,0
12125,36683,16589,0,0,0
12097,36661,16559,0,0,0
12065,36629,16519,0,0,0
12029,36590,16471,0,0,0
11989,36546,16419,0,0,0
11950,36501,16362,0,0,0
11910,36462,16305,0,0,0
11871,36424,16247,0,0,0
11830,36385,16186,0,0,0
11790,36347,16123,0,0,0
11750,36309,16059,0,0,0
11711,36274,15996,0,0,0
11672,36241,15931,0,0,0
11632,36208,15866,0,0,0
11592,36174,15801,0,0,0
11553,36138,15734,0,0,0
11511,36101,15663,0,0,0
11466,36064,15591,0,0,0
11422,36027,15521,0,0,0
11379,35988,15452,0,0,0
11335,35947,15383,0,0,0
11289,35907,15315,0,0,0
11241,35866,15250,0,0,0
11191,35825,15186,0,0,0
11143,35783,15118,0,0,0
11099,35739,15050,0,0,0
11056,35694,14981,0,0,0
11014,35650,14911,0,0,0
10970,35608,14841,0,0,0
10926,35569,14772,0,0,0
10885,35530,14706,0,0,0
10847,35495,14644,0,0,0
10809,35460,14582,0,0,0
10774,35425,14522,0,0,0
10740,35391,14464,0,0,0
10707,35357,14410,0,0,0
10674,35326,14361,0,0,0
10646,35300,14318,0,0,0
10625,35277,14278,0,0,0
10610,35257,14243,0,0,0
10598,35241,14211,0,0,0
10588,35227,14182,0,0,0
10579,35216,14153,0,0,0
10571,35205,14123,0,0,0
10560,35193,14093,0,0,0
10546,35180,14063,0,0,0
10529,35163,14033,0,0,0
10509,35144,14000,0,0,0
10487,35122,13962,0,0,0
10466,35100,13922,0,0,0
10446,35078,13881,0,0,0
10425,35055,13838,0,0,0
10405,35033,13796,0,0,0
10383,35009,13757,0,0,0
10361,34982,13720,0,0,0
10338,34955,13685,0,0,0
10313,34930,13653,0,0,0
10285,34907,13620,0,0,0
10255,34881,13587,0,0,0
10226,34853,13554,0,0,0
10198,34827,13523,0,0,0
10171,34805,13493,0,0,0
10145,34788,13468,0,0,0
10122,34774,13443,0,0,0
10101,34762,13415,0,0,0
10083,34750,13388,0,0,0
10068,34738,13363,0,0,0
10057,34727,13335,0,0,0
10048,34719,13306,0,0,0
10039,34711,13280,0,0,0
10026,34703,13259,0,0,0
10014,34694,13240,0,0,0
10006,34685,13224,0,0,0
9999,34675,13207,0,0,0
9992,34663,13184,0,0,0
9983,34648,13158,0,0,0
9971,34632,13130,0,0,0
9957,34612,13100,0,0,0
9941,34590,13068,0,0,0
9922,34568,13037,0,0,0
9902,34546,13005,0,0,0
9879,34524,12972,0,0,0
9853,34502,12937,0,0,0
9828,34480,12902,0,0,0
9802,34457,12866,0,0,0
9774,34433,12827,0,0,0
9745,34407,12785,0,0,0
9714,34379,12741,0,0,0
9682,34349,12698,0,0,0
9654,34318,12658,0,0,0
9631,34290,12619,0,0,0
9613,34265,12582,0,0,0
9597,34243,12544,0,0,0
9579,34227,12508,0,0,0
9558,34213,12475,0,0,0
9536,34198,12443,0,0,0
9511,34185,12410,0,0,0
9485,34171,12373,0,0,0
9460,34158,12337,0,0,0
9439,34144,12302,0,0,0
9420,34129,12266,0,0,0
9404,34112,12230,0,0,0
9385,34094,12192,0,0,0
9365,34075,12154,0,0,0
9346,34055,12117,0,0,0
9325,34036,12080,0,0,0
9299,34014,12042,0,0,0
9270,33989,12002,0,0,0
9240,33963,11960,0,0,0
9209,33936,11915,0,0,0
9177,33908,11869,0,0,0
9144,33878,11824,0,0,0
9110,33847,11781,0,0,0
9075,33818,11741,0,0,0
9044,33792,11708,0,0,0
9021,33770,11685,0,0,0
9010,33758,11676,0,0,0
9016,33764,11690,0,0,0
9047,33793,11739,0,0,0
9106,33849,11829,0,0,0
9197,33936,11965,0,0,0
9322,34054,12149,0,0,0
9477,34200,12381,0,0,0
9660,34371,12661,0,0,0
9868,34566,12986,0,0,0
10101,34785,13350,0,0,0
10355,35025,13743,0,0,0
10624,35281,14157,0,0,0
10901,35545,14585,0,0,0
11180,35812,15020,0,0,0
11456,36076,15455,0,0,0
11727,36335,15884,0,0,0
11987,36584,16302,0,0,0
12233,36817,16701,0,0,0
12463,37032,17076,0,0,0
12675,37226,17422,0,0,0
12865,37400,17735,0,0,0
13034,37553,18013,0,0,0
13182,37686,18255,0,0,0
13307,37800,18464,0,0,0
13410,37895,18639,0,0,0
13492,37970,18779,0,0,0
13556,38027,18888,0,0,0
13603,38070,18968,0,0,0
13632,38099,19021,0,0,0
13644,38110,19051,0,0,0
13643,38105,19056,0,0,0
13630,38087,19039,0,0,0
13606,38060,19004,0,0,0
13575,38028,18957,0,0,0
13541,37994,18905,0,0,0
13504,37960,18848,0,0,0
13465,37925,18789,0,0,0
13426,37889,18728,0,0,0
13387,37852,18667,0,0,0
13347,37818,18609,0,0,0
13311,37785,18553,0,0,0
13282,37754,18501,0,0,0
13257,37727,18453,0,0,0
13233,37703,18410,0,0,0
13211,37680,18371,0,0,0
13189,37658,18330,0,0,0
13167,37635,18288,0,0,0
13142,37609,18246,0,0,0
13115,37580,18201,0,0,0
13088,37550,18153,0,0,0
13060,37518,18102,0,0,0
13029,37479,18046,0,0,0
12991,37432,17979,0,0,0
12946,37380,17903,0,0,0
12894,37327,17820,0,0,0
12838,37273,17733,0,0,0
12780,37221,17643,0,0,0
12722,37170,17556,0,0,0
12662,37120,17471,0,0,0
12604,37072,17387,0,0,0
12551,37028,17305,0,0,0
12504,36988,17227,0,0,0
12465,36954,17155,0,0,0
12431,36922,17090,0,0,0
12400,36894,17032,0,0,0
12373,36873,16983,0,0,0
12353,36860,16942,0,0,0
12340,36850,16911,0,0,0
12335,36842,16891,0,0,0
12335,36839,16881,0,0,0
12340,36842,16880,0,0,0
12348,36849,16886,0,0,0
12360,36856,16897,0,0,0
12374,36866,16915,0,0,0
12393,36880,16941,0,0,0
12414,36899,16970,0,0,0
12433,36919,17000,0,0,0
12452,36937,17031,0,0,0
12475,36955,17061,0,0,0
12498,36971,17090,0,0,0
12519,36987,17115,0,0,0
12538,37002,17135,0,0,0
12553,37015,17149,0,0,0
12562,37025,17159,0,0,0
12565,37029,17163,0,0,0
12563,37029,17163,0,0,0
12555,37024,17157,0,0,0
12542,37011,17145,0,0,0
12525,36993,17126,0,0,0
12509,36975,17102,0,0,0
12492,36954,17075,0,0,0
12473,36932,17044,0,0,0
12451,36909,17010,0,0,0
12424,36887,16971,0,0,0
12397,36863,16930,0,0,0
12367,36834,16885,0,0,0
12331,36800,16831,0,0,0
12293,36765,16771,0,0,0
12254,36728,16710,0,0,0
12212,36688,16650,0,0,0
12167,36645,16590,0,0,0
12122,36602,16531,0,0,0
12078,36559,16470,0,0,0
12032,36518,16405,0,0,0
11984,36475,16336,0,0,0
11932,36431,16264,0,0,0
11879,36385,16189,0,0,0
11826,36339,16111,0,0,0
11776,36296,16033,0,0,0
11729,36253,15954,0,0,0
11683,36208,15875,0,0,0
11637,36162,15795,0,0,0
11588,36117,15715,0,0,0
11536,36071,15637,0,0,0
11484,36023,15560,0,0,0
11434,35978,15485,0,0,0
11390,35937,15417,0,0,0
11352,35903,15356,0,0,0
11321,35873,15300,0,0,0
11294,35845,15248,0,0,0
11268,35821,15199,0,0,0
11241,35798,15154,0,0,0
11212,35776,15111,0,0,0
11185,35755,15070,0,0,0
11160,35733,15029,0,0,0
11136,35709,14987,0,0,0
11112,35684,14943,0,0,0
11087,35656,14897,0,0,0
11061,35627,14850,0,0,0
11035,35599,14804,0,0,0
11007,35570,14757,0,0,0
10977,35541,14708,0,0,0
10948,35516,14662,0,0,0
10922,35494,14619,0,0,0
10897,35472,14577,0,0,0
10871,35450,14535,0,0,0
10846,35429,14496,0,0,0
10821,35409,14464,0,0,0
10798,35389,14436,0,0,0
10781,35371,14409,0,0,0
10768,35356,14382,0,0,0
10757,35341,14356,0,0,0
10746,35326,14327,0,0,0
10732,35310,14293,0,0,0
10716,35295,14258,0,0,0
10701,35282,14224,0,0,0
10689,35270,14195,0,0,0
10680,35258,14170,0,0,0
10671,35246,14145,0,0,0
10660,35234,14118,0,0,0
10646,35219,14091,0,0,0
10631,35205,14066,0,0,0
10615,35194,14041,0,0,0
10600,35184,14017,0,0,0
10582,35171,13990,0,0,0
10562,35155,13962,0,0,0
10540,35137,13936,0,0,0
10522,35118,13910,0,0,0
10504,35098,13881,0,0,0
10483,35077,13849,0,0,0
10463,35055,13818,0,0,0
10442,35031,13785,0,0,0
10419,35008,13751,0,0,0
10394,34985,13716,0,0,0
10370,34962,13681,0,0,0
10347,34938,13648,0,0,0
10325,34914,13615,0,0,0
10302,34891,13581,0,0,0
10274,34865,13545,0,0,0
10244,34837,13507,0,0,0
10210,34806,13466,0,0,0
10175,34778,13424,0,0,0
10140,34752,13384,0,0,0
10106,34726,13343,0,0,0
10075,34698,13300,0,0,0
10049,34672,13258,0,0,0
10026,34650,13218,0,0,0
10007,34632,13179,0,0,0
9988,34616,13138,0,0,0
9965,34601,13095,0,0,0
9939,34583,13054,0,0,0
9911,34563,13011,0,0,0
9886,34540,12969,0,0,0
9860,34515,12927,0,0,0
9834,34489,12884,0,0,0
9811,34462,12838,0,0,0
9789,34435,12793,0,0,0
9765,34409,12748,0,0,0
9737,34381,12704,0,0,0
9708,34352,12662,0,0,0
9678,34324,12624,0,0,0
9648,34298,12591,0,0,0
9618,34271,12558,0,0,0
9590,34244,12524,0,0,0
9562,34217,12485,0,0,0
9535,34191,12442,0,0,0
9509,34166,12398,0,0,0
9483,34141,12353,0,0,0
9456,34117,12311,0,0,0
9428,34094,12273,0,0,0
9399,34074,12237,0,0,0
9371,34054,12203,0,0,0
9344,34032,12170,0,0,0
9318,34010,12137,0,0,0
9292,33987,12102,0,0,0
9263,33961,12061,0,0,0
9232,33932,12016,0,0,0
9199,33901,11969,0,0,0
9168,33869,11919,0,0,0
9138,33837,11869,0,0,0
9109,33805,11819,0,0,0
9082,33778,11775,0,0,0
9059,33757,11738,0,0,0
9042,33744,11712,0,0,0
9036,33741,11704,0,0,0
9046,33752,11720,0,0,0
9078,33784,11766,0,0,0
9135,33842,11847,0,0,0
9218,33926,11970,0,0,0
9329,34036,12134,0,0,0
9468,34171,12343,0,0,0
9636,34331,12598,0,0,0
9829,34516,12894,0,0,0
10046,34721,13226,0,0,0
10283,34944,13591,0,0,0
10536,35183,13982,0,0,0
10801,35435,14391,0,0,0
11071,35693,14812,0,0,0
11342,35953,15238,0,0,0
11609,36208,15663,0,0,0
11868,36453,16079,0,0,0
12116,36687,16482,0,0,0
12350,36908,16867,0,0,0
12569,37113,17229,0,0,0
12773,37302,17563,0,0,0
12958,37471,17866,0,0,0
13120,37618,18131,0,0,0
13260,37745,18357,0,0,0
13377,37852,18548,0,0,0
13473,37938,18706,0,0,0
13548,38005,18833,0,0,0
13599,38053,18929,0,0,0
13631,38084,18996,0,0,0
13647,38098,19037,0,0,0
13652,38099,19055,0,0,0
13646,38088,19051,0,0,0
13631,38070,19030,0,0,0
13609,38045,18998,0,0,0
13580,38017,18961,0,0,0
13549,37989,18917,0,0,0
13517,37962,18869,0,0,0
13486,37933,18818,0,0,0
13455,37903,18766,0,0,0
13422,37873,18713,0,0,0
13388,37841,18659,0,0,0
13355,37808,18607,0,0,0
13326,37777,18559,0,0,0
13298,37750,18512,0,0,0
13271,37726,18468,0,0,0
13246,37703,18424,0,0,0
13224,37681,18379,0,0,0
13204,37660,18333,0,0,0
13181,37640,18286,0,0,0
13155,37616,18238,0,0,0
13127,37586,18184,0,0,0
13094,37550,18125,0,0,0
13059,37511,18063,0,0,0
13019,37470,17998,0,0,0
12974,37423,17928,0,0,0
12926,37374,17852,0,0,0
12874,37325,17771,0,0,0
12819,37276,17685,0,0,0
12762,37226,17597,0,0,0
12706,37178,17511,0,0,0
12651,37131,17428,0,0,0
12598,37086,17347,0,0,0
12552,37045,17274,0,0,0
12514,37009,17209,0,0,0
12480,36978,17151,0,0,0
12447,36952,17098,0,0,0
12419,36930,17053,0,0,0
12399,36912,17022,0,0,0
12389,36900,17004,0,0,0
12388,36893,16999,0,0,0
12395,36893,17001,0,0,0
12406,36900,17011,0,0,0
12421,36911,17029,0,0,0
12440,36927,17057,0,0,0
12464,36949,17089,0,0,0
12493,36980,17127,0,0,0
12523,37013,17167,0,0,0
12551,37040,17208,0,0,0
12577,37063,17249,0,0,0
12602,37088,17290,0,0,0
12628,37116,17333,0,0,0
12654,37145,17376,0,0,0
12677,37172,17414,0,0,0
12696,37195,17447,0,0,0
12706,37213,17472,0,0,0
12710,37226,17489,0,0,0
12709,37236,17498,0,0,0
12706,37240,17500,0,0,0
12699,37237,17494,0,0,0
12690,37225,17480,0,0,0
12680,37209,17459,0,0,0
12666,37192,17430,0,0,0
12648,37170,17395,0,0,0
12625,37143,17356,0,0,0
12597,37110,17315,0,0,0
12566,37074,17269,0,0,0
12531,37035,17218,0,0,0
12495,36997,17163,0,0,0
12457,36958,17105,0,0,0
12415,36916,17041,0,0,0
12371,36871,16972,0,0,0
12324,36823,16900,0,0,0
12275,36771,16825,0,0,0
12228,36721,16746,0,0,0
12182,36674,16669,0,0,0
12132,36628,16595,0,0,0
12081,36583,16523,0,0,0
12031,36540,16451,0,0,0
11983,36500,16378,0,0,0
11937,36462,16309,0,0,0
11892,36426,16244,0,0,0
11849,36389,16183,0,0,0
11805,36350,16123,0,0,0
11761,36311,16063,0,0,0
11719,36271,16004,0,0,0
11680,36231,15943,0,0,0
11641,36192,15881,0,0,0
11603,36155,15818,0,0,0
11566,36120,15756,0,0,0
11530,36085,15695,0,0,0
11493,36048,15632,0,0,0
11455,36012,15571,0,0,0
11420,35977,15512,0,0,0
11386,35944,15455,0,0,0
11351,35910,15399,0,0,0
11317,35875,15344,0,0,0
11285,35840,15290,0,0,0
11255,35806,15238,0,0,0
11227,35777,15190,0,0,0
11203,35753,15142,0,0,0
11180,35732,15097,0,0,0
11159,35712,15054,0,0,0
11142,35696,15015,0,0,0
11128,35681,14979,0,0,0
11113,35664,14946,0,0,0
11095,35647,14913,0,0,0
11076,35629,14880,0,0,0
11055,35611,14848,0,0,0
11033,35593,14816,0,0,0
11008,35574,14783,0,0,0
10980,35553,14752,0,0,0
10952,35529,14722,0,0,0
10924,35502,14692,0,0,0
10896,35474,14661,0,0,0
10872,35450,14628,0,0,0
10850,35431,14595,0,0,0
10831,35412,14563,0,0,0
10815,35394,14533,0,0,0
10800,35380,14503,0,0,0
10786,35367,14474,0,0,0
10772,35353,14446,0,0,0
10758,35338,14417,0,0,0
10746,35324,14389,0,0,0
10734,35312,14362,0,0,0
10723,35301,14337,0,0,0
10710,35289,14312,0,0,0
10698,35276,14287,0,0,0
10686,35264,14264,0,0,0
10674,35256,14244,0,0,0
10665,35252,14226,0,0,0
10655,35247,14210,0,0,0
10645,35238,14193,0,0,0
10633,35226,14173,0,0,0
10618,35212,14148,0,0,0
10600,35194,14119,0,0,0
10580,35175,14088,0,0,0
10557,35155,14054,0,0,0
10533,35134,14018,0,0,0
10509,35113,13980,0,0,0
10482,35089,13940,0,0,0
10456,35063,13900,0,0,0
10430,35035,13860,0,0,0
10404,35007,13819,0,0,0
10380,34979,13780,0,0,0
10358,34952,13744,0,0,0
10334,34927,13711,0,0,0
10310,34904,13678,0,0,0
10287,34883,13644,0,0,0
10265,34864,13609,0,0,0
10245,34846,13575,0,0,0
10225,34829,13541,0,0,0
10207,34813,13507,0,0,0
10191,34797,13470,0,0,0
10174,34782,13432,0,0,0
10158,34768,13396,0,0,0
10143,34756,13362,0,0,0
10126,34741,13329,0,0,0
10107,34725,13299,0,0,0
10091,34710,13276,0,0,0
10083,34701,13261,0,0,0
10086,34702,13260,0,0,0
10104,34716,13280,0,0,0
10138,34746,13329,0,0,0
10189,34796,13408,0,0,0
10259,34867,13522,0,0,0
10355,34961,13677,0,0,0
10477,35081,13873,0,0,0
10625,35224,14108,0,0,0
10797,35389,14377,0,0,0
10990,35574,14674,0,0,0
11199,35775,14997,0,0,0
11419,35988,15341,0,0,0
11648,36206,15698,0,0,0
11879,36425,16061,0,0,0
12109,36641,16424,0,0,0
12332,36848,16782,0,0,0
12547,37047,17128,0,0,0
12751,37237,17457,0,0,0
12939,37415,17763,0,0,0
13109,37576,18043,0,0,0
13263,37717,18296,0,0,0
13398,37838,18519,0,0,0
13516,37941,18711,0,0,0
13616,38028,18875,0,0,0
13695,38099,19009,0,0,0
13754,38154,19117,0,0,0
13798,38193,19200,0,0,0
13826,38219,19257,0,0,0
13837,38234,19290,0,0,0
13835,38239,19302,0,0,0
13823,38235,19295,0,0,0
13804,38222,19275,0,0,0
13778,38202,19244,0,0,0
13749,38176,19201,0,0,0
13720,38147,19152,0,0,0
13692,38113,19098,0,0,0
13662,38075,19040,0,0,0
13629,38034,18979,0,0,0
13593,37993,18915,0,0,0
13557,37952,18849,0,0,0
13520,37914,18782,0,0,0
13485,37879,18716,0,0,0
13451,37846,18652,0,0,0
13418,37811,18588,0,0,0
13388,37772,18524,0,0,0
13356,37732,18460,0,0,0
13320,37691,18392,0,0,0
13277,37650,18320,0,0,0
13229,37606,18240,0,0,0
13180,37557,18153,0,0,0
13127,37502,18062,0,0,0
13066,37441,17967,0,0,0
12997,37379,17865,0,0,0
12923,37316,17757,0,0,0
12850,37254,17646,0,0,0
12781,37194,17538,0,0,0
12714,37134,17433,0,0,0
12654,37076,17334,0,0,0
12600,37026,17242,0,0,0
12552,36984,17157,0,0,0
12509,36946,17084,0,0,0
12473,36912,17023,0,0,0
12444,36883,16973,0,0,0
12422,36858,16931,0,0,0
12408,36837,16899,0,0,0
12400,36825,16881,0,0,0
12397,36821,16877,0,0,0
12398,36825,16886,0,0,0
12405,36836,16904,0,0,0
12419,36852,16927,0,0,0
12439,36873,16956,0,0,0
12464,36899,16991,0,0,0
12492,36929,17033,0,0,0
12523,36961,17081,0,0,0
12555,36992,17131,0,0,0
12588,37022,17181,0,0,0
12623,37051,17231,0,0,0
12657,37082,17281,0,0,0
12688,37112,17328,0,0,0
12714,37141,17371,0,0,0
12733,37165,17407,0,0,0
12746,37183,17434,0,0,0
12753,37191,17450,0,0,0
12755,37189,17456,0,0,0
12751,37180,17453,0,0,0
12740,37164,17439,0,0,0
12722,37143,17417,0,0,0
12696,37119,17390,0,0,0
12663,37092,17356,0,0,0
12628,37061,17314,0,0,0
12590,37025,17264,0,0,0
12553,36985,17211,0,0,0
12517,36945,17157,0,0,0
12483,36906,17099,0,0,0
12448,36868,17036,0,0,0
12411,36828,16970,0,0,0
12373,36791,16904,0,0,0
12334,36756,16837,0,0,0
12297,36722,16773,0,0,0
12264,36689,16713,0,0,0
12229,36654,16653,0,0,0
12194,36620,16592,0,0,0
12159,36584,16528,0,0,0
12122,36548,16463,0,0,0
12081,36513,16397,0,0,0
12036,36476,16331,0,0,0
11990,36438,16264,0,0,0
11943,36400,16196,0,0,0
11897,36363,16126,0,0,0
11851,36324,16055,0,0,0
11805,36280,15981,0,0,0
11758,36237,15906,0,0,0
11714,36197,15831,0,0,0
11670,36159,15760,0,0,0
11628,36124,15692,0,0,0
11588,36089,15627,0,0,0
11552,36057,15563,0,0,0
11518,36024,15503,0,0,0
11483,35991,15450,0,0,0
11449,35961,15403,0,0,0
11419,35933,15359,0,0,0
11391,35905,15313,0,0,0
11365,35878,15266,0,0,0
11341,35855,15220,0,0,0
11316,35832,15175,0,0,0
