green_channel,red_channel,ir_channel,Anomaly_ch0,Anomaly_ch1,Anomaly_ch2
40782,16384,19789,0,0,0
40740,16363,19724,0,0,0
40700,16342,19658,0,0,0
40660,16320,19589,0,0,0
40618,16297,19517,0,0,0
40575,16272,19443,0,0,0
40530,16242,19367,0,0,0
40486,16211,19294,0,0,0
40443,16182,19224,0,0,0
40398,16151,19154,0,0,0
40348,16118,19080,0,0,0
40292,16082,19003,0,0,0
40234,16045,18927,0,0,0
40171,16006,18853,0,0,0
40108,15968,18783,0,0,0
40052,15936,18723,0,0,0
40010,15913,18677,0,0,0
39988,15903,18650,0,0,0
39989,15908,18644,0,0,0
40015,15930,18665,0,0,0
40068,15968,18715,0,0,0
40149,16019,18797,0,0,0
40254,16084,18914,0,0,0
40383,16162,19065,0,0,0
40532,16250,19248,0,0,0
40699,16349,19455,0,0,0
40880,16455,19683,0,0,0
41070,16567,19927,0,0,0
41266,16681,20180,0,0,0
41461,16796,20436,0,0,0
41648,16910,20686,0,0,0
41828,17021,20930,0,0,0
41999,17126,21160,0,0,0
42157,17222,21375,0,0,0
42301,17308,21574,0,0,0
42433,17385,21755,0,0,0
42552,17452,21918,0,0,0
42655,17508,22060,0,0,0
42745,17552,22181,0,0,0
42819,17587,22283,0,0,0
42878,17613,22369,0,0,0
42923,17632,22439,0,0,0
42956,17646,22497,0,0,0
42982,17660,22546,0,0,0
43006,17672,22589,0,0,0
43028,17683,22625,0,0,0
43049,17694,22658,0,0,0
43069,17705,22689,0,0,0
43089,17717,22721,0,0,0
43107,17731,22754,0,0,0
43127,17745,22787,0,0,0
43149,17759,22820,0,0,0
43172,17774,22854,0,0,0
43195,17789,22888,0,0,0
43220,17802,22921,0,0,0
43245,17814,22955,0,0,0
43270,17829,22985,0,0,0
43293,17844,23013,0,0,0
43314,17858,23041,0,0,0
43334,17872,23072,0,0,0
43354,17889,23103,0,0,0
43371,17905,23129,0,0,0
43384,17916,23150,0,0,0
43391,17922,23164,0,0,0
43391,17920,23169,0,0,0
43380,17912,23162,0,0,0
43359,17899,23145,0,0,0
43330,17881,23119,0,0,0
43294,17860,23084,0,0,0
43256,17838,23040,0,0,0
43217,17815,22994,0,0,0
43175,17790,22947,0,0,0
43129,17760,22896,0,0,0
43082,17729,22841,0,0,0
43035,17695,22781,0,0,0
42985,17660,22715,0,0,0
42932,17625,22644,0,0,0
42879,17592,22573,0,0,0
42829,17562,22506,0,0,0
42783,17535,22446,0,0,0
42739,17509,22393,0,0,0
42699,17485,22343,0,0,0
42665,17465,22298,0,0,0
42635,17448,22257,0,0,0
42608,17432,22220,0,0,0
42585,17419,22189,0,0,0
42565,17407,22162,0,0,0
42548,17394,22135,0,0,0
42530,17380,22107,0,0,0
42511,17365,22081,0,0,0
42490,17350,22058,0,0,0
42466,17335,22036,0,0,0
42443,17322,22013,0,0,0
42421,17309,21987,0,0,0
42399,17295,21957,0,0,0
42375,17281,21926,0,0,0
42349,17264,21893,0,0,0
42324,17246,21856,0,0,0
42297,17225,21815,0,0,0
42267,17203,21768,0,0,0
42231,17178,21716,0,0,0
42188,17149,21661,0,0,0
42143,17118,21602,0,0,0
42094,17089,21541,0,0,0
42042,17060,21477,0,0,0
41987,17031,21409,0,0,0
41930,16999,21337,0,0,0
41874,16965,21262,0,0,0
41817,16930,21185,0,0,0
41760,16893,21107,0,0,0
41703,16853,21031,0,0,0
41642,16811,20953,0,0,0
41575,16769,20872,0,0,0
41502,16728,20789,0,0,0
41429,16688,20703,0,0,0
41358,16647,20616,0,0,0
41291,16605,20530,0,0,0
41224,16563,20445,0,0,0
41155,16523,20360,0,0,0
41087,16482,20278,0,0,0
41021,16444,20198,0,0,0
40958,16408,20122,0,0,0
40898,16375,20048,0,0,0
40842,16345,19974,0,0,0
40790,16315,19902,0,0,0
40740,16284,19831,0,0,0
40689,16253,19759,0,0,0
40633,16219,19682,0,0,0
40575,16183,19599,0,0,0
40515,16145,19512,0,0,0
40453,16104,19424,0,0,0
40388,16064,19338,0,0,0
40323,16025,19253,0,0,0
40261,15988,19171,0,0,0
40202,15951,19090,0,0,0
40146,15915,19008,0,0,0
40092,15881,18927,0,0,0
40038,15847,18850,0,0,0
39983,15813,18773,0,0,0
39925,15779,18696,0,0,0
39869,15746,18622,0,0,0
39815,15716,18552,0,0,0
39763,15687,18484,0,0,0
39713,15661,18420,0,0,0
39665,15636,18355,0,0,0
39619,15612,18287,0,0,0
39572,15590,18215,0,0,0
39522,15566,18140,0,0,0
39467,15538,18062,0,0,0
39408,15507,17985,0,0,0
39348,15474,17908,0,0,0
39287,15438,17831,0,0,0
39226,15400,17754,0,0,0
39164,15361,17675,0,0,0
39103,15322,17594,0,0,0
39043,15285,17517,0,0,0
38984,15251,17441,0,0,0
38926,15219,17366,0,0,0
38869,15184,17291,0,0,0
38814,15151,17217,0,0,0
38762,15120,17146,0,0,0
38713,15094,17076,0,0,0
38668,15068,17004,0,0,0
38626,15040,16929,0,0,0
38587,15014,16855,0,0,0
38545,14986,16783,0,0,0
38498,14956,16713,0,0,0
38445,14923,16642,0,0,0
38390,14889,16567,0,0,0
38329,14850,16487,0,0,0
38263,14810,16405,0,0,0
38193,14768,16323,0,0,0
38126,14727,16244,0,0,0
38062,14686,16168,0,0,0
38000,14645,16092,0,0,0
37941,14606,16015,0,0,0
37884,14569,15937,0,0,0
37829,14535,15859,0,0,0
37773,14504,15785,0,0,0
37720,14477,15713,0,0,0
37669,14453,15641,0,0,0
37621,14431,15565,0,0,0
37572,14409,15486,0,0,0
37525,14382,15410,0,0,0
37480,14353,15336,0,0,0
37434,14323,15264,0,0,0
37382,14290,15188,0,0,0
37326,14257,15108,0,0,0
37272,14224,15026,0,0,0
37218,14194,14944,0,0,0
37166,14166,14865,0,0,0
37117,14138,14791,0,0,0
37067,14111,14717,0,0,0
37012,14084,14644,0,0,0
36956,14056,14574,0,0,0
36899,14028,14507,0,0,0
36842,13998,14438,0,0,0
36784,13967,14365,0,0,0
36728,13934,14292,0,0,0
36673,13901,14217,0,0,0
36621,13869,14141,0,0,0
36568,13836,14064,0,0,0
36513,13802,13990,0,0,0
36456,13768,13917,0,0,0
36399,13736,13845,0,0,0
36342,13707,13771,0,0,0
36286,13678,13693,0,0,0
36228,13644,13610,0,0,0
36168,13606,13525,0,0,0
36105,13567,13441,0,0,0
36041,13531,13359,0,0,0
35975,13496,13279,0,0,0
35912,13465,13202,0,0,0
35857,13438,13130,0,0,0
35816,13417,13068,0,0,0
35792,13401,13022,0,0,0
35785,13395,12997,0,0,0
35795,13398,12998,0,0,0
35827,13416,13032,0,0,0
35885,13452,13102,0,0,0
35973,13508,13214,0,0,0
36092,13582,13366,0,0,0
36236,13671,13551,0,0,0
36403,13772,13764,0,0,0
36591,13880,14000,0,0,0
36790,13994,14252,0,0,0
36997,14112,14517,0,0,0
37206,14233,14786,0,0,0
37411,14352,15052,0,0,0
37607,14467,15310,0,0,0
37793,14576,15556,0,0,0
37964,14679,15788,0,0,0
38121,14774,16002,0,0,0
38260,14858,16194,0,0,0
38379,14930,16364,0,0,0
38479,14990,16515,0,0,0
38561,15037,16641,0,0,0
38629,15074,16746,0,0,0
38689,15107,16833,0,0,0
38741,15136,16903,0,0,0
38784,15158,16958,0,0,0
38816,15172,17000,0,0,0
38840,15178,17029,0,0,0
38858,15176,17049,0,0,0
38872,15170,17062,0,0,0
38882,15163,17074,0,0,0
38891,15157,17084,0,0,0
38900,15152,17094,0,0,0
38908,15151,17104,0,0,0
38914,15154,17114,0,0,0
38920,15160,17129,0,0,0
38931,15168,17150,0,0,0
38950,15178,17174,0,0,0
38974,15191,17205,0,0,0
39001,15207,17241,0,0,0
39029,15223,17276,0,0,0
39059,15239,17309,0,0,0
39092,15255,17341,0,0,0
39124,15273,17373,0,0,0
39155,15291,17404,0,0,0
39185,15310,17434,0,0,0
39213,15328,17462,0,0,0
39238,15343,17488,0,0,0
39260,15352,17510,0,0,0
39277,15355,17525,0,0,0
39292,15356,17530,0,0,0
39304,15354,17528,0,0,0
39310,15347,17520,0,0,0
39308,15337,17506,0,0,0
39299,15322,17483,0,0,0
39284,15301,17450,0,0,0
39262,15274,17408,0,0,0
39240,15244,17360,0,0,0
39215,15213,17311,0,0,0
39186,15181,17260,0,0,0
39150,15152,17208,0,0,0
39110,15126,17156,0,0,0
39074,15104,17108,0,0,0
39042,15087,17065,0,0,0
39013,15073,17028,0,0,0
38990,15062,16996,0,0,0
38972,15055,16969,0,0,0
38958,15047,16947,0,0,0
38946,15036,16929,0,0,0
38939,15025,16919,0,0,0
38940,15019,16919,0,0,0
38944,15017,16925,0,0,0
38946,15017,16930,0,0,0
38946,15018,16931,0,0,0
38946,15019,16932,0,0,0
38943,15019,16930,0,0,0
38937,15019,16922,0,0,0
38933,15019,16910,0,0,0
38932,15021,16900,0,0,0
38931,15022,16894,0,0,0
38930,15019,16888,0,0,0
38926,15014,16880,0,0,0
38919,15008,16869,0,0,0
38908,14999,16851,0,0,0
38893,14986,16827,0,0,0
38876,14974,16795,0,0,0
38856,14962,16759,0,0,0
38830,14949,16722,0,0,0
38797,14935,16685,0,0,0
38762,14920,16646,0,0,0
38726,14905,16604,0,0,0
38689,14888,16557,0,0,0
38650,14866,16505,0,0,0
38611,14843,16448,0,0,0
38575,14819,16390,0,0,0
38537,14794,16334,0,0,0
38496,14766,16279,0,0,0
38455,14740,16222,0,0,0
38413,14717,16164,0,0,0
38372,14695,16105,0,0,0
38333,14670,16046,0,0,0
38296,14643,15989,0,0,0
38257,14615,15932,0,0,0
38215,14587,15873,0,0,0
38168,14560,15811,0,0,0
38118,14532,15750,0,0,0
38067,14504,15689,0,0,0
38015,14475,15626,0,0,0
37962,14446,15564,0,0,0
37913,14418,15505,0,0,0
37871,14394,15449,0,0,0
37832,14372,15395,0,0,0
37795,14349,15345,0,0,0
37759,14326,15295,0,0,0
37724,14303,15242,0,0,0
37686,14279,15182,0,0,0
37646,14254,15119,0,0,0
37605,14229,15052,0,0,0
37559,14204,14982,0,0,0
37507,14179,14912,0,0,0
37451,14153,14844,0,0,0
37394,14128,14779,0,0,0
37336,14106,14719,0,0,0
37280,14082,14657,0,0,0
37227,14056,14594,0,0,0
37179,14028,14532,0,0,0
37135,14004,14471,0,0,0
37095,13983,14411,0,0,0
37058,13964,14355,0,0,0
37021,13946,14301,0,0,0
36983,13928,14249,0,0,0
36947,13911,14197,0,0,0
36912,13894,14143,0,0,0
36878,13877,14089,0,0,0
36847,13859,14039,0,0,0
36819,13838,13992,0,0,0
36792,13816,13947,0,0,0
36764,13795,13901,0,0,0
36733,13775,13852,0,0,0
36699,13755,13799,0,0,0
36663,13733,13740,0,0,0
36623,13707,13674,0,0,0
36578,13681,13603,0,0,0
36531,13655,13533,0,0,0
36485,13625,13469,0,0,0
36442,13595,13410,0,0,0
36403,13567,13356,0,0,0
36365,13542,13305,0,0,0
36325,13518,13253,0,0,0
36284,13494,13198,0,0,0
36243,13470,13140,0,0,0
36202,13447,13082,0,0,0
36160,13423,13026,0,0,0
36117,13400,12969,0,0,0
36076,13380,12913,0,0,0
36039,13361,12859,0,0,0
36005,13342,12804,0,0,0
35968,13321,12745,0,0,0
35926,13298,12685,0,0,0
35881,13275,12625,0,0,0
35837,13252,12567,0,0,0
35793,13228,12511,0,0,0
35750,13204,12456,0,0,0
35707,13179,12400,0,0,0
35664,13154,12342,0,0,0
35620,13127,12284,0,0,0
35578,13099,12224,0,0,0
35536,13073,12165,0,0,0
35493,13049,12109,0,0,0
35449,13026,12055,0,0,0
35403,13005,12003,0,0,0
35359,12986,11951,0,0,0
35317,12970,11900,0,0,0
35277,12954,11851,0,0,0
35239,12938,11799,0,0,0
35204,12920,11747,0,0,0
35168,12899,11694,0,0,0
35127,12875,11638,0,0,0
35082,12849,11576,0,0,0
35033,12820,11512,0,0,0
34983,12791,11445,0,0,0
34936,12762,11377,0,0,0
34893,12736,11311,0,0,0
34853,12716,11246,0,0,0
34814,12698,11184,0,0,0
34777,12677,11123,0,0,0
34739,12654,11062,0,0,0
34699,12631,11003,0,0,0
34659,12612,10947,0,0,0
34620,12594,10891,0,0,0
34582,12575,10833,0,0,0
34543,12556,10776,0,0,0
34507,12540,10724,0,0,0
34478,12525,10681,0,0,0
34459,12513,10651,0,0,0
34455,12509,10639,0,0,0
34467,12517,10653,0,0,0
34497,12535,10692,0,0,0
34548,12564,10759,0,0,0
34625,12607,10859,0,0,0
34729,12666,10994,0,0,0
34858,12740,11162,0,0,0
35009,12826,11360,0,0,0
35178,12926,11583,0,0,0
35362,13037,11825,0,0,0
35555,13154,12080,0,0,0
35753,13271,12341,0,0,0
35950,13386,12603,0,0,0
36141,13500,12862,0,0,0
36326,13609,13112,0,0,0
36502,13711,13349,0,0,0
36665,13804,13569,0,0,0
36814,13885,13769,0,0,0
36946,13955,13949,0,0,0
37059,14016,14106,0,0,0
37154,14067,14240,0,0,0
37229,14109,14352,0,0,0
37290,14141,14441,0,0,0
37342,14164,14513,0,0,0
37387,14181,14570,0,0,0
37425,14193,14616,0,0,0
37457,14199,14653,0,0,0
37482,14203,14682,0,0,0
37501,14206,14705,0,0,0
37515,14209,14723,0,0,0
37528,14212,14735,0,0,0
37540,14216,14745,0,0,0
37552,14219,14754,0,0,0
37563,14223,14763,0,0,0
37570,14227,14774,0,0,0
37575,14233,14788,0,0,0
37582,14242,14805,0,0,0
37594,14251,14824,0,0,0
37612,14261,14845,0,0,0
37632,14270,14866,0,0,0
37656,14281,14888,0,0,0
37685,14294,14911,0,0,0
37715,14308,14936,0,0,0
37745,14324,14967,0,0,0
37772,14341,15000,0,0,0
37797,14357,15034,0,0,0
37820,14372,15066,0,0,0
37844,14383,15096,0,0,0
37864,14389,15120,0,0,0
37879,14393,15138,0,0,0
37886,14394,15148,0,0,0
37886,14390,15148,0,0,0
37877,14378,15139,0,0,0
37861,14360,15116,0,0,0
37840,14337,15084,0,0,0
37816,14314,15045,0,0,0
37785,14291,14999,0,0,0
37747,14270,14948,0,0,0
37706,14251,14894,0,0,0
37666,14234,14843,0,0,0
37628,14218,14797,0,0,0
37594,14200,14755,0,0,0
37561,14183,14716,0,0,0
37532,14167,14683,0,0,0
37508,14154,14654,0,0,0
37489,14143,14628,0,0,0
37475,14134,14604,0,0,0
37467,14126,14583,0,0,0
37460,14118,14567,0,0,0
37455,14110,14554,0,0,0
37450,14103,14544,0,0,0
37445,14098,14536,0,0,0
37442,14095,14529,0,0,0
37440,14094,14523,0,0,0
37437,14093,14517,0,0,0
37435,14092,14509,0,0,0
37432,14090,14501,0,0,0
37428,14088,14496,0,0,0
37424,14087,14490,0,0,0
37420,14084,14482,0,0,0
37416,14078,14469,0,0,0
37413,14070,14455,0,0,0
37408,14063,14440,0,0,0
37397,14057,14422,0,0,0
37378,14050,14398,0,0,0
37353,14040,14369,0,0,0
37324,14028,14337,0,0,0
37293,14014,14301,0,0,0
37260,13998,14260,0,0,0
37223,13979,14213,0,0,0
37183,13955,14162,0,0,0
37142,13929,14112,0,0,0
37101,13903,14062,0,0,0
37063,13877,14012,0,0,0
37027,13853,13962,0,0,0
36992,13828,13910,0,0,0
36957,13803,13857,0,0,0
36925,13779,13804,0,0,0
36892,13756,13754,0,0,0
36858,13735,13707,0,0,0
36823,13716,13662,0,0,0
36790,13697,13617,0,0,0
36760,13681,13572,0,0,0
36732,13664,13528,0,0,0
36701,13647,13484,0,0,0
36670,13628,13438,0,0,0
36638,13609,13389,0,0,0
36602,13588,13335,0,0,0
36563,13566,13276,0,0,0
36525,13546,13217,0,0,0
36490,13526,13157,0,0,0
36457,13504,13099,0,0,0
36426,13482,13044,0,0,0
36398,13459,12994,0,0,0
36371,13438,12946,0,0,0
36343,13418,12898,0,0,0
36316,13400,12849,0,0,0
36292,13382,12803,0,0,0
36269,13364,12761,0,0,0
36247,13347,12723,0,0,0
36226,13333,12686,0,0,0
36206,13323,12647,0,0,0
36187,13314,12604,0,0,0
36167,13301,12561,0,0,0
36147,13287,12518,0,0,0
36124,13272,12474,0,0,0
36101,13257,12431,0,0,0
36080,13241,12388,0,0,0
36063,13224,12344,0,0,0
36048,13206,12299,0,0,0
36033,13189,12253,0,0,0
36017,13172,12206,0,0,0
35998,13155,12159,0,0,0
35975,13137,12114,0,0,0
35946,13118,12070,0,0,0
35914,13098,12026,0,0,0
35878,13077,11978,0,0,0
35838,13058,11929,0,0,0
35794,13041,11876,0,0,0
35749,13021,11821,0,0,0
35704,13000,11764,0,0,0
35660,12978,11706,0,0,0
35615,12956,11649,0,0,0
35568,12933,11594,0,0,0
35524,12911,11540,0,0,0
35484,12890,11490,0,0,0
35446,12869,11441,0,0,0
35408,12847,11394,0,0,0
35369,12824,11347,0,0,0
35331,12802,11298,0,0,0
35291,12781,11244,0,0,0
35252,12761,11188,0,0,0
35215,12743,11135,0,0,0
35179,12726,11085,0,0,0
35143,12709,11036,0,0,0
35105,12691,10986,0,0,0
35064,12672,10934,0,0,0
35019,12652,10880,0,0,0
34973,12630,10827,0,0,0
34926,12608,10775,0,0,0
34879,12585,10722,0,0,0
34833,12560,10671,0,0,0
34787,12535,10620,0,0,0
34740,12509,10567,0,0,0
34695,12484,10509,0,0,0
34651,12460,10452,0,0,0
34607,12437,10396,0,0,0
34565,12417,10341,0,0,0
34525,12398,10287,0,0,0
34485,12377,10234,0,0,0
34442,12354,10184,0,0,0
34399,12332,10134,0,0,0
34358,12313,10086,0,0,0
34318,12295,10038,0,0,0
34278,12277,9989,0,0,0
34237,12259,9938,0,0,0
34195,12242,9883,0,0,0
34152,12224,9826,0,0,0
34107,12205,9765,0,0,0
34058,12183,9704,0,0,0
34005,12159,9639,0,0,0
33951,12133,9573,0,0,0
33898,12107,9508,0,0,0
33847,12083,9448,0,0,0
33798,12061,9392,0,0,0
33750,12039,9338,0,0,0
33703,12015,9286,0,0,0
33658,11990,9234,0,0,0
33613,11964,9180,0,0,0
33568,11939,9126,0,0,0
33522,11914,9068,0,0,0
33478,11891,9011,0,0,0
33440,11872,8959,0,0,0
33413,11859,8916,0,0,0
33397,11853,8887,0,0,0
33395,11856,8874,0,0,0
33411,11871,8882,0,0,0
33448,11900,8918,0,0,0
33508,11942,8988,0,0,0
33594,11996,9095,0,0,0
33707,12065,9238,0,0,0
33842,12144,9414,0,0,0
33999,12230,9619,0,0,0
34175,12325,9852,0,0,0
34365,12429,10106,0,0,0
34565,12536,10372,0,0,0
34769,12644,10644,0,0,0
34977,12756,10922,0,0,0
35187,12870,11198,0,0,0
35391,12979,11468,0,0,0
35582,13080,11727,0,0,0
35757,13175,11971,0,0,0
35917,13262,12199,0,0,0
36060,13342,12406,0,0,0
36190,13412,12589,0,0,0
36310,13476,12751,0,0,0
36415,13533,12895,0,0,0
36502,13580,13021,0,0,0
36572,13618,13127,0,0,0
36627,13648,13213,0,0,0
36668,13669,13282,0,0,0
36700,13683,13334,0,0,0
36728,13694,13376,0,0,0
36753,13705,13412,0,0,0
36773,13715,13442,0,0,0
36790,13724,13465,0,0,0
36808,13730,13484,0,0,0
36824,13735,13501,0,0,0
36835,13739,13516,0,0,0
36846,13744,13530,0,0,0
36864,13751,13550,0,0,0
36890,13761,13579,0,0,0
36919,13775,13614,0,0,0
36950,13791,13653,0,0,0
36984,13810,13694,0,0,0
37021,13831,13740,0,0,0
37060,13856,13789,0,0,0
37105,13884,13842,0,0,0
37153,13912,13898,0,0,0
37201,13939,13954,0,0,0
37246,13962,14007,0,0,0
37288,13981,14057,0,0,0
37326,13997,14103,0,0,0
37361,14010,14144,0,0,0
37392,14020,14179,0,0,0
37416,14029,14205,0,0,0
37433,14033,14221,0,0,0
37441,14033,14228,0,0,0
37437,14028,14224,0,0,0
37426,14020,14212,0,0,0
37412,14013,14195,0,0,0
37399,14007,14175,0,0,0
37385,14000,14152,0,0,0
37371,13992,14123,0,0,0
37356,13981,14090,0,0,0
37337,13967,14055,0,0,0
37315,13952,14021,0,0,0
37293,13937,13991,0,0,0
37273,13925,13966,0,0,0
37255,13914,13947,0,0,0
37240,13906,13932,0,0,0
37229,13901,13921,0,0,0
37225,13899,13915,0,0,0
37225,13900,13912,0,0,0
37230,13904,13912,0,0,0
37240,13908,13916,0,0,0
37252,13911,13923,0,0,0
37263,13911,13931,0,0,0
37273,13913,13938,0,0,0
37282,13917,13944,0,0,0
37291,13921,13948,0,0,0
37296,13924,13950,0,0,0
37295,13927,13950,0,0,0
37292,13927,13951,0,0,0
37286,13924,13950,0,0,0
37278,13922,13946,0,0,0
37271,13920,13937,0,0,0
37265,13918,13924,0,0,0
37261,13915,13908,0,0,0
37252,13907,13886,0,0,0
37238,13895,13857,0,0,0
37220,13881,13829,0,0,0
37202,13866,13802,0,0,0
37182,13850,13775,0,0,0
37160,13835,13744,0,0,0
37134,13820,13709,0,0,0
37105,13808,13671,0,0,0
37074,13798,13632,0,0,0
37043,13789,13593,0,0,0
37010,13775,13554,0,0,0
36974,13758,13510,0,0,0
36936,13738,13464,0,0,0
36895,13715,13420,0,0,0
36852,13690,13376,0,0,0
36809,13663,13330,0,0,0
36768,13635,13281,0,0,0
36728,13607,13231,0,0,0
36690,13580,13180,0,0,0
36651,13553,13128,0,0,0
36610,13528,13073,0,0,0
36568,13503,13017,0,0,0
36530,13480,12962,0,0,0
36493,13462,12907,0,0,0
36456,13446,12853,0,0,0
36419,13430,12799,0,0,0
36383,13413,12745,0,0,0
36347,13395,12690,0,0,0
36309,13375,12631,0,0,0
36270,13353,12568,0,0,0
36230,13329,12506,0,0,0
36193,13306,12445,0,0,0
36155,13285,12387,0,0,0
36118,13267,12335,0,0,0
36082,13251,12288,0,0,0
36047,13234,12245,0,0,0
36014,13217,12202,0,0,0
35983,13200,12161,0,0,0
35954,13185,12124,0,0,0
35928,13173,12091,0,0,0
35902,13162,12057,0,0,0
35876,13150,12021,0,0,0
35849,13138,11981,0,0,0
35821,13124,11936,0,0,0
35794,13107,11888,0,0,0
35764,13088,11841,0,0,0
35733,13069,11794,0,0,0
35702,13049,11747,0,0,0
35671,13031,11698,0,0,0
35642,13016,11647,0,0,0
35614,13002,11596,0,0,0
35588,12985,11549,0,0,0
35565,12968,11507,0,0,0
35544,12951,11466,0,0,0
35528,12937,11424,0,0,0
35514,12924,11385,0,0,0
35502,12912,11351,0,0,0
35491,12902,11316,0,0,0
35480,12892,11282,0,0,0
35469,12882,11247,0,0,0
35457,12870,11211,0,0,0
35443,12855,11176,0,0,0
35424,12838,11141,0,0,0
35402,12823,11101,0,0,0
35376,12809,11057,0,0,0
35347,12796,11011,0,0,0
35319,12782,10964,0,0,0
35293,12768,10918,0,0,0
35266,12753,10871,0,0,0
35237,12738,10827,0,0,0
35207,12720,10782,0,0,0
35178,12700,10734,0,0,0
35150,12682,10686,0,0,0
35120,12666,10637,0,0,0
35087,12648,10586,0,0,0
35049,12626,10534,0,0,0
35007,12604,10479,0,0,0
34964,12581,10420,0,0,0
34922,12558,10362,0,0,0
34885,12534,10306,0,0,0
34850,12510,10254,0,0,0
34814,12486,10204,0,0,0
34774,12462,10156,0,0,0
34729,12437,10108,0,0,0
34682,12413,10058,0,0,0
34638,12392,10010,0,0,0
34597,12374,9960,0,0,0
34557,12356,9910,0,0,0
34520,12337,9858,0,0,0
34485,12319,9803,0,0,0
34451,12301,9744,0,0,0
34415,12282,9682,0,0,0
34377,12262,9620,0,0,0
34337,12242,9561,0,0,0
34294,12219,9501,0,0,0
34247,12194,9440,0,0,0
34197,12170,9379,0,0,0
34146,12146,9320,0,0,0
34094,12121,9261,0,0,0
34042,12096,9199,0,0,0
33994,12072,9141,0,0,0
33949,12049,9086,0,0,0
33905,12027,9033,0,0,0
33861,12005,8981,0,0,0
33817,11983,8930,0,0,0
33774,11961,8878,0,0,0
33728,11940,8826,0,0,0
33682,11919,8773,0,0,0
33641,11901,8724,0,0,0
33607,11887,8678,0,0,0
33580,11875,8640,0,0,0
33567,11869,8616,0,0,0
33569,11870,8611,0,0,0
33589,11879,8625,0,0,0
33627,11896,8661,0,0,0
33685,11925,8724,0,0,0
33768,11968,8821,0,0,0
33879,12028,8956,0,0,0
34014,12104,9129,0,0,0
34174,12194,9334,0,0,0
34352,12297,9569,0,0,0
34543,12409,9828,0,0,0
34745,12530,10108,0,0,0
34958,12659,10403,0,0,0
35179,12789,10704,0,0,0
35400,12917,11003,0,0,0
35620,13039,11298,0,0,0
35835,13154,11591,0,0,0
36043,13261,11877,0,0,0
36242,13364,12150,0,0,0
36431,13461,12407,0,0,0
36608,13555,12647,0,0,0
36770,13643,12872,0,0,0
36918,13720,13076,0,0,0
37046,13783,13255,0,0,0
37155,13838,13409,0,0,0
37245,13887,13540,0,0,0
37318,13929,13651,0,0,0
37377,13964,13744,0,0,0
37424,13991,13821,0,0,0
37459,14012,13887,0,0,0
37486,14026,13943,0,0,0
37510,14036,13993,0,0,0
37533,14045,14040,0,0,0
37554,14053,14084,0,0,0
37573,14061,14123,0,0,0
37593,14070,14158,0,0,0
37618,14079,14190,0,0,0
37647,14090,14224,0,0,0
37678,14101,14262,0,0,0
37712,14115,14303,0,0,0
37753,14132,14348,0,0,0
37798,14152,14403,0,0,0
37848,14175,14467,0,0,0
37900,14200,14535,0,0,0
37951,14227,14606,0,0,0
38001,14258,14677,0,0,0
38050,14289,14744,0,0,0
38096,14317,14808,0,0,0
38138,14342,14871,0,0,0
38176,14364,14929,0,0,0
38212,14383,14981,0,0,0
38244,14399,15024,0,0,0
38272,14411,15057,0,0,0
38293,14420,15078,0,0,0
38304,14428,15090,0,0,0
38306,14431,15092,0,0,0
38302,14431,15089,0,0,0
38294,14427,15082,0,0,0
38281,14421,15069,0,0,0
38263,14411,15050,0,0,0
38241,14399,15026,0,0,0
38215,14384,14997,0,0,0
38187,14368,14966,0,0,0
38160,14355,14935,0,0,0
38137,14344,14904,0,0,0
38116,14335,14878,0,0,0
38097,14329,14859,0,0,0
38083,14326,14850,0,0,0
38072,14327,14847,0,0,0
38062,14326,14846,0,0,0
38054,14326,14845,0,0,0
38048,14325,14845,0,0,0
38047,14326,14848,0,0,0
38049,14329,14854,0,0,0
38048,14334,14862,0,0,0
38045,14338,14872,0,0,0
38042,14342,14880,0,0,0
38040,14345,14886,0,0,0
38038,14348,14891,0,0,0
38037,14349,14895,0,0,0
38039,14350,14896,0,0,0
38044,14350,14893,0,0,0
38049,14348,14889,0,0,0
38054,14348,14888,0,0,0
38057,14348,14891,0,0,0
38058,14347,14893,0,0,0
38055,14345,14888,0,0,0
38050,14339,14877,0,0,0
38042,14328,14859,0,0,0
38030,14313,14834,0,0,0
38011,14294,14805,0,0,0
37983,14276,14775,0,0,0
37953,14259,14744,0,0,0
37922,14242,14709,0,0,0
37891,14227,14673,0,0,0
37861,14215,14636,0,0,0
37828,14201,14594,0,0,0
37793,14184,14548,0,0,0
37758,14168,14502,0,0,0
37725,14152,14455,0,0,0
37695,14135,14406,0,0,0
37667,14118,14355,0,0,0
37638,14100,14302,0,0,0
37606,14080,14246,0,0,0
37570,14058,14190,0,0,0
37533,14034,14134,0,0,0
37493,14008,14080,0,0,0
37451,13983,14026,0,0,0
37406,13960,13975,0,0,0
37363,13935,13926,0,0,0
37322,13911,13876,0,0,0
37284,13891,13825,0,0,0
37248,13874,13772,0,0,0
37214,13858,13717,0,0,0
37182,13840,13660,0,0,0
37152,13821,13603,0,0,0
37119,13805,13548,0,0,0
37084,13791,13496,0,0,0
37046,13778,13447,0,0,0
37010,13763,13403,0,0,0
36977,13748,13363,0,0,0
36946,13734,13328,0,0,0
36917,13721,13295,0,0,0
36891,13708,13259,0,0,0
36866,13693,13216,0,0,0
36840,13673,13169,0,0,0
36810,13651,13121,0,0,0
36776,13630,13069,0,0,0
36738,13611,13016,0,0,0
36702,13592,12963,0,0,0
36667,13573,12910,0,0,0
36634,13553,12856,0,0,0
36596,13531,12802,0,0,0
36554,13509,12747,0,0,0
36512,13488,12689,0,0,0
36466,13467,12630,0,0,0
36417,13443,12572,0,0,0
36367,13419,12517,0,0,0
36319,13394,12462,0,0,0
36273,13369,12405,0,0,0
36223,13342,12344,0,0,0
36171,13312,12278,0,0,0
36118,13280,12207,0,0,0
36064,13247,12134,0,0,0
36010,13212,12060,0,0,0
35955,13179,11988,0,0,0
35900,13146,11917,0,0,0
35846,13114,11848,0,0,0
35793,13084,11783,0,0,0
35743,13058,11723,0,0,0
35694,13034,11665,0,0,0
35648,13012,11610,0,0,0
35605,12991,11555,0,0,0
35562,12971,11502,0,0,0
35520,12949,11451,0,0,0
35483,12929,11401,0,0,0
35452,12908,11351,0,0,0
35422,12886,11299,0,0,0
35390,12863,11246,0,0,0
35355,12837,11190,0,0,0
35318,12815,11134,0,0,0
35282,12796,11079,0,0,0
35245,12779,11025,0,0,0
35203,12763,10971,0,0,0
35159,12747,10917,0,0,0
35116,12729,10863,0,0,0
35073,12708,10809,0,0,0
35032,12684,10753,0,0,0
34991,12658,10699,0,0,0
34946,12632,10646,0,0,0
34898,12604,10589,0,0,0
34850,12573,10527,0,0,0
34801,12541,10460,0,0,0
34752,12510,10394,0,0,0
34704,12479,10327,0,0,0
34658,12448,10258,0,0,0
34612,12420,10191,0,0,0
34565,12394,10126,0,0,0
34516,12371,10064,0,0,0
34467,12350,10003,0,0,0
34421,12332,9945,0,0,0
34376,12314,9889,0,0,0
34329,12296,9833,0,0,0
34285,12276,9775,0,0,0
34244,12257,9719,0,0,0
34206,12240,9667,0,0,0
34171,12224,9619,0,0,0
34141,12211,9576,0,0,0
34118,12200,9545,0,0,0
34109,12196,9530,0,0,0
34118,12200,9536,0,0,0
34146,12218,9567,0,0,0
34196,12250,9631,0,0,0
34271,12295,9728,0,0,0
34374,12354,9859,0,0,0
34506,12430,10025,0,0,0
34662,12522,10225,0,0,0
34840,12627,10455,0,0,0
35034,12740,10713,0,0,0
35241,12860,10994,0,0,0
35459,12987,11297,0,0,0
35684,13116,11614,0,0,0
35913,13245,11938,0,0,0
36143,13373,12265,0,0,0
36374,13501,12590,0,0,0
36599,13624,12906,0,0,0
36812,13742,13209,0,0,0
37008,13851,13494,0,0,0
37188,13952,13760,0,0,0
37353,14047,14005,0,0,0
37506,14134,14228,0,0,0
37646,14211,14428,0,0,0
37772,14278,14606,0,0,0
37884,14338,14760,0,0,0
37978,14391,14891,0,0,0
38052,14437,15005,0,0,0
38114,14477,15104,0,0,0
38166,14508,15189,0,0,0
38207,14532,15257,0,0,0
38236,14550,15310,0,0,0
38258,14563,15351,0,0,0
38273,14573,15386,0,0,0
38285,14583,15416,0,0,0
38297,14594,15447,0,0,0
38312,14603,15479,0,0,0
38329,14612,15514,0,0,0
38349,14623,15550,0,0,0
38371,14634,15586,0,0,0
38394,14646,15621,0,0,0
38420,14659,15656,0,0,0
38449,14671,15692,0,0,0
38480,14685,15732,0,0,0
38508,14701,15775,0,0,0
38534,14718,15822,0,0,0
38561,14735,15869,0,0,0
38589,14754,15918,0,0,0
38616,14773,15964,0,0,0
38641,14789,16005,0,0,0
38662,14800,16038,0,0,0
38678,14806,16063,0,0,0
38688,14806,16080,0,0,0
38690,14804,16088,0,0,0
38684,14799,16086,0,0,0
38674,14791,16073,0,0,0
38660,14778,16049,0,0,0
38640,14762,16016,0,0,0
38617,14747,15982,0,0,0
38591,14732,15948,0,0,0
38563,14716,15917,0,0,0
38534,14700,15888,0,0,0
38505,14685,15861,0,0,0
38477,14668,15834,0,0,0
38449,14650,15807,0,0,0
38425,14632,15781,0,0,0
38408,14618,15760,0,0,0
38394,14610,15745,0,0,0
38383,14606,15734,0,0,0
38375,14602,15721,0,0,0
38367,14597,15709,0,0,0
38362,14595,15699,0,0,0
38359,14596,15692,0,0,0
38357,14600,15690,0,0,0
38357,14605,15692,0,0,0
38359,14608,15698,0,0,0
38359,14611,15705,0,0,0
38360,14611,15713,0,0,0
38361,14609,15720,0,0,0
38366,14609,15727,0,0,0
38371,14611,15731,0,0,0
38374,14614,15734,0,0,0
38375,14615,15734,0,0,0
38372,14614,15729,0,0,0
38366,14613,15722,0,0,0
38356,14612,15712,0,0,0
38343,14611,15695,0,0,0
38326,14606,15673,0,0,0
38305,14597,15645,0,0,0
38283,14585,15613,0,0,0
38260,14571,15577,0,0,0
38231,14554,15536,0,0,0
38199,14535,15495,0,0,0
38169,14519,15455,0,0,0
38142,14504,15416,0,0,0
38115,14489,15377,0,0,0
38090,14473,15336,0,0,0
38067,14457,15293,0,0,0
38043,14440,15246,0,0,0
38017,14419,15195,0,0,0
37989,14395,15141,0,0,0
37957,14369,15085,0,0,0
37917,14341,15027,0,0,0
37870,14316,14963,0,0,0
37816,14290,14895,0,0,0
37756,14261,14826,0,0,0
37693,14228,14760,0,0,0
37633,14198,14696,0,0,0
37578,14172,14632,0,0,0
37527,14149,14571,0,0,0
37480,14128,14514,0,0,0
37437,14107,14459,0,0,0
37394,14083,14405,0,0,0
37352,14059,14352,0,0,0
37308,14036,14299,0,0,0
37264,14015,14247,0,0,0
37221,13993,14197,0,0,0
37177,13973,14147,0,0,0
37132,13952,14094,0,0,0
37087,13929,14037,0,0,0
37044,13906,13977,0,0,0
37001,13883,13917,0,0,0
36957,13859,13859,0,0,0
36914,13834,13802,0,0,0
36873,13810,13748,0,0,0
36837,13788,13700,0,0,0
36805,13767,13657,0,0,0
36775,13748,13618,0,0,0
36743,13731,13576,0,0,0
36710,13715,13531,0,0,0
36674,13695,13481,0,0,0
36635,13673,13426,0,0,0
36594,13649,13368,0,0,0
36554,13626,13311,0,0,0
36516,13604,13261,0,0,0
36478,13581,13213,0,0,0
36436,13558,13164,0,0,0
36390,13535,13113,0,0,0
36343,13513,13058,0,0,0
36296,13492,13000,0,0,0
36252,13472,12941,0,0,0
36211,13455,12888,0,0,0
36173,13438,12839,0,0,0
36137,13422,12792,0,0,0
36104,13406,12744,0,0,0
36073,13393,12694,0,0,0
36038,13382,12641,0,0,0
36000,13369,12587,0,0,0
35966,13356,12536,0,0,0
35935,13340,12488,0,0,0
35906,13321,12441,0,0,0
35873,13300,12393,0,0,0
35835,13275,12342,0,0,0
35794,13248,12287,0,0,0
35748,13222,12228,0,0,0
35698,13196,12167,0,0,0
35645,13171,12106,0,0,0
35593,13147,12050,0,0,0
35541,13125,11997,0,0,0
35492,13105,11942,0,0,0
35444,13086,11887,0,0,0
35399,13066,11835,0,0,0
35358,13045,11784,0,0,0
35322,13024,11734,0,0,0
35291,13003,11686,0,0,0
35261,12984,11640,0,0,0
35232,12966,11595,0,0,0
35202,12948,11548,0,0,0
35174,12930,11498,0,0,0
35147,12914,11447,0,0,0
35117,12897,11395,0,0,0
35085,12878,11340,0,0,0
35052,12857,11285,0,0,0
35022,12838,11231,0,0,0
34994,12820,11180,0,0,0
34968,12806,11133,0,0,0
34944,12794,11095,0,0,0
34930,12787,11071,0,0,0
34930,12789,11063,0,0,0
34947,12803,11078,0,0,0
34985,12832,11122,0,0,0
35051,12875,11201,0,0,0
35147,12933,11318,0,0,0
35274,13008,11475,0,0,0
35428,13095,11671,0,0,0
35607,13193,11900,0,0,0
35807,13302,12162,0,0,0
36027,13424,12455,0,0,0
36262,13557,12773,0,0,0
36507,13700,13112,0,0,0
36761,13848,13464,0,0,0
37019,13997,13821,0,0,0
37274,14145,14177,0,0,0
37520,14289,14526,0,0,0
37754,14427,14862,0,0,0
37975,14557,15181,0,0,0
38180,14676,15482,0,0,0
38363,14786,15760,0,0,0
38525,14885,16014,0,0,0
38667,14969,16242,0,0,0
38792,15040,16445,0,0,0
38901,15100,16622,0,0,0
38999,15153,16775,0,0,0
39090,15201,16908,0,0,0
39173,15244,17023,0,0,0
39245,15282,17119,0,0,0
39306,15313,17198,0,0,0
39356,15342,17263,0,0,0
39397,15368,17322,0,0,0
39429,15391,17378,0,0,0
39455,15411,17431,0,0,0
39481,15432,17481,0,0,0
39504,15452,17526,0,0,0
39525,15471,17567,0,0,0
39547,15490,17608,0,0,0
39575,15512,17650,0,0,0
39611,15534,17696,0,0,0
39650,15554,17744,0,0,0
39689,15571,17792,0,0,0
39728,15589,17840,0,0,0
39766,15606,17886,0,0,0
39803,15623,17931,0,0,0
39839,15640,17978,0,0,0
39873,15657,18027,0,0,0
39903,15673,18074,0,0,0
39928,15686,18114,0,0,0
39947,15695,18145,0,0,0
39956,15701,18166,0,0,0
39956,15704,18175,0,0,0
39946,15705,18172,0,0,0
39927,15702,18158,0,0,0
39901,15696,18139,0,0,0
39869,15686,18112,0,0,0
39835,15672,18078,0,0,0
39802,15653,18040,0,0,0
39772,15632,18000,0,0,0
39741,15611,17956,0,0,0
39709,15588,17911,0,0,0
39677,15566,17867,0,0,0
39644,15546,17826,0,0,0
39614,15527,17790,0,0,0
39590,15510,17758,0,0,0
39571,15496,17730,0,0,0
39554,15486,17708,0,0,0
39541,15480,17692,0,0,0
39534,15479,17683,0,0,0
39533,15482,17680,0,0,0
39535,15489,17683,0,0,0
39542,15499,17693,0,0,0
39553,15508,17706,0,0,0
39564,15516,17719,0,0,0
39574,15521,17730,0,0,0
39583,15524,17740,0,0,0
39589,15524,17747,0,0,0
39592,15521,17748,0,0,0
39591,15518,17745,0,0,0
39589,15514,17741,0,0,0
39584,15509,17736,0,0,0
39577,15504,17727,0,0,0
39567,15498,17714,0,0,0
39552,15490,17697,0,0,0
39533,15480,17677,0,0,0
39510,15468,17652,0,0,0
39482,15455,17620,0,0,0
39449,15439,17578,0,0,0
39413,15421,17531,0,0,0
39378,15401,17482,0,0,0
39344,15380,17435,0,0,0
39311,15358,17388,0,0,0
39278,15336,17339,0,0,0
39241,15313,17287,0,0,0
39200,15289,17231,0,0,0
39160,15263,17174,0,0,0
39122,15238,17116,0,0,0
39086,15213,17059,0,0,0
39052,15188,17003,0,0,0
39016,15162,16948,0,0,0
38978,15136,16892,0,0,0
38938,15111,16834,0,0,0
38895,15084,16775,0,0,0
38850,15056,16713,0,0,0
38804,15028,16651,0,0,0
38760,15002,16590,0,0,0
38715,14975,16531,0,0,0
38671,14949,16473,0,0,0
38627,14926,16418,0,0,0
38585,14905,16359,0,0,0
38540,14884,16297,0,0,0
38494,14862,16233,0,0,0
38449,14840,16169,0,0,0
38406,14819,16106,0,0,0
38361,14797,16046,0,0,0
38317,14773,15986,0,0,0
38274,14750,15926,0,0,0
38233,14727,15868,0,0,0
38193,14703,15810,0,0,0
38155,14678,15754,0,0,0
38118,14654,15702,0,0,0
38080,14631,15650,0,0,0
38040,14610,15595,0,0,0
38003,14588,15540,0,0,0
37967,14567,15488,0,0,0
37931,14547,15436,0,0,0
37893,14526,15382,0,0,0
37851,14504,15325,0,0,0
37805,14480,15268,0,0,0
37756,14455,15212,0,0,0
37710,14430,15159,0,0,0
37667,14407,15106,0,0,0
37625,14387,15056,0,0,0
37586,14368,15006,0,0,0
37549,14348,14953,0,0,0
37511,14326,14897,0,0,0
37475,14302,14838,0,0,0
37440,14277,14779,0,0,0
37403,14253,14721,0,0,0
37363,14232,14663,0,0,0
37323,14212,14606,0,0,0
37285,14191,14552,0,0,0
37250,14171,14497,0,0,0
37217,14151,14442,0,0,0
37183,14131,14384,0,0,0
37148,14111,14326,0,0,0
37111,14092,14270,0,0,0
37076,14076,14218,0,0,0
37040,14059,14163,0,0,0
37003,14040,14106,0,0,0
36964,14019,14050,0,0,0
36923,13999,14000,0,0,0
36881,13980,13955,0,0,0
36837,13959,13912,0,0,0
36794,13939,13866,0,0,0
36750,13917,13818,0,0,0
36708,13895,13769,0,0,0
36665,13874,13718,0,0,0
36621,13852,13664,0,0,0
36576,13830,13608,0,0,0
36532,13806,13552,0,0,0
36487,13783,13494,0,0,0
36443,13760,13436,0,0,0
36406,13739,13380,0,0,0
36375,13721,13326,0,0,0
36349,13704,13273,0,0,0
36322,13688,13223,0,0,0
36295,13673,13177,0,0,0
36269,13659,13132,0,0,0
36243,13645,13084,0,0,0
36217,13628,13031,0,0,0
36192,13609,12976,0,0,0
36166,13588,12920,0,0,0
36136,13564,12861,0,0,0
36097,13537,12802,0,0,0
36054,13513,12743,0,0,0
36010,13489,12685,0,0,0
35969,13469,12631,0,0,0
35934,13454,12585,0,0,0
35911,13446,12556,0,0,0
35903,13444,12549,0,0,0
35919,13454,12567,0,0,0
35960,13479,12614,0,0,0
36027,13520,12695,0,0,0
36119,13577,12815,0,0,0
36239,13650,12975,0,0,0
36386,13743,13176,0,0,0
36558,13851,13415,0,0,0
36751,13970,13689,0,0,0
36964,14096,13996,0,0,0
37194,14229,14330,0,0,0
37439,14370,14686,0,0,0
37692,14517,15056,0,0,0
37948,14668,15434,0,0,0
38203,14818,15814,0,0,0
38454,14966,16190,0,0,0
38699,15109,16557,0,0,0
38937,15248,16912,0,0,0
39165,15384,17252,0,0,0
39377,15511,17569,0,0,0
39570,15626,17862,0,0,0
39743,15729,18129,0,0,0
39899,15821,18370,0,0,0
40040,15898,18581,0,0,0
40162,15964,18764,0,0,0
40266,16022,18922,0,0,0
40352,16072,19059,0,0,0
40422,16115,19177,0,0,0
40480,16152,19277,0,0,0
40529,16186,19365,0,0,0
40575,16218,19444,0,0,0
40619,16248,19516,0,0,0
40663,16278,19583,0,0,0
40705,16308,19648,0,0,0
40748,16337,19710,0,0,0
40792,16365,19769,0,0,0
40837,16391,19826,0,0,0
40882,16415,19881,0,0,0
40922,16438,19936,0,0,0
40959,16461,19992,0,0,0
40995,16484,20052,0,0,0
41036,16506,20115,0,0,0
41080,16528,20183,0,0,0
41126,16551,20258,0,0,0
41171,16574,20339,0,0,0
41214,16597,20418,0,0,0
41256,16621,20489,0,0,0
41298,16644,20550,0,0,0
41338,16667,20601,0,0,0
41375,16689,20646,0,0,0
41405,16707,20684,0,0,0
41428,16721,20713,0,0,0
41444,16729,20731,0,0,0
41453,16731,20738,0,0,0
41459,16729,20736,0,0,0
41461,16724,20725,0,0,0
41455,16716,20705,0,0,0
41440,16706,20676,0,0,0
41418,16694,20640,0,0,0
41389,16679,20597,0,0,0
41355,16660,20549,0,0,0
41319,16640,20502,0,0,0
41287,16624,20458,0,0,0
41257,16610,20420,0,0,0
41229,16596,20389,0,0,0
41204,16585,20365,0,0,0
41188,16578,20345,0,0,0
41178,16573,20329,0,0,0
41171,16571,20317,0,0,0
41168,16571,20310,0,0,0
41170,16572,20305,0,0,0
41175,16575,20302,0,0,0
41185,16579,20303,0,0,0
41197,16583,20309,0,0,0
41211,16588,20322,0,0,0
41225,16595,20338,0,0,0
41237,16602,20352,0,0,0
41247,16609,20365,0,0,0
41257,16615,20376,0,0,0
41263,16620,20383,0,0,0
41265,16622,20384,0,0,0
41260,16622,20379,0,0,0
41247,16617,20364,0,0,0
41228,16608,20337,0,0,0
41201,16597,20303,0,0,0
41170,16585,20266,0,0,0
41135,16569,20225,0,0,0
41095,16549,20180,0,0,0
41051,16526,20128,0,0,0
41006,16503,20073,0,0,0
40960,16480,20016,0,0,0
40913,16456,19958,0,0,0
40867,16430,19900,0,0,0
40822,16402,19843,0,0,0
40777,16373,19782,0,0,0
40728,16341,19718,0,0,0
40677,16308,19654,0,0,0
40622,16273,19588,0,0,0
40564,16237,19522,0,0,0
40504,16200,19455,0,0,0
40446,16165,19386,0,0,0
40390,16131,19316,0,0,0
40331,16097,19245,0,0,0
40271,16067,19174,0,0,0
40213,16038,19102,0,0,0
40156,16010,19030,0,0,0
40100,15977,18957,0,0,0
40045,15940,18881,0,0,0
39992,15904,18804,0,0,0
39939,15870,18726,0,0,0
39886,15836,18646,0,0,0
39833,15804,18567,0,0,0
39780,15775,18492,0,0,0
39727,15748,18421,0,0,0
39675,15720,18353,0,0,0
39625,15691,18286,0,0,0
39577,15663,18221,0,0,0
39531,15637,18156,0,0,0
39485,15612,18089,0,0,0
39437,15587,18022,0,0,0
39388,15562,17960,0,0,0
39336,15535,17899,0,0,0
39284,15507,17836,0,0,0
39234,15479,17770,0,0,0
39184,15452,17703,0,0,0
39137,15427,17634,0,0,0
39091,15402,17563,0,0,0
39046,15376,17493,0,0,0
39000,15350,17425,0,0,0
38956,15325,17361,0,0,0
38914,15299,17297,0,0,0
38871,15272,17232,0,0,0
38825,15243,17167,0,0,0
38778,15216,17103,0,0,0
38729,15190,17041,0,0,0
38680,15164,16979,0,0,0
38635,15138,16920,0,0,0
38594,15112,16859,0,0,0
38553,15087,16796,0,0,0
38511,15064,16731,0,0,0
38469,15042,16668,0,0,0
38427,15019,16604,0,0,0
38383,14993,16540,0,0,0
38339,14964,16477,0,0,0
38295,14935,16417,0,0,0
38253,14907,16359,0,0,0
38213,14882,16304,0,0,0
38174,14860,16248,0,0,0
38136,14838,16193,0,0,0
38096,14814,16139,0,0,0
38057,14791,16084,0,0,0
38021,14770,16027,0,0,0
37986,14750,15967,0,0,0
37952,14729,15906,0,0,0
37919,14706,15843,0,0,0
37885,14685,15779,0,0,0
37848,14666,15716,0,0,0
37808,14648,15652,0,0,0
37765,14631,15589,0,0,0
37725,14614,15527,0,0,0
37689,14597,15468,0,0,0
37656,14580,15413,0,0,0
37625,14562,15357,0,0,0
37594,14542,15301,0,0,0
37560,14519,15245,0,0,0
37525,14495,15191,0,0,0
37489,14471,15137,0,0,0
37452,14447,15082,0,0,0
37416,14424,15024,0,0,0
37380,14402,14964,0,0,0
37342,14378,14905,0,0,0
37301,14352,14844,0,0,0
37256,14322,14781,0,0,0
37207,14292,14717,0,0,0
37156,14261,14652,0,0,0
37104,14233,14589,0,0,0
37051,14209,14525,0,0,0
36996,14184,14457,0,0,0
36943,14158,14387,0,0,0
36895,14133,14320,0,0,0
36853,14113,14257,0,0,0
36814,14095,14195,0,0,0
36776,14077,14134,0,0,0
36739,14058,14075,0,0,0
36701,14038,14018,0,0,0
36662,14017,13961,0,0,0
36624,13994,13905,0,0,0
36588,13972,13854,0,0,0
36560,13954,13814,0,0,0
36545,13943,13792,0,0,0
36547,13943,13794,0,0,0
36573,13959,13822,0,0,0
36622,13991,13884,0,0,0
36698,14040,13983,0,0,0
36803,14105,14122,0,0,0
36938,14186,14304,0,0,0
37100,14284,14530,0,0,0
37288,14397,14794,0,0,0
37497,14525,15093,0,0,0
37727,14665,15427,0,0,0
37972,14812,15788,0,0,0
38230,14966,16165,0,0,0
38496,15126,16552,0,0,0
38764,15287,16945,0,0,0
39031,15445,17340,0,0,0
39295,15599,17729,0,0,0
39552,15748,18109,0,0,0
39799,15893,18475,0,0,0
40033,16030,18824,0,0,0
40253,16159,19152,0,0,0
40457,16277,19454,0,0,0
40640,16385,19724,0,0,0
40803,16482,19959,0,0,0
40949,16568,20165,0,0,0
41076,16645,20350,0,0,0
41187,16714,20515,0,0,0
41285,16776,20661,0,0,0
41372,16829,20792,0,0,0
41449,16877,20912,0,0,0
41520,16924,21021,0,0,0
41587,16968,21120,0,0,0
41651,17009,21212,0,0,0
41714,17048,21298,0,0,0
41776,17083,21380,0,0,0
41837,17113,21456,0,0,0
41897,17142,21530,0,0,0
41956,17170,21602,0,0,0
42012,17200,21670,0,0,0
42067,17229,21738,0,0,0
42120,17257,21808,0,0,0
42171,17284,21881,0,0,0
42222,17311,21957,0,0,0
42273,17337,22035,0,0,0
42325,17365,22115,0,0,0
42376,17397,22194,0,0,0
42423,17430,22268,0,0,0
42467,17462,22335,0,0,0
42506,17491,22397,0,0,0
42542,17516,22451,0,0,0
42570,17535,22495,0,0,0
42591,17548,22531,0,0,0
42604,17557,22558,0,0,0
42609,17561,22571,0,0,0
42607,17560,22569,0,0,0
42597,17556,22554,0,0,0
42581,17547,22529,0,0,0
42558,17533,22494,0,0,0
42530,17513,22453,0,0,0
42498,17489,22405,0,0,0
42464,17464,22352,0,0,0
42428,17439,22294,0,0,0
42389,17415,22236,0,0,0
42348,17391,22181,0,0,0
42309,17368,22134,0,0,0
42273,17347,22093,0,0,0
42240,17330,22057,0,0,0
42210,17316,22025,0,0,0
42184,17306,21996,0,0,0
42159,17297,21970,0,0,0
42134,17287,21949,0,0,0
42112,17278,21930,0,0,0
42092,17270,21915,0,0,0
42074,17262,21900,0,0,0
42056,17254,21886,0,0,0
42037,17245,21871,0,0,0
42018,17233,21855,0,0,0
41996,17220,21838,0,0,0
41972,17205,21820,0,0,0
41947,17190,21800,0,0,0
41922,17174,21777,0,0,0
41892,17157,21753,0,0,0
41858,17140,21726,0,0,0
41822,17121,21694,0,0,0
41786,17104,21661,0,0,0
41748,17086,21626,0,0,0
41710,17068,21590,0,0,0
41673,17050,21554,0,0,0
41639,17034,21516,0,0,0
41607,17020,21475,0,0,0
41579,17008,21431,0,0,0
41556,16994,21388,0,0,0
41538,16979,21343,0,0,0
41522,16963,21297,0,0,0
41506,16948,21247,0,0,0
41492,16933,21197,0,0,0
41479,16918,21149,0,0,0
41466,16903,21100,0,0,0
41450,16885,21048,0,0,0
41432,16863,20994,0,0,0
41409,16839,20937,0,0,0
41380,16812,20879,0,0,0
41349,16786,20820,0,0,0
41316,16760,20762,0,0,0
41281,16735,20704,0,0,0
41241,16712,20642,0,0,0
41196,16688,20579,0,0,0
41147,16661,20516,0,0,0
41095,16631,20452,0,0,0
41041,16599,20385,0,0,0
40984,16565,20313,0,0,0
40925,16529,20239,0,0,0
40865,16490,20163,0,0,0
40808,16453,20087,0,0,0
40755,16419,20015,0,0,0
40706,16389,19947,0,0,0
40661,16362,19881,0,0,0
40617,16338,19815,0,0,0
40574,16314,19747,0,0,0
40530,16292,19676,0,0,0
40487,16273,19607,0,0,0
40443,16256,19539,0,0,0
40402,16239,19473,0,0,0
40362,16220,19407,0,0,0
40325,16197,19343,0,0,0
40290,16173,19280,0,0,0
40257,16150,19217,0,0,0
40225,16127,19156,0,0,0
40190,16102,19097,0,0,0
40152,16077,19042,0,0,0
40110,16055,18988,0,0,0
40065,16032,18935,0,0,0
40022,16009,18884,0,0,0
39982,15986,18832,0,0,0
39941,15963,18778,0,0,0
39901,15937,18722,0,0,0
39862,15912,18664,0,0,0
39823,15889,18606,0,0,0
39781,15865,18548,0,0,0
39736,15838,18491,0,0,0
39689,15811,18435,0,0,0
39644,15786,18380,0,0,0
39601,15762,18324,0,0,0
39562,15741,18269,0,0,0
39525,15723,18214,0,0,0
39490,15709,18158,0,0,0
39457,15696,18102,0,0,0
39425,15679,18046,0,0,0
39390,15661,17990,0,0,0
39350,15643,17934,0,0,0
39306,15623,17876,0,0,0
39263,15602,17814,0,0,0
39220,15580,17750,0,0,0
39178,15559,17685,0,0,0
39139,15537,17623,0,0,0
39101,15513,17559,0,0,0
39062,15489,17496,0,0,0
39025,15465,17436,0,0,0
38988,15441,17378,0,0,0
38953,15418,17322,0,0,0
38921,15398,17267,0,0,0
38890,15377,17210,0,0,0
38859,15352,17150,0,0,0
38824,15323,17089,0,0,0
38787,15291,17027,0,0,0
38750,15260,16967,0,0,0
38715,15230,16909,0,0,0
38681,15204,16851,0,0,0
38646,15181,16794,0,0,0
38610,15161,16738,0,0,0
38572,15143,16685,0,0,0
38534,15128,16633,0,0,0
38497,15115,16579,0,0,0
38460,15104,16525,0,0,0
38425,15093,16473,0,0,0
38390,15078,16421,0,0,0
38355,15063,16367,0,0,0
38319,15045,16314,0,0,0
38281,15024,16260,0,0,0
38241,15000,16201,0,0,0
38195,14974,16133,0,0,0
38145,14947,16058,0,0,0
38090,14915,15978,0,0,0
38030,14880,15892,0,0,0
37965,14843,15801,0,0,0
37893,14803,15707,0,0,0
37816,14762,15611,0,0,0
37736,14722,15515,0,0,0
37656,14682,15423,0,0,0
37582,14645,15343,0,0,0
37516,14615,15280,0,0,0
37468,14596,15239,0,0,0
37443,14589,15229,0,0,0
37446,14598,15254,0,0,0
37482,14623,15319,0,0,0
37551,14665,15427,0,0,0
37654,14728,15581,0,0,0
37792,14813,15783,0,0,0
37963,14921,16031,0,0,0
38163,15047,16320,0,0,0
38391,15187,16646,0,0,0
38640,15338,17003,0,0,0
38906,15500,17384,0,0,0
39184,15669,17782,0,0,0
39468,15841,18191,0,0,0
39752,16014,18603,0,0,0
40030,16184,19008,0,0,0
40294,16348,19401,0,0,0
40541,16501,19774,0,0,0
40769,16643,20125,0,0,0
40976,16772,20449,0,0,0
41166,16889,20747,0,0,0
41343,16994,21018,0,0,0
41509,17088,21264,0,0,0
41664,17169,21484,0,0,0
41805,17242,21683,0,0,0
41931,17309,21863,0,0,0
42043,17370,22024,0,0,0
42147,17428,22165,0,0,0
42241,17481,22289,0,0,0
42329,17531,22400,0,0,0
42410,17578,22502,0,0,0
42484,17622,22598,0,0,0
42550,17664,22690,0,0,0
42610,17704,22780,0,0,0
42665,17741,22865,0,0,0
42712,17772,22943,0,0,0
42754,17795,23015,0,0,0
42794,17815,23083,0,0,0
42831,17837,23151,0,0,0
42868,17860,23219,0,0,0
42907,17887,23287,0,0,0
42948,17914,23353,0,0,0
42987,17943,23416,0,0,0
43026,17972,23478,0,0,0
43066,18001,23540,0,0,0
43104,18025,23597,0,0,0
43136,18043,23650,0,0,0
43161,18058,23697,0,0,0
43182,18069,23737,0,0,0
43199,18076,23770,0,0,0
43210,18078,23793,0,0,0
43217,18078,23806,0,0,0
43217,18075,23808,0,0,0
43209,18069,23797,0,0,0
43190,18060,23773,0,0,0
43162,18048,23741,0,0,0
43124,18033,23698,0,0,0
43077,18012,23644,0,0,0
43028,17988,23583,0,0,0
42980,17962,23519,0,0,0
42930,17934,23454,0,0,0
42881,17906,23391,0,0,0
42833,17877,23331,0,0,0
42787,17850,23273,0,0,0
42744,17825,23219,0,0,0
42705,17802,23170,0,0,0
42670,17779,23124,0,0,0
42638,17759,23084,0,0,0
42609,17742,23049,0,0,0
42583,17729,23018,0,0,0
42562,17719,22991,0,0,0
42542,17714,22968,0,0,0
42523,17709,22954,0,0,0
42506,17706,22945,0,0,0
42493,17703,22938,0,0,0
42482,17700,22931,0,0,0
42474,17696,22923,0,0,0
42467,17693,22915,0,0,0
42460,17691,22907,0,0,0
42450,17687,22898,0,0,0
42438,17680,22887,0,0,0
42422,17670,22871,0,0,0
42399,17656,22847,0,0,0
42365,17639,22818,0,0,0
42322,17616,22780,0,0,0
42269,17586,22731,0,0,0
42209,17550,22672,0,0,0
42138,17511,22604,0,0,0
42061,17470,22525,0,0,0
41986,17429,22437,0,0,0
41911,17387,22342,0,0,0
41839,17346,22247,0,0,0
41769,17305,22155,0,0,0
41698,17263,22066,0,0,0
41626,17221,21980,0,0,0
41556,17179,21898,0,0,0
41489,17140,21821,0,0,0
41421,17104,21746,0,0,0
41355,17070,21669,0,0,0
41292,17039,21590,0,0,0
41236,17008,21509,0,0,0
41187,16978,21430,0,0,0
41141,16949,21350,0,0,0
41096,16919,21267,0,0,0
41050,16888,21185,0,0,0
41003,16859,21104,0,0,0
40953,16829,21023,0,0,0
40901,16798,20943,0,0,0
40850,16767,20863,0,0,0
40800,16735,20783,0,0,0
40749,16703,20704,0,0,0
40695,16667,20629,0,0,0
40639,16630,20555,0,0,0
40582,16595,20476,0,0,0
40525,16561,20393,0,0,0
40467,16529,20308,0,0,0
40412,16498,20223,0,0,0
40361,16470,20141,0,0,0
40311,16444,20063,0,0,0
40265,16420,19989,0,0,0
40221,16394,19919,0,0,0
40178,16367,19850,0,0,0
40135,16339,19781,0,0,0
40094,16311,19713,0,0,0
40053,16284,19645,0,0,0
40013,16258,19577,0,0,0
39976,16233,19512,0,0,0
39942,16207,19450,0,0,0
39909,16181,19392,0,0,0
39874,16158,19334,0,0,0
39837,16135,19276,0,0,0
39802,16111,19217,0,0,0
39767,16087,19159,0,0,0
39730,16062,19101,0,0,0
39690,16039,19044,0,0,0
39650,16019,18988,0,0,0
39610,15999,18931,0,0,0
39569,15976,18871,0,0,0
39528,15952,18808,0,0,0
39486,15928,18743,0,0,0
39441,15901,18672,0,0,0
39393,15871,18599,0,0,0
39343,15840,18524,0,0,0
39292,15809,18451,0,0,0
39241,15779,18378,0,0,0
39194,15751,18309,0,0,0
39151,15723,18246,0,0,0
39109,15696,18187,0,0,0
39065,15667,18129,0,0,0
39022,15639,18068,0,0,0
38982,15614,18005,0,0,0
38944,15592,17943,0,0,0
38907,15573,17883,0,0,0
38875,15555,17824,0,0,0
38843,15533,17765,0,0,0
38810,15509,17704,0,0,0
38771,15483,17640,0,0,0
38727,15454,17576,0,0,0
38680,15424,17509,0,0,0
38629,15392,17440,0,0,0
38573,15361,17366,0,0,0
38512,15329,17289,0,0,0
38447,15295,17209,0,0,0
38379,15260,17127,0,0,0
38310,15225,17042,0,0,0
38239,15190,16957,0,0,0
38167,15155,16874,0,0,0
38092,15119,16794,0,0,0
38017,15084,16713,0,0,0
37945,15049,16633,0,0,0
37877,15016,16556,0,0,0
37812,14981,16480,0,0,0
37747,14944,16404,0,0,0
37683,14906,16329,0,0,0
37625,14870,16258,0,0,0
37574,14835,16187,0,0,0
37528,14801,16115,0,0,0
37483,14770,16042,0,0,0
37439,14740,15971,0,0,0
37397,14711,15901,0,0,0
37354,14681,15831,0,0,0
37308,14652,15762,0,0,0
37264,14630,15693,0,0,0
37223,14611,15627,0,0,0
37185,14596,15565,0,0,0
37156,14587,15517,0,0,0
37143,14588,15492,0,0,0
37149,14597,15491,0,0,0
37175,14615,15517,0,0,0
37224,14645,15573,0,0,0
37299,14690,15667,0,0,0
37404,14751,15804,0,0,0
37536,14832,15988,0,0,0
37694,14929,16216,0,0,0
37878,15041,16484,0,0,0
38085,15168,16789,0,0,0
38316,15308,17128,0,0,0
38569,15461,17496,0,0,0
38839,15626,17887,0,0,0
39121,15796,18291,0,0,0
39405,15969,18701,0,0,0
39688,16142,19111,0,0,0
39968,16312,19516,0,0,0
40238,16478,19912,0,0,0
40495,16636,20291,0,0,0
40734,16783,20649,0,0,0
40951,16918,20981,0,0,0
41144,17039,21283,0,0,0
41315,17147,21555,0,0,0
41466,17242,21800,0,0,0
41598,17323,22019,0,0,0
41714,17392,22214,0,0,0
41815,17453,22383,0,0,0
41908,17511,22530,0,0,0
41991,17563,22656,0,0,0
42062,17606,22767,0,0,0
42124,17642,22866,0,0,0
42182,17673,22956,0,0,0
42236,17704,23040,0,0,0
42287,17738,23122,0,0,0
42338,17773,23201,0,0,0
42386,17805,23273,0,0,0
42432,17834,23342,0,0,0
42475,17861,23407,0,0,0
42517,17887,23472,0,0,0
42562,17914,23537,0,0,0
42608,17941,23604,0,0,0
42654,17967,23674,0,0,0
42703,17998,23747,0,0,0
42758,18035,23822,0,0,0
42820,18073,23900,0,0,0
42886,18109,23980,0,0,0
42951,18141,24054,0,0,0
43011,18170,24121,0,0,0
43063,18194,24181,0,0,0
43105,18213,24234,0,0,0
43134,18228,24275,0,0,0
43149,18236,24300,0,0,0
43153,18236,24310,0,0,0
43145,18227,24306,0,0,0
43125,18210,24291,0,0,0
43097,18189,24262,0,0,0
43062,18165,24222,0,0,0
43021,18137,24174,0,0,0
42975,18106,24120,0,0,0
42923,18074,24061,0,0,0
42868,18041,24001,0,0,0
42817,18011,23943,0,0,0
42772,17986,23889,0,0,0
42734,17966,23841,0,0,0
42706,17950,23799,0,0,0
42684,17938,23766,0,0,0
42667,17931,23745,0,0,0
42657,17929,23735,0,0,0
42658,17931,23735,0,0,0
42667,17937,23742,0,0,0
42684,17947,23755,0,0,0
42702,17959,23771,0,0,0
42718,17972,23785,0,0,0
42731,17984,23797,0,0,0
42743,17992,23806,0,0,0
42753,17998,23813,0,0,0
42759,18003,23818,0,0,0
42763,18007,23823,0,0,0
42763,18007,23825,0,0,0
42759,18005,23823,0,0,0
42750,17999,23816,0,0,0
42736,17992,23803,0,0,0
42718,17985,23785,0,0,0
42695,17978,23761,0,0,0
42666,17966,23733,0,0,0
42635,17951,23700,0,0,0
42604,17935,23663,0,0,0
42569,17916,23620,0,0,0
42528,17894,23568,0,0,0
42480,17868,23509,0,0,0
42429,17840,23444,0,0,0
42376,17809,23377,0,0,0
42322,17777,23305,0,0,0
42265,17743,23229,0,0,0
42205,17708,23150,0,0,0
42140,17673,23069,0,0,0
42071,17637,22986,0,0,0
42003,17601,22902,0,0,0
41937,17566,22815,0,0,0
41874,17533,22731,0,0,0
41817,17505,22653,0,0,0
41764,17479,22581,0,0,0
41713,17450,22509,0,0,0
41662,17418,22434,0,0,0
41611,17382,22356,0,0,0
41559,17346,22279,0,0,0
41506,17312,22205,0,0,0
41454,17279,22132,0,0,0
41398,17249,22058,0,0,0
41342,17221,21982,0,0,0
41286,17194,21907,0,0,0
41228,17165,21833,0,0,0
41168,17136,21759,0,0,0
41107,17107,21681,0,0,0
41047,17076,21598,0,0,0
40987,17044,21513,0,0,0
40927,17009,21427,0,0,0
40867,16972,21343,0,0,0
40806,16938,21262,0,0,0
40747,16906,21182,0,0,0
40690,16873,21104,0,0,0
40634,16840,21025,0,0,0
40576,16803,20943,0,0,0
40513,16765,20859,0,0,0
40449,16726,20776,0,0,0
40386,16687,20695,0,0,0
40324,16648,20613,0,0,0
40262,16610,20533,0,0,0
40203,16574,20456,0,0,0
40148,16539,20385,0,0,0
40095,16504,20317,0,0,0
40046,16473,20256,0,0,0
40002,16447,20199,0,0,0
39962,16424,20142,0,0,0
39926,16402,20084,0,0,0
39891,16382,20025,0,0,0
39856,16362,19967,0,0,0
39820,16342,19908,0,0,0
39781,16322,19847,0,0,0
39740,16301,19780,0,0,0
39696,16281,19711,0,0,0
39647,16257,19640,0,0,0
39595,16231,19568,0,0,0
39541,16200,19497,0,0,0
39487,16165,19429,0,0,0
39433,16128,19362,0,0,0
39378,16093,19295,0,0,0
39324,16059,19230,0,0,0
39273,16027,19168,0,0,0
39223,15996,19105,0,0,0
39174,15967,19041,0,0,0
39127,15941,18974,0,0,0
39079,15915,18904,0,0,0
39027,15888,18827,0,0,0
38972,15857,18747,0,0,0
38916,15824,18667,0,0,0
38860,15795,18586,0,0,0
38799,15768,18506,0,0,0
38735,15742,18429,0,0,0
38671,15718,18356,0,0,0
38611,15695,18283,0,0,0
38553,15668,18209,0,0,0
38494,15637,18134,0,0,0
38430,15603,18057,0,0,0
38365,15569,17982,0,0,0
38301,15536,17909,0,0,0
38237,15505,17835,0,0,0
38174,15474,17760,0,0,0
38115,15442,17685,0,0,0
38060,15407,17610,0,0,0
38010,15373,17534,0,0,0
37965,15342,17460,0,0,0
37923,15313,17389,0,0,0
37885,15284,17321,0,0,0
37848,15256,17256,0,0,0
37817,15233,17198,0,0,0
37795,15218,17151,0,0,0
37786,15211,17121,0,0,0
37792,15215,17116,0,0,0
37820,15231,17143,0,0,0
37874,15264,17210,0,0,0
37954,15312,17319,0,0,0
38063,15376,17470,0,0,0
38200,15460,17665,0,0,0
38366,15563,17902,0,0,0
38559,15684,18182,0,0,0
38778,15822,18502,0,0,0
39020,15974,18857,0,0,0
39283,16138,19239,0,0,0
39561,16309,19640,0,0,0
39848,16486,20053,0,0,0
40138,16664,20470,0,0,0
40424,16838,20887,0,0,0
40701,17008,21298,0,0,0
40965,17174,21699,0,0,0
41218,17332,22082,0,0,0
41455,17478,22442,0,0,0
41673,17612,22773,0,0,0
41869,17734,23077,0,0,0
42043,17843,23351,0,0,0
42197,17941,23597,0,0,0
42328,18025,23815,0,0,0
42442,18097,24006,0,0,0
42541,18158,24174,0,0,0
42628,18212,24324,0,0,0
42706,18261,24458,0,0,0
42778,18306,24579,0,0,0
42845,18347,24690,0,0,0
42910,18385,24792,0,0,0
42971,18419,24888,0,0,0
43030,18452,24979,0,0,0
43085,18481,25061,0,0,0
43134,18508,25135,0,0,0
43182,18533,25207,0,0,0
43232,18561,25281,0,0,0
43285,18594,25359,0,0,0
43339,18628,25442,0,0,0
43396,18663,25530,0,0,0
43455,18697,25621,0,0,0
43516,18731,25711,0,0,0
43574,18765,25799,0,0,0
43626,18798,25883,0,0,0
43673,18831,25962,0,0,0
43715,18859,26035,0,0,0
43753,18882,26099,0,0,0
43786,18901,26152,0,0,0
43815,18918,26195,0,0,0
43836,18932,26229,0,0,0
43849,18940,26248,0,0,0
43852,18942,26251,0,0,0
43845,18939,26242,0,0,0
43828,18929,26221,0,0,0
43802,18913,26186,0,0,0
43769,18891,26141,0,0,0
43731,18865,26088,0,0,0
43686,18835,26024,0,0,0
43637,18801,25949,0,0,0
43586,18767,25873,0,0,0
43539,18735,25800,0,0,0
43495,18705,25733,0,0,0
43454,18677,25674,0,0,0
43420,18652,25621,0,0,0
43392,18630,25578,0,0,0
43369,18614,25544,0,0,0
43353,18604,25520,0,0,0
43344,18597,25507,0,0,0
43340,18594,25504,0,0,0
43340,18597,25509,0,0,0
43344,18604,25520,0,0,0
43353,18613,25533,0,0,0
43361,18621,25547,0,0,0
43367,18628,25560,0,0,0
43373,18635,25569,0,0,0
43376,18639,25573,0,0,0
43376,18641,25574,0,0,0
43374,18643,25571,0,0,0
43369,18644,25562,0,0,0
43360,18642,25544,0,0,0
43346,18633,25518,0,0,0
43325,18618,25488,0,0,0
43298,18597,25453,0,0,0
43266,18574,25413,0,0,0
43226,18549,25366,0,0,0
43179,18523,25311,0,0,0
43125,18496,25250,0,0,0
43063,18466,25183,0,0,0
42995,18431,25106,0,0,0
42922,18393,25022,0,0,0
42848,18354,24933,0,0,0
42773,18313,24844,0,0,0
42697,18272,24753,0,0,0
42620,18231,24661,0,0,0
42545,18190,24568,0,0,0
42471,18149,24472,0,0,0
42399,18108,24375,0,0,0
42327,18066,24279,0,0,0
42254,18025,24186,0,0,0
42181,17986,24096,0,0,0
42111,17947,24011,0,0,0
42042,17908,23930,0,0,0
41976,17873,23850,0,0,0
41916,17841,23770,0,0,0
41860,17811,23691,0,0,0
41807,17781,23612,0,0,0
41755,17754,23536,0,0,0
41705,17730,23462,0,0,0
41658,17706,23391,0,0,0
41614,17682,23323,0,0,0
41572,17659,23255,0,0,0
41532,17636,23187,0,0,0
41495,17611,23120,0,0,0
41459,17583,23053,0,0,0
41423,17553,22990,0,0,0
41388,17526,22930,0,0,0
41353,17502,22870,0,0,0
41318,17481,22810,0,0,0
41283,17461,22749,0,0,0
41247,17440,22688,0,0,0
41208,17418,22627,0,0,0
41168,17394,22565,0,0,0
41127,17368,22501,0,0,0
41083,17341,22435,0,0,0
41035,17313,22367,0,0,0
40986,17283,22298,0,0,0
40937,17252,22231,0,0,0
40890,17222,22164,0,0,0
40842,17192,22096,0,0,0
40791,17160,22028,0,0,0
40739,17128,21961,0,0,0
40687,17097,21895,0,0,0
40634,17068,21829,0,0,0
40581,17039,21762,0,0,0
40528,17009,21693,0,0,0
40475,16979,21619,0,0,0
40426,16951,21542,0,0,0
40380,16925,21463,0,0,0
40335,16901,21385,0,0,0
40288,16877,21311,0,0,0
40244,16853,21242,0,0,0
40201,16831,21176,0,0,0
40158,16811,21112,0,0,0
40116,16793,21051,0,0,0
40074,16773,20990,0,0,0
40030,16751,20926,0,0,0
39985,16726,20860,0,0,0
39939,16698,20792,0,0,0
39891,16671,20722,0,0,0
39839,16645,20653,0,0,0
39787,16618,20588,0,0,0
39734,16589,20525,0,0,0
39678,16555,20462,0,0,0
39624,16519,20396,0,0,0
39570,16483,20325,0,0,0
39518,16447,20252,0,0,0
39469,16415,20180,0,0,0
39424,16386,20110,0,0,0
39381,16359,20043,0,0,0
39337,16332,19976,0,0,0
39290,16303,19910,0,0,0
39239,16274,19842,0,0,0
39185,16245,19774,0,0,0
39129,16211,19705,0,0,0
39075,16174,19634,0,0,0
39025,16138,19562,0,0,0
38980,16107,19492,0,0,0
38937,16079,19422,0,0,0
38893,16053,19351,0,0,0
38849,16028,19285,0,0,0
38805,16005,19224,0,0,0
38760,15980,19161,0,0,0
38712,15951,19095,0,0,0
38665,15922,19028,0,0,0
38621,15892,18962,0,0,0
38581,15864,18896,0,0,0
38540,15839,18829,0,0,0
38496,15815,18766,0,0,0
38450,15790,18701,0,0,0
38401,15764,18633,0,0,0
38351,15738,18563,0,0,0
38303,15715,18496,0,0,0
38259,15693,18433,0,0,0
38217,15671,18372,0,0,0
38174,15648,18310,0,0,0
38131,15626,18244,0,0,0
38088,15605,18177,0,0,0
38049,15586,18111,0,0,0
38015,15570,18053,0,0,0
37991,15558,18010,0,0,0
37985,15553,17989,0,0,0
38000,15558,17996,0,0,0
38040,15576,18036,0,0,0
38104,15610,18116,0,0,0
38196,15661,18240,0,0,0
38317,15730,18414,0,0,0
38472,15820,18637,0,0,0
38663,15934,18909,0,0,0
38883,16067,19224,0,0,0
39130,16218,19577,0,0,0
39401,16389,19969,0,0,0
39694,16575,20394,0,0,0
40002,16767,20845,0,0,0
40320,16964,21314,0,0,0
40643,17168,21795,0,0,0
40965,17374,22279,0,0,0
41282,17576,22755,0,0,0
41592,17768,23216,0,0,0
41889,17951,23657,0,0,0
42168,18124,24072,0,0,0
42423,18285,24458,0,0,0
42656,18434,24812,0,0,0
42867,18570,25136,0,0,0
43060,18692,25433,0,0,0
43233,18801,25703,0,0,0
43388,18898,25946,0,0,0
43527,18989,26166,0,0,0
43652,19074,26367,0,0,0
43766,19150,26550,0,0,0
43873,19220,26719,0,0,0
43978,19288,26881,0,0,0
44084,19354,27037,0,0,0
44188,19418,27188,0,0,0
44290,19482,27335,0,0,0
44393,19549,27484,0,0,0
44495,19618,27635,0,0,0
44596,19687,27787,0,0,0
44695,19754,27940,0,0,0
44794,19817,28093,0,0,0
44891,19876,28241,0,0,0
44988,19933,28384,0,0,0
45085,19990,28524,0,0,0
45181,20048,28664,0,0,0
45273,20107,28802,0,0,0
45357,20165,28936,0,0,0
45435,20220,29063,0,0,0
45503,20270,29181,0,0,0
45558,20315,29287,0,0,0
45600,20354,29380,0,0,0
45633,20387,29459,0,0,0
45657,20415,29521,0,0,0
45668,20433,29565,0,0,0
45666,20441,29591,0,0,0
45649,20439,29598,0,0,0
45619,20428,29585,0,0,0
45579,20408,29551,0,0,0
45531,20379,29500,0,0,0
45476,20346,29436,0,0,0
45416,20310,29360,0,0,0
45352,20271,29275,0,0,0
45286,20229,29188,0,0,0
45221,20186,29103,0,0,0
45162,20148,29021,0,0,0
45105,20114,28941,0,0,0
45049,20082,28866,0,0,0
44998,20052,28798,0,0,0
44953,20022,28737,0,0,0
44914,19994,28684,0,0,0
44881,19970,28638,0,0,0
44854,19952,28604,0,0,0
44832,19939,28579,0,0,0
44815,19929,28559,0,0,0
44800,19923,28544,0,0,0
44789,19919,28533,0,0,0
44780,19918,28524,0,0,0
44772,19919,28516,0,0,0
44765,19921,28509,0,0,0
44755,19921,28502,0,0,0
44744,19919,28493,0,0,0
44733,19915,28481,0,0,0
44717,19907,28468,0,0,0
44696,19896,28451,0,0,0
44668,19883,28429,0,0,0
44634,19868,28397,0,0,0
44598,19853,28358,0,0,0
44560,19837,28310,0,0,0
44518,19816,28257,0,0,0
44470,19787,28198,0,0,0
44421,19752,28134,0,0,0
44369,19716,28064,0,0,0
44313,19676,27988,0,0,0
44254,19633,27910,0,0,0
44189,19591,27830,0,0,0
44122,19549,27746,0,0,0
44052,19507,27658,0,0,0
43983,19467,27565,0,0,0
43914,19427,27471,0,0,0
43847,19388,27378,0,0,0
43779,19348,27285,0,0,0
43715,19308,27193,0,0,0
43653,19270,27101,0,0,0
43594,19234,27009,0,0,0
43538,19200,26920,0,0,0
43486,19170,26834,0,0,0
43437,19141,26751,0,0,0
43389,19113,26671,0,0,0
43341,19083,26594,0,0,0
43292,19051,26517,0,0,0
43243,19017,26441,0,0,0
43194,18980,26364,0,0,0
43140,18942,26284,0,0,0
43085,18900,26199,0,0,0
43030,18856,26112,0,0,0
42973,18812,26026,0,0,0
42912,18771,25939,0,0,0
42851,18735,25854,0,0,0
42791,18701,25770,0,0,0
42730,18666,25686,0,0,0
42671,18634,25603,0,0,0
42617,18604,25524,0,0,0
42567,18575,25448,0,0,0
42517,18545,25371,0,0,0
42465,18514,25292,0,0,0
42413,18483,25215,0,0,0
42359,18450,25140,0,0,0
42301,18415,25063,0,0,0
42242,18381,24986,0,0,0
42189,18348,24908,0,0,0
42140,18317,24830,0,0,0
42090,18286,24751,0,0,0
42037,18254,24671,0,0,0
41983,18224,24590,0,0,0
41927,18193,24510,0,0,0
41864,18160,24431,0,0,0
41796,18123,24353,0,0,0
41727,18084,24276,0,0,0
41660,18046,24198,0,0,0
41596,18007,24117,0,0,0
41535,17971,24036,0,0,0
41477,17938,23958,0,0,0
41420,17907,23881,0,0,0
41361,17874,23801,0,0,0
41300,17841,23721,0,0,0
41239,17809,23641,0,0,0
41179,17776,23563,0,0,0
41119,17742,23485,0,0,0
41059,17708,23408,0,0,0
41003,17675,23335,0,0,0
40952,17643,23264,0,0,0
40902,17612,23191,0,0,0
40849,17580,23117,0,0,0
40795,17547,23043,0,0,0
40738,17512,22969,0,0,0
40677,17477,22893,0,0,0
40615,17441,22812,0,0,0
40555,17406,22727,0,0,0
40497,17371,22641,0,0,0
40439,17336,22555,0,0,0
40384,17301,22470,0,0,0
40330,17267,22387,0,0,0
40273,17234,22305,0,0,0
40216,17200,22222,0,0,0
40157,17166,22143,0,0,0
40098,17135,22067,0,0,0
40038,17104,21992,0,0,0
39979,17073,21917,0,0,0
39921,17040,21842,0,0,0
39867,17006,21766,0,0,0
39814,16971,21688,0,0,0
39761,16934,21605,0,0,0
39707,16897,21520,0,0,0
39650,16862,21435,0,0,0
39589,16828,21353,0,0,0
39527,16796,21274,0,0,0
39467,16763,21195,0,0,0
39409,16730,21116,0,0,0
39354,16696,21037,0,0,0
39302,16663,20960,0,0,0
39252,16634,20888,0,0,0
39204,16607,20820,0,0,0
39159,16583,20754,0,0,0
39118,16560,20689,0,0,0
39078,16537,20627,0,0,0
39038,16514,20568,0,0,0
38996,16489,20509,0,0,0
38954,16463,20448,0,0,0
38913,16439,20385,0,0,0
38876,16414,20321,0,0,0
38838,16385,20255,0,0,0
38796,16354,20191,0,0,0
38751,16324,20128,0,0,0
38705,16295,20066,0,0,0
38656,16266,20002,0,0,0
38602,16238,19934,0,0,0
38547,16210,19863,0,0,0
38496,16183,19793,0,0,0
38448,16158,19722,0,0,0
38401,16133,19648,0,0,0
38355,16107,19573,0,0,0
38308,16080,19498,0,0,0
38261,16052,19422,0,0,0
38217,16025,19347,0,0,0
38174,16000,19276,0,0,0
38132,15976,19213,0,0,0
38092,15954,19157,0,0,0
38056,15938,19110,0,0,0
38031,15929,19077,0,0,0
38024,15929,19067,0,0,0
38038,15942,19084,0,0,0
38077,15971,19139,0,0,0
38143,16017,19237,0,0,0
38242,16080,19382,0,0,0
38373,16162,19575,0,0,0
38537,16264,19819,0,0,0
38734,16385,20114,0,0,0
38962,16527,20458,0,0,0
39219,16687,20847,0,0,0
39505,16864,21273,0,0,0
39812,17052,21726,0,0,0
40137,17245,22202,0,0,0
40473,17444,22692,0,0,0
40814,17648,23189,0,0,0
41150,17855,23681,0,0,0
41476,18058,24159,0,0,0
41786,18254,24618,0,0,0
42078,18443,25054,0,0,0
42350,18621,25465,0,0,0
42597,18782,25844,0,0,0
42819,18925,26186,0,0,0
43022,19053,26497,0,0,0
43206,19169,26784,0,0,0
43372,19272,27046,0,0,0
43523,19364,27283,0,0,0
43660,19448,27498,0,0,0
43780,19525,27693,0,0,0
43885,19594,27867,0,0,0
43979,19654,28025,0,0,0
44071,19712,28173,0,0,0
44163,19769,28314,0,0,0
44253,19825,28449,0,0,0
44342,19880,28583,0,0,0
44428,19934,28719,0,0,0
44511,19988,28853,0,0,0
44594,20046,28985,0,0,0
44677,20106,29117,0,0,0
44758,20167,29249,0,0,0
44839,20226,29381,0,0,0
44922,20282,29512,0,0,0
45003,20335,29641,0,0,0
45080,20385,29770,0,0,0
45153,20434,29893,0,0,0
45222,20480,30009,0,0,0
45285,20520,30118,0,0,0
45344,20553,30218,0,0,0
45397,20584,30309,0,0,0
45444,20613,30389,0,0,0
45486,20641,30461,0,0,0
45522,20665,30522,0,0,0
45546,20684,30568,0,0,0
45558,20696,30596,0,0,0
45561,20699,30603,0,0,0
45552,20693,30591,0,0,0
45531,20679,30561,0,0,0
45499,20658,30514,0,0,0
45458,20629,30453,0,0,0
45408,20593,30382,0,0,0
45349,20550,30302,0,0,0
45284,20504,30218,0,0,0
45215,20454,30130,0,0,0
45144,20406,30040,0,0,0
45072,20360,29949,0,0,0
45003,20318,29862,0,0,0
44940,20280,29783,0,0,0
44885,20246,29708,0,0,0
44834,20216,29640,0,0,0
44791,20190,29582,0,0,0
44755,20170,29532,0,0,0
44727,20153,29493,0,0,0
44706,20142,29464,0,0,0
44693,20136,29443,0,0,0
44689,20135,29431,0,0,0
44692,20138,29423,0,0,0
44697,20142,29417,0,0,0
44702,20147,29413,0,0,0
44705,20150,29408,0,0,0
44702,20151,29398,0,0,0
44694,20148,29380,0,0,0
44677,20141,29356,0,0,0
44653,20130,29326,0,0,0
44624,20115,29294,0,0,0
44589,20095,29257,0,0,0
44549,20072,29211,0,0,0
44501,20046,29158,0,0,0
44449,20016,29097,0,0,0
44394,19980,29030,0,0,0
44337,19943,28958,0,0,0
44280,19904,28879,0,0,0
44220,19866,28793,0,0,0
44158,19828,28703,0,0,0
44094,19788,28610,0,0,0
44031,19747,28518,0,0,0
43969,19706,28426,0,0,0
43904,19667,28333,0,0,0
43839,19628,28238,0,0,0
43774,19590,28143,0,0,0
43710,19554,28047,0,0,0
43646,19519,27951,0,0,0
43577,19483,27854,0,0,0
43506,19444,27755,0,0,0
43434,19401,27652,0,0,0
43359,19355,27548,0,0,0
43282,19307,27441,0,0,0
43206,19261,27337,0,0,0
43132,19216,27235,0,0,0
43058,19172,27133,0,0,0
42987,19129,27032,0,0,0
42918,19088,26932,0,0,0
42853,19045,26834,0,0,0
42790,19004,26737,0,0,0
42730,18966,26645,0,0,0
42673,18929,26556,0,0,0
42615,18892,26468,0,0,0
42556,18854,26383,0,0,0
42497,18817,26300,0,0,0
42442,18783,26215,0,0,0
42388,18750,26126,0,0,0
42333,18720,26036,0,0,0
42276,18689,25948,0,0,0
42218,18658,25860,0,0,0
42159,18626,25774,0,0,0
42098,18593,25691,0,0,0
42041,18559,25611,0,0,0
41984,18524,25529,0,0,0
41925,18485,25446,0,0,0
41865,18445,25364,0,0,0
41805,18406,25285,0,0,0
41747,18367,25207,0,0,0
41692,18329,25128,0,0,0
41640,18292,25049,0,0,0
41592,18260,24971,0,0,0
41543,18230,24891,0,0,0
41492,18202,24810,0,0,0
41439,18173,24729,0,0,0
41387,18142,24652,0,0,0
41335,18110,24577,0,0,0
41283,18077,24502,0,0,0
41231,18045,24425,0,0,0
41179,18013,24347,0,0,0
41125,17981,24269,0,0,0
41071,17947,24191,0,0,0
41017,17912,24115,0,0,0
40965,17876,24040,0,0,0
40914,17841,23965,0,0,0
40864,17807,23888,0,0,0
40816,17775,23809,0,0,0
40771,17742,23731,0,0,0
40724,17708,23653,0,0,0
40677,17676,23576,0,0,0
40629,17646,23500,0,0,0
40581,17615,23424,0,0,0
40533,17583,23347,0,0,0
40486,17550,23270,0,0,0
40441,17515,23193,0,0,0
40396,17480,23119,0,0,0
40348,17447,23043,0,0,0
40296,17415,22966,0,0,0
40242,17388,22887,0,0,0
40188,17365,22810,0,0,0
40134,17341,22736,0,0,0
40081,17312,22663,0,0,0
40028,17282,22590,0,0,0
39975,17252,22515,0,0,0
39921,17225,22440,0,0,0
39868,17196,22368,0,0,0
39816,17167,22298,0,0,0
39763,17139,22228,0,0,0
39710,17110,22159,0,0,0
39660,17082,22090,0,0,0
39612,17055,22019,0,0,0
39565,17028,21948,0,0,0
39519,16999,21875,0,0,0
39473,16968,21801,0,0,0
39428,16936,21724,0,0,0
39383,16904,21647,0,0,0
39338,16871,21571,0,0,0
39292,16839,21500,0,0,0
39248,16808,21430,0,0,0
39208,16778,21361,0,0,0
39168,16749,21295,0,0,0
39126,16718,21232,0,0,0
39083,16685,21170,0,0,0
39035,16655,21109,0,0,0
38984,16627,21044,0,0,0
38934,16601,20977,0,0,0
38885,16577,20907,0,0,0
38839,16553,20837,0,0,0
38794,16529,20768,0,0,0
38750,16505,20699,0,0,0
38702,16482,20630,0,0,0
38653,16458,20559,0,0,0
38604,16435,20487,0,0,0
38557,16411,20417,0,0,0
38510,16386,20349,0,0,0
38466,16362,20282,0,0,0
38423,16336,20215,0,0,0
38378,16308,20148,0,0,0
38331,16281,20080,0,0,0
38282,16254,20013,0,0,0
38232,16228,19947,0,0,0
38182,16202,19880,0,0,0
38131,16176,19812,0,0,0
38081,16152,19745,0,0,0
38031,16126,19679,0,0,0
37980,16096,19615,0,0,0
37928,16065,19550,0,0,0
37877,16033,19484,0,0,0
37827,16001,19416,0,0,0
37778,15971,19348,0,0,0
37731,15942,19279,0,0,0
37684,15913,19208,0,0,0
37638,15884,19134,0,0,0
37595,15855,19054,0,0,0
37550,15825,18972,0,0,0
37504,15795,18894,0,0,0
37459,15768,18824,0,0,0
37420,15747,18765,0,0,0
37387,15732,18721,0,0,0
37366,15725,18698,0,0,0
37363,15728,18704,0,0,0
37385,15745,18744,0,0,0
37433,15778,18822,0,0,0
37511,15831,18944,0,0,0
37622,15905,19113,0,0,0
37767,16001,19333,0,0,0
37942,16118,19601,0,0,0
38148,16254,19916,0,0,0
38387,16411,20275,0,0,0
38658,16585,20675,0,0,0
38951,16775,21108,0,0,0
39260,16973,21565,0,0,0
39579,17175,22039,0,0,0
39900,17379,22525,0,0,0
40216,17584,23012,0,0,0
40522,17786,23486,0,0,0
40817,17981,23938,0,0,0
41096,18163,24364,0,0,0
41358,18331,24759,0,0,0
41599,18483,25124,0,0,0
41817,18617,25455,0,0,0
42009,18737,25754,0,0,0
42179,18846,26022,0,0,0
42332,18946,26263,0,0,0
42469,19036,26477,0,0,0
42592,19115,26669,0,0,0
42700,19186,26840,0,0,0
42797,19248,26994,0,0,0
42884,19303,27131,0,0,0
42965,19355,27252,0,0,0
43040,19403,27364,0,0,0
43113,19447,27470,0,0,0
43184,19491,27573,0,0,0
43251,19535,27674,0,0,0
43315,19578,27772,0,0,0
43379,19618,27873,0,0,0
43445,19659,27978,0,0,0
43511,19702,28084,0,0,0
43577,19744,28190,0,0,0
43647,19787,28297,0,0,0
43721,19833,28406,0,0,0
43796,19882,28519,0,0,0
43873,19932,28635,0,0,0
43954,19983,28751,0,0,0
44034,20033,28863,0,0,0
44112,20081,28971,0,0,0
44188,20126,29072,0,0,0
44258,20170,29167,0,0,0
44320,20208,29254,0,0,0
44371,20238,29329,0,0,0
44410,20261,29388,0,0,0
44433,20274,29429,0,0,0
44438,20277,29449,0,0,0
44425,20269,29445,0,0,0
44398,20250,29421,0,0,0
44360,20220,29378,0,0,0
44309,20180,29316,0,0,0
44248,20132,29240,0,0,0
44181,20082,29151,0,0,0
44112,20032,29055,0,0,0
44040,19983,28956,0,0,0
43969,19937,28856,0,0,0
43900,19893,28756,0,0,0
43835,19852,28659,0,0,0
43775,19817,28572,0,0,0
43720,19787,28496,0,0,0
43674,19761,28429,0,0,0
43637,19740,28369,0,0,0
43608,19725,28316,0,0,0
43581,19711,28270,0,0,0
43552,19695,28230,0,0,0
43527,19679,28197,0,0,0
43507,19666,28170,0,0,0
43492,19654,28151,0,0,0
43483,19645,28139,0,0,0
43477,19640,28132,0,0,0
43470,19632,28123,0,0,0
43461,19623,28110,0,0,0
43454,19616,28093,0,0,0
43448,19611,28074,0,0,0
43439,19606,28050,0,0,0
43422,19599,28021,0,0,0
43402,19588,27988,0,0,0
43379,19572,27949,0,0,0
43352,19554,27903,0,0,0
43318,19532,27851,0,0,0
43277,19506,27791,0,0,0
43230,19476,27724,0,0,0
43181,19445,27650,0,0,0
43128,19411,27569,0,0,0
43072,19377,27482,0,0,0
43012,19342,27392,0,0,0
42948,19307,27299,0,0,0
42884,19272,27207,0,0,0
42817,19235,27114,0,0,0
42746,19197,27021,0,0,0
42671,19156,26928,0,0,0
42596,19113,26834,0,0,0
42520,19069,26737,0,0,0
42445,19025,26638,0,0,0
42369,18980,26537,0,0,0
42296,18937,26435,0,0,0
42224,18897,26335,0,0,0
42154,18857,26235,0,0,0
42087,18816,26136,0,0,0
42024,18775,26040,0,0,0
41964,18735,25947,0,0,0
41903,18697,25854,0,0,0
41844,18659,25762,0,0,0
41789,18621,25671,0,0,0
41736,18582,25580,0,0,0
41681,18543,25490,0,0,0
41627,18505,25400,0,0,0
41574,18467,25311,0,0,0
41520,18428,25220,0,0,0
41465,18389,25130,0,0,0
41407,18350,25041,0,0,0
41346,18313,24952,0,0,0
41288,18280,24866,0,0,0
41233,18248,24781,0,0,0
41178,18214,24696,0,0,0
41127,18179,24611,0,0,0
41080,18146,24528,0,0,0
41036,18117,24447,0,0,0
40992,18090,24367,0,0,0
40944,18063,24287,0,0,0
40894,18035,24205,0,0,0
40842,18004,24121,0,0,0
40786,17972,24037,0,0,0
40731,17938,23952,0,0,0
40681,17905,23869,0,0,0
40634,17871,23790,0,0,0
40586,17837,23712,0,0,0
40536,17805,23633,0,0,0
40488,17774,23553,0,0,0
40439,17742,23473,0,0,0
40387,17707,23395,0,0,0
40330,17674,23318,0,0,0
40269,17640,23241,0,0,0
40206,17606,23163,0,0,0
40145,17572,23086,0,0,0
40084,17538,23011,0,0,0
40021,17505,22933,0,0,0
39958,17472,22852,0,0,0
39894,17436,22768,0,0,0
39829,17397,22681,0,0,0
39763,17356,22591,0,0,0
39697,17315,22498,0,0,0
39634,17278,22406,0,0,0
39575,17242,22318,0,0,0
39517,17207,22232,0,0,0
39456,17171,22145,0,0,0
39396,17135,22057,0,0,0
39335,17100,21971,0,0,0
39272,17062,21884,0,0,0
39208,17025,21794,0,0,0
39144,16990,21704,0,0,0
39084,16957,21615,0,0,0
39027,16925,21528,0,0,0
38972,16890,21439,0,0,0
38919,16854,21350,0,0,0
38868,16818,21262,0,0,0
38816,16783,21175,0,0,0
38760,16746,21084,0,0,0
38700,16708,20991,0,0,0
38639,16669,20900,0,0,0
38580,16630,20814,0,0,0
38523,16591,20728,0,0,0
38469,16553,20644,0,0,0
38420,16517,20562,0,0,0
38372,16484,20482,0,0,0
38321,16452,20403,0,0,0
38269,16421,20326,0,0,0
38218,16392,20252,0,0,0
38170,16365,20181,0,0,0
38122,16334,20110,0,0,0
38071,16301,20037,0,0,0
38019,16270,19962,0,0,0
37970,16239,19890,0,0,0
37923,16211,19820,0,0,0
37877,16184,19751,0,0,0
37832,16159,19682,0,0,0
37788,16131,19614,0,0,0
37740,16100,19547,0,0,0
37688,16066,19477,0,0,0
37633,16032,19405,0,0,0
37578,15999,19328,0,0,0
37524,15967,19249,0,0,0
37470,15937,19171,0,0,0
37418,15907,19096,0,0,0
37369,15877,19025,0,0,0
37323,15849,18957,0,0,0
37281,15826,18894,0,0,0
37241,15806,18833,0,0,0
37203,15787,18771,0,0,0
37168,15769,18710,0,0,0
37137,15750,18652,0,0,0
37106,15731,18597,0,0,0
37074,15710,18541,0,0,0
37040,15687,18488,0,0,0
37010,15665,18435,0,0,0
36979,15640,18380,0,0,0
36946,15614,18321,0,0,0
36909,15587,18259,0,0,0
36867,15559,18194,0,0,0
36819,15532,18127,0,0,0
36768,15506,18060,0,0,0
36716,15480,17992,0,0,0
36666,15452,17920,0,0,0
36614,15422,17845,0,0,0
36558,15390,17768,0,0,0
36498,15356,17690,0,0,0
36437,15323,17612,0,0,0
36378,15291,17537,0,0,0
36327,15262,17466,0,0,0
36283,15233,17397,0,0,0
36242,15205,17327,0,0,0
36202,15174,17255,0,0,0
36161,15143,17181,0,0,0
36120,15114,17105,0,0,0
36079,15087,17029,0,0,0
36038,15060,16955,0,0,0
35995,15036,16886,0,0,0
35956,15016,16827,0,0,0
35928,15001,16787,0,0,0
35915,14996,16770,0,0,0
35924,15005,16784,0,0,0
35961,15031,16836,0,0,0
36032,15075,16930,0,0,0
36138,15140,17070,0,0,0
36280,15227,17262,0,0,0
36457,15335,17507,0,0,0
36668,15464,17803,0,0,0
36910,15614,18146,0,0,0
37178,15781,18533,0,0,0
37474,15961,18955,0,0,0
37790,16151,19406,0,0,0
38121,16350,19876,0,0,0
38458,16556,20360,0,0,0
38798,16765,20848,0,0,0
39132,16972,21331,0,0,0
39456,17173,21800,0,0,0
39763,17366,22247,0,0,0
40050,17547,22667,0,0,0
40318,17713,23059,0,0,0
40567,17866,23421,0,0,0
40796,18005,23752,0,0,0
41001,18129,24052,0,0,0
41181,18238,24320,0,0,0
41338,18331,24556,0,0,0
41476,18411,24763,0,0,0
41598,18482,24945,0,0,0
41708,18547,25108,0,0,0
41807,18605,25256,0,0,0
41897,18657,25392,0,0,0
41977,18704,25513,0,0,0
42048,18747,25621,0,0,0
42112,18787,25720,0,0,0
42170,18825,25814,0,0,0
42227,18864,25906,0,0,0
42287,18907,25998,0,0,0
42355,18949,26092,0,0,0
42428,18993,26193,0,0,0
42504,19036,26301,0,0,0
42582,19079,26410,0,0,0
42659,19121,26522,0,0,0
42736,19164,26637,0,0,0
42814,19209,26751,0,0,0
42892,19256,26863,0,0,0
42967,19302,26972,0,0,0
43038,19347,27079,0,0,0
43104,19389,27181,0,0,0
43165,19426,27276,0,0,0
43217,19459,27363,0,0,0
43262,19488,27438,0,0,0
43298,19511,27496,0,0,0
43321,19526,27535,0,0,0
43329,19532,27552,0,0,0
43324,19530,27550,0,0,0
43310,19520,27532,0,0,0
43287,19503,27499,0,0,0
43253,19480,27453,0,0,0
43213,19453,27399,0,0,0
43169,19423,27338,0,0,0
43119,19390,27271,0,0,0
43067,19353,27201,0,0,0
43015,19317,27128,0,0,0
42965,19281,27054,0,0,0
42918,19249,26980,0,0,0
42876,19219,26911,0,0,0
42840,19194,26853,0,0,0
42814,19176,26808,0,0,0
42800,19163,26778,0,0,0
42793,19155,26759,0,0,0
42793,19150,26750,0,0,0
42799,19151,26751,0,0,0
42809,19155,26758,0,0,0
42821,19160,26770,0,0,0
42836,19166,26784,0,0,0
42853,19172,26801,0,0,0
42871,19181,26820,0,0,0
42890,19192,26838,0,0,0
42909,19204,26855,0,0,0
42927,19215,26868,0,0,0
42941,19224,26875,0,0,0
42952,19232,26877,0,0,0
42959,19236,26872,0,0,0
42961,19235,26859,0,0,0
42958,19229,26840,0,0,0
42950,19220,26816,0,0,0
42939,19209,26787,0,0,0
42928,19197,26755,0,0,0
42913,19181,26721,0,0,0
42894,19163,26682,0,0,0
42867,19142,26637,0,0,0
42834,19119,26582,0,0,0
42795,19093,26519,0,0,0
42755,19063,26453,0,0,0
42714,19031,26388,0,0,0
42669,18997,26320,0,0,0
42620,18965,26253,0,0,0
42570,18935,26188,0,0,0
42522,18906,26120,0,0,0
42474,18877,26048,0,0,0
42426,18845,25975,0,0,0
42378,18812,25901,0,0,0
42329,18779,25826,0,0,0
42278,18746,25748,0,0,0
42227,18712,25670,0,0,0
42174,18678,25592,0,0,0
42115,18645,25514,0,0,0
42055,18609,25433,0,0,0
41999,18572,25352,0,0,0
41951,18537,25274,0,0,0
41907,18505,25197,0,0,0
41865,18477,25121,0,0,0
41824,18452,25046,0,0,0
41781,18429,24973,0,0,0
41737,18404,24902,0,0,0
41694,18378,24831,0,0,0
41654,18350,24760,0,0,0
41613,18322,24689,0,0,0
41572,18292,24617,0,0,0
41532,18262,24545,0,0,0
41492,18229,24474,0,0,0
41451,18196,24404,0,0,0
41408,18164,24335,0,0,0
41362,18134,24265,0,0,0
41317,18107,24196,0,0,0
41271,18081,24127,0,0,0
41223,18056,24059,0,0,0
41173,18033,23991,0,0,0
41123,18010,23923,0,0,0
41076,17986,23857,0,0,0
41032,17961,23793,0,0,0
40988,17933,23727,0,0,0
40941,17905,23661,0,0,0
40892,17878,23596,0,0,0
40846,17851,23533,0,0,0
40805,17823,23468,0,0,0
40765,17795,23403,0,0,0
40726,17766,23338,0,0,0
40688,17740,23273,0,0,0
40650,17716,23208,0,0,0
40612,17693,23144,0,0,0
40574,17669,23083,0,0,0
40536,17644,23023,0,0,0
40497,17616,22963,0,0,0
40455,17586,22900,0,0,0
40411,17556,22835,0,0,0
40365,17529,22767,0,0,0
40316,17502,22696,0,0,0
40264,17473,22623,0,0,0
40212,17441,22549,0,0,0
40158,17406,22476,0,0,0
40102,17372,22403,0,0,0
40045,17339,22333,0,0,0
39990,17307,22265,0,0,0
39937,17277,22194,0,0,0
39883,17245,22119,0,0,0
39831,17214,22041,0,0,0
39780,17182,21964,0,0,0
39726,17151,21887,0,0,0
39671,17119,21808,0,0,0
39614,17085,21727,0,0,0
39556,17049,21645,0,0,0
39502,17013,21565,0,0,0
39451,16979,21486,0,0,0
39400,16945,21406,0,0,0
39347,16909,21324,0,0,0
39293,16871,21240,0,0,0
39241,16833,21160,0,0,0
39190,16798,21085,0,0,0
39140,16766,21011,0,0,0
39091,16737,20939,0,0,0
39045,16710,20866,0,0,0
39003,16687,20794,0,0,0
38961,16665,20722,0,0,0
38919,16643,20652,0,0,0
38880,16621,20584,0,0,0
38841,16601,20519,0,0,0
38801,16581,20456,0,0,0
38758,16559,20392,0,0,0
38713,16532,20328,0,0,0
38666,16501,20259,0,0,0
38619,16468,20188,0,0,0
38572,16436,20119,0,0,0
38525,16404,20054,0,0,0
38480,16375,19992,0,0,0
38439,16346,19929,0,0,0
38400,16320,19863,0,0,0
38359,16294,19794,0,0,0
38316,16265,19722,0,0,0
38272,16233,19647,0,0,0
38226,16201,19571,0,0,0
38177,16169,19498,0,0,0
38127,16136,19424,0,0,0
38076,16106,19348,0,0,0
38027,16077,19272,0,0,0
37982,16049,19201,0,0,0
37941,16024,19135,0,0,0
37906,16004,19075,0,0,0
37877,15992,19031,0,0,0
37861,15987,19006,0,0,0
37863,15994,19005,0,0,0
37886,16011,19033,0,0,0
37935,16040,19096,0,0,0
38014,16089,19200,0,0,0
38128,16160,19349,0,0,0
38281,16253,19546,0,0,0
38472,16366,19793,0,0,0
38700,16502,20093,0,0,0
38962,16658,20442,0,0,0
39254,16833,20834,0,0,0
39568,17024,21260,0,0,0
39898,17226,21714,0,0,0
40240,17437,22184,0,0,0
40588,17652,22665,0,0,0
40936,17866,23149,0,0,0
41277,18076,23624,0,0,0
41604,18279,24082,0,0,0
41915,18471,24520,0,0,0
42204,18651,24934,0,0,0
42469,18818,25321,0,0,0
42711,18970,25679,0,0,0
42929,19107,26004,0,0,0
43122,19229,26297,0,0,0
43294,19337,26559,0,0,0
43444,19434,26789,0,0,0
43575,19520,26992,0,0,0
43693,19599,27170,0,0,0
43798,19669,27328,0,0,0
43893,19730,27470,0,0,0
43980,19783,27599,0,0,0
44059,19833,27719,0,0,0
44133,19881,27832,0,0,0
44205,19925,27939,0,0,0
44277,19970,28042,0,0,0
44348,20015,28143,0,0,0
44419,20062,28246,0,0,0
44492,20107,28351,0,0,0
44570,20148,28458,0,0,0
44650,20188,28567,0,0,0
44729,20230,28677,0,0,0
44809,20277,28788,0,0,0
44892,20326,28902,0,0,0
44976,20379,29018,0,0,0
45058,20434,29134,0,0,0
45137,20488,29244,0,0,0
45209,20539,29346,0,0,0
45271,20584,29440,0,0,0
45324,20621,29526,0,0,0
45365,20650,29600,0,0,0
45397,20672,29659,0,0,0
45422,20687,29703,0,0,0
45437,20694,29732,0,0,0
45441,20694,29745,0,0,0
45433,20686,29740,0,0,0
45409,20670,29717,0,0,0
45370,20647,29675,0,0,0
45319,20617,29616,0,0,0
45259,20581,29542,0,0,0
45192,20540,29456,0,0,0
45121,20496,29359,0,0,0
45049,20451,29257,0,0,0
44980,20406,29153,0,0,0
44912,20359,29049,0,0,0
44846,20311,28948,0,0,0
44780,20266,28852,0,0,0
44716,20220,28764,0,0,0
44652,20175,28681,0,0,0
44588,20132,28599,0,0,0
44526,20095,28523,0,0,0
44467,20062,28453,0,0,0
44411,20031,28386,0,0,0
44357,20001,28323,0,0,0
44306,19971,28268,0,0,0
44258,19943,28220,0,0,0
44212,19921,28180,0,0,0
44171,19902,28144,0,0,0
44135,19889,28111,0,0,0
44105,19878,28079,0,0,0
44077,19867,28044,0,0,0
44051,19854,28003,0,0,0
44028,19840,27959,0,0,0
44008,19823,27917,0,0,0
43988,19804,27876,0,0,0
43968,19782,27835,0,0,0
43945,19757,27793,0,0,0
43917,19728,27746,0,0,0
43880,19696,27691,0,0,0
43837,19662,27629,0,0,0
43788,19626,27561,0,0,0
43732,19589,27486,0,0,0
43668,19549,27403,0,0,0
43599,19508,27311,0,0,0
43527,19465,27215,0,0,0
43453,19420,27113,0,0,0
43378,19373,27005,0,0,0
43303,19325,26896,0,0,0
43226,19278,26787,0,0,0
43151,19231,26678,0,0,0
43080,19183,26568,0,0,0
43011,19136,26459,0,0,0
42945,19091,26354,0,0,0
42881,19049,26253,0,0,0
42821,19010,26157,0,0,0
42763,18971,26061,0,0,0
42705,18932,25967,0,0,0
42649,18891,25876,0,0,0
42593,18850,25785,0,0,0
42535,18810,25696,0,0,0
42475,18768,25606,0,0,0
42414,18725,25516,0,0,0
42349,18681,25423,0,0,0
42280,18638,25328,0,0,0
42208,18596,25232,0,0,0
42133,18555,25135,0,0,0
42058,18517,25037,0,0,0
41987,18480,24940,0,0,0
41919,18445,24843,0,0,0
41851,18408,24747,0,0,0
41784,18372,24653,0,0,0
41719,18337,24563,0,0,0
41657,18302,24474,0,0,0
41597,18269,24385,0,0,0
41541,18237,24297,0,0,0
41487,18208,24211,0,0,0
41434,18179,24125,0,0,0
41382,18149,24039,0,0,0
41330,18120,23954,0,0,0
41280,18091,23873,0,0,0
41229,18063,23796,0,0,0
41176,18032,23719,0,0,0
41122,17996,23641,0,0,0
41066,17957,23558,0,0,0
41005,17914,23468,0,0,0
40937,17868,23372,0,0,0
40864,17819,23272,0,0,0
40787,17768,23170,0,0,0
40708,17720,23066,0,0,0
40625,17671,22960,0,0,0
40539,17621,22851,0,0,0
40452,17571,22740,0,0,0
40367,17520,22630,0,0,0
40287,17472,22523,0,0,0
40212,17428,22416,0,0,0
40141,17390,22311,0,0,0
40072,17355,22208,0,0,0
40000,17318,22108,0,0,0
39928,17278,22011,0,0,0
39856,17234,21918,0,0,0
39788,17188,21824,0,0,0
39723,17142,21730,0,0,0
39659,17100,21640,0,0,0
39595,17060,21551,0,0,0
39532,17021,21462,0,0,0
39471,16985,21372,0,0,0
39410,16950,21283,0,0,0
39353,16916,21197,0,0,0
39297,16881,21112,0,0,0
39241,16846,21028,0,0,0
39188,16812,20945,0,0,0
39139,16779,20862,0,0,0
39096,16747,20782,0,0,0
39057,16718,20708,0,0,0
39021,16691,20639,0,0,0
38987,16666,20572,0,0,0
38950,16639,20501,0,0,0
38912,16609,20427,0,0,0
38869,16578,20354,0,0,0
38823,16547,20280,0,0,0
38772,16517,20202,0,0,0
38717,16486,20122,0,0,0
38659,16452,20040,0,0,0
38601,16415,19956,0,0,0
38547,16376,19869,0,0,0
38496,16338,19786,0,0,0
38446,16302,19710,0,0,0
38400,16269,19637,0,0,0
38356,16238,19567,0,0,0
38316,16211,19499,0,0,0
38281,16187,19435,0,0,0
38249,16167,19373,0,0,0
38216,16145,19313,0,0,0
38183,16122,19254,0,0,0
38147,16097,19198,0,0,0
38106,16069,19142,0,0,0
38060,16039,19083,0,0,0
38012,16008,19020,0,0,0
37962,15976,18954,0,0,0
37910,15944,18885,0,0,0
37858,15910,18816,0,0,0
37806,15880,18747,0,0,0
37758,15852,18679,0,0,0
37710,15826,18611,0,0,0
37662,15802,18544,0,0,0
37618,15778,18478,0,0,0
37575,15753,18414,0,0,0
37530,15726,18350,0,0,0
37479,15697,18283,0,0,0
37427,15665,18215,0,0,0
37376,15634,18145,0,0,0
37329,15603,18074,0,0,0
37286,15573,18005,0,0,0
37250,15547,17945,0,0,0
37219,15527,17898,0,0,0
37200,15512,17863,0,0,0
37200,15507,17844,0,0,0
37221,15511,17847,0,0,0
37265,15528,17882,0,0,0
37334,15564,17957,0,0,0
37431,15623,18078,0,0,0
37563,15704,18248,0,0,0
37726,15806,18467,0,0,0
37920,15929,18731,0,0,0
38140,16069,19038,0,0,0
38383,16221,19385,0,0,0
38645,16385,19767,0,0,0
38923,16561,20179,0,0,0
39215,16748,20613,0,0,0
39514,16940,21060,0,0,0
39815,17134,21512,0,0,0
40112,17325,21961,0,0,0
40402,17510,22401,0,0,0
40683,17689,22825,0,0,0
40953,17861,23230,0,0,0
41210,18024,23613,0,0,0
41456,18175,23974,0,0,0
41687,18313,24306,0,0,0
41899,18436,24609,0,0,0
42092,18546,24881,0,0,0
42265,18647,25122,0,0,0
42420,18740,25335,0,0,0
42557,18825,25526,0,0,0
42677,18899,25695,0,0,0
42783,18965,25846,0,0,0
42878,19026,25986,0,0,0
42963,19081,26116,0,0,0
43041,19130,26235,0,0,0
43113,19175,26345,0,0,0
43181,19217,26451,0,0,0
43249,19259,26553,0,0,0
43315,19300,26652,0,0,0
43381,19340,26751,0,0,0
43448,19380,26850,0,0,0
43517,19419,26948,0,0,0
43586,19460,27047,0,0,0
43659,19503,27147,0,0,0
43739,19550,27252,0,0,0
43825,19599,27362,0,0,0
43914,19649,27474,0,0,0
44007,19701,27589,0,0,0
44102,19751,27704,0,0,0
44198,19801,27817,0,0,0
44292,19850,27929,0,0,0
44384,19898,28042,0,0,0
44471,19947,28154,0,0,0
44554,19996,28261,0,0,0
44632,20041,28357,0,0,0
44703,20081,28438,0,0,0
44770,20115,28506,0,0,0
44832,20144,28560,0,0,0
44888,20168,28602,0,0,0
44935,20189,28632,0,0,0
44971,20203,28647,0,0,0
44994,20208,28647,0,0,0
45004,20208,28631,0,0,0
45005,20202,28600,0,0,0
44995,20188,28558,0,0,0
44972,20167,28504,0,0,0
44933,20141,28442,0,0,0
44883,20107,28374,0,0,0
44824,20071,28304,0,0,0
44761,20035,28231,0,0,0
44698,20000,28157,0,0,0
44636,19966,28084,0,0,0
44577,19934,28016,0,0,0
44521,19907,27956,0,0,0
44473,19884,27907,0,0,0
44431,19865,27869,0,0,0
44397,19849,27837,0,0,0
44368,19836,27810,0,0,0
44343,19825,27787,0,0,0
44324,19815,27769,0,0,0
44309,19806,27754,0,0,0
44299,19799,27737,0,0,0
44288,19793,27717,0,0,0
44276,19785,27694,0,0,0
44263,19777,27668,0,0,0
44248,19768,27639,0,0,0
44230,19755,27610,0,0,0
44209,19740,27578,0,0,0
44182,19724,27543,0,0,0
44150,19707,27502,0,0,0
44113,19688,27454,0,0,0
44074,19666,27397,0,0,0
44029,19639,27331,0,0,0
43979,19606,27257,0,0,0
43925,19571,27176,0,0,0
43866,19533,27090,0,0,0
43802,19491,26999,0,0,0
43734,19446,26905,0,0,0
43661,19400,26806,0,0,0
43586,19355,26705,0,0,0
43510,19309,26603,0,0,0
43433,19262,26499,0,0,0
43355,19213,26391,0,0,0
43275,19163,26282,0,0,0
43198,19116,26175,0,0,0
43128,19073,26074,0,0,0
43066,19034,25977,0,0,0
43012,18996,25884,0,0,0
42963,18958,25796,0,0,0
42919,18924,25713,0,0,0
42878,18891,25636,0,0,0
42839,18860,25563,0,0,0
42799,18831,25493,0,0,0
42759,18805,25426,0,0,0
42721,18779,25364,0,0,0
42685,18755,25305,0,0,0
42648,18731,25243,0,0,0
42609,18705,25176,0,0,0
42565,18677,25104,0,0,0
42514,18646,25028,0,0,0
42453,18610,24944,0,0,0
42385,18569,24853,0,0,0
42311,18527,24757,0,0,0
42230,18481,24657,0,0,0
42141,18431,24553,0,0,0
42048,18381,24448,0,0,0
41953,18330,24340,0,0,0
41858,18276,24229,0,0,0
41763,18216,24113,0,0,0
41666,18154,23995,0,0,0
41567,18093,23876,0,0,0
41467,18033,23758,0,0,0
41372,17977,23646,0,0,0
41282,17926,23542,0,0,0
41198,17880,23440,0,0,0
41119,17836,23341,0,0,0
41041,17794,23243,0,0,0
40965,17750,23145,0,0,0
40894,17702,23046,0,0,0
40828,17652,22946,0,0,0
40766,17603,22848,0,0,0
40707,17554,22754,0,0,0
40650,17509,22668,0,0,0
40595,17467,22588,0,0,0
40543,17430,22511,0,0,0
40497,17396,22435,0,0,0
40455,17364,22360,0,0,0
40420,17336,22286,0,0,0
40393,17314,22218,0,0,0
40372,17297,22156,0,0,0
40353,17285,22102,0,0,0
40339,17275,22054,0,0,0
40328,17268,22008,0,0,0
40314,17261,21961,0,0,0
40294,17250,21908,0,0,0
40267,17234,21851,0,0,0
40236,17214,21792,0,0,0
40203,17190,21733,0,0,0
40169,17164,21676,0,0,0
40135,17137,21620,0,0,0
40101,17111,21565,0,0,0
40071,17087,21512,0,0,0
40046,17065,21462,0,0,0
40032,17045,21414,0,0,0
40029,17030,21368,0,0,0
40033,17019,21323,0,0,0
40037,17011,21275,0,0,0
40039,17000,21224,0,0,0
40031,16985,21169,0,0,0
40011,16967,21111,0,0,0
39981,16945,21047,0,0,0
39941,16922,20976,0,0,0
39891,16900,20902,0,0,0
39832,16879,20827,0,0,0
39769,16856,20749,0,0,0
39703,16828,20669,0,0,0
39636,16797,20589,0,0,0
39571,16768,20512,0,0,0
39513,16743,20442,0,0,0
39463,16719,20378,0,0,0
39421,16697,20315,0,0,0
39384,16677,20253,0,0,0
39352,16660,20194,0,0,0
39321,16644,20138,0,0,0
39292,16626,20080,0,0,0
39261,16604,20017,0,0,0
39226,16577,19947,0,0,0
39184,16545,19869,0,0,0
39128,16508,19788,0,0,0
39058,16467,19704,0,0,0
38978,16423,19612,0,0,0
38886,16374,19510,0,0,0
38789,16322,19405,0,0,0
38691,16268,19299,0,0,0
38595,16212,19193,0,0,0
38504,16158,19087,0,0,0
38416,16105,18985,0,0,0
38332,16055,18888,0,0,0
38254,16008,18795,0,0,0
38182,15963,18704,0,0,0
38115,15923,18617,0,0,0
38052,15886,18533,0,0,0
37994,15851,18453,0,0,0
37943,15817,18377,0,0,0
37899,15786,18312,0,0,0
37862,15762,18261,0,0,0
37838,15747,18225,0,0,0
37831,15746,18207,0,0,0
37843,15757,18215,0,0,0
37879,15783,18255,0,0,0
37941,15826,18333,0,0,0
38033,15887,18453,0,0,0
38155,15966,18619,0,0,0
38311,16066,18834,0,0,0
38504,16188,19092,0,0,0
38731,16328,19392,0,0,0
38991,16483,19730,0,0,0
39280,16651,20098,0,0,0
39589,16834,20492,0,0,0
39916,17029,20907,0,0,0
40251,17231,21339,0,0,0
40588,17431,21776,0,0,0
40922,17629,22210,0,0,0
41249,17822,22634,0,0,0
41561,18007,23043,0,0,0
41854,18181,23428,0,0,0
42128,18343,23784,0,0,0
42381,18490,24111,0,0,0
42610,18622,24409,0,0,0
42813,18742,24678,0,0,0
42993,18851,24918,0,0,0
43149,18949,25130,0,0,0
43284,19037,25316,0,0,0
43401,19114,25480,0,0,0
43503,19179,25625,0,0,0
43594,19237,25753,0,0,0
43681,19290,25867,0,0,0
43764,19338,25972,0,0,0
43845,19383,26072,0,0,0
43927,19426,26173,0,0,0
44014,19470,26275,0,0,0
44106,19515,26376,0,0,0
44204,19562,26479,0,0,0
44306,19614,26586,0,0,0
44412,19672,26699,0,0,0
44518,19732,26817,0,0,0
44623,19792,26938,0,0,0
44724,19852,27063,0,0,0
44822,19910,27189,0,0,0
44923,19968,27314,0,0,0
45025,20025,27438,0,0,0
45126,20081,27559,0,0,0
45224,20138,27678,0,0,0
45320,20194,27795,0,0,0
45409,20248,27905,0,0,0
45490,20300,28008,0,0,0
45563,20348,28104,0,0,0
45630,20392,28191,0,0,0
45690,20431,28269,0,0,0
45741,20463,28336,0,0,0
45781,20488,28387,0,0,0
45810,20508,28417,0,0,0
45829,20521,28425,0,0,0
45835,20525,28415,0,0,0
45828,20518,28393,0,0,0
45806,20503,28358,0,0,0
45773,20477,28313,0,0,0
45732,20445,28259,0,0,0
45683,20407,28198,0,0,0
45624,20364,28132,0,0,0
45555,20319,28065,0,0,0
45482,20277,28001,0,0,0
45410,20239,27938,0,0,0
45341,20204,27876,0,0,0
45281,20175,27819,0,0,0
45233,20154,27772,0,0,0
45201,20141,27742,0,0,0
45189,20138,27734,0,0,0
45199,20149,27749,0,0,0
45230,20175,27786,0,0,0
45278,20213,27837,0,0,0
45336,20256,27898,0,0,0
45399,20298,27965,0,0,0
45464,20339,28032,0,0,0
45525,20377,28093,0,0,0
45577,20411,28144,0,0,0
45619,20437,28182,0,0,0
45646,20455,28207,0,0,0
45656,20464,28219,0,0,0
45648,20466,28218,0,0,0
45626,20460,28205,0,0,0
45594,20447,28180,0,0,0
45558,20431,28145,0,0,0
45518,20411,28102,0,0,0
45473,20386,28055,0,0,0
45426,20362,28005,0,0,0
45377,20337,27953,0,0,0
45327,20312,27899,0,0,0
45279,20285,27842,0,0,0
45233,20256,27784,0,0,0
45188,20225,27725,0,0,0
45147,20195,27667,0,0,0
45109,20167,27609,0,0,0
45075,20140,27550,0,0,0
45044,20116,27489,0,0,0
45014,20094,27428,0,0,0
44984,20074,27368,0,0,0
44955,20056,27305,0,0,0
44924,20038,27235,0,0,0
44889,20016,27158,0,0,0
44847,19989,27079,0,0,0
44801,19957,26999,0,0,0
44755,19923,26920,0,0,0
44707,19888,26842,0,0,0
44654,19852,26764,0,0,0
44593,19814,26683,0,0,0
44529,19775,26598,0,0,0
44466,19737,26511,0,0,0
44405,19697,26423,0,0,0
44343,19656,26336,0,0,0
44283,19614,26250,0,0,0
44224,19573,26166,0,0,0
44166,19532,26085,0,0,0
44112,19491,26005,0,0,0
44060,19449,25924,0,0,0
44007,19410,25841,0,0,0
43953,19372,25758,0,0,0
43896,19336,25675,0,0,0
43837,19299,25590,0,0,0
43777,19263,25507,0,0,0
43716,19227,25426,0,0,0
43655,19190,25345,0,0,0
43591,19152,25262,0,0,0
43524,19114,25178,0,0,0
43455,19075,25091,0,0,0
43385,19033,25001,0,0,0
43316,18992,24913,0,0,0
43251,18955,24834,0,0,0
43190,18921,24762,0,0,0
43130,18889,24691,0,0,0
43070,18854,24620,0,0,0
43010,18818,24549,0,0,0
42953,18779,24477,0,0,0
42899,18738,24405,0,0,0
42847,18698,24332,0,0,0
42797,18659,24257,0,0,0
42751,18620,24182,0,0,0
42709,18584,24109,0,0,0
42670,18549,24039,0,0,0
42631,18516,23969,0,0,0
42589,18484,23898,0,0,0
42539,18454,23826,0,0,0
42486,18425,23756,0,0,0
42433,18397,23687,0,0,0
42382,18369,23620,0,0,0
42331,18342,23552,0,0,0
42282,18315,23483,0,0,0
42236,18288,23413,0,0,0
42191,18258,23340,0,0,0
42146,18226,23266,0,0,0
42098,18194,23194,0,0,0
42048,18163,23123,0,0,0
41999,18131,23050,0,0,0
41954,18100,22977,0,0,0
41912,18070,22903,0,0,0
41877,18041,22830,0,0,0
41847,18014,22760,0,0,0
41824,17988,22694,0,0,0
41806,17965,22634,0,0,0
41794,17944,22579,0,0,0
41790,17927,22532,0,0,0
41796,17915,22492,0,0,0
41806,17905,22456,0,0,0
41816,17895,22420,0,0,0
41823,17885,22381,0,0,0
41824,17876,22338,0,0,0
41815,17866,22289,0,0,0
41794,17853,22232,0,0,0
41761,17837,22171,0,0,0
41717,17817,22107,0,0,0
41666,17793,22040,0,0,0
41611,17765,21972,0,0,0
41555,17735,21906,0,0,0
41502,17706,21842,0,0,0
41454,17676,21780,0,0,0
41412,17649,21719,0,0,0
41378,17626,21660,0,0,0
41352,17607,21606,0,0,0
41333,17592,21556,0,0,0
41321,17582,21511,0,0,0
41315,17574,21469,0,0,0
41311,17564,21427,0,0,0
41310,17554,21388,0,0,0
41312,17544,21353,0,0,0
41317,17533,21320,0,0,0
41324,17523,21287,0,0,0
41330,17514,21248,0,0,0
41329,17504,21203,0,0,0
41319,17489,21149,0,0,0
41297,17468,21089,0,0,0
41264,17442,21021,0,0,0
41222,17415,20948,0,0,0
41172,17388,20875,0,0,0
41116,17361,20802,0,0,0
41054,17333,20728,0,0,0
40988,17303,20652,0,0,0
40918,17274,20579,0,0,0
40849,17245,20508,0,0,0
40785,17215,20441,0,0,0
40730,17188,20380,0,0,0
40685,17168,20329,0,0,0
40655,17157,20294,0,0,0
40645,17156,20281,0,0,0
40659,17170,20301,0,0,0
40702,17202,20360,0,0,0
40781,17257,20463,0,0,0
40896,17335,20611,0,0,0
41046,17436,20806,0,0,0
41229,17556,21047,0,0,0
41443,17695,21330,0,0,0
41686,17850,21648,0,0,0
41953,18019,21997,0,0,0
42241,18199,22372,0,0,0
42540,18389,22768,0,0,0
42843,18582,23177,0,0,0
43149,18776,23592,0,0,0
43455,18969,24009,0,0,0
43758,19161,24424,0,0,0
44051,19349,24830,0,0,0
44330,19530,25221,0,0,0
44593,19699,25595,0,0,0
44841,19855,25946,0,0,0
45068,19998,26269,0,0,0
45272,20129,26561,0,0,0
45454,20246,26824,0,0,0
45615,20353,27059,0,0,0
45759,20448,27264,0,0,0
45889,20531,27441,0,0,0
46003,20604,27596,0,0,0
46104,20667,27729,0,0,0
46192,20721,27843,0,0,0
46271,20767,27943,0,0,0
46343,20809,28036,0,0,0
46405,20848,28124,0,0,0
46460,20883,28209,0,0,0
46511,20917,28291,0,0,0
46564,20954,28372,0,0,0
46619,20992,28452,0,0,0
46677,21029,28536,0,0,0
46740,21067,28625,0,0,0
46808,21107,28720,0,0,0
46882,21151,28819,0,0,0
46960,21196,28920,0,0,0
47041,21242,29022,0,0,0
47120,21289,29122,0,0,0
47198,21335,29219,0,0,0
47275,21380,29313,0,0,0
47352,21425,29406,0,0,0
47427,21468,29497,0,0,0
47494,21507,29583,0,0,0
47552,21541,29659,0,0,0
47602,21568,29723,0,0,0
47640,21588,29776,0,0,0
47665,21603,29815,0,0,0
47679,21613,29840,0,0,0
47678,21616,29849,0,0,0
47666,21610,29842,0,0,0
47643,21598,29820,0,0,0
47608,21579,29783,0,0,0
47564,21556,29733,0,0,0
47514,21528,29674,0,0,0
47460,21495,29607,0,0,0
47401,21461,29532,0,0,0
47339,21424,29456,0,0,0
47278,21387,29382,0,0,0
47222,21352,29312,0,0,0
47169,21318,29247,0,0,0
47121,21287,29189,0,0,0
47078,21260,29138,0,0,0
47044,21237,29091,0,0,0
47019,21217,29050,0,0,0
47004,21201,29019,0,0,0
46995,21191,28996,0,0,0
46991,21185,28982,0,0,0
46992,21184,28977,0,0,0
46997,21185,28977,0,0,0
47000,21183,28979,0,0,0
47000,21179,28981,0,0,0
47001,21174,28983,0,0,0
47002,21169,28985,0,0,0
47003,21160,28982,0,0,0
47002,21149,28975,0,0,0
46998,21137,28962,0,0,0
46988,21125,28944,0,0,0
46974,21112,28920,0,0,0
46958,21098,28891,0,0,0
46939,21079,28853,0,0,0
46917,21057,28808,0,0,0
46890,21034,28759,0,0,0
46856,21008,28705,0,0,0
46817,20982,28647,0,0,0
46773,20954,28587,0,0,0
46723,20925,28525,0,0,0
46670,20894,28460,0,0,0
46617,20860,28396,0,0,0
46563,20824,28330,0,0,0
46507,20786,28261,0,0,0
46449,20747,28189,0,0,0
46390,20706,28114,0,0,0
46328,20666,28039,0,0,0
46266,20626,27961,0,0,0
46208,20585,27879,0,0,0
46153,20543,27795,0,0,0
46097,20501,27711,0,0,0
46042,20461,27627,0,0,0
45989,20422,27545,0,0,0
45938,20384,27467,0,0,0
45889,20351,27391,0,0,0
45843,20323,27319,0,0,0
45802,20298,27252,0,0,0
45765,20274,27189,0,0,0
45730,20249,27131,0,0,0
45692,20224,27074,0,0,0
45651,20201,27015,0,0,0
45608,20176,26951,0,0,0
45563,20147,26885,0,0,0
45515,20115,26819,0,0,0
45467,20081,26752,0,0,0
45422,20045,26685,0,0,0
45377,20009,26615,0,0,0
45332,19972,26541,0,0,0
45285,19935,26466,0,0,0
45238,19899,26393,0,0,0
45191,19865,26324,0,0,0
45145,19831,26257,0,0,0
45099,19798,26191,0,0,0
45056,19767,26126,0,0,0
45015,19737,26061,0,0,0
44976,19709,25999,0,0,0
44939,19685,25941,0,0,0
44908,19667,25888,0,0,0
44880,19652,25838,0,0,0
44849,19637,25788,0,0,0
44817,19620,25736,0,0,0
44783,19602,25685,0,0,0
44749,19583,25632,0,0,0
44710,19564,25576,0,0,0
44666,19544,25518,0,0,0
44620,19522,25457,0,0,0
44571,19497,25395,0,0,0
44520,19468,25333,0,0,0
44470,19436,25270,0,0,0
44424,19402,25207,0,0,0
44382,19370,25144,0,0,0
44343,19341,25082,0,0,0
44309,19317,25024,0,0,0
44279,19294,24969,0,0,0
44249,19272,24915,0,0,0
44220,19251,24861,0,0,0
44193,19229,24805,0,0,0
44164,19207,24748,0,0,0
44132,19184,24691,0,0,0
44095,19162,24633,0,0,0
44055,19141,24572,0,0,0
44010,19117,24507,0,0,0
43962,19089,24439,0,0,0
43914,19060,24370,0,0,0
43867,19033,24302,0,0,0
43821,19007,24239,0,0,0
43778,18981,24181,0,0,0
43733,18956,24129,0,0,0
43690,18932,24079,0,0,0
43653,18909,24031,0,0,0
43623,18885,23983,0,0,0
43597,18864,23934,0,0,0
43573,18846,23881,0,0,0
43549,18830,23825,0,0,0
43522,18813,23771,0,0,0
43493,18795,23716,0,0,0
43463,18776,23662,0,0,0
43432,18755,23607,0,0,0
43401,18734,23550,0,0,0
43370,18711,23490,0,0,0
43337,18689,23429,0,0,0
43298,18666,23369,0,0,0
43255,18642,23306,0,0,0
43208,18616,23244,0,0,0
43159,18588,23184,0,0,0
43112,18559,23124,0,0,0
43063,18528,23061,0,0,0
43014,18497,22994,0,0,0
42968,18467,22926,0,0,0
42922,18439,22859,0,0,0
42872,18412,22793,0,0,0
42823,18385,22728,0,0,0
42775,18357,22662,0,0,0
42728,18329,22596,0,0,0
42681,18302,22530,0,0,0
42633,18277,22469,0,0,0
42587,18255,22410,0,0,0
42542,18236,22354,0,0,0
42502,18221,22303,0,0,0
42469,18210,22258,0,0,0
42443,18203,22222,0,0,0
42425,18200,22200,0,0,0
42421,18204,22197,0,0,0
42438,18222,22220,0,0,0
42479,18257,22278,0,0,0
42547,18312,22378,0,0,0
42648,18384,22523,0,0,0
42790,18476,22715,0,0,0
42969,18589,22957,0,0,0
43182,18721,23243,0,0,0
43423,18868,23565,0,0,0
43686,19029,23917,0,0,0
43967,19202,24296,0,0,0
44262,19383,24694,0,0,0
44564,19571,25103,0,0,0
44869,19761,25519,0,0,0
45172,19952,25933,0,0,0
45468,20141,26336,0,0,0
45756,20324,26723,0,0,0
46029,20499,27089,0,0,0
46279,20663,27427,0,0,0
46507,20811,27735,0,0,0
46711,20942,28018,0,0,0
46892,21058,28273,0,0,0
47051,21157,28499,0,0,0
47192,21245,28697,0,0,0
47317,21322,28873,0,0,0
47428,21392,29029,0,0,0
47524,21452,29166,0,0,0
47606,21500,29284,0,0,0
47678,21539,29386,0,0,0
47745,21574,29477,0,0,0
47810,21610,29562,0,0,0
47874,21646,29644,0,0,0
47938,21682,29725,0,0,0
48003,21719,29806,0,0,0
48069,21758,29887,0,0,0
48139,21799,29969,0,0,0
48211,21841,30055,0,0,0
48285,21882,30144,0,0,0
48357,21922,30237,0,0,0
48429,21964,30334,0,0,0
48500,22006,30434,0,0,0
48573,22049,30537,0,0,0
48649,22094,30640,0,0,0
48726,22138,30741,0,0,0
48801,22184,30839,0,0,0
48872,22229,30934,0,0,0
48939,22271,31025,0,0,0
49000,22309,31107,0,0,0
49055,22344,31180,0,0,0
49101,22374,31244,0,0,0
49133,22396,31298,0,0,0
49156,22409,31339,0,0,0
49169,22415,31366,0,0,0
49173,22415,31378,0,0,0
49167,22408,31373,0,0,0
49151,22396,31350,0,0,0
49126,22377,31313,0,0,0
49088,22351,31263,0,0,0
49040,22317,31203,0,0,0
48987,22279,31136,0,0,0
48934,22240,31065,0,0,0
48883,22201,30994,0,0,0
48834,22165,30928,0,0,0
48790,22133,30867,0,0,0
48752,22106,30811,0,0,0
48720,22085,30762,0,0,0
48693,22069,30722,0,0,0
48675,22059,30692,0,0,0
48666,22055,30675,0,0,0
48666,22057,30670,0,0,0
48670,22064,30672,0,0,0
48677,22073,30679,0,0,0
48686,22084,30688,0,0,0
48694,22095,30698,0,0,0
48702,22104,30707,0,0,0
48710,22111,30714,0,0,0
48717,22116,30719,0,0,0
48718,22120,30721,0,0,0
48716,22122,30721,0,0,0
48711,22121,30717,0,0,0
48705,22117,30708,0,0,0
48697,22112,30693,0,0,0
48687,22102,30672,0,0,0
48678,22089,30647,0,0,0
48665,22073,30620,0,0,0
48648,22055,30591,0,0,0
48629,22035,30559,0,0,0
48604,22015,30524,0,0,0
48574,21992,30483,0,0,0
48538,21968,30435,0,0,0
48499,21944,30381,0,0,0
48458,21920,30325,0,0,0
48417,21894,30267,0,0,0
48375,21867,30206,0,0,0
48331,21837,30142,0,0,0
48283,21808,30079,0,0,0
48232,21780,30017,0,0,0
48182,21754,29953,0,0,0
48135,21730,29889,0,0,0
48089,21704,29825,0,0,0
48045,21675,29760,0,0,0
48002,21646,29695,0,0,0
47958,21616,29628,0,0,0
47910,21583,29558,0,0,0
47863,21549,29487,0,0,0
47817,21516,29417,0,0,0
47772,21483,29345,0,0,0
47728,21449,29272,0,0,0
47683,21416,29200,0,0,0
47637,21385,29128,0,0,0
47593,21356,29059,0,0,0
47551,21330,28991,0,0,0
47508,21306,28922,0,0,0
47467,21281,28853,0,0,0
47426,21257,28786,0,0,0
47384,21232,28721,0,0,0
47340,21206,28656,0,0,0
47291,21177,28588,0,0,0
47239,21146,28518,0,0,0
47188,21113,28449,0,0,0
47139,21078,28381,0,0,0
47090,21042,28316,0,0,0
47043,21006,28251,0,0,0
46996,20970,28187,0,0,0
46950,20937,28123,0,0,0
46904,20906,28059,0,0,0
46861,20877,27996,0,0,0
46822,20853,27934,0,0,0
46788,20831,27876,0,0,0
46756,20813,27820,0,0,0
46723,20791,27765,0,0,0
46689,20765,27711,0,0,0
46652,20737,27654,0,0,0
46610,20708,27594,0,0,0
46563,20679,27531,0,0,0
46512,20650,27466,0,0,0
46458,20620,27399,0,0,0
46405,20589,27332,0,0,0
46355,20558,27266,0,0,0
46302,20524,27199,0,0,0
46249,20489,27129,0,0,0
46198,20454,27059,0,0,0
46153,20422,26995,0,0,0
46111,20394,26935,0,0,0
46071,20368,26878,0,0,0
46029,20341,26821,0,0,0
45985,20312,26763,0,0,0
45940,20281,26702,0,0,0
45896,20251,26639,0,0,0
45852,20223,26574,0,0,0
45806,20194,26507,0,0,0
45757,20166,26438,0,0,0
45706,20136,26366,0,0,0
45651,20106,26291,0,0,0
45592,20073,26217,0,0,0
45533,20038,26142,0,0,0
45477,20003,26067,0,0,0
45426,19968,25993,0,0,0
45379,19934,25920,0,0,0
45331,19902,25851,0,0,0
45284,19868,25782,0,0,0
45237,19837,25712,0,0,0
45192,19807,25642,0,0,0
45146,19776,25572,0,0,0
45102,19746,25503,0,0,0
45059,19719,25439,0,0,0
45017,19694,25378,0,0,0
44977,19670,25320,0,0,0
44938,19645,25263,0,0,0
44901,19620,25205,0,0,0
44862,19593,25144,0,0,0
44817,19566,25080,0,0,0
44769,19537,25015,0,0,0
44719,19506,24949,0,0,0
44667,19474,24882,0,0,0
44615,19441,24815,0,0,0
44567,19409,24749,0,0,0
44522,19380,24683,0,0,0
44477,19353,24618,0,0,0
44432,19329,24552,0,0,0
44390,19305,24489,0,0,0
44352,19282,24432,0,0,0
44317,19259,24379,0,0,0
44284,19236,24326,0,0,0
44252,19214,24273,0,0,0
44220,19191,24219,0,0,0
44189,19166,24167,0,0,0
44157,19142,24114,0,0,0
44124,19118,24058,0,0,0
44089,19095,23999,0,0,0
44050,19071,23936,0,0,0
44006,19043,23869,0,0,0
43956,19013,23798,0,0,0
43902,18982,23726,0,0,0
43846,18950,23655,0,0,0
43791,18917,23587,0,0,0
43739,18887,23518,0,0,0
43689,18860,23449,0,0,0
43640,18834,23381,0,0,0
43591,18810,23318,0,0,0
43545,18792,23267,0,0,0
43507,18782,23232,0,0,0
43490,18780,23219,0,0,0
43499,18790,23235,0,0,0
43540,18819,23289,0,0,0
43613,18868,23385,0,0,0
43719,18938,23524,0,0,0
43858,19032,23708,0,0,0
44033,19149,23939,0,0,0
44242,19286,24217,0,0,0
44484,19443,24534,0,0,0
44755,19619,24889,0,0,0
45045,19810,25275,0,0,0
45346,20008,25687,0,0,0
45653,20211,26115,0,0,0
45965,20413,26549,0,0,0
46278,20610,26979,0,0,0
46583,20801,27398,0,0,0
46875,20983,27800,0,0,0
47151,21159,28180,0,0,0
47409,21328,28539,0,0,0
47646,21483,28875,0,0,0
47860,21620,29182,0,0,0
48049,21741,29457,0,0,0
48216,21845,29700,0,0,0
48363,21936,29916,0,0,0
48491,22013,30108,0,0,0
48602,22082,30277,0,0,0
48701,22144,30426,0,0,0
48791,22199,30559,0,0,0
48871,22245,30676,0,0,0
48945,22284,30781,0,0,0
49013,22319,30880,0,0,0
49076,22353,30975,0,0,0
49139,22391,31074,0,0,0
49208,22435,31178,0,0,0
49280,22482,31286,0,0,0
49356,22530,31396,0,0,0
49434,22579,31507,0,0,0
49514,22629,31620,0,0,0
49596,22683,31733,0,0,0
49681,22740,31844,0,0,0
49766,22796,31953,0,0,0
49850,22852,32063,0,0,0
49936,22909,32179,0,0,0
50024,22966,32301,0,0,0
50113,23021,32425,0,0,0
50201,23077,32549,0,0,0
50286,23130,32667,0,0,0
50366,23179,32778,0,0,0
50441,23221,32883,0,0,0
50509,23259,32978,0,0,0
50569,23295,33064,0,0,0
50619,23327,33138,0,0,0
50655,23355,33196,0,0,0
50676,23374,33238,0,0,0
50686,23382,33263,0,0,0
50683,23378,33271,0,0,0
50667,23362,33260,0,0,0
50638,23339,33232,0,0,0
50598,23307,33187,0,0,0
50547,23268,33127,0,0,0
50491,23226,33060,0,0,0
50435,23186,32993,0,0,0
50381,23150,32924,0,0,0
50330,23117,32855,0,0,0
50283,23087,32792,0,0,0
50241,23061,32737,0,0,0
50203,23038,32689,0,0,0
50171,23019,32646,0,0,0
50142,23003,32608,0,0,0
50118,22987,32575,0,0,0
50098,22973,32549,0,0,0
50082,22964,32529,0,0,0
50068,22957,32512,0,0,0
50053,22948,32494,0,0,0
50035,22934,32473,0,0,0
50015,22917,32448,0,0,0
49994,22897,32422,0,0,0
49969,22874,32394,0,0,0
49938,22846,32360,0,0,0
49901,22818,32320,0,0,0
49862,22789,32278,0,0,0
49824,22762,32238,0,0,0
49786,22737,32200,0,0,0
49747,22715,32164,0,0,0
49710,22693,32128,0,0,0
49674,22674,32087,0,0,0
49638,22655,32042,0,0,0
49600,22636,31995,0,0,0
49560,22616,31946,0,0,0
49519,22595,31894,0,0,0
49477,22572,31840,0,0,0
49437,22548,31783,0,0,0
49397,22522,31724,0,0,0
49355,22493,31660,0,0,0
49308,22460,31592,0,0,0
49260,22427,31521,0,0,0
49213,22395,31448,0,0,0
49168,22364,31374,0,0,0
49123,22333,31299,0,0,0
49076,22301,31227,0,0,0
49030,22269,31157,0,0,0
48987,22238,31087,0,0,0
48945,22207,31017,0,0,0
48904,22176,30946,0,0,0
48862,22145,30877,0,0,0
48820,22115,30809,0,0,0
48773,22082,30740,0,0,0
48719,22048,30667,0,0,0
48660,22013,30592,0,0,0
48597,21978,30516,0,0,0
48533,21942,30438,0,0,0
48472,21905,30360,0,0,0
48412,21866,30284,0,0,0
48356,21828,30208,0,0,0
48305,21793,30131,0,0,0
48255,21760,30055,0,0,0
48207,21727,29984,0,0,0
48158,21690,29916,0,0,0
48107,21650,29846,0,0,0
48055,21611,29776,0,0,0
48006,21577,29708,0,0,0
47957,21546,29640,0,0,0
47909,21518,29574,0,0,0
47865,21490,29510,0,0,0
47825,21462,29449,0,0,0
47784,21434,29386,0,0,0
47742,21405,29322,0,0,0
47701,21377,29257,0,0,0
47660,21349,29196,0,0,0
47618,21322,29138,0,0,0
47576,21298,29080,0,0,0
47538,21277,29023,0,0,0
47505,21256,28967,0,0,0
47475,21236,28910,0,0,0
47442,21217,28851,0,0,0
47407,21197,28792,0,0,0
47373,21176,28735,0,0,0
47337,21154,28678,0,0,0
47300,21129,28618,0,0,0
47264,21102,28556,0,0,0
47226,21075,28496,0,0,0
47186,21048,28436,0,0,0
47145,21021,28375,0,0,0
47108,20997,28315,0,0,0
47072,20975,28256,0,0,0
47037,20955,28198,0,0,0
46999,20932,28140,0,0,0
46957,20905,28082,0,0,0
46911,20874,28021,0,0,0
46865,20840,27958,0,0,0
46819,20805,27894,0,0,0
46776,20773,27831,0,0,0
46736,20745,27769,0,0,0
46698,20718,27707,0,0,0
46661,20692,27643,0,0,0
46620,20668,27578,0,0,0
46575,20643,27510,0,0,0
46528,20618,27442,0,0,0
46481,20591,27378,0,0,0
46430,20563,27314,0,0,0
46379,20535,27248,0,0,0
46329,20506,27180,0,0,0
46280,20476,27111,0,0,0
46232,20444,27040,0,0,0
46184,20410,26964,0,0,0
46132,20372,26885,0,0,0
46077,20333,26803,0,0,0
46020,20293,26719,0,0,0
45961,20253,26633,0,0,0
45900,20213,26546,0,0,0
45836,20173,26464,0,0,0
45772,20134,26386,0,0,0
45708,20095,26308,0,0,0
45638,20054,26228,0,0,0
45556,20010,26144,0,0,0
45465,19964,26056,0,0,0
45373,19917,25965,0,0,0
45285,19871,25874,0,0,0
45206,19828,25786,0,0,0
45136,19791,25705,0,0,0
45075,19757,25630,0,0,0
45021,19726,25558,0,0,0
44972,19696,25491,0,0,0
44925,19666,25429,0,0,0
44879,19638,25370,0,0,0
44835,19613,25313,0,0,0
44795,19588,25256,0,0,0
44755,19562,25193,0,0,0
44715,19536,25127,0,0,0
44676,19510,25059,0,0,0
44637,19484,24991,0,0,0
44595,19456,24921,0,0,0
44551,19427,24851,0,0,0
44508,19398,24780,0,0,0
44462,19367,24709,0,0,0
44414,19333,24637,0,0,0
44370,19299,24565,0,0,0
44330,19267,24494,0,0,0
44292,19237,24427,0,0,0
44255,19209,24362,0,0,0
44219,19183,24297,0,0,0
44183,19159,24231,0,0,0
44152,19140,24170,0,0,0
44126,19125,24116,0,0,0
44109,19114,24074,0,0,0
44105,19111,24046,0,0,0
44115,19118,24040,0,0,0
44144,19137,24063,0,0,0
44197,19174,24121,0,0,0
44280,19227,24221,0,0,0
44397,19301,24368,0,0,0
44549,19399,24563,0,0,0
44737,19521,24811,0,0,0
44961,19670,25113,0,0,0
45225,19843,25463,0,0,0
45523,20037,25851,0,0,0
45845,20244,26267,0,0,0
46184,20460,26707,0,0,0
46531,20682,27164,0,0,0
46879,20907,27629,0,0,0
47221,21132,28095,0,0,0
47555,21352,28556,0,0,0
47878,21565,29006,0,0,0
48188,21767,29438,0,0,0
48479,21957,29844,0,0,0
48750,22134,30225,0,0,0
48998,22294,30578,0,0,0
49224,22438,30900,0,0,0
49432,22569,31192,0,0,0
49622,22687,31461,0,0,0
49791,22790,31704,0,0,0
49941,22880,31920,0,0,0
50071,22957,32112,0,0,0
50186,23028,32282,0,0,0
50288,23093,32435,0,0,0
50381,23153,32575,0,0,0
50467,23208,32704,0,0,0
50546,23258,32825,0,0,0
50620,23301,32937,0,0,0
50690,23341,33044,0,0,0
50757,23381,33148,0,0,0
50824,23423,33252,0,0,0
50891,23466,33357,0,0,0
50960,23508,33468,0,0,0
51032,23550,33586,0,0,0
51110,23595,33709,0,0,0
51193,23646,33837,0,0,0
51278,23700,33967,0,0,0
51364,23756,34097,0,0,0
51448,23810,34226,0,0,0
51531,23864,34353,0,0,0
51614,23919,34478,0,0,0
51694,23976,34599,0,0,0
51770,24032,34716,0,0,0
51841,24084,34827,0,0,0
51907,24129,34928,0,0,0
51969,24167,35017,0,0,0
52021,24197,35093,0,0,0
52061,24220,35151,0,0,0
52086,24234,35189,0,0,0
52094,24238,35208,0,0,0
52087,24232,35206,0,0,0
52064,24217,35182,0,0,0
52027,24194,35140,0,0,0
51977,24163,35082,0,0,0
51915,24125,35013,0,0,0
51847,24083,34939,0,0,0
51778,24042,34864,0,0,0
51710,24002,34789,0,0,0
51642,23961,34714,0,0,0
51576,23919,34639,0,0,0
51514,23880,34568,0,0,0
51464,23845,34503,0,0,0
51425,23814,34444,0,0,0
51394,23788,34394,0,0,0
51370,23769,34353,0,0,0
51352,23755,34323,0,0,0
51341,23747,34302,0,0,0
51335,23744,34288,0,0,0
51329,23742,34282,0,0,0
51326,23743,34281,0,0,0
51325,23745,34282,0,0,0
51323,23749,34284,0,0,0
51320,23753,34287,0,0,0
51316,23756,34288,0,0,0
51311,23755,34285,0,0,0
51303,23750,34279,0,0,0
51291,23743,34268,0,0,0
51274,23736,34249,0,0,0
51251,23724,34223,0,0,0
51222,23706,34192,0,0,0
51191,23684,34156,0,0,0
51158,23662,34116,0,0,0
51123,23641,34072,0,0,0
51087,23621,34026,0,0,0
51047,23600,33978,0,0,0
51003,23575,33925,0,0,0
50953,23545,33862,0,0,0
50901,23511,33793,0,0,0
50850,23474,33721,0,0,0
50799,23435,33648,0,0,0
50748,23395,33573,0,0,0
50693,23353,33497,0,0,0
50633,23312,33421,0,0,0
50568,23270,33340,0,0,0
50503,23228,33256,0,0,0
50439,23186,33170,0,0,0
50376,23149,33086,0,0,0
50315,23117,33003,0,0,0
50255,23087,32918,0,0,0
50199,23057,32832,0,0,0
50143,23027,32746,0,0,0
50085,22993,32658,0,0,0
50025,22958,32570,0,0,0
49965,22922,32483,0,0,0
49905,22884,32401,0,0,0
49845,22844,32322,0,0,0
49786,22802,32244,0,0,0
49728,22760,32167,0,0,0
49669,22719,32092,0,0,0
49606,22680,32019,0,0,0
49542,22641,31946,0,0,0
49478,22601,31875,0,0,0
49414,22561,31803,0,0,0
49354,22522,31732,0,0,0
49296,22482,31660,0,0,0
49242,22445,31587,0,0,0
49190,22411,31514,0,0,0
49139,22376,31440,0,0,0
49087,22341,31362,0,0,0
49037,22304,31282,0,0,0
48990,22267,31201,0,0,0
48942,22231,31118,0,0,0
48892,22194,31035,0,0,0
48839,22157,30950,0,0,0
48786,22122,30867,0,0,0
48733,22087,30786,0,0,0
48677,22052,30706,0,0,0
48616,22017,30626,0,0,0
48550,21981,30548,0,0,0
48482,21943,30472,0,0,0
48413,21903,30395,0,0,0
48347,21861,30319,0,0,0
48285,21820,30244,0,0,0
48224,21781,30170,0,0,0
48165,21745,30096,0,0,0
48110,21711,30024,0,0,0
48057,21679,29952,0,0,0
48007,21649,29882,0,0,0
47958,21621,29812,0,0,0
47911,21594,29742,0,0,0
47866,21567,29674,0,0,0
47819,21536,29604,0,0,0
47768,21500,29531,0,0,0
47716,21464,29457,0,0,0
47661,21429,29381,0,0,0
47604,21393,29302,0,0,0
47544,21358,29223,0,0,0
47484,21323,29144,0,0,0
47425,21287,29065,0,0,0
47364,21251,28982,0,0,0
47302,21216,28901,0,0,0
47242,21181,28826,0,0,0
47186,21148,28754,0,0,0
47133,21119,28681,0,0,0
47086,21093,28609,0,0,0
47042,21066,28538,0,0,0
46998,21038,28464,0,0,0
46953,21008,28386,0,0,0
46908,20977,28306,0,0,0
46859,20942,28226,0,0,0
46808,20906,28148,0,0,0
46755,20871,28073,0,0,0
46702,20836,28001,0,0,0
46648,20804,27930,0,0,0
46591,20772,27857,0,0,0
46533,20741,27783,0,0,0
46476,20713,27709,0,0,0
46422,20685,27635,0,0,0
46369,20656,27565,0,0,0
46319,20626,27499,0,0,0
46274,20597,27437,0,0,0
46231,20567,27375,0,0,0
46185,20535,27311,0,0,0
46137,20504,27246,0,0,0
46092,20475,27181,0,0,0
46051,20449,27117,0,0,0
46008,20424,27053,0,0,0
45965,20397,26991,0,0,0
45924,20372,26931,0,0,0
45883,20346,26871,0,0,0
45844,20320,26808,0,0,0
45804,20293,26743,0,0,0
45760,20264,26676,0,0,0
45714,20233,26609,0,0,0
45666,20202,26544,0,0,0
45616,20171,26477,0,0,0
45564,20140,26410,0,0,0
45510,20109,26343,0,0,0
45455,20077,26276,0,0,0
45398,20043,26204,0,0,0
45337,20006,26126,0,0,0
45276,19969,26044,0,0,0
45212,19932,25960,0,0,0
45145,19893,25878,0,0,0
45080,19854,25797,0,0,0
45016,19814,25715,0,0,0
44953,19774,25630,0,0,0
44894,19737,25546,0,0,0
44838,19703,25466,0,0,0
44783,19673,25392,0,0,0
44732,19643,25324,0,0,0
44689,19619,25268,0,0,0
44659,19604,25233,0,0,0
44650,19603,25230,0,0,0
44669,19620,25261,0,0,0
44723,19657,25332,0,0,0
44814,19717,25451,0,0,0
44944,19803,25618,0,0,0
45112,19912,25833,0,0,0
45317,20044,26098,0,0,0
45554,20199,26409,0,0,0
45819,20374,26762,0,0,0
46111,20567,27152,0,0,0
46423,20771,27570,0,0,0
46751,20983,28010,0,0,0
47088,21199,28465,0,0,0
47426,21417,28922,0,0,0
47759,21634,29375,0,0,0
48080,21843,29820,0,0,0
48387,22042,30253,0,0,0
48674,22229,30664,0,0,0
48939,22401,31048,0,0,0
49176,22556,31403,0,0,0
49388,22696,31726,0,0,0
49579,22825,32016,0,0,0
49751,22941,32277,0,0,0
49905,23043,32513,0,0,0
50041,23132,32724,0,0,0
50161,23209,32911,0,0,0
50267,23277,33076,0,0,0
50362,23335,33223,0,0,0
50446,23385,33355,0,0,0
50520,23429,33473,0,0,0
50586,23471,33579,0,0,0
50646,23513,33679,0,0,0
50702,23553,33778,0,0,0
50760,23593,33875,0,0,0
50821,23635,33972,0,0,0
50887,23678,34072,0,0,0
50957,23721,34176,0,0,0
51030,23768,34282,0,0,0
51103,23818,34393,0,0,0
51178,23868,34510,0,0,0
51254,23919,34629,0,0,0
51331,23972,34750,0,0,0
51410,24025,34872,0,0,0
51490,24078,34997,0,0,0
51569,24128,35119,0,0,0
51645,24177,35236,0,0,0
51716,24226,35346,0,0,0
51784,24272,35448,0,0,0
51845,24312,35540,0,0,0
51896,24347,35619,0,0,0
51934,24376,35686,0,0,0
51961,24397,35739,0,0,0
51978,24407,35776,0,0,0
51982,24406,35795,0,0,0
51971,24394,35792,0,0,0
51946,24371,35766,0,0,0
51906,24337,35721,0,0,0
51854,24296,35660,0,0,0
51795,24254,35584,0,0,0
51730,24211,35499,0,0,0
51661,24165,35404,0,0,0
51591,24116,35305,0,0,0
51520,24067,35207,0,0,0
51449,24018,35114,0,0,0
51382,23975,35033,0,0,0
51323,23940,34964,0,0,0
51273,23910,34903,0,0,0
51229,23884,34850,0,0,0
51188,23863,34806,0,0,0
51153,23846,34770,0,0,0
51126,23832,34742,0,0,0
51105,23822,34721,0,0,0
51088,23813,34706,0,0,0
51075,23806,34694,0,0,0
51067,23800,34686,0,0,0
51059,23799,34680,0,0,0
51050,23799,34675,0,0,0
51042,23800,34670,0,0,0
51035,23801,34664,0,0,0
51027,23798,34655,0,0,0
51016,23793,34641,0,0,0
51001,23786,34623,0,0,0
50980,23778,34600,0,0,0
50951,23768,34570,0,0,0
50914,23754,34536,0,0,0
50872,23736,34494,0,0,0
50829,23715,34441,0,0,0
50784,23691,34380,0,0,0
50735,23662,34316,0,0,0
50683,23630,34246,0,0,0
50631,23596,34174,0,0,0
50578,23560,34099,0,0,0
50525,23521,34023,0,0,0
50474,23482,33946,0,0,0
50423,23446,33870,0,0,0
50372,23410,33793,0,0,0
50320,23375,33714,0,0,0
50268,23339,33636,0,0,0
50217,23302,33558,0,0,0
50168,23267,33479,0,0,0
50119,23236,33402,0,0,0
50069,23205,33327,0,0,0
50019,23173,33250,0,0,0
49964,23137,33168,0,0,0
49903,23096,33083,0,0,0
49840,23056,32996,0,0,0
49778,23019,32906,0,0,0
49714,22981,32816,0,0,0
49648,22940,32723,0,0,0
49580,22899,32628,0,0,0
49510,22857,32534,0,0,0
49440,22814,32445,0,0,0
49370,22772,32359,0,0,0
49302,22731,32273,0,0,0
49236,22689,32184,0,0,0
49171,22647,32093,0,0,0
49105,22605,32000,0,0,0
49039,22561,31904,0,0,0
48974,22517,31807,0,0,0
48914,22475,31715,0,0,0
48858,22437,31630,0,0,0
48801,22400,31547,0,0,0
48741,22361,31462,0,0,0
48679,22319,31375,0,0,0
48617,22275,31287,0,0,0
48554,22231,31197,0,0,0
48489,22190,31106,0,0,0
48423,22152,31016,0,0,0
48354,22113,30928,0,0,0
48284,22072,30840,0,0,0
48216,22029,30751,0,0,0
48149,21984,30664,0,0,0
48083,21940,30582,0,0,0
48017,21898,30502,0,0,0
47953,21858,30421,0,0,0
47888,21818,30340,0,0,0
47822,21779,30260,0,0,0
47756,21738,30179,0,0,0
47689,21698,30099,0,0,0
47625,21658,30019,0,0,0
47562,21617,29938,0,0,0
47500,21574,29857,0,0,0
47437,21530,29773,0,0,0
47374,21486,29685,0,0,0
47310,21442,29592,0,0,0
47243,21399,29499,0,0,0
47174,21355,29406,0,0,0
47103,21311,29312,0,0,0
47031,21267,29217,0,0,0
46959,21221,29123,0,0,0
46885,21175,29033,0,0,0
46809,21130,28944,0,0,0
46733,21086,28853,0,0,0
46655,21040,28760,0,0,0
46576,20992,28665,0,0,0
46497,20940,28569,0,0,0
46417,20888,28470,0,0,0
46336,20834,28368,0,0,0
46254,20780,28265,0,0,0
46171,20729,28161,0,0,0
46090,20678,28058,0,0,0
46011,20626,27959,0,0,0
45933,20576,27863,0,0,0
45855,20529,27771,0,0,0
45776,20482,27680,0,0,0
45698,20434,27588,0,0,0
45621,20387,27499,0,0,0
45549,20342,27412,0,0,0
45477,20297,27326,0,0,0
45407,20251,27237,0,0,0
45336,20204,27148,0,0,0
45267,20161,27060,0,0,0
45201,20123,26974,0,0,0
45140,20088,26891,0,0,0
45086,20056,26812,0,0,0
45039,20026,26739,0,0,0
44998,19998,26670,0,0,0
44960,19968,26604,0,0,0
44924,19939,26543,0,0,0
44888,19910,26485,0,0,0
44850,19881,26425,0,0,0
44811,19851,26363,0,0,0
44773,19821,26299,0,0,0
44733,19792,26231,0,0,0
44689,19759,26157,0,0,0
44638,19724,26080,0,0,0
44581,19688,25999,0,0,0
44519,19651,25916,0,0,0
44454,19614,25831,0,0,0
44390,19576,25747,0,0,0
44329,19540,25668,0,0,0
44268,19503,25591,0,0,0
44208,19467,25513,0,0,0
44152,19431,25436,0,0,0
44100,19399,25363,0,0,0
44051,19368,25292,0,0,0
44006,19337,25222,0,0,0
43966,19309,25158,0,0,0
43934,19288,25108,0,0,0
43917,19277,25075,0,0,0
43918,19279,25067,0,0,0
43945,19298,25090,0,0,0
44003,19335,25154,0,0,0
44091,19392,25263,0,0,0
44209,19468,25421,0,0,0
44361,19568,25629,0,0,0
44552,19690,25889,0,0,0
44779,19833,26197,0,0,0
45035,19998,26550,0,0,0
45317,20180,26942,0,0,0
45625,20376,27366,0,0,0
45952,20583,27816,0,0,0
46291,20799,28285,0,0,0
46638,21023,28762,0,0,0
46989,21251,29242,0,0,0
47336,21477,29718,0,0,0
47672,21693,30178,0,0,0
47993,21899,30618,0,0,0
48295,22093,31034,0,0,0
48577,22273,31421,0,0,0
48837,22440,31778,0,0,0
49070,22594,32105,0,0,0
49278,22734,32399,0,0,0
49462,22858,32661,0,0,0
49621,22966,32891,0,0,0
49756,23057,33092,0,0,0
49875,23136,33270,0,0,0
49980,23205,33427,0,0,0
50073,23265,33567,0,0,0
50155,23316,33693,0,0,0
50228,23361,33806,0,0,0
50295,23403,33908,0,0,0
50358,23444,34004,0,0,0
50424,23486,34098,0,0,0
50492,23530,34191,0,0,0
50560,23574,34283,0,0,0
50625,23619,34374,0,0,0
50689,23665,34468,0,0,0
50756,23710,34564,0,0,0
50825,23757,34665,0,0,0
50898,23806,34769,0,0,0
50971,23854,34875,0,0,0
51046,23901,34979,0,0,0
51121,23946,35081,0,0,0
51193,23991,35185,0,0,0
51262,24032,35291,0,0,0
51324,24072,35393,0,0,0
51379,24109,35485,0,0,0
51430,24145,35566,0,0,0
51477,24175,35636,0,0,0
51514,24197,35690,0,0,0
51537,24207,35726,0,0,0
51544,24206,35738,0,0,0
51532,24194,35727,0,0,0
51501,24171,35695,0,0,0
51453,24138,35644,0,0,0
51393,24095,35578,0,0,0
51324,24046,35500,0,0,0
51252,23994,35413,0,0,0
51179,23942,35321,0,0,0
51108,23895,35231,0,0,0
51041,23854,35145,0,0,0
50979,23819,35063,0,0,0
50924,23788,34988,0,0,0
50878,23758,34922,0,0,0
50842,23732,34869,0,0,0
50814,23712,34828,0,0,0
50794,23700,34800,0,0,0
50779,23693,34779,0,0,0
50768,23689,34767,0,0,0
50758,23686,34761,0,0,0
50749,23683,34756,0,0,0
50746,23683,34754,0,0,0
50749,23683,34757,0,0,0
50755,23683,34759,0,0,0
50761,23681,34759,0,0,0
50767,23679,34759,0,0,0
50770,23680,34758,0,0,0
50768,23680,34751,0,0,0
50760,23676,34736,0,0,0
50746,23669,34715,0,0,0
50727,23659,34688,0,0,0
50703,23644,34656,0,0,0
50674,23626,34619,0,0,0
50640,23606,34578,0,0,0
50599,23583,34531,0,0,0
50550,23556,34473,0,0,0
50496,23527,34408,0,0,0
50440,23496,34337,0,0,0
50382,23460,34260,0,0,0
50321,23421,34177,0,0,0
50259,23378,34091,0,0,0
50193,23337,34002,0,0,0
50125,23296,33912,0,0,0
50059,23255,33822,0,0,0
49995,23213,33733,0,0,0
49932,23168,33644,0,0,0
49868,23121,33554,0,0,0
49804,23076,33463,0,0,0
49741,23035,33374,0,0,0
49680,22996,33287,0,0,0
49618,22955,33200,0,0,0
49555,22915,33113,0,0,0
49492,22878,33028,0,0,0
49427,22842,32946,0,0,0
49361,22806,32864,0,0,0
49296,22767,32781,0,0,0
49232,22728,32697,0,0,0
49169,22690,32612,0,0,0
49105,22652,32526,0,0,0
49038,22611,32437,0,0,0
48971,22568,32347,0,0,0
48904,22526,32257,0,0,0
48840,22486,32168,0,0,0
48778,22447,32078,0,0,0
48720,22409,31986,0,0,0
48663,22371,31893,0,0,0
48606,22333,31801,0,0,0
48546,22296,31710,0,0,0
48484,22259,31623,0,0,0
48420,22219,31538,0,0,0
48355,22179,31453,0,0,0
48289,22140,31365,0,0,0
48224,22101,31277,0,0,0
48160,22057,31189,0,0,0
48096,22011,31102,0,0,0
48034,21968,31019,0,0,0
47974,21929,30937,0,0,0
47913,21892,30858,0,0,0
47853,21856,30784,0,0,0
47797,21823,30713,0,0,0
47747,21790,30641,0,0,0
47700,21758,30571,0,0,0
47655,21727,30499,0,0,0
47607,21696,30424,0,0,0
47557,21666,30346,0,0,0
47506,21633,30267,0,0,0
47452,21599,30188,0,0,0
47397,21564,30110,0,0,0
47340,21528,30030,0,0,0
47281,21490,29949,0,0,0
47219,21450,29866,0,0,0
47155,21407,29779,0,0,0
47087,21364,29690,0,0,0
47017,21320,29600,0,0,0
46945,21274,29508,0,0,0
46875,21228,29414,0,0,0
46809,21181,29320,0,0,0
46749,21134,29229,0,0,0
46690,21088,29141,0,0,0
46631,21044,29059,0,0,0
46571,21003,28984,0,0,0
46513,20965,28910,0,0,0
46455,20927,28835,0,0,0
46396,20889,28758,0,0,0
46339,20850,28680,0,0,0
46283,20812,28601,0,0,0
46229,20777,28522,0,0,0
46177,20745,28443,0,0,0
46126,20714,28366,0,0,0
46076,20684,28290,0,0,0
46027,20653,28213,0,0,0
45978,20623,28136,0,0,0
45927,20592,28060,0,0,0
45875,20563,27986,0,0,0
45825,20534,27915,0,0,0
45776,20506,27847,0,0,0
45727,20479,27779,0,0,0
45677,20454,27710,0,0,0
45626,20429,27641,0,0,0
45575,20401,27570,0,0,0
45521,20371,27496,0,0,0
45462,20337,27419,0,0,0
45398,20299,27338,0,0,0
45333,20259,27255,0,0,0
45269,20217,27172,0,0,0
45204,20175,27090,0,0,0
45138,20137,27009,0,0,0
45074,20099,26929,0,0,0
45011,20061,26847,0,0,0
44947,20024,26764,0,0,0
44885,19988,26681,0,0,0
44823,19952,26601,0,0,0
44762,19917,26523,0,0,0
44703,19884,26445,0,0,0
44649,19853,26367,0,0,0
44596,19823,26290,0,0,0
44544,19789,26213,0,0,0
44494,19754,26134,0,0,0
44442,19719,26054,0,0,0
44388,19682,25973,0,0,0
44329,19642,25887,0,0,0
44264,19603,25800,0,0,0
44197,19564,25711,0,0,0
44129,19525,25619,0,0,0
44062,19484,25528,0,0,0
43996,19442,25437,0,0,0
43933,19402,25349,0,0,0
43876,19364,25271,0,0,0
43828,19333,25209,0,0,0
43793,19314,25172,0,0,0
43780,19309,25165,0,0,0
43797,19324,25194,0,0,0
43850,19362,25265,0,0,0
43943,19429,25388,0,0,0
44078,19520,25567,0,0,0
44250,19633,25803,0,0,0
44458,19765,26090,0,0,0
44700,19920,26422,0,0,0
44972,20095,26795,0,0,0
45271,20288,27202,0,0,0
45591,20493,27638,0,0,0
45923,20707,28098,0,0,0
46264,20926,28574,0,0,0
46606,21147,29059,0,0,0
46945,21368,29542,0,0,0
47273,21584,30016,0,0,0
47589,21790,30477,0,0,0
47890,21985,30917,0,0,0
48169,22167,31329,0,0,0
48425,22336,31708,0,0,0
48658,22488,32055,0,0,0
48870,22622,32366,0,0,0
49060,22738,32642,0,0,0
49230,22842,32888,0,0,0
49380,22936,33108,0,0,0
49511,23021,33306,0,0,0
49626,23095,33485,0,0,0
49726,23158,33644,0,0,0
49814,23213,33786,0,0,0
49894,23263,33912,0,0,0
49970,23310,34026,0,0,0
50043,23355,34134,0,0,0
50110,23398,34240,0,0,0
50175,23440,34344,0,0,0
50241,23482,34449,0,0,0
50310,23524,34557,0,0,0
50383,23566,34669,0,0,0
50459,23611,34786,0,0,0
50535,23658,34904,0,0,0
50612,23708,35025,0,0,0
50691,23762,35147,0,0,0
50771,23818,35269,0,0,0
50851,23875,35390,0,0,0
50929,23933,35512,0,0,0
51004,23987,35631,0,0,0
51078,24037,35743,0,0,0
