green_channel,red_channel,ir_channel,Anomaly_ch0,Anomaly_ch1,Anomaly_ch2
27800,3445,53481,0,0,0
27709,3352,53312,0,0,0
27620,3263,53151,0,0,0
27543,3187,53010,0,0,0
27483,3130,52897,0,0,0
27435,3086,52805,0,0,0
27396,3054,52734,0,0,0
27370,3037,52686,0,0,0
27353,3032,52661,0,0,0
27340,3029,52650,0,0,0
27336,3029,52652,0,0,0
27344,3038,52670,0,0,0
27363,3058,52704,0,0,0
27385,3081,52742,0,0,0
27409,3102,52776,0,0,0
27435,3120,52806,0,0,0
27454,3134,52826,0,0,0
27462,3137,52829,0,0,0
27462,3130,52813,0,0,0
27458,3119,52786,0,0,0
27449,3106,52749,0,0,0
27427,3087,52703,0,0,0
27397,3068,52655,0,0,0
27371,3057,52612,0,0,0
27347,3049,52577,0,0,0
27326,3039,52549,0,0,0
27314,3035,52532,0,0,0
27319,3044,52534,0,0,0
27338,3062,52552,0,0,0
27362,3084,52582,0,0,0
27388,3111,52625,0,0,0
27421,3147,52687,0,0,0
27459,3186,52760,0,0,0
27498,3222,52834,0,0,0
27540,3260,52914,0,0,0
27588,3304,52996,0,0,0
27636,3347,53072,0,0,0
27677,3380,53134,0,0,0
27712,3407,53189,0,0,0
27743,3431,53238,0,0,0
27765,3447,53274,0,0,0
27777,3456,53292,0,0,0
27783,3461,53299,0,0,0
27783,3465,53299,0,0,0
27774,3463,53288,0,0,0
27759,3455,53264,0,0,0
27746,3445,53231,0,0,0
27733,3433,53192,0,0,0
27711,3412,53144,0,0,0
27680,3380,53085,0,0,0
27647,3345,53017,0,0,0
27611,3306,52941,0,0,0
27566,3257,52851,0,0,0
27513,3197,52751,0,0,0
27458,3135,52648,0,0,0
27401,3072,52544,0,0,0
27336,3005,52431,0,0,0
27265,2933,52306,0,0,0
27192,2862,52175,0,0,0
27118,2795,52042,0,0,0
27041,2726,51908,0,0,0
26966,2659,51776,0,0,0
26899,2600,51652,0,0,0
26834,2543,51534,0,0,0
26766,2484,51415,0,0,0
26698,2427,51297,0,0,0
26637,2378,51189,0,0,0
26582,2334,51087,0,0,0
26525,2288,50982,0,0,0
26469,2240,50883,0,0,0
26418,2192,50791,0,0,0
26368,2144,50703,0,0,0
26321,2096,50616,0,0,0
26281,2054,50534,0,0,0
26250,2023,50462,0,0,0
26222,1995,50394,0,0,0
26194,1968,50327,0,0,0
26174,1943,50267,0,0,0
26156,1920,50216,0,0,0
26130,1894,50170,0,0,0
26098,1863,50123,0,0,0
26069,1835,50078,0,0,0
26045,1811,50038,0,0,0
26020,1786,50002,0,0,0
25993,1758,49964,0,0,0
25968,1735,49928,0,0,0
25947,1720,49900,0,0,0
25925,1703,49874,0,0,0
25901,1681,49840,0,0,0
25878,1661,49802,0,0,0
25860,1646,49764,0,0,0
25837,1630,49724,0,0,0
25809,1609,49681,0,0,0
25783,1589,49642,0,0,0
25760,1572,49607,0,0,0
25734,1552,49568,0,0,0
25707,1529,49526,0,0,0
25685,1505,49484,0,0,0
25664,1478,49443,0,0,0
25637,1446,49402,0,0,0
25607,1412,49359,0,0,0
25583,1386,49319,0,0,0
25564,1365,49282,0,0,0
25541,1341,49242,0,0,0
25515,1313,49202,0,0,0
25491,1289,49168,0,0,0
25464,1268,49136,0,0,0
25432,1245,49100,0,0,0
25403,1223,49062,0,0,0
25382,1208,49033,0,0,0
25366,1195,49012,0,0,0
25348,1177,48986,0,0,0
25328,1154,48955,0,0,0
25308,1134,48929,0,0,0
25287,1115,48902,0,0,0
25265,1096,48870,0,0,0
25251,1084,48839,0,0,0
25245,1078,48815,0,0,0
25238,1074,48796,0,0,0
25228,1067,48774,0,0,0
25221,1059,48750,0,0,0
25220,1053,48728,0,0,0
25215,1046,48704,0,0,0
25206,1034,48677,0,0,0
25198,1024,48650,0,0,0
25194,1019,48627,0,0,0
25185,1015,48602,0,0,0
25171,1009,48577,0,0,0
25158,1004,48560,0,0,0
25147,999,48549,0,0,0
25131,990,48534,0,0,0
25111,976,48512,0,0,0
25091,960,48490,0,0,0
25073,944,48472,0,0,0
25054,923,48451,0,0,0
25036,898,48419,0,0,0
25020,875,48383,0,0,0
25002,855,48349,0,0,0
24976,831,48315,0,0,0
24946,805,48278,0,0,0
24921,785,48244,0,0,0
24901,770,48215,0,0,0
24881,752,48183,0,0,0
24862,734,48147,0,0,0
24847,718,48116,0,0,0
24835,704,48093,0,0,0
24824,693,48075,0,0,0
24828,694,48075,0,0,0
24857,720,48111,0,0,0
24914,775,48193,0,0,0
25002,861,48337,0,0,0
25139,996,48569,0,0,0
25338,1196,48915,0,0,0
25600,1459,49376,0,0,0
25919,1773,49938,0,0,0
26292,2135,50587,0,0,0
26710,2540,51307,0,0,0
27154,2965,52063,0,0,0
27593,3380,52808,0,0,0
28011,3772,53508,0,0,0
28398,4133,54147,0,0,0
28743,4452,54710,0,0,0
29037,4724,55182,0,0,0
29285,4952,55565,0,0,0
29491,5136,55869,0,0,0
29649,5277,56098,0,0,0
29763,5375,56257,0,0,0
29845,5437,56357,0,0,0
29902,5471,56412,0,0,0
29927,5475,56421,0,0,0
29918,5452,56387,0,0,0
29886,5412,56319,0,0,0
29836,5362,56230,0,0,0
29771,5301,56123,0,0,0
29695,5228,55998,0,0,0
29612,5149,55865,0,0,0
29524,5069,55730,0,0,0
29436,4986,55591,0,0,0
29349,4906,55452,0,0,0
29273,4838,55322,0,0,0
29208,4781,55205,0,0,0
29150,4728,55099,0,0,0
29100,4682,55010,0,0,0
29061,4644,54940,0,0,0
29029,4611,54884,0,0,0
28999,4576,54836,0,0,0
28976,4545,54796,0,0,0
28965,4523,54770,0,0,0
28963,4509,54757,0,0,0
28962,4499,54756,0,0,0
28965,4499,54767,0,0,0
28980,4511,54789,0,0,0
28997,4527,54817,0,0,0
29010,4541,54838,0,0,0
29026,4554,54854,0,0,0
29046,4575,54872,0,0,0
29059,4595,54883,0,0,0
29065,4606,54882,0,0,0
29066,4610,54869,0,0,0
29057,4604,54845,0,0,0
29032,4583,54804,0,0,0
28993,4544,54744,0,0,0
28949,4499,54672,0,0,0
28906,4455,54595,0,0,0
28861,4408,54511,0,0,0
28811,4357,54424,0,0,0
28763,4309,54340,0,0,0
28721,4270,54269,0,0,0
28682,4235,54210,0,0,0
28649,4202,54161,0,0,0
28627,4180,54130,0,0,0
28617,4173,54120,0,0,0
28613,4175,54122,0,0,0
28615,4182,54131,0,0,0
28629,4194,54152,0,0,0
28655,4216,54184,0,0,0
28681,4241,54217,0,0,0
28704,4265,54246,0,0,0
28727,4286,54275,0,0,0
28746,4303,54308,0,0,0
28757,4315,54335,0,0,0
28766,4325,54356,0,0,0
28780,4337,54378,0,0,0
28795,4350,54402,0,0,0
28805,4358,54418,0,0,0
28807,4361,54422,0,0,0
28803,4362,54418,0,0,0
28792,4360,54403,0,0,0
28771,4346,54371,0,0,0
28744,4322,54322,0,0,0
28712,4289,54263,0,0,0
28669,4246,54190,0,0,0
28614,4194,54101,0,0,0
28552,4139,54000,0,0,0
28495,4084,53893,0,0,0
28437,4025,53782,0,0,0
28371,3957,53663,0,0,0
28300,3884,53539,0,0,0
28229,3815,53417,0,0,0
28156,3743,53295,0,0,0
28078,3667,53169,0,0,0
27999,3592,53041,0,0,0
27925,3523,52916,0,0,0
27850,3451,52788,0,0,0
27768,3372,52653,0,0,0
27682,3288,52515,0,0,0
27598,3208,52383,0,0,0
27516,3131,52255,0,0,0
27436,3054,52125,0,0,0
27359,2981,51994,0,0,0
27281,2914,51864,0,0,0
27198,2844,51734,0,0,0
27114,2771,51606,0,0,0
27038,2699,51487,0,0,0
26972,2634,51375,0,0,0
26908,2571,51264,0,0,0
26846,2512,51155,0,0,0
26795,2462,51053,0,0,0
26754,2422,50963,0,0,0
26714,2384,50878,0,0,0
26673,2348,50798,0,0,0
26636,2317,50729,0,0,0
26603,2291,50669,0,0,0
26572,2263,50613,0,0,0
26545,2236,50563,0,0,0
26525,2214,50520,0,0,0
26504,2193,50477,0,0,0
26478,2163,50427,0,0,0
26448,2129,50377,0,0,0
26420,2101,50334,0,0,0
26394,2079,50293,0,0,0
26367,2056,50251,0,0,0
26343,2033,50211,0,0,0
26329,2015,50180,0,0,0
26319,2002,50152,0,0,0
26302,1987,50116,0,0,0
26280,1969,50074,0,0,0
26261,1953,50035,0,0,0
26239,1937,50000,0,0,0
26208,1914,49961,0,0,0
26175,1890,49922,0,0,0
26145,1868,49886,0,0,0
26113,1840,49846,0,0,0
26078,1807,49796,0,0,0
26048,1779,49746,0,0,0
26030,1758,49704,0,0,0
26015,1742,49669,0,0,0
25997,1722,49632,0,0,0
25981,1701,49596,0,0,0
25968,1684,49567,0,0,0
25954,1668,49541,0,0,0
25934,1649,49509,0,0,0
25911,1632,49471,0,0,0
25884,1615,49429,0,0,0
25850,1591,49383,0,0,0
25812,1559,49335,0,0,0
25780,1531,49295,0,0,0
25757,1509,49265,0,0,0
25732,1482,49232,0,0,0
25705,1449,49189,0,0,0
25676,1419,49143,0,0,0
25645,1394,49101,0,0,0
25610,1365,49056,0,0,0
25571,1331,49004,0,0,0
25534,1298,48951,0,0,0
25497,1267,48902,0,0,0
25458,1232,48852,0,0,0
25423,1194,48801,0,0,0
25394,1160,48751,0,0,0
25368,1131,48703,0,0,0
25338,1101,48652,0,0,0
25304,1068,48602,0,0,0
25272,1041,48561,0,0,0
25245,1021,48525,0,0,0
25220,1004,48487,0,0,0
25195,987,48445,0,0,0
25177,973,48412,0,0,0
25163,962,48384,0,0,0
25148,949,48351,0,0,0
25133,936,48317,0,0,0
25123,930,48288,0,0,0
25111,924,48261,0,0,0
25093,910,48233,0,0,0
25076,894,48206,0,0,0
25065,884,48187,0,0,0
25057,874,48170,0,0,0
25046,858,48147,0,0,0
25036,841,48124,0,0,0
25029,831,48107,0,0,0
25023,823,48094,0,0,0
25018,817,48078,0,0,0
25018,816,48063,0,0,0
25022,820,48052,0,0,0
25023,825,48044,0,0,0
25017,829,48032,0,0,0
25011,835,48023,0,0,0
25009,843,48021,0,0,0
25006,848,48018,0,0,0
25002,843,48007,0,0,0
24998,835,47994,0,0,0
24992,827,47982,0,0,0
24980,815,47965,0,0,0
24965,799,47945,0,0,0
24953,787,47927,0,0,0
24943,778,47912,0,0,0
24928,762,47888,0,0,0
24909,741,47856,0,0,0
24890,723,47827,0,0,0
24875,711,47804,0,0,0
24855,695,47779,0,0,0
24830,675,47749,0,0,0
24806,657,47722,0,0,0
24789,644,47703,0,0,0
24775,632,47692,0,0,0
24775,632,47700,0,0,0
24801,657,47746,0,0,0
24860,714,47848,0,0,0
24955,806,48018,0,0,0
25102,949,48278,0,0,0
25318,1159,48656,0,0,0
25601,1439,49156,0,0,0
25940,1775,49763,0,0,0
26332,2157,50456,0,0,0
26768,2576,51216,0,0,0
27222,3010,52003,0,0,0
27667,3431,52767,0,0,0
28088,3824,53473,0,0,0
28472,4183,54105,0,0,0
28807,4498,54650,0,0,0
29083,4756,55098,0,0,0
29301,4959,55450,0,0,0
29469,5116,55718,0,0,0
29591,5224,55908,0,0,0
29670,5284,56021,0,0,0
29715,5307,56070,0,0,0
29729,5303,56070,0,0,0
29712,5272,56026,0,0,0
29669,5215,55942,0,0,0
29610,5140,55830,0,0,0
29539,5058,55699,0,0,0
29454,4969,55550,0,0,0
29358,4875,55389,0,0,0
29262,4783,55226,0,0,0
29165,4698,55068,0,0,0
29063,4610,54909,0,0,0
28954,4514,54747,0,0,0
28851,4417,54589,0,0,0
28756,4329,54440,0,0,0
28666,4244,54297,0,0,0
28580,4164,54163,0,0,0
28507,4100,54048,0,0,0
28450,4055,53952,0,0,0
28404,4020,53870,0,0,0
28371,3992,53800,0,0,0
28353,3974,53751,0,0,0
28349,3969,53723,0,0,0
28356,3969,53712,0,0,0
28374,3979,53722,0,0,0
28402,4001,53752,0,0,0
28431,4025,53793,0,0,0
28452,4046,53831,0,0,0
28470,4065,53866,0,0,0
28491,4088,53901,0,0,0
28511,4109,53929,0,0,0
28524,4121,53938,0,0,0
28530,4124,53930,0,0,0
28534,4125,53915,0,0,0
28530,4123,53893,0,0,0
28515,4111,53857,0,0,0
28494,4095,53814,0,0,0
28472,4082,53776,0,0,0
28448,4070,53741,0,0,0
28420,4053,53704,0,0,0
28398,4037,53671,0,0,0
28388,4027,53645,0,0,0
28382,4018,53623,0,0,0
28377,4007,53604,0,0,0
28379,4001,53595,0,0,0
28391,4006,53603,0,0,0
28407,4018,53621,0,0,0
28423,4030,53641,0,0,0
28439,4043,53667,0,0,0
28455,4062,53701,0,0,0
28468,4084,53737,0,0,0
28480,4105,53767,0,0,0
28494,4125,53796,0,0,0
28512,4144,53825,0,0,0
28526,4155,53852,0,0,0
28535,4157,53872,0,0,0
28544,4156,53889,0,0,0
28548,4152,53899,0,0,0
28541,4140,53891,0,0,0
28524,4120,53863,0,0,0
28502,4100,53825,0,0,0
28476,4078,53780,0,0,0
28440,4043,53722,0,0,0
28391,3994,53644,0,0,0
28330,3936,53549,0,0,0
28257,3867,53440,0,0,0
28175,3786,53315,0,0,0
28091,3701,53180,0,0,0
28008,3617,53040,0,0,0
27916,3530,52891,0,0,0
27810,3430,52727,0,0,0
27696,3321,52551,0,0,0
27583,3214,52376,0,0,0
27470,3107,52204,0,0,0
27352,2997,52027,0,0,0
27236,2887,51851,0,0,0
27129,2785,51679,0,0,0
27023,2684,51507,0,0,0
26919,2580,51329,0,0,0
26821,2479,51154,0,0,0
26733,2390,50993,0,0,0
26646,2307,50842,0,0,0
26558,2222,50694,0,0,0
26474,2142,50557,0,0,0
26396,2069,50433,0,0,0
26321,1996,50313,0,0,0
26246,1925,50194,0,0,0
26176,1857,50079,0,0,0
26111,1797,49976,0,0,0
26050,1742,49878,0,0,0
25994,1685,49782,0,0,0
25945,1632,49695,0,0,0
25901,1589,49621,0,0,0
25855,1552,49554,0,0,0
25809,1516,49489,0,0,0
25768,1485,49431,0,0,0
25731,1456,49381,0,0,0
25692,1422,49328,0,0,0
25652,1384,49271,0,0,0
25618,1348,49217,0,0,0
25586,1318,49168,0,0,0
25554,1289,49117,0,0,0
25521,1261,49060,0,0,0
25489,1236,49004,0,0,0
25455,1214,48952,0,0,0
25420,1191,48900,0,0,0
25387,1168,48851,0,0,0
25359,1149,48808,0,0,0
25330,1132,48768,0,0,0
25294,1106,48725,0,0,0
25255,1075,48680,0,0,0
25225,1051,48640,0,0,0
25210,1034,48605,0,0,0
25201,1018,48577,0,0,0
25192,1004,48556,0,0,0
25187,996,48545,0,0,0
25184,993,48539,0,0,0
25179,988,48531,0,0,0
25175,985,48523,0,0,0
25175,989,48515,0,0,0
25175,993,48502,0,0,0
25172,991,48484,0,0,0
25167,986,48466,0,0,0
25158,979,48452,0,0,0
25137,963,48436,0,0,0
25106,933,48409,0,0,0
25075,899,48377,0,0,0
25052,872,48351,0,0,0
25032,851,48325,0,0,0
25014,832,48295,0,0,0
25004,817,48264,0,0,0
24998,807,48237,0,0,0
24988,796,48210,0,0,0
24973,782,48181,0,0,0
24961,771,48152,0,0,0
24950,766,48125,0,0,0
24936,760,48095,0,0,0
24916,750,48060,0,0,0
24897,741,48026,0,0,0
24879,735,47997,0,0,0
24858,723,47964,0,0,0
24833,704,47928,0,0,0
24811,687,47896,0,0,0
24795,676,47872,0,0,0
24781,664,47849,0,0,0
24767,652,47827,0,0,0
24756,642,47808,0,0,0
24745,633,47791,0,0,0
24733,621,47769,0,0,0
24724,607,47748,0,0,0
24717,596,47730,0,0,0
24707,585,47713,0,0,0
24693,571,47692,0,0,0
24680,560,47674,0,0,0
24673,555,47662,0,0,0
24666,551,47651,0,0,0
24653,543,47632,0,0,0
24640,531,47610,0,0,0
24633,525,47595,0,0,0
24626,525,47586,0,0,0
24620,526,47576,0,0,0
24619,529,47564,0,0,0
24623,539,47556,0,0,0
24622,549,47549,0,0,0
24614,552,47539,0,0,0
24609,551,47528,0,0,0
24609,553,47523,0,0,0
24607,553,47517,0,0,0
24598,545,47511,0,0,0
24593,539,47511,0,0,0
24594,539,47517,0,0,0
24592,538,47521,0,0,0
24587,532,47519,0,0,0
24590,531,47518,0,0,0
24599,537,47522,0,0,0
24607,547,47523,0,0,0
24610,554,47513,0,0,0
24615,562,47498,0,0,0
24617,574,47485,0,0,0
24612,581,47471,0,0,0
24603,578,47454,0,0,0
24596,570,47439,0,0,0
24589,560,47427,0,0,0
24578,545,47415,0,0,0
24563,527,47402,0,0,0
24550,512,47393,0,0,0
24538,498,47381,0,0,0
24520,482,47361,0,0,0
24500,465,47338,0,0,0
24488,452,47321,0,0,0
24485,445,47313,0,0,0
24486,441,47312,0,0,0
24492,445,47322,0,0,0
24512,465,47359,0,0,0
24555,510,47439,0,0,0
24626,586,47571,0,0,0
24744,708,47776,0,0,0
24921,890,48081,0,0,0
25157,1131,48493,0,0,0
25445,1423,49003,0,0,0
25784,1759,49598,0,0,0
26165,2128,50259,0,0,0
26569,2511,50959,0,0,0
26972,2887,51660,0,0,0
27363,3245,52334,0,0,0
27731,3581,52961,0,0,0
28059,3880,53515,0,0,0
28332,4123,53975,0,0,0
28549,4312,54337,0,0,0
28713,4454,54608,0,0,0
28824,4554,54795,0,0,0
28891,4618,54906,0,0,0
28928,4651,54952,0,0,0
28937,4658,54949,0,0,0
28915,4639,54903,0,0,0
28865,4595,54818,0,0,0
28800,4536,54704,0,0,0
28723,4462,54568,0,0,0
28631,4371,54409,0,0,0
28528,4267,54227,0,0,0
28420,4160,54035,0,0,0
28315,4059,53846,0,0,0
28211,3959,53656,0,0,0
28107,3856,53467,0,0,0
28008,3755,53288,0,0,0
27917,3664,53124,0,0,0
27827,3581,52972,0,0,0
27741,3500,52828,0,0,0
27666,3428,52696,0,0,0
27602,3367,52580,0,0,0
27546,3314,52481,0,0,0
27500,3268,52395,0,0,0
27466,3233,52323,0,0,0
27435,3208,52266,0,0,0
27407,3188,52219,0,0,0
27390,3178,52184,0,0,0
27389,3183,52170,0,0,0
27399,3199,52174,0,0,0
27410,3217,52183,0,0,0
27421,3233,52195,0,0,0
27433,3249,52212,0,0,0
27441,3259,52224,0,0,0
27438,3256,52218,0,0,0
27424,3243,52194,0,0,0
27400,3227,52158,0,0,0
27369,3204,52110,0,0,0
27329,3171,52052,0,0,0
27292,3138,51992,0,0,0
27262,3110,51937,0,0,0
27234,3085,51888,0,0,0
27203,3059,51841,0,0,0
27178,3038,51803,0,0,0
27167,3030,51781,0,0,0
27162,3028,51770,0,0,0
27159,3029,51769,0,0,0
27168,3035,51783,0,0,0
27190,3052,51812,0,0,0
27219,3076,51850,0,0,0
27250,3104,51896,0,0,0
27286,3137,51950,0,0,0
27327,3180,52015,0,0,0
27368,3228,52090,0,0,0
27411,3276,52169,0,0,0
27460,3327,52249,0,0,0
27508,3380,52324,0,0,0
27546,3424,52388,0,0,0
27572,3452,52435,0,0,0
27593,3472,52472,0,0,0
27609,3486,52499,0,0,0
27614,3488,52505,0,0,0
27608,3478,52491,0,0,0
27597,3462,52465,0,0,0
27576,3441,52429,0,0,0
27540,3408,52376,0,0,0
27493,3363,52304,0,0,0
27445,3318,52223,0,0,0
27399,3276,52139,0,0,0
27348,3229,52049,0,0,0
27293,3181,51953,0,0,0
27237,3136,51853,0,0,0
27179,3088,51751,0,0,0
27113,3031,51641,0,0,0
27048,2971,51529,0,0,0
26990,2914,51418,0,0,0
26940,2857,51306,0,0,0
26887,2792,51188,0,0,0
26830,2725,51068,0,0,0
26771,2663,50951,0,0,0
26706,2603,50837,0,0,0
26635,2538,50724,0,0,0
26564,2474,50615,0,0,0
26501,2416,50515,0,0,0
26442,2360,50419,0,0,0
26387,2302,50321,0,0,0
26339,2248,50224,0,0,0
26295,2203,50134,0,0,0
26250,2159,50052,0,0,0
26202,2111,49972,0,0,0
26156,2066,49897,0,0,0
26114,2028,49830,0,0,0
26070,1992,49764,0,0,0
26025,1954,49699,0,0,0
25987,1921,49638,0,0,0
25956,1893,49582,0,0,0
25927,1865,49526,0,0,0
25895,1834,49470,0,0,0
25862,1806,49418,0,0,0
25831,1786,49374,0,0,0
25803,1768,49335,0,0,0
25779,1747,49295,0,0,0
25761,1729,49261,0,0,0
25745,1714,49233,0,0,0
25726,1695,49202,0,0,0
25704,1670,49166,0,0,0
25683,1643,49130,0,0,0
25659,1618,49098,0,0,0
25628,1591,49066,0,0,0
25596,1565,49032,0,0,0
25574,1546,49003,0,0,0
25558,1534,48981,0,0,0
25541,1520,48957,0,0,0
25525,1508,48932,0,0,0
25513,1503,48912,0,0,0
25499,1497,48892,0,0,0
25481,1485,48865,0,0,0
25466,1468,48836,0,0,0
25458,1453,48814,0,0,0
25453,1443,48796,0,0,0
25442,1431,48774,0,0,0
25428,1419,48749,0,0,0
25416,1411,48728,0,0,0
25402,1403,48706,0,0,0
25384,1387,48678,0,0,0
25366,1368,48645,0,0,0
25348,1348,48616,0,0,0
25325,1329,48587,0,0,0
25297,1307,48556,0,0,0
25274,1288,48524,0,0,0
25258,1272,48497,0,0,0
25243,1255,48472,0,0,0
25226,1234,48443,0,0,0
25211,1217,48414,0,0,0
25198,1204,48391,0,0,0
25186,1188,48369,0,0,0
25174,1171,48343,0,0,0
25165,1158,48319,0,0,0
25162,1155,48303,0,0,0
25160,1156,48290,0,0,0
25156,1156,48271,0,0,0
25153,1156,48252,0,0,0
25153,1159,48242,0,0,0
25150,1160,48237,0,0,0
25143,1157,48232,0,0,0
25138,1153,48227,0,0,0
25136,1152,48222,0,0,0
25132,1150,48211,0,0,0
25123,1146,48194,0,0,0
25114,1144,48178,0,0,0
25104,1143,48165,0,0,0
25086,1133,48146,0,0,0
25066,1115,48115,0,0,0
25048,1101,48081,0,0,0
25029,1087,48047,0,0,0
25008,1069,48014,0,0,0
24989,1052,47985,0,0,0
24978,1045,47968,0,0,0
24971,1044,47957,0,0,0
24960,1038,47941,0,0,0
24946,1026,47916,0,0,0
24937,1014,47893,0,0,0
24929,996,47873,0,0,0
24915,969,47845,0,0,0
24898,941,47814,0,0,0
24887,921,47791,0,0,0
24878,910,47773,0,0,0
24863,904,47755,0,0,0
24848,901,47740,0,0,0
24840,902,47736,0,0,0
24837,904,47743,0,0,0
24841,912,47765,0,0,0
24864,941,47815,0,0,0
24916,1001,47910,0,0,0
25003,1093,48059,0,0,0
25130,1220,48271,0,0,0
25309,1398,48573,0,0,0
25551,1637,48984,0,0,0
25851,1931,49495,0,0,0
26199,2266,50087,0,0,0
26590,2637,50741,0,0,0
27010,3034,51441,0,0,0
27434,3430,52151,0,0,0
27847,3810,52840,0,0,0
28235,4168,53484,0,0,0
28587,4494,54063,0,0,0
28888,4774,54554,0,0,0
29134,5003,54952,0,0,0
29332,5188,55269,0,0,0
29487,5328,55508,0,0,0
29595,5421,55669,0,0,0
29660,5472,55762,0,0,0
29695,5491,55800,0,0,0
29701,5487,55791,0,0,0
29680,5458,55736,0,0,0
29640,5410,55645,0,0,0
29585,5347,55528,0,0,0
29507,5269,55387,0,0,0
29405,5174,55223,0,0,0
29289,5066,55044,0,0,0
29173,4955,54858,0,0,0
29057,4840,54665,0,0,0
28934,4720,54466,0,0,0
28809,4601,54266,0,0,0
28692,4491,54076,0,0,0
28579,4390,53898,0,0,0
28468,4292,53727,0,0,0
28367,4201,53567,0,0,0
28285,4126,53430,0,0,0
28217,4067,53316,0,0,0
28155,4017,53220,0,0,0
28105,3976,53143,0,0,0
28067,3943,53083,0,0,0
28036,3913,53033,0,0,0
28010,3888,52989,0,0,0
27993,3872,52957,0,0,0
27981,3862,52936,0,0,0
27968,3852,52914,0,0,0
27953,3837,52885,0,0,0
27937,3821,52851,0,0,0
27918,3804,52818,0,0,0
27885,3780,52773,0,0,0
27839,3745,52710,0,0,0
27793,3706,52636,0,0,0
27747,3667,52562,0,0,0
27701,3627,52488,0,0,0
27658,3584,52411,0,0,0
27627,3546,52341,0,0,0
27603,3516,52286,0,0,0
27578,3490,52241,0,0,0
27558,3471,52207,0,0,0
27550,3467,52194,0,0,0
27554,3474,52202,0,0,0
27564,3483,52220,0,0,0
27579,3491,52244,0,0,0
27603,3504,52279,0,0,0
27631,3521,52325,0,0,0
27658,3541,52374,0,0,0
27687,3566,52425,0,0,0
27722,3598,52484,0,0,0
27755,3632,52546,0,0,0
27779,3659,52599,0,0,0
27804,3684,52646,0,0,0
27835,3711,52695,0,0,0
27864,3740,52741,0,0,0
27887,3764,52775,0,0,0
27905,3784,52797,0,0,0
27919,3802,52815,0,0,0
27927,3814,52825,0,0,0
27926,3813,52819,0,0,0
27919,3804,52798,0,0,0
27908,3790,52766,0,0,0
27888,3766,52720,0,0,0
27854,3729,52658,0,0,0
27810,3685,52583,0,0,0
27761,3640,52497,0,0,0
27702,3588,52398,0,0,0
27633,3527,52285,0,0,0
27563,3466,52167,0,0,0
27498,3409,52052,0,0,0
27431,3349,51936,0,0,0
27358,3279,51813,0,0,0
27283,3204,51685,0,0,0
27211,3132,51558,0,0,0
27135,3060,51431,0,0,0
27057,2988,51304,0,0,0
26981,2918,51181,0,0,0
26906,2849,51062,0,0,0
26830,2777,50942,0,0,0
26756,2703,50816,0,0,0
26690,2636,50693,0,0,0
26631,2577,50582,0,0,0
26569,2517,50476,0,0,0
26507,2455,50372,0,0,0
26455,2402,50279,0,0,0
26408,2357,50197,0,0,0
26356,2309,50115,0,0,0
26300,2253,50030,0,0,0
26246,2199,49950,0,0,0
26195,2151,49876,0,0,0
26145,2101,49805,0,0,0
26100,2051,49737,0,0,0
26062,2009,49675,0,0,0
26027,1971,49612,0,0,0
25990,1934,49542,0,0,0
25956,1901,49469,0,0,0
25932,1880,49407,0,0,0
25916,1868,49359,0,0,0
25898,1853,49315,0,0,0
25879,1836,49276,0,0,0
25863,1827,49245,0,0,0
25850,1823,49219,0,0,0
25835,1815,49190,0,0,0
25823,1807,49162,0,0,0
25814,1802,49138,0,0,0
25801,1793,49115,0,0,0
25783,1779,49087,0,0,0
25765,1763,49059,0,0,0
25750,1753,49038,0,0,0
25736,1743,49022,0,0,0
25716,1726,49001,0,0,0
25694,1707,48978,0,0,0
25674,1688,48956,0,0,0
25651,1664,48928,0,0,0
25622,1634,48894,0,0,0
25595,1605,48854,0,0,0
25572,1580,48815,0,0,0
25547,1555,48777,0,0,0
25518,1529,48739,0,0,0
25490,1504,48702,0,0,0
25463,1480,48666,0,0,0
25432,1453,48623,0,0,0
25400,1422,48575,0,0,0
25374,1395,48533,0,0,0
25355,1376,48501,0,0,0
25336,1360,48474,0,0,0
25316,1341,48446,0,0,0
25300,1324,48420,0,0,0
25288,1308,48398,0,0,0
25275,1291,48376,0,0,0
25262,1276,48350,0,0,0
25254,1266,48326,0,0,0
25248,1260,48306,0,0,0
25237,1249,48283,0,0,0
25224,1235,48258,0,0,0
25214,1222,48235,0,0,0
25204,1211,48212,0,0,0
25191,1197,48187,0,0,0
25181,1187,48164,0,0,0
25176,1184,48147,0,0,0
25171,1183,48135,0,0,0
25162,1177,48117,0,0,0
25149,1167,48096,0,0,0
25137,1161,48077,0,0,0
25125,1157,48060,0,0,0
25106,1149,48037,0,0,0
25086,1138,48010,0,0,0
25066,1128,47984,0,0,0
25041,1115,47957,0,0,0
25011,1096,47926,0,0,0
24982,1075,47894,0,0,0
24957,1054,47866,0,0,0
24933,1029,47838,0,0,0
24904,994,47804,0,0,0
24875,958,47769,0,0,0
24849,929,47738,0,0,0
24825,904,47708,0,0,0
24804,882,47682,0,0,0
24794,870,47666,0,0,0
24792,866,47662,0,0,0
24792,865,47660,0,0,0
24789,861,47652,0,0,0
24785,859,47641,0,0,0
24780,860,47630,0,0,0
24770,856,47617,0,0,0
24755,848,47599,0,0,0
24742,842,47584,0,0,0
24734,840,47573,0,0,0
24725,833,47560,0,0,0
24712,821,47541,0,0,0
24698,808,47521,0,0,0
24682,795,47503,0,0,0
24662,778,47481,0,0,0
24642,759,47455,0,0,0
24631,747,47434,0,0,0
24628,744,47419,0,0,0
24626,742,47405,0,0,0
24627,739,47391,0,0,0
24630,740,47385,0,0,0
24632,739,47382,0,0,0
24625,732,47378,0,0,0
24615,721,47373,0,0,0
24608,713,47370,0,0,0
24603,708,47365,0,0,0
24591,700,47355,0,0,0
24580,689,47344,0,0,0
24575,685,47338,0,0,0
24573,688,47338,0,0,0
24575,699,47343,0,0,0
24595,726,47370,0,0,0
24644,779,47444,0,0,0
24727,858,47578,0,0,0
24850,970,47776,0,0,0
25020,1130,48058,0,0,0
25242,1349,48445,0,0,0
25510,1621,48930,0,0,0
25820,1931,49492,0,0,0
26165,2270,50110,0,0,0
26536,2633,50762,0,0,0
26912,2998,51424,0,0,0
27279,3352,52071,0,0,0
27630,3683,52684,0,0,0
27958,3984,53246,0,0,0
28247,4247,53735,0,0,0
28489,4467,54136,0,0,0
28690,4647,54451,0,0,0
28845,4789,54685,0,0,0
28949,4885,54840,0,0,0
29006,4937,54926,0,0,0
29033,4958,54957,0,0,0
29036,4955,54942,0,0,0
29013,4926,54882,0,0,0
28969,4873,54788,0,0,0
28915,4807,54670,0,0,0
28851,4736,54536,0,0,0
28771,4658,54385,0,0,0
28680,4573,54219,0,0,0
28585,4484,54045,0,0,0
28487,4390,53870,0,0,0
28380,4288,53692,0,0,0
28269,4184,53510,0,0,0
28160,4084,53334,0,0,0
28055,3989,53168,0,0,0
27952,3896,53007,0,0,0
27856,3811,52856,0,0,0
27775,3737,52723,0,0,0
27707,3672,52608,0,0,0
27654,3616,52509,0,0,0
27621,3578,52435,0,0,0
27608,3569,52393,0,0,0
27608,3582,52377,0,0,0
27614,3603,52382,0,0,0
27627,3632,52404,0,0,0
27650,3667,52439,0,0,0
27680,3697,52473,0,0,0
27708,3717,52501,0,0,0
27734,3731,52522,0,0,0
27755,3742,52541,0,0,0
27763,3743,52549,0,0,0
27756,3729,52538,0,0,0
27741,3704,52511,0,0,0
27718,3672,52471,0,0,0
27683,3635,52418,0,0,0
27640,3589,52350,0,0,0
27599,3542,52279,0,0,0
27561,3501,52213,0,0,0
27524,3467,52153,0,0,0
27487,3439,52099,0,0,0
27458,3420,52055,0,0,0
27441,3408,52024,0,0,0
27427,3397,51999,0,0,0
27415,3384,51979,0,0,0
27411,3376,51969,0,0,0
27415,3377,51971,0,0,0
27416,3380,51977,0,0,0
27413,3380,51984,0,0,0
27411,3382,51993,0,0,0
27409,3386,52003,0,0,0
27404,3388,52012,0,0,0
27402,3389,52022,0,0,0
27407,3393,52037,0,0,0
27411,3399,52052,0,0,0
27406,3399,52058,0,0,0
27394,3392,52056,0,0,0
27379,3381,52046,0,0,0
27357,3363,52025,0,0,0
27324,3333,51990,0,0,0
27281,3292,51943,0,0,0
27239,3249,51889,0,0,0
27197,3203,51826,0,0,0
27151,3150,51746,0,0,0
27104,3095,51653,0,0,0
27062,3045,51558,0,0,0
27017,2999,51464,0,0,0
26962,2948,51366,0,0,0
26902,2894,51260,0,0,0
26842,2839,51151,0,0,0
26780,2781,51038,0,0,0
26712,2718,50920,0,0,0
26645,2654,50803,0,0,0
26578,2595,50689,0,0,0
26508,2534,50573,0,0,0
26436,2469,50449,0,0,0
26368,2405,50328,0,0,0
26306,2347,50218,0,0,0
26245,2293,50114,0,0,0
26185,2239,50014,0,0,0
26129,2190,49921,0,0,0
26080,2146,49841,0,0,0
26036,2104,49768,0,0,0
25994,2061,49698,0,0,0
25958,2023,49633,0,0,0
25926,1994,49571,0,0,0
25896,1969,49510,0,0,0
25873,1947,49451,0,0,0
25862,1929,49401,0,0,0
25855,1915,49358,0,0,0
25843,1896,49314,0,0,0
25824,1872,49267,0,0,0
25805,1848,49223,0,0,0
25784,1824,49180,0,0,0
25757,1797,49134,0,0,0
25728,1769,49084,0,0,0
25702,1746,49040,0,0,0
25680,1727,49003,0,0,0
25656,1703,48967,0,0,0
25630,1677,48926,0,0,0
25609,1655,48889,0,0,0
25589,1638,48857,0,0,0
25565,1620,48824,0,0,0
25542,1603,48791,0,0,0
25524,1592,48763,0,0,0
25509,1582,48740,0,0,0
25493,1569,48716,0,0,0
25483,1557,48692,0,0,0
25478,1551,48673,0,0,0
25470,1547,48660,0,0,0
25454,1534,48641,0,0,0
25433,1518,48618,0,0,0
25412,1503,48596,0,0,0
25388,1485,48573,0,0,0
25356,1460,48545,0,0,0
25325,1435,48518,0,0,0
25301,1414,48495,0,0,0
25278,1393,48467,0,0,0
25253,1367,48432,0,0,0
25229,1345,48397,0,0,0
25209,1330,48365,0,0,0
25191,1317,48336,0,0,0
25172,1303,48306,0,0,0
25154,1291,48276,0,0,0
25138,1281,48251,0,0,0
25121,1270,48228,0,0,0
25102,1255,48205,0,0,0
25087,1244,48187,0,0,0
25077,1235,48173,0,0,0
25065,1223,48157,0,0,0
25051,1207,48137,0,0,0
25041,1194,48115,0,0,0
25034,1183,48096,0,0,0
25025,1168,48074,0,0,0
25014,1151,48050,0,0,0
25006,1140,48028,0,0,0
24999,1131,48007,0,0,0
24987,1118,47983,0,0,0
24970,1100,47955,0,0,0
24952,1082,47928,0,0,0
24935,1064,47903,0,0,0
24915,1046,47880,0,0,0
24899,1033,47860,0,0,0
24889,1028,47846,0,0,0
24878,1026,47835,0,0,0
24865,1021,47820,0,0,0
24856,1017,47805,0,0,0
24852,1014,47795,0,0,0
24847,1010,47787,0,0,0
24838,1002,47777,0,0,0
24835,999,47764,0,0,0
24842,1004,47756,0,0,0
24849,1008,47751,0,0,0
24850,1006,47741,0,0,0
24851,1005,47729,0,0,0
24856,1009,47724,0,0,0
24857,1015,47720,0,0,0
24852,1017,47711,0,0,0
24847,1016,47702,0,0,0
24845,1014,47697,0,0,0
24839,1009,47690,0,0,0
24828,1000,47678,0,0,0
24816,990,47668,0,0,0
24808,984,47664,0,0,0
24803,976,47660,0,0,0
24798,967,47650,0,0,0
24795,964,47642,0,0,0
24790,964,47636,0,0,0
24779,958,47626,0,0,0
24761,944,47610,0,0,0
24747,930,47596,0,0,0
24738,923,47585,0,0,0
24727,917,47572,0,0,0
24717,910,47557,0,0,0
24715,909,47546,0,0,0
24715,912,47540,0,0,0
24712,912,47533,0,0,0
24705,906,47521,0,0,0
24699,898,47512,0,0,0
24692,891,47503,0,0,0
24682,885,47489,0,0,0
24674,880,47473,0,0,0
24673,881,47462,0,0,0
24672,881,47455,0,0,0
24663,874,47446,0,0,0
24651,860,47433,0,0,0
24640,846,47421,0,0,0
24626,830,47407,0,0,0
24606,811,47389,0,0,0
24587,791,47374,0,0,0
24574,775,47366,0,0,0
24560,762,47362,0,0,0
24539,748,47352,0,0,0
24522,740,47340,0,0,0
24516,744,47337,0,0,0
24522,758,47343,0,0,0
24540,778,47362,0,0,0
24579,812,47407,0,0,0
24645,871,47492,0,0,0
24739,961,47626,0,0,0
24862,1085,47821,0,0,0
25024,1249,48092,0,0,0
25235,1460,48449,0,0,0
25486,1709,48885,0,0,0
25767,1989,49387,0,0,0
26078,2296,49940,0,0,0
26408,2621,50526,0,0,0
26744,2948,51121,0,0,0
27071,3263,51701,0,0,0
27384,3559,52250,0,0,0
27673,3828,52749,0,0,0
27926,4059,53182,0,0,0
28135,4248,53538,0,0,0
28303,4397,53822,0,0,0
28430,4508,54034,0,0,0
28512,4577,54172,0,0,0
28550,4603,54239,0,0,0
28556,4599,54244,0,0,0
28533,4569,54195,0,0,0
28481,4515,54100,0,0,0
28404,4442,53966,0,0,0
28313,4360,53806,0,0,0
28213,4270,53627,0,0,0
28100,4170,53432,0,0,0
27980,4060,53226,0,0,0
27863,3947,53020,0,0,0
27747,3834,52817,0,0,0
27631,3720,52614,0,0,0
27518,3609,52414,0,0,0
27410,3509,52226,0,0,0
27305,3415,52050,0,0,0
27202,3321,51882,0,0,0
27106,3233,51726,0,0,0
27024,3155,51586,0,0,0
26951,3087,51458,0,0,0
26885,3023,51339,0,0,0
26830,2965,51235,0,0,0
26789,2921,51152,0,0,0
26758,2887,51089,0,0,0
26727,2856,51038,0,0,0
26705,2832,51003,0,0,0
26695,2824,50985,0,0,0
26688,2826,50976,0,0,0
26680,2831,50966,0,0,0
26678,2837,50952,0,0,0
26677,2843,50935,0,0,0
26669,2844,50914,0,0,0
26652,2833,50882,0,0,0
26630,2815,50842,0,0,0
26606,2794,50798,0,0,0
26576,2766,50746,0,0,0
26541,2733,50685,0,0,0
26506,2702,50627,0,0,0
26476,2678,50582,0,0,0
26451,2658,50546,0,0,0
26433,2639,50518,0,0,0
26425,2625,50504,0,0,0
26427,2621,50505,0,0,0
26434,2624,50518,0,0,0
26448,2634,50540,0,0,0
26475,2660,50578,0,0,0
26515,2703,50636,0,0,0
26565,2753,50703,0,0,0
26622,2807,50774,0,0,0
26681,2864,50852,0,0,0
26734,2917,50933,0,0,0
26782,2963,51008,0,0,0
26833,3006,51080,0,0,0
26890,3055,51155,0,0,0
26944,3106,51231,0,0,0
26988,3149,51296,0,0,0
27023,3181,51347,0,0,0
27054,3211,51388,0,0,0
27078,3235,51418,0,0,0
27086,3244,51430,0,0,0
27079,3238,51425,0,0,0
27066,3227,51412,0,0,0
27049,3210,51388,0,0,0
27022,3184,51347,0,0,0
26987,3152,51290,0,0,0
26949,3117,51223,0,0,0
26901,3074,51143,0,0,0
26845,3025,51050,0,0,0
26791,2976,50954,0,0,0
26741,2928,50861,0,0,0
26690,2878,50769,0,0,0
26637,2825,50674,0,0,0
26587,2774,50584,0,0,0
26543,2731,50499,0,0,0
26501,2692,50415,0,0,0
26458,2649,50325,0,0,0
26416,2607,50233,0,0,0
26377,2568,50146,0,0,0
26334,2527,50062,0,0,0
26288,2483,49978,0,0,0
26243,2443,49900,0,0,0
26202,2409,49834,0,0,0
26161,2375,49771,0,0,0
26119,2336,49706,0,0,0
26079,2300,49643,0,0,0
26040,2268,49585,0,0,0
26003,2236,49530,0,0,0
25971,2204,49478,0,0,0
25945,2176,49434,0,0,0
25920,2151,49396,0,0,0
25896,2126,49356,0,0,0
25873,2104,49312,0,0,0
25856,2086,49269,0,0,0
25840,2067,49226,0,0,0
25817,2042,49180,0,0,0
25792,2016,49135,0,0,0
25768,1991,49093,0,0,0
25742,1965,49055,0,0,0
25711,1935,49016,0,0,0
25682,1908,48977,0,0,0
25660,1889,48943,0,0,0
25642,1873,48913,0,0,0
25626,1855,48883,0,0,0
25612,1840,48854,0,0,0
25604,1832,48834,0,0,0
25598,1825,48821,0,0,0
25589,1814,48809,0,0,0
25579,1804,48797,0,0,0
25576,1801,48790,0,0,0
25573,1802,48785,0,0,0
25565,1802,48776,0,0,0
25558,1801,48765,0,0,0
25555,1803,48756,0,0,0
25551,1802,48744,0,0,0
25541,1792,48724,0,0,0
25531,1780,48704,0,0,0
25521,1768,48689,0,0,0
25504,1751,48670,0,0,0
25481,1729,48642,0,0,0
25458,1711,48614,0,0,0
25438,1698,48592,0,0,0
25417,1680,48569,0,0,0
25397,1657,48544,0,0,0
25386,1640,48524,0,0,0
25384,1633,48510,0,0,0
25382,1629,48496,0,0,0
25377,1624,48481,0,0,0
25376,1621,48472,0,0,0
25379,1622,48467,0,0,0
25378,1619,48460,0,0,0
25374,1612,48447,0,0,0
25372,1606,48437,0,0,0
25369,1605,48430,0,0,0
25362,1600,48423,0,0,0
25354,1595,48416,0,0,0
25351,1594,48412,0,0,0
25349,1595,48408,0,0,0
25343,1591,48396,0,0,0
25337,1583,48376,0,0,0
25333,1576,48355,0,0,0
25323,1568,48332,0,0,0
25305,1557,48305,0,0,0
25288,1546,48281,0,0,0
25281,1542,48263,0,0,0
25279,1540,48251,0,0,0
25276,1538,48238,0,0,0
25272,1537,48223,0,0,0
25272,1540,48212,0,0,0
25271,1542,48202,0,0,0
25263,1537,48189,0,0,0
25253,1527,48173,0,0,0
25245,1519,48159,0,0,0
25239,1510,48147,0,0,0
25227,1496,48131,0,0,0
25212,1481,48111,0,0,0
25201,1470,48094,0,0,0
25190,1461,48076,0,0,0
25179,1448,48055,0,0,0
25173,1437,48034,0,0,0
25167,1430,48017,0,0,0
25160,1423,48004,0,0,0
25150,1416,47990,0,0,0
25144,1411,47979,0,0,0
25140,1408,47971,0,0,0
25133,1400,47962,0,0,0
25123,1387,47950,0,0,0
25116,1376,47940,0,0,0
25113,1369,47932,0,0,0
25105,1362,47919,0,0,0
25091,1354,47900,0,0,0
25078,1351,47884,0,0,0
25067,1351,47871,0,0,0
25049,1347,47855,0,0,0
25028,1339,47837,0,0,0
25012,1330,47825,0,0,0
25002,1320,47821,0,0,0
24992,1309,47822,0,0,0
24987,1305,47830,0,0,0
25000,1314,47857,0,0,0
25030,1343,47908,0,0,0
25078,1390,47987,0,0,0
25157,1462,48108,0,0,0
25279,1574,48293,0,0,0
25442,1727,48556,0,0,0
25645,1922,48896,0,0,0
25895,2162,49316,0,0,0
26190,2448,49814,0,0,0
26518,2768,50376,0,0,0
26864,3106,50973,0,0,0
27220,3449,51588,0,0,0
27580,3790,52203,0,0,0
27923,4114,52792,0,0,0
28234,4408,53326,0,0,0
28509,4663,53788,0,0,0
28745,4880,54176,0,0,0
28934,5055,54485,0,0,0
29075,5181,54713,0,0,0
29172,5264,54872,0,0,0
29230,5312,54969,0,0,0
29247,5325,55003,0,0,0
29230,5302,54979,0,0,0
29189,5257,54912,0,0,0
29129,5196,54815,0,0,0
29048,5120,54689,0,0,0
28955,5032,54542,0,0,0
28863,4942,54384,0,0,0
28773,4853,54221,0,0,0
28677,4760,54049,0,0,0
28574,4661,53869,0,0,0
28472,4565,53690,0,0,0
28371,4473,53513,0,0,0
28271,4380,53336,0,0,0
28177,4285,53166,0,0,0
28093,4197,53015,0,0,0
28015,4118,52882,0,0,0
27941,4044,52761,0,0,0
27874,3972,52650,0,0,0
27819,3913,52550,0,0,0
27771,3866,52464,0,0,0
27728,3825,52387,0,0,0
27692,3790,52319,0,0,0
27664,3762,52263,0,0,0
27637,3740,52218,0,0,0
27614,3720,52183,0,0,0
27602,3709,52158,0,0,0
27602,3707,52142,0,0,0
27603,3703,52126,0,0,0
27594,3692,52100,0,0,0
27576,3677,52064,0,0,0
27553,3662,52021,0,0,0
27523,3640,51970,0,0,0
27485,3606,51909,0,0,0
27443,3569,51847,0,0,0
27407,3539,51788,0,0,0
27377,3515,51730,0,0,0
27346,3490,51672,0,0,0
27320,3469,51618,0,0,0
27299,3453,51574,0,0,0
27282,3440,51543,0,0,0
27273,3432,51521,0,0,0
27277,3434,51513,0,0,0
27293,3447,51526,0,0,0
27312,3462,51553,0,0,0
27332,3481,51588,0,0,0
27359,3509,51631,0,0,0
27390,3544,51679,0,0,0
27418,3576,51727,0,0,0
27442,3600,51772,0,0,0
27466,3618,51814,0,0,0
27487,3635,51854,0,0,0
27503,3649,51886,0,0,0
27513,3659,51910,0,0,0
27521,3671,51929,0,0,0
27526,3684,51945,0,0,0
27524,3688,51950,0,0,0
27513,3681,51942,0,0,0
27499,3670,51926,0,0,0
27480,3656,51903,0,0,0
27454,3633,51867,0,0,0
27420,3601,51817,0,0,0
27385,3566,51761,0,0,0
27345,3529,51697,0,0,0
27294,3484,51618,0,0,0
27236,3430,51523,0,0,0
27176,3373,51421,0,0,0
27112,3313,51311,0,0,0
27043,3245,51191,0,0,0
26972,3174,51069,0,0,0
26905,3105,50952,0,0,0
26834,3038,50835,0,0,0
26760,2968,50714,0,0,0
26686,2899,50594,0,0,0
26616,2835,50481,0,0,0
26547,2770,50371,0,0,0
26476,2703,50260,0,0,0
26410,2636,50152,0,0,0
26352,2574,50053,0,0,0
26297,2514,49959,0,0,0
26245,2455,49865,0,0,0
26196,2402,49776,0,0,0
26154,2360,49701,0,0,0
26116,2326,49637,0,0,0
26079,2291,49574,0,0,0
26043,2260,49512,0,0,0
26011,2233,49456,0,0,0
25978,2202,49405,0,0,0
25946,2168,49351,0,0,0
25919,2138,49298,0,0,0
25897,2117,49253,0,0,0
25873,2099,49210,0,0,0
25848,2078,49168,0,0,0
25828,2062,49128,0,0,0
25817,2055,49095,0,0,0
25804,2044,49064,0,0,0
25789,2028,49030,0,0,0
25775,2013,48998,0,0,0
25766,2001,48973,0,0,0
25758,1991,48955,0,0,0
25751,1983,48940,0,0,0
25744,1982,48925,0,0,0
25737,1981,48909,0,0,0
25728,1972,48890,0,0,0
25722,1958,48869,0,0,0
25721,1948,48852,0,0,0
25718,1940,48839,0,0,0
25710,1928,48822,0,0,0
25703,1917,48802,0,0,0
25697,1913,48784,0,0,0
25690,1910,48767,0,0,0
25677,1901,48745,0,0,0
25663,1886,48721,0,0,0
25651,1876,48704,0,0,0
25638,1868,48692,0,0,0
25618,1855,48680,0,0,0
25596,1838,48667,0,0,0
25574,1822,48653,0,0,0
25550,1803,48634,0,0,0
25522,1779,48607,0,0,0
25493,1756,48579,0,0,0
25470,1741,48560,0,0,0
25453,1728,48543,0,0,0
25436,1713,48522,0,0,0
25423,1701,48502,0,0,0
25417,1698,48489,0,0,0
25413,1698,48480,0,0,0
25410,1692,48469,0,0,0
25408,1685,48457,0,0,0
25410,1683,48449,0,0,0
25413,1684,48441,0,0,0
25412,1684,48430,0,0,0
25408,1684,48417,0,0,0
25402,1681,48405,0,0,0
25393,1672,48390,0,0,0
25382,1660,48373,0,0,0
25376,1655,48357,0,0,0
25373,1652,48343,0,0,0
25367,1644,48328,0,0,0
25360,1635,48317,0,0,0
25362,1632,48310,0,0,0
25369,1634,48302,0,0,0
25373,1632,48290,0,0,0
25375,1628,48275,0,0,0
25375,1628,48263,0,0,0
25374,1630,48253,0,0,0
25367,1629,48240,0,0,0
25356,1624,48224,0,0,0
25339,1617,48210,0,0,0
25314,1608,48196,0,0,0
25286,1593,48179,0,0,0
25260,1574,48161,0,0,0
25242,1559,48146,0,0,0
25230,1546,48127,0,0,0
25218,1531,48101,0,0,0
25207,1519,48075,0,0,0
25199,1509,48054,0,0,0
25189,1496,48034,0,0,0
25177,1481,48014,0,0,0
25165,1470,47998,0,0,0
25155,1465,47987,0,0,0
25145,1461,47975,0,0,0
25137,1456,47960,0,0,0
25135,1453,47951,0,0,0
25135,1452,47946,0,0,0
25133,1451,47942,0,0,0
25128,1446,47935,0,0,0
25125,1438,47928,0,0,0
25122,1433,47920,0,0,0
25119,1429,47911,0,0,0
25115,1426,47905,0,0,0
25114,1427,47905,0,0,0
25110,1428,47899,0,0,0
25102,1423,47885,0,0,0
25094,1415,47868,0,0,0
25088,1406,47852,0,0,0
25082,1398,47838,0,0,0
25073,1389,47823,0,0,0
25061,1377,47806,0,0,0
25047,1368,47792,0,0,0
25033,1361,47779,0,0,0
25017,1353,47764,0,0,0
25002,1342,47750,0,0,0
24988,1330,47743,0,0,0
24973,1315,47737,0,0,0
24958,1297,47730,0,0,0
24944,1281,47725,0,0,0
24932,1270,47720,0,0,0
24920,1259,47707,0,0,0
24906,1249,47689,0,0,0
24897,1245,47678,0,0,0
24899,1249,47681,0,0,0
24918,1265,47702,0,0,0
24954,1294,47746,0,0,0
25013,1342,47828,0,0,0
25102,1419,47966,0,0,0
25221,1532,48168,0,0,0
25378,1683,48440,0,0,0
25584,1877,48790,0,0,0
25837,2120,49220,0,0,0
26120,2399,49713,0,0,0
26423,2701,50249,0,0,0
26744,3020,50815,0,0,0
27073,3344,51396,0,0,0
27393,3654,51966,0,0,0
27696,3943,52501,0,0,0
27975,4206,52987,0,0,0
28227,4442,53418,0,0,0
28443,4640,53782,0,0,0
28614,4794,54068,0,0,0
28744,4906,54282,0,0,0
28839,4984,54428,0,0,0
28893,5026,54508,0,0,0
28909,5035,54525,0,0,0
28898,5021,54494,0,0,0
28864,4984,54425,0,0,0
28805,4924,54316,0,0,0
28724,4845,54170,0,0,0
28631,4755,53997,0,0,0
28531,4657,53810,0,0,0
28419,4548,53608,0,0,0
28296,4433,53396,0,0,0
28174,4318,53182,0,0,0
28054,4203,52973,0,0,0
27931,4085,52762,0,0,0
27810,3969,52557,0,0,0
27697,3863,52366,0,0,0
27594,3768,52192,0,0,0
27494,3679,52033,0,0,0
27401,3598,51889,0,0,0
27324,3530,51765,0,0,0
27265,3474,51660,0,0,0
27215,3425,51571,0,0,0
27177,3386,51497,0,0,0
27155,3363,51446,0,0,0
27145,3354,51416,0,0,0
27136,3348,51395,0,0,0
27129,3343,51380,0,0,0
27125,3343,51373,0,0,0
27120,3344,51366,0,0,0
27109,3341,51352,0,0,0
27098,3339,51335,0,0,0
27091,3335,51319,0,0,0
27080,3326,51296,0,0,0
27061,3307,51258,0,0,0
27040,3285,51212,0,0,0
27018,3265,51167,0,0,0
26993,3242,51122,0,0,0
26966,3213,51072,0,0,0
26940,3187,51025,0,0,0
26919,3168,50988,0,0,0
26898,3149,50956,0,0,0
26873,3127,50926,0,0,0
26851,3110,50903,0,0,0
26837,3101,50890,0,0,0
26829,3095,50885,0,0,0
26828,3094,50889,0,0,0
26842,3103,50902,0,0,0
26866,3123,50927,0,0,0
26893,3145,50955,0,0,0
26918,3166,50982,0,0,0
26945,3190,51014,0,0,0
26972,3216,51049,0,0,0
26992,3236,51079,0,0,0
27005,3251,51102,0,0,0
27016,3264,51123,0,0,0
27023,3274,51139,0,0,0
27020,3272,51142,0,0,0
27006,3257,51132,0,0,0
26987,3236,51117,0,0,0
26964,3212,51097,0,0,0
26936,3180,51066,0,0,0
26906,3144,51021,0,0,0
26875,3110,50967,0,0,0
26839,3077,50907,0,0,0
26793,3038,50835,0,0,0
26741,2994,50755,0,0,0
26687,2949,50673,0,0,0
26629,2902,50588,0,0,0
26567,2849,50493,0,0,0
26507,2793,50394,0,0,0
26452,2740,50299,0,0,0
26398,2686,50203,0,0,0
26337,2625,50104,0,0,0
26278,2564,50005,0,0,0
26226,2507,49911,0,0,0
26175,2453,49818,0,0,0
26119,2397,49725,0,0,0
26064,2343,49638,0,0,0
26017,2294,49559,0,0,0
25974,2250,49487,0,0,0
25929,2207,49416,0,0,0
25890,2169,49349,0,0,0
25858,2138,49288,0,0,0
25827,2107,49229,0,0,0
25796,2072,49169,0,0,0
25767,2040,49112,0,0,0
25742,2015,49061,0,0,0
25716,1991,49011,0,0,0
25692,1966,48961,0,0,0
25674,1945,48919,0,0,0
25661,1930,48887,0,0,0
25645,1915,48858,0,0,0
25625,1896,48826,0,0,0
25608,1877,48797,0,0,0
25592,1864,48773,0,0,0
25574,1849,48749,0,0,0
25557,1831,48724,0,0,0
25548,1821,48706,0,0,0
25544,1817,48691,0,0,0
25535,1814,48673,0,0,0
25524,1811,48652,0,0,0
25517,1811,48636,0,0,0
25509,1810,48621,0,0,0
25494,1799,48602,0,0,0
25477,1783,48585,0,0,0
25465,1772,48571,0,0,0
25455,1765,48558,0,0,0
25439,1751,48540,0,0,0
25416,1734,48518,0,0,0
25393,1718,48497,0,0,0
25370,1704,48477,0,0,0
25346,1684,48451,0,0,0
25326,1662,48423,0,0,0
25312,1644,48401,0,0,0
25302,1629,48385,0,0,0
25291,1615,48367,0,0,0
25282,1604,48348,0,0,0
25275,1600,48332,0,0,0
25265,1596,48313,0,0,0
25252,1590,48293,0,0,0
25245,1588,48278,0,0,0
25244,1591,48268,0,0,0
25245,1596,48259,0,0,0
25245,1599,48247,0,0,0
25244,1604,48237,0,0,0
25245,1608,48231,0,0,0
25241,1604,48223,0,0,0
25234,1593,48212,0,0,0
25225,1582,48200,0,0,0
25214,1574,48188,0,0,0
25204,1567,48173,0,0,0
25195,1557,48154,0,0,0
25188,1545,48136,0,0,0
25183,1536,48123,0,0,0
25178,1530,48113,0,0,0
25174,1526,48102,0,0,0
25176,1525,48089,0,0,0
25180,1525,48077,0,0,0
25184,1525,48063,0,0,0
25186,1526,48053,0,0,0
25188,1532,48051,0,0,0
25184,1537,48049,0,0,0
25175,1537,48042,0,0,0
25165,1535,48031,0,0,0
25154,1529,48022,0,0,0
25142,1521,48013,0,0,0
25131,1513,48005,0,0,0
25123,1508,47999,0,0,0
25121,1508,47998,0,0,0
25120,1511,47995,0,0,0
25117,1511,47988,0,0,0
25117,1512,47980,0,0,0
25122,1515,47977,0,0,0
25129,1516,47973,0,0,0
25133,1515,47965,0,0,0
25140,1519,47959,0,0,0
25151,1528,47960,0,0,0
25158,1535,47961,0,0,0
25160,1538,47960,0,0,0
25159,1542,47963,0,0,0
25154,1547,47968,0,0,0
25143,1549,47969,0,0,0
25131,1545,47964,0,0,0
25123,1537,47953,0,0,0
25121,1531,47941,0,0,0
25119,1525,47932,0,0,0
25118,1518,47925,0,0,0
25119,1513,47917,0,0,0
25124,1512,47908,0,0,0
25127,1515,47901,0,0,0
25129,1521,47899,0,0,0
25131,1530,47900,0,0,0
25132,1539,47902,0,0,0
25126,1544,47902,0,0,0
25114,1543,47903,0,0,0
25101,1538,47902,0,0,0
25087,1529,47894,0,0,0
25070,1516,47879,0,0,0
25055,1499,47862,0,0,0
25044,1484,47850,0,0,0
25035,1474,47839,0,0,0
25025,1465,47827,0,0,0
25017,1457,47813,0,0,0
25015,1453,47802,0,0,0
25013,1452,47790,0,0,0
25007,1449,47775,0,0,0
25003,1444,47762,0,0,0
25001,1440,47754,0,0,0
24995,1434,47747,0,0,0
24983,1422,47736,0,0,0
24968,1408,47723,0,0,0
24955,1395,47711,0,0,0
24941,1382,47697,0,0,0
24923,1369,47682,0,0,0
24904,1358,47668,0,0,0
24887,1349,47657,0,0,0
24870,1339,47646,0,0,0
24851,1328,47632,0,0,0
24835,1316,47619,0,0,0
24824,1310,47613,0,0,0
24819,1307,47610,0,0,0
24822,1308,47614,0,0,0
24839,1319,47629,0,0,0
24874,1350,47667,0,0,0
24926,1399,47736,0,0,0
25001,1468,47844,0,0,0
25110,1568,48007,0,0,0
25254,1707,48236,0,0,0
25431,1881,48530,0,0,0
25639,2086,48888,0,0,0
25881,2328,49310,0,0,0
26153,2600,49788,0,0,0
26444,2883,50299,0,0,0
26743,3165,50821,0,0,0
27042,3445,51343,0,0,0
27333,3721,51852,0,0,0
27603,3979,52328,0,0,0
27844,4206,52753,0,0,0
28056,4401,53122,0,0,0
28236,4565,53434,0,0,0
28375,4689,53675,0,0,0
28468,4768,53839,0,0,0
28524,4812,53937,0,0,0
28546,4826,53980,0,0,0
28536,4813,53966,0,0,0
28498,4773,53901,0,0,0
28441,4717,53795,0,0,0
28366,4647,53657,0,0,0
28273,4563,53491,0,0,0
28169,4468,53304,0,0,0
28061,4365,53109,0,0,0
27946,4257,52907,0,0,0
27823,4141,52698,0,0,0
27697,4024,52484,0,0,0
27574,3910,52273,0,0,0
27456,3800,52068,0,0,0
27342,3689,51869,0,0,0
27238,3582,51682,0,0,0
27145,3488,51513,0,0,0
27059,3403,51358,0,0,0
26977,3321,51212,0,0,0
26904,3246,51080,0,0,0
26843,3183,50968,0,0,0
26790,3130,50874,0,0,0
26744,3085,50795,0,0,0
26712,3055,50734,0,0,0
26694,3042,50694,0,0,0
26685,3041,50666,0,0,0
26676,3040,50640,0,0,0
26669,3040,50621,0,0,0
26666,3045,50610,0,0,0
26661,3049,50597,0,0,0
26649,3046,50575,0,0,0
26632,3036,50546,0,0,0
26614,3021,50516,0,0,0
26591,3002,50485,0,0,0
26565,2977,50450,0,0,0
26541,2953,50414,0,0,0
26523,2934,50385,0,0,0
26509,2918,50361,0,0,0
26498,2907,50341,0,0,0
26497,2910,50333,0,0,0
26508,2925,50338,0,0,0
26523,2943,50349,0,0,0
26538,2961,50363,0,0,0
26557,2982,50385,0,0,0
26580,3007,50416,0,0,0
26605,3028,50448,0,0,0
26631,3046,50479,0,0,0
26660,3066,50517,0,0,0
26688,3092,50563,0,0,0
26711,3120,50612,0,0,0
26734,3150,50661,0,0,0
26763,3186,50715,0,0,0
26795,3225,50772,0,0,0
26824,3257,50822,0,0,0
26848,3280,50863,0,0,0
26868,3296,50897,0,0,0
26883,3305,50921,0,0,0
26888,3305,50929,0,0,0
26880,3297,50921,0,0,0
26864,3282,50899,0,0,0
26834,3253,50862,0,0,0
26791,3209,50808,0,0,0
26741,3155,50736,0,0,0
26689,3097,50656,0,0,0
26632,3040,50566,0,0,0
26568,2982,50469,0,0,0
26502,2921,50373,0,0,0
26441,2861,50281,0,0,0
26383,2803,50188,0,0,0
26326,2744,50093,0,0,0
26278,2688,50000,0,0,0
26241,2644,49915,0,0,0
26208,2608,49836,0,0,0
26173,2574,49760,0,0,0
26141,2542,49689,0,0,0
26111,2519,49626,0,0,0
26076,2497,49567,0,0,0
26037,2470,49507,0,0,0
26003,2442,49452,0,0,0
25973,2415,49401,0,0,0
25941,2385,49347,0,0,0
25907,2351,49287,0,0,0
25878,2320,49228,0,0,0
25851,2292,49176,0,0,0
25819,2259,49125,0,0,0
25786,2225,49071,0,0,0
25759,2195,49024,0,0,0
25737,2173,48985,0,0,0
25716,2154,48947,0,0,0
25693,2135,48910,0,0,0
25673,2119,48876,0,0,0
25654,2104,48846,0,0,0
25634,2086,48817,0,0,0
25617,2066,48786,0,0,0
25606,2051,48757,0,0,0
25597,2039,48730,0,0,0
25582,2025,48701,0,0,0
25563,2011,48672,0,0,0
25546,2002,48652,0,0,0
25532,1996,48637,0,0,0
25518,1989,48616,0,0,0
25507,1979,48590,0,0,0
25501,1976,48569,0,0,0
25495,1972,48553,0,0,0
25482,1960,48533,0,0,0
25466,1944,48510,0,0,0
25452,1928,48491,0,0,0
25434,1909,48470,0,0,0
25412,1888,48444,0,0,0
25393,1871,48420,0,0,0
25381,1860,48404,0,0,0
25369,1849,48390,0,0,0
25353,1833,48371,0,0,0
25336,1818,48353,0,0,0
25325,1810,48343,0,0,0
25316,1808,48333,0,0,0
25308,1805,48320,0,0,0
25304,1802,48311,0,0,0
25303,1798,48306,0,0,0
25299,1791,48297,0,0,0
25294,1780,48279,0,0,0
25292,1772,48263,0,0,0
25292,1769,48251,0,0,0
25284,1760,48235,0,0,0
25266,1742,48214,0,0,0
25248,1720,48191,0,0,0
25231,1700,48166,0,0,0
25207,1678,48135,0,0,0
25178,1652,48101,0,0,0
25156,1631,48073,0,0,0
25140,1618,48057,0,0,0
25126,1605,48045,0,0,0
25112,1593,48031,0,0,0
25101,1587,48021,0,0,0
25090,1586,48016,0,0,0
25077,1585,48009,0,0,0
25068,1584,47999,0,0,0
25067,1587,47993,0,0,0
25070,1591,47990,0,0,0
25068,1589,47984,0,0,0
25060,1581,47975,0,0,0
25051,1575,47966,0,0,0
25045,1572,47957,0,0,0
25041,1567,47946,0,0,0
25043,1565,47938,0,0,0
25052,1572,47936,0,0,0
25061,1581,47937,0,0,0
25064,1585,47930,0,0,0
25066,1585,47920,0,0,0
25067,1586,47913,0,0,0
25061,1577,47904,0,0,0
25044,1558,47891,0,0,0
25028,1541,47877,0,0,0
25017,1529,47866,0,0,0
25004,1520,47857,0,0,0
24984,1510,47845,0,0,0
24965,1501,47837,0,0,0
24952,1496,47835,0,0,0
24944,1490,47835,0,0,0
24937,1484,47833,0,0,0
24932,1476,47830,0,0,0
24925,1467,47820,0,0,0
24913,1457,47806,0,0,0
24900,1446,47795,0,0,0
24892,1438,47786,0,0,0
24888,1433,47776,0,0,0
24884,1427,47763,0,0,0
24880,1421,47750,0,0,0
24878,1417,47739,0,0,0
24873,1410,47726,0,0,0
24862,1395,47709,0,0,0
24851,1378,47694,0,0,0
24843,1367,47687,0,0,0
24838,1363,47685,0,0,0
24834,1364,47688,0,0,0
24835,1371,47700,0,0,0
24853,1393,47735,0,0,0
24892,1434,47799,0,0,0
24951,1495,47896,0,0,0
25038,1581,48035,0,0,0
25160,1697,48229,0,0,0
25316,1845,48478,0,0,0
25499,2024,48781,0,0,0
25712,2233,49141,0,0,0
25954,2473,49558,0,0,0
26215,2732,50015,0,0,0
26480,2995,50491,0,0,0
26744,3253,50967,0,0,0
27007,3504,51431,0,0,0
27257,3739,51867,0,0,0
27479,3944,52258,0,0,0
27672,4120,52597,0,0,0
27836,4272,52885,0,0,0
27965,4395,53117,0,0,0
28054,4482,53283,0,0,0
28109,4531,53386,0,0,0
28138,4551,53435,0,0,0
28141,4545,53433,0,0,0
28124,4518,53386,0,0,0
28095,4481,53305,0,0,0
28050,4434,53196,0,0,0
27981,4372,53060,0,0,0
27894,4295,52899,0,0,0
27800,4213,52729,0,0,0
27701,4127,52556,0,0,0
27594,4033,52375,0,0,0
27482,3930,52187,0,0,0
27374,3828,52003,0,0,0
27272,3727,51824,0,0,0
27172,3625,51646,0,0,0
27068,3523,51469,0,0,0
26968,3427,51299,0,0,0
26876,3342,51143,0,0,0
26792,3266,51002,0,0,0
26723,3200,50878,0,0,0
26672,3149,50778,0,0,0
26631,3106,50696,0,0,0
26594,3067,50625,0,0,0
26565,3034,50567,0,0,0
26548,3013,50526,0,0,0
26539,3002,50498,0,0,0
26531,2993,50475,0,0,0
26528,2985,50448,0,0,0
26527,2983,50422,0,0,0
26522,2983,50396,0,0,0
26508,2974,50362,0,0,0
26490,2960,50327,0,0,0
26474,2946,50295,0,0,0
26457,2932,50265,0,0,0
26438,2913,50233,0,0,0
26425,2895,50201,0,0,0
26419,2884,50174,0,0,0
26411,2875,50151,0,0,0
26398,2862,50128,0,0,0
26388,2851,50110,0,0,0
26384,2846,50101,0,0,0
26382,2844,50096,0,0,0
26380,2841,50093,0,0,0
26384,2843,50097,0,0,0
26395,2854,50113,0,0,0
26407,2869,50135,0,0,0
26414,2881,50159,0,0,0
26425,2896,50183,0,0,0
26440,2915,50213,0,0,0
26455,2933,50242,0,0,0
26470,2950,50266,0,0,0
26490,2969,50288,0,0,0
26512,2991,50311,0,0,0
26526,3008,50330,0,0,0
26531,3017,50341,0,0,0
26535,3020,50347,0,0,0
26535,3019,50346,0,0,0
26523,3008,50334,0,0,0
26504,2988,50310,0,0,0
26484,2965,50279,0,0,0
26463,2944,50246,0,0,0
26432,2917,50204,0,0,0
26392,2881,50149,0,0,0
26352,2843,50090,0,0,0
26313,2807,50030,0,0,0
26272,2768,49965,0,0,0
26229,2722,49896,0,0,0
26186,2676,49829,0,0,0
26143,2632,49761,0,0,0
26097,2586,49688,0,0,0
26050,2540,49613,0,0,0
26008,2498,49540,0,0,0
25967,2456,49464,0,0,0
25922,2409,49383,0,0,0
25877,2360,49301,0,0,0
25835,2318,49229,0,0,0
25793,2279,49164,0,0,0
25746,2236,49098,0,0,0
25701,2194,49036,0,0,0
25660,2159,48981,0,0,0
25621,2125,48931,0,0,0
25582,2089,48881,0,0,0
25547,2055,48833,0,0,0
25519,2028,48791,0,0,0
25493,2005,48754,0,0,0
25467,1978,48717,0,0,0
25447,1951,48684,0,0,0
25436,1931,48657,0,0,0
25425,1916,48627,0,0,0
25410,1900,48593,0,0,0
25397,1889,48564,0,0,0
25388,1885,48545,0,0,0
25377,1882,48531,0,0,0
25363,1874,48515,0,0,0
25351,1864,48499,0,0,0
25340,1858,48485,0,0,0
25326,1853,48465,0,0,0
25311,1844,48436,0,0,0
25300,1836,48409,0,0,0
25292,1832,48388,0,0,0
25283,1828,48365,0,0,0
25275,1821,48342,0,0,0
25270,1815,48323,0,0,0
25265,1810,48308,0,0,0
25256,1803,48292,0,0,0
25246,1794,48276,0,0,0
25240,1791,48266,0,0,0
25237,1791,48258,0,0,0
25234,1789,48249,0,0,0
25232,1783,48241,0,0,0
25236,1781,48238,0,0,0
25241,1781,48235,0,0,0
25244,1777,48227,0,0,0
25248,1773,48220,0,0,0
25257,1775,48219,0,0,0
25263,1777,48217,0,0,0
25263,1775,48210,0,0,0
25263,1771,48200,0,0,0
25270,1776,48196,0,0,0
25278,1786,48195,0,0,0
25275,1791,48189,0,0,0
25267,1791,48178,0,0,0
25261,1792,48172,0,0,0
25255,1790,48169,0,0,0
25248,1784,48165,0,0,0
25241,1781,48158,0,0,0
25237,1785,48152,0,0,0
25233,1790,48145,0,0,0
25230,1795,48139,0,0,0
25231,1800,48140,0,0,0
25236,1804,48142,0,0,0
25240,1800,48140,0,0,0
25243,1793,48134,0,0,0
25246,1789,48129,0,0,0
25249,1790,48127,0,0,0
25251,1792,48123,0,0,0
25252,1794,48117,0,0,0
25254,1801,48113,0,0,0
25256,1813,48113,0,0,0
25255,1826,48114,0,0,0
25253,1835,48115,0,0,0
25255,1844,48118,0,0,0
25257,1849,48119,0,0,0
25254,1847,48113,0,0,0
25246,1840,48105,0,0,0
25239,1836,48101,0,0,0
25236,1836,48100,0,0,0
25235,1835,48097,0,0,0
25233,1832,48092,0,0,0
25233,1830,48087,0,0,0
25234,1826,48081,0,0,0
25229,1819,48072,0,0,0
25226,1809,48059,0,0,0
25228,1803,48048,0,0,0
25234,1799,48037,0,0,0
25235,1792,48023,0,0,0
25231,1785,48010,0,0,0
25226,1778,48002,0,0,0
25217,1773,47997,0,0,0
25207,1766,47994,0,0,0
25202,1761,47995,0,0,0
25204,1761,48000,0,0,0
25208,1760,48004,0,0,0
25207,1753,48000,0,0,0
25208,1744,47991,0,0,0
25214,1741,47983,0,0,0
25217,1738,47974,0,0,0
25213,1735,47962,0,0,0
25208,1735,47953,0,0,0
25204,1738,47952,0,0,0
25200,1739,47950,0,0,0
25191,1736,47941,0,0,0
25180,1730,47929,0,0,0
25169,1723,47920,0,0,0
25155,1710,47910,0,0,0
25138,1692,47894,0,0,0
25121,1673,47878,0,0,0
25106,1660,47866,0,0,0
25090,1648,47852,0,0,0
25072,1636,47837,0,0,0
25055,1626,47825,0,0,0
25042,1619,47814,0,0,0
25031,1613,47803,0,0,0
25024,1608,47798,0,0,0
25023,1606,47797,0,0,0
25024,1611,47799,0,0,0
25025,1617,47804,0,0,0
25037,1628,47822,0,0,0
25071,1662,47873,0,0,0
25130,1726,47972,0,0,0
25220,1814,48122,0,0,0
25344,1931,48324,0,0,0
25506,2084,48590,0,0,0
25700,2271,48920,0,0,0
25919,2488,49304,0,0,0
26160,2730,49734,0,0,0
26419,2988,50199,0,0,0
26679,3246,50676,0,0,0
26930,3490,51139,0,0,0
27167,3716,51576,0,0,0
27387,3927,51983,0,0,0
27583,4113,52351,0,0,0
27747,4267,52665,0,0,0
27878,4391,52922,0,0,0
27985,4487,53124,0,0,0
28063,4553,53266,0,0,0
28109,4586,53346,0,0,0
28129,4591,53371,0,0,0
28131,4579,53354,0,0,0
28111,4548,53298,0,0,0
28071,4499,53207,0,0,0
28018,4438,53093,0,0,0
27952,4371,52960,0,0,0
27868,4290,52804,0,0,0
27768,4196,52625,0,0,0
27663,4093,52434,0,0,0
27555,3989,52239,0,0,0
27440,3882,52039,0,0,0
27319,3768,51833,0,0,0
27204,3655,51631,0,0,0
27098,3552,51442,0,0,0
26996,3456,51266,0,0,0
26902,3367,51102,0,0,0
26822,3290,50955,0,0,0
26751,3220,50824,0,0,0
26684,3155,50703,0,0,0
26620,3096,50594,0,0,0
26567,3052,50507,0,0,0
26528,3022,50444,0,0,0
26495,3000,50393,0,0,0
26470,2984,50348,0,0,0
26457,2975,50317,0,0,0
26452,2971,50297,0,0,0
26444,2965,50279,0,0,0
26434,2959,50260,0,0,0
26425,2953,50241,0,0,0
26412,2941,50218,0,0,0
26390,2914,50185,0,0,0
26362,2880,50147,0,0,0
26337,2851,50109,0,0,0
26313,2827,50073,0,0,0
26286,2801,50035,0,0,0
26261,2776,49998,0,0,0
26243,2758,49969,0,0,0
26227,2746,49944,0,0,0
26213,2738,49923,0,0,0
26207,2738,49912,0,0,0
26211,2748,49916,0,0,0
26222,2761,49930,0,0,0
26235,2773,49948,0,0,0
26252,2791,49970,0,0,0
26276,2820,50001,0,0,0
26301,2850,50037,0,0,0
26322,2875,50068,0,0,0
26342,2893,50094,0,0,0
26360,2904,50118,0,0,0
26367,2904,50132,0,0,0
26362,2895,50135,0,0,0
26354,2886,50133,0,0,0
26347,2881,50130,0,0,0
26335,2873,50119,0,0,0
26317,2858,50101,0,0,0
26305,2845,50082,0,0,0
26297,2838,50066,0,0,0
26283,2827,50045,0,0,0
26263,2810,50018,0,0,0
26247,2795,49988,0,0,0
26235,2785,49956,0,0,0
26219,2768,49916,0,0,0
26199,2746,49870,0,0,0
26184,2725,49825,0,0,0
26172,2706,49785,0,0,0
26154,2685,49741,0,0,0
26132,2661,49691,0,0,0
26113,2639,49641,0,0,0
26095,2619,49593,0,0,0
26076,2599,49541,0,0,0
26057,2578,49487,0,0,0
26035,2558,49436,0,0,0
26006,2533,49386,0,0,0
25967,2500,49333,0,0,0
25929,2464,49278,0,0,0
25898,2431,49228,0,0,0
25869,2403,49181,0,0,0
25836,2370,49127,0,0,0
25803,2334,49071,0,0,0
25778,2305,49017,0,0,0
25757,2280,48965,0,0,0
25734,2257,48913,0,0,0
25713,2236,48866,0,0,0
25696,2220,48830,0,0,0
25676,2205,48803,0,0,0
25653,2189,48777,0,0,0
25631,2174,48756,0,0,0
25613,2166,48740,0,0,0
25597,2155,48723,0,0,0
25579,2138,48698,0,0,0
25560,2117,48670,0,0,0
25544,2099,48644,0,0,0
25525,2079,48616,0,0,0
25504,2054,48584,0,0,0
25485,2031,48553,0,0,0
25472,2016,48528,0,0,0
25456,2001,48504,0,0,0
25438,1982,48476,0,0,0
25423,1969,48451,0,0,0
25412,1962,48433,0,0,0
25398,1955,48414,0,0,0
25383,1945,48393,0,0,0
25372,1938,48378,0,0,0
25366,1935,48369,0,0,0
25357,1927,48358,0,0,0
25346,1915,48343,0,0,0
25337,1904,48328,0,0,0
25327,1895,48314,0,0,0
25313,1887,48301,0,0,0
25299,1878,48291,0,0,0
25291,1872,48284,0,0,0
25283,1868,48274,0,0,0
25272,1859,48258,0,0,0
25262,1848,48242,0,0,0
25255,1842,48232,0,0,0
25250,1839,48228,0,0,0
25241,1834,48220,0,0,0
25233,1826,48208,0,0,0
25230,1821,48199,0,0,0
25228,1817,48193,0,0,0
25221,1809,48181,0,0,0
25214,1799,48168,0,0,0
25213,1790,48163,0,0,0
25212,1783,48159,0,0,0
25209,1775,48153,0,0,0
25207,1769,48148,0,0,0
25207,1766,48148,0,0,0
25204,1759,48144,0,0,0
25196,1749,48133,0,0,0
25189,1740,48122,0,0,0
25186,1736,48116,0,0,0
25179,1735,48110,0,0,0
25168,1734,48099,0,0,0
25157,1736,48088,0,0,0
25150,1743,48083,0,0,0
25142,1746,48079,0,0,0
25133,1743,48067,0,0,0
25127,1738,48052,0,0,0
25122,1734,48041,0,0,0
25115,1726,48030,0,0,0
25105,1711,48017,0,0,0
25099,1699,48007,0,0,0
25095,1693,48004,0,0,0
25090,1686,48001,0,0,0
25086,1678,47995,0,0,0
25090,1678,47994,0,0,0
25098,1686,47998,0,0,0
25102,1694,48000,0,0,0
25107,1703,48000,0,0,0
25117,1716,48005,0,0,0
25125,1728,48013,0,0,0
25125,1734,48012,0,0,0
25120,1732,48002,0,0,0
25114,1730,47993,0,0,0
25109,1727,47985,0,0,0
25102,1719,47972,0,0,0
25095,1710,47958,0,0,0
25093,1703,47951,0,0,0
25090,1696,47948,0,0,0
25082,1682,47941,0,0,0
25072,1664,47932,0,0,0
25065,1649,47926,0,0,0
25058,1637,47919,0,0,0
25050,1626,47908,0,0,0
25048,1621,47899,0,0,0
25053,1625,47902,0,0,0
25056,1631,47909,0,0,0
25052,1630,47908,0,0,0
25047,1628,47902,0,0,0
25044,1629,47899,0,0,0
25038,1627,47899,0,0,0
25031,1622,47893,0,0,0
25030,1620,47886,0,0,0
25033,1624,47882,0,0,0
25033,1627,47880,0,0,0
25031,1627,47878,0,0,0
25034,1630,47877,0,0,0
25039,1635,47880,0,0,0
25041,1637,47879,0,0,0
25044,1641,47876,0,0,0
25055,1657,47880,0,0,0
25070,1683,47892,0,0,0
25088,1712,47910,0,0,0
25109,1740,47934,0,0,0
25140,1773,47975,0,0,0
25183,1815,48032,0,0,0
25234,1862,48104,0,0,0
25295,1917,48198,0,0,0
25377,1996,48329,0,0,0
25484,2103,48508,0,0,0
25613,2234,48734,0,0,0
25769,2386,49006,0,0,0
25951,2565,49327,0,0,0
26152,2765,49689,0,0,0
26360,2973,50074,0,0,0
26571,3182,50464,0,0,0
26783,3388,50846,0,0,0
26987,3582,51208,0,0,0
27170,3754,51537,0,0,0
27331,3904,51830,0,0,0
27466,4033,52083,0,0,0
27571,4137,52290,0,0,0
27642,4208,52440,0,0,0
27686,4249,52533,0,0,0
27710,4271,52579,0,0,0
27712,4273,52577,0,0,0
27683,4245,52529,0,0,0
27631,4194,52442,0,0,0
27564,4127,52326,0,0,0
27483,4049,52184,0,0,0
27391,3958,52019,0,0,0
27295,3858,51841,0,0,0
27200,3756,51659,0,0,0
27101,3653,51474,0,0,0
27001,3550,51287,0,0,0
26908,3453,51108,0,0,0
26824,3367,50941,0,0,0
26739,3285,50784,0,0,0
26653,3206,50634,0,0,0
26577,3134,50499,0,0,0
26514,3073,50381,0,0,0
26457,3018,50276,0,0,0
26402,2963,50178,0,0,0
26355,2920,50096,0,0,0
26320,2890,50033,0,0,0
26289,2866,49981,0,0,0
26263,2844,49937,0,0,0
26243,2829,49904,0,0,0
26227,2818,49879,0,0,0
26216,2805,49855,0,0,0
26210,2792,49832,0,0,0
26210,2787,49815,0,0,0
26212,2787,49803,0,0,0
26209,2784,49788,0,0,0
26202,2776,49770,0,0,0
26199,2770,49757,0,0,0
26195,2768,49750,0,0,0
26189,2767,49741,0,0,0
26187,2767,49731,0,0,0
26195,2772,49729,0,0,0
26209,2783,49737,0,0,0
26225,2797,49749,0,0,0
26247,2815,49766,0,0,0
26275,2842,49796,0,0,0
26303,2871,49835,0,0,0
26326,2894,49873,0,0,0
26350,2917,49908,0,0,0
26380,2944,49947,0,0,0
26409,2973,49988,0,0,0
26434,2999,50024,0,0,0
26460,3023,50057,0,0,0
26489,3049,50089,0,0,0
26514,3068,50117,0,0,0
26531,3075,50137,0,0,0
26543,3077,50153,0,0,0
26555,3081,50167,0,0,0
26559,3085,50177,0,0,0
26554,3085,50180,0,0,0
26545,3082,50180,0,0,0
26537,3078,50179,0,0,0
26526,3071,50174,0,0,0
26508,3055,50156,0,0,0
26486,3032,50128,0,0,0
26463,3006,50094,0,0,0
26435,2977,50055,0,0,0
26401,2943,50006,0,0,0
26367,2909,49954,0,0,0
26332,2872,49901,0,0,0
26291,2830,49842,0,0,0
26246,2787,49779,0,0,0
26206,2749,49717,0,0,0
26171,2716,49656,0,0,0
26135,2685,49589,0,0,0
26099,2658,49522,0,0,0
26072,2641,49465,0,0,0
26053,2628,49419,0,0,0
26036,2612,49376,0,0,0
26021,2594,49332,0,0,0
26009,2579,49292,0,0,0
25995,2563,49258,0,0,0
25975,2543,49224,0,0,0
25951,2522,49188,0,0,0
25930,2505,49156,0,0,0
25908,2488,49125,0,0,0
25883,2465,49088,0,0,0
25860,2440,49049,0,0,0
25841,2421,49014,0,0,0
25817,2404,48979,0,0,0
25785,2384,48941,0,0,0
25756,2367,48907,0,0,0
25739,2359,48882,0,0,0
25728,2351,48859,0,0,0
25718,2338,48828,0,0,0
25711,2323,48796,0,0,0
25707,2314,48774,0,0,0
25702,2307,48758,0,0,0
25695,2295,48742,0,0,0
25691,2285,48729,0,0,0
25688,2282,48720,0,0,0
25684,2276,48709,0,0,0
25676,2262,48693,0,0,0
25668,2249,48678,0,0,0
25658,2241,48667,0,0,0
25643,2230,48649,0,0,0
25625,2215,48623,0,0,0
25613,2203,48601,0,0,0
25605,2197,48587,0,0,0
25595,2189,48576,0,0,0
25582,2177,48560,0,0,0
25575,2166,48545,0,0,0
25573,2159,48536,0,0,0
25569,2157,48527,0,0,0
25564,2157,48519,0,0,0
25561,2163,48518,0,0,0
25555,2169,48517,0,0,0
25543,2170,48511,0,0,0
25534,2169,48506,0,0,0
25533,2172,48505,0,0,0
25534,2174,48505,0,0,0
25531,2170,48500,0,0,0
25526,2162,48491,0,0,0
25523,2155,48484,0,0,0
25522,2147,48476,0,0,0
25521,2134,48466,0,0,0
25523,2126,48460,0,0,0
25528,2126,48461,0,0,0
25531,2130,48462,0,0,0
25528,2131,48459,0,0,0
25523,2132,48456,0,0,0
25521,2135,48454,0,0,0
25516,2135,48450,0,0,0
25509,2136,48445,0,0,0
25500,2137,48442,0,0,0
25493,2138,48442,0,0,0
25487,2135,48439,0,0,0
25479,2123,48430,0,0,0
25474,2108,48420,0,0,0
25473,2096,48414,0,0,0
25476,2088,48411,0,0,0
25480,2083,48412,0,0,0
25488,2082,48417,0,0,0
25499,2086,48423,0,0,0
25506,2091,48423,0,0,0
25511,2094,48424,0,0,0
25517,2101,48430,0,0,0
25526,2112,48434,0,0,0
25534,2125,48432,0,0,0
25538,2135,48429,0,0,0
25539,2144,48426,0,0,0
25538,2149,48422,0,0,0
25532,2148,48415,0,0,0
25523,2144,48409,0,0,0
25514,2139,48404,0,0,0
25501,2133,48395,0,0,0
25485,2124,48382,0,0,0
25471,2112,48369,0,0,0
25461,2101,48361,0,0,0
25455,2095,48353,0,0,0
25448,2091,48343,0,0,0
25443,2089,48336,0,0,0
25443,2087,48336,0,0,0
25446,2089,48344,0,0,0
25456,2098,48361,0,0,0
25480,2121,48401,0,0,0
25525,2164,48472,0,0,0
25595,2230,48577,0,0,0
25697,2318,48725,0,0,0
25831,2434,48924,0,0,0
25993,2582,49178,0,0,0
26176,2757,49481,0,0,0
26378,2952,49830,0,0,0
26599,3164,50218,0,0,0
26835,3390,50632,0,0,0
27074,3621,51049,0,0,0
27303,3844,51452,0,0,0
27516,4055,51830,0,0,0
27711,4251,52180,0,0,0
27883,4424,52491,0,0,0
28028,4567,52757,0,0,0
28145,4682,52978,0,0,0
28234,4770,53149,0,0,0
28290,4827,53266,0,0,0
28321,4855,53336,0,0,0
28334,4863,53363,0,0,0
28330,4855,53349,0,0,0
28305,4830,53295,0,0,0
28261,4784,53204,0,0,0
28202,4726,53086,0,0,0
28131,4658,52949,0,0,0
28051,4578,52796,0,0,0
27965,4488,52629,0,0,0
27876,4397,52459,0,0,0
27785,4308,52289,0,0,0
27689,4217,52119,0,0,0
27593,4123,51954,0,0,0
27502,4034,51800,0,0,0
27417,3950,51654,0,0,0
27337,3872,51513,0,0,0
27266,3802,51386,0,0,0
27209,3745,51277,0,0,0
27163,3699,51185,0,0,0
27125,3661,51107,0,0,0
27097,3632,51045,0,0,0
27078,3613,50998,0,0,0
27067,3599,50960,0,0,0
27060,3589,50926,0,0,0
27056,3584,50900,0,0,0
27052,3584,50882,0,0,0
27043,3581,50864,0,0,0
27028,3570,50838,0,0,0
27013,3554,50806,0,0,0
26999,3535,50769,0,0,0
26979,3511,50725,0,0,0
26951,3483,50675,0,0,0
26924,3455,50624,0,0,0
26901,3428,50571,0,0,0
26879,3403,50517,0,0,0
26857,3380,50466,0,0,0
26837,3359,50426,0,0,0
26821,3344,50398,0,0,0
26808,3334,50380,0,0,0
26797,3328,50369,0,0,0
26790,3328,50366,0,0,0
26785,3331,50364,0,0,0
26779,3332,50362,0,0,0
26772,3329,50365,0,0,0
26770,3329,50377,0,0,0
26773,3333,50394,0,0,0
26778,3338,50410,0,0,0
26784,3345,50428,0,0,0
26792,3356,50448,0,0,0
26801,3369,50470,0,0,0
26809,3380,50489,0,0,0
26818,3389,50505,0,0,0
26828,3395,50514,0,0,0
26833,3399,50513,0,0,0
26827,3399,50503,0,0,0
26811,3396,50489,0,0,0
26794,3391,50474,0,0,0
26776,3382,50451,0,0,0
26753,3364,50419,0,0,0
26727,3341,50382,0,0,0
26703,3320,50343,0,0,0
26679,3302,50301,0,0,0
26654,3280,50253,0,0,0
26626,3250,50200,0,0,0
26596,3216,50143,0,0,0
26565,3180,50084,0,0,0
26533,3142,50023,0,0,0
26503,3107,49967,0,0,0
26475,3078,49916,0,0,0
26448,3049,49864,0,0,0
26420,3016,49810,0,0,0
26395,2985,49761,0,0,0
26372,2958,49716,0,0,0
26350,2930,49671,0,0,0
26329,2903,49626,0,0,0
26312,2881,49587,0,0,0
26297,2864,49555,0,0,0
26278,2848,49525,0,0,0
26253,2829,49494,0,0,0
26226,2812,49461,0,0,0
26201,2799,49427,0,0,0
26178,2784,49390,0,0,0
26157,2766,49355,0,0,0
26140,2749,49326,0,0,0
26123,2730,49298,0,0,0
26098,2705,49264,0,0,0
26069,2676,49227,0,0,0
26044,2649,49192,0,0,0
26024,2626,49158,0,0,0
26007,2606,49125,0,0,0
25990,2588,49096,0,0,0
25977,2574,49071,0,0,0
25964,2561,49048,0,0,0
25951,2546,49024,0,0,0
25940,2532,49002,0,0,0
25936,2525,48985,0,0,0
25937,2523,48972,0,0,0
25939,2525,48959,0,0,0
25944,2531,48950,0,0,0
25954,2542,48944,0,0,0
25963,2554,48939,0,0,0
25970,2561,48934,0,0,0
25976,2564,48929,0,0,0
25981,2566,48926,0,0,0
25982,2565,48922,0,0,0
25975,2560,48910,0,0,0
25961,2553,48893,0,0,0
25942,2545,48875,0,0,0
25921,2535,48854,0,0,0
25901,2521,48830,0,0,0
25883,2504,48805,0,0,0
25865,2485,48782,0,0,0
25844,2463,48760,0,0,0
25821,2440,48741,0,0,0
25805,2424,48725,0,0,0
25799,2417,48712,0,0,0
25797,2415,48701,0,0,0
25792,2412,48692,0,0,0
25786,2409,48687,0,0,0
25781,2405,48680,0,0,0
25774,2399,48670,0,0,0
25769,2393,48661,0,0,0
25768,2389,48657,0,0,0
25770,2384,48655,0,0,0
25769,2377,48651,0,0,0
25767,2367,48645,0,0,0
25771,2362,48645,0,0,0
25785,2365,48645,0,0,0
25797,2376,48643,0,0,0
25802,2387,48645,0,0,0
25808,2397,48653,0,0,0
25819,2404,48668,0,0,0
25827,2407,48678,0,0,0
25831,2406,48681,0,0,0
25836,2405,48679,0,0,0
25838,2404,48673,0,0,0
25835,2400,48663,0,0,0
25824,2389,48652,0,0,0
25811,2379,48642,0,0,0
25795,2369,48632,0,0,0
25779,2357,48617,0,0,0
25764,2346,48602,0,0,0
25753,2338,48590,0,0,0
25745,2331,48576,0,0,0
25739,2325,48559,0,0,0
25734,2320,48545,0,0,0
25732,2319,48534,0,0,0
25731,2320,48525,0,0,0
25729,2319,48514,0,0,0
25730,2322,48507,0,0,0
25737,2331,48509,0,0,0
25746,2340,48511,0,0,0
25754,2344,48510,0,0,0
25759,2344,48505,0,0,0
25765,2344,48501,0,0,0
25769,2344,48498,0,0,0
25771,2344,48493,0,0,0
25773,2348,48491,0,0,0
25776,2355,48491,0,0,0
25777,2360,48490,0,0,0
25772,2359,48490,0,0,0
25765,2356,48488,0,0,0
25756,2353,48478,0,0,0
25743,2344,48461,0,0,0
25724,2330,48441,0,0,0
25701,2315,48421,0,0,0
25682,2300,48397,0,0,0
25666,2280,48373,0,0,0
25650,2262,48352,0,0,0
25633,2249,48336,0,0,0
25616,2239,48324,0,0,0
25603,2230,48320,0,0,0
25600,2223,48327,0,0,0
25606,2221,48346,0,0,0
25621,2229,48376,0,0,0
25652,2250,48425,0,0,0
25708,2296,48510,0,0,0
25795,2374,48643,0,0,0
25910,2486,48831,0,0,0
26048,2626,49071,0,0,0
26210,2791,49367,0,0,0
26397,2985,49717,0,0,0
26609,3202,50111,0,0,0
26838,3429,50533,0,0,0
27077,3659,50970,0,0,0
27319,3889,51408,0,0,0
27554,4112,51831,0,0,0
27772,4316,52224,0,0,0
27971,4499,52578,0,0,0
28146,4661,52888,0,0,0
28291,4798,53142,0,0,0
28399,4902,53339,0,0,0
28472,4975,53481,0,0,0
28515,5020,53570,0,0,0
28529,5035,53602,0,0,0
28515,5018,53580,0,0,0
28478,4976,53517,0,0,0
28427,4921,53424,0,0,0
28363,4853,53303,0,0,0
28283,4772,53157,0,0,0
28193,4683,52995,0,0,0
28097,4593,52824,0,0,0
27997,4502,52646,0,0,0
27892,4405,52461,0,0,0
27786,4305,52270,0,0,0
27682,4205,52079,0,0,0
27577,4104,51892,0,0,0
27479,4007,51716,0,0,0
27391,3921,51557,0,0,0
27310,3847,51417,0,0,0
27234,3778,51289,0,0,0
27165,3710,51174,0,0,0
27111,3650,51077,0,0,0
27072,3605,50998,0,0,0
27039,3572,50934,0,0,0
27010,3549,50884,0,0,0
26987,3534,50846,0,0,0
26970,3524,50819,0,0,0
26956,3514,50795,0,0,0
26946,3502,50771,0,0,0
26942,3493,50749,0,0,0
26940,3488,50729,0,0,0
26936,3480,50706,0,0,0
26933,3472,50683,0,0,0
26936,3467,50664,0,0,0
26942,3466,50647,0,0,0
26944,3463,50629,0,0,0
26940,3460,50611,0,0,0
26934,3458,50594,0,0,0
26926,3458,50577,0,0,0
26916,3461,50563,0,0,0
26907,3464,50554,0,0,0
26900,3468,50550,0,0,0
26890,3467,50545,0,0,0
26878,3460,50540,0,0,0
26871,3455,50540,0,0,0
26874,3455,50543,0,0,0
26882,3460,50545,0,0,0
26892,3466,50549,0,0,0
26907,3475,50561,0,0,0
26925,3485,50576,0,0,0
26936,3488,50586,0,0,0
26937,3483,50587,0,0,0
26929,3476,50585,0,0,0
26920,3471,50583,0,0,0
26912,3465,50573,0,0,0
26901,3454,50555,0,0,0
26888,3443,50535,0,0,0
26872,3433,50513,0,0,0
26854,3419,50487,0,0,0
26839,3402,50459,0,0,0
26832,3390,50434,0,0,0
26826,3381,50411,0,0,0
26812,3367,50379,0,0,0
26791,3347,50342,0,0,0
26768,3327,50306,0,0,0
26741,3300,50263,0,0,0
26704,3262,50210,0,0,0
26660,3217,50152,0,0,0
26616,3172,50097,0,0,0
26573,3130,50039,0,0,0
26528,3084,49975,0,0,0
26480,3036,49910,0,0,0
26436,2994,49850,0,0,0
26392,2956,49789,0,0,0
26350,2917,49726,0,0,0
26312,2882,49665,0,0,0
26279,2851,49607,0,0,0
26248,2821,49548,0,0,0
26212,2790,49487,0,0,0
26174,2761,49431,0,0,0
26141,2736,49383,0,0,0
26113,2713,49341,0,0,0
26088,2692,49300,0,0,0
26065,2670,49264,0,0,0
26045,2650,49232,0,0,0
26022,2629,49200,0,0,0
25998,2607,49165,0,0,0
25979,2588,49132,0,0,0
25966,2574,49103,0,0,0
25957,2564,49073,0,0,0
25952,2554,49045,0,0,0
25948,2544,49024,0,0,0
25942,2535,49007,0,0,0
25933,2524,48985,0,0,0
25921,2510,48964,0,0,0
25910,2497,48947,0,0,0
25901,2487,48933,0,0,0
25892,2478,48920,0,0,0
25883,2469,48911,0,0,0
25876,2465,48906,0,0,0
25873,2465,48902,0,0,0
25868,2464,48895,0,0,0
25860,2462,48888,0,0,0
25850,2460,48881,0,0,0
25841,2455,48871,0,0,0
25829,2446,48855,0,0,0
25816,2431,48836,0,0,0
25801,2415,48816,0,0,0
25786,2401,48794,0,0,0
25771,2391,48770,0,0,0
25760,2379,48750,0,0,0
25750,2368,48731,0,0,0
25740,2356,48707,0,0,0
25729,2340,48680,0,0,0
25720,2323,48661,0,0,0
25712,2310,48650,0,0,0
25704,2298,48637,0,0,0
25695,2289,48624,0,0,0
25686,2283,48615,0,0,0
25678,2282,48611,0,0,0
25672,2283,48607,0,0,0
25670,2286,48605,0,0,0
25670,2290,48607,0,0,0
25673,2294,48612,0,0,0
25677,2297,48611,0,0,0
25681,2295,48608,0,0,0
25682,2289,48608,0,0,0
25680,2283,48604,0,0,0
25671,2277,48592,0,0,0
25661,2272,48577,0,0,0
25658,2270,48568,0,0,0
25663,2271,48565,0,0,0
25668,2274,48562,0,0,0
25670,2279,48558,0,0,0
25674,2282,48557,0,0,0
25679,2286,48557,0,0,0
25681,2290,48553,0,0,0
25678,2295,48547,0,0,0
25675,2300,48541,0,0,0
25676,2305,48534,0,0,0
25678,2307,48526,0,0,0
25677,2304,48519,0,0,0
25674,2298,48515,0,0,0
25665,2290,48509,0,0,0
25650,2279,48503,0,0,0
25634,2268,48499,0,0,0
25619,2258,48499,0,0,0
25605,2246,48496,0,0,0
25594,2232,48484,0,0,0
25584,2218,48470,0,0,0
25575,2208,48460,0,0,0
25568,2202,48453,0,0,0
25562,2198,48445,0,0,0
25558,2197,48440,0,0,0
25554,2198,48437,0,0,0
25550,2198,48432,0,0,0
25544,2193,48427,0,0,0
25537,2186,48424,0,0,0
25531,2182,48424,0,0,0
25527,2178,48425,0,0,0
25526,2175,48424,0,0,0
25531,2176,48424,0,0,0
25541,2182,48429,0,0,0
25545,2186,48428,0,0,0
25543,2187,48420,0,0,0
25539,2185,48412,0,0,0
25535,2185,48405,0,0,0
25530,2183,48395,0,0,0
25522,2178,48382,0,0,0
25513,2169,48370,0,0,0
25504,2160,48361,0,0,0
25492,2149,48348,0,0,0
25475,2133,48331,0,0,0
25457,2117,48315,0,0,0
25441,2104,48303,0,0,0
25421,2088,48291,0,0,0
25398,2069,48282,0,0,0
25383,2052,48280,0,0,0
25377,2041,48281,0,0,0
25377,2033,48282,0,0,0
25380,2029,48286,0,0,0
25387,2034,48298,0,0,0
25400,2047,48314,0,0,0
25418,2066,48334,0,0,0
25443,2093,48368,0,0,0
25483,2135,48426,0,0,0
25540,2198,48510,0,0,0
25619,2282,48627,0,0,0
25727,2388,48786,0,0,0
25864,2518,48993,0,0,0
26024,2674,49243,0,0,0
26206,2850,49532,0,0,0
26409,3046,49859,0,0,0
26630,3261,50222,0,0,0
26860,3487,50605,0,0,0
27082,3706,50987,0,0,0
27288,3912,51352,0,0,0
27476,4101,51691,0,0,0
27641,4267,51989,0,0,0
27780,4402,52238,0,0,0
27893,4509,52441,0,0,0
27979,4590,52600,0,0,0
28037,4644,52710,0,0,0
28067,4670,52766,0,0,0
28074,4669,52775,0,0,0
28059,4647,52744,0,0,0
28023,4604,52676,0,0,0
27971,4544,52579,0,0,0
27911,4476,52462,0,0,0
27845,4405,52333,0,0,0
27772,4328,52191,0,0,0
27690,4242,52037,0,0,0
27602,4154,51880,0,0,0
27511,4068,51723,0,0,0
27420,3985,51567,0,0,0
27334,3909,51418,0,0,0
27256,3843,51282,0,0,0
27185,3785,51156,0,0,0
27117,3731,51039,0,0,0
27051,3676,50933,0,0,0
26992,3622,50840,0,0,0
26940,3576,50759,0,0,0
26895,3538,50689,0,0,0
26859,3508,50634,0,0,0
26838,3490,50598,0,0,0
26829,3480,50576,0,0,0
26824,3472,50560,0,0,0
26820,3466,50544,0,0,0
26820,3466,50532,0,0,0
26822,3469,50519,0,0,0
26820,3466,50502,0,0,0
26814,3456,50481,0,0,0
26805,3443,50459,0,0,0
26795,3426,50430,0,0,0
26782,3408,50394,0,0,0
26768,3389,50359,0,0,0
26751,3372,50327,0,0,0
26728,3351,50292,0,0,0
26704,3326,50258,0,0,0
26686,3302,50234,0,0,0
26674,3286,50218,0,0,0
26664,3277,50208,0,0,0
26658,3272,50202,0,0,0
26656,3267,50201,0,0,0
26654,3264,50206,0,0,0
26648,3263,50209,0,0,0
26641,3262,50214,0,0,0
26638,3266,50224,0,0,0
26643,3275,50236,0,0,0
26651,3282,50244,0,0,0
26657,3284,50248,0,0,0
26665,3285,50255,0,0,0
26673,3288,50264,0,0,0
26678,3290,50272,0,0,0
26678,3289,50275,0,0,0
26679,3289,50275,0,0,0
26681,3293,50275,0,0,0
26680,3298,50272,0,0,0
26673,3299,50264,0,0,0
26663,3299,50252,0,0,0
26653,3296,50238,0,0,0
26643,3291,50221,0,0,0
26633,3283,50200,0,0,0
26626,3276,50179,0,0,0
26618,3267,50155,0,0,0
26606,3252,50122,0,0,0
26589,3232,50079,0,0,0
26570,3214,50034,0,0,0
26553,3196,49992,0,0,0
26534,3178,49950,0,0,0
26511,3156,49906,0,0,0
26488,3130,49862,0,0,0
26465,3102,49821,0,0,0
26440,3072,49780,0,0,0
26415,3043,49739,0,0,0
26394,3021,49702,0,0,0
26376,3003,49667,0,0,0
26356,2985,49632,0,0,0
26333,2967,49598,0,0,0
26311,2954,49568,0,0,0
26291,2942,49541,0,0,0
26275,2930,49511,0,0,0
26265,2918,49483,0,0,0
26255,2907,49461,0,0,0
26243,2897,49441,0,0,0
26228,2883,49419,0,0,0
26213,2870,49401,0,0,0
26202,2864,49388,0,0,0
26193,2858,49375,0,0,0
26185,2852,49359,0,0,0
26182,2849,49343,0,0,0
26182,2849,49330,0,0,0
26183,2848,49317,0,0,0
26184,2845,49303,0,0,0
26190,2845,49291,0,0,0
26200,2850,49281,0,0,0
26206,2855,49272,0,0,0
26205,2857,49261,0,0,0
26203,2858,49253,0,0,0
26202,2861,49246,0,0,0
26201,2863,49239,0,0,0
26202,2864,49234,0,0,0
26205,2868,49235,0,0,0
26208,2872,49234,0,0,0
26206,2871,49229,0,0,0
26201,2863,49223,0,0,0
26197,2853,49216,0,0,0
26190,2845,49207,0,0,0
26179,2836,49197,0,0,0
26171,2827,49191,0,0,0
26167,2823,49190,0,0,0
26165,2826,49190,0,0,0
26160,2829,49187,0,0,0
26152,2832,49184,0,0,0
26147,2835,49183,0,0,0
26144,2837,49181,0,0,0
26141,2837,49174,0,0,0
26141,2833,49169,0,0,0
26142,2830,49166,0,0,0
26144,2827,49161,0,0,0
26149,2825,49151,0,0,0
26155,2826,49145,0,0,0
26163,2830,49146,0,0,0
26168,2832,49148,0,0,0
26167,2832,49149,0,0,0
26165,2834,49152,0,0,0
26167,2839,49157,0,0,0
26169,2844,49157,0,0,0
26171,2847,49153,0,0,0
26171,2846,49148,0,0,0
26169,2845,49145,0,0,0
26167,2844,49140,0,0,0
26166,2846,49133,0,0,0
26167,2850,49129,0,0,0
26167,2856,49126,0,0,0
26163,2859,49121,0,0,0
26153,2855,49113,0,0,0
26143,2847,49106,0,0,0
26135,2838,49097,0,0,0
26127,2828,49084,0,0,0
26120,2817,49072,0,0,0
26115,2808,49066,0,0,0
26115,2800,49059,0,0,0
26115,2790,49046,0,0,0
26110,2777,49028,0,0,0
26100,2763,49009,0,0,0
26089,2752,48992,0,0,0
26075,2743,48979,0,0,0
26062,2735,48971,0,0,0
26056,2729,48965,0,0,0
26052,2721,48960,0,0,0
26046,2711,48953,0,0,0
26040,2702,48948,0,0,0
26036,2697,48947,0,0,0
26034,2696,48944,0,0,0
26029,2694,48937,0,0,0
26022,2690,48933,0,0,0
26018,2688,48934,0,0,0
26017,2688,48930,0,0,0
26017,2685,48922,0,0,0
26016,2682,48911,0,0,0
26011,2681,48901,0,0,0
26006,2682,48894,0,0,0
26002,2684,48888,0,0,0
26004,2689,48886,0,0,0
26010,2698,48892,0,0,0
26019,2711,48906,0,0,0
26035,2731,48931,0,0,0
26063,2762,48979,0,0,0
26110,2807,49057,0,0,0
26177,2867,49168,0,0,0
26264,2948,49319,0,0,0
26376,3060,49517,0,0,0
26516,3199,49765,0,0,0
26680,3357,50051,0,0,0
26859,3533,50368,0,0,0
27050,3724,50713,0,0,0
27248,3921,51078,0,0,0
27446,4115,51443,0,0,0
27641,4299,51794,0,0,0
27824,4471,52118,0,0,0
27993,4628,52410,0,0,0
28144,4764,52662,0,0,0
28271,4875,52871,0,0,0
28371,4964,53035,0,0,0
28439,5026,53152,0,0,0
28474,5058,53217,0,0,0
28482,5063,53233,0,0,0
28470,5050,53211,0,0,0
28438,5019,53153,0,0,0
28387,4966,53060,0,0,0
28319,4895,52940,0,0,0
28242,4811,52803,0,0,0
28157,4716,52649,0,0,0
28062,4613,52479,0,0,0
27960,4504,52300,0,0,0
27858,4398,52122,0,0,0
27761,4301,51950,0,0,0
27669,4212,51787,0,0,0
27581,4128,51636,0,0,0
27499,4051,51495,0,0,0
27423,3980,51361,0,0,0
27355,3918,51236,0,0,0
27295,3866,51130,0,0,0
27246,3827,51044,0,0,0
27207,3798,50972,0,0,0
27178,3776,50910,0,0,0
27157,3758,50864,0,0,0
27142,3744,50829,0,0,0
27127,3730,50794,0,0,0
27108,3711,50755,0,0,0
27087,3692,50716,0,0,0
27065,3676,50678,0,0,0
27042,3659,50636,0,0,0
27016,3640,50592,0,0,0
26989,3619,50552,0,0,0
26965,3595,50517,0,0,0
26942,3568,50482,0,0,0
26918,3538,50446,0,0,0
26898,3509,50415,0,0,0
26880,3485,50386,0,0,0
26860,3464,50357,0,0,0
26843,3448,50331,0,0,0
26834,3440,50312,0,0,0
26831,3438,50298,0,0,0
26830,3437,50288,0,0,0
26831,3437,50288,0,0,0
26838,3443,50301,0,0,0
26849,3455,50321,0,0,0
26862,3470,50341,0,0,0
26875,3487,50362,0,0,0
26890,3504,50386,0,0,0
26907,3525,50413,0,0,0
26924,3549,50441,0,0,0
26941,3569,50471,0,0,0
26957,3587,50501,0,0,0
26971,3602,50527,0,0,0
26981,3610,50547,0,0,0
26985,3612,50562,0,0,0
26989,3615,50572,0,0,0
26993,3620,50574,0,0,0
26996,3625,50568,0,0,0
26996,3629,50558,0,0,0
26993,3631,50544,0,0,0
26982,3628,50522,0,0,0
26966,3615,50493,0,0,0
26947,3595,50461,0,0,0
26926,3574,50428,0,0,0
26903,3551,50392,0,0,0
26876,3525,50351,0,0,0
26845,3496,50309,0,0,0
26816,3469,50268,0,0,0
26787,3442,50221,0,0,0
26755,3412,50168,0,0,0
26721,3381,50115,0,0,0
26690,3355,50063,0,0,0
26666,3333,50013,0,0,0
26646,3313,49966,0,0,0
26628,3295,49923,0,0,0
26609,3276,49880,0,0,0
26586,3254,49835,0,0,0
26559,3224,49788,0,0,0
26530,3193,49745,0,0,0
26504,3165,49707,0,0,0
26478,3140,49670,0,0,0
26452,3113,49634,0,0,0
26427,3087,49600,0,0,0
26405,3064,49572,0,0,0
26385,3043,49546,0,0,0
26364,3024,49523,0,0,0
26344,3008,49502,0,0,0
26327,2997,49483,0,0,0
26314,2990,49465,0,0,0
26305,2985,49450,0,0,0
26302,2980,49436,0,0,0
26301,2972,49417,0,0,0
26296,2961,49397,0,0,0
26285,2950,49381,0,0,0
26273,2942,49367,0,0,0
26258,2934,49353,0,0,0
26239,2918,49333,0,0,0
26220,2898,49313,0,0,0
26203,2881,49298,0,0,0
26191,2868,49284,0,0,0
26178,2854,49269,0,0,0
26168,2839,49256,0,0,0
26164,2829,49244,0,0,0
26162,2826,49230,0,0,0
26162,2826,49212,0,0,0
26166,2829,49197,0,0,0
26176,2836,49188,0,0,0
26186,2843,49181,0,0,0
26190,2847,49175,0,0,0
26193,2851,49175,0,0,0
26199,2859,49179,0,0,0
26206,2870,49183,0,0,0
26212,2880,49188,0,0,0
26218,2888,49197,0,0,0
26225,2895,49206,0,0,0
26228,2899,49212,0,0,0
26227,2897,49214,0,0,0
26226,2894,49216,0,0,0
26229,2896,49219,0,0,0
26234,2904,49222,0,0,0
26240,2912,49226,0,0,0
26246,2918,49233,0,0,0
26251,2921,49241,0,0,0
26254,2921,49243,0,0,0
26257,2920,49242,0,0,0
26262,2922,49245,0,0,0
26268,2927,49246,0,0,0
26274,2933,49246,0,0,0
26277,2937,49243,0,0,0
26279,2939,49241,0,0,0
26282,2943,49238,0,0,0
26282,2947,49231,0,0,0
26280,2949,49221,0,0,0
26278,2949,49212,0,0,0
26274,2946,49203,0,0,0
26267,2936,49191,0,0,0
26259,2924,49181,0,0,0
26256,2917,49178,0,0,0
26260,2912,49176,0,0,0
26266,2906,49171,0,0,0
26267,2899,49163,0,0,0
26263,2894,49155,0,0,0
26256,2893,49144,0,0,0
26246,2893,49131,0,0,0
26233,2892,49123,0,0,0
26221,2892,49116,0,0,0
26213,2890,49109,0,0,0
26204,2885,49100,0,0,0
26192,2876,49094,0,0,0
26177,2866,49088,0,0,0
26161,2853,49075,0,0,0
26146,2841,49057,0,0,0
26132,2832,49041,0,0,0
26122,2828,49032,0,0,0
26111,2825,49025,0,0,0
26098,2818,49015,0,0,0
26082,2808,49003,0,0,0
26067,2797,48991,0,0,0
26050,2787,48978,0,0,0
26033,2775,48962,0,0,0
26021,2765,48947,0,0,0
26017,2756,48936,0,0,0
26014,2744,48927,0,0,0
26006,2728,48921,0,0,0
25997,2710,48917,0,0,0
25990,2693,48913,0,0,0
25984,2680,48906,0,0,0
25984,2675,48904,0,0,0
25996,2682,48913,0,0,0
26018,2699,48931,0,0,0
26047,2725,48959,0,0,0
26086,2760,49005,0,0,0
26143,2811,49078,0,0,0
26223,2888,49186,0,0,0
26327,2990,49340,0,0,0
26459,3117,49547,0,0,0
26620,3271,49810,0,0,0
26805,3452,50124,0,0,0
27005,3653,50478,0,0,0
27217,3867,50866,0,0,0
27442,4088,51273,0,0,0
27667,4305,51676,0,0,0
27880,4508,52059,0,0,0
28076,4693,52414,0,0,0
28253,4864,52739,0,0,0
28408,5014,53022,0,0,0
28533,5137,53254,0,0,0
28634,5230,53437,0,0,0
28712,5298,53572,0,0,0
28766,5340,53658,0,0,0
28790,5355,53692,0,0,0
28786,5341,53681,0,0,0
28760,5308,53632,0,0,0
28716,5256,53546,0,0,0
28650,5185,53425,0,0,0
28565,5097,53276,0,0,0
28463,4999,53108,0,0,0
28349,4891,52923,0,0,0
28228,4776,52726,0,0,0
28110,4663,52527,0,0,0
27996,4555,52332,0,0,0
27884,4450,52142,0,0,0
27774,4349,51959,0,0,0
27673,4256,51793,0,0,0
27583,4169,51643,0,0,0
27499,4087,51508,0,0,0
27423,4011,51388,0,0,0
27359,3944,51286,0,0,0
27309,3889,51201,0,0,0
27269,3847,51132,0,0,0
27239,3815,51075,0,0,0
27218,3795,51030,0,0,0
27204,3784,50996,0,0,0
27195,3778,50969,0,0,0
27190,3775,50948,0,0,0
27191,3776,50930,0,0,0
27191,3777,50914,0,0,0
27185,3771,50894,0,0,0
27174,3758,50873,0,0,0
27161,3747,50853,0,0,0
27147,3740,50830,0,0,0
27134,3731,50803,0,0,0
27123,3719,50777,0,0,0
27115,3709,50752,0,0,0
27107,3701,50729,0,0,0
27095,3692,50710,0,0,0
27083,3685,50701,0,0,0
27081,3687,50701,0,0,0
27088,3699,50707,0,0,0
27098,3716,50713,0,0,0
27107,3734,50723,0,0,0
27120,3755,50738,0,0,0
27138,3777,50757,0,0,0
27159,3800,50779,0,0,0
27183,3827,50808,0,0,0
27211,3862,50844,0,0,0
27239,3898,50878,0,0,0
27269,3931,50909,0,0,0
27304,3962,50944,0,0,0
27339,3992,50981,0,0,0
27370,4017,51011,0,0,0
27396,4036,51037,0,0,0
27419,4053,51060,0,0,0
27442,4069,51078,0,0,0
27458,4082,51086,0,0,0
27465,4087,51084,0,0,0
27463,4085,51076,0,0,0
27455,4080,51064,0,0,0
27440,4068,51044,0,0,0
27415,4051,51019,0,0,0
27388,4029,50990,0,0,0
27364,4006,50955,0,0,0
27339,3982,50914,0,0,0
27314,3957,50870,0,0,0
27290,3932,50826,0,0,0
27268,3906,50782,0,0,0
27247,3880,50737,0,0,0
27228,3857,50696,0,0,0
27212,3839,50659,0,0,0
27200,3825,50621,0,0,0
27187,3812,50579,0,0,0
27170,3795,50539,0,0,0
27152,3777,50504,0,0,0
27134,3759,50469,0,0,0
27115,3741,50432,0,0,0
27096,3723,50400,0,0,0
27079,3706,50373,0,0,0
27065,3690,50345,0,0,0
27056,3676,50314,0,0,0
27050,3664,50283,0,0,0
27047,3650,50251,0,0,0
27040,3634,50219,0,0,0
27027,3616,50188,0,0,0
27009,3597,50159,0,0,0
26989,3582,50130,0,0,0
26966,3571,50096,0,0,0
26945,3556,50059,0,0,0
26927,3541,50026,0,0,0
26913,3530,50000,0,0,0
26900,3520,49975,0,0,0
26887,3506,49947,0,0,0
26874,3493,49921,0,0,0
26860,3484,49898,0,0,0
26845,3474,49875,0,0,0
26829,3466,49855,0,0,0
26816,3461,49839,0,0,0
26805,3457,49827,0,0,0
26798,3453,49814,0,0,0
26795,3449,49802,0,0,0
26796,3447,49796,0,0,0
26798,3446,49790,0,0,0
26798,3441,49780,0,0,0
26795,3434,49771,0,0,0
26791,3429,49767,0,0,0
26784,3422,49762,0,0,0
26774,3411,49749,0,0,0
26763,3396,49730,0,0,0
26752,3379,49710,0,0,0
26738,3365,49687,0,0,0
26720,3350,49659,0,0,0
26700,3335,49634,0,0,0
26684,3323,49617,0,0,0
26673,3315,49608,0,0,0
26661,3307,49605,0,0,0
26647,3301,49604,0,0,0
26635,3301,49605,0,0,0
26627,3304,49605,0,0,0
26619,3306,49606,0,0,0
26616,3307,49610,0,0,0
26617,3309,49614,0,0,0
26618,3307,49609,0,0,0
26614,3299,49596,0,0,0
26609,3289,49581,0,0,0
26606,3281,49568,0,0,0
26603,3273,49552,0,0,0
26597,3262,49530,0,0,0
26591,3249,49508,0,0,0
26587,3241,49491,0,0,0
26584,3234,49475,0,0,0
26579,3227,49460,0,0,0
26573,3224,49448,0,0,0
26568,3225,49439,0,0,0
26562,3225,49431,0,0,0
26551,3221,49422,0,0,0
26543,3217,49417,0,0,0
26538,3215,49413,0,0,0
26534,3216,49407,0,0,0
26534,3219,49400,0,0,0
26539,3223,49397,0,0,0
26546,3228,49399,0,0,0
26550,3234,49401,0,0,0
26551,3240,49402,0,0,0
26555,3248,49405,0,0,0
26563,3260,49412,0,0,0
26572,3271,49419,0,0,0
26582,3282,49430,0,0,0
26594,3292,49440,0,0,0
26604,3300,49442,0,0,0
26607,3304,49434,0,0,0
26604,3303,49424,0,0,0
26598,3300,49416,0,0,0
26588,3297,49408,0,0,0
26573,3290,49394,0,0,0
26556,3277,49379,0,0,0
26542,3261,49366,0,0,0
26530,3245,49351,0,0,0
26520,3232,49337,0,0,0
26514,3224,49331,0,0,0
26513,3218,49327,0,0,0
26513,3211,49321,0,0,0
26512,3203,49310,0,0,0
26510,3195,49304,0,0,0
26508,3190,49302,0,0,0
26502,3185,49298,0,0,0
26490,3177,49290,0,0,0
26478,3168,49281,0,0,0
26467,3161,49273,0,0,0
26455,3155,49262,0,0,0
26441,3145,49247,0,0,0
26431,3134,49237,0,0,0
26428,3125,49236,0,0,0
26433,3122,49243,0,0,0
26448,3128,49259,0,0,0
26481,3152,49298,0,0,0
26534,3199,49368,0,0,0
26607,3271,49477,0,0,0
26706,3367,49635,0,0,0
26837,3493,49855,0,0,0
26999,3653,50139,0,0,0
27189,3844,50480,0,0,0
27405,4059,50873,0,0,0
27646,4295,51307,0,0,0
27901,4547,51767,0,0,0
28156,4799,52228,0,0,0
28400,5037,52670,0,0,0
28630,5257,53081,0,0,0
28843,5459,53458,0,0,0
29029,5638,53791,0,0,0
29185,5786,54070,0,0,0
29312,5903,54293,0,0,0
29406,5987,54457,0,0,0
29459,6033,54557,0,0,0
29479,6046,54595,0,0,0
29476,6035,54584,0,0,0
29455,6007,54533,0,0,0
29412,5956,54441,0,0,0
29343,5879,54311,0,0,0
29258,5784,54155,0,0,0
29161,5678,53980,0,0,0
29050,5561,53786,0,0,0
28929,5438,53576,0,0,0
28806,5321,53367,0,0,0
28687,5213,53166,0,0,0
28569,5106,52971,0,0,0
28458,5003,52784,0,0,0
28359,4910,52610,0,0,0
28269,4825,52447,0,0,0
28183,4747,52293,0,0,0
28106,4678,52156,0,0,0
28043,4623,52041,0,0,0
27990,4581,51946,0,0,0
27940,4541,51862,0,0,0
27896,4503,51788,0,0,0
27860,4475,51728,0,0,0
27829,4454,51679,0,0,0
27801,4431,51631,0,0,0
27778,4408,51587,0,0,0
27764,4392,51552,0,0,0
27749,4380,51525,0,0,0
27730,4365,51494,0,0,0
27709,4348,51461,0,0,0
27687,4328,51429,0,0,0
27663,4301,51395,0,0,0
27637,4271,51355,0,0,0
27615,4245,51317,0,0,0
27597,4225,51282,0,0,0
27579,4207,51251,0,0,0
27560,4190,51223,0,0,0
27543,4175,51201,0,0,0
27532,4165,51181,0,0,0
27523,4158,51165,0,0,0
27513,4150,51157,0,0,0
27506,4144,51158,0,0,0
27501,4144,51166,0,0,0
27497,4149,51176,0,0,0
27498,4158,51190,0,0,0
27507,4173,51210,0,0,0
27522,4192,51231,0,0,0
27538,4209,51252,0,0,0
27556,4226,51274,0,0,0
27576,4245,51300,0,0,0
27594,4262,51327,0,0,0
27610,4273,51351,0,0,0
27626,4286,51375,0,0,0
27642,4300,51397,0,0,0
27653,4312,51409,0,0,0
27656,4315,51406,0,0,0
27650,4308,51392,0,0,0
27640,4295,51369,0,0,0
27624,4281,51337,0,0,0
27602,4261,51296,0,0,0
27578,4238,51252,0,0,0
27554,4214,51208,0,0,0
27529,4187,51159,0,0,0
27502,4156,51104,0,0,0
27477,4129,51050,0,0,0
27459,4108,51005,0,0,0
27439,4090,50963,0,0,0
27413,4065,50918,0,0,0
27382,4039,50869,0,0,0
27352,4014,50823,0,0,0
27325,3989,50778,0,0,0
27299,3962,50735,0,0,0
27277,3941,50697,0,0,0
27260,3929,50662,0,0,0
27244,3919,50627,0,0,0
27229,3908,50591,0,0,0
27219,3896,50557,0,0,0
27212,3886,50528,0,0,0
27203,3874,50503,0,0,0
27194,3863,50481,0,0,0
27188,3857,50464,0,0,0
27182,3856,50446,0,0,0
27173,3851,50426,0,0,0
27161,3843,50404,0,0,0
27150,3835,50381,0,0,0
27141,3830,50355,0,0,0
27131,3823,50326,0,0,0
27121,3816,50302,0,0,0
27113,3813,50283,0,0,0
27105,3812,50262,0,0,0
27094,3810,50238,0,0,0
27083,3805,50216,0,0,0
27071,3797,50197,0,0,0
27058,3788,50177,0,0,0
27046,3780,50158,0,0,0
27038,3774,50147,0,0,0
27033,3772,50146,0,0,0
27029,3770,50145,0,0,0
27024,3766,50144,0,0,0
27019,3759,50144,0,0,0
27017,3755,50143,0,0,0
27019,3754,50137,0,0,0
27021,3753,50131,0,0,0
27023,3753,50127,0,0,0
27023,3754,50125,0,0,0
27018,3751,50119,0,0,0
27011,3743,50107,0,0,0
27004,3734,50095,0,0,0
26997,3728,50082,0,0,0
26986,3721,50062,0,0,0
26971,3711,50042,0,0,0
26960,3704,50027,0,0,0
26954,3702,50015,0,0,0
26950,3700,50002,0,0,0
26943,3698,49989,0,0,0
26936,3698,49984,0,0,0
26934,3703,49983,0,0,0
26939,3709,49980,0,0,0
26946,3715,49975,0,0,0
26955,3724,49976,0,0,0
26962,3733,49979,0,0,0
26965,3739,49978,0,0,0
26967,3745,49976,0,0,0
26975,3754,49977,0,0,0
26988,3766,49981,0,0,0
27001,3774,49984,0,0,0
27010,3777,49986,0,0,0
27018,3777,49988,0,0,0
27023,3773,49986,0,0,0
27020,3764,49980,0,0,0
27012,3751,49972,0,0,0
27002,3739,49962,0,0,0
26990,3730,49947,0,0,0
26976,3719,49927,0,0,0
26965,3708,49909,0,0,0
26956,3699,49894,0,0,0
26947,3692,49876,0,0,0
26937,3687,49854,0,0,0
26924,3682,49833,0,0,0
26911,3678,49812,0,0,0
26897,3668,49788,0,0,0
26884,3655,49763,0,0,0
26872,3643,49742,0,0,0
26864,3635,49725,0,0,0
26858,3627,49709,0,0,0
26853,3619,49691,0,0,0
26851,3615,49677,0,0,0
26849,3611,49665,0,0,0
26841,3604,49652,0,0,0
26827,3592,49637,0,0,0
26812,3578,49624,0,0,0
26801,3566,49616,0,0,0
26793,3554,49608,0,0,0
26788,3541,49603,0,0,0
26788,3534,49608,0,0,0
26795,3538,49628,0,0,0
26812,3552,49666,0,0,0
26846,3581,49729,0,0,0
26906,3632,49830,0,0,0
26994,3714,49978,0,0,0
27112,3829,50178,0,0,0
27259,3978,50439,0,0,0
27442,4165,50767,0,0,0
27654,4385,51153,0,0,0
27889,4626,51582,0,0,0
28140,4879,52043,0,0,0
28400,5134,52521,0,0,0
28663,5386,52996,0,0,0
28918,5626,53449,0,0,0
29159,5849,53869,0,0,0
29382,6053,54253,0,0,0
29584,6236,54594,0,0,0
29754,6387,54877,0,0,0
29890,6502,55098,0,0,0
29993,6586,55257,0,0,0
30063,6637,55355,0,0,0
30097,6657,55397,0,0,0
30101,6647,55393,0,0,0
30085,6617,55352,0,0,0
30050,6573,55277,0,0,0
29994,6517,55171,0,0,0
29921,6450,55042,0,0,0
29839,6376,54896,0,0,0
29749,6294,54731,0,0,0
29652,6204,54552,0,0,0
29552,6110,54367,0,0,0
29446,6016,54179,0,0,0
29335,5918,53989,0,0,0
29223,5817,53797,0,0,0
29117,5719,53608,0,0,0
29017,5627,53429,0,0,0
28924,5540,53259,0,0,0
28838,5461,53103,0,0,0
28763,5395,52970,0,0,0
28701,5340,52859,0,0,0
28647,5290,52762,0,0,0
28600,5243,52677,0,0,0
28558,5201,52608,0,0,0
28521,5167,52549,0,0,0
28489,5133,52492,0,0,0
28454,5092,52435,0,0,0
28415,5046,52375,0,0,0
28371,4998,52309,0,0,0
28327,4948,52237,0,0,0
28284,4897,52165,0,0,0
28245,4851,52094,0,0,0
28212,4813,52025,0,0,0
28184,4781,51961,0,0,0
28159,4756,51910,0,0,0
28141,4740,51873,0,0,0
28128,4734,51848,0,0,0
28118,4736,51830,0,0,0
28112,4740,51825,0,0,0
28112,4748,51829,0,0,0
28115,4758,51836,0,0,0
28117,4769,51843,0,0,0
28122,4782,51856,0,0,0
28133,4798,51878,0,0,0
28148,4812,51906,0,0,0
28162,4825,51934,0,0,0
28178,4838,51965,0,0,0
28197,4854,51997,0,0,0
28217,4872,52027,0,0,0
28235,4890,52056,0,0,0
28256,4908,52091,0,0,0
28280,4930,52127,0,0,0
28304,4952,52160,0,0,0
28325,4969,52188,0,0,0
28344,4983,52213,0,0,0
28359,4994,52231,0,0,0
28365,4997,52232,0,0,0
28361,4991,52221,0,0,0
28352,4981,52205,0,0,0
28341,4966,52183,0,0,0
28322,4945,52146,0,0,0
28294,4916,52099,0,0,0
28259,4880,52045,0,0,0
28218,4838,51984,0,0,0
28167,4791,51913,0,0,0
28107,4742,51831,0,0,0
28044,4690,51742,0,0,0
27982,4636,51652,0,0,0
27920,4579,51559,0,0,0
27860,4520,51468,0,0,0
27805,4465,51379,0,0,0
27756,4416,51295,0,0,0
27712,4373,51214,0,0,0
27677,4333,51140,0,0,0
27649,4296,51070,0,0,0
27624,4260,51003,0,0,0
27596,4224,50939,0,0,0
27567,4192,50882,0,0,0
27538,4167,50834,0,0,0
27512,4148,50790,0,0,0
27484,4127,50745,0,0,0
27455,4101,50701,0,0,0
27427,4076,50661,0,0,0
27403,4055,50625,0,0,0
27384,4036,50588,0,0,0
27367,4022,50558,0,0,0
27351,4014,50533,0,0,0
27335,4006,50505,0,0,0
27318,3995,50476,0,0,0
27306,3984,50450,0,0,0
27295,3976,50428,0,0,0
27283,3971,50405,0,0,0
27271,3965,50381,0,0,0
27265,3961,50365,0,0,0
27270,3961,50355,0,0,0
27278,3962,50345,0,0,0
27283,3960,50330,0,0,0
27285,3958,50315,0,0,0
27288,3961,50303,0,0,0
27294,3965,50292,0,0,0
27296,3966,50280,0,0,0
27296,3967,50268,0,0,0
27297,3969,50258,0,0,0
27296,3966,50251,0,0,0
27290,3957,50242,0,0,0
27282,3946,50231,0,0,0
27274,3936,50219,0,0,0
27267,3926,50207,0,0,0
27259,3916,50194,0,0,0
27251,3908,50181,0,0,0
27243,3900,50165,0,0,0
27228,3890,50141,0,0,0
27210,3876,50116,0,0,0
27194,3862,50095,0,0,0
27182,3853,50079,0,0,0
27170,3845,50064,0,0,0
27155,3832,50049,0,0,0
27140,3815,50034,0,0,0
27124,3798,50019,0,0,0
27107,3783,50005,0,0,0
27094,3772,49993,0,0,0
27088,3769,49988,0,0,0
27090,3772,49987,0,0,0
27094,3778,49983,0,0,0
27097,3788,49981,0,0,0
27101,3800,49979,0,0,0
27107,3810,49970,0,0,0
27109,3811,49956,0,0,0
27110,3808,49944,0,0,0
27113,3806,49939,0,0,0
27118,3807,49939,0,0,0
27124,3808,49940,0,0,0
27127,3808,49946,0,0,0
27128,3812,49953,0,0,0
27130,3816,49952,0,0,0
27128,3820,49944,0,0,0
27125,3826,49937,0,0,0
27126,3831,49929,0,0,0
27127,3832,49920,0,0,0
27118,3828,49909,0,0,0
27099,3821,49895,0,0,0
27079,3810,49874,0,0,0
27062,3795,49849,0,0,0
27044,3774,49821,0,0,0
27030,3753,49797,0,0,0
27018,3735,49779,0,0,0
27005,3715,49762,0,0,0
26989,3693,49744,0,0,0
26974,3672,49727,0,0,0
26961,3656,49708,0,0,0
26950,3645,49689,0,0,0
26944,3640,49678,0,0,0
26948,3646,49682,0,0,0
26963,3663,49703,0,0,0
26987,3690,49744,0,0,0
27026,3731,49811,0,0,0
27089,3795,49919,0,0,0
27184,3892,50083,0,0,0
27318,4028,50312,0,0,0
27490,4203,50616,0,0,0
27703,4412,50996,0,0,0
27952,4653,51441,0,0,0
28231,4919,51939,0,0,0
28532,5206,52478,0,0,0
28847,5507,53043,0,0,0
29167,5811,53608,0,0,0
29480,6101,54150,0,0,0
29777,6370,54654,0,0,0
30054,6617,55110,0,0,0
30303,6839,55511,0,0,0
30517,7027,55845,0,0,0
30691,7179,56113,0,0,0
30829,7299,56322,0,0,0
30933,7386,56471,0,0,0
31002,7443,56557,0,0,0
31041,7472,56589,0,0,0
31055,7480,56581,0,0,0
31044,7466,56540,0,0,0
31014,7432,56468,0,0,0
30974,7391,56377,0,0,0
30927,7343,56276,0,0,0
30870,7286,56167,0,0,0
30808,7223,56047,0,0,0
30745,7158,55922,0,0,0
30684,7098,55798,0,0,0
30622,7039,55676,0,0,0
30560,6982,55557,0,0,0
30501,6931,55444,0,0,0
30448,6886,55340,0,0,0
30399,6845,55244,0,0,0
30354,6804,55155,0,0,0
30314,6767,55072,0,0,0
30279,6734,54997,0,0,0
30241,6699,54927,0,0,0
30203,6663,54866,0,0,0
30168,6630,54815,0,0,0
30135,6601,54773,0,0,0
30102,6574,54731,0,0,0
30068,6544,54684,0,0,0
30033,6511,54634,0,0,0
29996,6478,54581,0,0,0
29951,6440,54514,0,0,0
29898,6395,54434,0,0,0
29842,6344,54345,0,0,0
29782,6284,54250,0,0,0
29716,6215,54144,0,0,0
29644,6139,54029,0,0,0
29572,6063,53913,0,0,0
29501,5989,53801,0,0,0
29430,5915,53691,0,0,0
29363,5846,53590,0,0,0
29307,5789,53504,0,0,0
29259,5743,53430,0,0,0
29212,5697,53362,0,0,0
29169,5652,53300,0,0,0
29136,5617,53255,0,0,0
29113,5592,53228,0,0,0
29092,5572,53210,0,0,0
29075,5554,53197,0,0,0
29065,5546,53194,0,0,0
29060,5547,53203,0,0,0
29058,5549,53216,0,0,0
29065,5556,53235,0,0,0
29086,5573,53264,0,0,0
29110,5592,53295,0,0,0
29128,5606,53323,0,0,0
29145,5619,53347,0,0,0
29162,5630,53368,0,0,0
29170,5635,53378,0,0,0
29169,5630,53372,0,0,0
29162,5620,53356,0,0,0
29149,5607,53333,0,0,0
29128,5587,53297,0,0,0
29095,5555,53245,0,0,0
29055,5514,53177,0,0,0
29009,5469,53098,0,0,0
28952,5416,53007,0,0,0
28887,5356,52903,0,0,0
28824,5294,52793,0,0,0
28764,5232,52685,0,0,0
28698,5165,52574,0,0,0
28627,5093,52457,0,0,0
28558,5021,52338,0,0,0
28494,4954,52224,0,0,0
28430,4890,52111,0,0,0
28367,4825,52001,0,0,0
28308,4761,51898,0,0,0
28255,4703,51805,0,0,0
28201,4645,51710,0,0,0
28143,4585,51612,0,0,0
28085,4529,51516,0,0,0
28033,4479,51427,0,0,0
27986,4435,51346,0,0,0
27951,4403,51274,0,0,0
27929,4385,51217,0,0,0
27916,4374,51173,0,0,0
27901,4362,51134,0,0,0
27887,4353,51099,0,0,0
27880,4354,51074,0,0,0
27877,4360,51055,0,0,0
27873,4364,51042,0,0,0
27871,4370,51035,0,0,0
27874,4381,51039,0,0,0
27879,4392,51043,0,0,0
27879,4397,51039,0,0,0
27879,4396,51028,0,0,0
27880,4396,51014,0,0,0
27875,4394,50996,0,0,0
27868,4387,50976,0,0,0
27867,4381,50960,0,0,0
27869,4376,50947,0,0,0
27865,4368,50932,0,0,0
27859,4360,50918,0,0,0
27853,4357,50910,0,0,0
27844,4358,50901,0,0,0
27826,4356,50884,0,0,0
27804,4350,50860,0,0,0
27783,4344,50833,0,0,0
27766,4335,50806,0,0,0
27751,4322,50779,0,0,0
27737,4301,50752,0,0,0
27724,4278,50725,0,0,0
27707,4253,50694,0,0,0
27684,4224,50659,0,0,0
27660,4196,50625,0,0,0
27642,4176,50599,0,0,0
27628,4160,50576,0,0,0
27613,4144,50554,0,0,0
27598,4129,50534,0,0,0
27586,4118,50518,0,0,0
27576,4109,50500,0,0,0
27566,4099,50480,0,0,0
27556,4090,50461,0,0,0
27546,4083,50446,0,0,0
27535,4077,50434,0,0,0
27522,4069,50421,0,0,0
27513,4061,50409,0,0,0
27506,4056,50401,0,0,0
27497,4053,50389,0,0,0
27483,4047,50371,0,0,0
27468,4038,50352,0,0,0
27451,4027,50330,0,0,0
27426,4008,50298,0,0,0
27394,3979,50257,0,0,0
27361,3946,50216,0,0,0
27331,3915,50178,0,0,0
27305,3885,50140,0,0,0
27280,3855,50102,0,0,0
27260,3830,50066,0,0,0
27242,3813,50035,0,0,0
27224,3800,50008,0,0,0
27206,3787,49980,0,0,0
27189,3774,49958,0,0,0
27175,3764,49940,0,0,0
27157,3753,49919,0,0,0
27136,3738,49895,0,0,0
27118,3726,49874,0,0,0
27103,3717,49857,0,0,0
27087,3704,49840,0,0,0
27072,3688,49826,0,0,0
27057,3672,49816,0,0,0
27048,3659,49809,0,0,0
27043,3649,49805,0,0,0
27043,3641,49805,0,0,0
27046,3641,49809,0,0,0
27052,3649,49810,0,0,0
27056,3661,49805,0,0,0
27062,3673,49800,0,0,0
27073,3686,49803,0,0,0
27085,3698,49808,0,0,0
27093,3707,49810,0,0,0
27096,3713,49811,0,0,0
27099,3721,49813,0,0,0
27101,3730,49816,0,0,0
27098,3735,49817,0,0,0
27091,3735,49814,0,0,0
27083,3732,49811,0,0,0
27072,3724,49805,0,0,0
27057,3715,49795,0,0,0
27049,3709,49787,0,0,0
27048,3711,49786,0,0,0
27053,3719,49789,0,0,0
27065,3734,49798,0,0,0
27092,3763,49824,0,0,0
27136,3810,49869,0,0,0
27197,3869,49938,0,0,0
27279,3948,50042,0,0,0
27391,4055,50202,0,0,0
27543,4203,50435,0,0,0
27739,4392,50751,0,0,0
27981,4625,51155,0,0,0
28268,4903,51648,0,0,0
28596,5223,52213,0,0,0
28951,5570,52827,0,0,0
29323,5930,53469,0,0,0
29705,6297,54122,0,0,0
30080,6653,54759,0,0,0
30426,6979,55348,0,0,0
30732,7263,55869,0,0,0
30996,7504,56315,0,0,0
31214,7700,56679,0,0,0
31376,7844,56958,0,0,0
31484,7936,57153,0,0,0
31548,7986,57274,0,0,0
31575,8000,57331,0,0,0
31566,7979,57329,0,0,0
31529,7930,57273,0,0,0
31475,7864,57179,0,0,0
31409,7787,57059,0,0,0
31332,7700,56917,0,0,0
31249,7608,56759,0,0,0
31169,7520,56598,0,0,0
31088,7433,56434,0,0,0
30995,7338,56261,0,0,0
30894,7238,56081,0,0,0
30794,7144,55903,0,0,0
30694,7058,55731,0,0,0
30594,6972,55564,0,0,0
30497,6886,55406,0,0,0
30411,6811,55264,0,0,0
30332,6741,55138,0,0,0
30256,6673,55021,0,0,0
30187,6610,54915,0,0,0
30135,6562,54831,0,0,0
30095,6526,54764,0,0,0
30062,6493,54704,0,0,0
30037,6466,54656,0,0,0
30020,6444,54620,0,0,0
30004,6422,54590,0,0,0
29982,6394,54555,0,0,0
29957,6363,54517,0,0,0
29928,6333,54476,0,0,0
29886,6299,54423,0,0,0
29827,6249,54350,0,0,0
29760,6186,54261,0,0,0
29687,6115,54160,0,0,0
29603,6032,54043,0,0,0
29511,5938,53912,0,0,0
29424,5844,53777,0,0,0
29341,5755,53643,0,0,0
29260,5670,53510,0,0,0
29182,5588,53381,0,0,0
29115,5518,53266,0,0,0
29058,5464,53167,0,0,0
29003,5414,53077,0,0,0
28948,5368,52994,0,0,0
28901,5331,52927,0,0,0
28862,5306,52876,0,0,0
28825,5281,52831,0,0,0
28790,5249,52784,0,0,0
28760,5218,52742,0,0,0
28733,5189,52703,0,0,0
28701,5157,52666,0,0,0
28670,5129,52635,0,0,0
28648,5108,52611,0,0,0
28635,5091,52589,0,0,0
28621,5069,52562,0,0,0
28608,5047,52534,0,0,0
28600,5035,52515,0,0,0
28595,5030,52500,0,0,0
28591,5026,52483,0,0,0
28586,5022,52465,0,0,0
28580,5023,52452,0,0,0
28570,5027,52441,0,0,0
28558,5026,52423,0,0,0
28549,5024,52398,0,0,0
28547,5027,52372,0,0,0
28545,5025,52341,0,0,0
28536,5015,52304,0,0,0
28525,5003,52265,0,0,0
28518,4994,52229,0,0,0
28510,4983,52193,0,0,0
28501,4968,52152,0,0,0
28494,4954,52109,0,0,0
28488,4946,52068,0,0,0
28480,4940,52025,0,0,0
28467,4927,51977,0,0,0
28452,4910,51923,0,0,0
28432,4887,51868,0,0,0
28404,4854,51805,0,0,0
28364,4811,51735,0,0,0
28320,4762,51665,0,0,0
28273,4714,51596,0,0,0
28220,4664,51527,0,0,0
28167,4616,51457,0,0,0
28124,4577,51394,0,0,0
28089,4547,51339,0,0,0
28058,4518,51288,0,0,0
28029,4488,51238,0,0,0
28005,4468,51194,0,0,0
27985,4459,51157,0,0,0
27962,4447,51118,0,0,0
27933,4426,51075,0,0,0
27903,4401,51032,0,0,0
27872,4372,50990,0,0,0
27840,4337,50943,0,0,0
27812,4306,50896,0,0,0
27793,4282,50859,0,0,0
27775,4264,50829,0,0,0
27754,4245,50801,0,0,0
27738,4228,50776,0,0,0
27731,4217,50761,0,0,0
27731,4210,50751,0,0,0
27728,4199,50735,0,0,0
27721,4186,50713,0,0,0
27712,4178,50696,0,0,0
27697,4170,50677,0,0,0
27671,4151,50645,0,0,0
27642,4126,50606,0,0,0
27616,4103,50568,0,0,0
27588,4076,50530,0,0,0
27553,4041,50486,0,0,0
27522,4006,50439,0,0,0
27495,3976,50393,0,0,0
27467,3946,50347,0,0,0
27434,3915,50301,0,0,0
27400,3889,50262,0,0,0
27366,3867,50234,0,0,0
27332,3845,50211,0,0,0
27298,3820,50187,0,0,0
27269,3797,50164,0,0,0
27245,3779,50145,0,0,0
27223,3761,50125,0,0,0
27203,3739,50101,0,0,0
27186,3717,50077,0,0,0
27168,3697,50057,0,0,0
27149,3678,50035,0,0,0
27129,3657,50009,0,0,0
27118,3641,49989,0,0,0
27115,3633,49977,0,0,0
27114,3628,49966,0,0,0
27112,3625,49959,0,0,0
27112,3631,49958,0,0,0
27115,3642,49959,0,0,0
27117,3649,49955,0,0,0
27120,3651,49946,0,0,0
27130,3659,49940,0,0,0
27144,3674,49940,0,0,0
27155,3691,49941,0,0,0
27163,3707,49940,0,0,0
27173,3727,49942,0,0,0
27182,3752,49949,0,0,0
27190,3775,49956,0,0,0
27201,3793,49963,0,0,0
27219,3811,49976,0,0,0
27241,3830,49993,0,0,0
27266,3848,50012,0,0,0
27293,3872,50034,0,0,0
27323,3902,50060,0,0,0
27350,3932,50083,0,0,0
27368,3956,50097,0,0,0
27381,3972,50104,0,0,0
27393,3981,50110,0,0,0
27400,3981,50110,0,0,0
27390,3968,50101,0,0,0
27370,3944,50088,0,0,0
27345,3920,50073,0,0,0
27314,3892,50050,0,0,0
27274,3855,50013,0,0,0
27233,3814,49966,0,0,0
27197,3775,49922,0,0,0
27163,3736,49880,0,0,0
27128,3698,49839,0,0,0
27095,3667,49804,0,0,0
27065,3645,49777,0,0,0
27033,3627,49752,0,0,0
27004,3611,49728,0,0,0
26985,3602,49713,0,0,0
26975,3600,49707,0,0,0
26965,3596,49704,0,0,0
26955,3587,49700,0,0,0
26946,3577,49697,0,0,0
26934,3568,49693,0,0,0
26918,3556,49687,0,0,0
26906,3541,49681,0,0,0
26904,3536,49686,0,0,0
26916,3545,49708,0,0,0
26938,3567,49749,0,0,0
26976,3606,49822,0,0,0
27047,3677,49949,0,0,0
27156,3786,50141,0,0,0
27301,3931,50398,0,0,0
27485,4110,50729,0,0,0
27714,4330,51134,0,0,0
27979,4581,51597,0,0,0
28257,4844,52088,0,0,0
28535,5106,52588,0,0,0
28806,5362,53083,0,0,0
29054,5598,53547,0,0,0
29269,5800,53957,0,0,0
29451,5966,54307,0,0,0
29602,6098,54597,0,0,0
29714,6194,54818,0,0,0
29782,6249,54964,0,0,0
29814,6269,55040,0,0,0
29816,6260,55057,0,0,0
29788,6226,55017,0,0,0
29735,6168,54928,0,0,0
29664,6094,54800,0,0,0
29582,6010,54645,0,0,0
29485,5912,54463,0,0,0
29366,5797,54253,0,0,0
29234,5670,54024,0,0,0
29097,5541,53788,0,0,0
28952,5403,53543,0,0,0
28796,5253,53289,0,0,0
28640,5100,53042,0,0,0
28487,4952,52808,0,0,0
28334,4806,52580,0,0,0
28185,4660,52355,0,0,0
28055,4525,52147,0,0,0
27947,4409,51960,0,0,0
27850,4304,51790,0,0,0
27755,4206,51635,0,0,0
27671,4121,51500,0,0,0
27599,4052,51386,0,0,0
27531,3991,51288,0,0,0
27469,3937,51204,0,0,0
27418,3895,51137,0,0,0
27380,3863,51084,0,0,0
27348,3836,51040,0,0,0
27324,3819,51003,0,0,0
27310,3812,50977,0,0,0
27305,3811,50959,0,0,0
27301,3812,50945,0,0,0
27300,3819,50933,0,0,0
27309,3835,50932,0,0,0
27327,3856,50938,0,0,0
27347,3875,50942,0,0,0
27366,3894,50948,0,0,0
27386,3917,50960,0,0,0
27403,3936,50973,0,0,0
27412,3946,50981,0,0,0
27421,3952,50987,0,0,0
27435,3964,50998,0,0,0
27445,3975,51011,0,0,0
27445,3982,51017,0,0,0
27440,3987,51017,0,0,0
27430,3988,51015,0,0,0
27413,3981,51008,0,0,0
27390,3966,50994,0,0,0
27370,3951,50978,0,0,0
27353,3935,50965,0,0,0
27329,3909,50947,0,0,0
27299,3873,50921,0,0,0
27272,3840,50893,0,0,0
27248,3815,50864,0,0,0
27221,3790,50830,0,0,0
27193,3760,50791,0,0,0
27171,3731,50754,0,0,0
27157,3709,50725,0,0,0
27147,3689,50701,0,0,0
27142,3675,50682,0,0,0
27144,3669,50669,0,0,0
27149,3668,50660,0,0,0
27150,3665,50647,0,0,0
27150,3661,50628,0,0,0
27152,3660,50614,0,0,0
27155,3658,50604,0,0,0
27154,3649,50589,0,0,0
27148,3637,50570,0,0,0
27139,3627,50552,0,0,0
27127,3617,50534,0,0,0
27108,3601,50511,0,0,0
27082,3579,50483,0,0,0
27061,3561,50457,0,0,0
27047,3552,50436,0,0,0
27035,3545,50415,0,0,0
27023,3541,50396,0,0,0
27014,3541,50385,0,0,0
27006,3541,50377,0,0,0
26998,3539,50366,0,0,0
26995,3539,50357,0,0,0
27003,3543,50355,0,0,0
27014,3548,50356,0,0,0
27022,3549,50355,0,0,0
27030,3551,50354,0,0,0
27041,3555,50355,0,0,0
27046,3555,50351,0,0,0
27043,3546,50339,0,0,0
27035,3532,50324,0,0,0
27026,3521,50316,0,0,0
27016,3515,50312,0,0,0
27007,3513,50307,0,0,0
27007,3515,50302,0,0,0
27016,3521,50299,0,0,0
27027,3525,50295,0,0,0
27038,3528,50290,0,0,0
27052,3536,50286,0,0,0
27071,3553,50292,0,0,0
27091,3572,50306,0,0,0
27109,3591,50323,0,0,0
27132,3612,50343,0,0,0
27159,3639,50366,0,0,0
27187,3664,50386,0,0,0
27213,3685,50400,0,0,0
27241,3707,50414,0,0,0
27270,3732,50431,0,0,0
27291,3754,50448,0,0,0
27307,3772,50462,0,0,0
27319,3785,50471,0,0,0
27327,3796,50478,0,0,0
27329,3804,50483,0,0,0
27330,3811,50487,0,0,0
27336,3820,50496,0,0,0
27347,3828,50506,0,0,0
27356,3832,50510,0,0,0
27363,3838,50511,0,0,0
27372,3847,50521,0,0,0
27383,3859,50536,0,0,0
27393,3870,50549,0,0,0
27403,3884,50560,0,0,0
27413,3902,50577,0,0,0
27419,3917,50594,0,0,0
27418,3923,50602,0,0,0
27414,3921,50602,0,0,0
27409,3917,50600,0,0,0
27401,3910,50592,0,0,0
27389,3898,50576,0,0,0
27379,3886,50559,0,0,0
27372,3876,50545,0,0,0
27361,3867,50534,0,0,0
27349,3853,50523,0,0,0
27344,3845,50518,0,0,0
27352,3852,50526,0,0,0
27367,3870,50544,0,0,0
27385,3892,50562,0,0,0
27410,3922,50584,0,0,0
27440,3957,50612,0,0,0
27471,3989,50642,0,0,0
27505,4022,50672,0,0,0
27546,4060,50709,0,0,0
27591,4102,50748,0,0,0
27635,4144,50787,0,0,0
27677,4183,50824,0,0,0
27719,4222,50859,0,0,0
27762,4262,50892,0,0,0
27806,4301,50924,0,0,0
27851,4342,50959,0,0,0
27898,4387,50995,0,0,0
27945,4435,51028,0,0,0
27991,4483,51060,0,0,0
28040,4533,51097,0,0,0
28094,4586,51139,0,0,0
28150,4642,51187,0,0,0
28212,4701,51251,0,0,0
28287,4770,51346,0,0,0
28382,4860,51478,0,0,0
28500,4977,51652,0,0,0
28637,5120,51872,0,0,0
28799,5284,52142,0,0,0
28987,5471,52463,0,0,0
29199,5677,52822,0,0,0
29424,5890,53208,0,0,0
29654,6108,53609,0,0,0
29880,6326,54008,0,0,0
30087,6529,54382,0,0,0
30270,6708,54716,0,0,0
30433,6864,55006,0,0,0
30575,6996,55252,0,0,0
30688,7097,55446,0,0,0
30769,7162,55586,0,0,0
30821,7198,55673,0,0,0
30850,7210,55713,0,0,0
30850,7198,55707,0,0,0
30822,7160,55660,0,0,0
30775,7106,55577,0,0,0
30710,7041,55461,0,0,0
30629,6967,55317,0,0,0
30532,6881,55153,0,0,0
30423,6783,54973,0,0,0
30303,6674,54778,0,0,0
30173,6554,54570,0,0,0
30040,6426,54354,0,0,0
29909,6296,54138,0,0,0
29784,6170,53928,0,0,0
29663,6047,53726,0,0,0
29545,5928,53535,0,0,0
29439,5821,53361,0,0,0
29347,5730,53208,0,0,0
29268,5650,53071,0,0,0
29205,5581,52949,0,0,0
29159,5529,52847,0,0,0
29124,5493,52763,0,0,0
29093,5462,52693,0,0,0
29067,5435,52635,0,0,0
29050,5412,52591,0,0,0
29035,5392,52558,0,0,0
29022,5376,52532,0,0,0
29015,5368,52514,0,0,0
29015,5369,52501,0,0,0
29018,5374,52488,0,0,0
29019,5379,52474,0,0,0
29018,5384,52460,0,0,0
29017,5390,52447,0,0,0
29018,5395,52436,0,0,0
29020,5398,52425,0,0,0
29023,5404,52420,0,0,0
29027,5412,52418,0,0,0
29030,5418,52416,0,0,0
29035,5422,52416,0,0,0
29044,5426,52420,0,0,0
29053,5433,52430,0,0,0
29058,5438,52439,0,0,0
29061,5441,52447,0,0,0
29066,5447,52462,0,0,0
29070,5458,52481,0,0,0
29069,5466,52498,0,0,0
29065,5469,52510,0,0,0
29064,5470,52521,0,0,0
29069,5472,52533,0,0,0
29071,5476,52544,0,0,0
29073,5480,52554,0,0,0
29075,5485,52563,0,0,0
29075,5488,52571,0,0,0
29070,5485,52573,0,0,0
29065,5477,52571,0,0,0
29064,5471,52566,0,0,0
29064,5467,52554,0,0,0
29063,5462,52538,0,0,0
29060,5457,52527,0,0,0
29056,5454,52520,0,0,0
29050,5451,52507,0,0,0
29042,5447,52486,0,0,0
29032,5442,52460,0,0,0
29018,5435,52432,0,0,0
29004,5424,52397,0,0,0
28988,5407,52359,0,0,0
28971,5385,52321,0,0,0
28948,5359,52281,0,0,0
28920,5327,52234,0,0,0
28887,5292,52180,0,0,0
28855,5259,52130,0,0,0
28823,5229,52084,0,0,0
28788,5197,52033,0,0,0
28750,5162,51980,0,0,0
28713,5129,51931,0,0,0
28679,5098,51888,0,0,0
28647,5065,51846,0,0,0
28614,5029,51803,0,0,0
28583,4994,51763,0,0,0
28554,4963,51727,0,0,0
28524,4936,51697,0,0,0
28495,4912,51672,0,0,0
28467,4892,51654,0,0,0
28441,4876,51638,0,0,0
28420,4864,51621,0,0,0
28407,4856,51611,0,0,0
28400,4851,51603,0,0,0
28394,4845,51592,0,0,0
28385,4838,51577,0,0,0
28376,4827,51563,0,0,0
28369,4813,51549,0,0,0
28363,4800,51534,0,0,0
28356,4788,51517,0,0,0
28348,4779,51505,0,0,0
28341,4777,51497,0,0,0
28339,4784,51493,0,0,0
28341,4794,51493,0,0,0
28348,4803,51500,0,0,0
28356,4813,51507,0,0,0
28365,4823,51508,0,0,0
28376,4835,51509,0,0,0
28394,4848,51517,0,0,0
28419,4863,51531,0,0,0
28445,4882,51546,0,0,0
28470,4900,51560,0,0,0
28490,4916,51576,0,0,0
28508,4931,51592,0,0,0
28521,4944,51603,0,0,0
28530,4953,51608,0,0,0
28535,4957,51611,0,0,0
28543,4959,51610,0,0,0
28551,4961,51604,0,0,0
28558,4966,51595,0,0,0
28568,4977,51590,0,0,0
28580,4994,51588,0,0,0
28591,5013,51590,0,0,0
28605,5032,51598,0,0,0
28626,5052,51611,0,0,0
28647,5072,51624,0,0,0
28664,5093,51634,0,0,0
28677,5111,51644,0,0,0
28691,5126,51657,0,0,0
28704,5139,51668,0,0,0
28714,5148,51676,0,0,0
28719,5156,51683,0,0,0
28723,5164,51691,0,0,0
28730,5173,51697,0,0,0
28737,5184,51701,0,0,0
28743,5192,51706,0,0,0
28747,5196,51711,0,0,0
28747,5195,51709,0,0,0
28744,5189,51699,0,0,0
28741,5179,51689,0,0,0
28741,5169,51681,0,0,0
28740,5159,51672,0,0,0
28736,5151,51661,0,0,0
28731,5147,51653,0,0,0
28725,5143,51645,0,0,0
28718,5138,51630,0,0,0
28708,5129,51609,0,0,0
28697,5118,51589,0,0,0
28688,5104,51572,0,0,0
28683,5090,51555,0,0,0
28683,5081,51541,0,0,0
28689,5078,51536,0,0,0
28706,5088,51546,0,0,0
28739,5113,51577,0,0,0
28793,5161,51641,0,0,0
28877,5236,51756,0,0,0
28992,5347,51932,0,0,0
29137,5491,52170,0,0,0
29312,5666,52474,0,0,0
29521,5873,52851,0,0,0
29770,6118,53296,0,0,0
30051,6396,53793,0,0,0
30356,6692,54326,0,0,0
30672,7000,54879,0,0,0
30990,7310,55433,0,0,0
31297,7608,55966,0,0,0
31587,7880,56461,0,0,0
31855,8120,56903,0,0,0
32088,8325,57275,0,0,0
32273,8482,57570,0,0,0
32404,8590,57787,0,0,0
32484,8651,57926,0,0,0
32513,8668,57983,0,0,0
32494,8641,57965,0,0,0
32432,8576,57886,0,0,0
32338,8484,57755,0,0,0
32223,8370,57576,0,0,0
32092,8237,57361,0,0,0
31949,8090,57120,0,0,0
31799,7935,56867,0,0,0
31643,7780,56608,0,0,0
31483,7626,56346,0,0,0
31326,7476,56091,0,0,0
31176,7337,55848,0,0,0
31035,7209,55614,0,0,0
30901,7089,55391,0,0,0
30776,6975,55188,0,0,0
30660,6871,55004,0,0,0
30551,6773,54830,0,0,0
30447,6680,54667,0,0,0
30352,6592,54521,0,0,0
30266,6514,54394,0,0,0
30190,6442,54277,0,0,0
30123,6375,54167,0,0,0
30064,6311,54067,0,0,0
30007,6251,53972,0,0,0
29948,6193,53877,0,0,0
29891,6137,53782,0,0,0
29843,6086,53697,0,0,0
29802,6044,53620,0,0,0
29762,6006,53545,0,0,0
29721,5968,53472,0,0,0
29683,5933,53406,0,0,0
29646,5898,53343,0,0,0
29610,5864,53279,0,0,0
29577,5832,53220,0,0,0
29549,5807,53171,0,0,0
29530,5787,53128,0,0,0
29518,5774,53092,0,0,0
29512,5766,53069,0,0,0
29510,5766,53057,0,0,0
29512,5772,53051,0,0,0
29514,5780,53051,0,0,0
29520,5793,53063,0,0,0
29533,5813,53088,0,0,0
29553,5839,53117,0,0,0
29575,5865,53146,0,0,0
29597,5890,53180,0,0,0
29624,5917,53220,0,0,0
29655,5947,53260,0,0,0
29686,5976,53295,0,0,0
29714,5999,53328,0,0,0
29737,6020,53359,0,0,0
29756,6037,53381,0,0,0
29768,6046,53393,0,0,0
29766,6047,53398,0,0,0
29751,6037,53393,0,0,0
29725,6013,53367,0,0,0
29689,5976,53324,0,0,0
29648,5929,53270,0,0,0
29605,5880,53210,0,0,0
29560,5827,53139,0,0,0
29512,5771,53061,0,0,0
29458,5715,52985,0,0,0
29400,5659,52908,0,0,0
29337,5600,52823,0,0,0
29271,5536,52730,0,0,0
29206,5470,52639,0,0,0
29146,5410,52557,0,0,0
29091,5356,52478,0,0,0
29038,5305,52402,0,0,0
28983,5254,52329,0,0,0
28926,5206,52256,0,0,0
28871,5159,52183,0,0,0
28821,5112,52114,0,0,0
28778,5067,52048,0,0,0
28743,5030,51985,0,0,0
28712,5001,51928,0,0,0
28685,4976,51880,0,0,0
28662,4959,51843,0,0,0
28643,4945,51814,0,0,0
28627,4929,51787,0,0,0
28613,4917,51764,0,0,0
28603,4910,51748,0,0,0
28598,4905,51734,0,0,0
28597,4899,51722,0,0,0
28596,4894,51715,0,0,0
28599,4895,51717,0,0,0
28605,4905,51720,0,0,0
28610,4917,51722,0,0,0
28612,4927,51723,0,0,0
28614,4933,51723,0,0,0
28616,4938,51722,0,0,0
28617,4942,51718,0,0,0
28619,4945,51717,0,0,0
28628,4950,51720,0,0,0
28642,4960,51724,0,0,0
28658,4975,51728,0,0,0
28674,4993,51737,0,0,0
28688,5009,51747,0,0,0
28700,5026,51751,0,0,0
28708,5042,51748,0,0,0
28713,5055,51746,0,0,0
28717,5066,51743,0,0,0
28721,5076,51735,0,0,0
28726,5082,51726,0,0,0
28730,5084,51721,0,0,0
28731,5085,51721,0,0,0
28731,5084,51721,0,0,0
28730,5080,51718,0,0,0
28732,5073,51716,0,0,0
28736,5067,51714,0,0,0
28740,5062,51710,0,0,0
28741,5059,51705,0,0,0
28741,5058,51702,0,0,0
28740,5056,51700,0,0,0
28734,5052,51694,0,0,0
28717,5047,51684,0,0,0
28696,5044,51674,0,0,0
28678,5044,51660,0,0,0
28660,5037,51639,0,0,0
28641,5024,51619,0,0,0
28627,5012,51609,0,0,0
28620,5005,51606,0,0,0
28617,4999,51603,0,0,0
28616,4995,51603,0,0,0
28616,4996,51605,0,0,0
28620,4998,51605,0,0,0
28624,5000,51600,0,0,0
28624,4999,51595,0,0,0
28621,4995,51591,0,0,0
28618,4995,51586,0,0,0
28614,4997,51580,0,0,0
28607,4997,51574,0,0,0
28598,4993,51569,0,0,0
28586,4986,51560,0,0,0
28574,4977,51548,0,0,0
28564,4967,51541,0,0,0
28563,4959,51543,0,0,0
28568,4955,51546,0,0,0
28576,4953,51547,0,0,0
28587,4956,51549,0,0,0
28602,4962,51552,0,0,0
28617,4970,51553,0,0,0
28630,4976,51551,0,0,0
28642,4983,51555,0,0,0
28655,4996,51559,0,0,0
28668,5011,51559,0,0,0
28682,5026,51557,0,0,0
28694,5044,51564,0,0,0
28702,5062,51579,0,0,0
28704,5077,51593,0,0,0
28704,5084,51602,0,0,0
28703,5086,51606,0,0,0
28701,5086,51609,0,0,0
28698,5084,51609,0,0,0
28696,5082,51608,0,0,0
28700,5085,51608,0,0,0
28711,5093,51606,0,0,0
28722,5102,51604,0,0,0
28735,5112,51603,0,0,0
28752,5122,51605,0,0,0
28770,5133,51613,0,0,0
28786,5146,51626,0,0,0
28805,5166,51656,0,0,0
28837,5201,51716,0,0,0
28896,5263,51817,0,0,0
28991,5360,51978,0,0,0
29128,5497,52219,0,0,0
29313,5680,52555,0,0,0
29552,5916,52987,0,0,0
29840,6198,53501,0,0,0
30167,6514,54082,0,0,0
30524,6857,54704,0,0,0
30895,7210,55338,0,0,0
31262,7556,55958,0,0,0
31610,7882,56547,0,0,0
31927,8178,57081,0,0,0
32199,8428,57537,0,0,0
32417,8626,57903,0,0,0
32578,8773,58183,0,0,0
32690,8875,58379,0,0,0
32756,8932,58493,0,0,0
32780,8946,58530,0,0,0
32766,8922,58504,0,0,0
32720,8871,58429,0,0,0
32650,8799,58311,0,0,0
32560,8708,58156,0,0,0
32458,8602,57975,0,0,0
32345,8487,57774,0,0,0
32224,8365,57560,0,0,0
32097,8241,57341,0,0,0
31971,8124,57124,0,0,0
31850,8015,56911,0,0,0
31733,7910,56698,0,0,0
31625,7810,56491,0,0,0
31530,7718,56301,0,0,0
31445,7637,56129,0,0,0
31367,7563,55973,0,0,0
31295,7496,55837,0,0,0
31233,7440,55724,0,0,0
31182,7396,55629,0,0,0
31141,7363,55548,0,0,0
31108,7335,55482,0,0,0
31080,7315,55431,0,0,0
31059,7301,55391,0,0,0
31046,7290,55361,0,0,0
31034,7278,55338,0,0,0
31019,7263,55314,0,0,0
31000,7245,55282,0,0,0
30975,7222,55241,0,0,0
30947,7192,55194,0,0,0
30918,7156,55137,0,0,0
30882,7112,55064,0,0,0
30837,7063,54978,0,0,0
30787,7013,54891,0,0,0
30736,6965,54810,0,0,0
30687,6920,54730,0,0,0
30642,6876,54652,0,0,0
30602,6834,54582,0,0,0
30572,6802,54524,0,0,0
30551,6782,54474,0,0,0
30536,6767,54431,0,0,0
30524,6757,54400,0,0,0
30517,6750,54380,0,0,0
30513,6743,54369,0,0,0
30511,6737,54365,0,0,0
30511,6734,54371,0,0,0
30516,6739,54386,0,0,0
30526,6747,54403,0,0,0
30539,6758,54422,0,0,0
30552,6774,54446,0,0,0
30567,6796,54474,0,0,0
30581,6820,54497,0,0,0
30591,6842,54516,0,0,0
30597,6859,54537,0,0,0
30597,6869,54555,0,0,0
30592,6874,54563,0,0,0
30583,6872,54560,0,0,0
30570,6863,54544,0,0,0
30553,6847,54516,0,0,0
30533,6827,54477,0,0,0
30507,6802,54428,0,0,0
30478,6773,54372,0,0,0
30447,6741,54311,0,0,0
30411,6706,54244,0,0,0
30373,6668,54179,0,0,0
30340,6631,54115,0,0,0
30311,6596,54046,0,0,0
30281,6560,53971,0,0,0
30245,6520,53898,0,0,0
30209,6478,53829,0,0,0
30170,6435,53756,0,0,0
30126,6391,53677,0,0,0
30078,6343,53599,0,0,0
30031,6296,53523,0,0,0
29987,6253,53444,0,0,0
29946,6214,53365,0,0,0
29906,6179,53293,0,0,0
29865,6146,53229,0,0,0
29823,6113,53166,0,0,0
29775,6075,53101,0,0,0
29726,6034,53036,0,0,0
29676,5990,52974,0,0,0
29626,5946,52909,0,0,0
29576,5900,52844,0,0,0
29527,5853,52785,0,0,0
29482,5809,52732,0,0,0
29441,5770,52675,0,0,0
29404,5734,52620,0,0,0
29370,5701,52573,0,0,0
29341,5674,52533,0,0,0
29318,5651,52495,0,0,0
29297,5629,52457,0,0,0
29280,5611,52425,0,0,0
29265,5598,52401,0,0,0
29253,5587,52378,0,0,0
29244,5578,52356,0,0,0
29241,5570,52341,0,0,0
29244,5567,52328,0,0,0
29250,5568,52315,0,0,0
29255,5572,52305,0,0,0
29262,5579,52303,0,0,0
29267,5585,52302,0,0,0
29266,5587,52295,0,0,0
29259,5585,52286,0,0,0
29252,5585,52280,0,0,0
29248,5589,52277,0,0,0
29249,5593,52275,0,0,0
29248,5590,52271,0,0,0
29243,5583,52266,0,0,0
29234,5572,52251,0,0,0
29221,5552,52228,0,0,0
29204,5530,52205,0,0,0
29189,5514,52186,0,0,0
29174,5501,52167,0,0,0
29156,5483,52142,0,0,0
29136,5460,52120,0,0,0
29117,5437,52105,0,0,0
29104,5423,52088,0,0,0
29095,5412,52070,0,0,0
29090,5405,52060,0,0,0
29091,5403,52058,0,0,0
29095,5409,52059,0,0,0
29101,5422,52064,0,0,0
29107,5438,52075,0,0,0
29111,5449,52087,0,0,0
29114,5453,52091,0,0,0
29113,5450,52087,0,0,0
29109,5444,52079,0,0,0
29104,5438,52072,0,0,0
29095,5431,52063,0,0,0
29082,5419,52048,0,0,0
29068,5400,52033,0,0,0
29054,5383,52021,0,0,0
29041,5371,52008,0,0,0
29031,5362,51993,0,0,0
29026,5358,51979,0,0,0
29025,5358,51966,0,0,0
29022,5359,51951,0,0,0
29016,5358,51935,0,0,0
29008,5354,51920,0,0,0
29002,5352,51906,0,0,0
28993,5349,51892,0,0,0
28982,5346,51879,0,0,0
28973,5345,51871,0,0,0
28969,5347,51865,0,0,0
28969,5348,51857,0,0,0
28975,5348,51853,0,0,0
28989,5353,51859,0,0,0
29006,5361,51869,0,0,0
29020,5369,51878,0,0,0
29030,5376,51885,0,0,0
29037,5385,51893,0,0,0
29045,5396,51903,0,0,0
29051,5407,51910,0,0,0
29054,5414,51915,0,0,0
29056,5418,51918,0,0,0
29055,5421,51916,0,0,0
29054,5423,51912,0,0,0
29052,5423,51908,0,0,0
29048,5420,51904,0,0,0
29041,5415,51895,0,0,0
29032,5410,51884,0,0,0
29023,5404,51875,0,0,0
29013,5396,51866,0,0,0
29003,5391,51853,0,0,0
28995,5384,51837,0,0,0
28991,5376,51824,0,0,0
28987,5370,51815,0,0,0
28978,5361,51803,0,0,0
28966,5349,51787,0,0,0
28955,5335,51772,0,0,0
28942,5321,51758,0,0,0
28927,5308,51742,0,0,0
28911,5297,51727,0,0,0
28899,5291,51717,0,0,0
28894,5290,51714,0,0,0
28893,5293,51711,0,0,0
28894,5295,51711,0,0,0
28898,5298,51717,0,0,0
28906,5303,51729,0,0,0
28917,5308,51743,0,0,0
28933,5315,51768,0,0,0
28963,5337,51817,0,0,0
29015,5389,51908,0,0,0
29101,5480,52059,0,0,0
29234,5615,52293,0,0,0
29425,5802,52626,0,0,0
29675,6047,53059,0,0,0
29976,6343,53580,0,0,0
30316,6677,54173,0,0,0
30681,7031,54814,0,0,0
31058,7388,55468,0,0,0
31429,7732,56105,0,0,0
31778,8053,56707,0,0,0
32097,8344,57252,0,0,0
32375,8595,57717,0,0,0
32604,8800,58089,0,0,0
32780,8954,58372,0,0,0
32907,9066,58573,0,0,0
32990,9139,58693,0,0,0
33029,9171,58737,0,0,0
33026,9162,58720,0,0,0
32989,9120,58654,0,0,0
32924,9049,58540,0,0,0
32833,8952,58382,0,0,0
32715,8829,58185,0,0,0
32572,8683,57950,0,0,0
32408,8518,57678,0,0,0
32227,8339,57379,0,0,0
32037,8150,57068,0,0,0
31845,7961,56752,0,0,0
31651,7773,56435,0,0,0
31463,7590,56127,0,0,0
31288,7419,55840,0,0,0
31129,7263,55579,0,0,0
30985,7122,55341,0,0,0
30857,6995,55129,0,0,0
30746,6882,54945,0,0,0
30653,6787,54785,0,0,0
30574,6708,54641,0,0,0
30509,6644,54518,0,0,0
30459,6596,54418,0,0,0
30420,6560,54337,0,0,0
30390,6532,54268,0,0,0
30367,6509,54212,0,0,0
30346,6487,54167,0,0,0
30329,6466,54129,0,0,0
30312,6444,54091,0,0,0
30296,6422,54054,0,0,0
30281,6406,54019,0,0,0
30267,6396,53983,0,0,0
30253,6391,53946,0,0,0
30241,6385,53913,0,0,0
30234,6382,53888,0,0,0
30232,6384,53864,0,0,0
30231,6392,53842,0,0,0
30232,6401,53829,0,0,0
30236,6414,53824,0,0,0
30243,6432,53821,0,0,0
30249,6449,53819,0,0,0
30254,6461,53822,0,0,0
30257,6468,53826,0,0,0
30261,6473,53827,0,0,0
30265,6474,53824,0,0,0
30270,6472,53821,0,0,0
30275,6466,53815,0,0,0
30278,6457,53803,0,0,0
30278,6446,53788,0,0,0
30277,6438,53781,0,0,0
30280,6437,53782,0,0,0
30289,6443,53787,0,0,0
30306,6457,53797,0,0,0
30331,6478,53817,0,0,0
30360,6507,53846,0,0,0
30392,6543,53878,0,0,0
30422,6577,53909,0,0,0
30445,6602,53937,0,0,0
30461,6617,53954,0,0,0
30469,6623,53956,0,0,0
30471,6624,53944,0,0,0
30469,6619,53924,0,0,0
30460,6608,53896,0,0,0
30441,6589,53856,0,0,0
30412,6563,53809,0,0,0
30379,6534,53760,0,0,0
30342,6505,53707,0,0,0
30303,6474,53646,0,0,0
30269,6443,53582,0,0,0
30243,6415,53523,0,0,0
30220,6390,53467,0,0,0
30198,6361,53412,0,0,0
30173,6327,53356,0,0,0
30144,6291,53304,0,0,0
30114,6258,53251,0,0,0
30084,6226,53195,0,0,0
30055,6194,53141,0,0,0
30028,6163,53090,0,0,0
29999,6133,53038,0,0,0
29967,6102,52985,0,0,0
29936,6069,52936,0,0,0
29906,6036,52889,0,0,0
29873,6001,52840,0,0,0
29839,5963,52787,0,0,0
29808,5922,52736,0,0,0
29782,5884,52690,0,0,0
29764,5855,52646,0,0,0
29752,5836,52606,0,0,0
29747,5828,52578,0,0,0
29746,5830,52563,0,0,0
29749,5837,52552,0,0,0
29752,5847,52543,0,0,0
29759,5859,52544,0,0,0
29772,5873,52553,0,0,0
29791,5895,52564,0,0,0
29813,5923,52577,0,0,0
29839,5956,52596,0,0,0
29867,5989,52618,0,0,0
29899,6022,52638,0,0,0
29931,6053,52658,0,0,0
29962,6082,52678,0,0,0
29990,6108,52694,0,0,0
30014,6128,52702,0,0,0
30032,6142,52704,0,0,0
30049,6156,52704,0,0,0
30065,6174,52702,0,0,0
30077,6190,52694,0,0,0
30083,6201,52683,0,0,0
30084,6209,52676,0,0,0
30081,6214,52666,0,0,0
30073,6206,52649,0,0,0
30060,6185,52629,0,0,0
30043,6160,52606,0,0,0
30026,6135,52579,0,0,0
30008,6111,52546,0,0,0
29990,6089,52517,0,0,0
29973,6070,52494,0,0,0
29957,6053,52469,0,0,0
29942,6038,52444,0,0,0
29929,6024,52426,0,0,0
29919,6013,52412,0,0,0
29910,6000,52395,0,0,0
29899,5984,52375,0,0,0
29883,5968,52359,0,0,0
29867,5957,52348,0,0,0
29852,5947,52335,0,0,0
29836,5936,52320,0,0,0
29820,5923,52308,0,0,0
29810,5912,52297,0,0,0
29808,5902,52281,0,0,0
29806,5891,52264,0,0,0
29803,5881,52251,0,0,0
29800,5873,52241,0,0,0
29797,5864,52226,0,0,0
29790,5851,52203,0,0,0
29779,5834,52176,0,0,0
29764,5816,52147,0,0,0
29743,5795,52115,0,0,0
29717,5771,52080,0,0,0
29689,5743,52047,0,0,0
29658,5714,52016,0,0,0
29623,5684,51981,0,0,0
29585,5650,51943,0,0,0
29549,5613,51905,0,0,0
29518,5579,51866,0,0,0
29489,5545,51825,0,0,0
29457,5508,51783,0,0,0
29426,5471,51746,0,0,0
29398,5435,51713,0,0,0
29371,5400,51682,0,0,0
29343,5365,51653,0,0,0
29316,5330,51624,0,0,0
29294,5300,51595,0,0,0
29278,5270,51569,0,0,0
29263,5242,51551,0,0,0
29248,5219,51541,0,0,0
29234,5202,51533,0,0,0
29219,5186,51522,0,0,0
29205,5170,51516,0,0,0
29198,5158,51512,0,0,0
29195,5151,51501,0,0,0
29192,5145,51484,0,0,0
29191,5137,51471,0,0,0
29190,5128,51464,0,0,0
29192,5123,51457,0,0,0
29194,5121,51448,0,0,0
29197,5120,51439,0,0,0
29202,5124,51430,0,0,0
29206,5129,51418,0,0,0
29206,5133,51407,0,0,0
29203,5133,51404,0,0,0
29200,5132,51405,0,0,0
29194,5131,51400,0,0,0
29187,5128,51388,0,0,0
29180,5122,51376,0,0,0
29174,5113,51364,0,0,0
29165,5098,51348,0,0,0
29153,5077,51327,0,0,0
29140,5053,51305,0,0,0
29129,5030,51285,0,0,0
29119,5006,51266,0,0,0
29113,4984,51251,0,0,0
29114,4968,51252,0,0,0
29126,4965,51273,0,0,0
29154,4980,51320,0,0,0
29207,5023,51413,0,0,0
29298,5105,51568,0,0,0
29433,5235,51799,0,0,0
29611,5411,52110,0,0,0
29828,5626,52504,0,0,0
30077,5873,52967,0,0,0
30351,6143,53471,0,0,0
30638,6422,53992,0,0,0
30924,6695,54506,0,0,0
31198,6952,54994,0,0,0
31450,7182,55437,0,0,0
31668,7378,55818,0,0,0
31848,7536,56129,0,0,0
31985,7654,56364,0,0,0
32079,7731,56522,0,0,0
32130,7767,56605,0,0,0
32143,7767,56618,0,0,0
32123,7737,56570,0,0,0
32068,7676,56465,0,0,0
31980,7586,56306,0,0,0
31868,7477,56106,0,0,0
31742,7358,55879,0,0,0
31608,7233,55629,0,0,0
31465,7099,55364,0,0,0
31318,6958,55095,0,0,0
31172,6817,54830,0,0,0
31033,6679,54571,0,0,0
30904,6544,54322,0,0,0
30781,6417,54089,0,0,0
30665,6299,53871,0,0,0
30556,6193,53667,0,0,0
30455,6094,53481,0,0,0
30362,6002,53316,0,0,0
30276,5917,53172,0,0,0
30198,5840,53043,0,0,0
