green_channel,red_channel,ir_channel,Anomaly_ch0,Anomaly_ch1,Anomaly_ch2
37823,36484,53904,0,0,0
37823,36480,53907,0,0,0
37823,36478,53909,0,0,0
37824,36476,53906,0,0,0
37821,36474,53896,0,0,0
37817,36471,53882,0,0,0
37811,36469,53867,0,0,0
37802,36462,53847,0,0,0
37788,36449,53820,0,0,0
37771,36435,53786,0,0,0
37753,36422,53749,0,0,0
37734,36404,53710,0,0,0
37711,36382,53670,0,0,0
37688,36358,53627,0,0,0
37665,36332,53581,0,0,0
37641,36302,53531,0,0,0
37611,36266,53477,0,0,0
37576,36228,53424,0,0,0
37542,36194,53372,0,0,0
37509,36160,53317,0,0,0
37474,36122,53257,0,0,0
37441,36087,53196,0,0,0
37412,36057,53136,0,0,0
37383,36029,53079,0,0,0
37355,35999,53027,0,0,0
37331,35971,52982,0,0,0
37312,35950,52941,0,0,0
37293,35931,52902,0,0,0
37275,35912,52865,0,0,0
37261,35895,52830,0,0,0
37246,35879,52798,0,0,0
37226,35861,52765,0,0,0
37206,35844,52734,0,0,0
37188,35830,52706,0,0,0
37170,35818,52680,0,0,0
37150,35803,52651,0,0,0
37131,35786,52623,0,0,0
37116,35772,52600,0,0,0
37103,35757,52577,0,0,0
37088,35738,52553,0,0,0
37070,35718,52528,0,0,0
37055,35699,52503,0,0,0
37044,35682,52476,0,0,0
37033,35667,52448,0,0,0
37022,35656,52420,0,0,0
37013,35649,52396,0,0,0
37005,35643,52377,0,0,0
36994,35634,52357,0,0,0
36978,35622,52339,0,0,0
36962,35610,52322,0,0,0
36949,35598,52302,0,0,0
36937,35583,52276,0,0,0
36925,35569,52250,0,0,0
36914,35556,52227,0,0,0
36901,35543,52203,0,0,0
36888,35528,52178,0,0,0
36872,35512,52154,0,0,0
36854,35498,52135,0,0,0
36834,35483,52117,0,0,0
36812,35466,52095,0,0,0
36791,35448,52069,0,0,0
36774,35432,52044,0,0,0
36761,35418,52023,0,0,0
36752,35404,52006,0,0,0
36749,35393,51991,0,0,0
36750,35385,51978,0,0,0
36750,35379,51965,0,0,0
36747,35372,51949,0,0,0
36742,35366,51930,0,0,0
36737,35361,51910,0,0,0
36730,35355,51891,0,0,0
36719,35342,51870,0,0,0
36705,35330,51848,0,0,0
36690,35320,51825,0,0,0
36673,35309,51798,0,0,0
36652,35293,51766,0,0,0
36629,35273,51733,0,0,0
36607,35253,51700,0,0,0
36587,35234,51669,0,0,0
36567,35215,51635,0,0,0
36551,35196,51597,0,0,0
36543,35179,51557,0,0,0
36540,35163,51518,0,0,0
36538,35143,51481,0,0,0
36534,35124,51452,0,0,0
36529,35110,51438,0,0,0
36524,35103,51434,0,0,0
36520,35105,51440,0,0,0
36524,35122,51462,0,0,0
36543,35154,51510,0,0,0
36579,35202,51583,0,0,0
36635,35270,51686,0,0,0
36712,35363,51828,0,0,0
36811,35480,52010,0,0,0
36929,35614,52225,0,0,0
37066,35766,52472,0,0,0
37220,35933,52751,0,0,0
37385,36109,53055,0,0,0
37555,36288,53376,0,0,0
37727,36470,53706,0,0,0
37903,36655,54039,0,0,0
38076,36836,54363,0,0,0
38241,37008,54669,0,0,0
38396,37170,54952,0,0,0
38538,37318,55210,0,0,0
38662,37447,55435,0,0,0
38766,37551,55622,0,0,0
38852,37633,55771,0,0,0
38920,37697,55889,0,0,0
38965,37743,55976,0,0,0
38992,37770,56032,0,0,0
39007,37783,56061,0,0,0
39009,37787,56068,0,0,0
38998,37779,56056,0,0,0
38976,37761,56025,0,0,0
38951,37738,55982,0,0,0
38926,37713,55936,0,0,0
38899,37683,55883,0,0,0
38868,37647,55822,0,0,0
38835,37609,55761,0,0,0
38802,37570,55706,0,0,0
38771,37531,55657,0,0,0
38743,37496,55612,0,0,0
38718,37472,55576,0,0,0
38697,37457,55546,0,0,0
38681,37443,55518,0,0,0
38670,37429,55495,0,0,0
38661,37417,55477,0,0,0
38652,37406,55461,0,0,0
38639,37396,55445,0,0,0
38628,37388,55427,0,0,0
38618,37381,55411,0,0,0
38608,37373,55399,0,0,0
38598,37364,55385,0,0,0
38590,37355,55369,0,0,0
38583,37348,55354,0,0,0
38576,37338,55336,0,0,0
38564,37322,55311,0,0,0
38547,37304,55280,0,0,0
38527,37284,55243,0,0,0
38503,37260,55199,0,0,0
38475,37232,55146,0,0,0
38446,37201,55088,0,0,0
38415,37169,55022,0,0,0
38382,37134,54944,0,0,0
38342,37095,54858,0,0,0
38302,37055,54771,0,0,0
38266,37016,54693,0,0,0
38227,36979,54622,0,0,0
38186,36944,54558,0,0,0
38149,36913,54503,0,0,0
38119,36886,54460,0,0,0
38098,36862,54425,0,0,0
38080,36841,54393,0,0,0
38065,36825,54367,0,0,0
38056,36814,54350,0,0,0
38049,36805,54335,0,0,0
38041,36795,54319,0,0,0
38032,36786,54306,0,0,0
38026,36779,54296,0,0,0
38021,36773,54286,0,0,0
38014,36762,54275,0,0,0
38008,36753,54267,0,0,0
38005,36749,54262,0,0,0
38003,36745,54256,0,0,0
37999,36738,54248,0,0,0
37994,36733,54240,0,0,0
37989,36733,54232,0,0,0
37986,36731,54224,0,0,0
37987,36727,54212,0,0,0
37989,36723,54195,0,0,0
37988,36714,54175,0,0,0
37980,36701,54150,0,0,0
37967,36685,54120,0,0,0
37950,36671,54088,0,0,0
37928,36655,54054,0,0,0
37900,36636,54018,0,0,0
37872,36613,53978,0,0,0
37843,36587,53938,0,0,0
37811,36557,53896,0,0,0
37774,36524,53845,0,0,0
37737,36488,53788,0,0,0
37702,36453,53728,0,0,0
37669,36422,53668,0,0,0
37635,36392,53607,0,0,0
37601,36364,53551,0,0,0
37571,36337,53498,0,0,0
37547,36307,53447,0,0,0
37528,36275,53395,0,0,0
37511,36245,53346,0,0,0
37494,36217,53301,0,0,0
37473,36189,53257,0,0,0
37447,36159,53213,0,0,0
37422,36133,53170,0,0,0
37399,36112,53129,0,0,0
37377,36092,53091,0,0,0
37354,36072,53053,0,0,0
37331,36052,53015,0,0,0
37310,36034,52980,0,0,0
37289,36015,52944,0,0,0
37267,35993,52908,0,0,0
37245,35972,52876,0,0,0
37226,35951,52846,0,0,0
37208,35932,52815,0,0,0
37191,35914,52785,0,0,0
37177,35897,52759,0,0,0
37163,35884,52736,0,0,0
37148,35870,52713,0,0,0
37133,35857,52691,0,0,0
37122,35847,52671,0,0,0
37112,35839,52650,0,0,0
37103,35832,52628,0,0,0
37097,35827,52607,0,0,0
37094,35821,52589,0,0,0
37088,35811,52570,0,0,0
37075,35798,52550,0,0,0
37059,35783,52528,0,0,0
37044,35769,52506,0,0,0
37026,35752,52480,0,0,0
37006,35729,52451,0,0,0
36990,35706,52423,0,0,0
36977,35687,52399,0,0,0
36967,35670,52375,0,0,0
36954,35651,52350,0,0,0
36939,35633,52327,0,0,0
36926,35621,52308,0,0,0
36914,35610,52290,0,0,0
36900,35597,52271,0,0,0
36884,35585,52254,0,0,0
36870,35573,52238,0,0,0
36858,35560,52220,0,0,0
36844,35544,52200,0,0,0
36829,35530,52177,0,0,0
36813,35519,52155,0,0,0
36795,35508,52131,0,0,0
36776,35494,52104,0,0,0
36761,35478,52078,0,0,0
36749,35461,52051,0,0,0
36736,35441,52018,0,0,0
36723,35416,51978,0,0,0
36711,35392,51941,0,0,0
36697,35373,51909,0,0,0
36682,35356,51879,0,0,0
36664,35339,51847,0,0,0
36646,35324,51816,0,0,0
36627,35309,51788,0,0,0
36607,35291,51758,0,0,0
36588,35269,51725,0,0,0
36572,35245,51693,0,0,0
36559,35222,51666,0,0,0
36547,35201,51646,0,0,0
36541,35191,51639,0,0,0
36545,35197,51650,0,0,0
36561,35224,51686,0,0,0
36592,35270,51754,0,0,0
36646,35336,51857,0,0,0
36725,35427,51997,0,0,0
36823,35540,52175,0,0,0
36938,35667,52384,0,0,0
37068,35810,52624,0,0,0
37213,35968,52896,0,0,0
37368,36136,53191,0,0,0
37532,36314,53499,0,0,0
37705,36499,53821,0,0,0
37882,36690,54148,0,0,0
38056,36879,54469,0,0,0
38223,37058,54772,0,0,0
38381,37224,55051,0,0,0
38525,37374,55301,0,0,0
38651,37506,55517,0,0,0
38753,37612,55694,0,0,0
38830,37691,55832,0,0,0
38886,37747,55936,0,0,0
38920,37782,56008,0,0,0
38940,37799,56052,0,0,0
38951,37803,56071,0,0,0
38957,37799,56070,0,0,0
38952,37786,56050,0,0,0
38935,37761,56013,0,0,0
38910,37730,55966,0,0,0
38879,37699,55918,0,0,0
38847,37666,55869,0,0,0
38816,37631,55821,0,0,0
38786,37597,55772,0,0,0
38756,37568,55724,0,0,0
38723,37542,55677,0,0,0
38687,37515,55628,0,0,0
38657,37488,55583,0,0,0
38634,37466,55544,0,0,0
38617,37449,55511,0,0,0
38603,37438,55484,0,0,0
38594,37433,55465,0,0,0
38588,37434,55453,0,0,0
38581,37433,55446,0,0,0
38573,37426,55441,0,0,0
38567,37416,55437,0,0,0
38558,37405,55430,0,0,0
38549,37394,55419,0,0,0
38539,37380,55405,0,0,0
38531,37366,55389,0,0,0
38520,37349,55366,0,0,0
38505,37328,55333,0,0,0
38484,37302,55290,0,0,0
38458,37271,55237,0,0,0
38425,37236,55175,0,0,0
38386,37199,55102,0,0,0
38347,37165,55027,0,0,0
38310,37134,54955,0,0,0
38273,37102,54882,0,0,0
38235,37066,54807,0,0,0
38202,37029,54734,0,0,0
38172,36992,54669,0,0,0
38141,36956,54608,0,0,0
38110,36918,54548,0,0,0
38085,36883,54493,0,0,0
38063,36853,54444,0,0,0
38042,36828,54402,0,0,0
38025,36807,54371,0,0,0
38013,36794,54349,0,0,0
38004,36787,54335,0,0,0
37992,36780,54324,0,0,0
37980,36771,54313,0,0,0
37974,36767,54307,0,0,0
37971,36768,54305,0,0,0
37969,36769,54301,0,0,0
37968,36771,54296,0,0,0
37971,36771,54293,0,0,0
37974,36770,54292,0,0,0
37973,36767,54289,0,0,0
37971,36764,54282,0,0,0
37970,36762,54273,0,0,0
37966,36757,54263,0,0,0
37958,36749,54250,0,0,0
37947,36743,54232,0,0,0
37934,36736,54213,0,0,0
37918,36726,54193,0,0,0
37898,36709,54168,0,0,0
37877,36687,54139,0,0,0
37854,36663,54106,0,0,0
37828,36635,54067,0,0,0
37798,36602,54020,0,0,0
37766,36569,53969,0,0,0
37734,36534,53915,0,0,0
37700,36495,53855,0,0,0
37662,36449,53788,0,0,0
37625,36403,53720,0,0,0
37594,36364,53654,0,0,0
37565,36329,53591,0,0,0
37535,36294,53530,0,0,0
37507,36263,53473,0,0,0
37485,36237,53421,0,0,0
37466,36216,53371,0,0,0
37444,36193,53325,0,0,0
37420,36170,53281,0,0,0
37396,36148,53243,0,0,0
37371,36126,53207,0,0,0
37343,36103,53170,0,0,0
37315,36079,53132,0,0,0
37289,36052,53090,0,0,0
37263,36021,53046,0,0,0
37235,35988,53000,0,0,0
37208,35960,52959,0,0,0
37185,35938,52923,0,0,0
37163,35917,52887,0,0,0
37140,35893,52851,0,0,0
37119,35869,52819,0,0,0
37105,35852,52793,0,0,0
37094,35839,52771,0,0,0
37082,35827,52748,0,0,0
37068,35817,52727,0,0,0
37054,35807,52709,0,0,0
37041,35794,52690,0,0,0
37028,35779,52666,0,0,0
37016,35766,52642,0,0,0
37004,35754,52617,0,0,0
36989,35741,52589,0,0,0
36974,35724,52555,0,0,0
36959,35706,52521,0,0,0
36941,35685,52487,0,0,0
36918,35661,52454,0,0,0
36893,35636,52422,0,0,0
36869,35612,52394,0,0,0
36846,35589,52369,0,0,0
36826,35565,52343,0,0,0
36809,35544,52318,0,0,0
36796,35525,52294,0,0,0
36782,35511,52271,0,0,0
36769,35500,52246,0,0,0
36758,35489,52221,0,0,0
36750,35480,52198,0,0,0
36741,35473,52175,0,0,0
36730,35461,52149,0,0,0
36717,35445,52124,0,0,0
36706,35427,52104,0,0,0
36693,35411,52086,0,0,0
36679,35395,52067,0,0,0
36667,35381,52047,0,0,0
36657,35365,52028,0,0,0
36646,35345,52009,0,0,0
36634,35325,51988,0,0,0
36623,35307,51965,0,0,0
36613,35294,51943,0,0,0
36599,35281,51917,0,0,0
36581,35270,51888,0,0,0
36564,35260,51861,0,0,0
36548,35250,51841,0,0,0
36532,35237,51823,0,0,0
36518,35224,51801,0,0,0
36507,35213,51775,0,0,0
36493,35201,51747,0,0,0
36473,35182,51715,0,0,0
36452,35158,51679,0,0,0
36432,35135,51639,0,0,0
36412,35112,51594,0,0,0
36390,35089,51548,0,0,0
36367,35068,51506,0,0,0
36345,35050,51472,0,0,0
36326,35035,51446,0,0,0
36310,35022,51426,0,0,0
36301,35016,51421,0,0,0
36306,35024,51435,0,0,0
36325,35048,51473,0,0,0
36363,35089,51541,0,0,0
36425,35156,51650,0,0,0
36512,35252,51803,0,0,0
36621,35371,52001,0,0,0
36749,35510,52238,0,0,0
36897,35669,52506,0,0,0
37060,35846,52801,0,0,0
37230,36033,53117,0,0,0
37403,36222,53442,0,0,0
37579,36415,53771,0,0,0
37758,36606,54095,0,0,0
37930,36786,54409,0,0,0
38089,36953,54705,0,0,0
38236,37108,54980,0,0,0
38368,37251,55228,0,0,0
38480,37375,55442,0,0,0
38570,37479,55615,0,0,0
38643,37564,55753,0,0,0
38699,37630,55858,0,0,0
38738,37676,55930,0,0,0
38759,37703,55970,0,0,0
38767,37713,55987,0,0,0
38764,37709,55983,0,0,0
38753,37692,55959,0,0,0
38734,37665,55919,0,0,0
38710,37632,55873,0,0,0
38683,37597,55821,0,0,0
38653,37560,55763,0,0,0
38620,37523,55703,0,0,0
38588,37487,55644,0,0,0
38559,37453,55589,0,0,0
38534,37420,55535,0,0,0
38510,37389,55489,0,0,0
38488,37365,55451,0,0,0
38468,37347,55422,0,0,0
38448,37330,55400,0,0,0
38430,37312,55382,0,0,0
38417,37298,55366,0,0,0
38408,37288,55349,0,0,0
38396,37276,55326,0,0,0
38382,37259,55303,0,0,0
38364,37243,55282,0,0,0
38340,37225,55256,0,0,0
38311,37199,55219,0,0,0
38282,37167,55174,0,0,0
38253,37136,55128,0,0,0
38222,37102,55077,0,0,0
38188,37064,55019,0,0,0
38150,37025,54954,0,0,0
38107,36985,54887,0,0,0
38058,36944,54815,0,0,0
38007,36902,54736,0,0,0
37957,36861,54655,0,0,0
37907,36817,54577,0,0,0
37852,36769,54498,0,0,0
37794,36716,54412,0,0,0
37741,36662,54323,0,0,0
37694,36611,54242,0,0,0
37650,36566,54171,0,0,0
37609,36529,54109,0,0,0
37577,36501,54062,0,0,0
37555,36480,54028,0,0,0
37537,36464,54003,0,0,0
37522,36454,53984,0,0,0
37512,36450,53971,0,0,0
37508,36446,53964,0,0,0
37509,36439,53958,0,0,0
37511,36429,53952,0,0,0
37513,36424,53948,0,0,0
37513,36422,53948,0,0,0
37507,36420,53944,0,0,0
37496,36416,53936,0,0,0
37483,36411,53927,0,0,0
37472,36402,53916,0,0,0
37462,36391,53898,0,0,0
37455,36383,53877,0,0,0
37449,36379,53860,0,0,0
37443,36377,53847,0,0,0
37437,36373,53837,0,0,0
37431,36367,53827,0,0,0
37422,36361,53815,0,0,0
37409,36350,53800,0,0,0
37392,36335,53779,0,0,0
37373,36318,53755,0,0,0
37354,36298,53729,0,0,0
37334,36276,53699,0,0,0
37312,36252,53662,0,0,0
37286,36225,53622,0,0,0
37259,36197,53582,0,0,0
37231,36169,53543,0,0,0
37205,36141,53503,0,0,0
37182,36116,53464,0,0,0
37161,36095,53422,0,0,0
37140,36076,53374,0,0,0
37115,36058,53320,0,0,0
37090,36041,53271,0,0,0
37066,36026,53227,0,0,0
37042,36008,53187,0,0,0
37017,35982,53147,0,0,0
36990,35955,53107,0,0,0
36963,35931,53070,0,0,0
36935,35909,53036,0,0,0
36907,35885,53003,0,0,0
36884,35862,52968,0,0,0
36866,35843,52934,0,0,0
36850,35826,52902,0,0,0
36833,35803,52869,0,0,0
36812,35779,52839,0,0,0
36792,35758,52813,0,0,0
36775,35737,52787,0,0,0
36764,35718,52761,0,0,0
36756,35703,52735,0,0,0
36746,35690,52711,0,0,0
36733,35677,52688,0,0,0
36717,35664,52665,0,0,0
36701,35652,52639,0,0,0
36681,35640,52609,0,0,0
36658,35621,52573,0,0,0
36635,35599,52532,0,0,0
36615,35579,52495,0,0,0
36598,35560,52465,0,0,0
36581,35537,52437,0,0,0
36565,35514,52411,0,0,0
36549,35493,52389,0,0,0
36533,35476,52370,0,0,0
36517,35460,52351,0,0,0
36503,35450,52334,0,0,0
36493,35445,52320,0,0,0
36488,35442,52306,0,0,0
36483,35438,52287,0,0,0
36478,35431,52269,0,0,0
36469,35423,52256,0,0,0
36456,35412,52246,0,0,0
36439,35400,52232,0,0,0
36423,35393,52219,0,0,0
36409,35387,52208,0,0,0
36394,35378,52191,0,0,0
36377,35365,52168,0,0,0
36361,35353,52145,0,0,0
36348,35342,52122,0,0,0
36337,35330,52096,0,0,0
36326,35315,52068,0,0,0
36319,35303,52043,0,0,0
36313,35293,52022,0,0,0
36306,35286,52003,0,0,0
36297,35280,51983,0,0,0
36289,35276,51964,0,0,0
36282,35274,51946,0,0,0
36272,35268,51927,0,0,0
36260,35257,51907,0,0,0
36247,35245,51889,0,0,0
36232,35233,51870,0,0,0
36217,35217,51844,0,0,0
36204,35198,51814,0,0,0
36193,35180,51786,0,0,0
36178,35158,51758,0,0,0
36157,35135,51731,0,0,0
36138,35115,51706,0,0,0
36123,35103,51688,0,0,0
36112,35099,51678,0,0,0
36109,35103,51676,0,0,0
36118,35119,51694,0,0,0
36140,35151,51743,0,0,0
36176,35203,51827,0,0,0
36234,35273,51950,0,0,0
36317,35368,52111,0,0,0
36424,35488,52314,0,0,0
36555,35628,52554,0,0,0
36704,35783,52822,0,0,0
36863,35950,53107,0,0,0
37026,36126,53404,0,0,0
37189,36301,53702,0,0,0
37351,36471,53997,0,0,0
37511,36638,54284,0,0,0
37664,36802,54565,0,0,0
37803,36955,54831,0,0,0
37928,37091,55073,0,0,0
38037,37212,55289,0,0,0
38133,37316,55477,0,0,0
38211,37400,55633,0,0,0
38273,37464,55757,0,0,0
38321,37510,55847,0,0,0
38357,37542,55908,0,0,0
38379,37556,55943,0,0,0
38385,37556,55953,0,0,0
38378,37547,55943,0,0,0
38363,37532,55915,0,0,0
38342,37510,55870,0,0,0
38313,37480,55811,0,0,0
38280,37445,55746,0,0,0
38245,37409,55680,0,0,0
38207,37371,55610,0,0,0
38168,37331,55539,0,0,0
38128,37293,55476,0,0,0
38090,37254,55420,0,0,0
38052,37215,55368,0,0,0
38018,37176,55316,0,0,0
37988,37138,55266,0,0,0
37961,37102,55219,0,0,0
37939,37073,55177,0,0,0
37919,37051,55142,0,0,0
37902,37036,55113,0,0,0
37887,37024,55089,0,0,0
37873,37015,55067,0,0,0
37860,37006,55046,0,0,0
37846,36997,55027,0,0,0
37829,36982,55007,0,0,0
37811,36960,54979,0,0,0
37791,36931,54942,0,0,0
37766,36897,54894,0,0,0
37735,36859,54833,0,0,0
37698,36820,54759,0,0,0
37659,36784,54682,0,0,0
37618,36750,54605,0,0,0
37574,36712,54527,0,0,0
37526,36671,54446,0,0,0
37479,36629,54367,0,0,0
37436,36590,54293,0,0,0
37395,36551,54223,0,0,0
37355,36513,54157,0,0,0
37320,36479,54098,0,0,0
37291,36447,54043,0,0,0
37264,36413,53989,0,0,0
37239,36379,53942,0,0,0
37219,36352,53904,0,0,0
37204,36330,53873,0,0,0
37192,36309,53845,0,0,0
37181,36288,53821,0,0,0
37174,36273,53805,0,0,0
37170,36265,53794,0,0,0
37171,36261,53784,0,0,0
37176,36261,53777,0,0,0
37183,36261,53776,0,0,0
37188,36261,53779,0,0,0
37186,36262,53782,0,0,0
37178,36267,53787,0,0,0
37168,36274,53793,0,0,0
37158,36279,53798,0,0,0
37146,36280,53797,0,0,0
37138,36277,53790,0,0,0
37131,36270,53780,0,0,0
37121,36260,53763,0,0,0
37106,36246,53736,0,0,0
37088,36227,53702,0,0,0
37068,36206,53667,0,0,0
37044,36183,53632,0,0,0
37017,36156,53594,0,0,0
36992,36129,53559,0,0,0
36968,36105,53525,0,0,0
36942,36080,53488,0,0,0
36918,36049,53443,0,0,0
36898,36018,53388,0,0,0
36881,35989,53332,0,0,0
36862,35960,53278,0,0,0
36837,35929,53227,0,0,0
36811,35898,53178,0,0,0
36785,35869,53134,0,0,0
36757,35837,53092,0,0,0
36726,35800,53047,0,0,0
36694,35767,53003,0,0,0
36663,35736,52962,0,0,0
36634,35705,52919,0,0,0
36609,35676,52876,0,0,0
36589,35654,52838,0,0,0
36572,35635,52805,0,0,0
36554,35615,52768,0,0,0
36534,35593,52730,0,0,0
36514,35571,52693,0,0,0
36491,35550,52658,0,0,0
36469,35528,52622,0,0,0
36449,35507,52583,0,0,0
36434,35488,52547,0,0,0
36421,35468,52516,0,0,0
36410,35445,52484,0,0,0
36400,35423,52452,0,0,0
36392,35406,52426,0,0,0
36383,35396,52407,0,0,0
36371,35384,52390,0,0,0
36358,35369,52372,0,0,0
36346,35355,52356,0,0,0
36331,35341,52341,0,0,0
36315,35327,52325,0,0,0
36303,35314,52309,0,0,0
36293,35302,52292,0,0,0
36283,35288,52269,0,0,0
36270,35271,52239,0,0,0
36258,35257,52211,0,0,0
36248,35246,52189,0,0,0
36238,35236,52170,0,0,0
36230,35226,52153,0,0,0
36225,35220,52139,0,0,0
36223,35220,52128,0,0,0
36222,35219,52115,0,0,0
36213,35213,52102,0,0,0
36200,35204,52091,0,0,0
36187,35194,52081,0,0,0
36172,35180,52063,0,0,0
36154,35165,52037,0,0,0
36137,35150,52008,0,0,0
36125,35139,51981,0,0,0
36112,35128,51954,0,0,0
36098,35118,51928,0,0,0
36085,35108,51904,0,0,0
36075,35100,51882,0,0,0
36063,35091,51860,0,0,0
36046,35079,51829,0,0,0
36028,35064,51796,0,0,0
36013,35051,51769,0,0,0
36000,35037,51744,0,0,0
35991,35022,51714,0,0,0
35984,35008,51686,0,0,0
35979,35003,51666,0,0,0
35974,35002,51652,0,0,0
35970,35004,51643,0,0,0
35969,35009,51640,0,0,0
35971,35016,51642,0,0,0
35975,35026,51651,0,0,0
35983,35043,51674,0,0,0
36003,35071,51719,0,0,0
36040,35114,51792,0,0,0
36097,35173,51898,0,0,0
36173,35255,52038,0,0,0
36271,35362,52213,0,0,0
36389,35492,52421,0,0,0
36522,35639,52655,0,0,0
36668,35802,52914,0,0,0
36826,35978,53197,0,0,0
36987,36155,53493,0,0,0
37146,36325,53789,0,0,0
37300,36490,54080,0,0,0
37447,36650,54363,0,0,0
37581,36798,54625,0,0,0
37700,36927,54863,0,0,0
37807,37041,55076,0,0,0
37906,37141,55262,0,0,0
37992,37227,55416,0,0,0
38063,37295,55537,0,0,0
38117,37345,55630,0,0,0
38157,37381,55700,0,0,0
38183,37406,55743,0,0,0
38196,37416,55758,0,0,0
38200,37416,55753,0,0,0
38198,37410,55733,0,0,0
38188,37395,55701,0,0,0
38170,37372,55658,0,0,0
38147,37346,55609,0,0,0
38119,37318,55557,0,0,0
38086,37286,55501,0,0,0
38049,37250,55440,0,0,0
38011,37216,55378,0,0,0
37973,37183,55321,0,0,0
37938,37152,55266,0,0,0
37908,37123,55211,0,0,0
37882,37098,55160,0,0,0
37859,37074,55113,0,0,0
37837,37050,55068,0,0,0
37816,37030,55025,0,0,0
37797,37013,54983,0,0,0
37777,36996,54941,0,0,0
37753,36975,54898,0,0,0
37728,36950,54852,0,0,0
37702,36921,54806,0,0,0
37671,36885,54756,0,0,0
37634,36842,54698,0,0,0
37596,36798,54632,0,0,0
37559,36757,54565,0,0,0
37522,36716,54497,0,0,0
37482,36673,54427,0,0,0
37442,36631,54359,0,0,0
37405,36592,54293,0,0,0
37370,36550,54224,0,0,0
37336,36508,54156,0,0,0
37306,36471,54096,0,0,0
37280,36441,54048,0,0,0
37256,36416,54005,0,0,0
37231,36393,53967,0,0,0
37208,36376,53934,0,0,0
37189,36364,53908,0,0,0
37177,36358,53890,0,0,0
37171,36357,53882,0,0,0
37170,36362,53883,0,0,0
37173,36373,53891,0,0,0
37177,36382,53899,0,0,0
37181,36389,53908,0,0,0
37188,36398,53925,0,0,0
37199,36412,53946,0,0,0
37212,36425,53963,0,0,0
37222,36431,53974,0,0,0
37230,36435,53983,0,0,0
37237,36437,53992,0,0,0
37246,36438,54000,0,0,0
37256,36440,54005,0,0,0
37264,36445,54008,0,0,0
37268,36451,54009,0,0,0
37268,36455,54004,0,0,0
37264,36455,53990,0,0,0
37256,36455,53971,0,0,0
37243,36450,53948,0,0,0
37224,36436,53919,0,0,0
37201,36414,53886,0,0,0
37178,36388,53851,0,0,0
37155,36357,53811,0,0,0
37128,36323,53763,0,0,0
37103,36289,53712,0,0,0
37083,36263,53664,0,0,0
37064,36239,53619,0,0,0
37045,36213,53575,0,0,0
37024,36188,53535,0,0,0
37000,36165,53498,0,0,0
36974,36137,53461,0,0,0
36947,36104,53418,0,0,0
36920,36069,53373,0,0,0
36893,36037,53331,0,0,0
36861,36006,53291,0,0,0
36826,35976,53252,0,0,0
36789,35948,53210,0,0,0
36753,35923,53167,0,0,0
36720,35899,53121,0,0,0
36690,35874,53077,0,0,0
36670,35854,53039,0,0,0
36656,35837,53007,0,0,0
36643,35822,52974,0,0,0
36627,35808,52942,0,0,0
36613,35795,52914,0,0,0
36603,35784,52894,0,0,0
36594,35772,52873,0,0,0
36584,35759,52850,0,0,0
36574,35749,52830,0,0,0
36565,35738,52816,0,0,0
36557,35725,52804,0,0,0
36549,35710,52791,0,0,0
36542,35699,52774,0,0,0
36537,35694,52756,0,0,0
36530,35691,52739,0,0,0
36523,35690,52723,0,0,0
36521,35690,52711,0,0,0
36523,35692,52704,0,0,0
36525,35693,52699,0,0,0
36523,35691,52694,0,0,0
36516,35687,52685,0,0,0
36503,35677,52669,0,0,0
36487,35663,52644,0,0,0
36472,35648,52617,0,0,0
36459,35636,52591,0,0,0
36445,35624,52564,0,0,0
36432,35611,52536,0,0,0
36422,35602,52512,0,0,0
36413,35598,52493,0,0,0
36402,35591,52477,0,0,0
36388,35578,52460,0,0,0
36376,35563,52441,0,0,0
36363,35547,52422,0,0,0
36347,35527,52397,0,0,0
36328,35504,52364,0,0,0
36311,35482,52330,0,0,0
36296,35465,52298,0,0,0
36285,35452,52269,0,0,0
36277,35444,52246,0,0,0
36273,35444,52234,0,0,0
36276,35453,52238,0,0,0
36286,35470,52258,0,0,0
36305,35498,52297,0,0,0
36339,35540,52364,0,0,0
36391,35602,52463,0,0,0
36463,35686,52597,0,0,0
36556,35790,52765,0,0,0
36673,35917,52971,0,0,0
36811,36068,53211,0,0,0
36964,36236,53479,0,0,0
37124,36413,53766,0,0,0
37288,36595,54067,0,0,0
37453,36777,54375,0,0,0
37616,36956,54683,0,0,0
37772,37129,54983,0,0,0
37921,37296,55273,0,0,0
38061,37456,55546,0,0,0
38187,37602,55794,0,0,0
38300,37729,56011,0,0,0
38400,37833,56195,0,0,0
38485,37913,56344,0,0,0
38552,37970,56457,0,0,0
38600,38011,56536,0,0,0
38630,38038,56588,0,0,0
38644,38052,56616,0,0,0
38647,38053,56623,0,0,0
38642,38043,56613,0,0,0
38631,38027,56586,0,0,0
38613,38004,56548,0,0,0
38586,37973,56501,0,0,0
38557,37942,56449,0,0,0
38529,37915,56399,0,0,0
38501,37887,56350,0,0,0
38468,37856,56301,0,0,0
38434,37827,56256,0,0,0
38403,37801,56217,0,0,0
38376,37774,56180,0,0,0
38349,37744,56144,0,0,0
38326,37716,56110,0,0,0
38306,37692,56078,0,0,0
38286,37668,56048,0,0,0
38265,37643,56019,0,0,0
38248,37622,55993,0,0,0
38236,37608,55967,0,0,0
38225,37598,55942,0,0,0
38213,37587,55917,0,0,0
38203,37578,55893,0,0,0
38192,37571,55869,0,0,0
38179,37559,55842,0,0,0
38161,37541,55808,0,0,0
38139,37519,55765,0,0,0
38113,37491,55713,0,0,0
38085,37458,55652,0,0,0
38056,37421,55585,0,0,0
38022,37382,55511,0,0,0
37980,37337,55435,0,0,0
37932,37287,55358,0,0,0
37885,37237,55281,0,0,0
37841,37192,55202,0,0,0
37799,37147,55123,0,0,0
37760,37101,55046,0,0,0
37727,37059,54976,0,0,0
37701,37022,54915,0,0,0
37674,36987,54862,0,0,0
37648,36956,54820,0,0,0
37628,36933,54792,0,0,0
37614,36918,54775,0,0,0
37605,36910,54762,0,0,0
37601,36905,54750,0,0,0
37602,36907,54742,0,0,0
37604,36912,54740,0,0,0
37605,36915,54744,0,0,0
37600,36912,54745,0,0,0
37594,36909,54743,0,0,0
37591,36909,54742,0,0,0
37590,36909,54742,0,0,0
37588,36907,54740,0,0,0
37587,36904,54737,0,0,0
37587,36903,54733,0,0,0
37586,36901,54730,0,0,0
37583,36897,54723,0,0,0
37576,36893,54710,0,0,0
37568,36890,54698,0,0,0
37560,36884,54684,0,0,0
37550,36873,54662,0,0,0
37536,36861,54633,0,0,0
37520,36852,54602,0,0,0
37503,36844,54572,0,0,0
37485,36832,54538,0,0,0
37464,36813,54501,0,0,0
37439,36790,54463,0,0,0
37413,36763,54426,0,0,0
37388,36739,54391,0,0,0
37366,36718,54356,0,0,0
37346,36696,54321,0,0,0
37326,36671,54283,0,0,0
37307,36646,54246,0,0,0
37290,36623,54210,0,0,0
37270,36599,54175,0,0,0
37247,36571,54137,0,0,0
37220,36542,54098,0,0,0
37193,36516,54060,0,0,0
37168,36493,54018,0,0,0
37146,36472,53971,0,0,0
37128,36453,53925,0,0,0
37113,36439,53883,0,0,0
37098,36428,53844,0,0,0
37082,36415,53807,0,0,0
37066,36403,53773,0,0,0
37050,36390,53746,0,0,0
37034,36375,53723,0,0,0
37018,36357,53700,0,0,0
37003,36341,53677,0,0,0
36994,36328,53657,0,0,0
36989,36319,53641,0,0,0
36986,36309,53625,0,0,0
36984,36299,53609,0,0,0
36981,36293,53594,0,0,0
36975,36288,53580,0,0,0
36965,36283,53564,0,0,0
36955,36276,53548,0,0,0
36944,36269,53531,0,0,0
36929,36259,53511,0,0,0
36912,36246,53489,0,0,0
36900,36233,53471,0,0,0
36889,36222,53456,0,0,0
36879,36212,53438,0,0,0
36869,36203,53418,0,0,0
36861,36196,53401,0,0,0
36857,36189,53388,0,0,0
36854,36180,53374,0,0,0
36849,36170,53357,0,0,0
36843,36162,53338,0,0,0
36836,36155,53319,0,0,0
36826,36144,53298,0,0,0
36815,36132,53274,0,0,0
36804,36122,53248,0,0,0
36794,36113,53222,0,0,0
36782,36101,53196,0,0,0
36767,36086,53171,0,0,0
36751,36070,53149,0,0,0
36734,36052,53125,0,0,0
36712,36031,53096,0,0,0
36688,36009,53062,0,0,0
36662,35987,53028,0,0,0
36637,35966,52993,0,0,0
36617,35943,52959,0,0,0
36607,35923,52931,0,0,0
36608,35914,52915,0,0,0
36620,35920,52917,0,0,0
36643,35938,52940,0,0,0
36681,35973,52992,0,0,0
36737,36031,53081,0,0,0
36812,36110,53204,0,0,0
36905,36208,53363,0,0,0
37016,36330,53559,0,0,0
37146,36472,53788,0,0,0
37289,36628,54045,0,0,0
37439,36793,54323,0,0,0
37591,36968,54618,0,0,0
37745,37145,54921,0,0,0
37902,37320,55221,0,0,0
38057,37488,55514,0,0,0
38207,37653,55798,0,0,0
38351,37814,56069,0,0,0
38485,37961,56315,0,0,0
38606,38087,56529,0,0,0
38714,38196,56712,0,0,0
38804,38286,56861,0,0,0
38877,38357,56973,0,0,0
38932,38410,57055,0,0,0
38972,38448,57114,0,0,0
38995,38473,57157,0,0,0
39002,38485,57179,0,0,0
38998,38483,57184,0,0,0
38987,38470,57175,0,0,0
38975,38447,57152,0,0,0
38958,38413,57119,0,0,0
38935,38372,57080,0,0,0
38908,38331,57033,0,0,0
38879,38295,56982,0,0,0
38851,38262,56933,0,0,0
38824,38232,56889,0,0,0
38799,38207,56850,0,0,0
38777,38187,56819,0,0,0
38759,38172,56794,0,0,0
38746,38161,56772,0,0,0
38736,38153,56750,0,0,0
38725,38144,56727,0,0,0
38710,38132,56703,0,0,0
38698,38123,56685,0,0,0
38690,38117,56676,0,0,0
38683,38111,56672,0,0,0
38679,38104,56668,0,0,0
38679,38097,56664,0,0,0
38678,38094,56660,0,0,0
38673,38089,56652,0,0,0
38663,38079,56636,0,0,0
38651,38063,56612,0,0,0
38637,38042,56580,0,0,0
38614,38015,56537,0,0,0
38581,37980,56479,0,0,0
38540,37939,56407,0,0,0
38496,37900,56329,0,0,0
38448,37860,56246,0,0,0
38398,37816,56156,0,0,0
38351,37771,56062,0,0,0
38310,37727,55970,0,0,0
38274,37683,55882,0,0,0
38240,37637,55798,0,0,0
38208,37592,55722,0,0,0
38177,37553,55654,0,0,0
38144,37520,55597,0,0,0
38112,37490,55552,0,0,0
38083,37468,55517,0,0,0
38061,37452,55490,0,0,0
38045,37439,55468,0,0,0
38034,37429,55453,0,0,0
38029,37425,55449,0,0,0
38030,37427,55456,0,0,0
38034,37431,55466,0,0,0
38041,37439,55474,0,0,0
38052,37451,55480,0,0,0
38058,37462,55483,0,0,0
38061,37468,55482,0,0,0
38060,37466,55479,0,0,0
38058,37462,55474,0,0,0
38056,37456,55466,0,0,0
38051,37450,55451,0,0,0
38044,37443,55438,0,0,0
38037,37434,55428,0,0,0
38026,37420,55417,0,0,0
38011,37400,55401,0,0,0
37993,37376,55380,0,0,0
37973,37351,55357,0,0,0
37950,37324,55329,0,0,0
37928,37296,55292,0,0,0
37909,37270,55249,0,0,0
37889,37244,55206,0,0,0
37866,37217,55159,0,0,0
37840,37187,55105,0,0,0
37815,37160,55046,0,0,0
37794,37139,54989,0,0,0
37775,37125,54936,0,0,0
37757,37112,54889,0,0,0
37740,37097,54846,0,0,0
37721,37083,54809,0,0,0
37697,37069,54773,0,0,0
37669,37052,54732,0,0,0
37638,37033,54690,0,0,0
37607,37013,54646,0,0,0
37576,36991,54604,0,0,0
37550,36968,54566,0,0,0
37530,36946,54532,0,0,0
37514,36926,54501,0,0,0
37498,36906,54468,0,0,0
37484,36885,54434,0,0,0
37474,36866,54400,0,0,0
37467,36852,54366,0,0,0
37461,36842,54334,0,0,0
37455,36836,54309,0,0,0
37449,36835,54288,0,0,0
37440,36833,54266,0,0,0
37429,36825,54242,0,0,0
37417,36814,54217,0,0,0
37405,36805,54194,0,0,0
37393,36794,54170,0,0,0
37378,36779,54145,0,0,0
37359,36761,54116,0,0,0
37338,36741,54087,0,0,0
37318,36720,54058,0,0,0
37301,36699,54026,0,0,0
37285,36679,53991,0,0,0
37270,36660,53957,0,0,0
37256,36641,53924,0,0,0
37240,36622,53892,0,0,0
37225,36604,53864,0,0,0
37210,36590,53841,0,0,0
37194,36574,53818,0,0,0
37177,36555,53794,0,0,0
37160,36538,53772,0,0,0
37147,36527,53754,0,0,0
37135,36517,53738,0,0,0
37125,36506,53723,0,0,0
37119,36499,53709,0,0,0
37116,36493,53697,0,0,0
37109,36484,53686,0,0,0
37097,36471,53670,0,0,0
37083,36457,53647,0,0,0
37069,36444,53620,0,0,0
37052,36428,53588,0,0,0
37035,36411,53552,0,0,0
37021,36397,53518,0,0,0
37009,36387,53490,0,0,0
36997,36374,53464,0,0,0
36984,36357,53439,0,0,0
36973,36338,53413,0,0,0
36961,36318,53386,0,0,0
36948,36295,53355,0,0,0
36936,36272,53323,0,0,0
36920,36253,53289,0,0,0
36899,36235,53257,0,0,0
36876,36217,53227,0,0,0
36854,36201,53199,0,0,0
36832,36187,53172,0,0,0
36810,36171,53147,0,0,0
36792,36154,53125,0,0,0
36786,36144,53113,0,0,0
36795,36147,53120,0,0,0
36818,36163,53146,0,0,0
36853,36196,53199,0,0,0
36902,36249,53287,0,0,0
36971,36328,53416,0,0,0
37060,36431,53584,0,0,0
37169,36551,53786,0,0,0
37296,36688,54020,0,0,0
37439,36843,54282,0,0,0
37594,37014,54565,0,0,0
37758,37195,54862,0,0,0
37927,37382,55165,0,0,0
38101,37573,55472,0,0,0
38273,37763,55777,0,0,0
38437,37944,56071,0,0,0
38593,38112,56348,0,0,0
38736,38266,56604,0,0,0
38859,38403,56833,0,0,0
38963,38515,57028,0,0,0
39046,38604,57188,0,0,0
39112,38674,57315,0,0,0
39160,38726,57406,0,0,0
39196,38760,57464,0,0,0
39223,38780,57496,0,0,0
39236,38788,57509,0,0,0
39233,38783,57505,0,0,0
39223,38771,57488,0,0,0
39212,38759,57465,0,0,0
39198,38745,57440,0,0,0
39180,38727,57411,0,0,0
39160,38707,57377,0,0,0
39142,38687,57344,0,0,0
39125,38669,57312,0,0,0
39110,38650,57276,0,0,0
39097,38632,57237,0,0,0
39086,38619,57203,0,0,0
39080,38609,57176,0,0,0
39073,38597,57152,0,0,0
39064,38584,57133,0,0,0
39055,38574,57123,0,0,0
39049,38569,57118,0,0,0
39041,38565,57113,0,0,0
39033,38558,57105,0,0,0
39025,38551,57097,0,0,0
39018,38543,57090,0,0,0
39009,38532,57080,0,0,0
39000,38520,57067,0,0,0
38994,38512,57051,0,0,0
38988,38507,57029,0,0,0
38977,38494,56997,0,0,0
38962,38473,56957,0,0,0
38941,38449,56912,0,0,0
38911,38418,56856,0,0,0
38876,38378,56789,0,0,0
38838,38336,56717,0,0,0
38797,38294,56643,0,0,0
38753,38251,56568,0,0,0
38710,38206,56493,0,0,0
38671,38164,56417,0,0,0
38634,38126,56345,0,0,0
38595,38088,56273,0,0,0
38557,38049,56202,0,0,0
38520,38010,56134,0,0,0
38486,37976,56074,0,0,0
38455,37947,56024,0,0,0
38430,37922,55981,0,0,0
38411,37903,55949,0,0,0
38397,37892,55929,0,0,0
38388,37885,55916,0,0,0
38381,37878,55905,0,0,0
38376,37873,55899,0,0,0
38373,37868,55897,0,0,0
38371,37863,55896,0,0,0
38369,37858,55896,0,0,0
38368,37854,55895,0,0,0
38366,37847,55892,0,0,0
38362,37840,55886,0,0,0
38359,37838,55879,0,0,0
38356,37844,55868,0,0,0
38348,37853,55852,0,0,0
38341,37860,55834,0,0,0
38338,37862,55818,0,0,0
38333,37859,55804,0,0,0
38323,37849,55785,0,0,0
38311,37833,55758,0,0,0
38301,37815,55727,0,0,0
38291,37796,55696,0,0,0
38278,37772,55661,0,0,0
38260,37743,55617,0,0,0
38238,37714,55569,0,0,0
38217,37687,55522,0,0,0
38194,37660,55475,0,0,0
38166,37631,55425,0,0,0
38134,37601,55373,0,0,0
38101,37571,55324,0,0,0
38067,37538,55274,0,0,0
38030,37500,55219,0,0,0
37993,37459,55163,0,0,0
37960,37421,55109,0,0,0
37931,37385,55058,0,0,0
37904,37351,55010,0,0,0
37879,37319,54964,0,0,0
37854,37291,54919,0,0,0
37829,37264,54872,0,0,0
37801,37236,54824,0,0,0
37774,37207,54777,0,0,0
37746,37178,54735,0,0,0
37716,37150,54692,0,0,0
37685,37123,54648,0,0,0
37658,37096,54605,0,0,0
37631,37073,54566,0,0,0
37605,37051,54526,0,0,0
37583,37031,54486,0,0,0
37568,37015,54451,0,0,0
37558,37003,54424,0,0,0
37551,36994,54400,0,0,0
37548,36990,54380,0,0,0
37551,36988,54363,0,0,0
37553,36982,54345,0,0,0
37550,36970,54326,0,0,0
37543,36956,54308,0,0,0
37533,36940,54291,0,0,0
37520,36923,54269,0,0,0
37504,36906,54244,0,0,0
37484,36887,54220,0,0,0
37463,36873,54199,0,0,0
37443,36861,54179,0,0,0
37426,36846,54156,0,0,0
37410,36831,54131,0,0,0
37394,36816,54104,0,0,0
37375,36798,54075,0,0,0
37355,36775,54045,0,0,0
37333,36751,54014,0,0,0
37312,36732,53986,0,0,0
37290,36716,53958,0,0,0
37266,36699,53926,0,0,0
37245,36682,53895,0,0,0
37227,36664,53865,0,0,0
37207,36644,53835,0,0,0
37184,36620,53801,0,0,0
37163,36595,53767,0,0,0
37147,36572,53738,0,0,0
37135,36550,53711,0,0,0
37124,36528,53686,0,0,0
37112,36509,53661,0,0,0
37100,36495,53638,0,0,0
37087,36484,53618,0,0,0
37073,36471,53600,0,0,0
37059,36459,53581,0,0,0
37047,36449,53559,0,0,0
37030,36436,53533,0,0,0
37009,36419,53504,0,0,0
36989,36403,53473,0,0,0
36969,36385,53439,0,0,0
36945,36363,53400,0,0,0
36921,36337,53359,0,0,0
36902,36312,53320,0,0,0
36886,36288,53283,0,0,0
36871,36264,53245,0,0,0
36855,36241,53208,0,0,0
36840,36219,53173,0,0,0
36826,36197,53136,0,0,0
36807,36173,53097,0,0,0
36783,36150,53057,0,0,0
36758,36128,53018,0,0,0
36733,36104,52980,0,0,0
36707,36078,52945,0,0,0
36689,36057,52922,0,0,0
36682,36050,52918,0,0,0
36688,36057,52936,0,0,0
36712,36083,52983,0,0,0
36761,36132,53070,0,0,0
36838,36212,53199,0,0,0
36939,36322,53371,0,0,0
37061,36457,53582,0,0,0
37199,36610,53829,0,0,0
37353,36779,54106,0,0,0
37517,36959,54404,0,0,0
37687,37144,54711,0,0,0
37857,37330,55022,0,0,0
38024,37514,55331,0,0,0
38185,37690,55631,0,0,0
38338,37852,55914,0,0,0
38483,37999,56176,0,0,0
38619,38133,56420,0,0,0
38739,38253,56637,0,0,0
38838,38352,56820,0,0,0
38913,38429,56968,0,0,0
38968,38489,57080,0,0,0
39008,38532,57158,0,0,0
39037,38560,57208,0,0,0
39055,38573,57237,0,0,0
39059,38574,57243,0,0,0
39051,38563,57230,0,0,0
39036,38543,57201,0,0,0
39015,38516,57161,0,0,0
38989,38483,57114,0,0,0
38960,38448,57063,0,0,0
38931,38414,57010,0,0,0
38906,38385,56960,0,0,0
38884,38360,56914,0,0,0
38865,38335,56872,0,0,0
38848,38313,56834,0,0,0
38834,38298,56799,0,0,0
38817,38281,56762,0,0,0
38796,38263,56721,0,0,0
38772,38245,56685,0,0,0
38751,38228,56657,0,0,0
38733,38210,56632,0,0,0
38717,38194,56609,0,0,0
38702,38180,56590,0,0,0
38689,38169,56574,0,0,0
38677,38156,56558,0,0,0
38666,38137,56537,0,0,0
38654,38116,56512,0,0,0
38639,38092,56478,0,0,0
38617,38061,56434,0,0,0
38587,38023,56380,0,0,0
38551,37982,56320,0,0,0
38510,37939,56257,0,0,0
38463,37891,56190,0,0,0
38412,37838,56116,0,0,0
38361,37788,56041,0,0,0
38315,37745,55966,0,0,0
38273,37704,55892,0,0,0
38231,37663,55816,0,0,0
38192,37623,55741,0,0,0
38155,37586,55671,0,0,0
38121,37552,55603,0,0,0
38089,37516,55539,0,0,0
38059,37482,55476,0,0,0
38031,37450,55419,0,0,0
38007,37420,55371,0,0,0
37986,37393,55330,0,0,0
37968,37369,55295,0,0,0
37951,37348,55268,0,0,0
37936,37328,55246,0,0,0
37921,37311,55231,0,0,0
37908,37297,55220,0,0,0
37897,37286,55210,0,0,0
37888,37278,55200,0,0,0
37881,37272,55190,0,0,0
37874,37267,55181,0,0,0
37868,37260,55172,0,0,0
37865,37253,55164,0,0,0
37864,37248,55157,0,0,0
37865,37245,55150,0,0,0
37866,37243,55140,0,0,0
37861,37237,55127,0,0,0
37855,37228,55113,0,0,0
37847,37218,55096,0,0,0
37835,37203,55071,0,0,0
37819,37181,55037,0,0,0
37802,37155,54998,0,0,0
37785,37130,54960,0,0,0
37764,37104,54918,0,0,0
37736,37073,54871,0,0,0
37704,37042,54827,0,0,0
37672,37014,54784,0,0,0
37641,36985,54737,0,0,0
37610,36954,54683,0,0,0
37579,36924,54626,0,0,0
37549,36894,54569,0,0,0
37517,36863,54514,0,0,0
37482,36830,54459,0,0,0
37448,36801,54405,0,0,0
37417,36772,54351,0,0,0
37387,36737,54294,0,0,0
37358,36696,54237,0,0,0
37332,36657,54183,0,0,0
37307,36622,54132,0,0,0
37281,36588,54081,0,0,0
37255,36556,54030,0,0,0
37229,36527,53982,0,0,0
37204,36499,53936,0,0,0
37179,36470,53893,0,0,0
37159,36445,53856,0,0,0
37143,36427,53828,0,0,0
37131,36413,53808,0,0,0
37118,36399,53791,0,0,0
37105,36389,53773,0,0,0
37091,36384,53755,0,0,0
37075,36376,53734,0,0,0
37053,36363,53707,0,0,0
37031,36348,53678,0,0,0
37011,36333,53652,0,0,0
36993,36316,53626,0,0,0
36975,36296,53599,0,0,0
36960,36274,53571,0,0,0
36946,36256,53547,0,0,0
36931,36244,53525,0,0,0
36917,36234,53505,0,0,0
36904,36226,53488,0,0,0
36892,36218,53470,0,0,0
36881,36209,53451,0,0,0
36867,36196,53428,0,0,0
36851,36180,53403,0,0,0
36835,36166,53379,0,0,0
36817,36152,53358,0,0,0
36799,36135,53333,0,0,0
36782,36119,53306,0,0,0
36771,36104,53280,0,0,0
36760,36090,53252,0,0,0
36749,36076,53223,0,0,0
36739,36063,53196,0,0,0
36729,36051,53173,0,0,0
36720,36036,53148,0,0,0
36712,36017,53120,0,0,0
36704,35999,53094,0,0,0
36696,35986,53075,0,0,0
36684,35975,53061,0,0,0
36673,35965,53047,0,0,0
36664,35957,53033,0,0,0
36650,35945,53017,0,0,0
36633,35931,52996,0,0,0
36615,35917,52972,0,0,0
36601,35906,52948,0,0,0
36588,35893,52922,0,0,0
36571,35876,52891,0,0,0
36551,35858,52860,0,0,0
36530,35839,52832,0,0,0
36509,35822,52803,0,0,0
36491,35805,52774,0,0,0
36476,35791,52749,0,0,0
36462,35778,52729,0,0,0
36448,35764,52709,0,0,0
36430,35746,52684,0,0,0
36411,35727,52660,0,0,0
36393,35709,52636,0,0,0
36372,35689,52608,0,0,0
36351,35666,52576,0,0,0
36333,35644,52546,0,0,0
36321,35627,52523,0,0,0
36312,35615,52504,0,0,0
36302,35605,52485,0,0,0
36296,35598,52468,0,0,0
36296,35597,52461,0,0,0
36304,35603,52471,0,0,0
36325,35621,52502,0,0,0
36363,35659,52562,0,0,0
36421,35720,52659,0,0,0
36500,35804,52796,0,0,0
36599,35910,52968,0,0,0
36715,36037,53176,0,0,0
36849,36189,53422,0,0,0
36999,36361,53697,0,0,0
37162,36544,53991,0,0,0
37333,36730,54295,0,0,0
37508,36917,54603,0,0,0
37678,37099,54909,0,0,0
37838,37272,55203,0,0,0
37987,37430,55479,0,0,0
38123,37574,55733,0,0,0
38242,37701,55962,0,0,0
38345,37811,56160,0,0,0
38436,37904,56325,0,0,0
38515,37979,56457,0,0,0
38577,38034,56556,0,0,0
38624,38074,56629,0,0,0
38657,38103,56681,0,0,0
38672,38121,56709,0,0,0
38672,38123,56712,0,0,0
38662,38114,56696,0,0,0
38644,38096,56666,0,0,0
38618,38068,56624,0,0,0
38586,38031,56573,0,0,0
38551,37991,56516,0,0,0
38516,37954,56458,0,0,0
38485,37922,56401,0,0,0
38456,37889,56342,0,0,0
38428,37855,56280,0,0,0
38400,37824,56220,0,0,0
38375,37797,56166,0,0,0
38350,37772,56117,0,0,0
38327,37748,56074,0,0,0
38307,37728,56042,0,0,0
38287,37711,56014,0,0,0
38268,37695,55986,0,0,0
38250,37677,55955,0,0,0
38233,37663,55927,0,0,0
38218,37652,55901,0,0,0
38203,37639,55871,0,0,0
38189,37625,55839,0,0,0
38171,37606,55804,0,0,0
38150,37581,55764,0,0,0
38129,37549,55717,0,0,0
38106,37517,55661,0,0,0
38078,37481,55598,0,0,0
38041,37440,55529,0,0,0
38000,37399,55456,0,0,0
37956,37359,55384,0,0,0
37913,37321,55312,0,0,0
37871,37284,55244,0,0,0
37831,37249,55182,0,0,0
37799,37217,55127,0,0,0
37774,37188,55078,0,0,0
37749,37158,55035,0,0,0
37724,37132,54998,0,0,0
37705,37112,54972,0,0,0
37691,37095,54950,0,0,0
37679,37076,54931,0,0,0
37671,37062,54919,0,0,0
37668,37057,54916,0,0,0
37669,37058,54915,0,0,0
37669,37062,54914,0,0,0
37669,37068,54916,0,0,0
37669,37077,54925,0,0,0
37669,37087,54940,0,0,0
37672,37094,54953,0,0,0
37678,37100,54961,0,0,0
37685,37106,54969,0,0,0
37688,37110,54973,0,0,0
37685,37108,54971,0,0,0
37682,37100,54965,0,0,0
37679,37090,54958,0,0,0
37674,37081,54946,0,0,0
37665,37069,54926,0,0,0
37653,37052,54899,0,0,0
37645,37038,54873,0,0,0
37636,37028,54847,0,0,0
37623,37017,54817,0,0,0
37605,37006,54781,0,0,0
37587,36993,54744,0,0,0
37569,36974,54705,0,0,0
37548,36946,54661,0,0,0
37525,36912,54613,0,0,0
37499,36876,54566,0,0,0
37471,36840,54521,0,0,0
37442,36805,54477,0,0,0
37413,36775,54430,0,0,0
37384,36745,54379,0,0,0
37350,36713,54324,0,0,0
37314,36678,54268,0,0,0
37280,36643,54216,0,0,0
37249,36610,54165,0,0,0
37220,36577,54114,0,0,0
37197,36547,54068,0,0,0
37182,36521,54032,0,0,0
37169,36502,54003,0,0,0
37154,36487,53978,0,0,0
37139,36477,53955,0,0,0
37124,36470,53935,0,0,0
37109,36463,53915,0,0,0
37092,36451,53891,0,0,0
37073,36436,53866,0,0,0
37054,36422,53841,0,0,0
37035,36405,53813,0,0,0
37014,36385,53776,0,0,0
36993,36368,53737,0,0,0
36976,36356,53700,0,0,0
36958,36345,53663,0,0,0
36942,36332,53627,0,0,0
36930,36317,53597,0,0,0
36921,36305,53574,0,0,0
36912,36296,53552,0,0,0
36901,36286,53529,0,0,0
36892,36275,53508,0,0,0
36882,36264,53489,0,0,0
36870,36252,53471,0,0,0
36853,36237,53451,0,0,0
36833,36219,53431,0,0,0
36818,36203,53415,0,0,0
36808,36188,53399,0,0,0
36801,36171,53380,0,0,0
36795,36155,53360,0,0,0
36791,36143,53342,0,0,0
36790,36133,53325,0,0,0
36788,36123,53305,0,0,0
36782,36114,53283,0,0,0
36773,36103,53260,0,0,0
36759,36088,53234,0,0,0
36739,36069,53206,0,0,0
36714,36050,53176,0,0,0
36686,36033,53143,0,0,0
36659,36017,53107,0,0,0
36635,35997,53069,0,0,0
36614,35974,53030,0,0,0
36593,35949,52993,0,0,0
36574,35926,52959,0,0,0
36558,35907,52927,0,0,0
36545,35887,52898,0,0,0
36533,35868,52869,0,0,0
36521,35851,52841,0,0,0
36509,35836,52819,0,0,0
36499,35823,52807,0,0,0
36488,35811,52802,0,0,0
36480,35806,52805,0,0,0
36486,35815,52824,0,0,0
36512,35847,52869,0,0,0
36556,35900,52941,0,0,0
36618,35975,53044,0,0,0
36703,36077,53187,0,0,0
36810,36206,53374,0,0,0
36937,36353,53600,0,0,0
37080,36515,53853,0,0,0
37238,36689,54128,0,0,0
37407,36873,54417,0,0,0
37578,37057,54712,0,0,0
37749,37232,55005,0,0,0
37912,37396,55291,0,0,0
38068,37555,55569,0,0,0
38213,37705,55834,0,0,0
38344,37842,56075,0,0,0
38463,37965,56288,0,0,0
38570,38075,56476,0,0,0
38661,38168,56635,0,0,0
38733,38239,56763,0,0,0
38787,38291,56862,0,0,0
38825,38328,56933,0,0,0
38847,38349,56978,0,0,0
38858,38357,56998,0,0,0
38861,38353,57001,0,0,0
38859,38342,56989,0,0,0
38848,38326,56962,0,0,0
38828,38307,56922,0,0,0
38803,38285,56878,0,0,0
38777,38259,56831,0,0,0
38748,38229,56781,0,0,0
38718,38197,56730,0,0,0
38688,38161,56679,0,0,0
38656,38124,56628,0,0,0
38623,38088,56576,0,0,0
38590,38056,56527,0,0,0
38564,38030,56485,0,0,0
38542,38007,56450,0,0,0
38520,37987,56417,0,0,0
38500,37971,56387,0,0,0
38481,37960,56361,0,0,0
38465,37948,56336,0,0,0
38451,37933,56311,0,0,0
38441,37919,56291,0,0,0
38434,37910,56277,0,0,0
38426,37901,56259,0,0,0
38413,37884,56232,0,0,0
38393,37863,56197,0,0,0
38371,37841,56154,0,0,0
38345,37815,56100,0,0,0
38314,37781,56034,0,0,0
38280,37743,55964,0,0,0
38246,37707,55894,0,0,0
38210,37669,55819,0,0,0
38170,37628,55735,0,0,0
38127,37584,55648,0,0,0
38087,37543,55569,0,0,0
38050,37506,55499,0,0,0
38013,37472,55434,0,0,0
37978,37440,55377,0,0,0
37946,37414,55332,0,0,0
37921,37394,55294,0,0,0
37902,37375,55258,0,0,0
37888,37358,55228,0,0,0
37880,37346,55209,0,0,0
37873,37339,55199,0,0,0
37867,37333,55195,0,0,0
37867,37330,55198,0,0,0
37875,37332,55206,0,0,0
37887,37338,55217,0,0,0
37898,37345,55229,0,0,0
37907,37352,55238,0,0,0
37910,37359,55245,0,0,0
37910,37361,55248,0,0,0
37912,37363,55248,0,0,0
37915,37367,55250,0,0,0
37918,37372,55252,0,0,0
37921,37372,55252,0,0,0
37921,37369,55248,0,0,0
37917,37363,55238,0,0,0
37905,37355,55221,0,0,0
37888,37341,55196,0,0,0
37873,37325,55169,0,0,0
37859,37310,55142,0,0,0
37841,37291,55114,0,0,0
37819,37266,55079,0,0,0
37794,37239,55037,0,0,0
37773,37215,54995,0,0,0
37751,37188,54948,0,0,0
37726,37158,54895,0,0,0
37702,37129,54840,0,0,0
37679,37105,54788,0,0,0
37656,37083,54737,0,0,0
37629,37060,54683,0,0,0
37601,37037,54633,0,0,0
37574,37014,54586,0,0,0
37545,36987,54538,0,0,0
37513,36958,54489,0,0,0
37479,36930,54444,0,0,0
37447,36904,54401,0,0,0
37419,36876,54359,0,0,0
37392,36843,54317,0,0,0
37367,36812,54276,0,0,0
37343,36784,54236,0,0,0
37318,36756,54193,0,0,0
37294,36728,54147,0,0,0
37274,36704,54104,0,0,0
37259,36684,54068,0,0,0
37244,36666,54036,0,0,0
37226,36648,54007,0,0,0
37207,36632,53981,0,0,0
37188,36617,53957,0,0,0
37170,36599,53931,0,0,0
37148,36578,53902,0,0,0
37126,36559,53873,0,0,0
37110,36546,53848,0,0,0
37100,36534,53823,0,0,0
37092,36524,53798,0,0,0
37084,36518,53776,0,0,0
37078,36513,53755,0,0,0
37074,36506,53736,0,0,0
37070,36496,53720,0,0,0
37065,36485,53704,0,0,0
37055,36473,53684,0,0,0
37041,36458,53662,0,0,0
37028,36443,53641,0,0,0
37016,36430,53623,0,0,0
37007,36420,53606,0,0,0
36999,36412,53589,0,0,0
36991,36405,53572,0,0,0
36986,36399,53558,0,0,0
36980,36392,53544,0,0,0
36974,36383,53529,0,0,0
36968,36373,53513,0,0,0
36958,36364,53495,0,0,0
36944,36352,53470,0,0,0
36927,36335,53440,0,0,0
36909,36317,53408,0,0,0
36890,36297,53378,0,0,0
36870,36276,53347,0,0,0
36848,36254,53315,0,0,0
36828,36236,53285,0,0,0
36810,36224,53258,0,0,0
36795,36213,53230,0,0,0
36782,36201,53203,0,0,0
36771,36191,53178,0,0,0
36761,36184,53160,0,0,0
36753,36176,53147,0,0,0
36748,36172,53143,0,0,0
36749,36179,53153,0,0,0
36765,36207,53184,0,0,0
36801,36255,53241,0,0,0
36859,36319,53330,0,0,0
36940,36406,53462,0,0,0
37044,36517,53640,0,0,0
37170,36651,53860,0,0,0
37313,36804,54113,0,0,0
37468,36973,54392,0,0,0
37633,37154,54690,0,0,0
37802,37339,54999,0,0,0
37973,37523,55313,0,0,0
38143,37703,55629,0,0,0
38305,37873,55937,0,0,0
38456,38032,56229,0,0,0
38598,38181,56497,0,0,0
38732,38318,56741,0,0,0
38851,38439,56955,0,0,0
38951,38544,57138,0,0,0
39035,38636,57291,0,0,0
39106,38713,57416,0,0,0
39161,38772,57507,0,0,0
39203,38811,57569,0,0,0
39233,38835,57608,0,0,0
39252,38846,57629,0,0,0
39258,38843,57633,0,0,0
39253,38830,57617,0,0,0
39237,38809,57588,0,0,0
39215,38782,57551,0,0,0
39189,38750,57508,0,0,0
39162,38716,57464,0,0,0
39140,38688,57427,0,0,0
39123,38664,57394,0,0,0
39103,38642,57361,0,0,0
39082,38624,57329,0,0,0
39064,38613,57299,0,0,0
39051,38607,57270,0,0,0
39040,38601,57242,0,0,0
39027,38591,57214,0,0,0
39014,38582,57189,0,0,0
39004,38577,57171,0,0,0
38995,38574,57155,0,0,0
38988,38566,57141,0,0,0
38985,38556,57131,0,0,0
38986,38551,57127,0,0,0
38988,38548,57124,0,0,0
38990,38544,57119,0,0,0
38988,38539,57112,0,0,0
38984,38530,57102,0,0,0
38974,38515,57085,0,0,0
38959,38496,57056,0,0,0
38937,38475,57015,0,0,0
38908,38449,56963,0,0,0
38871,38417,56899,0,0,0
38828,38376,56825,0,0,0
38784,38330,56746,0,0,0
38739,38281,56665,0,0,0
38695,38233,56581,0,0,0
38652,38187,56496,0,0,0
38611,38145,56417,0,0,0
38569,38106,56340,0,0,0
38527,38068,56265,0,0,0
38487,38031,56196,0,0,0
38450,37999,56134,0,0,0
38416,37969,56076,0,0,0
38384,37939,56021,0,0,0
38354,37911,55974,0,0,0
38331,37887,55934,0,0,0
38315,37869,55901,0,0,0
38307,37856,55878,0,0,0
38306,37850,55865,0,0,0
38310,37849,55861,0,0,0
38314,37846,55861,0,0,0
38314,37838,55858,0,0,0
38310,37827,55855,0,0,0
38305,37818,55852,0,0,0
38298,37809,55846,0,0,0
38291,37799,55836,0,0,0
38287,37795,55826,0,0,0
38285,37796,55815,0,0,0
38281,37796,55804,0,0,0
38277,37792,55793,0,0,0
38272,37787,55784,0,0,0
38267,37780,55775,0,0,0
38259,37769,55761,0,0,0
38248,37755,55739,0,0,0
38236,37739,55712,0,0,0
38223,37718,55678,0,0,0
38207,37695,55637,0,0,0
38188,37671,55592,0,0,0
38168,37650,55550,0,0,0
38146,37626,55510,0,0,0
38119,37598,55465,0,0,0
38089,37570,55416,0,0,0
38057,37543,55365,0,0,0
38023,37512,55312,0,0,0
37987,37474,55253,0,0,0
37947,37433,55191,0,0,0
37909,37394,55130,0,0,0
37872,37357,55073,0,0,0
37837,37321,55019,0,0,0
37806,37288,54972,0,0,0
37779,37261,54929,0,0,0
37756,37237,54888,0,0,0
37737,37217,54846,0,0,0
37723,37201,54806,0,0,0
37711,37187,54770,0,0,0
37698,37173,54738,0,0,0
37679,37154,54703,0,0,0
37658,37133,54666,0,0,0
37637,37110,54631,0,0,0
37612,37086,54596,0,0,0
37586,37061,54554,0,0,0
37563,37034,54509,0,0,0
37544,37007,54465,0,0,0
37524,36979,54424,0,0,0
37504,36953,54387,0,0,0
37488,36932,54355,0,0,0
37476,36919,54328,0,0,0
37463,36909,54303,0,0,0
37449,36897,54278,0,0,0
37437,36886,54256,0,0,0
37424,36877,54236,0,0,0
37409,36868,54214,0,0,0
37396,36856,54191,0,0,0
37386,36842,54168,0,0,0
37374,36827,54141,0,0,0
37359,36815,54113,0,0,0
37345,36809,54086,0,0,0
37333,36804,54062,0,0,0
37323,36797,54039,0,0,0
37317,36788,54017,0,0,0
37315,36780,54000,0,0,0
37315,36775,53989,0,0,0
37312,36768,53978,0,0,0
37306,36757,53966,0,0,0
37300,36745,53954,0,0,0
37289,36732,53941,0,0,0
37273,36716,53925,0,0,0
37258,36700,53905,0,0,0
37247,36690,53885,0,0,0
37240,36685,53867,0,0,0
37233,36681,53850,0,0,0
37222,36670,53829,0,0,0
37209,36657,53806,0,0,0
37196,36646,53783,0,0,0
37180,36635,53759,0,0,0
37159,36617,53729,0,0,0
37135,36594,53696,0,0,0
37110,36571,53664,0,0,0
37086,36545,53631,0,0,0
37059,36515,53595,0,0,0
37029,36486,53560,0,0,0
37004,36457,53529,0,0,0
36984,36428,53498,0,0,0
36967,36401,53466,0,0,0
36958,36383,53442,0,0,0
36962,36381,53439,0,0,0
36983,36397,53461,0,0,0
37022,36434,53513,0,0,0
37082,36497,53603,0,0,0
37163,36589,53738,0,0,0
37267,36707,53918,0,0,0
37394,36850,54140,0,0,0
37541,37012,54399,0,0,0
37701,37188,54685,0,0,0
37867,37369,54988,0,0,0
38036,37551,55300,0,0,0
38209,37737,55619,0,0,0
38383,37923,55941,0,0,0
38552,38103,56255,0,0,0
38714,38279,56556,0,0,0
38870,38448,56840,0,0,0
39015,38602,57094,0,0,0
39144,38733,57313,0,0,0
39255,38844,57499,0,0,0
39347,38934,57653,0,0,0
39418,39001,57773,0,0,0
39469,39048,57861,0,0,0
39507,39080,57921,0,0,0
39534,39102,57959,0,0,0
39550,39115,57981,0,0,0
39558,39117,57987,0,0,0
39559,39112,57977,0,0,0
39555,39100,57954,0,0,0
39547,39081,57922,0,0,0
39533,39054,57883,0,0,0
39514,39024,57843,0,0,0
39492,38995,57805,0,0,0
39468,38964,57766,0,0,0
39442,38930,57725,0,0,0
39418,38898,57688,0,0,0
39400,38874,57659,0,0,0
39386,38858,57637,0,0,0
39372,38847,57618,0,0,0
39360,38842,57601,0,0,0
39349,38840,57587,0,0,0
39336,38837,57570,0,0,0
39321,38833,57549,0,0,0
39309,38830,57529,0,0,0
39300,38824,57512,0,0,0
39293,38817,57495,0,0,0
39285,38810,57480,0,0,0
39276,38803,57466,0,0,0
39265,38792,57454,0,0,0
39254,38779,57436,0,0,0
39240,38763,57415,0,0,0
39221,38746,57391,0,0,0
39197,38726,57360,0,0,0
39169,38698,57316,0,0,0
39135,38662,57258,0,0,0
39098,38621,57191,0,0,0
39057,38577,57115,0,0,0
39011,38528,57028,0,0,0
38962,38481,56935,0,0,0
38913,38439,56844,0,0,0
38865,38397,56758,0,0,0
38817,38352,56674,0,0,0
38774,38308,56595,0,0,0
38739,38271,56525,0,0,0
38710,38238,56462,0,0,0
38687,38205,56406,0,0,0
38668,38177,56359,0,0,0
38655,38156,56325,0,0,0
38642,38140,56301,0,0,0
38629,38124,56282,0,0,0
38619,38111,56266,0,0,0
38612,38102,56256,0,0,0
38605,38094,56246,0,0,0
38596,38084,56234,0,0,0
38587,38074,56223,0,0,0
38582,38068,56218,0,0,0
38578,38065,56216,0,0,0
38574,38061,56214,0,0,0
38571,38059,56215,0,0,0
38566,38056,56217,0,0,0
38555,38047,56213,0,0,0
38541,38035,56201,0,0,0
38533,38025,56187,0,0,0
38529,38015,56172,0,0,0
38520,38000,56149,0,0,0
38504,37981,56115,0,0,0
38490,37965,56079,0,0,0
38476,37949,56042,0,0,0
38460,37928,56003,0,0,0
38439,37903,55959,0,0,0
38415,37878,55911,0,0,0
38387,37850,55862,0,0,0
38352,37815,55807,0,0,0
38316,37777,55750,0,0,0
38281,37742,55695,0,0,0
38248,37708,55639,0,0,0
38212,37672,55579,0,0,0
38174,37631,55518,0,0,0
38138,37594,55462,0,0,0
38104,37561,55408,0,0,0
38070,37528,55355,0,0,0
38040,37492,55301,0,0,0
38013,37457,55252,0,0,0
37986,37424,55206,0,0,0
37956,37393,55158,0,0,0
37925,37364,55108,0,0,0
37896,37338,55056,0,0,0
37872,37313,55001,0,0,0
37853,37287,54948,0,0,0
37836,37263,54902,0,0,0
37820,37241,54864,0,0,0
37802,37216,54828,0,0,0
37781,37189,54791,0,0,0
37757,37162,54754,0,0,0
37734,37138,54719,0,0,0
37708,37114,54683,0,0,0
37678,37086,54645,0,0,0
37647,37058,54606,0,0,0
37620,37034,54570,0,0,0
37595,37013,54535,0,0,0
37573,36995,54503,0,0,0
37554,36981,54474,0,0,0
37539,36970,54451,0,0,0
37522,36961,54429,0,0,0
37506,36953,54403,0,0,0
37492,36945,54377,0,0,0
37480,36937,54354,0,0,0
37468,36926,54331,0,0,0
37456,36913,54310,0,0,0
37445,36904,54294,0,0,0
37435,36898,54280,0,0,0
37424,36889,54267,0,0,0
37414,36878,54252,0,0,0
37407,36869,54239,0,0,0
37400,36864,54225,0,0,0
37392,36858,54211,0,0,0
37384,36849,54196,0,0,0
37376,36837,54180,0,0,0
37368,36820,54161,0,0,0
37357,36799,54139,0,0,0
37348,36779,54118,0,0,0
37341,36766,54102,0,0,0
37334,36760,54088,0,0,0
37326,36753,54073,0,0,0
37318,36750,54058,0,0,0
37312,36751,54045,0,0,0
37306,36755,54033,0,0,0
37300,36757,54016,0,0,0
37293,36755,53997,0,0,0
37282,36749,53977,0,0,0
37265,36737,53955,0,0,0
37243,36719,53929,0,0,0
37219,36698,53898,0,0,0
37197,36679,53865,0,0,0
37179,36660,53831,0,0,0
37164,36642,53798,0,0,0
37153,36626,53767,0,0,0
37145,36613,53741,0,0,0
37139,36598,53716,0,0,0
37128,36578,53689,0,0,0
37112,36557,53661,0,0,0
37093,36535,53631,0,0,0
37070,36511,53599,0,0,0
37045,36483,53560,0,0,0
37020,36457,53517,0,0,0
37001,36438,53479,0,0,0
36985,36426,53456,0,0,0
36974,36419,53446,0,0,0
36970,36422,53450,0,0,0
36977,36437,53472,0,0,0
36999,36468,53519,0,0,0
37040,36520,53597,0,0,0
37108,36596,53714,0,0,0
37202,36698,53874,0,0,0
37317,36825,54077,0,0,0
37450,36975,54323,0,0,0
37605,37148,54607,0,0,0
37778,37339,54919,0,0,0
37960,37540,55245,0,0,0
38146,37741,55581,0,0,0
38334,37941,55918,0,0,0
38517,38135,56250,0,0,0
38692,38319,56568,0,0,0
38859,38493,56871,0,0,0
39015,38655,57154,0,0,0
39156,38801,57410,0,0,0
39275,38928,57629,0,0,0
39374,39035,57812,0,0,0
39456,39121,57959,0,0,0
39521,39184,58070,0,0,0
39566,39226,58147,0,0,0
39594,39251,58195,0,0,0
39608,39266,58220,0,0,0
39609,39267,58224,0,0,0
39599,39254,58206,0,0,0
39582,39233,58174,0,0,0
39561,39206,58134,0,0,0
39539,39173,58086,0,0,0
39514,39136,58035,0,0,0
39486,39103,57985,0,0,0
39459,39071,57937,0,0,0
39430,39036,57887,0,0,0
39402,39002,57837,0,0,0
39378,38974,57794,0,0,0
39358,38953,57756,0,0,0
39336,38932,57719,0,0,0
39315,38913,57684,0,0,0
39298,38901,57657,0,0,0
39289,38894,57635,0,0,0
39281,38884,57616,0,0,0
39273,38869,57597,0,0,0
39266,38856,57582,0,0,0
39260,38845,57571,0,0,0
39254,38832,57558,0,0,0
39246,38813,57540,0,0,0
39234,38792,57520,0,0,0
39219,38771,57500,0,0,0
39200,38746,57473,0,0,0
39179,38719,57437,0,0,0
39157,38693,57393,0,0,0
39128,38664,57340,0,0,0
39092,38630,57276,0,0,0
39053,38591,57203,0,0,0
39011,38552,57125,0,0,0
38966,38509,57043,0,0,0
38919,38462,56958,0,0,0
38874,38416,56873,0,0,0
38832,38373,56792,0,0,0
38793,38332,56716,0,0,0
38755,38294,56646,0,0,0
38723,38261,56586,0,0,0
38700,38236,56536,0,0,0
38680,38215,56494,0,0,0
38661,38196,56456,0,0,0
38644,38180,56424,0,0,0
38630,38169,56399,0,0,0
38615,38157,56381,0,0,0
38601,38143,56367,0,0,0
38590,38130,56357,0,0,0
38582,38121,56352,0,0,0
38575,38113,56348,0,0,0
38568,38106,56343,0,0,0
38561,38101,56339,0,0,0
38553,38098,56340,0,0,0
38543,38094,56337,0,0,0
38536,38089,56330,0,0,0
38533,38087,56326,0,0,0
38532,38088,56324,0,0,0
38529,38085,56319,0,0,0
38524,38079,56308,0,0,0
38519,38071,56295,0,0,0
38512,38061,56280,0,0,0
38503,38048,56259,0,0,0
38491,38029,56229,0,0,0
38477,38008,56192,0,0,0
38461,37990,56153,0,0,0
38441,37970,56109,0,0,0
38418,37945,56062,0,0,0
38394,37918,56016,0,0,0
38370,37891,55968,0,0,0
38345,37864,55918,0,0,0
38318,37836,55867,0,0,0
38289,37808,55816,0,0,0
38256,37777,55761,0,0,0
38219,37739,55701,0,0,0
38182,37698,55639,0,0,0
38151,37658,55577,0,0,0
38121,37618,55518,0,0,0
38090,37579,55457,0,0,0
38058,37540,55398,0,0,0
38027,37503,55345,0,0,0
37999,37469,55299,0,0,0
37972,37438,55257,0,0,0
37949,37413,55217,0,0,0
37928,37394,55179,0,0,0
37904,37373,55139,0,0,0
37873,37348,55096,0,0,0
37839,37324,55056,0,0,0
37803,37304,55016,0,0,0
37764,37283,54974,0,0,0
37730,37257,54936,0,0,0
37706,37234,54907,0,0,0
37694,37214,54884,0,0,0
37685,37195,54860,0,0,0
37674,37175,54834,0,0,0
37663,37161,54813,0,0,0
37657,37153,54798,0,0,0
37651,37143,54781,0,0,0
37643,37130,54759,0,0,0
37633,37118,54735,0,0,0
37624,37108,54710,0,0,0
37612,37094,54680,0,0,0
37596,37075,54648,0,0,0
37581,37059,54621,0,0,0
37570,37047,54601,0,0,0
37557,37037,54582,0,0,0
37543,37026,54562,0,0,0
37528,37017,54541,0,0,0
37512,37009,54520,0,0,0
37497,36998,54497,0,0,0
37485,36986,54471,0,0,0
37475,36973,54444,0,0,0
37463,36958,54411,0,0,0
37445,36936,54373,0,0,0
37420,36910,54337,0,0,0
37396,36885,54311,0,0,0
37378,36863,54292,0,0,0
37360,36842,54275,0,0,0
37342,36826,54259,0,0,0
37330,36816,54244,0,0,0
37323,36808,54228,0,0,0
37317,36799,54207,0,0,0
37311,36790,54184,0,0,0
37308,36783,54164,0,0,0
37302,36776,54146,0,0,0
37294,36765,54124,0,0,0
37286,36754,54101,0,0,0
37278,36743,54079,0,0,0
37268,36731,54056,0,0,0
37254,36717,54032,0,0,0
37240,36706,54009,0,0,0
37229,36695,53986,0,0,0
37217,36682,53958,0,0,0
37203,36665,53924,0,0,0
37188,36646,53890,0,0,0
37176,36631,53860,0,0,0
37167,36617,53832,0,0,0
37156,36601,53802,0,0,0
37141,36585,53774,0,0,0
37124,36569,53745,0,0,0
37104,36548,53715,0,0,0
37079,36524,53685,0,0,0
37057,36503,53657,0,0,0
37038,36486,53627,0,0,0
37019,36467,53599,0,0,0
37002,36451,53576,0,0,0
36989,36441,53565,0,0,0
36987,36442,53567,0,0,0
36999,36456,53588,0,0,0
37028,36488,53638,0,0,0
37078,36544,53727,0,0,0
37151,36625,53857,0,0,0
37250,36731,54028,0,0,0
37375,36865,54238,0,0,0
37528,37028,54491,0,0,0
37704,37213,54782,0,0,0
37891,37412,55099,0,0,0
38084,37617,55432,0,0,0
38279,37824,55775,0,0,0
38469,38029,56120,0,0,0
38648,38226,56458,0,0,0
38818,38410,56781,0,0,0
38977,38581,57086,0,0,0
39124,38738,57362,0,0,0
39260,38877,57606,0,0,0
39385,39003,57817,0,0,0
39494,39112,58000,0,0,0
39581,39203,58150,0,0,0
39644,39273,58263,0,0,0
39690,39326,58341,0,0,0
39719,39360,58391,0,0,0
39733,39375,58415,0,0,0
39734,39373,58415,0,0,0
39727,39362,58395,0,0,0
39714,39345,58363,0,0,0
39691,39318,58321,0,0,0
39659,39284,58272,0,0,0
39626,39247,58221,0,0,0
39592,39210,58169,0,0,0
39556,39169,58114,0,0,0
39520,39128,58058,0,0,0
39489,39093,58008,0,0,0
39461,39066,57963,0,0,0
39432,39041,57920,0,0,0
39403,39015,57876,0,0,0
39376,38990,57834,0,0,0
39354,38969,57795,0,0,0
39338,38951,57759,0,0,0
39329,38936,57728,0,0,0
39324,38926,57705,0,0,0
39318,38919,57689,0,0,0
39309,38910,57674,0,0,0
39296,38899,57657,0,0,0
39282,38888,57639,0,0,0
39268,38873,57616,0,0,0
39252,38851,57582,0,0,0
39232,38824,57539,0,0,0
39208,38796,57488,0,0,0
39181,38768,57428,0,0,0
39147,38734,57358,0,0,0
39112,38698,57284,0,0,0
39078,38665,57213,0,0,0
39040,38628,57140,0,0,0
38994,38582,57067,0,0,0
38942,38536,56997,0,0,0
38891,38492,56933,0,0,0
38842,38448,56873,0,0,0
38798,38406,56816,0,0,0
38762,38371,56766,0,0,0
38734,38342,56724,0,0,0
38714,38318,56686,0,0,0
38700,38297,56651,0,0,0
38692,38282,56622,0,0,0
38688,38275,56604,0,0,0
38686,38270,56594,0,0,0
38683,38264,56587,0,0,0
38683,38259,56582,0,0,0
38687,38259,56581,0,0,0
38692,38261,56584,0,0,0
38694,38264,56589,0,0,0
38697,38268,56596,0,0,0
38698,38274,56605,0,0,0
38698,38282,56613,0,0,0
38697,38287,56615,0,0,0
38698,38290,56614,0,0,0
38699,38291,56612,0,0,0
38698,38289,56605,0,0,0
38693,38283,56593,0,0,0
38685,38272,56576,0,0,0
38675,38258,56556,0,0,0
38662,38238,56530,0,0,0
38648,38215,56500,0,0,0
38632,38192,56467,0,0,0
38612,38168,56431,0,0,0
38591,38144,56388,0,0,0
38570,38119,56342,0,0,0
38547,38092,56295,0,0,0
38518,38063,56249,0,0,0
38484,38030,56199,0,0,0
38448,37995,56145,0,0,0
38413,37962,56088,0,0,0
38381,37926,56029,0,0,0
38349,37891,55967,0,0,0
38317,37861,55908,0,0,0
38287,37833,55856,0,0,0
38256,37803,55812,0,0,0
38227,37769,55769,0,0,0
38200,37735,55727,0,0,0
38176,37706,55687,0,0,0
38149,37677,55647,0,0,0
38118,37645,55603,0,0,0
38088,37613,55559,0,0,0
38062,37582,55518,0,0,0
38037,37555,55478,0,0,0
38012,37528,55438,0,0,0
37990,37502,55399,0,0,0
37973,37480,55367,0,0,0
37961,37464,55337,0,0,0
37949,37449,55303,0,0,0
37936,37434,55268,0,0,0
37924,37420,55237,0,0,0
37908,37406,55206,0,0,0
37886,37391,55177,0,0,0
37866,37375,55152,0,0,0
37848,37357,55127,0,0,0
37834,37338,55102,0,0,0
37821,37321,55078,0,0,0
37811,37308,55056,0,0,0
37801,37298,55034,0,0,0
37790,37288,55010,0,0,0
37779,37281,54987,0,0,0
37769,37277,54969,0,0,0
37759,37273,54952,0,0,0
37751,37266,54935,0,0,0
37743,37259,54920,0,0,0
37735,37248,54906,0,0,0
37724,37231,54887,0,0,0
37712,37210,54861,0,0,0
37699,37189,54835,0,0,0
37684,37172,54813,0,0,0
37670,37157,54795,0,0,0
37656,37143,54775,0,0,0
37642,37130,54753,0,0,0
37631,37121,54732,0,0,0
37620,37113,54715,0,0,0
37608,37103,54698,0,0,0
37595,37092,54678,0,0,0
37582,37080,54653,0,0,0
37563,37066,54625,0,0,0
37540,37047,54591,0,0,0
37517,37024,54556,0,0,0
37496,37001,54521,0,0,0
37476,36977,54486,0,0,0
37457,36952,54452,0,0,0
37440,36929,54421,0,0,0
37425,36908,54391,0,0,0
37411,36887,54361,0,0,0
37397,36863,54330,0,0,0
37385,36841,54301,0,0,0
37375,36823,54277,0,0,0
37362,36808,54254,0,0,0
37347,36796,54233,0,0,0
37332,36788,54215,0,0,0
37319,36782,54202,0,0,0
37313,36781,54195,0,0,0
37320,36792,54204,0,0,0
37342,36822,54236,0,0,0
37381,36872,54298,0,0,0
37436,36940,54394,0,0,0
37513,37030,54526,0,0,0
37615,37145,54701,0,0,0
37741,37282,54919,0,0,0
37885,37438,55172,0,0,0
38043,37609,55453,0,0,0
38212,37793,55755,0,0,0
38389,37981,56066,0,0,0
38567,38168,56382,0,0,0
38742,38352,56698,0,0,0
38913,38533,57009,0,0,0
39078,38705,57304,0,0,0
39235,38866,57576,0,0,0
39378,39015,57826,0,0,0
39505,39150,58049,0,0,0
39613,39264,58238,0,0,0
39699,39352,58391,0,0,0
39763,39418,58509,0,0,0
39807,39466,58593,0,0,0
39834,39496,58645,0,0,0
39844,39506,58667,0,0,0
39841,39498,58662,0,0,0
39827,39479,58636,0,0,0
39803,39453,58595,0,0,0
39771,39416,58542,0,0,0
39732,39371,58483,0,0,0
39689,39323,58421,0,0,0
39645,39274,58357,0,0,0
39602,39225,58292,0,0,0
39563,39180,58226,0,0,0
39528,39142,58164,0,0,0
39495,39108,58107,0,0,0
39464,39077,58055,0,0,0
39438,39050,58006,0,0,0
39419,39031,57962,0,0,0
39405,39013,57924,0,0,0
39394,38993,57890,0,0,0
39382,38973,57858,0,0,0
39372,38956,57831,0,0,0
39359,38942,57805,0,0,0
39342,38925,57773,0,0,0
39320,38906,57738,0,0,0
39294,38886,57698,0,0,0
39263,38862,57651,0,0,0
39229,38831,57596,0,0,0
39192,38793,57533,0,0,0
39149,38749,57464,0,0,0
39104,38704,57390,0,0,0
39063,38662,57314,0,0,0
39025,38623,57239,0,0,0
38987,38586,57164,0,0,0
38952,38551,57090,0,0,0
38920,38521,57024,0,0,0
38892,38500,56972,0,0,0
38870,38485,56933,0,0,0
38854,38471,56900,0,0,0
38845,38461,56876,0,0,0
38841,38455,56863,0,0,0
38839,38452,56854,0,0,0
38839,38449,56849,0,0,0
38844,38450,56850,0,0,0
38855,38457,56862,0,0,0
38867,38466,56877,0,0,0
38878,38477,56895,0,0,0
38892,38494,56919,0,0,0
38909,38513,56945,0,0,0
38925,38528,56965,0,0,0
38939,38540,56981,0,0,0
38955,38555,56996,0,0,0
38970,38571,57013,0,0,0
38978,38582,57029,0,0,0
38978,38587,57039,0,0,0
38972,38586,57045,0,0,0
38962,38581,57046,0,0,0
38947,38566,57037,0,0,0
38928,38543,57020,0,0,0
38912,38522,57001,0,0,0
38897,38507,56980,0,0,0
38878,38494,56955,0,0,0
38860,38485,56924,0,0,0
38847,38479,56892,0,0,0
38842,38477,56862,0,0,0
38839,38475,56834,0,0,0
38835,38472,56805,0,0,0
38829,38467,56775,0,0,0
38820,38462,56744,0,0,0
38806,38455,56711,0,0,0
38789,38445,56678,0,0,0
38772,38434,56648,0,0,0
38755,38422,56618,0,0,0
38735,38410,56586,0,0,0
38716,38395,56550,0,0,0
38697,38378,56512,0,0,0
38675,38358,56471,0,0,0
38653,38336,56424,0,0,0
38633,38313,56375,0,0,0
38612,38289,56325,0,0,0
38587,38262,56278,0,0,0
38560,38236,56234,0,0,0
38539,38213,56194,0,0,0
38526,38194,56159,0,0,0
38516,38176,56130,0,0,0
38507,38161,56107,0,0,0
38502,38152,56088,0,0,0
38500,38148,56070,0,0,0
38496,38148,56052,0,0,0
38490,38148,56033,0,0,0
38482,38149,56017,0,0,0
38474,38145,56000,0,0,0
38464,38135,55975,0,0,0
38451,38119,55946,0,0,0
38439,38105,55919,0,0,0
38431,38096,55894,0,0,0
38424,38089,55869,0,0,0
38416,38082,55843,0,0,0
38409,38081,55824,0,0,0
38401,38083,55810,0,0,0
38391,38084,55797,0,0,0
38380,38081,55781,0,0,0
38369,38073,55762,0,0,0
38357,38058,55738,0,0,0
38339,38034,55708,0,0,0
38316,38003,55673,0,0,0
38288,37968,55634,0,0,0
38257,37927,55593,0,0,0
38226,37882,55550,0,0,0
38201,37836,55506,0,0,0
38179,37792,55462,0,0,0
38155,37752,55417,0,0,0
38129,37713,55369,0,0,0
38105,37674,55320,0,0,0
38082,37640,55275,0,0,0
38056,37611,55233,0,0,0
38025,37581,55193,0,0,0
37993,37554,55158,0,0,0
37966,37532,55125,0,0,0
37941,37513,55093,0,0,0
37919,37495,55060,0,0,0
37901,37478,55030,0,0,0
37886,37467,55006,0,0,0
37871,37459,54984,0,0,0
37857,37451,54960,0,0,0
37848,37445,54940,0,0,0
37846,37443,54928,0,0,0
37849,37442,54926,0,0,0
37858,37445,54939,0,0,0
37878,37461,54976,0,0,0
37917,37498,55045,0,0,0
37975,37557,55149,0,0,0
38055,37641,55290,0,0,0
38158,37751,55475,0,0,0
38283,37887,55705,0,0,0
38428,38044,55971,0,0,0
38591,38219,56266,0,0,0
38772,38410,56585,0,0,0
38963,38611,56922,0,0,0
39160,38813,57264,0,0,0
39359,39018,57606,0,0,0
39558,39225,57948,0,0,0
39748,39424,58279,0,0,0
39921,39604,58581,0,0,0
40073,39757,58846,0,0,0
40205,39885,59076,0,0,0
40317,39993,59272,0,0,0
40405,40079,59426,0,0,0
40470,40140,59541,0,0,0
40517,40181,59621,0,0,0
40547,40205,59671,0,0,0
40559,40211,59692,0,0,0
40555,40202,59691,0,0,0
40540,40182,59673,0,0,0
40516,40157,59639,0,0,0
40484,40126,59593,0,0,0
40449,40093,59540,0,0,0
40414,40059,59488,0,0,0
40377,40025,59439,0,0,0
40341,39991,59389,0,0,0
40309,39958,59338,0,0,0
40279,39927,59289,0,0,0
40249,39896,59241,0,0,0
40218,39861,59188,0,0,0
40189,39825,59134,0,0,0
40164,39792,59085,0,0,0
40140,39761,59039,0,0,0
40115,39731,58997,0,0,0
40094,39704,58960,0,0,0
40077,39684,58928,0,0,0
40066,39671,58902,0,0,0
40059,39661,58879,0,0,0
40054,39656,58859,0,0,0
40051,39654,58843,0,0,0
40046,39651,58824,0,0,0
40039,39642,58795,0,0,0
40030,39628,58759,0,0,0
40018,39612,58718,0,0,0
39999,39591,58667,0,0,0
39969,39559,58609,0,0,0
39929,39521,58547,0,0,0
39882,39479,58482,0,0,0
39831,39432,58410,0,0,0
39781,39384,58331,0,0,0
39736,39341,58251,0,0,0
39694,39303,58175,0,0,0
39653,39269,58103,0,0,0
39615,39237,58036,0,0,0
39584,39210,57976,0,0,0
39558,39185,57924,0,0,0
39536,39161,57877,0,0,0
39517,39138,57836,0,0,0
39502,39119,57804,0,0,0
39490,39102,57781,0,0,0
39479,39087,57762,0,0,0
39473,39076,57750,0,0,0
39470,39070,57747,0,0,0
39467,39065,57748,0,0,0
39462,39060,57749,0,0,0
39458,39056,57752,0,0,0
39457,39058,57761,0,0,0
39456,39059,57771,0,0,0
39455,39058,57777,0,0,0
39454,39056,57779,0,0,0
39456,39056,57781,0,0,0
39459,39051,57780,0,0,0
39460,39042,57773,0,0,0
39461,39038,57763,0,0,0
39463,39037,57753,0,0,0
39460,39036,57737,0,0,0
39453,39027,57717,0,0,0
39444,39014,57694,0,0,0
39434,39000,57666,0,0,0
39419,38982,57630,0,0,0
39398,38960,57584,0,0,0
39376,38936,57534,0,0,0
39353,38914,57488,0,0,0
39330,38894,57443,0,0,0
39305,38870,57394,0,0,0
39281,38847,57345,0,0,0
39259,38829,57301,0,0,0
39237,38810,57259,0,0,0
39212,38786,57216,0,0,0
39185,38763,57174,0,0,0
39159,38740,57133,0,0,0
39135,38715,57088,0,0,0
39108,38686,57037,0,0,0
39081,38655,56986,0,0,0
39054,38624,56937,0,0,0
39027,38595,56889,0,0,0
39002,38568,56844,0,0,0
38978,38546,56802,0,0,0
38954,38528,56763,0,0,0
38932,38513,56726,0,0,0
38912,38500,56693,0,0,0
38899,38492,56667,0,0,0
38889,38488,56643,0,0,0
38880,38484,56618,0,0,0
38871,38481,56594,0,0,0
38862,38480,56573,0,0,0
38850,38476,56556,0,0,0
38836,38468,56542,0,0,0
38823,38460,56532,0,0,0
38812,38456,56525,0,0,0
38802,38450,56514,0,0,0
38795,38445,56502,0,0,0
38793,38443,56490,0,0,0
38793,38444,56480,0,0,0
38789,38445,56470,0,0,0
38784,38442,56458,0,0,0
38780,38435,56445,0,0,0
38777,38427,56432,0,0,0
38775,38418,56418,0,0,0
38775,38412,56403,0,0,0
38777,38412,56390,0,0,0
38780,38414,56379,0,0,0
38782,38412,56364,0,0,0
38781,38407,56347,0,0,0
38776,38406,56331,0,0,0
38771,38408,56314,0,0,0
38764,38409,56297,0,0,0
38758,38411,56283,0,0,0
38755,38417,56279,0,0,0
38755,38423,56280,0,0,0
38754,38427,56279,0,0,0
38753,38428,56273,0,0,0
38751,38426,56265,0,0,0
38748,38423,56258,0,0,0
38743,38417,56247,0,0,0
38736,38406,56231,0,0,0
38726,38390,56212,0,0,0
38715,38373,56190,0,0,0
38701,38354,56163,0,0,0
38685,38335,56134,0,0,0
38669,38319,56104,0,0,0
38654,38305,56073,0,0,0
38637,38291,56040,0,0,0
38618,38275,56004,0,0,0
38602,38263,55972,0,0,0
38591,38255,55947,0,0,0
38586,38251,55929,0,0,0
38589,38255,55925,0,0,0
38605,38276,55944,0,0,0
38635,38314,55991,0,0,0
38679,38369,56068,0,0,0
38742,38445,56181,0,0,0
38829,38544,56338,0,0,0
38937,38666,56536,0,0,0
39066,38809,56772,0,0,0
39221,38978,57047,0,0,0
39397,39167,57356,0,0,0
39588,39369,57693,0,0,0
39791,39580,58053,0,0,0
39999,39796,58424,0,0,0
40205,40011,58795,0,0,0
40408,40221,59158,0,0,0
40604,40419,59502,0,0,0
40787,40602,59817,0,0,0
40956,40768,60104,0,0,0
41107,40913,60362,0,0,0
41236,41032,60585,0,0,0
41341,41129,60770,0,0,0
41425,41209,60916,0,0,0
41486,41271,61026,0,0,0
41523,41311,61103,0,0,0
41541,41330,61154,0,0,0
41541,41328,61176,0,0,0
41525,41303,61168,0,0,0
41500,41264,61140,0,0,0
41470,41220,61100,0,0,0
41433,41173,61048,0,0,0
41394,41123,60986,0,0,0
41356,41073,60919,0,0,0
41320,41027,60852,0,0,0
41285,40986,60785,0,0,0
41249,40947,60717,0,0,0
41212,40912,60651,0,0,0
41180,40880,60591,0,0,0
41154,40851,60534,0,0,0
41130,40825,60480,0,0,0
41112,40805,60433,0,0,0
41100,40789,60398,0,0,0
41087,40774,60369,0,0,0
41074,40757,60342,0,0,0
41061,40739,60315,0,0,0
41045,40722,60290,0,0,0
41025,40702,60262,0,0,0
41002,40678,60229,0,0,0
40980,40650,60194,0,0,0
40955,40619,60156,0,0,0
40923,40582,60107,0,0,0
40887,40538,60044,0,0,0
40849,40492,59971,0,0,0
40808,40445,59889,0,0,0
40764,40399,59802,0,0,0
40719,40355,59712,0,0,0
40675,40315,59624,0,0,0
40630,40272,59535,0,0,0
40583,40223,59442,0,0,0
40535,40172,59348,0,0,0
40490,40124,59259,0,0,0
40446,40076,59176,0,0,0
40401,40025,59097,0,0,0
40356,39973,59022,0,0,0
40313,39926,58956,0,0,0
40275,39885,58899,0,0,0
40244,39847,58851,0,0,0
40220,39816,58812,0,0,0
40206,39795,58787,0,0,0
40200,39782,58772,0,0,0
40196,39773,58762,0,0,0
40195,39768,58754,0,0,0
40196,39769,58747,0,0,0
40198,39769,58742,0,0,0
40198,39763,58738,0,0,0
40195,39754,58739,0,0,0
40193,39745,58745,0,0,0
40191,39737,58754,0,0,0
40189,39730,58761,0,0,0
40192,39723,58764,0,0,0
40198,39721,58763,0,0,0
40204,39721,58760,0,0,0
40206,39718,58753,0,0,0
40207,39711,58743,0,0,0
40206,39705,58731,0,0,0
40199,39696,58710,0,0,0
40186,39683,58679,0,0,0
40169,39669,58641,0,0,0
40149,39656,58597,0,0,0
40126,39639,58548,0,0,0
40104,39615,58495,0,0,0
40082,39588,58441,0,0,0
40060,39560,58384,0,0,0
40033,39528,58328,0,0,0
40004,39494,58271,0,0,0
39976,39463,58216,0,0,0
39948,39436,58163,0,0,0
39919,39407,58110,0,0,0
39885,39374,58053,0,0,0
39850,39340,57995,0,0,0
39814,39307,57939,0,0,0
39776,39269,57879,0,0,0
39733,39225,57812,0,0,0
39687,39177,57740,0,0,0
39642,39128,57669,0,0,0
39600,39078,57597,0,0,0
39559,39027,57527,0,0,0
39522,38979,57460,0,0,0
39490,38937,57398,0,0,0
39460,38897,57338,0,0,0
39430,38859,57278,0,0,0
39400,38829,57222,0,0,0
39372,38805,57174,0,0,0
39347,38783,57133,0,0,0
39327,38763,57096,0,0,0
39309,38747,57065,0,0,0
39288,38735,57037,0,0,0
39265,38721,57006,0,0,0
39240,38703,56968,0,0,0
39214,38677,56927,0,0,0
39185,38647,56886,0,0,0
39155,38611,56844,0,0,0
39125,38574,56804,0,0,0
39097,38540,56770,0,0,0
39069,38508,56738,0,0,0
39042,38477,56703,0,0,0
39019,38448,56669,0,0,0
39001,38427,56643,0,0,0
38987,38414,56623,0,0,0
38977,38405,56607,0,0,0
38972,38401,56590,0,0,0
38969,38399,56574,0,0,0
38963,38396,56555,0,0,0
38954,38388,56530,0,0,0
38942,38377,56500,0,0,0
38928,38368,56468,0,0,0
38913,38357,56435,0,0,0
38895,38340,56397,0,0,0
38877,38320,56358,0,0,0
38858,38299,56321,0,0,0
38834,38277,56288,0,0,0
38805,38253,56252,0,0,0
38775,38225,56213,0,0,0
38746,38197,56175,0,0,0
38717,38171,56135,0,0,0
38689,38144,56092,0,0,0
38662,38116,56045,0,0,0
38638,38091,55999,0,0,0
38615,38071,55956,0,0,0
38595,38054,55915,0,0,0
38579,38040,55878,0,0,0
38563,38027,55845,0,0,0
38544,38012,55816,0,0,0
38524,37996,55787,0,0,0
38511,37979,55762,0,0,0
38506,37965,55743,0,0,0
38510,37960,55738,0,0,0
38524,37969,55755,0,0,0
38553,37999,55803,0,0,0
38600,38050,55888,0,0,0
38670,38126,56012,0,0,0
38765,38228,56178,0,0,0
38885,38358,56386,0,0,0
39024,38510,56632,0,0,0
39184,38681,56917,0,0,0
39363,38872,57239,0,0,0
39561,39081,57593,0,0,0
39771,39297,57966,0,0,0
39985,39516,58345,0,0,0
40199,39737,58723,0,0,0
40407,39957,59092,0,0,0
40602,40163,59439,0,0,0
40778,40346,59754,0,0,0
40933,40505,60032,0,0,0
41064,40634,60273,0,0,0
41167,40732,60469,0,0,0
41242,40803,60619,0,0,0
41292,40850,60726,0,0,0
41320,40879,60794,0,0,0
41333,40889,60825,0,0,0
41333,40883,60826,0,0,0
41323,40868,60804,0,0,0
41305,40844,60767,0,0,0
41279,40811,60715,0,0,0
41245,40769,60651,0,0,0
41206,40722,60583,0,0,0
41163,40675,60511,0,0,0
41119,40626,60432,0,0,0
41074,40575,60350,0,0,0
41030,40526,60270,0,0,0
40990,40482,60196,0,0,0
40953,40444,60132,0,0,0
40919,40413,60078,0,0,0
40892,40390,60029,0,0,0
40869,40371,59981,0,0,0
40846,40351,59939,0,0,0
40826,40333,59904,0,0,0
40808,40316,59876,0,0,0
40790,40295,59850,0,0,0
40769,40272,59825,0,0,0
40750,40254,59805,0,0,0
40731,40236,59785,0,0,0
40711,40217,59762,0,0,0
40689,40194,59732,0,0,0
40666,40171,59695,0,0,0
40643,40150,59648,0,0,0
40615,40125,59588,0,0,0
40575,40089,59511,0,0,0
40527,40045,59423,0,0,0
40478,40001,59334,0,0,0
40428,39954,59242,0,0,0
40371,39898,59146,0,0,0
40317,39841,59053,0,0,0
40270,39790,58971,0,0,0
40229,39743,58898,0,0,0
40195,39701,58831,0,0,0
40166,39664,58771,0,0,0
40142,39633,58722,0,0,0
40123,39610,58682,0,0,0
40108,39591,58647,0,0,0
40096,39574,58618,0,0,0
40084,39562,58597,0,0,0
40075,39554,58582,0,0,0
40069,39547,58571,0,0,0
40067,39539,58564,0,0,0
40070,39537,58564,0,0,0
40074,39538,58570,0,0,0
40074,39540,58579,0,0,0
40077,39546,58592,0,0,0
40083,39556,58610,0,0,0
40088,39564,58626,0,0,0
40087,39567,58637,0,0,0
40086,39569,58644,0,0,0
40085,39571,58647,0,0,0
40078,39573,58642,0,0,0
40064,39570,58628,0,0,0
40049,39560,58606,0,0,0
40031,39543,58579,0,0,0
40013,39524,58547,0,0,0
39996,39506,58512,0,0,0
39980,39490,58477,0,0,0
39961,39472,58444,0,0,0
39934,39445,58407,0,0,0
39901,39413,58362,0,0,0
39870,39380,58308,0,0,0
39840,39343,58247,0,0,0
39807,39298,58177,0,0,0
39771,39250,58104,0,0,0
39735,39203,58035,0,0,0
39695,39155,57965,0,0,0
39655,39107,57893,0,0,0
39615,39060,57823,0,0,0
39578,39019,57757,0,0,0
39544,38984,57693,0,0,0
39511,38948,57628,0,0,0
39478,38910,57565,0,0,0
39444,38874,57502,0,0,0
39410,38840,57438,0,0,0
39375,38807,57376,0,0,0
39342,38775,57321,0,0,0
39313,38746,57270,0,0,0
39286,38719,57221,0,0,0
39260,38691,57171,0,0,0
39235,38664,57122,0,0,0
39209,38642,57079,0,0,0
39185,38623,57042,0,0,0
39165,38607,57009,0,0,0
39151,38595,56980,0,0,0
39139,38582,56954,0,0,0
39122,38564,56927,0,0,0
39101,38544,56896,0,0,0
39082,38525,56863,0,0,0
39061,38507,56830,0,0,0
39036,38484,56795,0,0,0
39013,38462,56760,0,0,0
38998,38446,56730,0,0,0
38990,38436,56707,0,0,0
38983,38426,56688,0,0,0
38975,38416,56671,0,0,0
38966,38411,56654,0,0,0
38954,38405,56633,0,0,0
38939,38393,56604,0,0,0
38921,38373,56571,0,0,0
38901,38354,56537,0,0,0
38881,38337,56505,0,0,0
38858,38318,56474,0,0,0
38832,38297,56439,0,0,0
38807,38275,56403,0,0,0
38785,38252,56368,0,0,0
38763,38227,56333,0,0,0
38741,38203,56300,0,0,0
38720,38184,56270,0,0,0
38696,38165,56240,0,0,0
38673,38144,56208,0,0,0
38655,38126,56179,0,0,0
38646,38116,56158,0,0,0
38644,38112,56146,0,0,0
38650,38116,56154,0,0,0
38672,38140,56193,0,0,0
38713,38185,56267,0,0,0
38775,38251,56378,0,0,0
38858,38339,56526,0,0,0
38961,38453,56718,0,0,0
39088,38591,56952,0,0,0
39236,38752,57220,0,0,0
39402,38930,57516,0,0,0
39581,39127,57839,0,0,0
39773,39340,58182,0,0,0
39970,39557,58530,0,0,0
40166,39768,58874,0,0,0
40356,39971,59209,0,0,0
40534,40163,59526,0,0,0
40692,40335,59814,0,0,0
40830,40482,60067,0,0,0
40946,40603,60281,0,0,0
41039,40699,60454,0,0,0
41111,40770,60584,0,0,0
41163,40816,60676,0,0,0
41200,40843,60733,0,0,0
41219,40852,60758,0,0,0
41220,40842,60753,0,0,0
41206,40819,60725,0,0,0
41182,40790,60678,0,0,0
41148,40755,60614,0,0,0
41104,40708,60536,0,0,0
41055,40654,60452,0,0,0
41007,40602,60366,0,0,0
40961,40551,60281,0,0,0
40916,40499,60197,0,0,0
40874,40450,60115,0,0,0
40837,40407,60039,0,0,0
40802,40371,59971,0,0,0
40768,40337,59911,0,0,0
40737,40309,59860,0,0,0
40710,40288,59816,0,0,0
40687,40267,59776,0,0,0
40667,40244,59736,0,0,0
40647,40223,59696,0,0,0
40630,40203,59657,0,0,0
40610,40182,59617,0,0,0
40585,40156,59572,0,0,0
40557,40126,59521,0,0,0
40526,40095,59466,0,0,0
40493,40060,59406,0,0,0
40457,40021,59335,0,0,0
40419,39979,59261,0,0,0
40378,39938,59191,0,0,0
40334,39896,59124,0,0,0
40289,39853,59050,0,0,0
40242,39808,58973,0,0,0
40197,39764,58897,0,0,0
40151,39718,58821,0,0,0
40105,39671,58745,0,0,0
40061,39629,58674,0,0,0
40025,39593,58613,0,0,0
39995,39559,58557,0,0,0
39966,39527,58507,0,0,0
39940,39499,58467,0,0,0
39919,39476,58437,0,0,0
39906,39457,58417,0,0,0
39902,39444,58405,0,0,0
39904,39441,58400,0,0,0
39907,39446,58404,0,0,0
39912,39457,58416,0,0,0
39923,39470,58433,0,0,0
39937,39483,58455,0,0,0
39949,39496,58477,0,0,0
39954,39505,58495,0,0,0
39955,39508,58510,0,0,0
39953,39509,58520,0,0,0
39949,39507,58523,0,0,0
39940,39499,58515,0,0,0
39928,39488,58502,0,0,0
39918,39477,58490,0,0,0
39907,39463,58475,0,0,0
39895,39446,58454,0,0,0
39885,39428,58427,0,0,0
39875,39410,58396,0,0,0
39864,39391,58359,0,0,0
39850,39368,58314,0,0,0
39831,39341,58264,0,0,0
39807,39308,58211,0,0,0
39776,39270,58153,0,0,0
39740,39230,58092,0,0,0
39701,39193,58030,0,0,0
39661,39158,57965,0,0,0
39617,39125,57894,0,0,0
39570,39088,57819,0,0,0
39524,39051,57745,0,0,0
39482,39016,57677,0,0,0
39444,38980,57612,0,0,0
39409,38946,57551,0,0,0
39377,38917,57496,0,0,0
39348,38891,57445,0,0,0
39321,38864,57394,0,0,0
39298,38835,57346,0,0,0
39280,38809,57302,0,0,0
39263,38784,57258,0,0,0
39241,38757,57212,0,0,0
39216,38732,57167,0,0,0
39196,38713,57128,0,0,0
39177,38697,57094,0,0,0
39155,38676,57061,0,0,0
39131,38652,57029,0,0,0
39109,38630,56994,0,0,0
39087,38608,56956,0,0,0
39065,38584,56917,0,0,0
39047,38561,56881,0,0,0
39032,38541,56846,0,0,0
39018,38522,56812,0,0,0
39001,38501,56777,0,0,0
38983,38482,56749,0,0,0
38966,38466,56727,0,0,0
38950,38449,56703,0,0,0
38932,38427,56673,0,0,0
38910,38404,56639,0,0,0
38886,38386,56606,0,0,0
38860,38371,56574,0,0,0
38834,38354,56538,0,0,0
38808,38333,56503,0,0,0
38785,38314,56471,0,0,0
38766,38298,56439,0,0,0
38750,38278,56402,0,0,0
38736,38260,56363,0,0,0
38723,38244,56328,0,0,0
38708,38225,56294,0,0,0
38689,38199,56259,0,0,0
38667,38173,56225,0,0,0
38645,38154,56190,0,0,0
38622,38137,56152,0,0,0
38598,38117,56109,0,0,0
38578,38096,56067,0,0,0
38561,38074,56030,0,0,0
38543,38051,55999,0,0,0
38525,38026,55969,0,0,0
38512,38005,55943,0,0,0
38507,37995,55933,0,0,0
38516,37999,55946,0,0,0
38540,38024,55992,0,0,0
38583,38078,56077,0,0,0
38648,38159,56204,0,0,0
38739,38264,56372,0,0,0
38854,38392,56580,0,0,0
38988,38542,56825,0,0,0
39139,38708,57104,0,0,0
39304,38891,57410,0,0,0
39484,39089,57739,0,0,0
39676,39297,58081,0,0,0
39871,39501,58426,0,0,0
40060,39693,58763,0,0,0
40242,39870,59083,0,0,0
40412,40032,59379,0,0,0
40563,40176,59643,0,0,0
40689,40301,59869,0,0,0
40795,40405,60056,0,0,0
40879,40487,60204,0,0,0
40940,40543,60313,0,0,0
40980,40574,60384,0,0,0
41005,40586,60422,0,0,0
41015,40586,60434,0,0,0
41009,40571,60420,0,0,0
40985,40543,60385,0,0,0
40949,40506,60334,0,0,0
40908,40464,60269,0,0,0
40861,40414,60187,0,0,0
40810,40357,60095,0,0,0
40755,40297,60000,0,0,0
40701,40241,59910,0,0,0
40651,40189,59822,0,0,0
40603,40137,59734,0,0,0
40556,40090,59651,0,0,0
40514,40050,59580,0,0,0
40477,40014,59520,0,0,0
40443,39981,59470,0,0,0
40416,39954,59432,0,0,0
40394,39931,59401,0,0,0
40372,39909,59371,0,0,0
40346,39884,59336,0,0,0
40324,39861,59302,0,0,0
40307,39840,59270,0,0,0
40289,39816,59231,0,0,0
40265,39787,59184,0,0,0
40235,39757,59134,0,0,0
40199,39724,59078,0,0,0
40158,39686,59008,0,0,0
40114,39640,58925,0,0,0
40068,39593,58834,0,0,0
40022,39544,58742,0,0,0
39975,39493,58649,0,0,0
39928,39441,58561,0,0,0
39884,39393,58480,0,0,0
39840,39347,58404,0,0,0
39796,39305,58337,0,0,0
39758,39272,58281,0,0,0
39729,39247,58239,0,0,0
39706,39225,58204,0,0,0
39685,39205,58176,0,0,0
39669,39192,58158,0,0,0
39659,39184,58151,0,0,0
39654,39177,58149,0,0,0
39654,39172,58151,0,0,0
39657,39172,58158,0,0,0
39659,39178,58172,0,0,0
39661,39187,58188,0,0,0
39661,39194,58199,0,0,0
39660,39198,58210,0,0,0
39664,39203,58220,0,0,0
39671,39208,58227,0,0,0
39676,39210,58232,0,0,0
39681,39214,58236,0,0,0
39683,39218,58240,0,0,0
39679,39214,58235,0,0,0
39667,39201,58217,0,0,0
39654,39185,58194,0,0,0
39642,39168,58169,0,0,0
39626,39145,58139,0,0,0
39606,39120,58106,0,0,0
39586,39098,58072,0,0,0
39566,39075,58036,0,0,0
39548,39049,57995,0,0,0
39526,39023,57949,0,0,0
39503,39002,57903,0,0,0
39479,38983,57857,0,0,0
39451,38961,57805,0,0,0
39415,38929,57742,0,0,0
39372,38886,57671,0,0,0
39326,38840,57599,0,0,0
39276,38790,57524,0,0,0
39229,38738,57445,0,0,0
39191,38692,57372,0,0,0
39159,38653,57304,0,0,0
39129,38614,57238,0,0,0
39097,38578,57174,0,0,0
39067,38544,57118,0,0,0
39037,38512,57070,0,0,0
39006,38481,57025,0,0,0
38978,38451,56980,0,0,0
38954,38424,56936,0,0,0
38931,38402,56893,0,0,0
38908,38381,56850,0,0,0
38887,38362,56807,0,0,0
38867,38346,56765,0,0,0
38846,38332,56722,0,0,0
38825,38315,56680,0,0,0
38805,38294,56643,0,0,0
38786,38273,56607,0,0,0
38767,38248,56568,0,0,0
38750,38221,56528,0,0,0
38732,38195,56491,0,0,0
38713,38170,56459,0,0,0
38692,38143,56429,0,0,0
38670,38113,56400,0,0,0
38651,38086,56373,0,0,0
38635,38066,56348,0,0,0
38621,38050,56322,0,0,0
38607,38036,56298,0,0,0
38595,38025,56278,0,0,0
38588,38019,56261,0,0,0
38581,38013,56242,0,0,0
38572,38006,56222,0,0,0
38562,38001,56206,0,0,0
38553,37999,56194,0,0,0
38543,37993,56179,0,0,0
38531,37979,56157,0,0,0
38517,37965,56130,0,0,0
38502,37951,56100,0,0,0
38487,37936,56068,0,0,0
38472,37919,56035,0,0,0
38461,37904,56002,0,0,0
38450,37892,55973,0,0,0
38436,37877,55946,0,0,0
38417,37857,55916,0,0,0
38395,37834,55882,0,0,0
38370,37806,55844,0,0,0
38343,37776,55801,0,0,0
38316,37749,55758,0,0,0
38292,37726,55720,0,0,0
38267,37705,55683,0,0,0
38243,37684,55648,0,0,0
38223,37666,55614,0,0,0
38206,37650,55586,0,0,0
38192,37638,55564,0,0,0
38177,37628,55550,0,0,0
38167,37625,55550,0,0,0
38172,37631,55569,0,0,0
38192,37651,55609,0,0,0
38231,37693,55677,0,0,0
38294,37765,55783,0,0,0
38381,37866,55932,0,0,0
38492,37993,56122,0,0,0
38625,38143,56355,0,0,0
38785,38317,56633,0,0,0
38968,38513,56952,0,0,0
39166,38724,57303,0,0,0
39372,38940,57668,0,0,0
39582,39160,58040,0,0,0
39791,39381,58411,0,0,0
39991,39589,58767,0,0,0
40175,39777,59095,0,0,0
40339,39946,59386,0,0,0
40481,40094,59636,0,0,0
40599,40213,59841,0,0,0
40693,40302,59999,0,0,0
40762,40363,60113,0,0,0
40811,40401,60188,0,0,0
40840,40417,60225,0,0,0
40849,40414,60227,0,0,0
40840,40399,60202,0,0,0
40816,40372,60157,0,0,0
40778,40332,60095,0,0,0
40729,40282,60017,0,0,0
40672,40228,59930,0,0,0
40611,40171,59840,0,0,0
40546,40110,59747,0,0,0
40482,40046,59655,0,0,0
40423,39985,59566,0,0,0
40368,39927,59480,0,0,0
40317,39874,59396,0,0,0
40275,39829,59322,0,0,0
40243,39793,59260,0,0,0
40220,39762,59207,0,0,0
40201,39736,59161,0,0,0
40184,39716,59124,0,0,0
40166,39698,59094,0,0,0
40145,39675,59064,0,0,0
40120,39646,59026,0,0,0
40093,39615,58982,0,0,0
40068,39586,58935,0,0,0
40040,39557,58881,0,0,0
40009,39526,58818,0,0,0
39976,39491,58750,0,0,0
39941,39450,58673,0,0,0
39900,39401,58584,0,0,0
39852,39343,58486,0,0,0
39803,39286,58388,0,0,0
39755,39236,58295,0,0,0
39708,39192,58209,0,0,0
39663,39152,58130,0,0,0
39625,39116,58059,0,0,0
39589,39084,58001,0,0,0
39553,39051,57951,0,0,0
39519,39019,57905,0,0,0
39490,38994,57869,0,0,0
39468,38976,57845,0,0,0
39450,38960,57828,0,0,0
39438,38948,57820,0,0,0
39434,38947,57824,0,0,0
39439,38952,57839,0,0,0
39450,38962,57859,0,0,0
39463,38972,57885,0,0,0
39476,38983,57918,0,0,0
39489,38994,57950,0,0,0
39502,39002,57974,0,0,0
39513,39010,57992,0,0,0
39526,39021,58009,0,0,0
39540,39033,58025,0,0,0
39553,39042,58038,0,0,0
39562,39048,58045,0,0,0
39565,39050,58046,0,0,0
39561,39044,58037,0,0,0
39549,39033,58017,0,0,0
39532,39018,57990,0,0,0
39511,39005,57958,0,0,0
39489,38990,57922,0,0,0
39466,38975,57881,0,0,0
39447,38962,57840,0,0,0
39431,38946,57800,0,0,0
39413,38925,57761,0,0,0
39390,38898,57714,0,0,0
39363,38869,57661,0,0,0
39332,38839,57601,0,0,0
39293,38804,57534,0,0,0
39247,38764,57459,0,0,0
39202,38723,57384,0,0,0
39159,38681,57312,0,0,0
39116,38639,57241,0,0,0
39074,38597,57173,0,0,0
39036,38557,57110,0,0,0
39002,38519,57051,0,0,0
38971,38481,56993,0,0,0
38945,38445,56937,0,0,0
38920,38414,56887,0,0,0
38894,38387,56842,0,0,0
38867,38360,56797,0,0,0
38841,38334,56752,0,0,0
38813,38311,56708,0,0,0
38788,38289,56665,0,0,0
38765,38266,56626,0,0,0
38744,38244,56592,0,0,0
38725,38227,56563,0,0,0
38708,38214,56537,0,0,0
38693,38202,56512,0,0,0
38680,38187,56489,0,0,0
38668,38172,56466,0,0,0
38656,38156,56444,0,0,0
38643,38139,56419,0,0,0
38628,38121,56395,0,0,0
38612,38103,56374,0,0,0
38593,38085,56351,0,0,0
38572,38065,56321,0,0,0
38552,38045,56284,0,0,0
38536,38025,56250,0,0,0
38521,38008,56221,0,0,0
38504,37991,56194,0,0,0
38484,37971,56165,0,0,0
38466,37951,56134,0,0,0
38448,37932,56100,0,0,0
38428,37911,56062,0,0,0
38407,37886,56021,0,0,0
38387,37862,55979,0,0,0
38367,37839,55937,0,0,0
38342,37814,55893,0,0,0
38317,37790,55850,0,0,0
38296,37771,55812,0,0,0
38273,37755,55780,0,0,0
38246,37734,55748,0,0,0
38221,37708,55714,0,0,0
38204,37685,55681,0,0,0
38192,37670,55658,0,0,0
38182,37660,55648,0,0,0
38181,37661,55659,0,0,0
38196,37682,55697,0,0,0
38231,37726,55768,0,0,0
38288,37792,55877,0,0,0
38371,37884,56030,0,0,0
38484,38008,56231,0,0,0
38621,38160,56476,0,0,0
38776,38331,56756,0,0,0
38947,38518,57066,0,0,0
39134,38720,57398,0,0,0
39331,38931,57741,0,0,0
39533,39144,58087,0,0,0
39731,39354,58431,0,0,0
39918,39555,58764,0,0,0
40091,39738,59075,0,0,0
40248,39902,59355,0,0,0
40387,40044,59599,0,0,0
40502,40161,59803,0,0,0
40594,40251,59961,0,0,0
40664,40314,60075,0,0,0
40713,40356,60151,0,0,0
40740,40381,60191,0,0,0
40746,40386,60200,0,0,0
40737,40376,60180,0,0,0
40715,40355,60141,0,0,0
40684,40324,60087,0,0,0
40646,40283,60018,0,0,0
40602,40235,59939,0,0,0
40557,40187,59859,0,0,0
40514,40139,59781,0,0,0
40471,40088,59701,0,0,0
40430,40038,59623,0,0,0
40393,39992,59553,0,0,0
40359,39950,59489,0,0,0
40326,39912,59431,0,0,0
40295,39880,59380,0,0,0
40266,39854,59336,0,0,0
40242,39832,59299,0,0,0
40219,39812,59265,0,0,0
40198,39793,59235,0,0,0
40178,39774,59209,0,0,0
40157,39754,59182,0,0,0
40132,39729,59149,0,0,0
40109,39701,59114,0,0,0
40089,39676,59078,0,0,0
40069,39651,59035,0,0,0
40045,39622,58982,0,0,0
40017,39589,58921,0,0,0
39988,39554,58854,0,0,0
39957,39517,58778,0,0,0
39918,39473,58692,0,0,0
39874,39426,58602,0,0,0
39827,39380,58512,0,0,0
39778,39335,58423,0,0,0
39730,39291,58337,0,0,0
39685,39251,58259,0,0,0
39643,39216,58188,0,0,0
39605,39185,58123,0,0,0
39571,39159,58069,0,0,0
39541,39138,58027,0,0,0
39516,39119,57996,0,0,0
39498,39100,57975,0,0,0
39488,39088,57964,0,0,0
39485,39085,57964,0,0,0
39482,39086,57967,0,0,0
39479,39086,57973,0,0,0
39482,39088,57984,0,0,0
39491,39095,58002,0,0,0
39503,39107,58021,0,0,0
39513,39116,58037,0,0,0
39523,39124,58054,0,0,0
39536,39134,58072,0,0,0
39548,39141,58086,0,0,0
39554,39143,58096,0,0,0
39557,39144,58101,0,0,0
39559,39145,58103,0,0,0
39559,39143,58098,0,0,0
39554,39136,58082,0,0,0
39543,39127,58061,0,0,0
39526,39118,58036,0,0,0
39503,39106,58006,0,0,0
39476,39089,57967,0,0,0
39451,39070,57927,0,0,0
39427,39047,57883,0,0,0
39403,39020,57830,0,0,0
39374,38988,57772,0,0,0
39345,38957,57714,0,0,0
39313,38925,57655,0,0,0
39276,38889,57592,0,0,0
39235,38848,57523,0,0,0
39195,38807,57455,0,0,0
39159,38765,57390,0,0,0
39126,38723,57327,0,0,0
39096,38682,57269,0,0,0
39065,38648,57216,0,0,0
39030,38617,57166,0,0,0
38992,38583,57111,0,0,0
38954,38549,57055,0,0,0
38920,38519,56999,0,0,0
38889,38491,56941,0,0,0
38859,38464,56884,0,0,0
38832,38437,56831,0,0,0
38810,38412,56788,0,0,0
38793,38392,56752,0,0,0
38779,38374,56719,0,0,0
38768,38361,56690,0,0,0
38760,38351,56662,0,0,0
38749,38342,56637,0,0,0
38736,38329,56615,0,0,0
38724,38317,56598,0,0,0
38715,38306,56587,0,0,0
38706,38296,56575,0,0,0
38695,38285,56559,0,0,0
38686,38274,56538,0,0,0
38677,38264,56517,0,0,0
38666,38253,56493,0,0,0
38651,38240,56465,0,0,0
38633,38223,56433,0,0,0
38611,38207,56400,0,0,0
38584,38190,56367,0,0,0
38555,38173,56331,0,0,0
38527,38156,56294,0,0,0
38501,38139,56260,0,0,0
38477,38120,56227,0,0,0
38456,38097,56192,0,0,0
38442,38075,56157,0,0,0
38432,38055,56126,0,0,0
38423,38033,56097,0,0,0
38409,38007,56064,0,0,0
38390,37977,56028,0,0,0
38368,37947,55991,0,0,0
38343,37919,55953,0,0,0
38320,37894,55922,0,0,0
38305,37878,55905,0,0,0
38302,37877,55910,0,0,0
38312,37895,55942,0,0,0
38342,37935,56009,0,0,0
38400,38003,56115,0,0,0
38486,38100,56262,0,0,0
38596,38225,56458,0,0,0
38734,38373,56705,0,0,0
38896,38543,56996,0,0,0
39073,38731,57319,0,0,0
39264,38936,57668,0,0,0
39466,39154,58032,0,0,0
39675,39381,58403,0,0,0
39885,39607,58771,0,0,0
40088,39821,59124,0,0,0
40277,40020,59454,0,0,0
40450,40199,59754,0,0,0
40602,40350,60017,0,0,0
40731,40473,60239,0,0,0
40841,40575,60422,0,0,0
40931,40657,60569,0,0,0
40997,40715,60675,0,0,0
41043,40750,60743,0,0,0
41071,40769,60780,0,0,0
41082,40774,60791,0,0,0
41077,40765,60778,0,0,0
41058,40740,60744,0,0,0
41028,40705,60693,0,0,0
40987,40662,60632,0,0,0
40938,40613,60563,0,0,0
40885,40559,60488,0,0,0
40834,40506,60413,0,0,0
40785,40459,60338,0,0,0
40738,40414,60263,0,0,0
40693,40370,60193,0,0,0
40654,40333,60133,0,0,0
40621,40302,60079,0,0,0
40591,40276,60030,0,0,0
40566,40255,59987,0,0,0
40547,40244,59954,0,0,0
40535,40239,59929,0,0,0
40528,40233,59909,0,0,0
40527,40228,59893,0,0,0
40528,40224,59882,0,0,0
40526,40217,59871,0,0,0
40521,40204,59855,0,0,0
40513,40188,59835,0,0,0
40504,40173,59815,0,0,0
40491,40157,59789,0,0,0
40472,40136,59753,0,0,0
40446,40108,59706,0,0,0
40416,40074,59648,0,0,0
40378,40035,59580,0,0,0
40333,39989,59499,0,0,0
40284,39940,59408,0,0,0
40236,39893,59315,0,0,0
40185,39848,59220,0,0,0
40130,39803,59122,0,0,0
40080,39758,59022,0,0,0
40036,39716,58932,0,0,0
39996,39674,58850,0,0,0
39957,39629,58775,0,0,0
39920,39583,58708,0,0,0
39889,39544,58653,0,0,0
39863,39513,58607,0,0,0
39838,39489,58570,0,0,0
39815,39470,58544,0,0,0
39798,39460,58528,0,0,0
39785,39454,58516,0,0,0
39772,39448,58506,0,0,0
39762,39443,58500,0,0,0
39754,39442,58497,0,0,0
39744,39439,58493,0,0,0
39735,39433,58487,0,0,0
39728,39430,58485,0,0,0
39726,39427,58486,0,0,0
39726,39419,58486,0,0,0
39727,39409,58481,0,0,0
39729,39400,58474,0,0,0
39729,39393,58465,0,0,0
39726,39388,58451,0,0,0
39718,39381,58431,0,0,0
39710,39375,58409,0,0,0
39701,39365,58385,0,0,0
39687,39349,58352,0,0,0
39668,39329,58312,0,0,0
39647,39307,58268,0,0,0
39623,39285,58220,0,0,0
39595,39260,58169,0,0,0
39566,39230,58115,0,0,0
39536,39199,58059,0,0,0
39501,39166,58001,0,0,0
39460,39128,57937,0,0,0
39416,39086,57869,0,0,0
39374,39043,57801,0,0,0
39333,39000,57734,0,0,0
39293,38957,57664,0,0,0
39253,38914,57593,0,0,0
39215,38876,57522,0,0,0
39178,38840,57451,0,0,0
39143,38804,57381,0,0,0
39110,38771,57317,0,0,0
39080,38741,57259,0,0,0
39050,38713,57206,0,0,0
39021,38683,57156,0,0,0
38993,38653,57108,0,0,0
38969,38628,57062,0,0,0
38945,38606,57018,0,0,0
38918,38578,56972,0,0,0
38889,38548,56928,0,0,0
38861,38524,56888,0,0,0
38835,38502,56851,0,0,0
38809,38477,56812,0,0,0
38786,38450,56773,0,0,0
38766,38425,56738,0,0,0
38748,38400,56704,0,0,0
38730,38375,56668,0,0,0
38714,38354,56633,0,0,0
38698,38339,56603,0,0,0
38679,38326,56576,0,0,0
38660,38314,56550,0,0,0
38642,38301,56525,0,0,0
38625,38287,56504,0,0,0
38608,38274,56481,0,0,0
38591,38261,56453,0,0,0
38575,38250,56427,0,0,0
38558,38242,56401,0,0,0
38538,38231,56374,0,0,0
38519,38218,56347,0,0,0
38502,38203,56322,0,0,0
38485,38187,56296,0,0,0
38465,38167,56266,0,0,0
38443,38145,56231,0,0,0
38425,38124,56195,0,0,0
38409,38102,56160,0,0,0
38393,38077,56124,0,0,0
38377,38056,56089,0,0,0
38360,38036,56055,0,0,0
38336,38014,56020,0,0,0
38307,37987,55983,0,0,0
38280,37961,55949,0,0,0
38257,37938,55916,0,0,0
38236,37913,55880,0,0,0
38213,37884,55838,0,0,0
38194,37858,55801,0,0,0
38178,37835,55773,0,0,0
38165,37818,55751,0,0,0
38160,37811,55742,0,0,0
38170,37823,55761,0,0,0
38201,37861,55817,0,0,0
38256,37925,55913,0,0,0
38337,38017,56052,0,0,0
38449,38141,56242,0,0,0
38591,38295,56484,0,0,0
38756,38471,56770,0,0,0
38941,38669,57093,0,0,0
39144,38885,57447,0,0,0
39361,39112,57821,0,0,0
39582,39340,58200,0,0,0
39800,39566,58575,0,0,0
40009,39787,58944,0,0,0
40204,39996,59296,0,0,0
40380,40181,59618,0,0,0
40538,40342,59904,0,0,0
40676,40481,60150,0,0,0
40792,40596,60355,0,0,0
40884,40688,60521,0,0,0
40954,40755,60649,0,0,0
41002,40801,60740,0,0,0
41030,40826,60796,0,0,0
41039,40830,60819,0,0,0
41033,40815,60813,0,0,0
41013,40791,60787,0,0,0
40983,40760,60743,0,0,0
40944,40719,60683,0,0,0
40902,40674,60613,0,0,0
40860,40632,60536,0,0,0
40819,40593,60459,0,0,0
40777,40552,60387,0,0,0
40739,40510,60320,0,0,0
40709,40474,60262,0,0,0
40686,40441,60211,0,0,0
40663,40410,60167,0,0,0
40642,40385,60130,0,0,0
40623,40366,60100,0,0,0
40606,40352,60077,0,0,0
40589,40341,60058,0,0,0
40577,40333,60043,0,0,0
40568,40329,60033,0,0,0
40557,40325,60021,0,0,0
40543,40317,60003,0,0,0
40530,40306,59980,0,0,0
40514,40295,59953,0,0,0
40491,40281,59921,0,0,0
40465,40261,59879,0,0,0
40439,40234,59827,0,0,0
40410,40200,59768,0,0,0
40377,40161,59706,0,0,0
40338,40118,59638,0,0,0
40295,40072,59563,0,0,0
40250,40026,59479,0,0,0
40205,39974,59389,0,0,0
40159,39916,59299,0,0,0
40116,39863,59210,0,0,0
40073,39812,59122,0,0,0
40027,39759,59031,0,0,0
39979,39708,58942,0,0,0
39933,39661,58859,0,0,0
39888,39618,58779,0,0,0
39843,39576,58700,0,0,0
39803,39537,58631,0,0,0
39771,39506,58574,0,0,0
39747,39481,58530,0,0,0
39732,39463,58498,0,0,0
39726,39454,58476,0,0,0
39727,39453,58464,0,0,0
39729,39455,58463,0,0,0
39728,39453,58466,0,0,0
39725,39452,58474,0,0,0
39725,39455,58485,0,0,0
39723,39460,58492,0,0,0
39716,39460,58492,0,0,0
39704,39455,58487,0,0,0
39691,39449,58479,0,0,0
39679,39438,58466,0,0,0
39668,39424,58450,0,0,0
39657,39411,58437,0,0,0
39648,39402,58427,0,0,0
39641,39392,58414,0,0,0
39632,39378,58394,0,0,0
39622,39360,58364,0,0,0
39610,39340,58327,0,0,0
39593,39317,58284,0,0,0
39570,39288,58235,0,0,0
39545,39255,58183,0,0,0
39518,39220,58130,0,0,0
39484,39182,58072,0,0,0
39444,39139,58006,0,0,0
39400,39094,57933,0,0,0
39356,39050,57857,0,0,0
39312,39009,57784,0,0,0
39271,38967,57711,0,0,0
39231,38927,57637,0,0,0
39191,38891,57564,0,0,0
39150,38852,57490,0,0,0
39110,38810,57415,0,0,0
39071,38771,57346,0,0,0
39032,38737,57286,0,0,0
38995,38703,57227,0,0,0
38959,38668,57168,0,0,0
38926,38631,57110,0,0,0
38894,38592,57058,0,0,0
38862,38550,57009,0,0,0
38829,38510,56960,0,0,0
38798,38474,56913,0,0,0
38767,38443,56866,0,0,0
38737,38415,56817,0,0,0
38711,38391,56769,0,0,0
38691,38374,56729,0,0,0
38675,38360,56693,0,0,0
38661,38346,56657,0,0,0
38646,38333,56622,0,0,0
38630,38320,56589,0,0,0
38611,38304,56556,0,0,0
38588,38283,56522,0,0,0
38564,38262,56492,0,0,0
38541,38246,56463,0,0,0
38519,38227,56428,0,0,0
38497,38202,56386,0,0,0
38476,38174,56345,0,0,0
38453,38148,56307,0,0,0
38428,38123,56272,0,0,0
38402,38098,56239,0,0,0
38382,38078,56212,0,0,0
38368,38065,56191,0,0,0
38359,38055,56173,0,0,0
38347,38042,56156,0,0,0
38336,38029,56140,0,0,0
38326,38017,56124,0,0,0
38314,38002,56103,0,0,0
38298,37982,56074,0,0,0
38279,37960,56042,0,0,0
38260,37940,56007,0,0,0
38240,37918,55968,0,0,0
38219,37893,55929,0,0,0
38201,37869,55894,0,0,0
38188,37848,55864,0,0,0
38174,37832,55834,0,0,0
38158,37820,55802,0,0,0
38138,37810,55772,0,0,0
38115,37802,55744,0,0,0
38089,37792,55714,0,0,0
38064,37778,55679,0,0,0
38040,37763,55646,0,0,0
38017,37747,55618,0,0,0
37997,37725,55590,0,0,0
37980,37701,55559,0,0,0
37966,37679,55530,0,0,0
37952,37659,55499,0,0,0
37933,37636,55465,0,0,0
37910,37612,55426,0,0,0
37884,37588,55388,0,0,0
37855,37564,55350,0,0,0
37824,37538,55310,0,0,0
37796,37511,55267,0,0,0
37771,37487,55224,0,0,0
37750,37469,55182,0,0,0
37731,37452,55141,0,0,0
37715,37435,55104,0,0,0
37706,37425,55076,0,0,0
37708,37422,55065,0,0,0
37720,37429,55076,0,0,0
37745,37453,55115,0,0,0
37790,37501,55189,0,0,0
37858,37575,55303,0,0,0
37947,37673,55460,0,0,0
38058,37798,55664,0,0,0
38193,37954,55917,0,0,0
38349,38131,56212,0,0,0
38521,38324,56538,0,0,0
38711,38530,56892,0,0,0
38918,38748,57267,0,0,0
39134,38970,57651,0,0,0
39349,39190,58033,0,0,0
39556,39401,58402,0,0,0
39752,39600,58753,0,0,0
39930,39780,59076,0,0,0
40088,39936,59362,0,0,0
40227,40071,59609,0,0,0
40347,40187,59817,0,0,0
40445,40282,59983,0,0,0
40518,40354,60108,0,0,0
40566,40405,60197,0,0,0
40594,40435,60252,0,0,0
40603,40445,60275,0,0,0
40595,40434,60270,0,0,0
40576,40411,60241,0,0,0
40547,40378,60194,0,0,0
40511,40338,60135,0,0,0
40471,40295,60067,0,0,0
40432,40252,59996,0,0,0
40392,40208,59919,0,0,0
40347,40159,59840,0,0,0
40301,40109,59762,0,0,0
40257,40064,59692,0,0,0
40216,40027,59632,0,0,0
40177,39994,59575,0,0,0
40144,39967,59522,0,0,0
40115,39949,59478,0,0,0
40091,39935,59439,0,0,0
40069,39923,59405,0,0,0
40052,39912,59376,0,0,0
40041,39902,59351,0,0,0
40031,39888,59326,0,0,0
40021,39869,59299,0,0,0
40013,39852,59275,0,0,0
40007,39835,59250,0,0,0
39994,39813,59216,0,0,0
39975,39787,59176,0,0,0
39951,39759,59131,0,0,0
39925,39728,59079,0,0,0
39892,39692,59020,0,0,0
39853,39654,58955,0,0,0
39808,39614,58884,0,0,0
39760,39572,58807,0,0,0
39709,39524,58724,0,0,0
39657,39473,58634,0,0,0
39608,39424,58544,0,0,0
39561,39380,58458,0,0,0
39515,39338,58376,0,0,0
39472,39297,58299,0,0,0
39438,39260,58231,0,0,0
39408,39225,58168,0,0,0
39378,39190,58106,0,0,0
39349,39156,58049,0,0,0
39320,39124,58000,0,0,0
39292,39095,57959,0,0,0
39268,39067,57926,0,0,0
39248,39042,57902,0,0,0
39233,39024,57887,0,0,0
39224,39013,57878,0,0,0
39218,39003,57871,0,0,0
39214,38998,57868,0,0,0
39211,39000,57873,0,0,0
39210,39007,57882,0,0,0
39209,39017,57890,0,0,0
39211,39026,57896,0,0,0
39212,39035,57902,0,0,0
39210,39039,57906,0,0,0
39206,39036,57901,0,0,0
39200,39027,57888,0,0,0
39193,39011,57870,0,0,0
39185,38988,57846,0,0,0
39171,38963,57814,0,0,0
39153,38945,57774,0,0,0
39134,38930,57730,0,0,0
39111,38912,57685,0,0,0
39086,38887,57640,0,0,0
39062,38858,57595,0,0,0
39038,38831,57551,0,0,0
39012,38805,57507,0,0,0
38981,38779,57458,0,0,0
38952,38754,57404,0,0,0
38926,38727,57345,0,0,0
38898,38695,57280,0,0,0
38864,38656,57213,0,0,0
38825,38612,57147,0,0,0
38787,38569,57086,0,0,0
38749,38525,57024,0,0,0
38708,38483,56959,0,0,0
38668,38445,56895,0,0,0
38626,38411,56836,0,0,0
38582,38375,56777,0,0,0
38540,38336,56720,0,0,0
38503,38302,56668,0,0,0
38473,38274,56622,0,0,0
38448,38247,56577,0,0,0
38426,38218,56530,0,0,0
38404,38192,56482,0,0,0
38383,38168,56434,0,0,0
38361,38143,56384,0,0,0
38339,38117,56336,0,0,0
38318,38095,56295,0,0,0
38299,38078,56258,0,0,0
38282,38063,56223,0,0,0
38268,38049,56192,0,0,0
38257,38038,56166,0,0,0
38246,38029,56145,0,0,0
38233,38015,56123,0,0,0
38219,37998,56098,0,0,0
38205,37981,56072,0,0,0
38190,37964,56046,0,0,0
38170,37944,56020,0,0,0
38149,37926,55992,0,0,0
38130,37907,55963,0,0,0
38111,37887,55932,0,0,0
38090,37863,55896,0,0,0
38068,37838,55856,0,0,0
38051,37816,55819,0,0,0
38033,37798,55783,0,0,0
38014,37778,55749,0,0,0
37997,37762,55717,0,0,0
37986,37753,55691,0,0,0
37976,37744,55669,0,0,0
37964,37730,55647,0,0,0
37950,37713,55621,0,0,0
37938,37697,55596,0,0,0
37925,37681,55571,0,0,0
37909,37662,55542,0,0,0
37891,37640,55509,0,0,0
37871,37617,55476,0,0,0
37849,37595,55442,0,0,0
37825,37570,55407,0,0,0
37802,37547,55371,0,0,0
37779,37529,55340,0,0,0
37758,37515,55309,0,0,0
37740,37500,55280,0,0,0
37723,37484,55253,0,0,0
37705,37466,55229,0,0,0
37687,37449,55207,0,0,0
37668,37430,55185,0,0,0
37650,37412,55165,0,0,0
37633,37394,55145,0,0,0
37615,37375,55122,0,0,0
37599,37355,55097,0,0,0
37586,37337,55072,0,0,0
37572,37319,55045,0,0,0
37559,37301,55016,0,0,0
37549,37287,54988,0,0,0
37540,37276,54961,0,0,0
37530,37266,54934,0,0,0
37516,37252,54904,0,0,0
37500,37236,54873,0,0,0
37480,37219,54844,0,0,0
37455,37199,54812,0,0,0
37426,37175,54775,0,0,0
37401,37152,54736,0,0,0
37381,37135,54705,0,0,0
37363,37120,54682,0,0,0
37350,37107,54665,0,0,0
37347,37102,54661,0,0,0
37354,37108,54676,0,0,0
37373,37127,54712,0,0,0
37412,37166,54778,0,0,0
37478,37236,54886,0,0,0
37572,37337,55041,0,0,0
37685,37463,55238,0,0,0
37819,37613,55474,0,0,0
37974,37782,55750,0,0,0
38147,37966,56061,0,0,0
38328,38160,56398,0,0,0
38517,38361,56751,0,0,0
38713,38571,57119,0,0,0
38913,38785,57493,0,0,0
39109,38994,57858,0,0,0
39297,39191,58200,0,0,0
39474,39372,58514,0,0,0
39634,39536,58793,0,0,0
39768,39675,59031,0,0,0
39877,39785,59227,0,0,0
39959,39869,59381,0,0,0
40016,39927,59492,0,0,0
40053,39960,59561,0,0,0
40071,39972,59593,0,0,0
40072,39968,59591,0,0,0
40057,39948,59561,0,0,0
40030,39911,59508,0,0,0
39999,39863,59439,0,0,0
39961,39809,59361,0,0,0
39912,39749,59274,0,0,0
39857,39685,59183,0,0,0
39800,39622,59093,0,0,0
39746,39564,59011,0,0,0
39698,39510,58936,0,0,0
39653,39460,58866,0,0,0
39613,39419,58802,0,0,0
39579,39387,58747,0,0,0
39547,39362,58698,0,0,0
39516,39336,58652,0,0,0
39486,39309,58610,0,0,0
39459,39287,58572,0,0,0
39432,39268,58535,0,0,0
39404,39247,58495,0,0,0
39379,39224,58451,0,0,0
39357,39204,58408,0,0,0
39337,39186,58367,0,0,0
39317,39162,58322,0,0,0
39298,39135,58275,0,0,0
39280,39106,58229,0,0,0
39256,39076,58180,0,0,0
39225,39044,58119,0,0,0
39189,39011,58051,0,0,0
39153,38977,57977,0,0,0
39114,38940,57898,0,0,0
39074,38894,57815,0,0,0
39035,38845,57734,0,0,0
38998,38797,57656,0,0,0
38959,38749,57583,0,0,0
38919,38698,57511,0,0,0
38880,38649,57442,0,0,0
38843,38608,57382,0,0,0
38809,38573,57333,0,0,0
38778,38539,57288,0,0,0
38750,38509,57247,0,0,0
38724,38486,57212,0,0,0
38701,38469,57182,0,0,0
38683,38459,57160,0,0,0
38669,38457,57146,0,0,0
38659,38459,57135,0,0,0
38654,38458,57124,0,0,0
38654,38455,57116,0,0,0
38659,38456,57118,0,0,0
38668,38463,57127,0,0,0
38679,38471,57137,0,0,0
38693,38480,57145,0,0,0
38704,38487,57150,0,0,0
38711,38489,57152,0,0,0
38714,38486,57148,0,0,0
38713,38482,57137,0,0,0
38708,38474,57120,0,0,0
38695,38461,57096,0,0,0
38674,38442,57064,0,0,0
38647,38420,57026,0,0,0
38617,38397,56985,0,0,0
38583,38368,56942,0,0,0
38543,38329,56893,0,0,0
38504,38284,56840,0,0,0
38467,38241,56790,0,0,0
38431,38196,56738,0,0,0
38395,38153,56680,0,0,0
38358,38115,56618,0,0,0
38319,38078,56556,0,0,0
38278,38041,56494,0,0,0
38240,38004,56428,0,0,0
38206,37969,56359,0,0,0
38177,37938,56295,0,0,0
38152,37909,56238,0,0,0
38130,37875,56187,0,0,0
38110,37845,56133,0,0,0
38092,37819,56077,0,0,0
38072,37790,56018,0,0,0
38048,37756,55959,0,0,0
38022,37721,55905,0,0,0
37996,37689,55857,0,0,0
37965,37655,55811,0,0,0
37932,37623,55761,0,0,0
37902,37595,55713,0,0,0
37873,37573,55669,0,0,0
37845,37551,55627,0,0,0
37819,37527,55588,0,0,0
37795,37503,55551,0,0,0
37771,37479,55515,0,0,0
37745,37453,55477,0,0,0
37721,37428,55437,0,0,0
37699,37404,55402,0,0,0
37677,37380,55369,0,0,0
37655,37354,55333,0,0,0
37637,37326,55293,0,0,0
37621,37302,55254,0,0,0
37602,37284,55219,0,0,0
37581,37268,55185,0,0,0
37565,37254,55153,0,0,0
37553,37242,55126,0,0,0
37541,37229,55102,0,0,0
37528,37211,55077,0,0,0
37511,37190,55047,0,0,0
37492,37172,55019,0,0,0
37473,37155,54996,0,0,0
37450,37135,54971,0,0,0
37429,37113,54942,0,0,0
37413,37094,54916,0,0,0
37394,37077,54892,0,0,0
37371,37060,54869,0,0,0
37351,37043,54847,0,0,0
37335,37030,54828,0,0,0
37320,37018,54808,0,0,0
37305,37003,54782,0,0,0
37292,36988,54753,0,0,0
37280,36975,54726,0,0,0
37267,36961,54696,0,0,0
37251,36944,54664,0,0,0
37238,36927,54633,0,0,0
37226,36913,54605,0,0,0
37213,36898,54577,0,0,0
37201,36881,54546,0,0,0
37190,36863,54515,0,0,0
37177,36846,54486,0,0,0
37162,36830,54459,0,0,0
37146,36811,54433,0,0,0
37129,36795,54408,0,0,0
37111,36781,54385,0,0,0
37090,36763,54359,0,0,0
37069,36741,54332,0,0,0
37051,36720,54305,0,0,0
37032,36699,54276,0,0,0
37009,36675,54245,0,0,0
36986,36650,54213,0,0,0
36964,36627,54181,0,0,0
36944,36602,54144,0,0,0
36926,36578,54106,0,0,0
36912,36556,54073,0,0,0
36898,36537,54044,0,0,0
36881,36521,54012,0,0,0
36859,36502,53976,0,0,0
36836,36483,53941,0,0,0
36816,36466,53909,0,0,0
36798,36447,53879,0,0,0
36781,36425,53851,0,0,0
36766,36406,53829,0,0,0
36760,36395,53816,0,0,0
36761,36390,53811,0,0,0
36768,36395,53818,0,0,0
36784,36414,53846,0,0,0
36818,36455,53908,0,0,0
36872,36519,54009,0,0,0
36951,36604,54151,0,0,0
37056,36713,54340,0,0,0
37186,36850,54575,0,0,0
37334,37010,54848,0,0,0
37495,37188,55144,0,0,0
37666,37379,55460,0,0,0
37844,37578,55790,0,0,0
38027,37779,56127,0,0,0
38208,37974,56463,0,0,0
38385,38162,56792,0,0,0
38556,38342,57109,0,0,0
38715,38508,57404,0,0,0
38858,38656,57668,0,0,0
38981,38781,57894,0,0,0
39082,38882,58077,0,0,0
39156,38953,58214,0,0,0
39207,38995,58307,0,0,0
39238,39018,58364,0,0,0
39251,39028,58390,0,0,0
39247,39023,58386,0,0,0
39231,39006,58357,0,0,0
39209,38982,58309,0,0,0
39179,38951,58246,0,0,0
39142,38913,58170,0,0,0
39100,38871,58089,0,0,0
39057,38829,58010,0,0,0
39012,38785,57933,0,0,0
38967,38736,57853,0,0,0
38923,38685,57772,0,0,0
38878,38639,57691,0,0,0
38834,38596,57611,0,0,0
38788,38550,57531,0,0,0
38743,38504,57453,0,0,0
38701,38460,57381,0,0,0
38662,38420,57317,0,0,0
38627,38380,57259,0,0,0
38596,38343,57206,0,0,0
38568,38311,57162,0,0,0
38541,38282,57118,0,0,0
38512,38252,57066,0,0,0
38481,38221,57007,0,0,0
38447,38190,56943,0,0,0
38409,38153,56871,0,0,0
38369,38109,56789,0,0,0
38325,38063,56704,0,0,0
38279,38014,56618,0,0,0
38230,37962,56527,0,0,0
38179,37907,56436,0,0,0
38130,37854,56349,0,0,0
38087,37807,56270,0,0,0
38050,37763,56198,0,0,0
38017,37724,56130,0,0,0
37991,37694,56071,0,0,0
37969,37670,56023,0,0,0
37948,37648,55984,0,0,0
37927,37630,55956,0,0,0
37913,37619,55941,0,0,0
37904,37614,55935,0,0,0
37901,37613,55937,0,0,0
37905,37618,55948,0,0,0
37916,37629,55967,0,0,0
37928,37645,55989,0,0,0
37940,37660,56009,0,0,0
37953,37674,56031,0,0,0
37966,37689,56057,0,0,0
37975,37700,56080,0,0,0
37978,37704,56095,0,0,0
37977,37705,56106,0,0,0
37976,37704,56115,0,0,0
37973,37700,56116,0,0,0
37970,37693,56108,0,0,0
37968,37686,56096,0,0,0
37964,37678,56082,0,0,0
37956,37668,56065,0,0,0
37944,37654,56041,0,0,0
37931,37638,56011,0,0,0
37918,37621,55977,0,0,0
37898,37597,55937,0,0,0
37873,37568,55894,0,0,0
37848,37537,55853,0,0,0
37822,37507,55814,0,0,0
37791,37474,55770,0,0,0
37756,37439,55717,0,0,0
37721,37408,55659,0,0,0
37686,37385,55602,0,0,0
37653,37366,55548,0,0,0
37624,37345,55494,0,0,0
37599,37323,55442,0,0,0
37576,37301,55392,0,0,0
37554,37277,55344,0,0,0
37533,37252,55299,0,0,0
37514,37229,55256,0,0,0
37494,37207,55212,0,0,0
37471,37184,55165,0,0,0
37448,37162,55122,0,0,0
37428,37141,55084,0,0,0
37408,37121,55048,0,0,0
37384,37097,55011,0,0,0
37357,37072,54977,0,0,0
37334,37048,54949,0,0,0
37312,37026,54923,0,0,0
37289,37005,54892,0,0,0
37268,36987,54856,0,0,0
37249,36971,54819,0,0,0
37228,36953,54781,0,0,0
37207,36934,54746,0,0,0
37192,36918,54716,0,0,0
37181,36906,54690,0,0,0
37171,36895,54663,0,0,0
37160,36884,54635,0,0,0
37149,36873,54613,0,0,0
37140,36865,54598,0,0,0
37130,36856,54584,0,0,0
37118,36844,54566,0,0,0
37107,36830,54548,0,0,0
37098,36819,54530,0,0,0
37088,36809,54508,0,0,0
37075,36798,54482,0,0,0
37059,36785,54457,0,0,0
37041,36773,54433,0,0,0
37023,36763,54410,0,0,0
37005,36751,54385,0,0,0
36991,36738,54359,0,0,0
36983,36727,54339,0,0,0
36977,36719,54324,0,0,0
36971,36710,54312,0,0,0
36966,36701,54303,0,0,0
36960,36693,54295,0,0,0
36953,36680,54281,0,0,0
36942,36661,54260,0,0,0
36930,36643,54234,0,0,0
36919,36629,54207,0,0,0
36908,36614,54180,0,0,0
36894,36594,54149,0,0,0
36879,36572,54120,0,0,0
36863,36551,54093,0,0,0
36846,36528,54064,0,0,0
36824,36504,54031,0,0,0
36800,36481,53998,0,0,0
36777,36463,53968,0,0,0
36754,36449,53941,0,0,0
36734,36439,53917,0,0,0
36721,36435,53897,0,0,0
36709,36431,53879,0,0,0
36697,36427,53857,0,0,0
36686,36422,53836,0,0,0
36679,36416,53821,0,0,0
36674,36407,53811,0,0,0
36672,36399,53808,0,0,0
36681,36400,53821,0,0,0
36703,36417,53859,0,0,0
36742,36453,53929,0,0,0
36800,36512,54035,0,0,0
36878,36599,54181,0,0,0
36978,36713,54368,0,0,0
37099,36850,54595,0,0,0
37241,37008,54856,0,0,0
37398,37182,55145,0,0,0
37568,37370,55459,0,0,0
37744,37563,55787,0,0,0
37926,37757,56123,0,0,0
38113,37952,56462,0,0,0
38299,38144,56794,0,0,0
38477,38325,57106,0,0,0
38639,38491,57389,0,0,0
38783,38640,57642,0,0,0
38907,38770,57863,0,0,0
39010,38879,58045,0,0,0
39089,38968,58186,0,0,0
39148,39037,58287,0,0,0
39187,39083,58352,0,0,0
39203,39105,58382,0,0,0
39200,39105,58385,0,0,0
39185,39092,58370,0,0,0
39161,39067,58337,0,0,0
39129,39028,58285,0,0,0
39093,38981,58218,0,0,0
39052,38931,58143,0,0,0
39010,38880,58066,0,0,0
38968,38831,57987,0,0,0
38929,38787,57908,0,0,0
38894,38747,57833,0,0,0
38862,38710,57760,0,0,0
38829,38670,57688,0,0,0
38797,38631,57622,0,0,0
38770,38599,57564,0,0,0
38748,38571,57513,0,0,0
38726,38544,57465,0,0,0
38702,38519,57419,0,0,0
38677,38494,57375,0,0,0
38648,38469,57333,0,0,0
38618,38442,57288,0,0,0
38588,38414,57241,0,0,0
38560,38388,57193,0,0,0
38533,38363,57146,0,0,0
38499,38333,57095,0,0,0
38460,38297,57034,0,0,0
38421,38261,56968,0,0,0
38383,38224,56894,0,0,0
38343,38182,56812,0,0,0
38302,38140,56726,0,0,0
38264,38100,56643,0,0,0
38225,38062,56563,0,0,0
38186,38022,56485,0,0,0
38151,37979,56417,0,0,0
38121,37942,56361,0,0,0
38094,37910,56313,0,0,0
38068,37881,56272,0,0,0
38045,37860,56239,0,0,0
38028,37847,56218,0,0,0
38015,37840,56204,0,0,0
38007,37835,56196,0,0,0
38003,37832,56193,0,0,0
38002,37831,56196,0,0,0
38006,37832,56204,0,0,0
38013,37832,56216,0,0,0
38025,37837,56231,0,0,0
38038,37849,56248,0,0,0
38048,37864,56263,0,0,0
38054,37879,56276,0,0,0
38060,37894,56287,0,0,0
38067,37907,56295,0,0,0
38071,37915,56298,0,0,0
38073,37921,56300,0,0,0
38072,37923,56300,0,0,0
38069,37921,56298,0,0,0
38061,37912,56289,0,0,0
38049,37898,56274,0,0,0
38034,37880,56252,0,0,0
38017,37861,56222,0,0,0
37995,37839,56186,0,0,0
37972,37814,56146,0,0,0
37949,37791,56107,0,0,0
37924,37766,56067,0,0,0
37896,37740,56022,0,0,0
37869,37712,55971,0,0,0
37844,37685,55919,0,0,0
37819,37656,55866,0,0,0
37793,37624,55810,0,0,0
37768,37593,55755,0,0,0
37745,37561,55701,0,0,0
37718,37527,55645,0,0,0
37686,37488,55586,0,0,0
37652,37448,55526,0,0,0
37619,37412,55467,0,0,0
37589,37378,55409,0,0,0
37564,37349,55355,0,0,0
37541,37327,55310,0,0,0
37520,37309,55273,0,0,0
37499,37291,55237,0,0,0
37475,37271,55200,0,0,0
37449,37252,55166,0,0,0
37421,37232,55134,0,0,0
37389,37206,55098,0,0,0
37356,37178,55059,0,0,0
37330,37155,55024,0,0,0
37311,37138,54992,0,0,0
37294,37121,54961,0,0,0
37275,37103,54929,0,0,0
37258,37085,54900,0,0,0
37247,37068,54874,0,0,0
37239,37052,54849,0,0,0
37231,37036,54828,0,0,0
37223,37023,54810,0,0,0
37213,37010,54790,0,0,0
37199,36996,54767,0,0,0
37183,36984,54744,0,0,0
37171,36980,54725,0,0,0
37160,36979,54708,0,0,0
37149,36977,54690,0,0,0
37140,36974,54669,0,0,0
37135,36971,54649,0,0,0
37130,36965,54631,0,0,0
37121,36954,54610,0,0,0
37114,36944,54589,0,0,0
37105,36933,54570,0,0,0
37090,36918,54548,0,0,0
37068,36897,54521,0,0,0
37046,36875,54494,0,0,0
37027,36855,54473,0,0,0
37011,36837,54454,0,0,0
36993,36823,54432,0,0,0
36979,36814,54409,0,0,0
36965,36808,54390,0,0,0
36948,36797,54369,0,0,0
36927,36777,54341,0,0,0
36909,36755,54312,0,0,0
36895,36736,54284,0,0,0
36882,36719,54256,0,0,0
36868,36698,54227,0,0,0
36851,36674,54194,0,0,0
36833,36652,54160,0,0,0
36815,36630,54127,0,0,0
36799,36608,54093,0,0,0
36783,36587,54062,0,0,0
36766,36572,54037,0,0,0
36747,36561,54015,0,0,0
36728,36550,53994,0,0,0
36714,36542,53981,0,0,0
36710,36543,53983,0,0,0
36720,36555,54004,0,0,0
36750,36583,54050,0,0,0
36800,36636,54130,0,0,0
36874,36716,54253,0,0,0
36972,36821,54419,0,0,0
37095,36954,54632,0,0,0
37241,37115,54888,0,0,0
37409,37295,55181,0,0,0
37591,37487,55501,0,0,0
37780,37688,55840,0,0,0
37977,37897,56196,0,0,0
38175,38105,56558,0,0,0
38369,38308,56914,0,0,0
38558,38507,57255,0,0,0
38737,38694,57578,0,0,0
38897,38863,57873,0,0,0
39037,39014,58134,0,0,0
39156,39146,58358,0,0,0
39256,39252,58545,0,0,0
39335,39333,58694,0,0,0
39394,39388,58802,0,0,0
39437,39423,58877,0,0,0
39465,39448,58924,0,0,0
39479,39459,58943,0,0,0
39479,39454,58936,0,0,0
39470,39437,58909,0,0,0
39453,39415,58875,0,0,0
39430,39388,58834,0,0,0
39401,39356,58784,0,0,0
39371,39325,58727,0,0,0
39343,39294,58670,0,0,0
39313,39261,58614,0,0,0
39281,39226,58559,0,0,0
39249,39191,58505,0,0,0
39219,39158,58454,0,0,0
39190,39126,58405,0,0,0
39162,39096,58359,0,0,0
39139,39072,58316,0,0,0
39121,39053,58279,0,0,0
39104,39039,58246,0,0,0
39087,39025,58216,0,0,0
39071,39011,58194,0,0,0
39056,38996,58178,0,0,0
39041,38981,58164,0,0,0
39025,38969,58149,0,0,0
39010,38957,58132,0,0,0
38995,38945,58114,0,0,0
38978,38932,58095,0,0,0
38962,38921,58070,0,0,0
38947,38910,58038,0,0,0
38930,38896,57997,0,0,0
38907,38874,57942,0,0,0
38879,38843,57874,0,0,0
38849,38805,57798,0,0,0
38818,38763,57717,0,0,0
38784,38719,57634,0,0,0
38748,38675,57552,0,0,0
38713,38637,57478,0,0,0
38677,38604,57409,0,0,0
38641,38572,57341,0,0,0
38606,38540,57278,0,0,0
38573,38509,57223,0,0,0
38541,38479,57175,0,0,0
38508,38451,57133,0,0,0
38481,38426,57098,0,0,0
38461,38405,57068,0,0,0
38447,38386,57040,0,0,0
38432,38368,57014,0,0,0
38416,38352,56992,0,0,0
38405,38344,56979,0,0,0
38399,38341,56975,0,0,0
38394,38342,56977,0,0,0
38392,38344,56979,0,0,0
38394,38351,56984,0,0,0
38398,38358,56990,0,0,0
38404,38361,56994,0,0,0
38410,38362,56994,0,0,0
38413,38360,56991,0,0,0
38411,38357,56984,0,0,0
38406,38352,56972,0,0,0
38402,38346,56958,0,0,0
38398,38341,56944,0,0,0
38389,38335,56926,0,0,0
38374,38321,56899,0,0,0
38361,38301,56867,0,0,0
38348,38282,56831,0,0,0
38331,38259,56788,0,0,0
38312,38235,56737,0,0,0
38293,38209,56684,0,0,0
38270,38182,56629,0,0,0
38240,38152,56570,0,0,0
38206,38116,56507,0,0,0
38170,38079,56442,0,0,0
38135,38040,56377,0,0,0
38099,37999,56313,0,0,0
38063,37959,56253,0,0,0
38026,37926,56199,0,0,0
37989,37896,56146,0,0,0
37952,37869,56095,0,0,0
37917,37843,56046,0,0,0
37888,37819,56001,0,0,0
37863,37793,55959,0,0,0
37842,37765,55917,0,0,0
37829,37741,55882,0,0,0
37821,37726,55854,0,0,0
37812,37712,55827,0,0,0
37797,37695,55797,0,0,0
37782,37680,55766,0,0,0
37765,37669,55734,0,0,0
37746,37654,55701,0,0,0
37726,37632,55665,0,0,0
37706,37609,55631,0,0,0
37685,37589,55600,0,0,0
37661,37566,55568,0,0,0
37636,37544,55532,0,0,0
37614,37527,55497,0,0,0
37596,37515,55463,0,0,0
37581,37501,55429,0,0,0
37567,37485,55394,0,0,0
37553,37469,55361,0,0,0
37541,37458,55331,0,0,0
37527,37448,55302,0,0,0
37511,37438,55274,0,0,0
37496,37428,55249,0,0,0
37481,37415,55228,0,0,0
37466,37398,55204,0,0,0
37452,37379,55179,0,0,0
37442,37363,55160,0,0,0
37433,37348,55142,0,0,0
37422,37333,55120,0,0,0
37411,37320,55099,0,0,0
37402,37309,55078,0,0,0
37395,37297,55059,0,0,0
37387,37287,55038,0,0,0
37376,37277,55017,0,0,0
37365,37268,54997,0,0,0
37352,37256,54977,0,0,0
37339,37241,54957,0,0,0
37327,37227,54941,0,0,0
37315,37214,54925,0,0,0
37303,37200,54908,0,0,0
37291,37183,54889,0,0,0
37279,37165,54867,0,0,0
37267,37149,54843,0,0,0
37252,37133,54815,0,0,0
37233,37115,54783,0,0,0
37211,37097,54750,0,0,0
37189,37083,54721,0,0,0
37167,37069,54691,0,0,0
37143,37052,54656,0,0,0
37118,37032,54618,0,0,0
37095,37013,54583,0,0,0
37075,36996,54551,0,0,0
37056,36977,54516,0,0,0
37040,36959,54479,0,0,0
37030,36945,54450,0,0,0
37024,36936,54431,0,0,0
37023,36933,54428,0,0,0
37031,36942,54446,0,0,0
37057,36970,54494,0,0,0
37101,37019,54579,0,0,0
37166,37091,54706,0,0,0
37257,37190,54879,0,0,0
37375,37320,55099,0,0,0
37518,37476,55365,0,0,0
37681,37649,55667,0,0,0
37861,37839,55993,0,0,0
38054,38044,56339,0,0,0
38251,38259,56696,0,0,0
38450,38478,57058,0,0,0
38651,38694,57419,0,0,0
38849,38904,57774,0,0,0
39039,39100,58108,0,0,0
39212,39277,58411,0,0,0
39366,39433,58681,0,0,0
39497,39563,58911,0,0,0
39606,39667,59098,0,0,0
39696,39750,59245,0,0,0
39764,39813,59355,0,0,0
39808,39854,59428,0,0,0
39831,39874,59467,0,0,0
39837,39877,59478,0,0,0
39830,39867,59468,0,0,0
39811,39849,59440,0,0,0
39784,39825,59395,0,0,0
39754,39796,59341,0,0,0
39722,39764,59283,0,0,0
39687,39725,59224,0,0,0
39646,39681,59164,0,0,0
39607,39640,59104,0,0,0
39572,39605,59047,0,0,0
39540,39569,58992,0,0,0
39510,39534,58940,0,0,0
39485,39509,58897,0,0,0
39461,39490,58861,0,0,0
39439,39470,58828,0,0,0
39416,39450,58794,0,0,0
39397,39432,58764,0,0,0
39386,39418,58739,0,0,0
39378,39403,58719,0,0,0
39371,39386,58702,0,0,0
39365,39371,58687,0,0,0
39362,39358,58671,0,0,0
39356,39343,58649,0,0,0
39345,39324,58616,0,0,0
39329,39302,58574,0,0,0
39306,39277,58526,0,0,0
39274,39249,58469,0,0,0
39236,39216,58404,0,0,0
39194,39180,58334,0,0,0
39150,39143,58260,0,0,0
39105,39102,58178,0,0,0
39062,39056,58092,0,0,0
39020,39010,58008,0,0,0
38977,38966,57927,0,0,0
38935,38923,57849,0,0,0
38896,38883,57776,0,0,0
38864,38847,57709,0,0,0
38835,38814,57648,0,0,0
38807,38781,57592,0,0,0
38786,38752,57545,0,0,0
38770,38729,57510,0,0,0
38754,38708,57483,0,0,0
38740,38692,57462,0,0,0
38729,38681,57448,0,0,0
38721,38673,57439,0,0,0
38715,38669,57434,0,0,0
38711,38666,57428,0,0,0
38709,38664,57423,0,0,0
38707,38665,57422,0,0,0
38703,38668,57425,0,0,0
38699,38670,57429,0,0,0
38697,38670,57436,0,0,0
38698,38671,57444,0,0,0
38699,38672,57448,0,0,0
38700,38669,57444,0,0,0
38701,38663,57434,0,0,0
38698,38656,57422,0,0,0
38691,38648,57408,0,0,0
38680,38637,57391,0,0,0
38666,38627,57371,0,0,0
38650,38617,57346,0,0,0
38630,38600,57315,0,0,0
38608,38577,57277,0,0,0
38587,38552,57234,0,0,0
38570,38528,57189,0,0,0
38552,38502,57139,0,0,0
38527,38472,57081,0,0,0
38499,38441,57019,0,0,0
38467,38411,56957,0,0,0
38428,38378,56894,0,0,0
38387,38337,56827,0,0,0
38350,38295,56759,0,0,0
38318,38257,56696,0,0,0
38288,38217,56632,0,0,0
38256,38173,56567,0,0,0
38222,38131,56506,0,0,0
38187,38095,56450,0,0,0
38153,38065,56394,0,0,0
38121,38039,56340,0,0,0
38092,38018,56291,0,0,0
38063,37997,56246,0,0,0
38034,37972,56199,0,0,0
38005,37944,56149,0,0,0
37976,37917,56104,0,0,0
37945,37889,56063,0,0,0
37915,37860,56023,0,0,0
37885,37833,55985,0,0,0
37858,37808,55952,0,0,0
37835,37785,55921,0,0,0
37814,37762,55888,0,0,0
37795,37740,55854,0,0,0
37778,37721,55821,0,0,0
37762,37702,55785,0,0,0
37745,37682,55746,0,0,0
37728,37663,55705,0,0,0
37713,37646,55668,0,0,0
37699,37629,55636,0,0,0
37683,37611,55606,0,0,0
37664,37592,55577,0,0,0
37644,37571,55550,0,0,0
37623,37547,55525,0,0,0
37602,37524,55500,0,0,0
37583,37504,55477,0,0,0
37567,37489,55456,0,0,0
37553,37477,55434,0,0,0
37540,37464,55409,0,0,0
37528,37451,55386,0,0,0
37518,37438,55368,0,0,0
37508,37425,55349,0,0,0
37497,37407,55327,0,0,0
37486,37391,55302,0,0,0
37476,37379,55279,0,0,0
37465,37369,55253,0,0,0
37453,37356,55223,0,0,0
37440,37343,55194,0,0,0
37430,37333,55171,0,0,0
37420,37321,55148,0,0,0
37411,37305,55122,0,0,0
37401,37290,55097,0,0,0
37388,37275,55074,0,0,0
37371,37259,55048,0,0,0
37354,37245,55022,0,0,0
37339,37236,54996,0,0,0
37326,37226,54973,0,0,0
37312,37213,54950,0,0,0
37296,37196,54926,0,0,0
37278,37179,54903,0,0,0
37262,37161,54879,0,0,0
37247,37139,54850,0,0,0
37232,37114,54818,0,0,0
37214,37090,54785,0,0,0
37193,37068,54753,0,0,0
37170,37045,54720,0,0,0
37147,37023,54687,0,0,0
37127,37004,54654,0,0,0
37110,36989,54622,0,0,0
37094,36972,54589,0,0,0
37079,36954,54555,0,0,0
37067,36939,54526,0,0,0
37056,36927,54503,0,0,0
37045,36913,54478,0,0,0
37034,36899,54452,0,0,0
37027,36889,54429,0,0,0
37019,36882,54408,0,0,0
37008,36875,54388,0,0,0
37000,36872,54376,0,0,0
37000,36883,54383,0,0,0
37016,36910,54415,0,0,0
37052,36952,54476,0,0,0
37109,37015,54578,0,0,0
37191,37105,54730,0,0,0
37298,37225,54929,0,0,0
37429,37370,55172,0,0,0
37579,37538,55455,0,0,0
37745,37725,55771,0,0,0
37923,37922,56111,0,0,0
38113,38124,56466,0,0,0
38310,38329,56831,0,0,0
38511,38537,57197,0,0,0
38709,38743,57558,0,0,0
38899,38943,57905,0,0,0
39079,39131,58232,0,0,0
39243,39300,58529,0,0,0
39387,39447,58787,0,0,0
39510,39571,59004,0,0,0
39612,39674,59178,0,0,0
39689,39755,59309,0,0,0
39742,39810,59399,0,0,0
39775,39842,59454,0,0,0
39792,39858,59481,0,0,0
39795,39861,59483,0,0,0
39783,39850,59460,0,0,0
39763,39827,59418,0,0,0
39736,39794,59364,0,0,0
39699,39751,59300,0,0,0
39655,39701,59226,0,0,0
39612,39650,59147,0,0,0
39573,39601,59070,0,0,0
39536,39554,58998,0,0,0
39498,39510,58932,0,0,0
39462,39472,58873,0,0,0
39429,39439,58823,0,0,0
39399,39410,58779,0,0,0
39371,39385,58738,0,0,0
39347,39365,58699,0,0,0
39328,39351,58667,0,0,0
39311,39336,58637,0,0,0
39296,39320,58609,0,0,0
39285,39308,58586,0,0,0
39276,39298,58571,0,0,0
39266,39285,58557,0,0,0
39254,39270,58543,0,0,0
39240,39254,58526,0,0,0
39223,39234,58501,0,0,0
39198,39208,58465,0,0,0
39164,39178,58417,0,0,0
39127,39147,58358,0,0,0
39091,39115,58289,0,0,0
39052,39074,58209,0,0,0
39007,39026,58122,0,0,0
38964,38976,58034,0,0,0
38924,38928,57948,0,0,0
38885,38883,57868,0,0,0
38848,38841,57793,0,0,0
38813,38808,57724,0,0,0
38780,38782,57664,0,0,0
38748,38759,57609,0,0,0
38719,38738,57561,0,0,0
38696,38723,57524,0,0,0
38679,38710,57493,0,0,0
38665,38696,57466,0,0,0
38654,38684,57444,0,0,0
38647,38677,57430,0,0,0
38642,38669,57419,0,0,0
38635,38659,57408,0,0,0
38632,38653,57403,0,0,0
38636,38650,57407,0,0,0
38640,38647,57416,0,0,0
38640,38642,57421,0,0,0
38638,38638,57426,0,0,0
38639,38637,57432,0,0,0
38637,38637,57436,0,0,0
38634,38635,57437,0,0,0
38630,38632,57438,0,0,0
38625,38629,57435,0,0,0
38618,38623,57423,0,0,0
38608,38614,57402,0,0,0
38599,38602,57377,0,0,0
38590,38590,57352,0,0,0
38580,38575,57322,0,0,0
38567,38559,57287,0,0,0
