green_channel,red_channel,ir_channel,Anomaly_ch0,Anomaly_ch1,Anomaly_ch2
41048,3892,23251,0,0,0
40998,3845,23178,0,0,0
40949,3802,23115,0,0,0
40896,3754,23051,0,0,0
40839,3697,22980,0,0,0
40782,3634,22905,0,0,0
40729,3573,22831,0,0,0
40682,3519,22762,0,0,0
40642,3475,22696,0,0,0
40600,3435,22636,0,0,0
40559,3396,22580,0,0,0
40522,3362,22525,0,0,0
40482,3329,22468,0,0,0
40439,3294,22414,0,0,0
40400,3261,22362,0,0,0
40371,3235,22314,0,0,0
40345,3209,22266,0,0,0
40317,3179,22218,0,0,0
40290,3152,22176,0,0,0
40264,3129,22142,0,0,0
40240,3108,22112,0,0,0
40218,3089,22083,0,0,0
40197,3069,22050,0,0,0
40175,3046,22007,0,0,0
40154,3019,21958,0,0,0
40134,2990,21911,0,0,0
40115,2964,21869,0,0,0
40094,2939,21828,0,0,0
40068,2908,21785,0,0,0
40034,2871,21739,0,0,0
39995,2831,21687,0,0,0
39958,2795,21631,0,0,0
39926,2765,21579,0,0,0
39906,2746,21541,0,0,0
39903,2747,21528,0,0,0
39920,2769,21543,0,0,0
39960,2816,21591,0,0,0
40037,2899,21690,0,0,0
40159,3027,21853,0,0,0
40332,3209,22093,0,0,0
40557,3444,22409,0,0,0
40831,3730,22807,0,0,0
41156,4073,23299,0,0,0
41534,4472,23894,0,0,0
41954,4919,24584,0,0,0
42402,5400,25346,0,0,0
42861,5892,26146,0,0,0
43315,6371,26944,0,0,0
43753,6825,27708,0,0,0
44161,7248,28414,0,0,0
44530,7628,29043,0,0,0
44856,7959,29585,0,0,0
45130,8233,30034,0,0,0
45343,8444,30383,0,0,0
45496,8594,30634,0,0,0
45596,8692,30798,0,0,0
45652,8741,30879,0,0,0
45668,8747,30888,0,0,0
45650,8721,30841,0,0,0
45604,8665,30752,0,0,0
45537,8584,30628,0,0,0
45458,8489,30479,0,0,0
45376,8391,30318,0,0,0
45288,8292,30155,0,0,0
45195,8190,29999,0,0,0
45106,8090,29849,0,0,0
45023,7994,29699,0,0,0
44941,7902,29556,0,0,0
44858,7813,29424,0,0,0
44778,7728,29304,0,0,0
44704,7650,29195,0,0,0
44636,7581,29100,0,0,0
44573,7520,29013,0,0,0
44514,7464,28931,0,0,0
44457,7411,28850,0,0,0
44402,7360,28767,0,0,0
44348,7308,28681,0,0,0
44291,7254,28588,0,0,0
44223,7189,28477,0,0,0
44141,7106,28339,0,0,0
44040,6997,28171,0,0,0
43923,6870,27982,0,0,0
43794,6732,27779,0,0,0
43655,6589,27563,0,0,0
43514,6445,27341,0,0,0
43377,6304,27117,0,0,0
43243,6164,26888,0,0,0
43109,6025,26658,0,0,0
42977,5887,26435,0,0,0
42854,5753,26224,0,0,0
42744,5624,26028,0,0,0
42643,5503,25849,0,0,0
42557,5400,25692,0,0,0
42490,5318,25562,0,0,0
42439,5253,25461,0,0,0
42402,5207,25390,0,0,0
42380,5181,25348,0,0,0
42373,5170,25324,0,0,0
42371,5166,25310,0,0,0
42370,5166,25308,0,0,0
42371,5172,25318,0,0,0
42375,5181,25331,0,0,0
42379,5194,25345,0,0,0
42384,5207,25357,0,0,0
42388,5220,25368,0,0,0
42392,5231,25375,0,0,0
42392,5235,25372,0,0,0
42382,5226,25354,0,0,0
42362,5206,25319,0,0,0
42332,5172,25268,0,0,0
42288,5120,25196,0,0,0
42233,5056,25108,0,0,0
42177,4993,25014,0,0,0
42121,4931,24916,0,0,0
42055,4863,24810,0,0,0
41980,4787,24696,0,0,0
41900,4710,24582,0,0,0
41817,4630,24470,0,0,0
41730,4546,24351,0,0,0
41642,4460,24226,0,0,0
41554,4376,24100,0,0,0
41464,4293,23972,0,0,0
41372,4203,23837,0,0,0
41279,4103,23696,0,0,0
41185,3998,23551,0,0,0
41091,3893,23407,0,0,0
41000,3789,23268,0,0,0
40917,3689,23137,0,0,0
40840,3600,23017,0,0,0
40770,3523,22909,0,0,0
40703,3453,22811,0,0,0
40638,3388,22722,0,0,0
40571,3328,22637,0,0,0
40501,3268,22550,0,0,0
40435,3209,22466,0,0,0
40382,3158,22392,0,0,0
40337,3112,22323,0,0,0
40295,3069,22259,0,0,0
40253,3029,22200,0,0,0
40210,2990,22142,0,0,0
40168,2953,22079,0,0,0
40121,2916,22014,0,0,0
40072,2884,21955,0,0,0
40030,2859,21904,0,0,0
39999,2839,21860,0,0,0
39974,2820,21823,0,0,0
39945,2791,21785,0,0,0
39913,2753,21742,0,0,0
39884,2717,21694,0,0,0
39858,2686,21643,0,0,0
39833,2660,21595,0,0,0
39807,2638,21548,0,0,0
39779,2612,21496,0,0,0
39748,2580,21439,0,0,0
39715,2546,21381,0,0,0
39680,2511,21327,0,0,0
39641,2477,21278,0,0,0
39596,2439,21224,0,0,0
39549,2400,21169,0,0,0
39505,2358,21111,0,0,0
39460,2314,21048,0,0,0
39413,2266,20980,0,0,0
39370,2223,20913,0,0,0
39331,2185,20852,0,0,0
39295,2153,20793,0,0,0
39264,2125,20740,0,0,0
39234,2098,20698,0,0,0
39204,2071,20659,0,0,0
39177,2046,20624,0,0,0
39152,2023,20593,0,0,0
39129,2002,20566,0,0,0
39116,1992,20543,0,0,0
39121,1998,20529,0,0,0
39150,2022,20537,0,0,0
39210,2073,20582,0,0,0
39310,2166,20680,0,0,0
39462,2314,20850,0,0,0
39669,2524,21109,0,0,0
39925,2788,21460,0,0,0
40224,3102,21891,0,0,0
40557,3457,22392,0,0,0
40920,3843,22962,0,0,0
41306,4253,23593,0,0,0
41706,4680,24267,0,0,0
42110,5113,24958,0,0,0
42505,5531,25640,0,0,0
42875,5923,26293,0,0,0
43210,6281,26895,0,0,0
43499,6589,27428,0,0,0
43734,6837,27879,0,0,0
43911,7021,28230,0,0,0
44033,7141,28476,0,0,0
44105,7203,28622,0,0,0
44132,7218,28682,0,0,0
44118,7192,28665,0,0,0
44070,7131,28581,0,0,0
43999,7049,28450,0,0,0
43912,6954,28287,0,0,0
43813,6848,28106,0,0,0
43708,6736,27913,0,0,0
43602,6623,27716,0,0,0
43498,6511,27520,0,0,0
43399,6403,27333,0,0,0
43299,6299,27155,0,0,0
43197,6198,26988,0,0,0
43101,6103,26833,0,0,0
43020,6019,26695,0,0,0
42957,5949,26578,0,0,0
42903,5890,26477,0,0,0
42856,5834,26387,0,0,0
42814,5787,26310,0,0,0
42776,5744,26243,0,0,0
42734,5695,26180,0,0,0
42685,5642,26114,0,0,0
42635,5587,26041,0,0,0
42584,5526,25958,0,0,0
42521,5453,25864,0,0,0
42445,5373,25756,0,0,0
42360,5287,25634,0,0,0
42272,5191,25495,0,0,0
42175,5083,25342,0,0,0
42067,4967,25176,0,0,0
41951,4849,25001,0,0,0
41829,4732,24822,0,0,0
41706,4616,24644,0,0,0
41592,4506,24477,0,0,0
41495,4407,24324,0,0,0
41415,4318,24188,0,0,0
41348,4241,24071,0,0,0
41292,4178,23974,0,0,0
41244,4130,23895,0,0,0
41204,4092,23833,0,0,0
41174,4063,23790,0,0,0
41157,4045,23761,0,0,0
41151,4037,23741,0,0,0
41158,4037,23732,0,0,0
41175,4041,23730,0,0,0
41195,4051,23736,0,0,0
41217,4068,23749,0,0,0
41232,4083,23767,0,0,0
41239,4091,23781,0,0,0
41243,4097,23788,0,0,0
41243,4103,23786,0,0,0
41235,4103,23776,0,0,0
41217,4091,23757,0,0,0
41196,4070,23727,0,0,0
41171,4044,23685,0,0,0
41139,4011,23632,0,0,0
41098,3970,23573,0,0,0
41051,3922,23507,0,0,0
40997,3869,23435,0,0,0
40933,3805,23354,0,0,0
40861,3730,23263,0,0,0
40790,3652,23167,0,0,0
40719,3575,23070,0,0,0
40646,3500,22973,0,0,0
40574,3428,22879,0,0,0
40504,3360,22785,0,0,0
40433,3291,22683,0,0,0
40361,3220,22573,0,0,0
40285,3145,22460,0,0,0
40207,3068,22343,0,0,0
40133,2993,22228,0,0,0
40066,2926,22122,0,0,0
40002,2865,22028,0,0,0
39941,2806,21938,0,0,0
39882,2749,21853,0,0,0
39827,2697,21776,0,0,0
39776,2648,21708,0,0,0
39728,2605,21644,0,0,0
39684,2568,21584,0,0,0
39641,2531,21524,0,0,0
39603,2494,21464,0,0,0
39570,2460,21408,0,0,0
39538,2426,21356,0,0,0
39510,2393,21307,0,0,0
39482,2361,21258,0,0,0
39450,2328,21207,0,0,0
39414,2292,21154,0,0,0
39380,2255,21101,0,0,0
39351,2220,21044,0,0,0
39328,2189,20989,0,0,0
39304,2162,20937,0,0,0
39276,2134,20889,0,0,0
39242,2103,20838,0,0,0
39204,2069,20780,0,0,0
39161,2029,20718,0,0,0
39115,1984,20656,0,0,0
39071,1942,20597,0,0,0
39033,1908,20543,0,0,0
39001,1880,20492,0,0,0
38971,1853,20446,0,0,0
38942,1828,20406,0,0,0
38908,1799,20364,0,0,0
38867,1762,20313,0,0,0
38822,1727,20261,0,0,0
38783,1697,20214,0,0,0
38752,1670,20170,0,0,0
38724,1644,20125,0,0,0
38706,1628,20085,0,0,0
38701,1626,20055,0,0,0
38710,1636,20039,0,0,0
38736,1663,20047,0,0,0
38792,1721,20092,0,0,0
38890,1822,20188,0,0,0
39033,1969,20350,0,0,0
39226,2167,20589,0,0,0
39464,2414,20907,0,0,0
39741,2707,21298,0,0,0
40050,3037,21754,0,0,0
40386,3393,22268,0,0,0
40746,3771,22836,0,0,0
41119,4161,23446,0,0,0
41498,4556,24079,0,0,0
41867,4942,24706,0,0,0
42203,5294,25293,0,0,0
42491,5595,25816,0,0,0
42722,5837,26260,0,0,0
42894,6018,26614,0,0,0
43014,6146,26873,0,0,0
43091,6225,27041,0,0,0
43135,6263,27134,0,0,0
43152,6268,27164,0,0,0
43141,6245,27137,0,0,0
43098,6192,27056,0,0,0
43027,6112,26929,0,0,0
42936,6015,26777,0,0,0
42834,5907,26611,0,0,0
42725,5790,26437,0,0,0
42618,5671,26261,0,0,0
42515,5557,26089,0,0,0
42421,5453,25925,0,0,0
42337,5364,25775,0,0,0
42265,5286,25648,0,0,0
42205,5221,25544,0,0,0
42155,5165,25454,0,0,0
42109,5110,25373,0,0,0
42060,5058,25299,0,0,0
42010,5010,25228,0,0,0
41968,4970,25159,0,0,0
41937,4937,25095,0,0,0
41911,4909,25039,0,0,0
41883,4877,24983,0,0,0
41845,4836,24924,0,0,0
41795,4784,24854,0,0,0
41728,4718,24765,0,0,0
41648,4639,24655,0,0,0
41565,4552,24527,0,0,0
41484,4463,24390,0,0,0
41399,4366,24251,0,0,0
41307,4263,24108,0,0,0
41213,4163,23963,0,0,0
41119,4069,23818,0,0,0
41027,3976,23676,0,0,0
40943,3889,23544,0,0,0
40873,3813,23424,0,0,0
40814,3745,23315,0,0,0
40766,3688,23224,0,0,0
40731,3646,23160,0,0,0
40712,3623,23115,0,0,0
40702,3615,23088,0,0,0
40694,3614,23077,0,0,0
40689,3616,23081,0,0,0
40686,3617,23088,0,0,0
40691,3620,23100,0,0,0
40708,3634,23123,0,0,0
40732,3655,23153,0,0,0
40753,3673,23179,0,0,0
40771,3690,23195,0,0,0
40787,3710,23208,0,0,0
40797,3728,23214,0,0,0
40796,3736,23211,0,0,0
40787,3736,23205,0,0,0
40777,3734,23196,0,0,0
40766,3730,23176,0,0,0
40752,3716,23146,0,0,0
40731,3689,23108,0,0,0
40703,3652,23058,0,0,0
40670,3610,22997,0,0,0
40630,3566,22926,0,0,0
40583,3515,22845,0,0,0
40529,3457,22755,0,0,0
40470,3396,22661,0,0,0
40401,3330,22565,0,0,0
40317,3256,22464,0,0,0
40223,3172,22359,0,0,0
40129,3084,22251,0,0,0
40043,2998,22146,0,0,0
39970,2921,22048,0,0,0
39908,2855,21958,0,0,0
39854,2800,21872,0,0,0
39804,2751,21788,0,0,0
39753,2704,21703,0,0,0
39697,2651,21614,0,0,0
39635,2591,21520,0,0,0
39570,2529,21431,0,0,0
39511,2471,21350,0,0,0
39460,2412,21273,0,0,0
39416,2358,21200,0,0,0
39374,2310,21134,0,0,0
39331,2266,21072,0,0,0
39287,2225,21014,0,0,0
39243,2188,20956,0,0,0
39204,2155,20900,0,0,0
39174,2127,20846,0,0,0
39151,2106,20796,0,0,0
39133,2087,20754,0,0,0
39115,2066,20714,0,0,0
39092,2041,20671,0,0,0
39066,2013,20628,0,0,0
39035,1982,20584,0,0,0
39001,1949,20539,0,0,0
38969,1919,20492,0,0,0
38941,1890,20444,0,0,0
38913,1860,20395,0,0,0
38884,1824,20343,0,0,0
38850,1786,20290,0,0,0
38812,1747,20237,0,0,0
38771,1707,20180,0,0,0
38725,1667,20122,0,0,0
38677,1625,20068,0,0,0
38636,1580,20015,0,0,0
38605,1534,19962,0,0,0
38576,1490,19909,0,0,0
38542,1451,19860,0,0,0
38510,1428,19819,0,0,0
38485,1417,19790,0,0,0
38473,1411,19767,0,0,0
38483,1424,19758,0,0,0
38523,1470,19773,0,0,0
38596,1546,19829,0,0,0
38703,1656,19935,0,0,0
38852,1812,20107,0,0,0
39049,2024,20360,0,0,0
39295,2288,20702,0,0,0
39591,2598,21126,0,0,0
39933,2956,21627,0,0,0
40315,3353,22195,0,0,0
40721,3776,22820,0,0,0
41135,4211,23487,0,0,0
41549,4641,24174,0,0,0
41948,5050,24849,0,0,0
42311,5423,25478,0,0,0
42622,5751,26044,0,0,0
42888,6036,26542,0,0,0
43117,6275,26966,0,0,0
43304,6464,27311,0,0,0
43447,6606,27578,0,0,0
43547,6701,27769,0,0,0
43602,6753,27885,0,0,0
43616,6766,27932,0,0,0
43592,6745,27920,0,0,0
43545,6698,27859,0,0,0
43487,6633,27758,0,0,0
43423,6558,27627,0,0,0
43349,6471,27480,0,0,0
43263,6373,27320,0,0,0
43173,6269,27151,0,0,0
43086,6170,26986,0,0,0
43006,6080,26828,0,0,0
42936,6002,26682,0,0,0
42874,5936,26554,0,0,0
42815,5875,26447,0,0,0
42754,5811,26354,0,0,0
42694,5750,26273,0,0,0
42642,5695,26203,0,0,0
42597,5643,26140,0,0,0
42556,5597,26079,0,0,0
42520,5559,26019,0,0,0
42486,5525,25960,0,0,0
42449,5486,25899,0,0,0
42406,5434,25826,0,0,0
42349,5367,25734,0,0,0
42281,5287,25625,0,0,0
42204,5200,25504,0,0,0
42123,5110,25374,0,0,0
42038,5016,25236,0,0,0
41947,4918,25091,0,0,0
41853,4815,24943,0,0,0
41755,4708,24792,0,0,0
41653,4598,24637,0,0,0
41556,4494,24482,0,0,0
41468,4400,24337,0,0,0
41384,4315,24206,0,0,0
41305,4238,24088,0,0,0
41230,4169,23984,0,0,0
41161,4108,23896,0,0,0
41103,4060,23823,0,0,0
41065,4024,23764,0,0,0
41045,4000,23718,0,0,0
41041,3988,23687,0,0,0
41048,3986,23673,0,0,0
41059,3993,23670,0,0,0
41069,4003,23675,0,0,0
41078,4013,23685,0,0,0
41086,4027,23696,0,0,0
41098,4047,23709,0,0,0
41111,4065,23721,0,0,0
41125,4077,23724,0,0,0
41134,4081,23711,0,0,0
41128,4070,23682,0,0,0
41103,4047,23645,0,0,0
41070,4018,23605,0,0,0
41038,3989,23562,0,0,0
41009,3958,23514,0,0,0
40974,3921,23453,0,0,0
40929,3876,23381,0,0,0
40875,3822,23307,0,0,0
40812,3762,23229,0,0,0
40737,3697,23144,0,0,0
40657,3630,23053,0,0,0
40579,3561,22954,0,0,0
40502,3490,22851,0,0,0
40427,3418,22752,0,0,0
40352,3345,22655,0,0,0
40280,3273,22559,0,0,0
40207,3200,22457,0,0,0
40132,3120,22346,0,0,0
40063,3041,22231,0,0,0
40002,2969,22122,0,0,0
39945,2902,22025,0,0,0
39889,2839,21937,0,0,0
39837,2781,21855,0,0,0
39788,2726,21773,0,0,0
39740,2670,21688,0,0,0
39690,2609,21605,0,0,0
39640,2548,21526,0,0,0
39593,2493,21453,0,0,0
39549,2448,21386,0,0,0
39509,2414,21322,0,0,0
39477,2387,21262,0,0,0
39447,2363,21202,0,0,0
39413,2333,21143,0,0,0
39375,2296,21085,0,0,0
39338,2257,21029,0,0,0
39304,2219,20974,0,0,0
39275,2182,20920,0,0,0
39252,2152,20873,0,0,0
39232,2134,20836,0,0,0
39209,2118,20799,0,0,0
39180,2097,20757,0,0,0
39148,2073,20712,0,0,0
39117,2048,20665,0,0,0
39087,2025,20621,0,0,0
39058,2000,20580,0,0,0
39030,1973,20541,0,0,0
39003,1943,20500,0,0,0
38970,1909,20456,0,0,0
38927,1869,20409,0,0,0
38885,1828,20362,0,0,0
38848,1788,20309,0,0,0
38811,1749,20249,0,0,0
38777,1714,20190,0,0,0
38746,1684,20137,0,0,0
38715,1655,20086,0,0,0
38683,1625,20039,0,0,0
38648,1596,19995,0,0,0
38615,1573,19954,0,0,0
38593,1563,19918,0,0,0
38589,1567,19893,0,0,0
38608,1590,19887,0,0,0
38656,1642,19919,0,0,0
38743,1730,20010,0,0,0
38874,1864,20173,0,0,0
39055,2050,20418,0,0,0
39289,2292,20747,0,0,0
39577,2589,21156,0,0,0
39909,2933,21640,0,0,0
40277,3319,22197,0,0,0
40671,3736,22819,0,0,0
41079,4167,23486,0,0,0
41486,4594,24169,0,0,0
41878,5001,24844,0,0,0
42240,5378,25484,0,0,0
42562,5715,26064,0,0,0
42835,6002,26571,0,0,0
43057,6238,26999,0,0,0
43231,6426,27344,0,0,0
43362,6567,27605,0,0,0
43453,6660,27783,0,0,0
43504,6702,27884,0,0,0
43517,6698,27911,0,0,0
43492,6655,27870,0,0,0
43440,6585,27776,0,0,0
43376,6499,27647,0,0,0
43301,6403,27492,0,0,0
43220,6300,27319,0,0,0
43134,6198,27142,0,0,0
43046,6101,26966,0,0,0
42958,6006,26793,0,0,0
42869,5913,26633,0,0,0
42787,5826,26495,0,0,0
42718,5754,26382,0,0,0
42659,5694,26291,0,0,0
42605,5642,26218,0,0,0
42565,5603,26163,0,0,0
42536,5575,26119,0,0,0
42510,5551,26083,0,0,0
42485,5529,26052,0,0,0
42457,5507,26016,0,0,0
42424,5483,25973,0,0,0
42382,5446,25917,0,0,0
42332,5392,25843,0,0,0
42275,5326,25751,0,0,0
42206,5252,25641,0,0,0
42124,5169,25517,0,0,0
42034,5077,25375,0,0,0
41937,4975,25220,0,0,0
41832,4868,25060,0,0,0
41724,4760,24898,0,0,0
41615,4650,24734,0,0,0
41507,4537,24569,0,0,0
41411,4428,24409,0,0,0
41330,4335,24264,0,0,0
41260,4257,24140,0,0,0
41205,4193,24036,0,0,0
41166,4140,23951,0,0,0
41131,4095,23880,0,0,0
41095,4056,23819,0,0,0
41063,4023,23767,0,0,0
41038,3997,23724,0,0,0
41021,3978,23694,0,0,0
41013,3968,23675,0,0,0
41015,3967,23665,0,0,0
41027,3979,23663,0,0,0
41042,3998,23665,0,0,0
41054,4012,23666,0,0,0
41056,4015,23659,0,0,0
41046,4008,23645,0,0,0
41030,3996,23626,0,0,0
41006,3980,23602,0,0,0
40981,3964,23575,0,0,0
40957,3945,23540,0,0,0
40932,3922,23499,0,0,0
40906,3897,23455,0,0,0
40874,3866,23404,0,0,0
40833,3825,23341,0,0,0
40781,3769,23260,0,0,0
40717,3701,23165,0,0,0
40645,3625,23066,0,0,0
40572,3549,22964,0,0,0
40501,3472,22858,0,0,0
40432,3399,22752,0,0,0
40364,3327,22647,0,0,0
40291,3253,22540,0,0,0
40216,3179,22428,0,0,0
40137,3102,22317,0,0,0
40057,3024,22206,0,0,0
39976,2943,22093,0,0,0
39892,2858,21976,0,0,0
39809,2776,21861,0,0,0
39732,2700,21753,0,0,0
39662,2631,21649,0,0,0
39602,2564,21551,0,0,0
39553,2504,21467,0,0,0
39508,2451,21395,0,0,0
39456,2396,21322,0,0,0
39397,2338,21250,0,0,0
39341,2283,21180,0,0,0
39291,2234,21112,0,0,0
39247,2190,21043,0,0,0
39204,2149,20972,0,0,0
39161,2111,20901,0,0,0
39118,2070,20832,0,0,0
39077,2028,20768,0,0,0
39039,1990,20708,0,0,0
39002,1958,20653,0,0,0
38965,1929,20598,0,0,0
38929,1899,20541,0,0,0
38893,1866,20481,0,0,0
38858,1830,20419,0,0,0
38831,1795,20356,0,0,0
38808,1760,20297,0,0,0
38781,1722,20237,0,0,0
38751,1688,20174,0,0,0
38719,1658,20110,0,0,0
38680,1627,20048,0,0,0
38634,1591,19990,0,0,0
38586,1552,19936,0,0,0
38533,1510,19882,0,0,0
38480,1466,19826,0,0,0
38435,1423,19772,0,0,0
38397,1386,19722,0,0,0
38364,1354,19678,0,0,0
38332,1322,19632,0,0,0
38302,1287,19584,0,0,0
38277,1253,19537,0,0,0
38252,1220,19489,0,0,0
38219,1182,19439,0,0,0
38184,1142,19387,0,0,0
38157,1110,19339,0,0,0
38139,1086,19296,0,0,0
38122,1067,19262,0,0,0
38114,1060,19240,0,0,0
38128,1078,19234,0,0,0
38169,1125,19257,0,0,0
38241,1201,19320,0,0,0
38348,1315,19435,0,0,0
38499,1473,19616,0,0,0
38699,1680,19870,0,0,0
38954,1938,20205,0,0,0
39257,2248,20621,0,0,0
39595,2597,21103,0,0,0
39960,2977,21642,0,0,0
40344,3377,22231,0,0,0
40735,3786,22857,0,0,0
41126,4193,23498,0,0,0
41497,4583,24128,0,0,0
41827,4934,24720,0,0,0
42111,5237,25245,0,0,0
42342,5482,25679,0,0,0
42516,5665,26016,0,0,0
42635,5788,26259,0,0,0
42704,5860,26414,0,0,0
42731,5886,26488,0,0,0
42721,5869,26493,0,0,0
42682,5818,26442,0,0,0
42625,5746,26348,0,0,0
42548,5660,26222,0,0,0
42452,5558,26073,0,0,0
42348,5449,25911,0,0,0
42248,5341,25748,0,0,0
42151,5238,25590,0,0,0
42056,5139,25439,0,0,0
41968,5048,25298,0,0,0
41889,4967,25178,0,0,0
41821,4898,25082,0,0,0
41767,4839,25007,0,0,0
41726,4794,24951,0,0,0
41695,4761,24906,0,0,0
41669,4737,24861,0,0,0
41646,4721,24816,0,0,0
41626,4709,24773,0,0,0
41609,4700,24733,0,0,0
41594,4688,24695,0,0,0
41573,4666,24654,0,0,0
41542,4630,24598,0,0,0
41503,4583,24521,0,0,0
41450,4521,24420,0,0,0
41382,4443,24304,0,0,0
41302,4353,24176,0,0,0
41210,4255,24038,0,0,0
41114,4153,23898,0,0,0
41020,4050,23761,0,0,0
40928,3949,23627,0,0,0
40844,3859,23498,0,0,0
40768,3780,23373,0,0,0
40698,3708,23260,0,0,0
40636,3644,23159,0,0,0
40581,3588,23070,0,0,0
40532,3539,22992,0,0,0
40492,3498,22923,0,0,0
40465,3469,22873,0,0,0
40446,3450,22843,0,0,0
40432,3437,22826,0,0,0
40426,3429,22824,0,0,0
40428,3431,22836,0,0,0
40432,3441,22854,0,0,0
40437,3455,22873,0,0,0
40444,3471,22894,0,0,0
40455,3489,22915,0,0,0
40469,3505,22932,0,0,0
40482,3515,22942,0,0,0
40495,3516,22948,0,0,0
40511,3515,22952,0,0,0
40523,3514,22953,0,0,0
40523,3505,22940,0,0,0
40512,3486,22910,0,0,0
40490,3459,22866,0,0,0
40453,3421,22809,0,0,0
40402,3370,22735,0,0,0
40349,3315,22648,0,0,0
40299,3264,22558,0,0,0
40248,3215,22472,0,0,0
40189,3160,22389,0,0,0
40126,3099,22306,0,0,0
40055,3030,22215,0,0,0
39973,2953,22118,0,0,0
39884,2870,22018,0,0,0
39795,2788,21914,0,0,0
39713,2708,21801,0,0,0
39638,2631,21682,0,0,0
39567,2554,21562,0,0,0
39503,2479,21446,0,0,0
39451,2413,21343,0,0,0
39404,2358,21253,0,0,0
39353,2308,21172,0,0,0
39297,2259,21098,0,0,0
39238,2209,21022,0,0,0
39178,2160,20944,0,0,0
39120,2112,20868,0,0,0
39065,2064,20801,0,0,0
39014,2018,20740,0,0,0
38971,1975,20679,0,0,0
38935,1936,20624,0,0,0
38906,1903,20575,0,0,0
38883,1878,20532,0,0,0
38862,1854,20491,0,0,0
38834,1828,20450,0,0,0
38796,1797,20408,0,0,0
38753,1759,20361,0,0,0
38711,1719,20304,0,0,0
38676,1681,20243,0,0,0
38648,1648,20179,0,0,0
38623,1620,20114,0,0,0
38597,1593,20051,0,0,0
38570,1566,19993,0,0,0
38544,1538,19939,0,0,0
38517,1507,19886,0,0,0
38483,1474,19833,0,0,0
38442,1436,19777,0,0,0
38395,1395,19717,0,0,0
38351,1355,19654,0,0,0
38316,1320,19589,0,0,0
38288,1290,19528,0,0,0
38262,1264,19470,0,0,0
38234,1235,19416,0,0,0
38206,1204,19370,0,0,0
38187,1180,19333,0,0,0
38181,1169,19309,0,0,0
38187,1169,19299,0,0,0
38209,1187,19312,0,0,0
38259,1239,19360,0,0,0
38348,1331,19452,0,0,0
38480,1466,19599,0,0,0
38659,1652,19816,0,0,0
38887,1889,20113,0,0,0
39163,2178,20489,0,0,0
39471,2505,20933,0,0,0
39798,2854,21429,0,0,0
40134,3215,21966,0,0,0
40473,3578,22527,0,0,0
40809,3936,23098,0,0,0
41136,4276,23660,0,0,0
41442,4594,24197,0,0,0
41723,4885,24690,0,0,0
41965,5135,25119,0,0,0
42156,5333,25475,0,0,0
42294,5475,25749,0,0,0
42384,5563,25935,0,0,0
42425,5599,26034,0,0,0
42422,5589,26054,0,0,0
42382,5539,26005,0,0,0
42312,5458,25902,0,0,0
42226,5361,25766,0,0,0
42136,5259,25614,0,0,0
42044,5155,25454,0,0,0
41949,5051,25295,0,0,0
41850,4947,25144,0,0,0
41749,4845,24997,0,0,0
41657,4751,24857,0,0,0
41578,4670,24728,0,0,0
41515,4605,24621,0,0,0
41472,4558,24540,0,0,0
41443,4523,24473,0,0,0
41421,4491,24415,0,0,0
41398,4461,24366,0,0,0
41371,4430,24320,0,0,0
41336,4396,24274,0,0,0
41296,4356,24224,0,0,0
41251,4309,24169,0,0,0
41203,4263,24111,0,0,0
41158,4220,24044,0,0,0
41113,4172,23963,0,0,0
41060,4115,23869,0,0,0
41000,4050,23767,0,0,0
40936,3979,23660,0,0,0
40866,3899,23545,0,0,0
40786,3806,23419,0,0,0
40697,3707,23289,0,0,0
40608,3612,23161,0,0,0
40529,3530,23044,0,0,0
40466,3461,22942,0,0,0
40416,3407,22853,0,0,0
40377,3368,22781,0,0,0
40339,3336,22718,0,0,0
40299,3306,22662,0,0,0
40266,3283,22614,0,0,0
40249,3274,22577,0,0,0
40244,3274,22551,0,0,0
40245,3280,22536,0,0,0
40253,3296,22539,0,0,0
40268,3318,22560,0,0,0
40284,3337,22589,0,0,0
40299,3351,22615,0,0,0
40315,3366,22636,0,0,0
40330,3376,22653,0,0,0
40338,3378,22667,0,0,0
40344,3376,22674,0,0,0
40349,3372,22672,0,0,0
40346,3362,22658,0,0,0
40332,3343,22630,0,0,0
40310,3319,22592,0,0,0
40284,3290,22550,0,0,0
40251,3256,22501,0,0,0
40213,3218,22443,0,0,0
40173,3176,22376,0,0,0
40123,3127,22298,0,0,0
40062,3071,22215,0,0,0
39992,3009,22133,0,0,0
39921,2944,22053,0,0,0
39853,2876,21969,0,0,0
39785,2805,21884,0,0,0
39719,2735,21803,0,0,0
39654,2668,21725,0,0,0
39593,2606,21645,0,0,0
39537,2551,21562,0,0,0
39485,2497,21473,0,0,0
39437,2445,21382,0,0,0
39392,2398,21294,0,0,0
39344,2352,21210,0,0,0
39289,2303,21126,0,0,0
39231,2249,21039,0,0,0
39179,2193,20953,0,0,0
39131,2140,20874,0,0,0
39083,2090,20800,0,0,0
39032,2042,20727,0,0,0
38979,1991,20651,0,0,0
38928,1939,20574,0,0,0
38880,1891,20504,0,0,0
38836,1849,20443,0,0,0
38797,1812,20386,0,0,0
38763,1776,20333,0,0,0
38733,1744,20281,0,0,0
38707,1715,20227,0,0,0
38677,1685,20175,0,0,0
38641,1652,20125,0,0,0
38603,1619,20076,0,0,0
38570,1588,20027,0,0,0
38539,1561,19980,0,0,0
38509,1535,19938,0,0,0
38483,1509,19898,0,0,0
38459,1485,19856,0,0,0
38435,1462,19807,0,0,0
38406,1436,19753,0,0,0
38374,1408,19697,0,0,0
38341,1377,19640,0,0,0
38312,1346,19585,0,0,0
38283,1317,19537,0,0,0
38255,1291,19497,0,0,0
38230,1268,19461,0,0,0
38212,1249,19429,0,0,0
38205,1240,19404,0,0,0
38213,1246,19391,0,0,0
38239,1269,19399,0,0,0
38286,1314,19436,0,0,0
38368,1390,19512,0,0,0
38496,1511,19643,0,0,0
38671,1684,19847,0,0,0
38892,1912,20135,0,0,0
39158,2189,20509,0,0,0
39464,2511,20957,0,0,0
39802,2871,21467,0,0,0
40164,3258,22029,0,0,0
40544,3660,22634,0,0,0
40930,4068,23271,0,0,0
41307,4462,23911,0,0,0
41656,4826,24522,0,0,0
41966,5150,25082,0,0,0
42228,5429,25577,0,0,0
42442,5658,25992,0,0,0
42607,5835,26318,0,0,0
42724,5960,26555,0,0,0
42801,6039,26710,0,0,0
42843,6075,26793,0,0,0
42854,6076,26820,0,0,0
42840,6050,26803,0,0,0
42803,6002,26745,0,0,0
42749,5937,26655,0,0,0
42681,5859,26542,0,0,0
42597,5768,26412,0,0,0
42503,5673,26273,0,0,0
42409,5577,26134,0,0,0
42321,5483,26000,0,0,0
42249,5399,25876,0,0,0
42191,5329,25764,0,0,0
42141,5270,25663,0,0,0
42103,5221,25581,0,0,0
42073,5186,25516,0,0,0
42045,5163,25463,0,0,0
42017,5142,25415,0,0,0
41989,5116,25370,0,0,0
41960,5088,25329,0,0,0
41928,5056,25287,0,0,0
41898,5023,25242,0,0,0
41874,4992,25196,0,0,0
41852,4961,25142,0,0,0
41822,4925,25079,0,0,0
41778,4880,25004,0,0,0
41716,4821,24915,0,0,0
41642,4748,24807,0,0,0
41563,4666,24684,0,0,0
41481,4578,24551,0,0,0
41399,4488,24414,0,0,0
41316,4396,24277,0,0,0
41228,4298,24140,0,0,0
41136,4198,24005,0,0,0
41049,4103,23876,0,0,0
40968,4013,23753,0,0,0
40895,3933,23638,0,0,0
40839,3868,23535,0,0,0
40802,3823,23453,0,0,0
40779,3795,23393,0,0,0
40768,3781,23354,0,0,0
40767,3777,23332,0,0,0
40777,3780,23327,0,0,0
40793,3794,23335,0,0,0
40811,3813,23352,0,0,0
40825,3833,23374,0,0,0
40839,3852,23401,0,0,0
40863,3875,23435,0,0,0
40899,3905,23472,0,0,0
40938,3937,23505,0,0,0
40972,3965,23527,0,0,0
40996,3988,23538,0,0,0
41011,4002,23535,0,0,0
41016,4005,23520,0,0,0
41008,3996,23494,0,0,0
40983,3972,23455,0,0,0
40942,3935,23403,0,0,0
40890,3887,23341,0,0,0
40830,3829,23273,0,0,0
40769,3769,23202,0,0,0
40702,3707,23124,0,0,0
40634,3640,23042,0,0,0
40564,3568,22955,0,0,0
40494,3496,22863,0,0,0
40429,3424,22769,0,0,0
40368,3351,22672,0,0,0
40307,3279,22569,0,0,0
40245,3213,22461,0,0,0
40179,3148,22352,0,0,0
40107,3080,22242,0,0,0
40032,3009,22134,0,0,0
39956,2939,22032,0,0,0
39879,2870,21934,0,0,0
39800,2799,21838,0,0,0
39724,2729,21743,0,0,0
39659,2666,21651,0,0,0
39606,2612,21567,0,0,0
39564,2567,21492,0,0,0
39529,2530,21423,0,0,0
39497,2495,21360,0,0,0
39467,2455,21298,0,0,0
39436,2411,21234,0,0,0
39404,2368,21171,0,0,0
39375,2330,21114,0,0,0
39351,2300,21064,0,0,0
39327,2273,21020,0,0,0
39300,2246,20975,0,0,0
39267,2219,20925,0,0,0
39229,2189,20873,0,0,0
39185,2152,20817,0,0,0
39140,2111,20757,0,0,0
39093,2067,20693,0,0,0
39048,2024,20633,0,0,0
39010,1989,20581,0,0,0
38983,1963,20534,0,0,0
38963,1939,20489,0,0,0
38943,1916,20448,0,0,0
38923,1895,20411,0,0,0
38896,1868,20368,0,0,0
38862,1834,20319,0,0,0
38829,1800,20270,0,0,0
38802,1772,20221,0,0,0
38778,1744,20171,0,0,0
38752,1713,20121,0,0,0
38721,1684,20075,0,0,0
38689,1658,20032,0,0,0
38656,1633,19990,0,0,0
38630,1615,19958,0,0,0
38616,1608,19942,0,0,0
38618,1618,19946,0,0,0
38646,1650,19972,0,0,0
38703,1706,20028,0,0,0
38796,1794,20128,0,0,0
38931,1925,20284,0,0,0
39111,2107,20510,0,0,0
39341,2342,20816,0,0,0
39620,2630,21209,0,0,0
39945,2967,21686,0,0,0
40304,3342,22242,0,0,0
40692,3750,22871,0,0,0
41100,4179,23551,0,0,0
41508,4611,24243,0,0,0
41895,5025,24918,0,0,0
42256,5411,25562,0,0,0
42586,5765,26161,0,0,0
42876,6077,26700,0,0,0
43126,6344,27169,0,0,0
43339,6567,27567,0,0,0
43510,6741,27885,0,0,0
43634,6864,28113,0,0,0
43715,6937,28255,0,0,0
43755,6965,28322,0,0,0
43761,6954,28321,0,0,0
43739,6913,28265,0,0,0
43695,6852,28167,0,0,0
43635,6776,28041,0,0,0
43558,6689,27893,0,0,0
43466,6594,27730,0,0,0
43366,6493,27561,0,0,0
43266,6389,27391,0,0,0
43176,6292,27232,0,0,0
43099,6209,27092,0,0,0
43033,6141,26977,0,0,0
42980,6087,26888,0,0,0
42936,6042,26816,0,0,0
42897,6005,26756,0,0,0
42864,5973,26704,0,0,0
42833,5940,26654,0,0,0
42805,5909,26604,0,0,0
42779,5882,26554,0,0,0
42753,5856,26506,0,0,0
42728,5826,26456,0,0,0
42700,5789,26397,0,0,0
42663,5741,26320,0,0,0
42607,5675,26220,0,0,0
42531,5592,26098,0,0,0
42444,5502,25959,0,0,0
42353,5405,25807,0,0,0
42255,5303,25647,0,0,0
42157,5202,25484,0,0,0
42062,5104,25324,0,0,0
41968,5007,25167,0,0,0
41872,4907,25014,0,0,0
41778,4808,24868,0,0,0
41693,4710,24729,0,0,0
41614,4615,24598,0,0,0
41540,4527,24480,0,0,0
41479,4455,24380,0,0,0
41432,4402,24298,0,0,0
41394,4363,24235,0,0,0
41360,4334,24192,0,0,0
41331,4314,24161,0,0,0
41309,4302,24139,0,0,0
41295,4296,24121,0,0,0
41288,4289,24108,0,0,0
41289,4286,24102,0,0,0
41297,4291,24104,0,0,0
41309,4304,24115,0,0,0
41321,4325,24134,0,0,0
41335,4347,24150,0,0,0
41342,4359,24155,0,0,0
41335,4355,24147,0,0,0
41316,4341,24128,0,0,0
41295,4321,24096,0,0,0
41271,4296,24052,0,0,0
41241,4261,23995,0,0,0
41203,4219,23929,0,0,0
41164,4172,23858,0,0,0
41121,4122,23781,0,0,0
41074,4065,23696,0,0,0
41023,4003,23604,0,0,0
40965,3940,23508,0,0,0
40897,3874,23405,0,0,0
40825,3805,23299,0,0,0
40756,3735,23195,0,0,0
40691,3666,23094,0,0,0
40628,3596,22993,0,0,0
40558,3522,22885,0,0,0
40473,3438,22769,0,0,0
40380,3349,22648,0,0,0
40289,3259,22531,0,0,0
40206,3172,22423,0,0,0
40132,3099,22327,0,0,0
40069,3036,22237,0,0,0
40010,2973,22146,0,0,0
39948,2906,22052,0,0,0
39880,2840,21959,0,0,0
39816,2779,21869,0,0,0
39765,2729,21787,0,0,0
39726,2689,21713,0,0,0
39691,2654,21646,0,0,0
39657,2621,21587,0,0,0
39619,2583,21532,0,0,0
39573,2538,21474,0,0,0
39526,2495,21417,0,0,0
39484,2455,21362,0,0,0
39444,2415,21305,0,0,0
39404,2375,21251,0,0,0
39368,2343,21206,0,0,0
39340,2320,21166,0,0,0
39314,2298,21127,0,0,0
39289,2274,21086,0,0,0
39265,2252,21043,0,0,0
39237,2227,20992,0,0,0
39209,2198,20935,0,0,0
39182,2168,20878,0,0,0
39154,2134,20825,0,0,0
39125,2098,20771,0,0,0
39093,2064,20720,0,0,0
39058,2030,20673,0,0,0
39018,1995,20628,0,0,0
38974,1958,20579,0,0,0
38930,1918,20525,0,0,0
38888,1879,20472,0,0,0
38853,1842,20420,0,0,0
38825,1807,20364,0,0,0
38796,1770,20306,0,0,0
38767,1736,20250,0,0,0
38735,1703,20192,0,0,0
38698,1667,20129,0,0,0
38661,1632,20068,0,0,0
38625,1597,20007,0,0,0
38590,1562,19950,0,0,0
38561,1533,19902,0,0,0
38544,1514,19869,0,0,0
38547,1515,19857,0,0,0
38580,1547,19876,0,0,0
38646,1612,19935,0,0,0
38753,1716,20048,0,0,0
38912,1876,20241,0,0,0
39125,2094,20521,0,0,0
39386,2365,20887,0,0,0
39692,2685,21327,0,0,0
40035,3039,21829,0,0,0
40402,3419,22379,0,0,0
40780,3815,22972,0,0,0
41159,4213,23594,0,0,0
41529,4601,24218,0,0,0
41876,4969,24814,0,0,0
42191,5303,25363,0,0,0
42470,5598,25852,0,0,0
42703,5845,26265,0,0,0
42881,6034,26594,0,0,0
43005,6163,26836,0,0,0
43080,6242,27001,0,0,0
43115,6280,27096,0,0,0
43113,6280,27124,0,0,0
43079,6241,27091,0,0,0
43022,6175,27011,0,0,0
42954,6097,26906,0,0,0
42880,6014,26786,0,0,0
42801,5924,26657,0,0,0
42721,5837,26527,0,0,0
42651,5759,26404,0,0,0
42588,5690,26289,0,0,0
42526,5624,26180,0,0,0
42466,5562,26077,0,0,0
42412,5506,25982,0,0,0
42367,5458,25897,0,0,0
42329,5416,25825,0,0,0
42302,5382,25768,0,0,0
42286,5362,25726,0,0,0
42278,5350,25692,0,0,0
42269,5337,25659,0,0,0
42248,5313,25617,0,0,0
42213,5282,25566,0,0,0
42178,5248,25510,0,0,0
42143,5210,25450,0,0,0
42104,5165,25385,0,0,0
42056,5111,25306,0,0,0
41989,5042,25208,0,0,0
41907,4960,25093,0,0,0
41818,4872,24968,0,0,0
41720,4777,24831,0,0,0
41620,4674,24680,0,0,0
41522,4568,24521,0,0,0
41432,4465,24367,0,0,0
41350,4368,24224,0,0,0
41276,4279,24093,0,0,0
41208,4196,23978,0,0,0
41141,4119,23870,0,0,0
41076,4049,23766,0,0,0
41019,3991,23673,0,0,0
40974,3945,23598,0,0,0
40944,3911,23543,0,0,0
40927,3891,23507,0,0,0
40919,3883,23489,0,0,0
40923,3885,23486,0,0,0
40936,3896,23496,0,0,0
40949,3911,23510,0,0,0
40957,3924,23521,0,0,0
40964,3935,23525,0,0,0
40975,3950,23526,0,0,0
40984,3963,23526,0,0,0
40985,3967,23524,0,0,0
40984,3963,23517,0,0,0
40980,3956,23504,0,0,0
40967,3941,23481,0,0,0
40943,3916,23445,0,0,0
40915,3884,23395,0,0,0
40888,3849,23334,0,0,0
40858,3809,23265,0,0,0
40821,3765,23191,0,0,0
40781,3722,23115,0,0,0
40738,3683,23042,0,0,0
40689,3638,22970,0,0,0
40630,3583,22896,0,0,0
40564,3519,22818,0,0,0
40497,3454,22734,0,0,0
40433,3391,22643,0,0,0
40368,3326,22544,0,0,0
40304,3260,22444,0,0,0
40242,3195,22345,0,0,0
40179,3127,22247,0,0,0
40111,3053,22151,0,0,0
40040,2977,22055,0,0,0
39966,2901,21958,0,0,0
39894,2828,21863,0,0,0
39830,2763,21773,0,0,0
39776,2706,21691,0,0,0
39727,2657,21617,0,0,0
39681,2612,21549,0,0,0
39633,2571,21490,0,0,0
39585,2529,21431,0,0,0
39533,2481,21363,0,0,0
39478,2427,21287,0,0,0
39429,2376,21210,0,0,0
39386,2334,21139,0,0,0
39345,2299,21072,0,0,0
39309,2268,21012,0,0,0
39280,2241,20956,0,0,0
39256,2217,20901,0,0,0
39234,2191,20846,0,0,0
39208,2162,20796,0,0,0
39174,2130,20753,0,0,0
39133,2094,20713,0,0,0
39090,2054,20671,0,0,0
39045,2014,20625,0,0,0
39005,1978,20580,0,0,0
38975,1951,20543,0,0,0
38954,1930,20510,0,0,0
38934,1908,20477,0,0,0
38910,1882,20441,0,0,0
38884,1854,20396,0,0,0
38854,1823,20342,0,0,0
38819,1786,20284,0,0,0
38779,1743,20224,0,0,0
38739,1698,20162,0,0,0
38708,1657,20103,0,0,0
38684,1624,20045,0,0,0
38662,1594,19987,0,0,0
38636,1566,19934,0,0,0
38608,1541,19887,0,0,0
38581,1517,19841,0,0,0
38564,1501,19802,0,0,0
38567,1505,19777,0,0,0
38596,1535,19781,0,0,0
38655,1596,19831,0,0,0
38750,1696,19943,0,0,0
38885,1839,20123,0,0,0
39067,2031,20375,0,0,0
39295,2272,20701,0,0,0
39563,2555,21102,0,0,0
39867,2875,21566,0,0,0
40197,3221,22077,0,0,0
40547,3589,22626,0,0,0
40907,3968,23205,0,0,0
41262,4345,23792,0,0,0
41596,4700,24359,0,0,0
41893,5014,24878,0,0,0
42145,5282,25333,0,0,0
42353,5503,25714,0,0,0
42516,5674,26016,0,0,0
42634,5794,26239,0,0,0
42712,5868,26384,0,0,0
42751,5897,26453,0,0,0
42749,5884,26456,0,0,0
42709,5837,26407,0,0,0
42641,5767,26316,0,0,0
42559,5683,26190,0,0,0
42470,5590,26041,0,0,0
42381,5494,25887,0,0,0
42291,5395,25732,0,0,0
42198,5293,25576,0,0,0
42106,5193,25426,0,0,0
42020,5099,25289,0,0,0
41940,5014,25165,0,0,0
41862,4935,25052,0,0,0
41789,4859,24951,0,0,0
41730,4795,24868,0,0,0
41683,4742,24798,0,0,0
41646,4701,24740,0,0,0
41620,4672,24693,0,0,0
41598,4652,24652,0,0,0
41574,4638,24611,0,0,0
41547,4621,24560,0,0,0
41512,4595,24496,0,0,0
41470,4557,24419,0,0,0
41421,4506,24329,0,0,0
41367,4444,24228,0,0,0
41309,4373,24122,0,0,0
41241,4292,24011,0,0,0
41159,4200,23894,0,0,0
41068,4100,23768,0,0,0
40976,3997,23630,0,0,0
40887,3899,23490,0,0,0
40801,3807,23361,0,0,0
40723,3723,23248,0,0,0
40657,3650,23148,0,0,0
40602,3587,23056,0,0,0
40559,3534,22979,0,0,0
40526,3493,22922,0,0,0
40496,3462,22884,0,0,0
40472,3443,22857,0,0,0
40455,3434,22840,0,0,0
40447,3436,22831,0,0,0
40445,3443,22830,0,0,0
40454,3456,22834,0,0,0
40473,3477,22845,0,0,0
40503,3505,22869,0,0,0
40539,3540,22906,0,0,0
40572,3572,22944,0,0,0
40593,3595,22974,0,0,0
40605,3610,22995,0,0,0
40613,3620,23005,0,0,0
40617,3622,22998,0,0,0
40612,3616,22975,0,0,0
40597,3604,22942,0,0,0
40574,3586,22905,0,0,0
40546,3562,22859,0,0,0
40515,3530,22803,0,0,0
40481,3492,22745,0,0,0
40442,3448,22684,0,0,0
40396,3397,22621,0,0,0
40337,3337,22548,0,0,0
40261,3261,22463,0,0,0
40175,3175,22366,0,0,0
40091,3087,22263,0,0,0
40009,2999,22154,0,0,0
39932,2916,22040,0,0,0
39863,2843,21927,0,0,0
39804,2780,21822,0,0,0
39750,2723,21724,0,0,0
39697,2671,21634,0,0,0
39647,2623,21550,0,0,0
39598,2578,21471,0,0,0
39548,2532,21394,0,0,0
39497,2486,21323,0,0,0
39445,2442,21257,0,0,0
39396,2396,21193,0,0,0
39349,2349,21128,0,0,0
39307,2302,21062,0,0,0
39270,2259,20995,0,0,0
39236,2222,20931,0,0,0
39202,2186,20872,0,0,0
39169,2147,20814,0,0,0
39136,2107,20752,0,0,0
39103,2068,20690,0,0,0
39069,2030,20632,0,0,0
39038,1993,20578,0,0,0
39011,1963,20532,0,0,0
38982,1936,20492,0,0,0
38948,1908,20454,0,0,0
38918,1882,20416,0,0,0
38892,1860,20379,0,0,0
38863,1835,20340,0,0,0
38828,1805,20297,0,0,0
38786,1770,20251,0,0,0
38747,1737,20206,0,0,0
38717,1710,20163,0,0,0
38693,1687,20120,0,0,0
38674,1669,20083,0,0,0
38660,1658,20051,0,0,0
38646,1644,20017,0,0,0
38626,1625,19981,0,0,0
38602,1604,19944,0,0,0
38580,1583,19906,0,0,0
38562,1565,19869,0,0,0
38553,1556,19842,0,0,0
38556,1560,19825,0,0,0
38576,1578,19822,0,0,0
38622,1620,19845,0,0,0
38705,1695,19912,0,0,0
38829,1815,20041,0,0,0
38998,1986,20244,0,0,0
39213,2210,20527,0,0,0
39474,2485,20895,0,0,0
39771,2802,21336,0,0,0
40094,3147,21834,0,0,0
40438,3513,22378,0,0,0
40796,3892,22956,0,0,0
41158,4275,23555,0,0,0
41508,4643,24153,0,0,0
41838,4984,24729,0,0,0
42144,5289,25263,0,0,0
42412,5553,25740,0,0,0
42628,5768,26141,0,0,0
42783,5927,26457,0,0,0
42882,6034,26687,0,0,0
42934,6095,26835,0,0,0
42948,6113,26910,0,0,0
42935,6096,26923,0,0,0
42903,6056,26885,0,0,0
42858,6004,26810,0,0,0
42799,5941,26706,0,0,0
42730,5865,26578,0,0,0
42651,5781,26437,0,0,0
42565,5693,26289,0,0,0
42479,5601,26136,0,0,0
42398,5509,25986,0,0,0
42325,5424,25850,0,0,0
42258,5348,25732,0,0,0
42199,5283,25635,0,0,0
42154,5232,25554,0,0,0
42119,5188,25483,0,0,0
42087,5150,25419,0,0,0
42059,5120,25366,0,0,0
42036,5099,25330,0,0,0
42020,5085,25304,0,0,0
42006,5071,25280,0,0,0
41988,5053,25251,0,0,0
41966,5032,25214,0,0,0
41935,5005,25164,0,0,0
41894,4967,25097,0,0,0
41846,4918,25016,0,0,0
41790,4855,24919,0,0,0
41720,4781,24807,0,0,0
41638,4695,24684,0,0,0
41551,4601,24552,0,0,0
41464,4506,24417,0,0,0
41374,4412,24281,0,0,0
41287,4321,24144,0,0,0
41201,4232,24008,0,0,0
41121,4146,23878,0,0,0
41054,4073,23762,0,0,0
41003,4016,23663,0,0,0
40969,3976,23589,0,0,0
40950,3955,23541,0,0,0
40938,3944,23510,0,0,0
40928,3934,23489,0,0,0
40923,3925,23474,0,0,0
40922,3919,23466,0,0,0
40921,3919,23460,0,0,0
40922,3921,23454,0,0,0
40923,3924,23453,0,0,0
40927,3932,23458,0,0,0
40941,3944,23470,0,0,0
40959,3956,23484,0,0,0
40977,3966,23498,0,0,0
40993,3976,23508,0,0,0
40997,3980,23509,0,0,0
40986,3972,23496,0,0,0
40962,3953,23466,0,0,0
40932,3929,23423,0,0,0
40899,3902,23372,0,0,0
40860,3872,23317,0,0,0
40819,3838,23256,0,0,0
40775,3798,23186,0,0,0
40727,3749,23110,0,0,0
40666,3689,23028,0,0,0
40594,3619,22938,0,0,0
40523,3545,22843,0,0,0
40456,3470,22745,0,0,0
40389,3391,22643,0,0,0
40326,3314,22541,0,0,0
40269,3245,22445,0,0,0
40213,3181,22358,0,0,0
40156,3120,22272,0,0,0
40101,3063,22189,0,0,0
40050,3012,22106,0,0,0
40000,2961,22024,0,0,0
39944,2906,21939,0,0,0
39883,2847,21848,0,0,0
39822,2789,21757,0,0,0
39762,2731,21670,0,0,0
39702,2675,21588,0,0,0
39650,2627,21513,0,0,0
39607,2587,21444,0,0,0
39568,2549,21379,0,0,0
39532,2514,21321,0,0,0
39498,2484,21271,0,0,0
39465,2455,21224,0,0,0
39436,2427,21179,0,0,0
39414,2399,21135,0,0,0
39394,2373,21094,0,0,0
39372,2349,21051,0,0,0
39343,2319,21004,0,0,0
39313,2286,20959,0,0,0
39282,2250,20916,0,0,0
39246,2208,20872,0,0,0
39205,2159,20824,0,0,0
39165,2114,20770,0,0,0
39131,2079,20717,0,0,0
39103,2053,20667,0,0,0
39078,2030,20616,0,0,0
39051,2002,20567,0,0,0
39020,1969,20516,0,0,0
38991,1936,20462,0,0,0
38961,1902,20406,0,0,0
38928,1865,20351,0,0,0
38891,1825,20293,0,0,0
38848,1784,20234,0,0,0
38805,1743,20177,0,0,0
38771,1707,20128,0,0,0
38742,1677,20088,0,0,0
38714,1652,20057,0,0,0
38689,1630,20027,0,0,0
38672,1611,19996,0,0,0
38665,1602,19965,0,0,0
38674,1610,19943,0,0,0
38703,1643,19947,0,0,0
38760,1702,19991,0,0,0
38849,1796,20086,0,0,0
38974,1935,20247,0,0,0
39140,2120,20485,0,0,0
39350,2354,20803,0,0,0
39608,2638,21193,0,0,0
39905,2957,21640,0,0,0
40229,3296,22137,0,0,0
40575,3657,22685,0,0,0
40941,4040,23278,0,0,0
41319,4433,23899,0,0,0
41687,4819,24520,0,0,0
42027,5178,25116,0,0,0
42332,5499,25667,0,0,0
42597,5775,26148,0,0,0
42815,6002,26549,0,0,0
42986,6178,26871,0,0,0
43112,6302,27116,0,0,0
43199,6383,27291,0,0,0
43253,6432,27403,0,0,0
43275,6448,27452,0,0,0
43268,6432,27449,0,0,0
43238,6392,27404,0,0,0
43192,6334,27324,0,0,0
43133,6262,27214,0,0,0
43065,6182,27086,0,0,0
42992,6101,26953,0,0,0
42923,6028,26824,0,0,0
42860,5961,26698,0,0,0
42801,5896,26583,0,0,0
42748,5834,26484,0,0,0
42701,5782,26405,0,0,0
42660,5742,26344,0,0,0
42626,5712,26299,0,0,0
42598,5684,26261,0,0,0
42568,5652,26222,0,0,0
42539,5619,26183,0,0,0
42515,5589,26141,0,0,0
42494,5564,26097,0,0,0
42476,5544,26054,0,0,0
42453,5522,26006,0,0,0
42415,5486,25942,0,0,0
42363,5433,25856,0,0,0
42298,5365,25744,0,0,0
42223,5284,25612,0,0,0
42139,5191,25468,0,0,0
42050,5092,25317,0,0,0
41962,4991,25161,0,0,0
41872,4890,25007,0,0,0
41777,4787,24856,0,0,0
41678,4680,24706,0,0,0
41585,4576,24557,0,0,0
41502,4486,24417,0,0,0
41430,4409,24289,0,0,0
41366,4342,24179,0,0,0
41306,4282,24088,0,0,0
41256,4230,24011,0,0,0
41218,4188,23948,0,0,0
41194,4158,23900,0,0,0
41181,4140,23865,0,0,0
41179,4134,23845,0,0,0
41183,4135,23838,0,0,0
41190,4140,23839,0,0,0
41198,4149,23843,0,0,0
41209,4160,23846,0,0,0
41219,4170,23848,0,0,0
41226,4175,23850,0,0,0
41226,4177,23850,0,0,0
41219,4173,23843,0,0,0
41208,4163,23830,0,0,0
41198,4155,23817,0,0,0
41190,4150,23802,0,0,0
41177,4138,23778,0,0,0
41161,4117,23743,0,0,0
41135,4085,23696,0,0,0
41100,4043,23636,0,0,0
41060,3997,23563,0,0,0
41017,3949,23484,0,0,0
40969,3897,23401,0,0,0
40913,3837,23312,0,0,0
40849,3774,23221,0,0,0
40777,3706,23126,0,0,0
40696,3634,23026,0,0,0
40618,3566,22929,0,0,0
40549,3503,22838,0,0,0
40488,3439,22745,0,0,0
40432,3376,22650,0,0,0
40373,3310,22550,0,0,0
40310,3241,22453,0,0,0
40248,3174,22366,0,0,0
40191,3113,22285,0,0,0
40135,3053,22204,0,0,0
40077,2992,22122,0,0,0
40018,2931,22039,0,0,0
39959,2870,21952,0,0,0
39895,2806,21857,0,0,0
39829,2743,21760,0,0,0
39766,2684,21667,0,0,0
39712,2635,21585,0,0,0
39667,2594,21511,0,0,0
39622,2552,21436,0,0,0
39575,2506,21360,0,0,0
39523,2456,21289,0,0,0
39467,2398,21220,0,0,0
39408,2340,21153,0,0,0
39353,2287,21085,0,0,0
39308,2239,21013,0,0,0
39271,2197,20940,0,0,0
39233,2155,20869,0,0,0
39189,2114,20804,0,0,0
39143,2074,20749,0,0,0
39100,2035,20697,0,0,0
39057,1996,20642,0,0,0
39018,1956,20586,0,0,0
38980,1915,20522,0,0,0
38941,1870,20453,0,0,0
38901,1825,20385,0,0,0
38864,1788,20324,0,0,0
38837,1764,20271,0,0,0
38820,1745,20221,0,0,0
38805,1724,20172,0,0,0
38783,1699,20126,0,0,0
38752,1669,20080,0,0,0
38709,1632,20036,0,0,0
38661,1589,19994,0,0,0
38611,1545,19947,0,0,0
38566,1503,19892,0,0,0
38529,1465,19836,0,0,0
38496,1430,19780,0,0,0
38469,1399,19723,0,0,0
38447,1372,19665,0,0,0
38423,1342,19608,0,0,0
38396,1307,19554,0,0,0
38369,1272,19502,0,0,0
38346,1245,19457,0,0,0
38336,1234,19427,0,0,0
38349,1245,19417,0,0,0
38387,1281,19437,0,0,0
38454,1348,19491,0,0,0
38559,1456,19594,0,0,0
38712,1613,19770,0,0,0
38918,1827,20032,0,0,0
39177,2094,20380,0,0,0
39473,2405,20804,0,0,0
39791,2747,21290,0,0,0
40131,3112,21824,0,0,0
40487,3489,22393,0,0,0
40849,3866,22987,0,0,0
41214,4241,23593,0,0,0
41572,4609,24194,0,0,0
41903,4953,24762,0,0,0
42191,5258,25274,0,0,0
42429,5517,25720,0,0,0
42615,5725,26092,0,0,0
42747,5877,26376,0,0,0
42835,5977,26569,0,0,0
42885,6033,26681,0,0,0
42903,6050,26727,0,0,0
42891,6030,26714,0,0,0
42850,5976,26648,0,0,0
42789,5898,26542,0,0,0
42713,5809,26411,0,0,0
42627,5714,26269,0,0,0
42534,5615,26125,0,0,0
42440,5517,25985,0,0,0
42354,5430,25852,0,0,0
42283,5357,25729,0,0,0
42222,5294,25622,0,0,0
42167,5239,25530,0,0,0
42121,5192,25454,0,0,0
42087,5149,25393,0,0,0
42065,5118,25345,0,0,0
42056,5100,25312,0,0,0
42054,5093,25291,0,0,0
42052,5087,25271,0,0,0
42048,5080,25249,0,0,0
42042,5069,25219,0,0,0
42029,5052,25178,0,0,0
42003,5023,25126,0,0,0
41959,4981,25060,0,0,0
41900,4926,24977,0,0,0
41830,4855,24880,0,0,0
41750,4770,24766,0,0,0
41667,4679,24639,0,0,0
41582,4587,24507,0,0,0
41496,4495,24373,0,0,0
41412,4404,24240,0,0,0
41333,4313,24111,0,0,0
41255,4222,23977,0,0,0
41182,4134,23843,0,0,0
41114,4053,23717,0,0,0
41053,3980,23602,0,0,0
40998,3917,23501,0,0,0
40951,3865,23419,0,0,0
40911,3823,23361,0,0,0
40887,3793,23323,0,0,0
40877,3781,23300,0,0,0
40875,3781,23287,0,0,0
40871,3782,23283,0,0,0
40864,3781,23286,0,0,0
40862,3784,23292,0,0,0
40866,3790,23299,0,0,0
40869,3795,23306,0,0,0
40876,3806,23318,0,0,0
40886,3825,23335,0,0,0
40895,3845,23350,0,0,0
40899,3858,23362,0,0,0
40898,3865,23364,0,0,0
40895,3867,23358,0,0,0
40890,3862,23348,0,0,0
40871,3843,23324,0,0,0
40843,3814,23286,0,0,0
40814,3778,23237,0,0,0
40783,3740,23180,0,0,0
40752,3703,23118,0,0,0
40720,3662,23050,0,0,0
40676,3612,22972,0,0,0
40621,3549,22886,0,0,0
40557,3477,22792,0,0,0
40489,3402,22689,0,0,0
40414,3324,22577,0,0,0
40330,3240,22461,0,0,0
40247,3157,22349,0,0,0
40170,3077,22242,0,0,0
40093,2997,22138,0,0,0
40014,2917,22036,0,0,0
39937,2839,21939,0,0,0
39861,2768,21847,0,0,0
39792,2703,21757,0,0,0
39729,2640,21669,0,0,0
39669,2582,21586,0,0,0
39616,2530,21513,0,0,0
39574,2488,21449,0,0,0
39538,2452,21391,0,0,0
39505,2419,21334,0,0,0
39476,2388,21274,0,0,0
39452,2359,21214,0,0,0
39430,2331,21161,0,0,0
39405,2303,21110,0,0,0
39380,2278,21060,0,0,0
39358,2256,21015,0,0,0
39337,2238,20979,0,0,0
39314,2215,20939,0,0,0
39285,2187,20892,0,0,0
39250,2158,20846,0,0,0
39212,2130,20800,0,0,0
39180,2105,20753,0,0,0
39155,2082,20707,0,0,0
39133,2063,20662,0,0,0
39109,2044,20618,0,0,0
39083,2021,20571,0,0,0
39056,1994,20518,0,0,0
39026,1961,20464,0,0,0
38993,1923,20409,0,0,0
38958,1886,20353,0,0,0
38924,1847,20294,0,0,0
38890,1806,20241,0,0,0
38861,1769,20195,0,0,0
38832,1735,20151,0,0,0
38797,1702,20109,0,0,0
38757,1669,20069,0,0,0
38715,1636,20030,0,0,0
38676,1601,19990,0,0,0
38639,1563,19951,0,0,0
38603,1528,19913,0,0,0
38574,1500,19872,0,0,0
38555,1482,19832,0,0,0
38550,1475,19797,0,0,0
38558,1482,19775,0,0,0
38587,1510,19775,0,0,0
38645,1571,19808,0,0,0
38739,1672,19890,0,0,0
38870,1813,20037,0,0,0
39042,1997,20258,0,0,0
39254,2226,20555,0,0,0
39501,2494,20927,0,0,0
39784,2796,21368,0,0,0
40104,3129,21864,0,0,0
40452,3487,22402,0,0,0
40813,3856,22965,0,0,0
41174,4223,23538,0,0,0
41521,4578,24106,0,0,0
41842,4910,24641,0,0,0
42125,5201,25121,0,0,0
42358,5439,25528,0,0,0
42538,5624,25855,0,0,0
42666,5759,26103,0,0,0
42743,5845,26270,0,0,0
42771,5882,26362,0,0,0
42762,5879,26389,0,0,0
42726,5845,26362,0,0,0
42670,5782,26286,0,0,0
42595,5694,26170,0,0,0
42505,5591,26028,0,0,0
42410,5482,25868,0,0,0
42313,5373,25699,0,0,0
42213,5263,25532,0,0,0
42114,5160,25372,0,0,0
42024,5067,25228,0,0,0
41947,4983,25098,0,0,0
41883,4911,24983,0,0,0
41836,4857,24889,0,0,0
41802,4821,24817,0,0,0
41774,4793,24761,0,0,0
41748,4768,24721,0,0,0
41723,4747,24691,0,0,0
41699,4726,24663,0,0,0
41672,4699,24631,0,0,0
41639,4663,24589,0,0,0
41601,4620,24531,0,0,0
41558,4566,24453,0,0,0
41502,4499,24360,0,0,0
41432,4424,24259,0,0,0
41354,4345,24153,0,0,0
41275,4265,24043,0,0,0
41196,4184,23930,0,0,0
41118,4103,23815,0,0,0
41043,4025,23696,0,0,0
40970,3948,23575,0,0,0
40898,3871,23460,0,0,0
40837,3803,23359,0,0,0
40787,3748,23268,0,0,0
40746,3705,23187,0,0,0
40709,3667,23118,0,0,0
40677,3632,23062,0,0,0
40654,3609,23023,0,0,0
40635,3592,22994,0,0,0
40621,3577,22972,0,0,0
40612,3568,22961,0,0,0
40610,3568,22959,0,0,0
40612,3575,22967,0,0,0
40623,3591,22984,0,0,0
40647,3616,23007,0,0,0
40677,3647,23035,0,0,0
40702,3674,23063,0,0,0
40720,3695,23088,0,0,0
40736,3715,23107,0,0,0
40746,3733,23118,0,0,0
40746,3740,23119,0,0,0
40737,3734,23106,0,0,0
40721,3717,23080,0,0,0
40702,3695,23043,0,0,0
40678,3661,22994,0,0,0
40647,3618,22931,0,0,0
40610,3569,22860,0,0,0
40567,3518,22783,0,0,0
40514,3460,22700,0,0,0
40451,3396,22610,0,0,0
40384,3329,22513,0,0,0
40317,3260,22412,0,0,0
40249,3188,22315,0,0,0
40183,3117,22224,0,0,0
40121,3051,22136,0,0,0
40063,2991,22051,0,0,0
40009,2934,21971,0,0,0
39954,2879,21892,0,0,0
39890,2820,21811,0,0,0
39821,2756,21723,0,0,0
39752,2690,21631,0,0,0
39689,2628,21538,0,0,0
39630,2566,21447,0,0,0
39569,2502,21360,0,0,0
39503,2435,21276,0,0,0
39438,2373,21197,0,0,0
39382,2321,21122,0,0,0
39333,2277,21049,0,0,0
39283,2235,20980,0,0,0
39233,2189,20914,0,0,0
39187,2143,20851,0,0,0
39144,2100,20790,0,0,0
39101,2059,20729,0,0,0
39058,2017,20666,0,0,0
39020,1976,20604,0,0,0
38988,1936,20545,0,0,0
38961,1901,20489,0,0,0
38940,1875,20439,0,0,0
38922,1856,20398,0,0,0
38902,1835,20361,0,0,0
38877,1814,20329,0,0,0
38848,1795,20298,0,0,0
38816,1779,20269,0,0,0
38784,1762,20237,0,0,0
38758,1744,20201,0,0,0
38739,1726,20163,0,0,0
38723,1706,20126,0,0,0
38711,1688,20089,0,0,0
38702,1672,20055,0,0,0
38687,1651,20017,0,0,0
38664,1620,19968,0,0,0
38635,1583,19913,0,0,0
38605,1543,19856,0,0,0
38574,1502,19794,0,0,0
38542,1464,19730,0,0,0
38509,1431,19670,0,0,0
38473,1403,19620,0,0,0
38436,1376,19579,0,0,0
38394,1346,19541,0,0,0
38352,1312,19501,0,0,0
38316,1281,19460,0,0,0
38298,1262,19427,0,0,0
38305,1264,19417,0,0,0
38343,1295,19442,0,0,0
38418,1362,19507,0,0,0
38533,1474,19623,0,0,0
38692,1636,19808,0,0,0
38905,1855,20076,0,0,0
39167,2127,20425,0,0,0
39466,2442,20847,0,0,0
39795,2789,21338,0,0,0
40149,3163,21886,0,0,0
40527,3563,22489,0,0,0
40918,3981,23134,0,0,0
41300,4391,23789,0,0,0
41653,4769,24415,0,0,0
41963,5099,24985,0,0,0
42230,5377,25484,0,0,0
42452,5603,25902,0,0,0
42624,5781,26236,0,0,0
42751,5913,26488,0,0,0
42839,5999,26660,0,0,0
42889,6041,26764,0,0,0
42909,6051,26814,0,0,0
42906,6041,26816,0,0,0
42885,6015,26778,0,0,0
42846,5971,26708,0,0,0
42791,5910,26613,0,0,0
42720,5838,26497,0,0,0
42638,5756,26368,0,0,0
42556,5670,26233,0,0,0
42483,5589,26099,0,0,0
42418,5518,25974,0,0,0
42363,5458,25862,0,0,0
42315,5404,25764,0,0,0
42273,5354,25681,0,0,0
42242,5312,25614,0,0,0
42219,5278,25563,0,0,0
42193,5248,25527,0,0,0
42166,5220,25503,0,0,0
42143,5196,25483,0,0,0
42123,5176,25457,0,0,0
42104,5155,25426,0,0,0
42088,5136,25392,0,0,0
42073,5117,25349,0,0,0
42050,5089,25288,0,0,0
42014,5047,25210,0,0,0
41963,4989,25118,0,0,0
41895,4914,25010,0,0,0
41816,4827,24886,0,0,0
41732,4733,24754,0,0,0
41645,4637,24619,0,0,0
41562,4547,24483,0,0,0
41487,4465,24353,0,0,0
41420,4390,24239,0,0,0
41363,4320,24134,0,0,0
41311,4250,24030,0,0,0
41261,4184,23931,0,0,0
41209,4125,23844,0,0,0
41160,4074,23772,0,0,0
41117,4037,23712,0,0,0
41083,4012,23663,0,0,0
41057,3995,23626,0,0,0
41044,3986,23603,0,0,0
41043,3986,23590,0,0,0
41048,3991,23585,0,0,0
41053,3998,23584,0,0,0
41055,4005,23583,0,0,0
41052,4010,23580,0,0,0
41043,4008,23575,0,0,0
41030,3999,23569,0,0,0
41019,3991,23565,0,0,0
41014,3987,23560,0,0,0
41013,3985,23548,0,0,0
41008,3976,23526,0,0,0
40996,3957,23495,0,0,0
40975,3930,23461,0,0,0
40945,3895,23421,0,0,0
40906,3850,23365,0,0,0
40861,3796,23296,0,0,0
40816,3740,23221,0,0,0
40766,3684,23138,0,0,0
40712,3631,23054,0,0,0
40655,3581,22973,0,0,0
40596,3529,22889,0,0,0
40534,3470,22799,0,0,0
40468,3406,22706,0,0,0
40401,3340,22613,0,0,0
40333,3271,22517,0,0,0
40261,3198,22421,0,0,0
40194,3124,22325,0,0,0
40131,3056,22231,0,0,0
40072,2994,22139,0,0,0
40019,2937,22047,0,0,0
39968,2884,21954,0,0,0
39915,2834,21865,0,0,0
39863,2784,21783,0,0,0
39816,2736,21710,0,0,0
39771,2691,21644,0,0,0
39725,2646,21573,0,0,0
39672,2593,21496,0,0,0
39616,2536,21418,0,0,0
39564,2482,21345,0,0,0
39515,2431,21272,0,0,0
39463,2380,21199,0,0,0
39413,2329,21133,0,0,0
39368,2285,21075,0,0,0
39332,2250,21023,0,0,0
39303,2224,20973,0,0,0
39278,2202,20921,0,0,0
39256,2180,20869,0,0,0
39234,2159,20819,0,0,0
39208,2136,20768,0,0,0
39183,2111,20716,0,0,0
39160,2084,20666,0,0,0
39143,2061,20624,0,0,0
39130,2043,20594,0,0,0
39117,2027,20571,0,0,0
39098,2007,20546,0,0,0
39071,1980,20517,0,0,0
39039,1949,20489,0,0,0
38999,1916,20454,0,0,0
38957,1883,20414,0,0,0
38917,1853,20372,0,0,0
38885,1824,20327,0,0,0
38860,1797,20278,0,0,0
38838,1769,20228,0,0,0
38814,1739,20175,0,0,0
38788,1708,20123,0,0,0
38758,1677,20075,0,0,0
38723,1644,20032,0,0,0
38680,1604,19989,0,0,0
38634,1558,19942,0,0,0
38594,1516,19895,0,0,0
38561,1477,19844,0,0,0
38528,1440,19788,0,0,0
38500,1411,19739,0,0,0
38491,1400,19705,0,0,0
38507,1411,19693,0,0,0
38547,1447,19714,0,0,0
38618,1520,19783,0,0,0
38727,1640,19910,0,0,0
38880,1809,20107,0,0,0
39079,2024,20378,0,0,0
39325,2284,20723,0,0,0
39615,2588,21137,0,0,0
39938,2928,21613,0,0,0
40288,3300,22152,0,0,0
40669,3705,22754,0,0,0
41071,4132,23403,0,0,0
41474,4558,24072,0,0,0
41854,4957,24729,0,0,0
42197,5314,25342,0,0,0
42498,5628,25892,0,0,0
42752,5896,26368,0,0,0
42956,6113,26763,0,0,0
43111,6278,27078,0,0,0
43225,6396,27313,0,0,0
43302,6468,27468,0,0,0
43340,6495,27542,0,0,0
43344,6485,27549,0,0,0
43321,6449,27502,0,0,0
43279,6391,27411,0,0,0
43217,6314,27287,0,0,0
43138,6224,27143,0,0,0
43051,6127,26987,0,0,0
42959,6025,26823,0,0,0
42866,5924,26659,0,0,0
42780,5829,26512,0,0,0
42706,5746,26380,0,0,0
42643,5674,26261,0,0,0
42584,5610,26156,0,0,0
42527,5548,26065,0,0,0
42471,5488,25986,0,0,0
42418,5433,25921,0,0,0
42373,5393,25872,0,0,0
42338,5365,25829,0,0,0
42308,5341,25782,0,0,0
42278,5315,25730,0,0,0
42242,5283,25674,0,0,0
42201,5247,25611,0,0,0
42160,5210,25538,0,0,0
42115,5165,25456,0,0,0
42060,5106,25363,0,0,0
41999,5037,25258,0,0,0
41930,4957,25136,0,0,0
41846,4859,24998,0,0,0
41749,4747,24850,0,0,0
41651,4635,24700,0,0,0
41558,4527,24549,0,0,0
41469,4422,24397,0,0,0
41388,4325,24251,0,0,0
41313,4239,24112,0,0,0
41244,4159,23984,0,0,0
41177,4087,23868,0,0,0
41114,4023,23765,0,0,0
41065,3971,23678,0,0,0
41028,3928,23608,0,0,0
41000,3893,23554,0,0,0
40987,3874,23521,0,0,0
40987,3870,23505,0,0,0
40994,3875,23497,0,0,0
41005,3886,23498,0,0,0
41018,3903,23502,0,0,0
41027,3920,23504,0,0,0
41030,3928,23501,0,0,0
41026,3927,23495,0,0,0
41021,3922,23491,0,0,0
41018,3918,23486,0,0,0
41014,3917,23478,0,0,0
41011,3918,23469,0,0,0
41001,3913,23453,0,0,0
40979,3892,23421,0,0,0
40944,3854,23372,0,0,0
40900,3808,23313,0,0,0
40855,3762,23250,0,0,0
40805,3714,23177,0,0,0
40749,3661,23094,0,0,0
40690,3605,23005,0,0,0
40627,3548,22916,0,0,0
40561,3487,22826,0,0,0
40492,3421,22737,0,0,0
40420,3350,22646,0,0,0
40350,3279,22556,0,0,0
40284,3209,22467,0,0,0
40219,3136,22374,0,0,0
40152,3062,22273,0,0,0
40087,2990,22173,0,0,0
40022,2922,22077,0,0,0
39963,2858,21986,0,0,0
39910,2798,21899,0,0,0
39858,2740,21811,0,0,0
39796,2676,21720,0,0,0
39726,2608,21626,0,0,0
39657,2539,21530,0,0,0
39596,2476,21434,0,0,0
39541,2426,21344,0,0,0
39491,2380,21260,0,0,0
39442,2335,21182,0,0,0
39397,2291,21111,0,0,0
39360,2251,21044,0,0,0
39329,2217,20987,0,0,0
39301,2188,20936,0,0,0
39271,2159,20886,0,0,0
39237,2127,20835,0,0,0
39203,2092,20784,0,0,0
39170,2060,20738,0,0,0
39142,2037,20700,0,0,0
39115,2014,20663,0,0,0
39087,1987,20621,0,0,0
39055,1955,20573,0,0,0
39016,1922,20521,0,0,0
38974,1886,20469,0,0,0
38931,1848,20420,0,0,0
38892,1810,20368,0,0,0
38857,1769,20314,0,0,0
38823,1726,20264,0,0,0
38789,1689,20219,0,0,0
38758,1660,20180,0,0,0
38728,1636,20140,0,0,0
38696,1613,20101,0,0,0
38664,1590,20062,0,0,0
38628,1565,20016,0,0,0
38585,1532,19959,0,0,0
38541,1493,19894,0,0,0
38499,1449,19824,0,0,0
38463,1407,19754,0,0,0
38428,1366,19693,0,0,0
38395,1325,19638,0,0,0
38363,1282,19583,0,0,0
38331,1243,19529,0,0,0
38303,1212,19483,0,0,0
38280,1190,19443,0,0,0
38264,1176,19411,0,0,0
38260,1178,19395,0,0,0
38279,1199,19398,0,0,0
38326,1245,19425,0,0,0
38406,1325,19495,0,0,0
38525,1450,19626,0,0,0
38690,1623,19829,0,0,0
38904,1845,20109,0,0,0
39160,2111,20466,0,0,0
39453,2416,20896,0,0,0
39782,2759,21388,0,0,0
40136,3128,21930,0,0,0
40506,3517,22512,0,0,0
40885,3917,23119,0,0,0
41260,4315,23737,0,0,0
41616,4691,24339,0,0,0
41932,5023,24888,0,0,0
42198,5301,25361,0,0,0
42407,5521,25753,0,0,0
42557,5679,26056,0,0,0
42657,5783,26266,0,0,0
42710,5843,26395,0,0,0
42726,5861,26453,0,0,0
42716,5844,26447,0,0,0
42682,5801,26388,0,0,0
42627,5739,26294,0,0,0
42560,5660,26176,0,0,0
42482,5567,26039,0,0,0
42395,5468,25887,0,0,0
42302,5365,25727,0,0,0
42206,5260,25570,0,0,0
42113,5161,25424,0,0,0
42035,5074,25291,0,0,0
41974,5004,25177,0,0,0
41924,4946,25086,0,0,0
41881,4900,25013,0,0,0
41846,4864,24952,0,0,0
41814,4835,24902,0,0,0
41778,4803,24862,0,0,0
41738,4767,24823,0,0,0
41701,4733,24783,0,0,0
41672,4703,24743,0,0,0
41648,4673,24703,0,0,0
41629,4645,24661,0,0,0
41614,4622,24616,0,0,0
41593,4596,24561,0,0,0
41562,4557,24495,0,0,0
41516,4507,24416,0,0,0
41457,4446,24325,0,0,0
41389,4371,24221,0,0,0
41314,4284,24101,0,0,0
41232,4191,23970,0,0,0
41145,4097,23837,0,0,0
41057,4003,23708,0,0,0
40972,3914,23585,0,0,0
40891,3829,23470,0,0,0
40821,3755,23369,0,0,0
40762,3692,23278,0,0,0
40713,3636,23198,0,0,0
40677,3591,23131,0,0,0
40651,3561,23080,0,0,0
40638,3545,23045,0,0,0
40639,3544,23030,0,0,0
40648,3551,23030,0,0,0
40656,3556,23031,0,0,0
40664,3559,23032,0,0,0
40676,3568,23037,0,0,0
40688,3580,23042,0,0,0
40701,3593,23045,0,0,0
40716,3605,23051,0,0,0
40735,3621,23064,0,0,0
40758,3641,23082,0,0,0
40777,3658,23097,0,0,0
40787,3666,23107,0,0,0
40786,3662,23101,0,0,0
40773,3647,23074,0,0,0
40746,3621,23029,0,0,0
40707,3584,22973,0,0,0
40661,3540,22911,0,0,0
40605,3487,22839,0,0,0
40538,3424,22758,0,0,0
40466,3357,22670,0,0,0
40392,3287,22577,0,0,0
40322,3217,22482,0,0,0
40254,3150,22387,0,0,0
40185,3084,22295,0,0,0
40119,3021,22206,0,0,0
40054,2959,22115,0,0,0
39990,2895,22014,0,0,0
39924,2828,21908,0,0,0
39853,2761,21807,0,0,0
39784,2698,21715,0,0,0
39717,2637,21629,0,0,0
39651,2579,21547,0,0,0
39587,2523,21466,0,0,0
39527,2470,21382,0,0,0
39475,2418,21299,0,0,0
39431,2369,21220,0,0,0
39395,2328,21149,0,0,0
39368,2293,21087,0,0,0
39344,2261,21030,0,0,0
39316,2230,20978,0,0,0
39282,2195,20926,0,0,0
39244,2152,20869,0,0,0
39206,2108,20812,0,0,0
39170,2072,20761,0,0,0
39140,2044,20717,0,0,0
39111,2021,20677,0,0,0
39083,1996,20637,0,0,0
39059,1973,20597,0,0,0
39037,1953,20554,0,0,0
39014,1933,20517,0,0,0
38992,1913,20488,0,0,0
38969,1893,20461,0,0,0
38943,1871,20431,0,0,0
38913,1845,20393,0,0,0
38875,1808,20342,0,0,0
38832,1766,20285,0,0,0
38788,1724,20225,0,0,0
38744,1681,20168,0,0,0
38705,1640,20118,0,0,0
38670,1603,20070,0,0,0
38636,1570,20022,0,0,0
38604,1541,19972,0,0,0
38575,1514,19920,0,0,0
38556,1494,19874,0,0,0
38545,1478,19831,0,0,0
38538,1464,19792,0,0,0
38536,1456,19760,0,0,0
38537,1453,19735,0,0,0
38540,1458,19721,0,0,0
38552,1472,19725,0,0,0
38583,1503,19754,0,0,0
38648,1570,19824,0,0,0
38761,1690,19955,0,0,0
38929,1867,20165,0,0,0
39153,2099,20458,0,0,0
39421,2376,20824,0,0,0
39716,2682,21252,0,0,0
40031,3008,21729,0,0,0
40363,3352,22246,0,0,0
40707,3709,22792,0,0,0
41049,4069,23348,0,0,0
41374,4413,23893,0,0,0
41676,4729,24408,0,0,0
41948,5013,24879,0,0,0
42179,5253,25294,0,0,0
42356,5442,25639,0,0,0
42477,5577,25903,0,0,0
42548,5657,26081,0,0,0
42574,5685,26170,0,0,0
42566,5673,26187,0,0,0
42533,5634,26148,0,0,0
42481,5575,26066,0,0,0
42417,5499,25952,0,0,0
42338,5406,25812,0,0,0
42245,5305,25655,0,0,0
42148,5204,25492,0,0,0
42049,5101,25328,0,0,0
41953,4999,25172,0,0,0
41864,4907,25033,0,0,0
41782,4823,24906,0,0,0
41705,4748,24788,0,0,0
41636,4679,24683,0,0,0
41578,4619,24591,0,0,0
41531,4569,24509,0,0,0
41494,4525,24439,0,0,0
41468,4489,24379,0,0,0
41454,4465,24332,0,0,0
41446,4449,24295,0,0,0
41436,4433,24257,0,0,0
41422,4416,24216,0,0,0
41404,4393,24172,0,0,0
41375,4362,24118,0,0,0
41328,4318,24051,0,0,0
41267,4261,23968,0,0,0
41197,4191,23870,0,0,0
41123,4114,23759,0,0,0
41051,4037,23647,0,0,0
40985,3964,23538,0,0,0
40924,3893,23435,0,0,0
40865,3824,23335,0,0,0
40805,3753,23239,0,0,0
40744,3685,23148,0,0,0
40687,3625,23067,0,0,0
40638,3575,22998,0,0,0
40601,3536,22943,0,0,0
40581,3511,22908,0,0,0
40578,3502,22893,0,0,0
40584,3505,22893,0,0,0
40600,3517,22907,0,0,0
40627,3541,22936,0,0,0
40658,3570,22970,0,0,0
40684,3593,23005,0,0,0
40705,3612,23038,0,0,0
40725,3632,23065,0,0,0
40744,3653,23081,0,0,0
40764,3675,23094,0,0,0
40781,3696,23109,0,0,0
40793,3713,23123,0,0,0
40799,3724,23130,0,0,0
40795,3724,23125,0,0,0
40784,3711,23105,0,0,0
40774,3694,23074,0,0,0
40764,3676,23037,0,0,0
40746,3653,22997,0,0,0
40720,3624,22947,0,0,0
40688,3592,22888,0,0,0
40652,3559,22822,0,0,0
40604,3518,22748,0,0,0
40546,3464,22669,0,0,0
40484,3406,22589,0,0,0
40424,3346,22507,0,0,0
40362,3281,22417,0,0,0
40305,3212,22325,0,0,0
40254,3149,22239,0,0,0
40200,3088,22156,0,0,0
40137,3024,22068,0,0,0
40070,2960,21981,0,0,0
40006,2899,21899,0,0,0
39944,2840,21814,0,0,0
39881,2777,21723,0,0,0
39819,2711,21630,0,0,0
39766,2648,21542,0,0,0
39723,2593,21462,0,0,0
39688,2544,21389,0,0,0
39654,2501,21324,0,0,0
39613,2461,21265,0,0,0
39564,2421,21205,0,0,0
39511,2380,21140,0,0,0
39461,2339,21073,0,0,0
39415,2298,21007,0,0,0
39372,2257,20946,0,0,0
39327,2216,20889,0,0,0
39289,2182,20838,0,0,0
39261,2153,20795,0,0,0
39231,2126,20756,0,0,0
39198,2096,20716,0,0,0
39167,2066,20675,0,0,0
39142,2041,20635,0,0,0
39121,2021,20601,0,0,0
39103,2005,20575,0,0,0
39090,1992,20552,0,0,0
39082,1985,20528,0,0,0
39078,1979,20504,0,0,0
39070,1975,20480,0,0,0
39052,1967,20451,0,0,0
39024,1947,20411,0,0,0
38990,1913,20361,0,0,0
38955,1871,20309,0,0,0
38931,1831,20260,0,0,0
38913,1799,20213,0,0,0
38895,1775,20172,0,0,0
38879,1757,20140,0,0,0
38871,1745,20113,0,0,0
38874,1747,20099,0,0,0
38887,1764,20102,0,0,0
38916,1798,20124,0,0,0
38972,1858,20179,0,0,0
39060,1951,20279,0,0,0
39186,2078,20434,0,0,0
39359,2251,20657,0,0,0
39581,2479,20958,0,0,0
39848,2756,21331,0,0,0
40156,3075,21777,0,0,0
40498,3431,22296,0,0,0
40863,3818,22878,0,0,0
41239,4220,23501,0,0,0
41609,4619,24142,0,0,0
41962,4999,24774,0,0,0
42291,5349,25370,0,0,0
42586,5659,25911,0,0,0
42844,5925,26385,0,0,0
43066,6154,26793,0,0,0
43251,6346,27133,0,0,0
43396,6494,27400,0,0,0
43501,6598,27597,0,0,0
43567,6662,27727,0,0,0
43596,6692,27792,0,0,0
43591,6686,27793,0,0,0
43559,6647,27744,0,0,0
43514,6584,27656,0,0,0
43454,6506,27537,0,0,0
43384,6416,27394,0,0,0
43302,6317,27235,0,0,0
43211,6214,27075,0,0,0
43123,6118,26925,0,0,0
43037,6025,26785,0,0,0
42950,5931,26649,0,0,0
42871,5847,26524,0,0,0
42800,5777,26411,0,0,0
42739,5719,26310,0,0,0
42694,5674,26227,0,0,0
42667,5642,26166,0,0,0
42652,5623,26120,0,0,0
42637,5606,26081,0,0,0
42615,5583,26043,0,0,0
42589,5556,26002,0,0,0
42563,5524,25952,0,0,0
42532,5481,25884,0,0,0
42491,5425,25796,0,0,0
42438,5360,25694,0,0,0
42374,5284,25579,0,0,0
42296,5198,25451,0,0,0
42211,5107,25316,0,0,0
42116,5011,25178,0,0,0
42011,4912,25037,0,0,0
41905,4811,24893,0,0,0
41802,4714,24751,0,0,0
41709,4628,24618,0,0,0
41636,4557,24496,0,0,0
41582,4498,24396,0,0,0
41539,4451,24316,0,0,0
41506,4415,24244,0,0,0
41476,4386,24182,0,0,0
41449,4363,24136,0,0,0
41433,4350,24105,0,0,0
41426,4347,24085,0,0,0
41428,4350,24073,0,0,0
41440,4357,24072,0,0,0
41460,4367,24082,0,0,0
41484,4382,24101,0,0,0
41506,4396,24117,0,0,0
41522,4404,24128,0,0,0
41536,4412,24140,0,0,0
41549,4418,24146,0,0,0
41552,4416,24143,0,0,0
41548,4407,24138,0,0,0
41543,4399,24133,0,0,0
41539,4396,24128,0,0,0
41531,4390,24117,0,0,0
41514,4372,24095,0,0,0
41488,4343,24057,0,0,0
41449,4303,24002,0,0,0
41398,4251,23930,0,0,0
41344,4194,23849,0,0,0
41291,4140,23766,0,0,0
41237,4088,23682,0,0,0
41182,4036,23596,0,0,0
41126,3984,23509,0,0,0
41069,3928,23418,0,0,0
41010,3868,23324,0,0,0
40947,3803,23230,0,0,0
40882,3737,23138,0,0,0
40821,3672,23046,0,0,0
40761,3610,22956,0,0,0
40698,3545,22867,0,0,0
40639,3480,22780,0,0,0
40585,3420,22696,0,0,0
40530,3362,22612,0,0,0
40477,3307,22534,0,0,0
40429,3256,22462,0,0,0
40388,3211,22392,0,0,0
40353,3172,22325,0,0,0
40316,3137,22264,0,0,0
40277,3103,22203,0,0,0
40237,3069,22143,0,0,0
40194,3031,22079,0,0,0
40148,2991,22012,0,0,0
40105,2951,21945,0,0,0
40065,2912,21879,0,0,0
40026,2872,21813,0,0,0
39986,2830,21752,0,0,0
39946,2790,21692,0,0,0
39910,2757,21637,0,0,0
39877,2730,21590,0,0,0
39841,2704,21551,0,0,0
39803,2680,21514,0,0,0
39764,2658,21476,0,0,0
39729,2635,21438,0,0,0
39702,2610,21398,0,0,0
39681,2582,21355,0,0,0
39661,2551,21311,0,0,0
39636,2516,21270,0,0,0
39602,2477,21229,0,0,0
39566,2440,21188,0,0,0
39530,2407,21148,0,0,0
39491,2371,21107,0,0,0
39451,2331,21059,0,0,0
39419,2299,21008,0,0,0
39396,2274,20958,0,0,0
39374,2250,20904,0,0,0
39350,2226,20850,0,0,0
39325,2206,20804,0,0,0
39300,2184,20759,0,0,0
39275,2156,20708,0,0,0
39254,2126,20656,0,0,0
39248,2110,20615,0,0,0
39261,2114,20600,0,0,0
39290,2141,20620,0,0,0
39341,2196,20686,0,0,0
39427,2289,20807,0,0,0
39553,2422,20989,0,0,0
39718,2597,21234,0,0,0
39926,2817,21539,0,0,0
40180,3085,21905,0,0,0
40474,3398,22343,0,0,0
40808,3753,22857,0,0,0
41177,4140,23436,0,0,0
41566,4548,24061,0,0,0
41953,4955,24709,0,0,0
42328,5345,25361,0,0,0
42685,5714,25996,0,0,0
43015,6057,26587,0,0,0
43307,6364,27120,0,0,0
43561,6629,27587,0,0,0
43774,6851,27982,0,0,0
43947,7028,28297,0,0,0
44072,7152,28524,0,0,0
44148,7225,28665,0,0,0
44186,7259,28733,0,0,0
44190,7256,28735,0,0,0
44161,7217,28680,0,0,0
44101,7146,28581,0,0,0
44025,7055,28455,0,0,0
43946,6959,28317,0,0,0
43865,6863,28172,0,0,0
43784,6770,28024,0,0,0
43708,6684,27882,0,0,0
43634,6605,27754,0,0,0
43560,6534,27642,0,0,0
43497,6473,27547,0,0,0
43451,6424,27472,0,0,0
43422,6387,27413,0,0,0
43401,6357,27369,0,0,0
43385,6334,27337,0,0,0
43370,6316,27307,0,0,0
43352,6298,27275,0,0,0
43325,6275,27243,0,0,0
43291,6245,27206,0,0,0
43252,6209,27154,0,0,0
43208,6165,27082,0,0,0
43161,6111,26987,0,0,0
43111,6050,26876,0,0,0
43052,5981,26747,0,0,0
42981,5901,26602,0,0,0
42899,5810,26446,0,0,0
42803,5711,26281,0,0,0
42701,5603,26109,0,0,0
42596,5488,25931,0,0,0
42484,5371,25752,0,0,0
42374,5257,25579,0,0,0
42269,5145,25418,0,0,0
42171,5039,25270,0,0,0
42080,4945,25134,0,0,0
41997,4864,25014,0,0,0
41923,4798,24911,0,0,0
41858,4742,24821,0,0,0
41806,4696,24743,0,0,0
41768,4665,24685,0,0,0
41742,4647,24646,0,0,0
41729,4636,24626,0,0,0
41732,4638,24626,0,0,0
41747,4650,24641,0,0,0
41768,4663,24657,0,0,0
41791,4674,24673,0,0,0
41812,4684,24689,0,0,0
41829,4694,24697,0,0,0
41840,4702,24697,0,0,0
41837,4700,24688,0,0,0
41825,4690,24669,0,0,0
41808,4676,24641,0,0,0
41786,4656,24606,0,0,0
41759,4630,24564,0,0,0
41731,4599,24514,0,0,0
41703,4564,24452,0,0,0
41671,4525,24383,0,0,0
41628,4474,24309,0,0,0
41576,4416,24230,0,0,0
41518,4356,24149,0,0,0
41457,4295,24064,0,0,0
41394,4233,23971,0,0,0
41334,4175,23875,0,0,0
41277,4121,23781,0,0,0
41221,4067,23688,0,0,0
41163,4008,23597,0,0,0
41100,3942,23502,0,0,0
41032,3871,23405,0,0,0
40961,3796,23307,0,0,0
40890,3718,23206,0,0,0
40828,3649,23103,0,0,0
40773,3588,23003,0,0,0
40723,3531,22905,0,0,0
40677,3476,22813,0,0,0
40632,3426,22727,0,0,0
40584,3377,22648,0,0,0
40531,3323,22571,0,0,0
40472,3259,22489,0,0,0
40409,3191,22405,0,0,0
40345,3126,22323,0,0,0
40283,3066,22244,0,0,0
40226,3006,22166,0,0,0
40174,2948,22090,0,0,0
40131,2899,22017,0,0,0
40089,2855,21947,0,0,0
40043,2811,21884,0,0,0
39998,2773,21828,0,0,0
39963,2745,21780,0,0,0
39936,2722,21737,0,0,0
39914,2701,21695,0,0,0
39893,2682,21654,0,0,0
39867,2662,21616,0,0,0
39832,2631,21577,0,0,0
39791,2594,21535,0,0,0
39752,2559,21494,0,0,0
39714,2531,21452,0,0,0
39677,2503,21406,0,0,0
39650,2476,21359,0,0,0
39632,2454,21311,0,0,0
39615,2434,21270,0,0,0
39593,2409,21235,0,0,0
39562,2378,21196,0,0,0
39529,2344,21148,0,0,0
39495,2307,21092,0,0,0
39456,2264,21033,0,0,0
39419,2224,20982,0,0,0
39385,2192,20937,0,0,0
39350,2162,20892,0,0,0
39314,2126,20846,0,0,0
39280,2088,20797,0,0,0
39249,2058,20745,0,0,0
39222,2032,20693,0,0,0
39198,2006,20646,0,0,0
39184,1989,20612,0,0,0
39184,1989,20596,0,0,0
39198,2005,20604,0,0,0
39234,2045,20643,0,0,0
39299,2114,20721,0,0,0
39395,2218,20845,0,0,0
39531,2361,21024,0,0,0
39715,2553,21271,0,0,0
39947,2795,21586,0,0,0
40220,3080,21967,0,0,0
40529,3405,22415,0,0,0
40869,3765,22935,0,0,0
41237,4153,23524,0,0,0
41623,4557,24164,0,0,0
42014,4965,24830,0,0,0
42395,5363,25496,0,0,0
42753,5739,26136,0,0,0
43082,6078,26727,0,0,0
43376,6376,27257,0,0,0
43631,6634,27719,0,0,0
43846,6854,28107,0,0,0
44020,7037,28416,0,0,0
44154,7174,28643,0,0,0
44243,7261,28784,0,0,0
44286,7298,28842,0,0,0
44288,7290,28830,0,0,0
44254,7245,28761,0,0,0
44195,7175,28652,0,0,0
44117,7088,28512,0,0,0
44026,6986,28349,0,0,0
43925,6876,28178,0,0,0
43818,6764,28008,0,0,0
43713,6654,27845,0,0,0
43613,6551,27690,0,0,0
43518,6454,27548,0,0,0
43436,6368,27425,0,0,0
43372,6298,27320,0,0,0
43325,6245,27230,0,0,0
43295,6209,27162,0,0,0
43277,6185,27113,0,0,0
43261,6166,27073,0,0,0
43245,6144,27034,0,0,0
43227,6115,26991,0,0,0
43204,6080,26941,0,0,0
43174,6043,26879,0,0,0
43136,5997,26798,0,0,0
43086,5938,26697,0,0,0
43027,5867,26581,0,0,0
42959,5786,26447,0,0,0
42878,5693,26299,0,0,0
42782,5590,26135,0,0,0
42674,5478,25959,0,0,0
42561,5364,25781,0,0,0
42453,5255,25613,0,0,0
42355,5157,25459,0,0,0
42266,5068,25318,0,0,0
42185,4983,25185,0,0,0
42109,4904,25064,0,0,0
42033,4831,24956,0,0,0
41965,4769,24860,0,0,0
41907,4721,24778,0,0,0
41860,4682,24715,0,0,0
41828,4658,24674,0,0,0
41812,4648,24653,0,0,0
41805,4644,24646,0,0,0
41797,4643,24646,0,0,0
41791,4644,24654,0,0,0
41794,4649,24667,0,0,0
41807,4658,24684,0,0,0
41826,4673,24700,0,0,0
41848,4693,24711,0,0,0
41871,4712,24716,0,0,0
41887,4719,24708,0,0,0
41894,4712,24688,0,0,0
41892,4695,24659,0,0,0
41878,4673,24625,0,0,0
41854,4646,24584,0,0,0
41820,4612,24535,0,0,0
41782,4578,24486,0,0,0
41747,4545,24432,0,0,0
41709,4505,24366,0,0,0
41662,4456,24291,0,0,0
41612,4403,24213,0,0,0
41560,4350,24129,0,0,0
41501,4293,24040,0,0,0
41434,4231,23948,0,0,0
41363,4165,23856,0,0,0
41293,4096,23760,0,0,0
41223,4023,23657,0,0,0
41150,3950,23552,0,0,0
41076,3878,23453,0,0,0
41004,3808,23361,0,0,0
40934,3739,23271,0,0,0
40866,3669,23179,0,0,0
40804,3604,23089,0,0,0
40747,3544,22998,0,0,0
40690,3482,22907,0,0,0
40635,3420,22820,0,0,0
40582,3363,22738,0,0,0
40530,3310,22659,0,0,0
40477,3261,22584,0,0,0
40428,3220,22517,0,0,0
40385,3180,22453,0,0,0
40338,3133,22384,0,0,0
40291,3083,22319,0,0,0
40251,3038,22262,0,0,0
40217,3001,22206,0,0,0
40190,2971,22157,0,0,0
40169,2948,22120,0,0,0
40148,2927,22087,0,0,0
40128,2908,22056,0,0,0
40112,2891,22020,0,0,0
40094,2870,21977,0,0,0
40077,2848,21931,0,0,0
40057,2829,21887,0,0,0
40036,2810,21842,0,0,0
40012,2789,21796,0,0,0
39989,2767,21752,0,0,0
39966,2746,21712,0,0,0
39939,2719,21667,0,0,0
39903,2679,21616,0,0,0
39862,2634,21562,0,0,0
39824,2591,21505,0,0,0
39788,2548,21441,0,0,0
39750,2504,21372,0,0,0
39714,2463,21310,0,0,0
39685,2431,21259,0,0,0
39665,2410,21223,0,0,0
39648,2394,21200,0,0,0
39634,2385,21192,0,0,0
39635,2390,21202,0,0,0
39656,2415,21234,0,0,0
39698,2463,21289,0,0,0
39769,2539,21375,0,0,0
39873,2649,21508,0,0,0
40017,2801,21703,0,0,0
40208,3002,21964,0,0,0
40445,3251,22289,0,0,0
40721,3539,22678,0,0,0
41028,3859,23135,0,0,0
41360,4208,23658,0,0,0
41709,4582,24238,0,0,0
42067,4966,24854,0,0,0
42423,5345,25480,0,0,0
42769,5712,26099,0,0,0
43094,6054,26684,0,0,0
43384,6357,27213,0,0,0
43636,6616,27673,0,0,0
43847,6828,28054,0,0,0
44008,6986,28343,0,0,0
44116,7091,28537,0,0,0
44181,7147,28644,0,0,0
44211,7165,28678,0,0,0
44212,7148,28652,0,0,0
44183,7098,28572,0,0,0
44124,7016,28445,0,0,0
44039,6911,28278,0,0,0
43932,6786,28079,0,0,0
43806,6647,27863,0,0,0
43668,6502,27642,0,0,0
43530,6361,27424,0,0,0
43401,6232,27215,0,0,0
43286,6118,27023,0,0,0
43189,6021,26856,0,0,0
43104,5940,26715,0,0,0
43030,5870,26595,0,0,0
42963,5806,26493,0,0,0
42900,5744,26404,0,0,0
42837,5680,26320,0,0,0
42775,5618,26240,0,0,0
42716,5559,26166,0,0,0
42666,5507,26095,0,0,0
42625,5461,26021,0,0,0
42588,5419,25945,0,0,0
42545,5373,25862,0,0,0
42492,5320,25766,0,0,0
42432,5262,25658,0,0,0
42365,5197,25538,0,0,0
42292,5128,25410,0,0,0
42219,5057,25283,0,0,0
42149,4984,25160,0,0,0
42083,4911,25042,0,0,0
42018,4837,24930,0,0,0
41950,4760,24818,0,0,0
41886,4685,24710,0,0,0
41831,4621,24618,0,0,0
41787,4571,24549,0,0,0
41761,4539,24500,0,0,0
41750,4521,24468,0,0,0
41751,4515,24454,0,0,0
41761,4523,24459,0,0,0
41778,4541,24481,0,0,0
41804,4567,24520,0,0,0
41835,4596,24571,0,0,0
41862,4623,24618,0,0,0
41887,4649,24655,0,0,0
41911,4675,24687,0,0,0
41932,4700,24718,0,0,0
41948,4723,24746,0,0,0
41960,4746,24768,0,0,0
41970,4765,24785,0,0,0
41973,4775,24795,0,0,0
41964,4775,24797,0,0,0
41946,4764,24785,0,0,0
41918,4739,24756,0,0,0
41887,4707,24710,0,0,0
41858,4677,24654,0,0,0
41828,4648,24587,0,0,0
41791,4610,24510,0,0,0
41745,4561,24428,0,0,0
41688,4507,24345,0,0,0
41623,4448,24258,0,0,0
41554,4383,24166,0,0,0
41483,4313,24070,0,0,0
41413,4239,23969,0,0,0
41348,4166,23867,0,0,0
41290,4093,23763,0,0,0
41233,4022,23663,0,0,0
41173,3953,23566,0,0,0
41107,3886,23474,0,0,0
41044,3821,23387,0,0,0
40985,3761,23303,0,0,0
40928,3702,23216,0,0,0
40870,3639,23118,0,0,0
40810,3571,23011,0,0,0
40749,3504,22905,0,0,0
40694,3440,22804,0,0,0
40645,3381,22713,0,0,0
40601,3327,22635,0,0,0
40559,3278,22566,0,0,0
40515,3230,22501,0,0,0
40465,3181,22433,0,0,0
40411,3134,22369,0,0,0
40359,3090,22309,0,0,0
40315,3052,22251,0,0,0
40281,3019,22192,0,0,0
40255,2991,22138,0,0,0
40233,2967,22091,0,0,0
40214,2940,22047,0,0,0
40190,2910,22002,0,0,0
40160,2875,21957,0,0,0
40123,2838,21909,0,0,0
40083,2802,21860,0,0,0
40040,2763,21806,0,0,0
39991,2718,21742,0,0,0
39938,2669,21674,0,0,0
39886,2622,21610,0,0,0
39831,2575,21546,0,0,0
39779,2528,21480,0,0,0
39737,2486,21419,0,0,0
39707,2454,21364,0,0,0
39688,2431,21315,0,0,0
39676,2415,21271,0,0,0
39676,2410,21242,0,0,0
39690,2422,21239,0,0,0
39722,2453,21273,0,0,0
39780,2510,21353,0,0,0
39874,2610,21489,0,0,0
40007,2756,21686,0,0,0
40177,2944,21943,0,0,0
40389,3177,22260,0,0,0
40651,3462,22651,0,0,0
40960,3797,23130,0,0,0
41312,4176,23699,0,0,0
41701,4588,24341,0,0,0
42112,5022,25030,0,0,0
42533,5460,25742,0,0,0
42949,5888,26453,0,0,0
43345,6298,27142,0,0,0
43712,6677,27789,0,0,0
44039,7014,28367,0,0,0
44320,7300,28860,0,0,0
44553,7533,29263,0,0,0
44733,7708,29569,0,0,0
44861,7827,29777,0,0,0
44943,7898,29899,0,0,0
44987,7928,29946,0,0,0
44994,7925,29933,0,0,0
44966,7889,29869,0,0,0
44912,7825,29761,0,0,0
44835,7740,29618,0,0,0
44742,7642,29452,0,0,0
44644,7538,29274,0,0,0
44545,7430,29092,0,0,0
44445,7321,28914,0,0,0
44349,7219,28753,0,0,0
44264,7128,28610,0,0,0
44187,7045,28480,0,0,0
44120,6975,28363,0,0,0
44064,6917,28262,0,0,0
44013,6866,28174,0,0,0
43962,6817,28100,0,0,0
43917,6774,28036,0,0,0
43882,6738,27976,0,0,0
43848,6701,27916,0,0,0
43809,6657,27851,0,0,0
43759,6607,27773,0,0,0
43697,6546,27681,0,0,0
43625,6472,27568,0,0,0
43547,6383,27435,0,0,0
43461,6285,27286,0,0,0
43364,6176,27120,0,0,0
43259,6061,26949,0,0,0
43155,5948,26782,0,0,0
43055,5841,26617,0,0,0
42954,5740,26451,0,0,0
42854,5642,26285,0,0,0
42762,5553,26127,0,0,0
42681,5473,25985,0,0,0
42607,5400,25854,0,0,0
42537,5332,25736,0,0,0
42475,5269,25633,0,0,0
42423,5213,25549,0,0,0
42384,5172,25488,0,0,0
42360,5149,25450,0,0,0
42351,5141,25427,0,0,0
42354,5140,25414,0,0,0
42365,5145,25414,0,0,0
42380,5154,25424,0,0,0
42397,5169,25443,0,0,0
42417,5191,25470,0,0,0
42437,5212,25495,0,0,0
42455,5230,25513,0,0,0
42476,5248,25526,0,0,0
42497,5264,25534,0,0,0
42512,5274,25531,0,0,0
42520,5281,25522,0,0,0
42517,5280,25507,0,0,0
42497,5266,25482,0,0,0
42461,5241,25448,0,0,0
42415,5206,25405,0,0,0
42365,5164,25344,0,0,0
42315,5117,25269,0,0,0
42264,5066,25186,0,0,0
42212,5009,25099,0,0,0
42159,4951,25010,0,0,0
42103,4893,24919,0,0,0
42044,4830,24821,0,0,0
41978,4757,24716,0,0,0
41900,4671,24603,0,0,0
41816,4577,24480,0,0,0
41736,4483,24354,0,0,0
41659,4394,24233,0,0,0
41588,4315,24122,0,0,0
41523,4246,24018,0,0,0
41464,4185,23918,0,0,0
41413,4130,23825,0,0,0
41367,4076,23736,0,0,0
41322,4023,23647,0,0,0
41279,3971,23561,0,0,0
41238,3920,23479,0,0,0
41198,3870,23405,0,0,0
41160,3823,23336,0,0,0
41123,3781,23273,0,0,0
41089,3744,23217,0,0,0
41057,3714,23163,0,0,0
41023,3691,23111,0,0,0
40988,3666,23061,0,0,0
40949,3636,23009,0,0,0
40905,3605,22962,0,0,0
40858,3570,22917,0,0,0
40814,3532,22872,0,0,0
40778,3500,22831,0,0,0
40753,3478,22797,0,0,0
40736,3461,22768,0,0,0
40722,3442,22739,0,0,0
40707,3421,22710,0,0,0
40690,3398,22678,0,0,0
40673,3373,22642,0,0,0
40651,3346,22599,0,0,0
40623,3313,22548,0,0,0
40591,3279,22490,0,0,0
40555,3246,22432,0,0,0
40518,3212,22376,0,0,0
40482,3177,22322,0,0,0
40446,3140,22264,0,0,0
40407,3101,22200,0,0,0
40368,3063,22136,0,0,0
40338,3031,22078,0,0,0
40318,3009,22030,0,0,0
40310,2995,21996,0,0,0
40312,2991,21983,0,0,0
40326,3005,22000,0,0,0
40363,3047,22051,0,0,0
40428,3120,22140,0,0,0
40523,3226,22276,0,0,0
40653,3370,22466,0,0,0
40828,3560,22720,0,0,0
41053,3801,23056,0,0,0
41332,4095,23483,0,0,0
41664,4442,24009,0,0,0
42035,4834,24627,0,0,0
42435,5257,25321,0,0,0
42856,5696,26069,0,0,0
43287,6147,26844,0,0,0
43720,6598,27613,0,0,0
44139,7030,28340,0,0,0
44532,7431,29006,0,0,0
44887,7793,29595,0,0,0
45193,8107,30098,0,0,0
45449,8366,30508,0,0,0
45660,8573,30832,0,0,0
45823,8728,31071,0,0,0
45937,8830,31232,0,0,0
46002,8881,31320,0,0,0
46023,8886,31339,0,0,0
46011,8859,31299,0,0,0
45973,8808,31212,0,0,0
45909,8735,31093,0,0,0
45823,8641,30950,0,0,0
45723,8534,30790,0,0,0
45615,8417,30618,0,0,0
45502,8297,30443,0,0,0
45391,8181,30275,0,0,0
45295,8080,30122,0,0,0
45214,7993,29989,0,0,0
45140,7912,29873,0,0,0
45071,7836,29769,0,0,0
45011,7769,29680,0,0,0
44963,7714,29607,0,0,0
44925,7672,29550,0,0,0
44889,7635,29498,0,0,0
44846,7596,29444,0,0,0
44798,7553,29383,0,0,0
44743,7499,29304,0,0,0
44684,7439,29207,0,0,0
44621,7373,29092,0,0,0
44541,7291,28951,0,0,0
44438,7185,28778,0,0,0
44320,7059,28576,0,0,0
44192,6918,28349,0,0,0
44055,6767,28106,0,0,0
43912,6609,27856,0,0,0
43764,6448,27607,0,0,0
43618,6292,27366,0,0,0
43477,6145,27141,0,0,0
43341,6008,26936,0,0,0
43216,5886,26750,0,0,0
43112,5784,26581,0,0,0
43026,5698,26430,0,0,0
42955,5626,26298,0,0,0
42899,5571,26190,0,0,0
42863,5532,26110,0,0,0
42842,5502,26052,0,0,0
42825,5476,26007,0,0,0
42814,5461,25978,0,0,0
42808,5452,25962,0,0,0
42800,5445,25953,0,0,0
42795,5441,25949,0,0,0
42800,5444,25952,0,0,0
42808,5452,25962,0,0,0
42814,5461,25977,0,0,0
42822,5472,25992,0,0,0
42831,5480,26003,0,0,0
42830,5480,26002,0,0,0
42817,5467,25988,0,0,0
42797,5445,25960,0,0,0
42770,5416,25915,0,0,0
42735,5378,25855,0,0,0
42692,5333,25780,0,0,0
42644,5286,25696,0,0,0
42587,5235,25603,0,0,0
42520,5172,25502,0,0,0
42449,5101,25396,0,0,0
42377,5028,25286,0,0,0
42303,4953,25176,0,0,0
42226,4876,25063,0,0,0
42148,4798,24949,0,0,0
42074,4725,24836,0,0,0
42005,4657,24724,0,0,0
41942,4590,24609,0,0,0
41885,4524,24493,0,0,0
41824,4455,24379,0,0,0
41756,4379,24263,0,0,0
41678,4294,24147,0,0,0
41594,4205,24035,0,0,0
41516,4122,23928,0,0,0
41446,4047,23826,0,0,0
41379,3975,23727,0,0,0
41312,3904,23634,0,0,0
41249,3837,23548,0,0,0
41192,3778,23466,0,0,0
41145,3733,23391,0,0,0
41106,3700,23327,0,0,0
41072,3674,23271,0,0,0
41036,3649,23218,0,0,0
40998,3622,23169,0,0,0
40960,3592,23120,0,0,0
40931,3566,23073,0,0,0
40911,3544,23033,0,0,0
40898,3522,22995,0,0,0
40890,3503,22958,0,0,0
40881,3487,22923,0,0,0
40864,3468,22884,0,0,0
40842,3444,22844,0,0,0
40820,3418,22804,0,0,0
40794,3393,22763,0,0,0
40762,3365,22718,0,0,0
40730,3335,22669,0,0,0
40701,3310,22622,0,0,0
40675,3290,22576,0,0,0
40648,3267,22527,0,0,0
40615,3237,22477,0,0,0
40574,3200,22425,0,0,0
40526,3154,22364,0,0,0
40473,3100,22292,0,0,0
40417,3042,22215,0,0,0
40364,2986,22144,0,0,0
40315,2933,22077,0,0,0
40272,2884,22011,0,0,0
40239,2847,21949,0,0,0
40219,2827,21900,0,0,0
40211,2821,21864,0,0,0
40214,2829,21850,0,0,0
40236,2858,21869,0,0,0
40285,2918,21932,0,0,0
40367,3011,22050,0,0,0
40488,3144,22228,0,0,0
40659,3324,22469,0,0,0
40878,3553,22777,0,0,0
41144,3833,23162,0,0,0
41464,4168,23641,0,0,0
41836,4556,24224,0,0,0
42248,4986,24904,0,0,0
42694,5454,25664,0,0,0
43162,5948,26473,0,0,0
43635,6446,27297,0,0,0
44094,6925,28097,0,0,0
44525,7370,28841,0,0,0
44917,7771,29509,0,0,0
45262,8117,30084,0,0,0
45557,8405,30557,0,0,0
45800,8633,30929,0,0,0
45987,8802,31204,0,0,0
46118,8915,31391,0,0,0
46199,8976,31494,0,0,0
46227,8987,31521,0,0,0
46206,8955,31485,0,0,0
46141,8886,31394,0,0,0
46041,8785,31253,0,0,0
45916,8657,31068,0,0,0
45776,8511,30856,0,0,0
45636,8365,30634,0,0,0
45506,8225,30414,0,0,0
45384,8091,30202,0,0,0
45267,7965,30010,0,0,0
45159,7856,29845,0,0,0
45066,7768,29703,0,0,0
44986,7696,29583,0,0,0
44923,7641,29486,0,0,0
44874,7597,29408,0,0,0
44831,7558,29336,0,0,0
44789,7515,29261,0,0,0
44746,7470,29178,0,0,0
44699,7421,29089,0,0,0
44645,7365,28992,0,0,0
44580,7296,28880,0,0,0
44506,7217,28754,0,0,0
44426,7127,28609,0,0,0
44334,7023,28440,0,0,0
44229,6906,28255,0,0,0
44110,6780,28061,0,0,0
43979,6650,27855,0,0,0
43843,6519,27640,0,0,0
43707,6387,27422,0,0,0
43570,6254,27206,0,0,0
43437,6126,27003,0,0,0
43312,6002,26817,0,0,0
43196,5884,26646,0,0,0
43094,5776,26493,0,0,0
43007,5685,26359,0,0,0
42937,5609,26246,0,0,0
42884,5547,26153,0,0,0
42843,5498,26078,0,0,0
42815,5466,26024,0,0,0
42798,5446,25988,0,0,0
42786,5432,25961,0,0,0
42778,5423,25938,0,0,0
42775,5419,25918,0,0,0
42778,5419,25904,0,0,0
42781,5418,25896,0,0,0
42790,5423,25895,0,0,0
42803,5432,25898,0,0,0
42808,5436,25900,0,0,0
42809,5435,25903,0,0,0
42811,5435,25907,0,0,0
42812,5434,25909,0,0,0
42809,5432,25903,0,0,0
42799,5426,25887,0,0,0
42776,5410,25856,0,0,0
42741,5381,25809,0,0,0
42693,5340,25746,0,0,0
42630,5286,25670,0,0,0
42558,5217,25579,0,0,0
42483,5142,25475,0,0,0
42414,5069,25367,0,0,0
42353,5002,25260,0,0,0
42295,4938,25153,0,0,0
42233,4871,25042,0,0,0
42166,4796,24929,0,0,0
42097,4716,24814,0,0,0
42025,4635,24695,0,0,0
41952,4556,24571,0,0,0
41880,4477,24447,0,0,0
41805,4395,24324,0,0,0
41728,4314,24204,0,0,0
41658,4240,24091,0,0,0
41597,4173,23987,0,0,0
41546,4117,23894,0,0,0
41502,4071,23813,0,0,0
41458,4030,23742,0,0,0
41412,3986,23677,0,0,0
41366,3940,23615,0,0,0
41320,3901,23554,0,0,0
41276,3866,23496,0,0,0
41233,3830,23440,0,0,0
41192,3796,23384,0,0,0
41154,3768,23330,0,0,0
41123,3744,23279,0,0,0
41099,3722,23230,0,0,0
41080,3704,23186,0,0,0
41060,3686,23144,0,0,0
41039,3665,23101,0,0,0
41017,3640,23059,0,0,0
40990,3611,23017,0,0,0
40959,3581,22976,0,0,0
40922,3548,22933,0,0,0
40878,3506,22885,0,0,0
40837,3460,22828,0,0,0
40805,3423,22770,0,0,0
40782,3397,22721,0,0,0
40766,3378,22681,0,0,0
40751,3360,22643,0,0,0
40734,3342,22605,0,0,0
40712,3325,22569,0,0,0
40686,3310,22538,0,0,0
40665,3300,22518,0,0,0
40651,3293,22509,0,0,0
40642,3292,22512,0,0,0
40648,3307,22533,0,0,0
40679,3346,22578,0,0,0
40744,3413,22659,0,0,0
40852,3520,22790,0,0,0
41005,3673,22982,0,0,0
41204,3876,23243,0,0,0
41449,4131,23591,0,0,0
41743,4439,24041,0,0,0
42085,4797,24590,0,0,0
42472,5202,25232,0,0,0
42896,5647,25952,0,0,0
43346,6118,26725,0,0,0
43805,6600,27524,0,0,0
44259,7075,28315,0,0,0
44693,7521,29062,0,0,0
45097,7923,29737,0,0,0
45462,8274,30324,0,0,0
45778,8574,30819,0,0,0
46038,8817,31220,0,0,0
46235,8998,31525,0,0,0
46374,9121,31731,0,0,0
46456,9187,31836,0,0,0
46481,9197,31846,0,0,0
46452,9154,31774,0,0,0
46381,9068,31636,0,0,0
46278,8951,31452,0,0,0
46145,8804,31226,0,0,0
45990,8635,30966,0,0,0
45824,8459,30689,0,0,0
45652,8281,30405,0,0,0
45476,8105,30123,0,0,0
45305,7935,29852,0,0,0
45148,7776,29599,0,0,0
45005,7632,29367,0,0,0
44869,7496,29153,0,0,0
44730,7364,28955,0,0,0
44593,7235,28772,0,0,0
44465,7115,28601,0,0,0
44352,7007,28439,0,0,0
44250,6904,28282,0,0,0
44154,6802,28125,0,0,0
44062,6699,27963,0,0,0
43973,6596,27802,0,0,0
43880,6492,27641,0,0,0
43777,6381,27476,0,0,0
43661,6263,27302,0,0,0
43536,6141,27122,0,0,0
43410,6020,26938,0,0,0
43288,5903,26754,0,0,0
43171,5789,26573,0,0,0
43060,5674,26398,0,0,0
42960,5563,26231,0,0,0
42877,5466,26073,0,0,0
42807,5388,25933,0,0,0
42746,5325,25812,0,0,0
42694,5272,25710,0,0,0
42655,5230,25632,0,0,0
42616,5196,25571,0,0,0
42578,5162,25523,0,0,0
42545,5135,25485,0,0,0
42523,5121,25460,0,0,0
42507,5115,25446,0,0,0
42499,5113,25440,0,0,0
42500,5118,25442,0,0,0
42510,5130,25448,0,0,0
42525,5147,25460,0,0,0
42544,5166,25479,0,0,0
42557,5180,25497,0,0,0
42562,5183,25505,0,0,0
42562,5176,25506,0,0,0
42557,5161,25504,0,0,0
42545,5139,25497,0,0,0
42526,5115,25481,0,0,0
42502,5091,25455,0,0,0
42475,5064,25418,0,0,0
42439,5034,25370,0,0,0
42392,4992,25306,0,0,0
42334,4936,25226,0,0,0
42275,4873,25135,0,0,0
42213,4807,25034,0,0,0
42142,4737,24926,0,0,0
42065,4664,24814,0,0,0
41990,4589,24702,0,0,0
41919,4518,24590,0,0,0
41851,4450,24479,0,0,0
41780,4376,24370,0,0,0
41708,4298,24266,0,0,0
41644,4227,24164,0,0,0
41584,4163,24066,0,0,0
41521,4099,23971,0,0,0
41453,4033,23876,0,0,0
41387,3969,23778,0,0,0
41325,3908,23677,0,0,0
41270,3852,23583,0,0,0
41226,3806,23502,0,0,0
41189,3766,23428,0,0,0
41152,3731,23363,0,0,0
41112,3694,23306,0,0,0
41072,3657,23250,0,0,0
41040,3626,23197,0,0,0
41013,3598,23148,0,0,0
40984,3567,23102,0,0,0
40953,3538,23058,0,0,0
40916,3508,23013,0,0,0
40875,3474,22966,0,0,0
40835,3441,22918,0,0,0
40800,3413,22871,0,0,0
40770,3390,22825,0,0,0
40743,3368,22781,0,0,0
40715,3344,22737,0,0,0
40685,3318,22692,0,0,0
40653,3287,22644,0,0,0
40621,3252,22595,0,0,0
40592,3217,22548,0,0,0
40567,3184,22506,0,0,0
40545,3154,22464,0,0,0
40522,3125,22419,0,0,0
40495,3095,22373,0,0,0
40466,3066,22331,0,0,0
40441,3042,22292,0,0,0
40420,3024,22261,0,0,0
40407,3017,22245,0,0,0
40410,3027,22253,0,0,0
40440,3061,22294,0,0,0
40507,3129,22382,0,0,0
40623,3247,22534,0,0,0
40792,3423,22762,0,0,0
41019,3659,23079,0,0,0
41308,3959,23501,0,0,0
41657,4322,24038,0,0,0
42056,4743,24685,0,0,0
42497,5211,25431,0,0,0
42979,5715,26255,0,0,0
43491,6245,27128,0,0,0
44014,6778,28005,0,0,0
44525,7294,28848,0,0,0
45005,7777,29630,0,0,0
45437,8209,30327,0,0,0
45813,8581,30928,0,0,0
46125,8888,31428,0,0,0
46365,9124,31818,0,0,0
46536,9289,32099,0,0,0
46647,9391,32276,0,0,0
46705,9438,32360,0,0,0
46721,9439,32367,0,0,0
46698,9400,32306,0,0,0
46640,9327,32185,0,0,0
46550,9223,32016,0,0,0
46435,9096,31810,0,0,0
46306,8957,31581,0,0,0
46169,8814,31342,0,0,0
46028,8672,31107,0,0,0
45888,8531,30882,0,0,0
45753,8395,30667,0,0,0
45624,8266,30466,0,0,0
45503,8146,30285,0,0,0
45391,8035,30119,0,0,0
45288,7931,29966,0,0,0
45192,7835,29827,0,0,0
45102,7745,29701,0,0,0
45025,7662,29584,0,0,0
44959,7590,29477,0,0,0
44892,7520,29377,0,0,0
44819,7448,29272,0,0,0
44741,7374,29155,0,0,0
44655,7292,29022,0,0,0
44551,7190,28861,0,0,0
44429,7065,28668,0,0,0
44299,6929,28453,0,0,0
44168,6790,28224,0,0,0
44034,6651,27987,0,0,0
43894,6511,27750,0,0,0
43754,6371,27515,0,0,0
43620,6234,27287,0,0,0
43490,6101,27069,0,0,0
43360,5971,26863,0,0,0
43236,5849,26674,0,0,0
43124,5737,26502,0,0,0
43033,5644,26348,0,0,0
42964,5573,26221,0,0,0
42910,5517,26122,0,0,0
42870,5476,26048,0,0,0
42848,5449,25998,0,0,0
42835,5432,25966,0,0,0
42826,5421,25949,0,0,0
42826,5419,25946,0,0,0
42839,5426,25957,0,0,0
42860,5437,25981,0,0,0
42881,5451,26010,0,0,0
42904,5469,26039,0,0,0
42921,5486,26062,0,0,0
42926,5496,26076,0,0,0
42925,5503,26083,0,0,0
42919,5505,26077,0,0,0
42903,5499,26060,0,0,0
42877,5481,26031,0,0,0
42845,5454,25992,0,0,0
42808,5421,25940,0,0,0
42763,5379,25877,0,0,0
42711,5329,25805,0,0,0
42658,5274,25721,0,0,0
42600,5211,25624,0,0,0
42533,5138,25517,0,0,0
42459,5056,25406,0,0,0
42387,4975,25293,0,0,0
42320,4898,25179,0,0,0
42250,4821,25065,0,0,0
42178,4746,24953,0,0,0
42108,4676,24845,0,0,0
42039,4606,24740,0,0,0
41963,4533,24632,0,0,0
41888,4461,24522,0,0,0
41822,4396,24418,0,0,0
41763,4336,24319,0,0,0
41703,4275,24224,0,0,0
41643,4211,24129,0,0,0
41583,4150,24035,0,0,0
41521,4089,23944,0,0,0
41457,4026,23853,0,0,0
41402,3970,23767,0,0,0
41354,3924,23688,0,0,0
41312,3885,23616,0,0,0
41274,3849,23552,0,0,0
41239,3813,23496,0,0,0
41203,3778,23445,0,0,0
41166,3742,23398,0,0,0
41126,3703,23354,0,0,0
41087,3666,23310,0,0,0
41050,3631,23259,0,0,0
41019,3600,23207,0,0,0
40997,3578,23158,0,0,0
40981,3563,23110,0,0,0
40967,3550,23062,0,0,0
40955,3536,23017,0,0,0
40944,3522,22978,0,0,0
40937,3511,22942,0,0,0
40927,3502,22907,0,0,0
40907,3483,22870,0,0,0
40877,3452,22830,0,0,0
40839,3416,22786,0,0,0
40799,3379,22738,0,0,0
40758,3339,22688,0,0,0
40716,3294,22634,0,0,0
40676,3250,22579,0,0,0
40638,3210,22527,0,0,0
40599,3168,22477,0,0,0
40559,3128,22431,0,0,0
40523,3092,22386,0,0,0
40492,3063,22345,0,0,0
40471,3042,22315,0,0,0
40460,3033,22301,0,0,0
40470,3050,22314,0,0,0
40516,3102,22367,0,0,0
40608,3196,22476,0,0,0
40747,3339,22653,0,0,0
40931,3532,22900,0,0,0
41159,3772,23223,0,0,0
41441,4067,23646,0,0,0
41782,4425,24189,0,0,0
42177,4842,24848,0,0,0
42623,5314,25611,0,0,0
43114,5834,26460,0,0,0
43635,6385,27359,0,0,0
44168,6945,28269,0,0,0
44696,7491,29153,0,0,0
45203,8005,29982,0,0,0
45674,8475,30735,0,0,0
46095,8887,31392,0,0,0
46451,9231,31936,0,0,0
46738,9503,32362,0,0,0
46960,9708,32680,0,0,0
47122,9853,32897,0,0,0
47220,9934,33019,0,0,0
47254,9953,33050,0,0,0
47234,9922,33008,0,0,0
47176,9859,32912,0,0,0
47093,9770,32776,0,0,0
46990,9658,32614,0,0,0
46869,9531,32431,0,0,0
46735,9394,32231,0,0,0
46597,9255,32026,0,0,0
46464,9123,31826,0,0,0
46342,9001,31640,0,0,0
46230,8889,31469,0,0,0
46130,8787,31318,0,0,0
46042,8697,31188,0,0,0
45961,8614,31072,0,0,0
45884,8534,30965,0,0,0
45815,8460,30867,0,0,0
45751,8391,30772,0,0,0
45687,8326,30675,0,0,0
45627,8266,30578,0,0,0
45564,8199,30473,0,0,0
45494,8123,30350,0,0,0
45419,8040,30203,0,0,0
45333,7945,30029,0,0,0
45228,7829,29825,0,0,0
45095,7687,29589,0,0,0
44938,7519,29325,0,0,0
44763,7336,29041,0,0,0
44571,7142,28740,0,0,0
44372,6944,28433,0,0,0
44178,6751,28133,0,0,0
43992,6563,27846,0,0,0
43819,6388,27578,0,0,0
43665,6234,27334,0,0,0
43536,6102,27112,0,0,0
43427,5987,26914,0,0,0
43336,5891,26746,0,0,0
43258,5811,26609,0,0,0
43189,5742,26493,0,0,0
43129,5682,26397,0,0,0
43079,5634,26321,0,0,0
43045,5599,26264,0,0,0
43025,5576,26224,0,0,0
43016,5562,26202,0,0,0
43021,5560,26200,0,0,0
43035,5571,26215,0,0,0
43054,5593,26240,0,0,0
43076,5622,26270,0,0,0
43098,5654,26299,0,0,0
43116,5681,26322,0,0,0
43124,5697,26332,0,0,0
43120,5700,26328,0,0,0
43108,5695,26313,0,0,0
43094,5686,26286,0,0,0
43076,5669,26248,0,0,0
43046,5639,26199,0,0,0
43003,5600,26141,0,0,0
42957,5558,26070,0,0,0
42907,5508,25985,0,0,0
42848,5448,25889,0,0,0
42779,5377,25784,0,0,0
42701,5302,25671,0,0,0
42624,5226,25557,0,0,0
42552,5155,25449,0,0,0
42488,5089,25345,0,0,0
42428,5025,25241,0,0,0
42364,4957,25136,0,0,0
42294,4883,25032,0,0,0
42221,4806,24924,0,0,0
42141,4723,24809,0,0,0
42057,4636,24690,0,0,0
41980,4553,24574,0,0,0
41911,4475,24465,0,0,0
41849,4402,24360,0,0,0
41793,4335,24260,0,0,0
41743,4275,24169,0,0,0
41695,4222,24087,0,0,0
41645,4171,24005,0,0,0
41588,4116,23918,0,0,0
41526,4056,23828,0,0,0
41463,3997,23740,0,0,0
41403,3938,23655,0,0,0
41342,3875,23568,0,0,0
41281,3815,23483,0,0,0
41227,3766,23406,0,0,0
41180,3726,23337,0,0,0
41136,3685,23268,0,0,0
41091,3641,23201,0,0,0
41047,3600,23134,0,0,0
41004,3559,23070,0,0,0
40961,3518,23013,0,0,0
40921,3478,22963,0,0,0
40885,3440,22913,0,0,0
40852,3404,22865,0,0,0
40821,3369,22821,0,0,0
40790,3336,22779,0,0,0
40759,3306,22735,0,0,0
40726,3274,22685,0,0,0
40690,3241,22633,0,0,0
40655,3208,22583,0,0,0
40623,3174,22530,0,0,0
40592,3135,22474,0,0,0
40557,3089,22416,0,0,0
40523,3044,22361,0,0,0
40489,3004,22305,0,0,0
40455,2972,22248,0,0,0
40427,2952,22198,0,0,0
40405,2942,22157,0,0,0
40389,2940,22124,0,0,0
40381,2945,22101,0,0,0
40386,2959,22096,0,0,0
40410,2989,22122,0,0,0
40465,3048,22189,0,0,0
40563,3145,22310,0,0,0
40709,3290,22497,0,0,0
40909,3492,22767,0,0,0
41165,3758,23133,0,0,0
41475,4083,23606,0,0,0
41837,4464,24190,0,0,0
42247,4898,24882,0,0,0
42697,5379,25659,0,0,0
43177,5888,26492,0,0,0
43668,6403,27344,0,0,0
44151,6907,28179,0,0,0
44616,7385,28968,0,0,0
45047,7819,29686,0,0,0
45434,8200,30316,0,0,0
45771,8526,30850,0,0,0
46046,8790,31279,0,0,0
46254,8983,31600,0,0,0
46397,9109,31815,0,0,0
46477,9173,31926,0,0,0
46495,9179,31938,0,0,0
46457,9129,31866,0,0,0
46378,9035,31724,0,0,0
46265,8906,31525,0,0,0
46121,8749,31286,0,0,0
45958,8570,31020,0,0,0
45784,8379,30738,0,0,0
45601,8183,30442,0,0,0
45411,7987,30138,0,0,0
45221,7795,29841,0,0,0
45044,7617,29566,0,0,0
44883,7452,29314,0,0,0
44736,7298,29083,0,0,0
44605,7159,28875,0,0,0
44489,7038,28691,0,0,0
44386,6932,28530,0,0,0
44293,6841,28392,0,0,0
44211,6762,28276,0,0,0
44139,6694,28173,0,0,0
44071,6632,28072,0,0,0
44003,6571,27966,0,0,0
43930,6504,27849,0,0,0
43849,6430,27718,0,0,0
43762,6347,27573,0,0,0
43664,6250,27413,0,0,0
43552,6140,27239,0,0,0
43437,6027,27060,0,0,0
43321,5913,26876,0,0,0
43203,5791,26688,0,0,0
43091,5670,26503,0,0,0
42986,5556,26328,0,0,0
42880,5446,26161,0,0,0
42777,5341,26003,0,0,0
42689,5249,25860,0,0,0
42624,5174,25736,0,0,0
42574,5110,25629,0,0,0
42536,5056,25540,0,0,0
42510,5021,25474,0,0,0
42497,5009,25431,0,0,0
42497,5012,25410,0,0,0
42500,5023,25409,0,0,0
42506,5035,25419,0,0,0
42513,5047,25432,0,0,0
42523,5060,25450,0,0,0
42532,5074,25470,0,0,0
42538,5086,25490,0,0,0
42540,5097,25504,0,0,0
42539,5105,25514,0,0,0
42535,5107,25517,0,0,0
42531,5106,25519,0,0,0
42532,5107,25521,0,0,0
42534,5105,25516,0,0,0
42530,5097,25503,0,0,0
42513,5079,25478,0,0,0
42482,5047,25437,0,0,0
42440,5001,25379,0,0,0
42384,4944,25308,0,0,0
42319,4881,25226,0,0,0
42253,4817,25135,0,0,0
42184,4745,25028,0,0,0
42109,4664,24907,0,0,0
42030,4580,24782,0,0,0
41955,4501,24662,0,0,0
41883,4425,24548,0,0,0
41814,4352,24440,0,0,0
41751,4286,24335,0,0,0
41690,4222,24231,0,0,0
41626,4157,24127,0,0,0
41560,4089,24021,0,0,0
41496,4022,23915,0,0,0
41437,3955,23810,0,0,0
41378,3887,23704,0,0,0
41319,3821,23601,0,0,0
41261,3760,23504,0,0,0
41199,3699,23413,0,0,0
41130,3633,23320,0,0,0
41060,3565,23227,0,0,0
40991,3499,23137,0,0,0
40919,3435,23051,0,0,0
40847,3374,22973,0,0,0
40785,3320,22903,0,0,0
40738,3276,22842,0,0,0
40701,3239,22787,0,0,0
40669,3208,22733,0,0,0
40646,3185,22684,0,0,0
40629,3168,22637,0,0,0
40613,3152,22588,0,0,0
40596,3136,22542,0,0,0
40578,3120,22502,0,0,0
40558,3103,22469,0,0,0
40534,3084,22437,0,0,0
40504,3060,22399,0,0,0
40470,3031,22358,0,0,0
40431,2997,22312,0,0,0
40391,2960,22265,0,0,0
40355,2925,22216,0,0,0
40326,2897,22166,0,0,0
40303,2874,22120,0,0,0
40286,2854,22081,0,0,0
40271,2835,22045,0,0,0
40256,2818,22013,0,0,0
40245,2808,21991,0,0,0
40245,2811,21990,0,0,0
40266,2837,22021,0,0,0
40322,2901,22104,0,0,0
40425,3014,22249,0,0,0
40581,3181,22464,0,0,0
40793,3401,22757,0,0,0
41056,3674,23135,0,0,0
41367,4001,23610,0,0,0
41731,4385,24191,0,0,0
42143,4820,24872,0,0,0
42591,5295,25631,0,0,0
43059,5797,26441,0,0,0
43528,6302,27262,0,0,0
43981,6785,28051,0,0,0
44404,7230,28776,0,0,0
44783,7620,29412,0,0,0
45102,7941,29946,0,0,0
45358,8189,30375,0,0,0
45560,8373,30698,0,0,0
45711,8497,30919,0,0,0
45803,8560,31039,0,0,0
45839,8567,31067,0,0,0
45828,8530,31016,0,0,0
45773,8451,30893,0,0,0
45680,8338,30713,0,0,0
45554,8199,30490,0,0,0
45401,8041,30236,0,0,0
45232,7866,29959,0,0,0
45050,7680,29670,0,0,0
44860,7488,29374,0,0,0
44669,7297,29078,0,0,0
44481,7107,28789,0,0,0
44302,6924,28515,0,0,0
44144,6760,28266,0,0,0
44006,6616,28047,0,0,0
43885,6492,27856,0,0,0
43782,6387,27692,0,0,0
43700,6303,27556,0,0,0
43632,6233,27438,0,0,0
43571,6171,27331,0,0,0
43510,6111,27227,0,0,0
43440,6045,27120,0,0,0
43360,5969,27004,0,0,0
43278,5888,26883,0,0,0
43197,5805,26757,0,0,0
43114,5721,26625,0,0,0
43029,5636,26485,0,0,0
42947,5551,26343,0,0,0
42867,5469,26202,0,0,0
42787,5389,26063,0,0,0
42706,5310,25927,0,0,0
42623,5229,25793,0,0,0
42539,5143,25665,0,0,0
42461,5058,25544,0,0,0
42391,4982,25438,0,0,0
42329,4918,25347,0,0,0
42283,4868,25273,0,0,0
42253,4836,25217,0,0,0
42234,4815,25178,0,0,0
42224,4800,25150,0,0,0
42224,4795,25136,0,0,0
42235,4803,25136,0,0,0
42257,4822,25147,0,0,0
42285,4846,25171,0,0,0
42312,4871,25202,0,0,0
42335,4896,25235,0,0,0
42353,4918,25264,0,0,0
42361,4933,25287,0,0,0
42358,4940,25304,0,0,0
42350,4944,25314,0,0,0
42341,4943,25316,0,0,0
42331,4938,25308,0,0,0
42320,4928,25288,0,0,0
42304,4912,25253,0,0,0
42281,4890,25207,0,0,0
42254,4866,25152,0,0,0
42222,4835,25089,0,0,0
42182,4789,25013,0,0,0
42137,4731,24926,0,0,0
42084,4663,24829,0,0,0
42019,4588,24727,0,0,0
41946,4515,24624,0,0,0
41874,4446,24522,0,0,0
41801,4376,24419,0,0,0
41728,4305,24314,0,0,0
41658,4236,24209,0,0,0
41588,4165,24104,0,0,0
41515,4090,23997,0,0,0
41444,4014,23889,0,0,0
41379,3943,23785,0,0,0
41319,3879,23689,0,0,0
41263,3822,23602,0,0,0
41218,3778,23525,0,0,0
41180,3742,23455,0,0,0
41141,3708,23388,0,0,0
41099,3672,23320,0,0,0
41056,3637,23253,0,0,0
41016,3600,23188,0,0,0
40976,3559,23125,0,0,0
40931,3513,23061,0,0,0
40885,3469,22999,0,0,0
40843,3430,22937,0,0,0
40802,3388,22874,0,0,0
40764,3342,22811,0,0,0
40730,3299,22747,0,0,0
40696,3258,22682,0,0,0
40666,3223,22620,0,0,0
40643,3196,22567,0,0,0
40624,3177,22525,0,0,0
40606,3161,22489,0,0,0
40588,3143,22457,0,0,0
40569,3121,22424,0,0,0
40544,3091,22387,0,0,0
40508,3053,22346,0,0,0
40463,3014,22300,0,0,0
40415,2973,22246,0,0,0
40368,2931,22190,0,0,0
40326,2895,22136,0,0,0
40292,2865,22085,0,0,0
40262,2835,22032,0,0,0
40235,2804,21980,0,0,0
40213,2777,21934,0,0,0
40196,2755,21898,0,0,0
40182,2738,21872,0,0,0
40180,2736,21863,0,0,0
40201,2758,21881,0,0,0
40246,2807,21933,0,0,0
40320,2891,22026,0,0,0
40429,3016,22172,0,0,0
40579,3184,22381,0,0,0
40777,3401,22665,0,0,0
41033,3679,23039,0,0,0
41351,4019,23518,0,0,0
41731,4422,24115,0,0,0
42166,4881,24826,0,0,0
42639,5381,25623,0,0,0
43132,5898,26472,0,0,0
43630,6416,27338,0,0,0
44120,6926,28189,0,0,0
44588,7413,28989,0,0,0
45016,7854,29712,0,0,0
45396,8238,30347,0,0,0
45721,8556,30878,0,0,0
45981,8806,31297,0,0,0
46178,8990,31605,0,0,0
46309,9108,31805,0,0,0
46378,9162,31907,0,0,0
46399,9161,31922,0,0,0
46378,9113,31863,0,0,0
46315,9026,31741,0,0,0
46223,8913,31574,0,0,0
46108,8782,31371,0,0,0
45976,8635,31141,0,0,0
45832,8480,30897,0,0,0
45683,8322,30649,0,0,0
45535,8169,30405,0,0,0
45388,8020,30172,0,0,0
45246,7878,29955,0,0,0
45120,7752,29763,0,0,0
45011,7644,29597,0,0,0
44916,7552,29454,0,0,0
44831,7472,29328,0,0,0
44751,7398,29212,0,0,0
44676,7329,29108,0,0,0
44608,7265,29014,0,0,0
44547,7207,28926,0,0,0
44491,7153,28835,0,0,0
44428,7094,28733,0,0,0
44350,7018,28612,0,0,0
44260,6927,28469,0,0,0
44165,6828,28306,0,0,0
44065,6719,28129,0,0,0
43956,6599,27942,0,0,0
43840,6473,27747,0,0,0
43723,6348,27548,0,0,0
43608,6226,27348,0,0,0
43495,6106,27152,0,0,0
43387,5992,26966,0,0,0
43287,5886,26792,0,0,0
43193,5791,26634,0,0,0
43100,5697,26486,0,0,0
43008,5603,26345,0,0,0
42920,5513,26217,0,0,0
42843,5435,26108,0,0,0
42781,5372,26020,0,0,0
42737,5323,25951,0,0,0
42712,5289,25896,0,0,0
42701,5270,25858,0,0,0
42701,5265,25838,0,0,0
42712,5273,25839,0,0,0
42730,5297,25858,0,0,0
42755,5332,25890,0,0,0
42788,5378,25931,0,0,0
42827,5427,25977,0,0,0
42860,5468,26018,0,0,0
42879,5494,26050,0,0,0
42884,5508,26072,0,0,0
42879,5514,26079,0,0,0
42867,5511,26066,0,0,0
42849,5498,26037,0,0,0
42827,5476,25996,0,0,0
42803,5449,25947,0,0,0
42775,5415,25886,0,0,0
42738,5369,25815,0,0,0
42691,5318,25739,0,0,0
42642,5271,25659,0,0,0
42596,5223,25577,0,0,0
42548,5172,25494,0,0,0
42496,5115,25408,0,0,0
42438,5055,25313,0,0,0
42372,4986,25211,0,0,0
42296,4906,25105,0,0,0
42219,4821,24999,0,0,0
42146,4741,24892,0,0,0
42077,4663,24783,0,0,0
42007,4582,24674,0,0,0
41937,4506,24569,0,0,0
41871,4439,24468,0,0,0
41814,4383,24378,0,0,0
41766,4334,24300,0,0,0
41726,4288,24228,0,0,0
41688,4246,24158,0,0,0
41649,4204,24087,0,0,0
41604,4160,24016,0,0,0
41553,4114,23943,0,0,0
41499,4066,23869,0,0,0
41450,4020,23800,0,0,0
41412,3980,23736,0,0,0
41386,3945,23674,0,0,0
41368,3915,23616,0,0,0
41351,3887,23562,0,0,0
41334,3860,23515,0,0,0
41317,3836,23471,0,0,0
41298,3810,23425,0,0,0
41268,3777,23369,0,0,0
41231,3740,23309,0,0,0
41195,3703,23253,0,0,0
41160,3669,23201,0,0,0
41124,3636,23151,0,0,0
41091,3602,23101,0,0,0
41061,3570,23052,0,0,0
41031,3539,23003,0,0,0
40998,3505,22954,0,0,0
40962,3468,22907,0,0,0
40924,3430,22857,0,0,0
40882,3389,22800,0,0,0
40832,3340,22736,0,0,0
40772,3281,22660,0,0,0
40707,3219,22580,0,0,0
40647,3167,22508,0,0,0
40598,3128,22448,0,0,0
40568,3100,22399,0,0,0
40553,3084,22360,0,0,0
40546,3076,22332,0,0,0
40543,3074,22316,0,0,0
40550,3085,22318,0,0,0
40576,3117,22344,0,0,0
40625,3173,22406,0,0,0
40704,3259,22517,0,0,0
40824,3388,22693,0,0,0
40994,3570,22940,0,0,0
41217,3806,23269,0,0,0
41497,4100,23697,0,0,0
41837,4456,24238,0,0,0
42233,4869,24886,0,0,0
42669,5327,25624,0,0,0
43129,5817,26427,0,0,0
43603,6321,27261,0,0,0
44076,6820,28084,0,0,0
44531,7296,28862,0,0,0
44953,7733,29572,0,0,0
45334,8119,30195,0,0,0
45661,8444,30717,0,0,0
45926,8700,31132,0,0,0
46127,8889,31441,0,0,0
46264,9013,31646,0,0,0
46341,9074,31751,0,0,0
46364,9083,31768,0,0,0
46338,9047,31714,0,0,0
46270,8969,31598,0,0,0
46169,8854,31427,0,0,0
46046,8716,31215,0,0,0
45909,8566,30980,0,0,0
45766,8411,30734,0,0,0
45620,8258,30484,0,0,0
45468,8100,30234,0,0,0
45313,7940,29986,0,0,0
45161,7785,29747,0,0,0
45020,7640,29526,0,0,0
44890,7506,29324,0,0,0
44777,7388,29142,0,0,0
44682,7292,28984,0,0,0
44605,7213,28848,0,0,0
44544,7148,28735,0,0,0
44494,7093,28641,0,0,0
44450,7048,28561,0,0,0
44400,7002,28479,0,0,0
44336,6946,28387,0,0,0
44264,6878,28281,0,0,0
44183,6797,28158,0,0,0
44090,6699,28013,0,0,0
43986,6586,27849,0,0,0
43875,6462,27670,0,0,0
43762,6333,27480,0,0,0
43644,6203,27287,0,0,0
43524,6072,27094,0,0,0
43408,5947,26907,0,0,0
43298,5831,26728,0,0,0
43190,5718,26553,0,0,0
43081,5607,26382,0,0,0
42975,5503,26223,0,0,0
42877,5409,26082,0,0,0
42795,5329,25965,0,0,0
42737,5270,25873,0,0,0
42700,5232,25806,0,0,0
42680,5214,25760,0,0,0
42668,5206,25728,0,0,0
42658,5204,25707,0,0,0
42654,5205,25695,0,0,0
42655,5209,25688,0,0,0
42656,5211,25681,0,0,0
42658,5209,25675,0,0,0
42661,5207,25672,0,0,0
42666,5209,25673,0,0,0
42671,5215,25677,0,0,0
42678,5223,25684,0,0,0
42684,5229,25688,0,0,0
42680,5226,25681,0,0,0
42666,5213,25662,0,0,0
42644,5190,25631,0,0,0
42614,5162,25588,0,0,0
42579,5127,25529,0,0,0
42535,5078,25453,0,0,0
42484,5022,25368,0,0,0
42430,4966,25280,0,0,0
42372,4908,25192,0,0,0
42311,4847,25107,0,0,0
42245,4780,25020,0,0,0
42169,4704,24923,0,0,0
42090,4624,24817,0,0,0
42015,4544,24706,0,0,0
41948,4470,24593,0,0,0
41880,4401,24478,0,0,0
41812,4336,24366,0,0,0
41750,4276,24263,0,0,0
41689,4216,24163,0,0,0
41622,4152,24064,0,0,0
41554,4082,23964,0,0,0
41489,4008,23864,0,0,0
41429,3941,23771,0,0,0
41371,3880,23686,0,0,0
41316,3824,23605,0,0,0
41263,3770,23521,0,0,0
41205,3711,23434,0,0,0
41151,3656,23353,0,0,0
41103,3605,23280,0,0,0
41048,3552,23200,0,0,0
40986,3494,23112,0,0,0
40926,3438,23027,0,0,0
40874,3387,22952,0,0,0
40828,3343,22886,0,0,0
40792,3311,22831,0,0,0
40765,3287,22786,0,0,0
40743,3261,22741,0,0,0
40719,3233,22695,0,0,0
40688,3202,22649,0,0,0
40647,3165,22601,0,0,0
40600,3126,22551,0,0,0
40558,3094,22503,0,0,0
40526,3069,22457,0,0,0
40499,3046,22409,0,0,0
40475,3022,22358,0,0,0
40451,2995,22301,0,0,0
40421,2963,22237,0,0,0
40381,2924,22173,0,0,0
40335,2877,22115,0,0,0
40297,2834,22065,0,0,0
40270,2797,22019,0,0,0
40246,2762,21975,0,0,0
40218,2728,21928,0,0,0
40191,2697,21881,0,0,0
40168,2670,21836,0,0,0
40144,2642,21792,0,0,0
40113,2606,21746,0,0,0
40079,2574,21700,0,0,0
40056,2553,21657,0,0,0
40049,2547,21632,0,0,0
40067,2567,21642,0,0,0
40122,2624,21705,0,0,0
40221,2726,21827,0,0,0
40361,2871,22015,0,0,0
40540,3062,22269,0,0,0
40760,3297,22587,0,0,0
41025,3579,22978,0,0,0
41337,3912,23453,0,0,0
41697,4295,24017,0,0,0
42099,4721,24664,0,0,0
42524,5173,25364,0,0,0
42948,5630,26089,0,0,0
43361,6076,26816,0,0,0
43759,6504,27522,0,0,0
44134,6903,28180,0,0,0
44467,7251,28763,0,0,0
44747,7535,29248,0,0,0
44972,7756,29622,0,0,0
45138,7910,29887,0,0,0
45242,7996,30045,0,0,0
45290,8022,30105,0,0,0
45288,7995,30076,0,0,0
45237,7921,29973,0,0,0
45142,7806,29808,0,0,0
45010,7656,29588,0,0,0
44854,7483,29328,0,0,0
44686,7298,29047,0,0,0
44516,7109,28762,0,0,0
44349,6925,28481,0,0,0
44186,6752,28211,0,0,0
44033,6596,27963,0,0,0
43899,6457,27741,0,0,0
43782,6336,27544,0,0,0
43684,6235,27377,0,0,0
43601,6152,27236,0,0,0
43531,6080,27118,0,0,0
43467,6016,27014,0,0,0
43403,5956,26918,0,0,0
43338,5899,26827,0,0,0
43271,5838,26735,0,0,0
43203,5773,26642,0,0,0
43137,5705,26544,0,0,0
43072,5635,26437,0,0,0
43010,5565,26328,0,0,0
42949,5495,26215,0,0,0
42880,5418,26091,0,0,0
42805,5335,25960,0,0,0
42726,5248,25829,0,0,0
42643,5162,25696,0,0,0
42557,5073,25556,0,0,0
42465,4979,25406,0,0,0
42374,4886,25260,0,0,0
42292,4803,25131,0,0,0
42220,4729,25024,0,0,0
42157,4665,24934,0,0,0
42103,4611,24856,0,0,0
42058,4566,24792,0,0,0
42021,4532,24742,0,0,0
41994,4512,24710,0,0,0
41980,4509,24701,0,0,0
41984,4523,24712,0,0,0
42001,4549,24736,0,0,0
42021,4579,24767,0,0,0
42041,4608,24796,0,0,0
42062,4638,24824,0,0,0
42088,4669,24855,0,0,0
42116,4698,24886,0,0,0
42145,4725,24916,0,0,0
42170,4747,24939,0,0,0
42189,4762,24956,0,0,0
42203,4768,24969,0,0,0
42208,4766,24968,0,0,0
42204,4760,24956,0,0,0
42196,4751,24936,0,0,0
42180,4735,24908,0,0,0
42155,4712,24865,0,0,0
42126,4682,24811,0,0,0
42096,4645,24752,0,0,0
42059,4601,24690,0,0,0
42014,4556,24623,0,0,0
41966,4509,24552,0,0,0
41913,4459,24476,0,0,0
41855,4401,24398,0,0,0
41793,4336,24316,0,0,0
41727,4266,24227,0,0,0
41655,4190,24131,0,0,0
41579,4111,24028,0,0,0
41502,4032,23920,0,0,0
41429,3954,23808,0,0,0
41358,3877,23696,0,0,0
41290,3803,23587,0,0,0
41221,3731,23481,0,0,0
41148,3659,23375,0,0,0
41073,3584,23266,0,0,0
40992,3506,23152,0,0,0
40911,3428,23036,0,0,0
40839,3356,22925,0,0,0
40781,3288,22825,0,0,0
40733,3228,22738,0,0,0
40695,3180,22661,0,0,0
40660,3139,22591,0,0,0
40623,3098,22528,0,0,0
40577,3055,22467,0,0,0
40530,3015,22407,0,0,0
40485,2978,22347,0,0,0
40441,2941,22291,0,0,0
40402,2907,22240,0,0,0
40371,2879,22193,0,0,0
40341,2852,22151,0,0,0
40308,2821,22111,0,0,0
40271,2784,22065,0,0,0
40229,2739,22012,0,0,0
40185,2691,21961,0,0,0
40146,2647,21916,0,0,0
40113,2611,21870,0,0,0
40082,2577,21823,0,0,0
40053,2550,21777,0,0,0
40028,2528,21734,0,0,0
40010,2508,21694,0,0,0
40001,2499,21663,0,0,0
39996,2497,21643,0,0,0
39996,2503,21644,0,0,0
40016,2534,21680,0,0,0
40070,2597,21764,0,0,0
40170,2698,21906,0,0,0
40323,2848,22114,0,0,0
40535,3059,22394,0,0,0
40801,3331,22749,0,0,0
41111,3651,23184,0,0,0
41464,4018,23709,0,0,0
41858,4432,24326,0,0,0
42280,4882,25015,0,0,0
42712,5348,25750,0,0,0
43138,5809,26498,0,0,0
43547,6250,27224,0,0,0
43929,6660,27905,0,0,0
44281,7034,28523,0,0,0
44597,7362,29063,0,0,0
44864,7634,29510,0,0,0
45073,7843,29858,0,0,0
45222,7985,30102,0,0,0
45308,8064,30245,0,0,0
45341,8088,30296,0,0,0
45324,8061,30266,0,0,0
45266,7990,30166,0,0,0
45180,7888,30009,0,0,0
45069,7759,29804,0,0,0
44939,7611,29562,0,0,0
44798,7451,29301,0,0,0
44652,7288,29029,0,0,0
44504,7124,28756,0,0,0
44353,6960,28486,0,0,0
44197,6797,28227,0,0,0
44049,6647,27992,0,0,0
43915,6512,27778,0,0,0
43793,6391,27580,0,0,0
43685,6283,27403,0,0,0
43585,6188,27247,0,0,0
43496,6107,27112,0,0,0
43423,6038,26995,0,0,0
43364,5976,26893,0,0,0
43309,5913,26796,0,0,0
43246,5842,26693,0,0,0
43174,5762,26584,0,0,0
43098,5680,26472,0,0,0
43022,5595,26356,0,0,0
42938,5505,26231,0,0,0
42847,5409,26099,0,0,0
42754,5313,25965,0,0,0
42660,5215,25830,0,0,0
42566,5118,25694,0,0,0
42476,5028,25563,0,0,0
42388,4943,25438,0,0,0
42303,4861,25315,0,0,0
42228,4785,25198,0,0,0
42169,4720,25093,0,0,0
42124,4668,25007,0,0,0
42092,4634,24938,0,0,0
42071,4612,24886,0,0,0
42057,4602,24850,0,0,0
42048,4601,24830,0,0,0
42043,4611,24821,0,0,0
42048,4628,24825,0,0,0
42060,4647,24838,0,0,0
42079,4670,24862,0,0,0
42103,4698,24894,0,0,0
42133,4727,24926,0,0,0
42163,4751,24957,0,0,0
42180,4763,24981,0,0,0
42187,4768,24995,0,0,0
42184,4766,24993,0,0,0
42170,4754,24974,0,0,0
42156,4740,24950,0,0,0
42144,4724,24923,0,0,0
42119,4697,24881,0,0,0
42086,4661,24829,0,0,0
42049,4620,24766,0,0,0
42006,4569,24692,0,0,0
41955,4507,24608,0,0,0
41898,4442,24520,0,0,0
41841,4379,24431,0,0,0
41785,4319,24343,0,0,0
41729,4257,24254,0,0,0
41669,4191,24163,0,0,0
41601,4121,24066,0,0,0
41527,4047,23961,0,0,0
41451,3972,23849,0,0,0
41372,3892,23730,0,0,0
41296,3815,23613,0,0,0
41227,3745,23503,0,0,0
41163,3679,23401,0,0,0
41103,3618,23308,0,0,0
41047,3562,23220,0,0,0
40991,3507,23134,0,0,0
40933,3451,23051,0,0,0
40872,3392,22968,0,0,0
40811,3332,22878,0,0,0
40751,3273,22788,0,0,0
40695,3218,22707,0,0,0
40641,3168,22638,0,0,0
40588,3121,22578,0,0,0
40538,3074,22522,0,0,0
40485,3025,22466,0,0,0
40431,2973,22405,0,0,0
40381,2926,22338,0,0,0
40339,2885,22270,0,0,0
40303,2848,22200,0,0,0
40270,2810,22130,0,0,0
40240,2771,22063,0,0,0
40211,2732,22000,0,0,0
40181,2695,21944,0,0,0
40149,2659,21891,0,0,0
40112,2622,21837,0,0,0
40065,2580,21774,0,0,0
40012,2533,21709,0,0,0
39964,2489,21650,0,0,0
39927,2457,21599,0,0,0
39900,2433,21557,0,0,0
39875,2413,21521,0,0,0
39853,2394,21489,0,0,0
39831,2376,21459,0,0,0
39810,2361,21436,0,0,0
39802,2355,21422,0,0,0
39814,2367,21424,0,0,0
39849,2401,21451,0,0,0
39910,2463,21514,0,0,0
40003,2560,21624,0,0,0
40135,2696,21787,0,0,0
40314,2878,22012,0,0,0
40540,3111,22315,0,0,0
40811,3397,22702,0,0,0
41129,3737,23183,0,0,0
41495,4130,23767,0,0,0
41902,4571,24449,0,0,0
42342,5049,25209,0,0,0
42802,5548,26021,0,0,0
43268,6050,26847,0,0,0
43723,6534,27651,0,0,0
44155,6984,28404,0,0,0
44555,7390,29080,0,0,0
44915,7747,29666,0,0,0
45225,8044,30156,0,0,0
45476,8278,30545,0,0,0
45666,8452,30832,0,0,0
45793,8563,31017,0,0,0
45861,8614,31110,0,0,0
45875,8613,31120,0,0,0
45840,8562,31051,0,0,0
45763,8467,30916,0,0,0
45652,8341,30729,0,0,0
45513,8190,30499,0,0,0
45355,8021,30240,0,0,0
45189,7845,29969,0,0,0
45023,7676,29704,0,0,0
44863,7517,29451,0,0,0
44715,7368,29211,0,0,0
44577,7225,28988,0,0,0
44449,7090,28785,0,0,0
44337,6969,28608,0,0,0
44245,6866,28456,0,0,0
44164,6778,28326,0,0,0
44095,6705,28216,0,0,0
44039,6646,28124,0,0,0
43991,6598,28042,0,0,0
43944,6555,27963,0,0,0
43895,6513,27885,0,0,0
43841,6467,27798,0,0,0
43770,6405,27690,0,0,0
43685,6325,27563,0,0,0
43593,6234,27421,0,0,0
43498,6135,27267,0,0,0
43397,6028,27103,0,0,0
43296,5919,26937,0,0,0
43198,5810,26772,0,0,0
43102,5703,26607,0,0,0
43008,5598,26445,0,0,0
42914,5495,26288,0,0,0
42824,5395,26135,0,0,0
42735,5300,25986,0,0,0
42649,5208,25848,0,0,0
42575,5127,25728,0,0,0
42516,5062,25628,0,0,0
42470,5011,25544,0,0,0
42442,4979,25485,0,0,0
42435,4966,25451,0,0,0
42442,4965,25438,0,0,0
42454,4973,25436,0,0,0
42465,4985,25442,0,0,0
42474,4996,25454,0,0,0
42484,5008,25468,0,0,0
42491,5019,25482,0,0,0
42499,5033,25495,0,0,0
42504,5045,25508,0,0,0
42507,5053,25517,0,0,0
42510,5059,25523,0,0,0
42506,5063,25523,0,0,0
42493,5063,25514,0,0,0
42472,5056,25489,0,0,0
42448,5042,25450,0,0,0
42422,5021,25403,0,0,0
42397,4994,25350,0,0,0
42373,4965,25295,0,0,0
42345,4931,25235,0,0,0
42310,4891,25166,0,0,0
42265,4842,25086,0,0,0
42208,4784,24998,0,0,0
42146,4720,24906,0,0,0
42076,4648,24807,0,0,0
42002,4574,24701,0,0,0
41928,4501,24596,0,0,0
41856,4427,24493,0,0,0
41785,4352,24387,0,0,0
41722,4280,24286,0,0,0
41664,4212,24188,0,0,0
41603,4142,24088,0,0,0
41539,4071,23986,0,0,0
41470,3998,23881,0,0,0
41397,3924,23777,0,0,0
41325,3853,23678,0,0,0
41258,3787,23583,0,0,0
41200,3728,23494,0,0,0
41154,3675,23410,0,0,0
41112,3629,23333,0,0,0
41073,3587,23261,0,0,0
41033,3544,23189,0,0,0
40989,3498,23116,0,0,0
40940,3448,23042,0,0,0
40889,3399,22969,0,0,0
40839,3356,22902,0,0,0
40789,3317,22837,0,0,0
40743,3278,22772,0,0,0
40706,3243,22713,0,0,0
40679,3215,22662,0,0,0
40656,3188,22613,0,0,0
40629,3155,22564,0,0,0
40596,3118,22516,0,0,0
40563,3081,22468,0,0,0
40529,3042,22419,0,0,0
40494,2999,22369,0,0,0
40462,2956,22319,0,0,0
40435,2917,22268,0,0,0
40409,2883,22220,0,0,0
40381,2852,22172,0,0,0
40350,2824,22127,0,0,0
40321,2805,22087,0,0,0
40300,2792,22054,0,0,0
40287,2782,22027,0,0,0
40283,2779,22014,0,0,0
40290,2793,22022,0,0,0
40318,2831,22063,0,0,0
40377,2905,22150,0,0,0
40485,3027,22297,0,0,0
40648,3204,22511,0,0,0
40863,3432,22797,0,0,0
41125,3707,23167,0,0,0
41432,4031,23628,0,0,0
41788,4409,24188,0,0,0
42186,4832,24841,0,0,0
42613,5287,25569,0,0,0
43063,5762,26353,0,0,0
43526,6245,27161,0,0,0
43987,6721,27957,0,0,0
44426,7169,28706,0,0,0
44821,7572,29382,0,0,0
45164,7922,29969,0,0,0
45451,8211,30458,0,0,0
45681,8436,30844,0,0,0
45856,8597,31127,0,0,0
45978,8702,31316,0,0,0
46052,8763,31424,0,0,0
46086,8785,31460,0,0,0
46084,8772,31433,0,0,0
46051,8725,31352,0,0,0
45987,8646,31223,0,0,0
45893,8536,31051,0,0,0
45773,8400,30844,0,0,0
45630,8247,30611,0,0,0
45477,8087,30368,0,0,0
45327,7931,30126,0,0,0
45188,7785,29891,0,0,0
45057,7647,29670,0,0,0
44935,7516,29465,0,0,0
44824,7397,29277,0,0,0
44723,7292,29106,0,0,0
44628,7195,28951,0,0,0
44537,7106,28807,0,0,0
44447,7018,28669,0,0,0
44356,6928,28529,0,0,0
44265,6834,28382,0,0,0
44177,6739,28237,0,0,0
44098,6651,28100,0,0,0
44022,6569,27965,0,0,0
43944,6486,27827,0,0,0
43856,6393,27679,0,0,0
43752,6289,27514,0,0,0
43636,6178,27336,0,0,0
43515,6062,27151,0,0,0
43392,5940,26967,0,0,0
43274,5824,26793,0,0,0
43165,5713,26630,0,0,0
43064,5608,26475,0,0,0
42975,5513,26331,0,0,0
42896,5429,26199,0,0,0
42826,5353,26081,0,0,0
42764,5281,25977,0,0,0
42708,5213,25888,0,0,0
42656,5154,25809,0,0,0
42614,5108,25736,0,0,0
42581,5074,25676,0,0,0
42559,5052,25630,0,0,0
42545,5041,25597,0,0,0
42539,5042,25580,0,0,0
42541,5053,25580,0,0,0
42545,5065,25589,0,0,0
42546,5076,25600,0,0,0
42547,5084,25607,0,0,0
42546,5087,25607,0,0,0
42545,5086,25599,0,0,0
42544,5081,25584,0,0,0
42535,5069,25563,0,0,0
42519,5054,25538,0,0,0
42496,5037,25508,0,0,0
42465,5014,25471,0,0,0
42429,4984,25424,0,0,0
42387,4945,25368,0,0,0
42338,4893,25302,0,0,0
42281,4829,25221,0,0,0
42219,4759,25128,0,0,0
42157,4688,25033,0,0,0
42098,4619,24939,0,0,0
42039,4552,24843,0,0,0
41977,4486,24743,0,0,0
41911,4416,24632,0,0,0
41841,4338,24512,0,0,0
41769,4256,24389,0,0,0
41696,4179,24271,0,0,0
41622,4104,24159,0,0,0
41549,4031,24051,0,0,0
41479,3959,23947,0,0,0
41413,3889,23852,0,0,0
41349,3821,23763,0,0,0
41289,3756,23677,0,0,0
41230,3696,23592,0,0,0
41167,3636,23499,0,0,0
41098,3568,23398,0,0,0
41030,3499,23297,0,0,0
40968,3435,23203,0,0,0
40914,3376,23116,0,0,0
40865,3323,23036,0,0,0
40816,3273,22956,0,0,0
40765,3225,22877,0,0,0
40711,3176,22798,0,0,0
40652,3124,22717,0,0,0
40590,3068,22630,0,0,0
40530,3014,22540,0,0,0
40475,2964,22457,0,0,0
40428,2921,22388,0,0,0
40390,2884,22329,0,0,0
40359,2853,22278,0,0,0
40333,2825,22232,0,0,0
40310,2797,22187,0,0,0
40291,2771,22142,0,0,0
40271,2744,22095,0,0,0
40247,2715,22049,0,0,0
40223,2686,22007,0,0,0
40198,2661,21968,0,0,0
40166,2632,21925,0,0,0
40125,2597,21875,0,0,0
40081,2559,21821,0,0,0
40040,2523,21767,0,0,0
39999,2487,21716,0,0,0
39961,2451,21667,0,0,0
39927,2418,21620,0,0,0
39899,2392,21574,0,0,0
39878,2371,21531,0,0,0
39864,2354,21501,0,0,0
39861,2351,21489,0,0,0
39882,2375,21502,0,0,0
39933,2428,21548,0,0,0
40013,2513,21638,0,0,0
40129,2634,21781,0,0,0
40283,2793,21983,0,0,0
40481,2999,22254,0,0,0
40725,3259,22604,0,0,0
41017,3571,23038,0,0,0
41356,3932,23564,0,0,0
41737,4334,24182,0,0,0
42147,4767,24871,0,0,0
42576,5221,25608,0,0,0
43006,5681,26367,0,0,0
43421,6125,27113,0,0,0
43812,6539,27816,0,0,0
44171,6918,28451,0,0,0
44488,7249,28999,0,0,0
44758,7525,29453,0,0,0
44979,7740,29808,0,0,0
45142,7890,30061,0,0,0
45239,7975,30210,0,0,0
45275,8001,30262,0,0,0
45261,7974,30233,0,0,0
45199,7898,30133,0,0,0
45096,7784,29972,0,0,0
44966,7643,29768,0,0,0
44824,7490,29532,0,0,0
44677,7331,29279,0,0,0
44525,7166,29016,0,0,0
44372,6999,28754,0,0,0
44221,6833,28501,0,0,0
44077,6677,28260,0,0,0
43944,6532,28036,0,0,0
43821,6401,27834,0,0,0
43715,6286,27659,0,0,0
43624,6191,27506,0,0,0
43551,6115,27379,0,0,0
43498,6058,27281,0,0,0
43456,6013,27204,0,0,0
43414,5972,27135,0,0,0
43368,5929,27066,0,0,0
43316,5881,26996,0,0,0
43262,5831,26919,0,0,0
43208,5779,26830,0,0,0
43149,5721,26729,0,0,0
43085,5652,26615,0,0,0
43008,5571,26488,0,0,0
42917,5476,26347,0,0,0
42816,5367,26193,0,0,0
42710,5250,26036,0,0,0
42611,5138,25885,0,0,0
42523,5038,25739,0,0,0
42448,4951,25606,0,0,0
42384,4876,25489,0,0,0
42324,4808,25382,0,0,0
42265,4749,25284,0,0,0
42208,4700,25198,0,0,0
42159,4662,25125,0,0,0
42131,4641,25074,0,0,0
42119,4634,25042,0,0,0
42117,4638,25030,0,0,0
42128,4656,25037,0,0,0
42155,4685,25058,0,0,0
42190,4719,25087,0,0,0
42225,4753,25120,0,0,0
42255,4785,25155,0,0,0
42279,4814,25187,0,0,0
42293,4831,25208,0,0,0
42297,4838,25223,0,0,0
42299,4841,25233,0,0,0
42296,4835,25232,0,0,0
42284,4818,25217,0,0,0
42259,4788,25187,0,0,0
42225,4750,25141,0,0,0
42187,4709,25079,0,0,0
42143,4663,25003,0,0,0
42094,4614,24921,0,0,0
42042,4561,24837,0,0,0
41985,4501,24745,0,0,0
41922,4432,24645,0,0,0
41858,4364,24544,0,0,0
41797,4302,24447,0,0,0
41743,4245,24349,0,0,0
41687,4184,24247,0,0,0
41624,4115,24143,0,0,0
41552,4040,24032,0,0,0
41475,3963,23918,0,0,0
41395,3882,23806,0,0,0
41313,3799,23701,0,0,0
41237,3723,23602,0,0,0
41172,3658,23513,0,0,0
41111,3598,23427,0,0,0
41050,3541,23342,0,0,0
40988,3486,23260,0,0,0
40928,3434,23180,0,0,0
40868,3382,23100,0,0,0
40809,3326,23021,0,0,0
40758,3273,22948,0,0,0
40719,3229,22883,0,0,0
40686,3191,22825,0,0,0
40654,3156,22771,0,0,0
40619,3123,22718,0,0,0
40582,3089,22662,0,0,0
40543,3050,22602,0,0,0
40502,3003,22535,0,0,0
40460,2953,22464,0,0,0
40419,2908,22396,0,0,0
40378,2865,22330,0,0,0
40338,2823,22265,0,0,0
40301,2782,22201,0,0,0
40260,2738,22138,0,0,0
40214,2691,22079,0,0,0
40169,2648,22022,0,0,0
40131,2612,21966,0,0,0
40101,2581,21914,0,0,0
40070,2554,21868,0,0,0
40042,2531,21829,0,0,0
40017,2512,21792,0,0,0
39987,2488,21749,0,0,0
39949,2454,21694,0,0,0
39915,2422,21636,0,0,0
39888,2394,21583,0,0,0
39867,2370,21539,0,0,0
39854,2355,21513,0,0,0
39858,2360,21513,0,0,0
39894,2395,21553,0,0,0
39969,2471,21646,0,0,0
40085,2593,21807,0,0,0
40246,2764,22036,0,0,0
40449,2979,22329,0,0,0
40694,3236,22686,0,0,0
40986,3541,23114,0,0,0
41321,3893,23619,0,0,0
41690,4286,24198,0,0,0
42078,4705,24836,0,0,0
42475,5135,25511,0,0,0
42873,5565,26196,0,0,0
43258,5979,26865,0,0,0
43621,6362,27497,0,0,0
43953,6706,28069,0,0,0
44244,7001,28561,0,0,0
44487,7240,28959,0,0,0
44676,7416,29261,0,0,0
44804,7531,29466,0,0,0
44874,7588,29578,0,0,0
44892,7591,29599,0,0,0
44861,7542,29540,0,0,0
44788,7454,29416,0,0,0
44684,7338,29241,0,0,0
44561,7203,29032,0,0,0
44420,7053,28800,0,0,0
44266,6891,28551,0,0,0
44109,6725,28297,0,0,0
43957,6565,28045,0,0,0
43808,6412,27800,0,0,0
43675,6274,27572,0,0,0
43566,6157,27370,0,0,0
43475,6056,27192,0,0,0
43396,5968,27040,0,0,0
43332,5898,26914,0,0,0
43279,5842,26810,0,0,0
43229,5790,26718,0,0,0
43171,5733,26627,0,0,0
43110,5669,26534,0,0,0
43051,5601,26441,0,0,0
42985,5524,26339,0,0,0
42903,5433,26220,0,0,0
42812,5336,26089,0,0,0
42715,5237,25950,0,0,0
42615,5135,25802,0,0,0
42518,5035,25652,0,0,0
42428,4940,25505,0,0,0
42346,4848,25363,0,0,0
42269,4761,25231,0,0,0
42195,4680,25111,0,0,0
42126,4606,25000,0,0,0
42062,4539,24893,0,0,0
42003,4475,24796,0,0,0
41951,4417,24716,0,0,0
41905,4371,24653,0,0,0
41871,4340,24610,0,0,0
41851,4328,24588,0,0,0
41845,4330,24584,0,0,0
41847,4341,24592,0,0,0
41854,4356,24608,0,0,0
41864,4373,24629,0,0,0
41877,4389,24650,0,0,0
41892,4406,24673,0,0,0
41915,4430,24704,0,0,0
41945,4459,24739,0,0,0
41978,4491,24772,0,0,0
42006,4514,24797,0,0,0
42019,4520,24809,0,0,0
42014,4510,24801,0,0,0
41991,4483,24769,0,0,0
41954,4443,24714,0,0,0
41913,4397,24653,0,0,0
41872,4352,24590,0,0,0
41828,4307,24527,0,0,0
41778,4261,24461,0,0,0
41719,4209,24386,0,0,0
41656,4154,24305,0,0,0
41595,4098,24222,0,0,0
41530,4038,24133,0,0,0
41465,3970,24037,0,0,0
41404,3902,23942,0,0,0
41347,3838,23848,0,0,0
41288,3778,23754,0,0,0
41224,3717,23657,0,0,0
41157,3654,23558,0,0,0
41090,3595,23460,0,0,0
41024,3536,23361,0,0,0
40954,3470,23259,0,0,0
40883,3399,23159,0,0,0
40815,3329,23063,0,0,0
40753,3261,22970,0,0,0
40695,3192,22880,0,0,0
40637,3127,22796,0,0,0
40579,3068,22716,0,0,0
40522,3011,22638,0,0,0
40465,2956,22562,0,0,0
40411,2906,22488,0,0,0
40362,2859,22413,0,0,0
40318,2814,22342,0,0,0
40281,2775,22283,0,0,0
40251,2741,22231,0,0,0
40225,2712,22186,0,0,0
40197,2685,22141,0,0,0
40168,2658,22096,0,0,0
40142,2631,22052,0,0,0
40119,2605,22005,0,0,0
40093,2578,21955,0,0,0
40062,2547,21903,0,0,0
40030,2517,21853,0,0,0
40004,2494,21809,0,0,0
39977,2470,21766,0,0,0
39944,2440,21720,0,0,0
39915,2415,21675,0,0,0
39895,2395,21633,0,0,0
39884,2381,21601,0,0,0
39880,2373,21587,0,0,0
39887,2379,21594,0,0,0
39915,2410,21631,0,0,0
39968,2468,21705,0,0,0
40049,2556,21823,0,0,0
40169,2686,21994,0,0,0
40340,2867,22225,0,0,0
40564,3098,22524,0,0,0
40832,3378,22896,0,0,0
41139,3698,23343,0,0,0
41478,4055,23867,0,0,0
41844,4442,24462,0,0,0
42225,4848,25109,0,0,0
42611,5261,25781,0,0,0
42994,5669,26451,0,0,0
43360,6060,27099,0,0,0
43697,6420,27704,0,0,0
43998,6734,28243,0,0,0
44254,6998,28698,0,0,0
44456,7203,29056,0,0,0
44603,7346,29313,0,0,0
44695,7426,29466,0,0,0
44730,7449,29523,0,0,0
44718,7424,29498,0,0,0
44667,7358,29404,0,0,0
44586,7260,29255,0,0,0
44482,7137,29062,0,0,0
44355,6992,28835,0,0,0
44208,6835,28585,0,0,0
44058,6679,28327,0,0,0
43917,6529,28074,0,0,0
43783,6382,27831,0,0,0
43654,6240,27603,0,0,0
43531,6110,27394,0,0,0
43416,5992,27204,0,0,0
43312,5885,27032,0,0,0
43221,5792,26879,0,0,0
43143,5710,26742,0,0,0
43075,5636,26620,0,0,0
43015,5570,26515,0,0,0
42958,5510,26421,0,0,0
42897,5448,26329,0,0,0
42829,5379,26233,0,0,0
42754,5307,26133,0,0,0
42677,5236,26026,0,0,0
42597,5162,25910,0,0,0
42509,5082,25784,0,0,0
42424,4999,25653,0,0,0
42346,4918,25525,0,0,0
42273,4837,25401,0,0,0
42195,4748,25278,0,0,0
42112,4657,25156,0,0,0
42039,4579,25045,0,0,0
41979,4515,24948,0,0,0
41925,4460,24865,0,0,0
41881,4415,24795,0,0,0
41853,4385,24742,0,0,0
41836,4366,24700,0,0,0
41821,4347,24663,0,0,0
41809,4330,24635,0,0,0
41803,4320,24618,0,0,0
41802,4321,24610,0,0,0
41808,4329,24611,0,0,0
41823,4345,24623,0,0,0
41849,4371,24646,0,0,0
41878,4404,24675,0,0,0
41902,4433,24702,0,0,0
41921,4455,24724,0,0,0
41936,4471,24739,0,0,0
41942,4480,24744,0,0,0
41938,4479,24740,0,0,0
41928,4468,24725,0,0,0
41911,4450,24700,0,0,0
41883,4421,24663,0,0,0
41842,4380,24614,0,0,0
41795,4329,24555,0,0,0
41746,4275,24487,0,0,0
41693,4217,24411,0,0,0
41641,4159,24334,0,0,0
41591,4102,24259,0,0,0
41539,4045,24181,0,0,0
41484,3982,24094,0,0,0
41421,3912,23997,0,0,0
41355,3841,23897,0,0,0
41288,3771,23796,0,0,0
41222,3700,23692,0,0,0
41156,3626,23586,0,0,0
41091,3554,23485,0,0,0
41028,3488,23394,0,0,0
40966,3425,23310,0,0,0
40902,3361,23224,0,0,0
40836,3297,23131,0,0,0
40768,3230,23037,0,0,0
40701,3163,22943,0,0,0
40636,3099,22851,0,0,0
40576,3040,22765,0,0,0
40525,2988,22687,0,0,0
40481,2944,22616,0,0,0
40440,2901,22549,0,0,0
40401,2863,22482,0,0,0
40363,2825,22414,0,0,0
40319,2778,22341,0,0,0
40271,2725,22263,0,0,0
40222,2674,22188,0,0,0
40174,2625,22118,0,0,0
40128,2581,22055,0,0,0
40089,2546,21998,0,0,0
40058,2520,21947,0,0,0
40028,2497,21900,0,0,0
39997,2471,21857,0,0,0
39966,2446,21815,0,0,0
39939,2421,21772,0,0,0
39912,2396,21728,0,0,0
39890,2376,21685,0,0,0
39881,2368,21651,0,0,0
39881,2372,21630,0,0,0
39891,2386,21628,0,0,0
39919,2420,21655,0,0,0
39972,2480,21719,0,0,0
40052,2569,21828,0,0,0
40167,2694,21993,0,0,0
40325,2864,22220,0,0,0
40534,3085,22512,0,0,0
40789,3355,22878,0,0,0
41087,3670,23326,0,0,0
41424,4027,23859,0,0,0
41797,4420,24470,0,0,0
42199,4843,25144,0,0,0
42615,5281,25863,0,0,0
43027,5718,26595,0,0,0
43430,6141,27308,0,0,0
43811,6539,27977,0,0,0
44151,6893,28578,0,0,0
44444,7193,29091,0,0,0
44691,7442,29515,0,0,0
44889,7640,29849,0,0,0
45031,7779,30086,0,0,0
45120,7861,30228,0,0,0
45162,7893,30290,0,0,0
45164,7886,30285,0,0,0
45133,7841,30221,0,0,0
45070,7764,30106,0,0,0
44980,7660,29949,0,0,0
44869,7536,29761,0,0,0
44753,7405,29559,0,0,0
44642,7281,29358,0,0,0
44535,7165,29163,0,0,0
44428,7054,28975,0,0,0
44329,6947,28802,0,0,0
44239,6848,28641,0,0,0
44157,6758,28492,0,0,0
44083,6678,28358,0,0,0
44016,6605,28242,0,0,0
43954,6540,28144,0,0,0
43898,6481,28057,0,0,0
43847,6430,27982,0,0,0
43797,6383,27913,0,0,0
